### header ###
fiducial parameters:
Omega_m = 0.31
Omega_nu = 0
Omega_de = 0.69
Omega_k = 0
H_0 = 100
w_de = -1
zeff = 0
beta = 0
fgrowth = 0
b_1 = 2
gamma = 0.55
Lx = 3500 Ly = 3500 Lz = 3500
nx = 700 ny = 700 nz = 700
xoffset = -685.467585 yoffset = -31.7331281 zoffset = 572.489161
bins = 400 dk = 0.001
kx_ny = 0.628318531 ky_ny = 0.628318531 kz_ny = 0.628318531
############################
A(data) = 8.07730903 (not used)
A(ran) = 8.07288397 (used)
Ngal = 479959
weighted Ngal = 0
Nran = 23820508
weighted Nran = 0
SN(data) = 3494.47951
SN(ran) = 70.3177472
SN(data+ran) = 3564.79726
############################
13 columns: k_central k_mean P_0(k) sigma^{lin}_{P_0(k)} P^img_1(k) sigma^{lin}_{P_1(k)} P_2(k) sigma^{lin}_{P_2(k)} P^img_3(k) sigma^{lin}_{P_3(k)} P_4(k) sigma^{lin}_{P_4(k)} N_modes
### header ###
0.00050000 0 0 0 0 0 0 0 0 0 0 0 0
0.00150000 0.00179520 8102.21797534 0 -17237.72744741 0 1010.20127055 0 -33629.97217167 0 38632.66997124 0 3
0.00250000 0.00253879 11996.42104801 0 -10552.56774701 0 -7698.39921688 0 13925.99509416 0 10473.32311828 0 6
0.00350000 0.00331552 26882.60815044 0 -15641.65182481 0 9109.44521945 0 -7572.63975159 0 -12567.75300865 0 7
0.00450000 0.00420575 36788.46354944 0 -17503.02035007 0 10743.88644755 0 -14372.09906110 0 2408.24172038 0 24
0.00550000 0.00557378 56963.12515500 0 -4532.72190031 0 16421.36493853 0 1616.40441097 0 10232.62184905 0 45
0.00650000 0.00659388 58960.57255228 0 -3408.61519542 0 10938.32754369 0 2164.61735740 0 16993.58268516 0 40
0.00750000 0.00754703 57286.99065595 0 10632.53207685 0 8835.36089089 0 17809.83447079 0 17055.58770415 0 57
0.00850000 0.00846663 62940.74115484 0 -5065.27857944 0 12603.62734107 0 605.08151392 0 7109.61727233 0 75
0.00950000 0.00948925 61739.28318877 0 -3267.66450048 0 7460.38852258 0 25270.58838009 0 7054.49923938 0 112
0.01050000 0.01054430 64062.92127521 0 -13007.76719695 0 -6962.70966663 0 -648.33222913 0 9086.50336242 0 105
0.01150000 0.01145670 77935.43704049 0 -15332.06962288 0 -22280.17489307 0 25341.11908919 0 -49.17905936 0 144
0.01250000 0.01249090 88925.60520899 0 -7987.29831605 0 -26523.20048683 0 -7381.49820825 0 -6972.74119292 0 169
0.01350000 0.01339930 86036.28204756 0 111.80058539 0 -32119.15345017 0 -21171.28156249 0 -32776.29592816 0 180
0.01450000 0.01448870 84944.88299019 0 14169.25407042 0 -8191.18410526 0 -58167.90481852 0 -29220.41881265 0 267
0.01550000 0.01550050 73688.86830280 0 14602.51414058 0 9346.40404289 0 -24514.45931823 0 1930.88058047 0 238
0.01650000 0.01653350 67826.73665082 0 1331.25882992 0 23437.23283662 0 -12811.34415466 0 -21971.92137012 0 315
0.01750000 0.01747870 74912.69236500 0 -8981.86989289 0 21409.44726933 0 4673.41793178 0 -11251.58575746 0 297
0.01850000 0.01844180 83941.95180811 0 -7887.95741778 0 34860.66107527 0 10650.80141280 0 -39727.72289580 0 388
0.01950000 0.01947590 86726.86294650 0 415.96952772 0 36819.02316594 0 3740.56349348 0 -598.55216398 0 399
0.02050000 0.02045430 85124.25465225 0 4221.47884966 0 44069.73507343 0 10620.16429003 0 270.57107990 0 462
0.02150000 0.02154770 78745.04543123 0 8760.70020463 0 37996.67563365 0 15900.41205582 0 9655.64300275 0 571
0.02250000 0.02255340 71963.57864956 0 10080.01199607 0 30891.45407428 0 8447.55271411 0 10855.78336217 0 510
0.02350000 0.02348930 68120.48542825 0 3704.55629317 0 29819.09941559 0 10261.67562937 0 19107.28949304 0 555
0.02450000 0.02439640 64790.04084605 0 451.83943120 0 28340.94405230 0 7513.92321308 0 15613.52811977 0 592
0.02550000 0.02547300 63478.63469453 0 1189.83202501 0 17608.53960559 0 3559.17666830 0 7094.99073124 0 837
0.02650000 0.02652900 66102.44350681 0 177.05754617 0 19746.38408157 0 2085.50559657 0 2960.49606536 0 723
0.02750000 0.02749970 60794.48171200 0 1346.36148097 0 19034.43359573 0 671.23976195 0 -1053.03345188 0 826
0.02850000 0.02848090 62890.02990717 0 4965.15154610 0 20169.01471990 0 2344.63121430 0 3774.33408418 0 831
0.02950000 0.02946900 57535.78579462 0 2588.78704887 0 21421.40538014 0 4453.61013948 0 4017.39375860 0 996
0.03050000 0.03053250 58032.04739299 0 -1859.33121750 0 18449.03978257 0 7299.07582230 0 3395.46127354 0 1041
0.03150000 0.03150510 57164.42002020 0 -1196.97367452 0 16861.60057332 0 3573.37138872 0 2500.61812634 0 1036
0.03250000 0.03246190 59487.83666015 0 1270.74857479 0 12943.21554325 0 2314.80237124 0 887.54869960 0 1059
0.03350000 0.03345080 55487.07353343 0 -652.81873514 0 7432.02122640 0 4897.89824515 0 3447.70050203 0 1302
0.03450000 0.03451200 56858.93457846 0 1630.15623840 0 4876.46222430 0 -124.88032270 0 -1781.78065447 0 1339
0.03550000 0.03553350 53193.66289374 0 2016.05997530 0 649.71959143 0 2417.91893227 0 -6803.46749109 0 1365
0.03650000 0.03647120 51126.01695711 0 2522.24237671 0 3344.32927752 0 1486.81392130 0 -7121.43144291 0 1308
0.03750000 0.03744890 49905.73603884 0 1953.29096591 0 -1169.17106690 0 1311.58330872 0 -6733.24680709 0 1579
0.03850000 0.03847530 48732.29105456 0 621.54606093 0 4414.14837383 0 -2375.78873634 0 -11307.50099779 0 1662
0.03950000 0.03950240 48095.85382399 0 2603.90077225 0 6870.39969462 0 -4339.39910897 0 -7173.61530978 0 1683
0.04050000 0.04050350 45131.57102354 0 2693.75268815 0 8431.65285567 0 -2335.28617215 0 -3046.31765503 0 1822
0.04150000 0.04152450 43249.82942061 0 2578.98804141 0 8545.24383599 0 155.93597935 0 1410.03842100 0 1887
0.04250000 0.04250150 42251.54861496 0 996.16931331 0 8362.06329419 0 3190.85578321 0 758.20069384 0 1920
0.04350000 0.04349210 41737.12840389 0 -689.21346682 0 7768.98528760 0 3621.65779726 0 335.71178127 0 2005
0.04450000 0.04448520 41637.80965026 0 406.75735347 0 7476.96379283 0 3258.93950852 0 2281.28644401 0 2151
0.04550000 0.04548030 42615.93882474 0 -1626.15912914 0 7324.57538636 0 -1530.42780876 0 15.87959609 0 2274
0.04650000 0.04648670 42085.24229619 0 678.16660835 0 11052.38356165 0 -1702.89034013 0 2422.39215150 0 2311
0.04750000 0.04749250 41840.98681069 0 2595.50795004 0 11083.17569697 0 -2919.96028420 0 1716.27678084 0 2568
0.04850000 0.04851840 40902.49655906 0 2.01460950 0 12938.01155059 0 388.92980328 0 2372.75491934 0 2493
0.04950000 0.04949480 40735.19373105 0 -543.39094896 0 10397.31160840 0 1756.01535461 0 3254.24484280 0 2644
0.05050000 0.05050630 41739.67503860 0 166.94297745 0 15538.56848074 0 2326.30651672 0 3121.54302985 0 2829
0.05150000 0.05149060 40900.61426384 0 2348.41794939 0 10819.65436628 0 1109.94520145 0 3110.64786223 0 2784
0.05250000 0.05249300 39058.17941402 0 991.95297202 0 11104.43456062 0 2220.36651286 0 4093.54920870 0 3055
0.05350000 0.05348950 36387.53466776 0 -50.89560188 0 7881.48010776 0 1800.07213507 0 6696.08808500 0 3009
0.05450000 0.05448610 38537.66942429 0 625.43576864 0 9112.47903645 0 2890.43039391 0 2632.00233264 0 3336
0.05550000 0.05550870 37149.97495477 0 1496.35826529 0 7510.46864774 0 -812.10630722 0 2210.71144562 0 3349
0.05650000 0.05647670 35715.99816751 0 2084.44265338 0 8961.20893477 0 -745.56384952 0 3047.92314213 0 3324
0.05750000 0.05747970 34960.86561488 0 875.34478319 0 10156.18959083 0 -1464.82428421 0 5197.67036729 0 3639
0.05850000 0.05849280 34035.32998329 0 580.33929688 0 11257.89698261 0 291.05266635 0 5189.59864250 0 3846
0.05950000 0.05951020 33197.81933400 0 1253.48682039 0 12419.05168634 0 589.12186493 0 4033.12753217 0 3787
0.06050000 0.06049470 32964.96834307 0 556.74195823 0 12513.38789379 0 -30.60080555 0 2901.67987592 0 3930
0.06150000 0.06148310 33003.50003344 0 -280.03348869 0 10438.72210322 0 305.81650426 0 3181.45537944 0 4083
0.06250000 0.06249100 33091.96790874 0 150.91025112 0 13191.34634244 0 -1280.86867967 0 2268.22110072 0 4303
0.06350000 0.06350600 32626.59809661 0 483.97463952 0 12995.36619315 0 -778.01683357 0 416.71912411 0 4470
0.06450000 0.06451750 31828.06203069 0 1754.38772286 0 13440.47365086 0 -177.37532190 0 2586.94904295 0 4479
0.06550000 0.06550280 31508.62545967 0 1362.03989292 0 13632.35703997 0 1307.13223414 0 2579.69667020 0 4636
0.06650000 0.06648880 29962.59674524 0 271.13466123 0 12291.71995092 0 3949.35432259 0 2172.85516706 0 4653
0.06750000 0.06749660 30009.54340247 0 391.14094654 0 12217.31392814 0 1728.60027836 0 2006.57099293 0 5220
0.06850000 0.06852730 29216.10060597 0 1364.73046785 0 11480.22926497 0 1066.37117435 0 3237.80244044 0 5029
0.06950000 0.06949320 28358.21687902 0 1214.32400751 0 11784.93964397 0 -218.06390114 0 4380.68780822 0 5040
0.07050000 0.07048030 27336.79491450 0 398.45089539 0 10599.34831937 0 -426.89680508 0 4612.49800063 0 5475
0.07150000 0.07148790 27651.91327884 0 -458.71645214 0 11249.03912275 0 1091.32155110 0 4745.85308074 0 5509
0.07250000 0.07249820 27642.39107950 0 -810.15647082 0 10278.85987749 0 2174.50494346 0 1297.64325177 0 5916
0.07350000 0.07351270 27921.96728117 0 374.88455924 0 10950.67318586 0 1621.79663316 0 2255.03396186 0 5721
0.07450000 0.07449140 27269.03228661 0 1284.33431734 0 9815.27270966 0 65.59566320 0 1101.68635436 0 6028
0.07550000 0.07549160 26137.66213664 0 1320.04256488 0 10670.43264470 0 -143.79960412 0 2348.01934569 0 6183
0.07650000 0.07648840 25418.73608617 0 650.20566649 0 10021.72727823 0 -786.87801512 0 2500.45204147 0 6330
0.07750000 0.07749960 25218.32700695 0 -0.44469114 0 11069.16920607 0 -115.25182904 0 3072.32654603 0 6583
0.07850000 0.07848650 25056.11744836 0 280.69339925 0 10994.68567702 0 -332.32475711 0 1788.64549585 0 6549
0.07950000 0.07947320 25525.58402067 0 -158.64316277 0 11185.26253180 0 579.35275274 0 323.26870264 0 6828
0.08050000 0.08048110 24890.91836206 0 67.70483035 0 10239.25417162 0 983.70409003 0 -191.62429671 0 7147
0.08150000 0.08149960 24963.10991988 0 1111.57283319 0 9845.48908409 0 282.05086627 0 172.68176341 0 7386
0.08250000 0.08250610 24101.57232574 0 718.31928707 0 9104.14157586 0 -17.46637095 0 -1224.33338915 0 7227
0.08350000 0.08350160 23371.02033421 0 234.98352070 0 8512.61369475 0 1778.14893193 0 147.29181537 0 7798
0.08450000 0.08449610 23375.55998738 0 37.63959316 0 8382.45851650 0 -130.73647530 0 -1218.57578024 0 7371
0.08550000 0.08548940 23063.20970425 0 517.89692107 0 8821.63120811 0 1567.21007181 0 -1037.97509012 0 8256
0.08650000 0.08650700 22080.54087659 0 1069.91099660 0 8005.68944757 0 467.07162845 0 -356.52110853 0 8037
0.08750000 0.08749060 21680.71922739 0 494.09252994 0 7830.46990732 0 629.41516218 0 156.86273294 0 8155
0.08850000 0.08849210 20778.54620117 0 122.07016666 0 7391.93941055 0 795.95399977 0 -523.39100864 0 8718
0.08950000 0.08949900 20799.25144858 0 412.63897241 0 7313.92380988 0 741.73946853 0 -450.37345539 0 8571
0.09050000 0.09049190 20524.98996282 0 111.47173734 0 6722.20769925 0 822.10683099 0 -503.12976146 0 8932
0.09150000 0.09150830 20201.56735487 0 40.07982283 0 6686.47730706 0 1002.99318709 0 -195.03014382 0 9285
0.09250000 0.09250820 20250.72847706 0 -90.95017980 0 5728.57727002 0 -258.07263964 0 -608.31906170 0 9204
0.09350000 0.09350330 19689.02943901 0 572.84886914 0 5874.68766833 0 821.67279586 0 -1352.57305520 0 9349
0.09450000 0.09448040 19851.68189060 0 318.17875492 0 5045.85772170 0 138.05528200 0 -381.03855738 0 9564
0.09550000 0.09549270 19285.11102963 0 58.18617415 0 5543.65837323 0 713.19390792 0 468.82327024 0 10155
0.09650000 0.09649430 19581.29571853 0 292.25512082 0 4756.57109117 0 278.11133310 0 1218.83044371 0 9913
0.09750000 0.09749140 18876.32079732 0 658.72692767 0 5346.40490658 0 668.53922192 0 573.31944295 0 10476
0.09850000 0.09850240 18525.77099357 0 733.83715031 0 5276.26172886 0 68.86963893 0 1757.33296127 0 10575
0.09950000 0.09950330 17981.56622873 0 290.89986826 0 4688.91918653 0 601.26709802 0 1192.35651507 0 10882
0.10050000 0.10051200 17551.29568628 0 292.68029809 0 5359.32630964 0 501.56967089 0 1266.02069209 0 10875
0.10150000 0.10150300 17677.85235895 0 230.12719903 0 5333.38385259 0 158.78488853 0 1032.46217960 0 11118
0.10250000 0.10250800 17386.87166272 0 348.76937393 0 5428.20724234 0 -221.45756870 0 1502.40375464 0 11575
0.10350000 0.10349800 17035.98968922 0 368.41057092 0 5467.33683825 0 -523.36332783 0 1660.17331098 0 11364
0.10450000 0.10450100 16744.56609999 0 446.28001691 0 5485.44008933 0 657.17126603 0 1337.01643883 0 12093
0.10550000 0.10551000 16578.70267421 0 43.16656554 0 5553.43523604 0 -290.69281579 0 911.38077154 0 12067
0.10650000 0.10649700 16010.24951802 0 542.85283398 0 5818.92744054 0 -467.84558396 0 919.11479043 0 12054
0.10750000 0.10749900 15918.01705228 0 428.04168347 0 5991.81072026 0 -323.90646855 0 2008.27613096 0 12807
0.10850000 0.10850100 15579.42535932 0 293.14201404 0 6105.76708729 0 -266.48428481 0 1478.52075001 0 12736
0.10950000 0.10950300 15625.15406083 0 250.83908984 0 6387.12593326 0 340.54706552 0 1737.36955962 0 12933
0.11050000 0.11050200 15552.63033326 0 3.02102847 0 6359.14616844 0 41.41470231 0 1604.42415552 0 13428
0.11150000 0.11150900 15293.75937900 0 174.59173944 0 6358.53719058 0 941.08449733 0 1360.10223607 0 13453
0.11250000 0.11250000 15318.11849360 0 223.27675167 0 6236.48695410 0 518.01982387 0 1373.76548490 0 13668
0.11350000 0.11349100 15096.11838099 0 11.99354224 0 6029.48984162 0 446.26562289 0 1435.99195038 0 13791
0.11450000 0.11448600 15260.09951155 0 76.26329455 0 6290.92957524 0 400.28336515 0 1952.19480575 0 14205
0.11550000 0.11549300 15141.40418950 0 67.80669574 0 5973.51923966 0 -25.38086874 0 1353.31490096 0 14776
0.11650000 0.11649800 14904.01354539 0 365.45979636 0 6048.04705801 0 17.44732656 0 1888.71716756 0 14553
0.11750000 0.11747300 14782.32869563 0 383.74574080 0 5749.08321559 0 13.31945314 0 1459.44313435 0 14568
0.11850000 0.11849100 14360.36239679 0 303.30419376 0 5868.98542105 0 -102.96509163 0 1189.66594014 0 16015
0.11950000 0.11950300 14084.55078556 0 250.87673574 0 5611.69780924 0 629.54803007 0 1005.56750261 0 15270
0.12050000 0.12050700 14074.47496997 0 -6.79152045 0 5149.71612850 0 565.86001772 0 1060.26257275 0 15999
0.12150000 0.12150000 14012.69139749 0 -57.27901858 0 5155.57338833 0 373.44847872 0 1125.83398756 0 15670
0.12250000 0.12250700 14009.92331628 0 50.22805141 0 4357.91203607 0 595.22603760 0 688.31771575 0 16887
0.12350000 0.12352200 13880.48783915 0 198.14811049 0 4668.65683211 0 231.63082074 0 1434.48611420 0 16407
0.12450000 0.12449800 13836.86287937 0 191.53350364 0 4125.74752927 0 129.75214562 0 475.50652550 0 16306
0.12550000 0.12549900 13209.28350865 0 439.89239272 0 4316.21366080 0 -125.14052233 0 584.15039108 0 17523
0.12650000 0.12650100 13386.99432198 0 321.77172432 0 4645.85891531 0 -500.94187007 0 782.92187346 0 17154
0.12750000 0.12750600 12852.53320299 0 95.69588894 0 4474.04965109 0 375.49242988 0 780.48817647 0 18007
0.12850000 0.12850300 12971.56069479 0 49.85491407 0 4352.14335484 0 298.75346826 0 396.07698895 0 17496
0.12950000 0.12949900 12962.59211169 0 -75.56429868 0 4245.07397384 0 564.92994243 0 118.28564604 0 18405
0.13050000 0.13049000 13071.65451115 0 38.36405537 0 4590.56372516 0 -47.10310918 0 230.78600236 0 18100
0.13150000 0.13148800 12971.00707855 0 303.81573516 0 4428.29880494 0 -580.50316729 0 -336.06831013 0 19059
0.13250000 0.13249300 12646.92013111 0 492.38517745 0 4927.62743729 0 -470.37671741 0 388.31086032 0 18957
0.13350000 0.13349100 12472.42029196 0 279.60720418 0 5199.09869719 0 -422.31396984 0 479.46045269 0 19468
0.13450000 0.13450700 12288.17680698 0 70.83619454 0 5130.54993424 0 379.99554438 0 82.08611945 0 19953
0.13550000 0.13551000 12274.33640096 0 -35.86170996 0 4938.03542262 0 749.41701856 0 228.93470965 0 19956
0.13650000 0.13649900 12200.26254792 0 39.15129767 0 4460.12066647 0 525.46928401 0 -258.57310872 0 19723
0.13750000 0.13749600 11976.38014009 0 393.24579549 0 4484.50192572 0 585.08378807 0 251.62411767 0 20946
0.13850000 0.13851100 11439.26166314 0 366.98002656 0 3882.94251833 0 144.11848707 0 198.43709817 0 20955
0.13950000 0.13949800 11318.57332261 0 235.06767036 0 3855.18420001 0 623.58447593 0 230.38850590 0 20506
0.14050000 0.14048300 11205.08199322 0 41.73546756 0 3647.52274803 0 303.69726129 0 268.82275981 0 21447
0.14150000 0.14148400 11107.75625807 0 -7.43812208 0 3702.62970865 0 262.55139503 0 570.97432455 0 21771
0.14250000 0.14249400 11126.02559402 0 -24.08618179 0 3550.19701288 0 28.99664713 0 709.94860951 0 22470
0.14350000 0.14350900 11202.97825151 0 148.51862895 0 3791.08651163 0 -269.31658549 0 769.07703851 0 22519
0.14450000 0.14449900 10927.87526906 0 189.03447993 0 3609.82148202 0 -260.68570830 0 364.07907745 0 22218
0.14550000 0.14550500 10998.58313535 0 226.01050866 0 3785.98216989 0 85.19766417 0 1001.40763018 0 23559
0.14650000 0.14650700 10746.49951621 0 47.57966204 0 3931.92648332 0 263.31206374 0 275.70863861 0 23044
0.14750000 0.14750500 10725.40673743 0 144.54366435 0 3847.86539330 0 284.12249824 0 650.63416546 0 23649
0.14850000 0.14849900 10517.23595851 0 370.67153965 0 3826.93869939 0 96.68819069 0 370.19542968 0 23640
0.14950000 0.14949500 10319.15206751 0 234.83404431 0 3713.01554933 0 285.07471818 0 682.63872035 0 24457
0.15050000 0.15050000 10088.79234966 0 46.56377624 0 3643.55885575 0 200.21863523 0 1062.29434436 0 24591
0.15150000 0.15149900 10053.73736928 0 283.30757513 0 3493.27419098 0 140.87872483 0 933.73468812 0 25020
0.15250000 0.15250500 9996.59310089 0 116.89717651 0 3519.28308198 0 42.01936196 0 897.86589187 0 25297
0.15350000 0.15350100 9841.46983018 0 105.96480587 0 3149.05775702 0 159.30307333 0 679.91603567 0 25452
0.15450000 0.15450400 9652.19950973 0 182.93362896 0 3205.06157595 0 -228.28144248 0 164.72740526 0 26061
0.15550000 0.15549900 9517.53789529 0 141.83094476 0 3144.14164480 0 -46.38019709 0 32.93152992 0 26128
0.15650000 0.15649500 9461.71123355 0 -44.91964673 0 3336.08039553 0 -181.04026141 0 -260.96805258 0 26331
0.15750000 0.15749700 9408.01045818 0 152.86451645 0 3138.36189125 0 232.28187344 0 -15.77308032 0 27345
0.15850000 0.15849900 9395.49873114 0 100.38767586 0 3158.84569216 0 297.77356751 0 -138.91338717 0 26980
0.15950000 0.15949700 9419.41495274 0 -54.53972542 0 2854.50069987 0 359.15742907 0 -60.20986296 0 27777
0.16050000 0.16050000 9414.86422724 0 -74.91800708 0 2843.25121786 0 370.81990880 0 150.98222123 0 28224
0.16150000 0.16150500 9459.59641951 0 184.45385915 0 2708.88855618 0 -1.51884616 0 302.06187891 0 28075
0.16250000 0.16249700 9464.31322988 0 166.56873287 0 2935.47261127 0 -10.92714450 0 369.24763868 0 28590
0.16350000 0.16349900 9120.93829261 0 166.79571553 0 2843.91555734 0 -29.24566371 0 452.87580080 0 29163
0.16450000 0.16449100 8981.29413200 0 172.63747411 0 2640.41729950 0 114.03055161 0 31.60938362 0 28996
0.16550000 0.16550500 8918.58048422 0 101.18831567 0 2887.39657691 0 104.39641106 0 -230.23017165 0 30777
0.16650000 0.16650700 8757.37850719 0 160.53431585 0 2582.68619790 0 -20.92148991 0 -131.17493936 0 29211
0.16750000 0.16749900 8730.01879256 0 44.26859403 0 2761.64818394 0 -1.38886814 0 -76.15921469 0 30922
0.16850000 0.16850800 8651.37206937 0 1.91407279 0 2498.11578093 0 157.27019449 0 53.63223768 0 30867
0.16950000 0.16949900 8762.87038030 0 92.60239211 0 2586.25148649 0 222.60466155 0 -188.21291343 0 30852
0.17050000 0.17049200 8523.64173027 0 287.72432550 0 2537.90971633 0 25.20625817 0 182.44533943 0 31257
0.17150000 0.17149500 8359.17341741 0 232.76241234 0 2529.67190667 0 362.19788947 0 138.32876842 0 32608
0.17250000 0.17250900 8125.73559326 0 140.05937279 0 2538.23081375 0 135.10340020 0 342.93536598 0 32361
0.17350000 0.17350400 8039.89185894 0 131.75845088 0 2360.11032439 0 396.40583699 0 556.95343963 0 32508
0.17450000 0.17449800 8021.67788461 0 -3.19497469 0 2282.58190601 0 254.12424861 0 652.32158776 0 32791
0.17550000 0.17549800 7980.31167909 0 -64.57224822 0 2119.75229723 0 180.76013159 0 766.71088269 0 33633
0.17650000 0.17650100 8056.57785244 0 1.97903412 0 2156.75600677 0 192.26316985 0 387.61884002 0 33984
0.17750000 0.17750300 7994.11886814 0 109.21918358 0 2137.72268041 0 38.64075277 0 720.03771189 0 34069
0.17850000 0.17849800 8044.02183610 0 79.41270662 0 1977.35112774 0 -40.45019209 0 848.77452532 0 34536
