### header ###
fiducial parameters:
Omega_m = 0.31
Omega_nu = 0
Omega_de = 0.69
Omega_k = 0
H_0 = 100
w_de = -1
zeff = 0
beta = 0
fgrowth = 0
b_1 = 2
gamma = 0.55
Lx = 3500 Ly = 3500 Lz = 3500
nx = 700 ny = 700 nz = 700
xoffset = -685.467585 yoffset = -31.7331281 zoffset = 572.489161
bins = 400 dk = 0.001
kx_ny = 0.628318531 ky_ny = 0.628318531 kz_ny = 0.628318531
############################
A(data) = 8.08993701 (not used)
A(ran) = 8.09367497 (used)
Ngal = 481413
weighted Ngal = 0
Nran = 23820508
weighted Nran = 0
SN(data) = 3483.39703
SN(ran) = 70.4988443
SN(data+ran) = 3553.89588
############################
13 columns: k_central k_mean P_0(k) sigma^{lin}_{P_0(k)} P^img_1(k) sigma^{lin}_{P_1(k)} P_2(k) sigma^{lin}_{P_2(k)} P^img_3(k) sigma^{lin}_{P_3(k)} P_4(k) sigma^{lin}_{P_4(k)} N_modes
### header ###
0.00050000 0 0 0 0 0 0 0 0 0 0 0 0
0.00150000 0.00179520 42634.09743745 0 -31935.79575117 0 22692.39754607 0 -112998.61093670 0 -56766.25921973 0 3
0.00250000 0.00253879 60495.63966514 0 -11529.61183366 0 1564.17625481 0 33241.11212404 0 41312.06185410 0 6
0.00350000 0.00331552 62422.66707658 0 -9276.67054118 0 21603.43440016 0 -74960.08191523 0 -11079.96472277 0 7
0.00450000 0.00420575 57702.86717613 0 -7681.07102854 0 11358.76586170 0 9770.62909599 0 44621.69046564 0 24
0.00550000 0.00557378 94985.04568924 0 -29318.96250353 0 41202.77800814 0 9084.11174026 0 -7786.49063314 0 45
0.00650000 0.00659388 104673.77279855 0 9208.09963358 0 56062.50225425 0 30674.87940083 0 61847.57052550 0 40
0.00750000 0.00754703 96865.56933644 0 44334.14219010 0 39342.18454561 0 14292.59976890 0 42353.19255680 0 57
0.00850000 0.00846663 85716.73475330 0 16942.98216074 0 51126.90274309 0 48707.04615398 0 98281.16606450 0 75
0.00950000 0.00948925 79222.04118442 0 -6061.28955850 0 51899.97246193 0 62148.62703732 0 30625.16466239 0 112
0.01050000 0.01054430 85224.56991511 0 -11720.94160652 0 45087.28172427 0 63719.34703609 0 39643.35178068 0 105
0.01150000 0.01145670 82574.74113951 0 8353.96942475 0 41883.94743098 0 44577.62261286 0 30573.78907523 0 144
0.01250000 0.01249090 84265.70658581 0 9395.77553926 0 16123.74084741 0 16229.03865643 0 45477.69189737 0 169
0.01350000 0.01339930 75652.43438614 0 -6108.84519359 0 23966.82213270 0 15946.47292706 0 51657.59927165 0 180
0.01450000 0.01448870 80669.74765446 0 -6629.53234051 0 25607.96211732 0 1330.20695906 0 14163.27501502 0 267
0.01550000 0.01550050 82458.48172891 0 6477.60897168 0 26348.81137093 0 20067.26005482 0 30202.64474731 0 238
0.01650000 0.01653350 88723.86745079 0 1751.95181140 0 28887.14183561 0 -11528.61532442 0 13362.52448414 0 315
0.01750000 0.01747870 75163.92341514 0 -2297.70670172 0 23264.72601595 0 2586.05218464 0 28712.30982672 0 297
0.01850000 0.01844180 89952.56333592 0 4154.60200775 0 38190.99493422 0 1676.90359378 0 -10473.63314338 0 388
0.01950000 0.01947590 79420.12507543 0 -2674.28754112 0 31052.66712364 0 6862.84836909 0 17624.48375333 0 399
0.02050000 0.02045430 83141.20127723 0 2316.48536461 0 22535.72414989 0 6680.02214169 0 444.83175682 0 462
0.02150000 0.02154770 83714.30480984 0 161.33373770 0 23220.43671667 0 -3078.58240955 0 -18077.89545465 0 571
0.02250000 0.02255340 82196.62124695 0 -142.10332395 0 30977.92893111 0 -2351.10852432 0 -14310.42621186 0 510
0.02350000 0.02348930 78729.54417649 0 9788.54411755 0 22266.44521030 0 -13896.54271014 0 -21314.55744564 0 555
0.02450000 0.02439640 77230.01922630 0 6671.70682575 0 24449.90766453 0 -757.12446387 0 -8571.29701629 0 592
0.02550000 0.02547300 73103.14231989 0 -4687.10332525 0 19269.72049813 0 9546.50309701 0 -10053.02874049 0 837
0.02650000 0.02652900 76922.54076609 0 -3061.73033118 0 20981.72336159 0 7174.23535997 0 -8049.21475644 0 723
0.02750000 0.02749970 80019.69146436 0 -190.94999212 0 6124.62325646 0 12775.46982225 0 -21163.19876537 0 826
0.02850000 0.02848090 74481.64675981 0 4335.34663809 0 13469.26169539 0 -724.75784396 0 -8032.68377548 0 831
0.02950000 0.02946900 71960.69984511 0 5502.97865184 0 9739.53800790 0 -6508.41217932 0 -9237.68488550 0 996
0.03050000 0.03053250 65068.95270824 0 5822.83597120 0 13246.81868978 0 -5528.47821590 0 -9731.18947499 0 1041
0.03150000 0.03150510 60622.30706107 0 6373.63984163 0 15484.86770537 0 -5893.62134377 0 -1351.24437622 0 1036
0.03250000 0.03246190 59022.68829452 0 1170.07899754 0 14186.63762039 0 4811.71126876 0 -11791.36159237 0 1059
0.03350000 0.03345080 55366.82808590 0 1825.99244747 0 21213.24567355 0 156.88598482 0 -8073.68459429 0 1302
0.03450000 0.03451200 54538.50746621 0 2759.02404296 0 16894.92827103 0 3985.16222105 0 -9419.44816972 0 1339
0.03550000 0.03553350 54231.02900600 0 511.20702241 0 18420.36246129 0 3151.16149874 0 -477.55379836 0 1365
0.03650000 0.03647120 52774.35395286 0 1081.49486282 0 18315.95043825 0 4738.25746592 0 266.73119765 0 1308
0.03750000 0.03744890 54553.78727446 0 -773.86028283 0 18279.52248960 0 2106.04475911 0 5838.54760012 0 1579
0.03850000 0.03847530 55125.22995835 0 1165.25146391 0 17397.61181779 0 3718.07560178 0 7910.82176853 0 1662
0.03950000 0.03950240 52327.91781617 0 2833.55186131 0 16950.06844862 0 1338.48905803 0 7665.27082103 0 1683
0.04050000 0.04050350 51457.30091568 0 -50.07957154 0 17003.76922400 0 1188.56977998 0 8700.41139600 0 1822
0.04150000 0.04152450 50766.83073999 0 -34.85423913 0 18439.40685998 0 1888.38499782 0 2601.48700544 0 1887
0.04250000 0.04250150 49970.73058553 0 2811.21898216 0 19410.67119307 0 -3535.91371386 0 2452.17670526 0 1920
0.04350000 0.04349210 47932.42630966 0 3732.48069637 0 21104.51544383 0 -116.76541584 0 290.01851121 0 2005
0.04450000 0.04448520 45351.24594794 0 2333.85784225 0 19172.39476298 0 2095.61462913 0 4004.35055996 0 2151
0.04550000 0.04548030 43792.59478322 0 1285.03187380 0 21016.04756853 0 137.59578052 0 1627.95284576 0 2274
0.04650000 0.04648670 43015.76047394 0 1527.60436593 0 20225.70502297 0 2909.24227377 0 20.75241551 0 2311
0.04750000 0.04749250 41198.12763172 0 1730.34970568 0 20388.80036755 0 1971.44957861 0 1527.26112386 0 2568
0.04850000 0.04851840 38936.16239451 0 1587.63851110 0 18614.23886887 0 1800.48181108 0 3022.98826664 0 2493
0.04950000 0.04949480 37986.93198781 0 1014.45747221 0 20246.85316338 0 2284.48634588 0 2754.94942743 0 2644
0.05050000 0.05050630 37668.71337252 0 104.81361626 0 16851.63548099 0 4963.68999922 0 -289.76716943 0 2829
0.05150000 0.05149060 36900.84764635 0 385.25822037 0 16204.45809534 0 1329.09972658 0 1842.31305425 0 2784
0.05250000 0.05249300 35853.73788825 0 1018.50994309 0 14924.60806955 0 2858.60853238 0 1315.83508145 0 3055
0.05350000 0.05348950 35066.60631689 0 708.65979090 0 13935.29584700 0 2158.46114480 0 968.89928451 0 3009
0.05450000 0.05448610 34193.88567469 0 -281.35552427 0 12660.20692089 0 790.84080017 0 315.43060390 0 3336
0.05550000 0.05550870 34686.93629886 0 326.26376650 0 14678.91318182 0 -1995.46545114 0 70.03212231 0 3349
0.05650000 0.05647670 35452.03394383 0 -339.27706986 0 13167.20867433 0 -24.08153142 0 1282.61810699 0 3324
0.05750000 0.05747970 35275.65180947 0 -511.00661333 0 16223.72394052 0 -2366.52120046 0 4188.77120214 0 3639
0.05850000 0.05849280 35754.64058112 0 1462.97520596 0 17013.73431633 0 -864.56366051 0 3612.79993740 0 3846
0.05950000 0.05951020 35778.11390974 0 1128.80137061 0 18948.29090865 0 -177.68202529 0 1717.31757937 0 3787
0.06050000 0.06049470 33858.17278619 0 1636.68891004 0 17078.39669327 0 1309.32455445 0 5029.55925957 0 3930
0.06150000 0.06148310 34166.86920213 0 370.98488644 0 17659.47229976 0 1024.75141259 0 790.12884969 0 4083
0.06250000 0.06249100 32852.36279966 0 109.18962048 0 16255.39078950 0 2011.37638191 0 1540.40397342 0 4303
0.06350000 0.06350600 32568.80056106 0 728.28880834 0 15573.66775042 0 2019.21558788 0 -2504.92526070 0 4470
0.06450000 0.06451750 32337.49969559 0 -31.92527704 0 13821.02945488 0 1972.57895574 0 -243.32983914 0 4479
0.06550000 0.06550280 31690.10086345 0 44.75765861 0 11820.48180664 0 2721.63280205 0 -3420.55116157 0 4636
0.06650000 0.06648880 31370.22139944 0 412.48728156 0 8727.47215785 0 2316.61823251 0 -3016.37808872 0 4653
0.06750000 0.06749660 31316.18845432 0 39.89580079 0 8967.08833925 0 1384.87102669 0 -5210.60284268 0 5220
0.06850000 0.06852730 30456.20098566 0 1280.11576158 0 8730.20702208 0 -904.97875333 0 -3879.90870133 0 5029
0.06950000 0.06949320 30251.47369976 0 1219.26226438 0 9057.62673930 0 -72.74417755 0 -1454.48273283 0 5040
0.07050000 0.07048030 28597.93271134 0 1090.17888718 0 9684.60820448 0 379.46075109 0 210.33874011 0 5475
0.07150000 0.07148790 28424.76155118 0 243.62547022 0 9402.89504411 0 1449.27874016 0 526.96072616 0 5509
0.07250000 0.07249820 28257.01583018 0 -15.06633383 0 9379.34420923 0 2490.95198678 0 1335.27808383 0 5916
0.07350000 0.07351270 28462.40745556 0 -206.16115196 0 9359.20365038 0 1290.73412108 0 -941.20186398 0 5721
0.07450000 0.07449140 28457.64635589 0 96.79858177 0 9463.23921438 0 -181.36689499 0 1830.64282389 0 6028
0.07550000 0.07549160 28127.24818330 0 429.01936975 0 9366.90998845 0 -1738.65394930 0 180.56858037 0 6183
0.07650000 0.07648840 28414.57501235 0 483.11764158 0 10085.83603893 0 -813.74279683 0 1739.88297735 0 6330
0.07750000 0.07749960 28043.09851468 0 629.23911221 0 10446.76061104 0 68.02072378 0 855.46220951 0 6583
0.07850000 0.07848650 27520.81695299 0 830.46754347 0 10717.15785544 0 -409.78231261 0 2372.48918354 0 6549
0.07950000 0.07947320 26366.30564415 0 1511.91488166 0 12149.55130025 0 -1.51647668 0 -1130.16326656 0 6828
0.08050000 0.08048110 25563.11920180 0 971.30862239 0 11697.35755466 0 481.04047344 0 237.19466396 0 7147
0.08150000 0.08149960 24633.70825652 0 -68.73809971 0 10830.63811250 0 1174.91760348 0 -211.32528426 0 7386
0.08250000 0.08250610 24791.04599220 0 -175.59599930 0 10983.86801567 0 135.31488161 0 -1668.54398855 0 7227
0.08350000 0.08350160 25204.37587768 0 -88.93258077 0 10125.77391455 0 1498.00804169 0 -907.21536295 0 7798
0.08450000 0.08449610 25074.60823080 0 -296.58882875 0 9539.35037518 0 1097.32385838 0 -838.46951261 0 7371
0.08550000 0.08548940 24360.44328000 0 891.83258208 0 8113.29030016 0 906.18563674 0 18.16127006 0 8256
0.08650000 0.08650700 24111.31597158 0 1002.38642369 0 8339.25430506 0 1010.67405882 0 -686.64025854 0 8037
0.08750000 0.08749060 22776.54721469 0 805.41419410 0 7722.50366801 0 1143.77115377 0 845.12730153 0 8155
0.08850000 0.08849210 22163.14041974 0 1108.26220807 0 8484.05816904 0 -201.96916978 0 1369.32548265 0 8718
0.08950000 0.08949900 21450.52559441 0 562.29915806 0 8102.79373623 0 206.41802990 0 1167.24448238 0 8571
0.09050000 0.09049190 21033.76328824 0 239.02713372 0 8289.53956663 0 26.24163127 0 1834.80601802 0 8932
0.09150000 0.09150830 20814.19908708 0 702.23341358 0 8142.37729746 0 502.61379112 0 1929.27509338 0 9285
0.09250000 0.09250820 20363.55546697 0 417.76767327 0 8304.70865163 0 83.31293304 0 1700.07796963 0 9204
0.09350000 0.09350330 19791.33772034 0 17.58063735 0 7485.75521874 0 1475.54229463 0 1990.54933892 0 9349
0.09450000 0.09448040 19673.52818427 0 460.21121599 0 6838.76606261 0 1527.59329360 0 1452.92153503 0 9564
0.09550000 0.09549270 19025.02211964 0 796.99812000 0 7245.23110671 0 841.64505537 0 1622.46097265 0 10155
0.09650000 0.09649430 18328.79433504 0 859.89446114 0 6634.07199369 0 98.03790709 0 1534.00416967 0 9913
0.09750000 0.09749140 17548.74905157 0 785.78296219 0 6603.81132996 0 -216.31447382 0 2248.10268653 0 10476
0.09850000 0.09850240 16962.13728268 0 454.43699860 0 6739.50267061 0 -17.29153895 0 1924.64686160 0 10575
0.09950000 0.09950330 16843.99557686 0 -2.59889608 0 6384.39106903 0 504.54148287 0 1374.31910114 0 10882
0.10050000 0.10051200 16893.26742231 0 -74.13430793 0 6238.81214231 0 97.35485537 0 268.26139294 0 10875
0.10150000 0.10150300 16832.59108230 0 182.11206245 0 6181.39106580 0 104.55629543 0 255.46178545 0 11118
0.10250000 0.10250800 16632.73561932 0 123.38555885 0 5951.04242028 0 -168.03470868 0 188.64362687 0 11575
0.10350000 0.10349800 16654.65882246 0 206.47339152 0 6133.85757536 0 246.34815489 0 823.68574451 0 11364
0.10450000 0.10450100 16973.32033074 0 -191.46042630 0 6233.78530685 0 239.68150812 0 257.37729764 0 12093
0.10550000 0.10551000 16448.38141109 0 159.14806078 0 6435.16875065 0 205.65846841 0 402.91857845 0 12067
0.10650000 0.10649700 16744.45537674 0 487.50338944 0 6780.06059642 0 -396.27407633 0 710.16341261 0 12054
0.10750000 0.10749900 16077.45852967 0 760.12174219 0 6835.07897845 0 394.75495336 0 1162.57196131 0 12807
0.10850000 0.10850100 15301.17783663 0 659.46102280 0 7158.96662404 0 144.27903578 0 1645.20352783 0 12736
0.10950000 0.10950300 15127.12089048 0 460.29758013 0 6584.76693127 0 190.49934850 0 1607.40261090 0 12933
0.11050000 0.11050200 14801.26237107 0 -0.40803731 0 6329.05158959 0 814.76145071 0 1361.02123903 0 13428
0.11150000 0.11150900 14636.83834751 0 -125.40182920 0 5924.41347909 0 749.71154240 0 836.94485348 0 13453
0.11250000 0.11250000 15106.08347333 0 -279.35586241 0 5452.25633185 0 630.43160159 0 942.68112657 0 13668
0.11350000 0.11349100 14942.65595900 0 -234.43433339 0 5169.87883200 0 168.18750676 0 514.28623594 0 13791
0.11450000 0.11448600 15270.06460389 0 70.73665434 0 4542.50983545 0 787.51799549 0 502.65143702 0 14205
0.11550000 0.11549300 15262.64614626 0 47.69603217 0 4095.79689064 0 81.91361262 0 -173.56422769 0 14776
0.11650000 0.11649800 15142.73286848 0 394.12825978 0 4312.71480616 0 28.74508391 0 -87.38201241 0 14553
0.11750000 0.11747300 14638.16702649 0 488.90182406 0 4166.22794881 0 -417.51522426 0 540.50771558 0 14568
0.11850000 0.11849100 14501.31309173 0 313.82179510 0 4336.52030452 0 285.76784571 0 807.82242475 0 16015
0.11950000 0.11950300 14178.11193028 0 93.90117581 0 4033.41541261 0 767.73507274 0 960.92056725 0 15270
0.12050000 0.12050700 14159.95331757 0 -49.57810595 0 3862.74659786 0 442.59736167 0 242.30897080 0 15999
0.12150000 0.12150000 14135.48347972 0 257.01191092 0 3887.23858036 0 468.85759445 0 590.85246930 0 15670
0.12250000 0.12250700 13719.82840603 0 452.56356124 0 4041.68643925 0 -484.31788159 0 596.77727031 0 16887
0.12350000 0.12352200 13530.27020514 0 315.91778619 0 4269.02341243 0 -234.31475228 0 780.11171742 0 16407
0.12450000 0.12449800 13338.38681603 0 199.90196674 0 4587.33060631 0 -264.82786501 0 640.35129740 0 16306
0.12550000 0.12549900 13002.89537403 0 401.16915113 0 4673.81653547 0 155.62152533 0 783.37916048 0 17523
0.12650000 0.12650100 12978.64698267 0 173.32506548 0 4978.06187684 0 276.53795574 0 441.66950085 0 17154
0.12750000 0.12750600 12591.44778376 0 181.77989271 0 4645.51567324 0 265.78672834 0 1164.78642627 0 18007
0.12850000 0.12850300 12718.55807268 0 141.30168764 0 4856.02271269 0 448.94401826 0 798.57592629 0 17496
0.12950000 0.12949900 12405.54345006 0 56.71665520 0 4521.60528619 0 14.39811902 0 1451.79215790 0 18405
0.13050000 0.13049000 12521.02779792 0 9.52390448 0 4512.04986987 0 99.94854746 0 1032.35477805 0 18100
0.13150000 0.13148800 12409.30804050 0 -4.71829406 0 4648.49412861 0 92.44837607 0 924.33428435 0 19059
0.13250000 0.13249300 12507.85173138 0 306.20735732 0 4657.98311098 0 -27.65512425 0 1060.34561519 0 18957
0.13350000 0.13349100 12198.38025270 0 282.34096118 0 4488.43260103 0 286.40450439 0 1087.41080597 0 19468
0.13450000 0.13450700 11804.20548916 0 261.95791842 0 4128.51561048 0 277.93971206 0 1075.00205155 0 19953
0.13550000 0.13551000 11793.90822708 0 -39.12915302 0 3991.99384547 0 690.25537259 0 1077.54536456 0 19956
0.13650000 0.13649900 11809.40948182 0 -229.12958256 0 3639.69461439 0 712.62257596 0 536.48956890 0 19723
0.13750000 0.13749600 11959.21803662 0 41.38303546 0 3483.78520861 0 661.15398127 0 1137.18312050 0 20946
0.13850000 0.13851100 11743.41842590 0 143.20280581 0 2977.77996440 0 257.68842997 0 829.65594206 0 20955
0.13950000 0.13949800 11549.98491132 0 364.41124720 0 2893.78530833 0 -62.22026498 0 812.85701084 0 20506
0.14050000 0.14048300 11225.34434764 0 278.85096440 0 2552.70234229 0 -279.00376248 0 543.20714837 0 21447
0.14150000 0.14148400 11062.45937723 0 98.94118735 0 2883.47697392 0 304.70041392 0 796.30831417 0 21771
0.14250000 0.14249400 10924.30998047 0 46.36026691 0 2231.46098233 0 296.43381621 0 841.78456666 0 22470
0.14350000 0.14350900 11045.29727376 0 -94.51369682 0 2345.14054124 0 464.52610098 0 397.86738387 0 22519
0.14450000 0.14449900 11094.58019153 0 46.62146305 0 2076.68095369 0 73.46432156 0 -149.34905332 0 22218
0.14550000 0.14550500 10864.81837922 0 359.33458627 0 2173.26484308 0 -151.49929880 0 109.86126770 0 23559
0.14650000 0.14650700 10704.43575422 0 257.48802089 0 2489.28006573 0 -573.66600671 0 592.26197625 0 23044
0.14750000 0.14750500 10699.43106340 0 58.39067999 0 2800.54526103 0 -331.88961474 0 338.76552845 0 23649
0.14850000 0.14849900 10653.58056633 0 156.56599463 0 3280.33124007 0 -337.28183693 0 484.75413119 0 23640
0.14950000 0.14949500 10470.98685775 0 476.47646115 0 3454.59856039 0 -106.32266341 0 838.14620073 0 24457
0.15050000 0.15050000 10226.35491320 0 134.33165916 0 3370.13886668 0 597.47371954 0 1391.08260092 0 24591
0.15150000 0.15149900 10117.87934695 0 -62.00955864 0 3240.88054674 0 675.96653741 0 1081.61555116 0 25020
0.15250000 0.15250500 10132.30658619 0 -28.79468792 0 2954.14055091 0 626.93828311 0 825.65218940 0 25297
0.15350000 0.15350100 10025.55830262 0 35.25860043 0 2502.72186806 0 316.63638007 0 441.43255310 0 25452
0.15450000 0.15450400 9861.14535138 0 196.20602472 0 2374.33826179 0 -18.50207622 0 685.84194392 0 26061
0.15550000 0.15549900 9746.95646553 0 140.97948299 0 2198.93049201 0 -131.64772763 0 503.67230537 0 26128
0.15650000 0.15649500 9568.68096362 0 145.00205859 0 2133.30482281 0 166.03947575 0 514.82877986 0 26331
0.15750000 0.15749700 9539.61611098 0 136.90154576 0 2205.78426107 0 285.34488290 0 561.11109760 0 27345
0.15850000 0.15849900 9271.75442896 0 68.20230991 0 1849.14467866 0 212.27639696 0 80.07516381 0 26980
0.15950000 0.15949700 9279.97009398 0 264.55880752 0 1992.26554927 0 10.46588252 0 674.39205282 0 27777
0.16050000 0.16050000 9155.55037999 0 201.23507465 0 1960.11151800 0 -95.87382120 0 735.38949025 0 28224
0.16150000 0.16150500 9007.41374624 0 41.77145261 0 2087.59826596 0 -73.80712073 0 930.23694071 0 28075
0.16250000 0.16249700 9029.02692429 0 124.39092594 0 2214.05528771 0 -100.46662154 0 703.48458628 0 28590
0.16350000 0.16349900 8928.43485331 0 201.13874542 0 2320.19459342 0 -286.88947221 0 355.68846971 0 29163
0.16450000 0.16449100 8793.68466027 0 220.99363829 0 2571.50314983 0 -23.81180959 0 352.20400909 0 28996
0.16550000 0.16550500 8556.93621100 0 89.38898200 0 2370.23042928 0 -202.74755422 0 275.72746156 0 30777
0.16650000 0.16650700 8673.60529761 0 -67.20912237 0 2348.04149034 0 66.70156700 0 266.87845957 0 29211
0.16750000 0.16749900 8738.86558009 0 -18.37994848 0 2359.66743140 0 282.55797874 0 -63.24678021 0 30922
0.16850000 0.16850800 8728.95584938 0 -19.15213241 0 2172.14653827 0 -124.88585886 0 42.36736513 0 30867
0.16950000 0.16949900 8724.62657037 0 191.59440143 0 2388.14545083 0 -35.92216486 0 -188.45207565 0 30852
0.17050000 0.17049200 8511.09678625 0 448.48340955 0 2362.60159748 0 -134.75683644 0 118.17824449 0 31257
0.17150000 0.17149500 8153.49391158 0 299.94042148 0 2457.00423888 0 -81.35357444 0 365.98241009 0 32608
0.17250000 0.17250900 8068.20379350 0 38.17017896 0 2397.62336088 0 64.85093863 0 369.64292068 0 32361
0.17350000 0.17350400 8099.43882181 0 -136.53394457 0 2581.44609752 0 107.31275070 0 244.44592949 0 32508
0.17450000 0.17449800 8163.56972716 0 24.25237739 0 2454.00363886 0 459.16045237 0 56.40663011 0 32791
0.17550000 0.17549800 8067.37336914 0 91.82821516 0 2395.86286123 0 62.33696728 0 449.37030276 0 33633
0.17650000 0.17650100 7946.64073932 0 250.84130430 0 2271.42100260 0 -23.35286172 0 472.72626474 0 33984
0.17750000 0.17750300 7772.53950387 0 188.79642495 0 2376.95133044 0 132.64755856 0 430.41337544 0 34069
0.17850000 0.17849800 7674.27262110 0 111.91684480 0 2208.14266626 0 178.33750692 0 514.74130849 0 34536
