### header ###
fiducial parameters:
Omega_m = 0.31
Omega_nu = 0
Omega_de = 0.69
Omega_k = 0
H_0 = 100
w_de = -1
zeff = 0
beta = 0
fgrowth = 0
b_1 = 2
gamma = 0.55
Lx = 3500 Ly = 3500 Lz = 3500
nx = 700 ny = 700 nz = 700
xoffset = -685.467585 yoffset = -31.7331281 zoffset = 572.489161
bins = 400 dk = 0.001
kx_ny = 0.628318531 ky_ny = 0.628318531 kz_ny = 0.628318531
############################
A(data) = 8.02360852 (not used)
A(ran) = 8.02627973 (used)
Ngal = 477158
weighted Ngal = 0
Nran = 23820508
weighted Nran = 0
SN(data) = 3480.92559
SN(ran) = 69.9118073
SN(data+ran) = 3550.8374
############################
13 columns: k_central k_mean P_0(k) sigma^{lin}_{P_0(k)} P^img_1(k) sigma^{lin}_{P_1(k)} P_2(k) sigma^{lin}_{P_2(k)} P^img_3(k) sigma^{lin}_{P_3(k)} P_4(k) sigma^{lin}_{P_4(k)} N_modes
### header ###
0.00050000 0 0 0 0 0 0 0 0 0 0 0 0
0.00150000 0.00179520 880.78018744 0 4132.52379206 0 5339.46255892 0 -8433.73445274 0 -1043.06503784 0 3
0.00250000 0.00253879 4071.41563139 0 4056.13582314 0 12744.57803601 0 14558.55701105 0 9977.20546013 0 6
0.00350000 0.00331552 15432.60633223 0 -14683.34211175 0 20823.49983993 0 18736.92022786 0 18447.15748735 0 7
0.00450000 0.00420575 36173.39590577 0 -35167.25374950 0 33574.38910108 0 18623.87179146 0 9059.70833636 0 24
0.00550000 0.00557378 76217.01222864 0 -11466.61030544 0 15786.03494044 0 45815.06563459 0 -1373.55511073 0 45
0.00650000 0.00659388 93930.96036650 0 -2858.56424308 0 13253.01919168 0 58290.25400776 0 57967.27429280 0 40
0.00750000 0.00754703 87264.53503969 0 -3678.60276380 0 4559.20690127 0 8521.75943505 0 6272.30592489 0 57
0.00850000 0.00846663 89733.55275100 0 5430.48814125 0 27057.32943608 0 30283.91561148 0 31053.22073988 0 75
0.00950000 0.00948925 78728.54766725 0 17836.85094335 0 34675.08891131 0 21447.20389697 0 -2832.51106278 0 112
0.01050000 0.01054430 62985.80551686 0 9499.70038000 0 29766.50587270 0 -13701.22690034 0 39389.90626558 0 105
0.01150000 0.01145670 62654.63228153 0 9903.66307869 0 27593.11923405 0 -13289.22569384 0 12837.36411799 0 144
0.01250000 0.01249090 62556.19931389 0 1721.32576096 0 46380.63998633 0 -23326.28814194 0 23345.33254063 0 169
0.01350000 0.01339930 57118.13770246 0 3909.22821745 0 45757.15737579 0 5724.18155707 0 23579.40148729 0 180
0.01450000 0.01448870 67428.79729683 0 -298.17660013 0 46817.55392367 0 13083.94479170 0 9108.67015671 0 267
0.01550000 0.01550050 75843.76415900 0 -10110.41660003 0 56568.83966821 0 26311.38691305 0 4177.46635850 0 238
0.01650000 0.01653350 73556.00040498 0 1639.96631819 0 35477.05739792 0 20142.77331008 0 -4689.33993487 0 315
0.01750000 0.01747870 73061.17820883 0 7299.05367765 0 36261.86378107 0 27221.75345963 0 14219.07953211 0 297
0.01850000 0.01844180 67628.76348306 0 101.56078868 0 28337.06873862 0 5310.48628487 0 -154.64937521 0 388
0.01950000 0.01947590 67224.62362718 0 2265.53052579 0 28402.94907129 0 15459.84425128 0 9349.91396986 0 399
0.02050000 0.02045430 65727.09169546 0 4021.08084276 0 26185.38385661 0 -4967.79783173 0 13208.84061565 0 462
0.02150000 0.02154770 64145.18864862 0 1700.18869288 0 24071.01270924 0 -3161.62484569 0 17182.69799306 0 571
0.02250000 0.02255340 63111.69785004 0 1733.84856033 0 24783.07391833 0 6625.12555524 0 21163.53093511 0 510
0.02350000 0.02348930 67964.80854130 0 -3924.54124267 0 31725.64302612 0 -5050.80705090 0 4018.77779920 0 555
0.02450000 0.02439640 70913.36864051 0 -4786.88711652 0 34780.71889008 0 6905.55432592 0 12728.85533476 0 592
0.02550000 0.02547300 76997.38968186 0 -2976.49557472 0 36024.80530670 0 11558.28915494 0 4524.53945227 0 837
0.02650000 0.02652900 76437.13004604 0 1245.73619302 0 34728.45751693 0 744.99916096 0 7643.94552342 0 723
0.02750000 0.02749970 78322.41479291 0 4488.43260103 0 39643.01961094 0 14468.76045677 0 5459.38690903 0 826
0.02850000 0.02848090 67124.30836432 0 4323.32209334 0 30208.40235622 0 4956.93588109 0 10309.34198772 0 831
0.02950000 0.02946900 66006.33572738 0 6272.25056327 0 27862.17672715 0 8606.49593688 0 3652.39457095 0 996
0.03050000 0.03053250 63357.72490751 0 1140.83698769 0 23430.47871848 0 6121.64480108 0 2428.38227923 0 1041
0.03150000 0.03150510 59343.67499101 0 618.14574998 0 25411.42835179 0 8453.83072228 0 12762.18303247 0 1036
0.03250000 0.03246190 58704.13750948 0 2737.13405679 0 19529.03434538 0 495.19644072 0 2359.16917678 0 1059
0.03350000 0.03345080 57112.38009356 0 3266.43547242 0 20930.56922093 0 67.29648302 0 13970.06294693 0 1302
0.03450000 0.03451200 55659.13746111 0 3288.61333904 0 19629.12816174 0 1939.09624549 0 6633.75089627 0 1339
0.03550000 0.03553350 53511.88150903 0 1539.17494536 0 23874.92183670 0 -1116.31178822 0 15123.46702329 0 1365
0.03650000 0.03647120 52043.80196132 0 2865.40693982 0 21873.70984898 0 1916.96266818 0 7979.85771377 0 1308
0.03750000 0.03744890 52954.83284740 0 -52.47207949 0 26446.13710609 0 -5159.98017361 0 7941.20422783 0 1579
0.03850000 0.03847530 50153.75611478 0 1377.65187091 0 25653.80154207 0 1166.77944474 0 5618.62908457 0 1662
0.03950000 0.03950240 49393.08739974 0 2893.89603158 0 28357.33109304 0 333.84830900 0 2725.00986112 0 1683
0.04050000 0.04050350 48185.65037827 0 1478.91935370 0 28525.96260002 0 -112.48706953 0 3900.25963434 0 1822
0.04150000 0.04152450 44997.70661648 0 930.78280632 0 23037.63263392 0 4526.11172239 0 -3393.73399086 0 1887
0.04250000 0.04250150 45587.30791308 0 -1002.69866325 0 23184.67310751 0 5286.93544998 0 -5084.96517296 0 1920
0.04350000 0.04349210 45851.71502974 0 -482.86187088 0 20532.74059019 0 1620.88870253 0 -8257.52947557 0 2005
0.04450000 0.04448520 45650.30944129 0 1545.80726793 0 19466.58643341 0 -2890.29752601 0 -8963.70020786 0 2151
0.04550000 0.04548030 44236.37356195 0 880.82890567 0 17934.39812500 0 -1516.15558207 0 -6168.58038599 0 2274
0.04650000 0.04648670 44467.78515066 0 1559.32657653 0 20447.15151935 0 305.32157134 0 -4322.25915016 0 2311
0.04750000 0.04749250 42728.54436815 0 257.31307816 0 20211.64317045 0 2132.55190472 0 -3307.91240119 0 2568
0.04850000 0.04851840 43121.72262246 0 1121.36076833 0 21158.54838894 0 3505.36516969 0 -1577.99451618 0 2493
0.04950000 0.04949480 41937.42675986 0 472.07631927 0 17016.61312078 0 3067.37721683 0 -1169.24857317 0 2644
0.05050000 0.05050630 41536.27643168 0 1317.66201504 0 19926.97369937 0 3807.13031029 0 -850.19731906 0 2829
0.05150000 0.05149060 40013.16742962 0 1815.03084590 0 16381.83673893 0 1682.61691339 0 -1528.78910468 0 2784
0.05250000 0.05249300 37951.94344138 0 2993.90126934 0 15127.01016723 0 1144.50192720 0 -2955.93426753 0 3055
0.05350000 0.05348950 35685.88144400 0 1702.75747224 0 12323.16535341 0 -1423.71274216 0 -3084.27358451 0 3009
0.05450000 0.05448610 34902.62518633 0 622.13510861 0 12972.22503428 0 1318.00525711 0 -3035.54428298 0 3336
0.05550000 0.05550870 33097.17190140 0 490.39105175 0 12326.15488111 0 2264.99905420 0 -4253.62180860 0 3349
0.05650000 0.05647670 33528.32822984 0 721.84914423 0 9249.24439261 0 1377.79581113 0 -4028.97541036 0 3324
0.05750000 0.05747970 33385.60596293 0 -988.12084040 0 10763.38481156 0 2565.94484277 0 -2736.03789664 0 3639
0.05850000 0.05849280 33603.62003861 0 -382.40598949 0 12122.20265795 0 2759.95411824 0 -1483.43686223 0 3846
0.05950000 0.05951020 34569.12676279 0 -66.39896037 0 11947.48137231 0 1646.60971308 0 -771.23946355 0 3787
0.06050000 0.06049470 33418.26932114 0 1270.50498364 0 10808.86992191 0 637.61089701 0 1338.23439456 0 3930
0.06150000 0.06148310 32648.29985325 0 1660.69371025 0 10860.32301534 0 293.18408887 0 1353.50313048 0 4083
0.06250000 0.06249100 31903.13239296 0 656.07842757 0 10983.54691825 0 -1938.54262925 0 3812.76612363 0 4303
0.06350000 0.06350600 31141.57789193 0 580.54745659 0 11373.49205371 0 1570.21067183 0 2439.65390589 0 4470
0.06450000 0.06451750 30894.77577172 0 426.77168781 0 11293.54986852 0 -833.89553523 0 58.86678996 0 4479
0.06550000 0.06550280 30904.29797107 0 126.04291681 0 12150.10491649 0 576.13292068 0 -997.44484513 0 4636
0.06650000 0.06648880 30183.04673238 0 377.57181248 0 10663.00311475 0 182.04230681 0 679.94260925 0 4653
0.06750000 0.06749660 31002.06659922 0 231.93973860 0 12403.55043159 0 595.77079598 0 -837.84946242 0 5220
0.06850000 0.06852730 30382.23785587 0 493.83675924 0 12152.65155120 0 992.83211461 0 -270.86449650 0 5029
0.06950000 0.06949320 29826.29642672 0 801.00076543 0 11846.28032347 0 700.09424042 0 289.88453608 0 5040
0.07050000 0.07048030 29661.65095667 0 151.35868027 0 10973.28287314 0 432.08418926 0 -264.07162523 0 5475
0.07150000 0.07148790 28579.77409864 0 564.98530406 0 10695.82148551 0 1366.95600514 0 -601.00357669 0 5509
0.07250000 0.07249820 28641.33622463 0 410.53080177 0 10912.11935085 0 1196.30933503 0 -1825.27274635 0 5916
0.07350000 0.07351270 27522.80997145 0 291.84323034 0 8697.20042180 0 -383.20208965 0 -2834.16083918 0 5721
0.07450000 0.07449140 27851.21512557 0 1261.46996659 0 9880.67693236 0 1005.45899383 0 -1783.61866039 0 6028
0.07550000 0.07549160 26492.86231682 0 566.16561388 0 8305.97089666 0 -25.45527476 0 -536.89370876 0 6183
0.07650000 0.07648840 25799.62405993 0 943.74628422 0 9779.39837725 0 560.79332188 0 611.65183147 0 6330
0.07750000 0.07749960 25601.42944567 0 783.20089605 0 9843.80609072 0 313.52948573 0 361.06629787 0 6583
0.07850000 0.07848650 24482.12812976 0 1085.73999216 0 11184.59819231 0 930.19597311 0 2157.05495954 0 6549
0.07950000 0.07947320 24295.11656357 0 929.56927952 0 11376.81375116 0 57.48828552 0 2206.41538359 0 6828
0.08050000 0.08048110 23368.69514599 0 18.02308745 0 11248.92839950 0 772.05217219 0 3423.62926787 0 7147
0.08150000 0.08149960 23659.78656548 0 -125.02979908 0 10268.54047076 0 1421.04431187 0 2676.63487398 0 7386
0.08250000 0.08250610 23299.27166938 0 -64.86887580 0 9512.68821702 0 2333.33744298 0 3634.43526010 0 7227
0.08350000 0.08350160 23780.36418275 0 -189.97119861 0 8176.23646676 0 2349.37016932 0 2977.06026329 0 7798
0.08450000 0.08449610 23227.85517430 0 216.68982563 0 7081.67072448 0 1607.79014227 0 2576.77357645 0 7371
0.08550000 0.08548940 23043.05807308 0 548.94261263 0 6828.57952378 0 834.78132121 0 3456.20404749 0 8256
0.08650000 0.08650700 22174.87708405 0 832.57128518 0 6769.84084062 0 321.22253701 0 2985.08769878 0 8037
0.08750000 0.08749060 21828.20259398 0 819.14498411 0 6224.75028979 0 -779.12960221 0 2554.44069729 0 8155
0.08850000 0.08849210 21252.99531965 0 423.17207501 0 7445.61804127 0 -794.66296670 0 1225.59563418 0 8718
0.08950000 0.08949900 20898.90237195 0 681.43626587 0 8456.06733190 0 -2023.57808386 0 1565.56029541 0 8571
0.09050000 0.09049190 20358.13002780 0 781.31527913 0 8048.29575348 0 -1134.78042601 0 -876.17742201 0 8932
0.09150000 0.09150830 19786.13372767 0 615.27912508 0 8778.37163504 0 -789.75460511 0 -625.51216768 0 9285
0.09250000 0.09250820 19407.57094212 0 481.86868334 0 8654.56089892 0 -93.02358335 0 -1299.90200603 0 9204
0.09350000 0.09350330 18971.65351401 0 353.90914711 0 7931.77060709 0 1514.47258869 0 -2235.81240598 0 9349
0.09450000 0.09448040 18552.45529638 0 476.46649606 0 8250.75321279 0 1256.24382927 0 -1831.35145268 0 9564
0.09550000 0.09549270 18526.87822605 0 109.24177113 0 8063.76379125 0 1334.68017829 0 -385.90816583 0 10155
0.09650000 0.09649430 17993.74578603 0 46.30313371 0 7601.51637472 0 1006.51307915 0 639.34703754 0 9913
0.09750000 0.09749140 17925.65098840 0 51.87240237 0 6846.11808629 0 1104.74342325 0 1722.51049971 0 10476
0.09850000 0.09850240 18258.15290270 0 88.12430106 0 7227.21643423 0 775.83115665 0 3131.65206241 0 10575
0.09950000 0.09950330 17765.43444827 0 397.62489996 0 6478.87121671 0 1067.56587820 0 1532.87479254 0 10882
0.10050000 0.10051200 17454.30212087 0 361.09397868 0 5867.22492140 0 658.32832397 0 2591.57727473 0 10875
0.10150000 0.10150300 17142.06256098 0 251.74037708 0 5734.52310845 0 -129.73332267 0 2484.91756975 0 11118
0.10250000 0.10250800 16885.29534844 0 384.36025482 0 5669.50641711 0 53.12036410 0 1871.40005155 0 11575
0.10350000 0.10349800 16400.10607488 0 436.37803682 0 5747.79882591 0 281.15068626 0 1872.35227148 0 11364
0.10450000 0.10450100 16097.72088409 0 450.51739562 0 5641.67059252 0 171.45605705 0 2172.19082757 0 12093
0.10550000 0.10551000 15759.23991438 0 259.94496977 0 5457.49354149 0 465.88356800 0 1259.58767137 0 12067
0.10650000 0.10649700 15634.56553692 0 -41.89845218 0 5383.02108476 0 -53.81769912 0 587.10780904 0 12054
0.10750000 0.10749900 15676.64037123 0 55.77362530 0 5078.45464597 0 37.06593601 0 226.18323693 0 12807
0.10850000 0.10850100 15486.86072384 0 258.93849544 0 5036.45731793 0 -472.56682326 0 2.83937590 0 12736
0.10950000 0.10950300 15439.02828062 0 344.55081817 0 4956.23832462 0 -359.15410737 0 -320.75971383 0 12933
0.11050000 0.11050200 15141.29346625 0 156.48959559 0 5303.00139329 0 -154.86085661 0 -673.06448108 0 13428
0.11150000 0.11150900 15193.55483939 0 331.78664212 0 4838.07447416 0 -122.77104482 0 -827.43926263 0 13453
0.11250000 0.11250000 14776.23891698 0 -132.93101008 0 5102.09405946 0 -111.99656554 0 -604.39170809 0 13668
0.11350000 0.11349100 15310.47858948 0 -67.93712773 0 5253.92884970 0 642.29227594 0 -766.27795479 0 13791
0.11450000 0.11448600 15338.93446426 0 -176.24151584 0 5267.01633763 0 476.93153370 0 -595.08320461 0 14205
0.11550000 0.11549300 15104.86551760 0 231.53449152 0 5063.99418976 0 549.97455330 0 -446.34534362 0 14776
0.11650000 0.11649800 15208.17030816 0 460.57328102 0 5169.85668735 0 177.34431939 0 505.89119927 0 14553
0.11750000 0.11747300 14502.42032421 0 304.85321200 0 5065.74361708 0 337.85981228 0 772.67665131 0 14568
0.11850000 0.11849100 14598.74955014 0 181.79428673 0 4963.53498668 0 570.11511214 0 783.12781870 0 16015
0.11950000 0.11950300 14341.42872135 0 32.53292623 0 4902.50433228 0 355.96638506 0 648.76515703 0 15270
0.12050000 0.12050700 14271.00873551 0 262.50267680 0 5232.70320302 0 -279.18645584 0 573.80441077 0 15999
0.12150000 0.12150000 14318.84117872 0 302.53134548 0 5454.58152006 0 -165.44267744 0 1023.93427502 0 15670
0.12250000 0.12250700 13939.94622343 0 91.41787480 0 5376.37768987 0 66.84218553 0 1438.99255041 0 16887
0.12350000 0.12352200 14039.04353055 0 -68.49041180 0 4944.62345589 0 266.17425971 0 1483.32613898 0 16407
0.12450000 0.12449800 14041.92233501 0 -89.33373110 0 5427.69791540 0 663.67625686 0 1334.68017829 0 16306
0.12550000 0.12549900 14010.03403953 0 181.25174282 0 4738.36818917 0 989.67650203 0 1469.07605694 0 17523
0.12650000 0.12650100 13846.05290897 0 79.84275571 0 3814.84772069 0 454.31852473 0 828.23536278 0 17154
0.12750000 0.12750600 13748.06283432 0 147.30178046 0 3938.92419261 0 293.53397434 0 852.40624786 0 18007
0.12850000 0.12850300 13390.53746593 0 362.99952578 0 3344.71680889 0 133.19674587 0 352.09771477 0 17496
0.12950000 0.12949900 12920.62800062 0 450.08557495 0 3081.83767305 0 -69.32847607 0 -71.32426261 0 18405
0.13050000 0.13049000 12682.35157053 0 302.83583442 0 2805.50566255 0 -488.24412797 0 75.22869652 0 18100
0.13150000 0.13148800 12595.21237420 0 260.83407745 0 2989.23982059 0 175.20403900 0 -579.07040846 0 19059
0.13250000 0.13249300 12204.80220110 0 57.82887023 0 3032.15615159 0 103.38794372 0 -280.70004264 0 18957
0.13350000 0.13349100 12324.05113939 0 113.12372821 0 3100.10700900 0 287.21610580 0 -439.36535006 0 19468
0.13450000 0.13450700 12091.31087171 0 281.42638715 0 3316.48238060 0 -307.85159756 0 -58.06205339 0 19953
0.13550000 0.13551000 11905.51726125 0 270.08721930 0 3434.88982221 0 -81.06846207 0 83.55884937 0 19956
0.13650000 0.13649900 11784.60747423 0 174.04365936 0 3832.16483671 0 -81.34626670 0 300.95353920 0 19723
0.13750000 0.13749600 11688.16752506 0 93.68194378 0 3790.07893007 0 293.74102681 0 460.39612382 0 20946
0.13850000 0.13851100 11630.14854301 0 39.79648203 0 3762.08809293 0 562.32351717 0 427.23008206 0 20955
0.13950000 0.13949800 11713.30170240 0 -131.04317869 0 3516.28248196 0 258.45906378 0 -23.14226610 0 20506
0.14050000 0.14048300 11688.72114130 0 -2.39597358 0 3416.06687002 0 143.17180330 0 -284.75472799 0 21447
0.14150000 0.14148400 11627.60190830 0 396.69703914 0 3433.56114324 0 -290.44701018 0 133.80129481 0 21771
0.14250000 0.14249400 11308.05461404 0 436.04697431 0 3689.30970190 0 -389.70043708 0 323.83006951 0 22470
0.14350000 0.14350900 10980.22522080 0 339.07555355 0 3501.03589068 0 47.62040820 0 741.37076011 0 22519
0.14450000 0.14449900 10748.76934280 0 200.69806690 0 3477.96116576 0 826.22130690 0 1049.49362963 0 22218
0.14550000 0.14550500 10684.25090608 0 -0.37089742 0 2904.13793203 0 674.88698574 0 875.57840924 0 23559
0.14650000 0.14650700 10815.67940167 0 -236.82817001 0 3301.09184911 0 825.28458822 0 707.47505215 0 23044
0.14750000 0.14750500 10751.88066607 0 144.12623770 0 3034.94637744 0 46.60264010 0 751.28381252 0 23649
0.14850000 0.14849900 10695.07963975 0 366.78404641 0 2965.72220267 0 -294.21160062 0 968.13197240 0 23640
0.14950000 0.14949500 10199.19450042 0 240.60383277 0 2939.94583050 0 -302.60885176 0 1518.23717913 0 24457
0.15050000 0.15050000 10269.02765305 0 118.10405991 0 3229.64213705 0 89.58263696 0 1498.36235608 0 24591
0.15150000 0.15149900 10142.05023203 0 -35.16924677 0 3422.37809517 0 102.71053888 0 957.49478995 0 25020
0.15250000 0.15250500 10036.58633814 0 262.93339024 0 3274.42969094 0 322.89002913 0 1023.39283834 0 25297
0.15350000 0.15350100 9691.09658682 0 438.45299049 0 3149.05775702 0 61.47399029 0 1062.05407491 0 25452
0.15450000 0.15450400 9520.21739789 0 127.37048855 0 3061.04384704 0 237.78149718 0 1437.43135261 0 26061
0.15550000 0.15549900 9466.54983950 0 -10.06290525 0 2855.98439140 0 363.80005487 0 1451.74786860 0 26128
0.15650000 0.15649500 9413.20337852 0 -11.03636191 0 2859.76005416 0 156.75976032 0 1124.61603183 0 26331
0.15750000 0.15749700 9598.26621554 0 -25.26350209 0 2636.22088840 0 241.62913005 0 1046.67129404 0 27345
0.15850000 0.15849900 9525.65390938 0 11.97195121 0 2394.94385827 0 -33.91109850 0 1057.20328940 0 26980
0.15950000 0.15949700 9502.93349885 0 147.13348112 0 2692.10291176 0 -437.58270576 0 928.91269066 0 27777
0.16050000 0.16050000 9335.69710479 0 264.42040346 0 2804.91882933 0 -268.20381685 0 932.35839814 0 28224
0.16150000 0.16150500 9271.78764594 0 256.21138184 0 2886.06789793 0 48.88564275 0 1032.51975569 0 28075
0.16250000 0.16249700 9018.76287918 0 147.89747153 0 2785.06615093 0 329.98960380 0 898.66863542 0 28590
0.16350000 0.16349900 8848.24907697 0 126.83015910 0 2812.50337183 0 148.34590069 0 952.77576511 0 29163
0.16450000 0.16449100 8780.20964096 0 208.02240976 0 2916.49464653 0 225.55875781 0 722.78807737 0 28996
0.16550000 0.16550500 8600.27329034 0 214.18526576 0 2946.65565934 0 144.57798855 0 1124.11777721 0 30777
0.16650000 0.16650700 8460.61805740 0 172.06282045 0 2930.14682303 0 9.16604694 0 1284.32324501 0 29211
0.16750000 0.16749900 8380.06689434 0 52.00172713 0 2846.35146880 0 103.80415241 0 1292.18459564 0 30922
0.16850000 0.16850800 8338.58996557 0 12.76107580 0 2855.12075006 0 189.13855978 0 1092.39888831 0 30867
0.16950000 0.16949900 8299.61538221 0 25.91355828 0 2633.04313117 0 198.85895374 0 1036.90550355 0 30852
0.17050000 0.17049200 8274.78015764 0 77.97252933 0 2505.09134557 0 52.47529046 0 1051.37592485 0 31257
0.17150000 0.17149500 8148.41171449 0 203.71748987 0 2461.37780719 0 -31.25340837 0 874.42799469 0 32608
0.17250000 0.17250900 7982.12754036 0 177.13173075 0 2396.35004353 0 137.65446384 0 731.58393221 0 32361
0.17350000 0.17350400 7819.33114855 0 200.94165804 0 2344.31011688 0 -84.15022224 0 877.25586645 0 32508
0.17450000 0.17449800 7739.15644454 0 150.69101908 0 2234.33978678 0 -68.62704429 0 786.54916707 0 32791
0.17550000 0.17549800 7702.23024127 0 -151.13169761 0 2196.83782262 0 472.14275322 0 880.73479091 0 33633
0.17650000 0.17650100 7843.76776943 0 -154.78224310 0 2040.21978806 0 230.41397224 0 179.04059955 0 33984
0.17750000 0.17750300 7891.64450194 0 55.87803732 0 1987.26085845 0 67.07171482 0 121.57966267 0 34069
0.17850000 0.17849800 7900.12590275 0 102.78405912 0 1963.47750474 0 -267.32688872 0 -67.35007307 0 34536
