### header ###
fiducial parameters:
Omega_m = 0.31
Omega_nu = 0
Omega_de = 0.69
Omega_k = 0
H_0 = 100
w_de = -1
zeff = 0
beta = 0
fgrowth = 0
b_1 = 2
gamma = 0.55
Lx = 3500 Ly = 3500 Lz = 3500
nx = 700 ny = 700 nz = 700
xoffset = -685.467585 yoffset = -31.7331281 zoffset = 572.489161
bins = 400 dk = 0.001
kx_ny = 0.628318531 ky_ny = 0.628318531 kz_ny = 0.628318531
############################
A(data) = 8.01581713 (not used)
A(ran) = 8.00998895 (used)
Ngal = 475892
weighted Ngal = 0
Nran = 23820508
weighted Nran = 0
SN(data) = 3489.82185
SN(ran) = 69.7699087
SN(data+ran) = 3559.59176
############################
13 columns: k_central k_mean P_0(k) sigma^{lin}_{P_0(k)} P^img_1(k) sigma^{lin}_{P_1(k)} P_2(k) sigma^{lin}_{P_2(k)} P^img_3(k) sigma^{lin}_{P_3(k)} P_4(k) sigma^{lin}_{P_4(k)} N_modes
### header ###
0.00050000 0 0 0 0 0 0 0 0 0 0 0 0
0.00150000 0.00179520 7137.25379507 0 -7157.79295761 0 -320.26588815 0 4678.27868237 0 -12850.54018452 0 3
0.00250000 0.00253879 15314.68607291 0 -7140.95195156 0 5455.65553557 0 -1840.01001069 0 -980.32370926 0 6
0.00350000 0.00331552 19411.99987205 0 -2383.26255559 0 5200.51595477 0 -13466.60433743 0 699.79196596 0 7
0.00450000 0.00420575 21247.56988049 0 6154.48531650 0 6828.63488540 0 -5116.67631124 0 17354.20830451 0 24
0.00550000 0.00557378 31696.96570484 0 -17143.61268645 0 4497.22402694 0 5307.26423835 0 12136.92884996 0 45
0.00650000 0.00659388 42305.13866708 0 -23868.83205805 0 12994.59113041 0 9828.89166919 0 3966.80430650 0 40
0.00750000 0.00754703 59963.61445761 0 -6519.08590045 0 1222.45109393 0 24551.77305287 0 -466.38403708 0 57
0.00850000 0.00846663 65751.78297980 0 -1637.33110488 0 1682.78299826 0 1764.10922406 0 16231.91746089 0 75
0.00950000 0.00948925 65212.56076113 0 -6306.30903441 0 -19798.75617797 0 2833.51864434 0 13159.45804696 0 112
0.01050000 0.01054430 79731.92174232 0 -5994.40164427 0 -5249.85423416 0 -4922.75561437 0 4506.84587721 0 105
0.01150000 0.01145670 77880.96120239 0 -828.15785651 0 4072.07997088 0 -14563.76100371 0 5180.30896198 0 144
0.01250000 0.01249090 78994.94780239 0 8475.28888778 0 11440.14744912 0 -2031.66088097 0 8031.91978507 0 169
0.01350000 0.01339930 75839.22450583 0 1342.05434662 0 3403.05688836 0 -2588.13378171 0 -11233.75931450 0 180
0.01450000 0.01448870 73809.99953632 0 3562.88589712 0 18603.83088354 0 3550.04200033 0 -3459.38180471 0 267
0.01550000 0.01550050 73606.37948290 0 89.11704571 0 14148.43809976 0 -9185.58959722 0 -24746.75669292 0 238
0.01650000 0.01653350 65726.53807921 0 5831.79348198 0 21888.10387124 0 645.28512534 0 -9227.79729943 0 315
0.01750000 0.01747870 70679.74258684 0 -2454.56832742 0 27745.47442356 0 2414.89618760 0 -4995.89939212 0 297
0.01850000 0.01844180 72235.95784010 0 -1047.47182312 0 33742.68843833 0 -1075.13049052 0 -4713.69904947 0 388
0.01950000 0.01947590 71897.80904014 0 2125.16666407 0 38803.07305019 0 11339.50001652 0 16472.85124894 0 399
0.02050000 0.02045430 71580.25476434 0 1260.76133780 0 31602.74022063 0 13543.11410193 0 25156.43271121 0 462
0.02150000 0.02154770 74126.33585638 0 -2177.88200253 0 33924.82818160 0 21944.35128132 0 27181.33947405 0 571
0.02250000 0.02255340 80111.25959061 0 -2356.27930001 0 34036.65866226 0 17714.28030761 0 16289.05065695 0 510
0.02350000 0.02348930 74297.73544458 0 3809.76552360 0 28643.99358259 0 6434.24974769 0 18282.62274055 0 555
0.02450000 0.02439640 73139.01665231 0 8834.96228719 0 20417.36696558 0 -583.62445566 0 18097.38274633 0 592
0.02550000 0.02547300 66150.82956627 0 -750.82431104 0 13468.37590940 0 -5699.83351479 0 13010.31383165 0 837
0.02650000 0.02652900 67435.44069172 0 -557.09405816 0 13628.70317278 0 -1820.71094853 0 3311.21195399 0 723
0.02750000 0.02749970 71140.46202254 0 -1150.73564608 0 18609.14559945 0 -6941.58367088 0 -12226.06106475 0 826
0.02850000 0.02848090 68499.04821380 0 2541.00996728 0 14096.84106611 0 -556.55594317 0 -6287.04318922 0 831
0.02950000 0.02946900 65663.97944399 0 3161.04908480 0 11429.85018704 0 -1888.92754174 0 -8182.81342770 0 996
0.03050000 0.03053250 66413.35438772 0 706.58151553 0 22305.08762391 0 -2148.93894545 0 -6537.80920172 0 1041
0.03150000 0.03150510 63470.21972767 0 4648.43876699 0 27636.07985435 0 -141.22196690 0 -8490.01507979 0 1036
0.03250000 0.03246190 59573.20428450 0 5352.66077010 0 28709.54174552 0 2308.48007376 0 -1133.69533818 0 1059
0.03350000 0.03345080 57518.40224466 0 3757.40449953 0 30597.70529684 0 -409.98272169 0 3143.21156952 0 1302
0.03450000 0.03451200 54193.71527136 0 373.91351636 0 29530.88680056 0 6214.40873841 0 9143.57012454 0 1339
0.03550000 0.03553350 55821.23629645 0 -493.40050964 0 31171.47316894 0 12933.58262066 0 4007.99335483 0 1365
0.03650000 0.03647120 51170.63842613 0 1335.84277240 0 20759.16963274 0 12382.07012144 0 6940.59823397 0 1308
0.03750000 0.03744890 52187.52073747 0 1490.94389845 0 16021.21111959 0 13094.57422352 0 11985.90233943 0 1579
0.03850000 0.03847530 50739.70354418 0 -168.95703334 0 12152.98372095 0 5139.67352989 0 8801.22491347 0 1662
0.03950000 0.03950240 49622.50596998 0 1897.98470344 0 12742.25284779 0 1012.61060843 0 11355.44416426 0 1683
0.04050000 0.04050350 48950.30513024 0 3168.42325313 0 12942.55120376 0 -1716.91897568 0 15446.33601500 0 1822
0.04150000 0.04152450 44680.48451043 0 4409.65300995 0 13275.27456456 0 -5006.58418557 0 16232.69252362 0 1887
0.04250000 0.04250150 43753.73092311 0 2220.44401913 0 18152.41220068 0 -2089.92345417 0 14327.03469909 0 1920
0.04350000 0.04349210 41570.26846887 0 542.83733272 0 21807.27590007 0 629.30111723 0 8806.09673639 0 2005
0.04450000 0.04448520 40613.06598830 0 1537.79090476 0 21955.64505264 0 -1866.07426331 0 8997.06112254 0 2151
0.04550000 0.04548030 41915.06066372 0 685.08348967 0 21930.95376829 0 1316.79837371 0 6895.51172731 0 2274
0.04650000 0.04648670 40435.68734470 0 -272.93059231 0 22602.04737555 0 -126.05398913 0 6604.92963477 0 2311
0.04750000 0.04749250 39638.92285075 0 1807.93348569 0 21145.04015267 0 1096.00625173 0 2757.21925401 0 2568
0.04850000 0.04851840 38314.67280244 0 1522.61074744 0 22933.55278062 0 -589.45957084 0 -945.92310328 0 2493
0.04950000 0.04949480 36907.04814825 0 2368.50314661 0 17770.08482469 0 2616.99933251 0 434.14364167 0 2644
0.05050000 0.05050630 34753.59169427 0 314.92016972 0 18621.54660325 0 1323.00994793 0 -513.32294368 0 2829
0.05150000 0.05149060 35900.68454548 0 -1648.38128505 0 15858.55866800 0 2750.95231817 0 -2309.00047303 0 2784
0.05250000 0.05249300 37359.46334034 0 -1463.76134103 0 17586.28423270 0 3579.90406036 0 -2688.64834641 0 3055
0.05350000 0.05348950 37711.34182308 0 -222.32342450 0 13892.99956620 0 704.01162894 0 211.23781289 0 3009
0.05450000 0.05448610 37820.29349929 0 672.93382764 0 13116.60814991 0 3836.38339246 0 2475.72754015 0 3336
0.05550000 0.05550870 37692.85104063 0 185.93312175 0 11352.23319006 0 1398.54534784 0 -1975.62384507 0 3349
0.05650000 0.05647670 36459.61550233 0 -104.83498585 0 9728.60962331 0 2762.33466808 0 1610.68001904 0 3324
0.05750000 0.05747970 36239.49768493 0 806.23354613 0 10239.64170298 0 180.45342820 0 -3124.08966456 0 3639
0.05850000 0.05849280 35486.69032051 0 1087.15392804 0 9163.68853873 0 -805.90248362 0 -297.30299371 0 3846
0.05950000 0.05951020 34600.12927228 0 954.53737199 0 10284.92751149 0 -1624.50935274 0 -2354.47451106 0 3787
0.06050000 0.06049470 34096.89210928 0 1611.45508178 0 10316.07396121 0 -1264.95774891 0 -930.44288595 0 3930
0.06150000 0.06148310 33050.11452092 0 433.14270351 0 10431.42544117 0 859.57779265 0 -3905.16467424 0 4083
0.06250000 0.06249100 33355.15706968 0 -405.14079404 0 11805.75561463 0 2182.00090736 0 -894.55083782 0 4303
0.06350000 0.06350600 33099.05419662 0 192.65402291 0 11179.06202990 0 824.77747574 0 -1835.14926009 0 4470
0.06450000 0.06451750 33304.00292901 0 899.14142369 0 11316.13741115 0 1364.70832320 0 1726.39688572 0 4479
0.06550000 0.06550280 31890.28849617 0 1363.40178887 0 10650.73497885 0 1296.21492187 0 4180.61089875 0 4636
0.06650000 0.06648880 30794.23906237 0 747.05639891 0 10029.95401557 0 3057.17960568 0 3659.76873928 0 4653
0.06750000 0.06749660 30923.01020001 0 -26.96587203 0 8993.31867675 0 2163.56548654 0 3204.74047853 0 5220
0.06850000 0.06852730 30080.95989755 0 1117.31936977 0 9752.53691724 0 -1290.68983178 0 3282.64535596 0 5029
0.06950000 0.06949320 29605.95716283 0 1126.76406284 0 8976.25622420 0 -1241.96053026 0 2168.42623713 0 5040
0.07050000 0.07048030 28621.40603996 0 791.28922933 0 10219.09146812 0 -1469.98398757 0 2609.47015163 0 5475
0.07150000 0.07148790 28503.04288765 0 139.89439515 0 9735.58518794 0 165.83685220 0 1142.29853457 0 5509
0.07250000 0.07249820 28373.71813377 0 -399.48062160 0 9625.92488294 0 1543.05025905 0 -666.11659725 0 5916
0.07350000 0.07351270 28561.06186970 0 -499.20572954 0 8583.89732193 0 1658.93321060 0 -213.50985394 0 5721
0.07450000 0.07449140 28706.99511081 0 111.25914871 0 8202.81004632 0 1039.27498106 0 -765.37777479 0 6028
0.07550000 0.07549160 28235.42479678 0 1381.01785766 0 8200.54021973 0 724.25737487 0 832.46609810 0 6183
0.07650000 0.07648840 26895.11987748 0 1062.02196517 0 8520.01000773 0 -516.96684578 0 1772.29167210 0 6330
0.07750000 0.07749960 26409.37698769 0 772.71983337 0 8715.09329871 0 -49.79180182 0 1542.49664281 0 6583
0.07850000 0.07848650 25859.52533720 0 1430.69937912 0 9953.62140827 0 -1008.72754412 0 2086.02599583 0 6549
0.07950000 0.07947320 24510.03038830 0 822.63608812 0 10291.74806358 0 -555.33023681 0 1980.26314917 0 6828
0.08050000 0.08048110 24386.57396657 0 454.42039011 0 10656.33757521 0 1248.22746611 0 3178.95303403 0 7147
0.08150000 0.08149960 24438.50316997 0 -377.51091469 0 9771.28236316 0 1252.61210673 0 784.62258255 0 7386
0.08250000 0.08250610 24637.47284696 0 -405.20390630 0 9067.79113348 0 1315.02680174 0 520.88201984 0 7227
0.08350000 0.08350160 24381.92359015 0 376.07151247 0 8332.33410205 0 219.56863008 0 -262.22143975 0 7798
0.08450000 0.08449610 23676.61649920 0 1437.11025519 0 9377.32904611 0 -450.65137075 0 -983.90782080 0 7371
0.08550000 0.08548940 22540.81741930 0 1368.21825016 0 8532.66567499 0 -1139.48616406 0 167.55195532 0 8256
0.08650000 0.08650700 21813.69784846 0 1002.01882251 0 9236.92089508 0 -518.70852248 0 -102.79668157 0 8037
0.08750000 0.08749060 21132.19625588 0 307.38434545 0 8841.94892415 0 239.78005181 0 1388.51382156 0 8155
0.08850000 0.08849210 21474.55253927 0 -438.08317484 0 9048.76887944 0 1169.97934661 0 -565.48134421 0 8718
0.08950000 0.08949900 21572.98550691 0 -291.30179365 0 8347.08243871 0 1742.45175671 0 -76.38730458 0 8571
0.09050000 0.09049190 21566.12066552 0 144.88247748 0 7965.38618523 0 1078.94712088 0 -692.67467556 0 8932
0.09150000 0.09150830 21353.08913601 0 610.00759123 0 7332.22636281 0 256.91447446 0 96.43795615 0 9285
0.09250000 0.09250820 20843.98364085 0 692.42001209 0 7810.11897430 0 -33.36977254 0 -502.23511761 0 9204
0.09350000 0.09350330 20137.01570118 0 501.84758624 0 6992.68244992 0 443.15208515 0 128.57515749 0 9349
0.09450000 0.09448040 19451.30662516 0 422.07480762 0 6743.28940570 0 1206.52909084 0 762.65509011 0 9564
0.09550000 0.09549270 19146.70696940 0 291.16671129 0 6215.51597090 0 1345.78572008 0 -346.37775177 0 10155
0.09650000 0.09649430 18830.03847958 0 417.25834633 0 6469.37116201 0 1253.52003737 0 -690.78905865 0 9913
0.09750000 0.09749140 18205.89152956 0 829.30162766 0 6147.66476441 0 -641.32012582 0 -459.58562964 0 10476
0.09850000 0.09850240 17149.59174186 0 1096.66505506 0 5919.88489824 0 -339.09659097 0 763.90515559 0 10575
0.09950000 0.09950330 16763.72122193 0 387.70298969 0 5804.00194669 0 -19.47876599 0 100.51290385 0 10882
0.10050000 0.10051200 16578.37050446 0 -221.00028168 0 6681.56119484 0 -114.37490091 0 -448.86429752 0 10875
0.10150000 0.10150300 16925.15571778 0 -68.87362496 0 5805.02060057 0 296.94867931 0 -1811.98595657 0 11118
0.10250000 0.10250800 16686.87928769 0 140.43251014 0 5854.59139878 0 68.44866914 0 -984.66073889 0 11575
0.10350000 0.10349800 16574.82736052 0 388.78143412 0 5604.26827928 0 322.09282174 0 -778.79300354 0 11364
0.10450000 0.10450100 16763.94266842 0 -140.98059022 0 5238.53831820 0 851.49720999 0 -536.74533961 0 12093
0.10550000 0.10551000 16520.90513865 0 -315.65647932 0 5105.24967203 0 555.73769837 0 -1419.82635614 0 12067
0.10650000 0.10649700 16729.39701499 0 121.44900924 0 4831.75217669 0 209.14735796 0 -1293.44684066 0 12054
0.10750000 0.10749900 16605.49770027 0 234.09662748 0 5243.77552784 0 -259.29945323 0 -635.61787854 0 12807
0.10850000 0.10850100 16430.22279839 0 368.47811210 0 4763.29199233 0 151.61555821 0 -785.67445341 0 12736
0.10950000 0.10950300 16308.75939513 0 249.18709897 0 5164.76341793 0 325.99692347 0 -508.28835759 0 12933
0.11050000 0.11050200 15875.16715523 0 366.48620087 0 4797.63834392 0 -37.29579747 0 -853.66960012 0 13428
0.11150000 0.11150900 15779.05937580 0 288.63668507 0 5072.90741124 0 315.74173623 0 -352.45202916 0 13453
0.11250000 0.11250000 15412.89759405 0 59.68968514 0 4744.96729476 0 788.81788643 0 -55.21070831 0 13668
0.11350000 0.11349100 15432.05271599 0 187.88517262 0 4892.31779344 0 386.05321329 0 -545.94090537 0 13791
0.11450000 0.11448600 15269.51098765 0 597.07843754 0 4962.01807818 0 88.06063519 0 41.24584935 0 14205
0.11550000 0.11549300 14622.55504850 0 615.00120973 0 4791.65928852 0 -258.69047537 0 -60.61776741 0 14776
0.11650000 0.11649800 14001.17617967 0 644.72597294 0 5381.13878954 0 -89.03887509 0 1235.26177374 0 14553
0.11750000 0.11747300 13766.11072377 0 331.20755953 0 5242.90081418 0 190.35983721 0 912.19237295 0 14568
0.11850000 0.11849100 13538.79589525 0 113.17133920 0 5368.98137689 0 543.32783671 0 533.91968231 0 16015
0.11950000 0.11950300 13568.80189551 0 -21.48075304 0 5009.48513467 0 3.40289080 0 1009.89788885 0 15270
0.12050000 0.12050700 13452.76393141 0 -43.15106428 0 5076.08516846 0 7.88776919 0 1075.20246063 0 15999
0.12150000 0.12150000 13635.45729091 0 -68.35411148 0 4923.22065201 0 274.54272281 0 775.70825384 0 15670
0.12250000 0.12250700 13613.97698077 0 -6.02702071 0 5086.95819143 0 123.78748424 0 588.22057769 0 16887
0.12350000 0.12352200 13647.52612497 0 241.77196304 0 5152.20740159 0 227.18196063 0 434.41823533 0 16407
0.12450000 0.12449800 13168.31590682 0 236.33877325 0 4760.40211555 0 306.28818530 0 431.72766040 0 16306
0.12550000 0.12549900 13132.66302090 0 440.45486682 0 4863.50760427 0 351.00155461 0 1060.49841327 0 17523
0.12650000 0.12650100 12715.78999148 0 155.11884178 0 4779.22506775 0 66.35378528 0 723.36162380 0 17154
0.12750000 0.12750600 12701.94958545 0 -35.62598017 0 4506.52477979 0 500.40154062 0 947.16652536 0 18007
0.12850000 0.12850300 12836.36760875 0 -147.19659337 0 4497.98801735 0 191.46485523 0 964.32419990 0 17496
0.12950000 0.12949900 12931.81104869 0 -73.58833159 0 4348.21267953 0 374.52913762 0 1154.92098486 0 18405
0.13050000 0.13049000 12961.26343271 0 123.62472107 0 4246.02619378 0 472.63325721 0 1038.27736459 0 18100
0.13150000 0.13148800 12703.16754118 0 369.14577329 0 4102.03060951 0 128.89182598 0 1204.46963842 0 19059
0.13250000 0.13249300 12413.40480068 0 415.06824048 0 4160.81358198 0 -318.05585211 0 830.27488501 0 18957
0.13350000 0.13349100 12216.31741891 0 214.97693698 0 3957.60320458 0 12.39369606 0 807.90103825 0 19468
0.13450000 0.13450700 12192.40119730 0 -53.49693387 0 3895.11100330 0 271.62295075 0 788.83560215 0 19953
0.13550000 0.13551000 12101.27596404 0 -49.29675817 0 3577.25777473 0 171.48927402 0 201.52184786 0 19956
0.13650000 0.13649900 12202.69845938 0 95.34079949 0 3529.66892266 0 168.35802056 0 42.21146680 0 19723
0.13750000 0.13749600 11920.13273001 0 372.48186476 0 2935.43939430 0 112.62547359 0 -287.10648978 0 20946
0.13850000 0.13851100 11479.23275573 0 297.28306352 0 3053.07177317 0 -150.16729812 0 -635.55365906 0 20955
0.13950000 0.13949800 11345.47907192 0 334.90017986 0 3075.18320583 0 -5.19107126 0 -793.85800868 0 20506
0.14050000 0.14048300 11029.81816367 0 217.18586578 0 3053.39287059 0 279.11005680 0 -1091.78326705 0 21447
0.14150000 0.14148400 10893.10816913 0 82.71181652 0 2927.34552485 0 141.28286469 0 15.23773342 0 21771
0.14250000 0.14249400 10859.52580796 0 39.49885794 0 3029.81989105 0 236.51371599 0 -726.62685239 0 22470
0.14350000 0.14350900 10862.74785448 0 175.37344557 0 2922.60656983 0 -116.64915643 0 -765.38884711 0 22519
0.14450000 0.14449900 10742.94529994 0 154.57851233 0 3140.10024624 0 -197.07852391 0 -545.91876072 0 22218
0.14550000 0.14550500 10854.60969574 0 -6.89906594 0 3234.85720204 0 -152.16917445 0 -346.40543258 0 23559
0.14650000 0.14650700 10687.09649356 0 70.29486858 0 3505.86342430 0 -7.65732089 0 45.05760789 0 23044
0.14750000 0.14750500 10683.08831197 0 343.17674266 0 3563.00769269 0 207.67695323 0 -27.24644474 0 23649
0.14850000 0.14849900 10496.97360410 0 264.35618398 0 3440.14917650 0 459.13720049 0 337.59407649 0 23640
0.14950000 0.14949500 10140.55546818 0 166.67834889 0 3482.82191635 0 292.23961957 0 530.94897756 0 24457
0.15050000 0.15050000 10253.53747063 0 88.60052175 0 3271.32943999 0 361.19584407 0 284.23322149 0 24591
0.15150000 0.15149900 9987.91239823 0 77.61688626 0 3429.43116608 0 -71.59520240 0 462.83314251 0 25020
0.15250000 0.15250500 9953.41103410 0 171.32429638 0 3083.26600295 0 72.77152619 0 670.01737729 0 25297
0.15350000 0.15350100 9887.07673611 0 66.80044286 0 3196.01548658 0 237.45707806 0 638.48450343 0 25452
0.15450000 0.15450400 9891.59424464 0 -63.80128224 0 3053.51466616 0 236.42624462 0 645.83099095 0 26061
0.15550000 0.15549900 9684.44211960 0 201.21182277 0 2804.13269427 0 203.70641755 0 568.51848291 0 26128
0.15650000 0.15649500 9740.09162414 0 302.94434320 0 3086.60984504 0 -44.46368839 0 468.24308042 0 26331
0.15750000 0.15749700 9340.90109746 0 167.55638425 0 2919.48417423 0 74.22731546 0 827.16024004 0 27345
0.15850000 0.15849900 9357.94140535 0 181.66141883 0 3075.31607373 0 -58.30398369 0 840.60314960 0 26980
0.15950000 0.15949700 9190.46142014 0 35.21420041 0 3029.06697296 0 179.82119845 0 1232.07294419 0 27777
0.16050000 0.16050000 9251.22633875 0 0.56971208 0 2781.43442839 0 184.23794882 0 775.17567502 0 28224
0.16150000 0.16150500 9227.94123966 0 10.88512502 0 2556.34513715 0 350.08365888 0 714.52590859 0 28075
0.16250000 0.16249700 9128.75535393 0 127.98057365 0 2493.14430709 0 -66.97538560 0 375.41160191 0 28590
0.16350000 0.16349900 9044.08528604 0 157.44513722 0 2383.90475043 0 112.96317950 0 186.78458353 0 29163
0.16450000 0.16449100 8902.22666047 0 24.05551145 0 2335.76228212 0 1.30451917 0 -23.11779627 0 28996
0.16550000 0.16550500 8867.34883729 0 -1.05236911 0 2151.45236319 0 256.80375122 0 22.23433547 0 30777
0.16650000 0.16650700 8880.36989127 0 100.02062829 0 2255.79795228 0 113.55997781 0 -381.82801414 0 29211
0.16750000 0.16749900 8712.61309795 0 251.11479072 0 2251.34687770 0 -2.23076343 0 -309.98966348 0 30922
0.16850000 0.16850800 8500.25698025 0 295.44837930 0 2287.76375403 0 -174.25735523 0 36.26662488 0 30867
0.16950000 0.16949900 8223.54851071 0 246.40794544 0 2508.52376626 0 -40.43734819 0 383.48775563 0 30852
0.17050000 0.17049200 8287.01507657 0 157.13621936 0 2590.58076549 0 128.25184561 0 566.67715529 0 31257
0.17150000 0.17149500 8072.62165110 0 143.74424249 0 2752.69067316 0 87.22965722 0 373.36986521 0 32608
0.17250000 0.17250900 8074.57038027 0 87.48354562 0 2614.08731108 0 58.43496929 0 484.39206617 0 32361
0.17350000 0.17350400 7992.22550060 0 29.75344053 0 2764.26125260 0 -168.51414034 0 580.59617482 0 32508
0.17450000 0.17449800 7904.49947106 0 76.06997176 0 2610.58845644 0 214.75327602 0 370.01052186 0 32791
0.17550000 0.17549800 7923.68780997 0 -17.25909703 0 2516.50691246 0 107.07380993 0 361.66420341 0 33633
0.17650000 0.17650100 7971.38738529 0 26.43285032 0 2454.69012299 0 172.62197285 0 -61.32938572 0 33984
0.17750000 0.17750300 7889.70684510 0 87.89665406 0 2461.76533855 0 -111.96777750 0 104.73013093 0 34069
0.17850000 0.17849800 7870.49636154 0 108.92288817 0 2334.53325406 0 192.63519996 0 105.24975514 0 34536
