### header ###
fiducial parameters:
Omega_m = 0.31
Omega_nu = 0
Omega_de = 0.69
Omega_k = 0
H_0 = 100
w_de = -1
zeff = 0
beta = 0
fgrowth = 0
b_1 = 2
gamma = 0.55
Lx = 3500 Ly = 3500 Lz = 3500
nx = 700 ny = 700 nz = 700
xoffset = -685.467585 yoffset = -31.7331281 zoffset = 572.489161
bins = 400 dk = 0.001
kx_ny = 0.628318531 ky_ny = 0.628318531 kz_ny = 0.628318531
############################
A(data) = 7.97299402 (not used)
A(ran) = 7.97215113 (used)
Ngal = 473084
weighted Ngal = 0
Nran = 23820508
weighted Nran = 0
SN(data) = 3486.55059
SN(ran) = 69.4403276
SN(data+ran) = 3555.99092
############################
13 columns: k_central k_mean P_0(k) sigma^{lin}_{P_0(k)} P^img_1(k) sigma^{lin}_{P_1(k)} P_2(k) sigma^{lin}_{P_2(k)} P^img_3(k) sigma^{lin}_{P_3(k)} P_4(k) sigma^{lin}_{P_4(k)} N_modes
### header ###
0.00050000 0 0 0 0 0 0 0 0 0 0 0 0
0.00150000 0.00179520 14650.90020003 0 -2073.44783484 0 27914.88099328 0 -53303.27890945 0 -48230.82546353 0 3
0.00250000 0.00253879 19080.71591348 0 9115.63464902 0 6491.54902862 0 28448.67777279 0 45401.84647236 0 6
0.00350000 0.00331552 17113.49596295 0 -3250.42489074 0 5446.57622922 0 -9034.87311179 0 -25847.89939614 0 7
0.00450000 0.00420575 19916.23354429 0 -25509.86131942 0 -4379.93489014 0 12874.12423638 0 7403.02280770 0 24
0.00550000 0.00557378 61203.16122105 0 -25084.46259989 0 21319.20782206 0 -8187.96205874 0 -33671.60411299 0 45
0.00650000 0.00659388 81972.62811587 0 -6253.58262362 0 8919.48841486 0 14336.88906818 0 57741.39886650 0 40
0.00750000 0.00754703 69202.91590252 0 20271.21227798 0 -611.23994099 0 -12217.09248165 0 27040.72094885 0 57
0.00850000 0.00846663 64787.16204160 0 14209.77877926 0 1260.27415551 0 -12275.88652643 0 15291.98780703 0 75
0.00950000 0.00948925 76694.11870508 0 -13723.26082673 0 12524.46021861 0 3347.28558825 0 -3665.33811867 0 112
0.01050000 0.01054430 69097.61809350 0 -723.80562402 0 22002.37026337 0 -1822.68182235 0 4056.15796779 0 105
0.01150000 0.01145670 73318.60976086 0 6782.97261785 0 39547.46544775 0 4952.10834746 0 -11331.86011240 0 144
0.01250000 0.01249090 74425.06717999 0 -932.51119623 0 23657.23993077 0 3632.49760325 0 16878.43050705 0 169
0.01350000 0.01339930 84883.54231069 0 -3192.14017289 0 38069.08863797 0 690.23987133 0 4041.37641416 0 180
0.01450000 0.01448870 78915.33778695 0 447.13590762 0 32530.82248693 0 8989.56515863 0 5261.32516267 0 267
0.01550000 0.01550050 80244.23821168 0 3221.51505063 0 43185.94210641 0 7630.71409527 0 2084.68624453 0 238
0.01650000 0.01653350 73122.07599533 0 6567.04013924 0 39157.94106063 0 10783.21534531 0 5854.59139878 0 315
0.01750000 0.01747870 73183.08450508 0 8.12270178 0 36793.33537236 0 14029.29988471 0 -14880.76166327 0 297
0.01850000 0.01844180 69880.98507442 0 85.68772526 0 29327.93108664 0 16616.01640885 0 1306.41253303 0 388
0.01950000 0.01947590 78439.22781974 0 -2584.82315659 0 19054.03161066 0 13088.59516812 0 3928.79301540 0 399
0.02050000 0.02045430 75535.84280580 0 -3479.88775028 0 16426.79037770 0 463.80307817 0 1927.21564096 0 462
0.02150000 0.02154770 73384.26864704 0 7792.56933947 0 14294.03917113 0 2772.74265341 0 -3842.59496669 0 571
0.02250000 0.02255340 70467.15395032 0 5858.58850804 0 16290.82222892 0 -367.36866516 0 9573.02131495 0 510
0.02350000 0.02348930 64576.01280731 0 2188.20140926 0 18391.02080052 0 2084.36514711 0 2470.96644048 0 555
0.02450000 0.02439640 62781.18895421 0 -1980.88319936 0 20320.48412342 0 15914.03101534 0 13095.57073276 0 592
0.02550000 0.02547300 65323.94834881 0 -790.81311936 0 18297.01676281 0 11542.89862344 0 1804.53428197 0 837
0.02650000 0.02652900 65058.43399966 0 4467.46161783 0 13125.68745626 0 1229.36022461 0 13666.68124690 0 723
0.02750000 0.02749970 57365.05054592 0 7102.13238075 0 11178.61913691 0 -3599.02596533 0 14245.09949543 0 826
0.02850000 0.02848090 53989.54160170 0 2331.94233006 0 8710.17718649 0 -4593.63075914 0 22633.38205479 0 831
0.02950000 0.02946900 56015.99849001 0 -553.77457518 0 11719.39148105 0 1490.14669107 0 12978.09336643 0 996
0.03050000 0.03053250 53972.71166798 0 -1744.81016190 0 15680.29423842 0 4105.33016231 0 4892.66103551 0 1041
0.03150000 0.03150510 58093.83096548 0 -527.17885096 0 20072.24260099 0 440.49472719 0 2274.54339820 0 1036
0.03250000 0.03246190 54767.59386671 0 753.97881639 0 25622.57758608 0 -1903.86410792 0 5797.86787874 0 1059
0.03350000 0.03345080 59803.39791748 0 1576.54404163 0 30857.01914409 0 -8617.36895986 0 6934.90705901 0 1302
0.03450000 0.03451200 56402.64407268 0 4806.09760008 0 35784.20368839 0 -5672.03090717 0 20392.78640449 0 1339
0.03550000 0.03553350 56051.20848294 0 4407.22817081 0 40418.41451799 0 1023.60874867 0 18640.59100194 0 1365
0.03650000 0.03647120 53890.33357133 0 892.93649286 0 40894.85665493 0 6919.72690169 0 18027.29493023 0 1308
0.03750000 0.03744890 53783.15346709 0 -577.58560970 0 36789.68150517 0 9946.16973367 0 8267.97067788 0 1579
0.03850000 0.03847530 52340.42954322 0 2512.91947922 0 32969.39727299 0 4967.68710848 0 1286.84773507 0 1662
0.03950000 0.03950240 50291.49583553 0 875.91500792 0 27087.33543634 0 1678.77481668 0 -678.25186525 0 1683
0.04050000 0.04050350 48907.12306345 0 219.84100927 0 23262.06865799 0 6178.43475508 0 -1137.31598840 0 1822
0.04150000 0.04152450 47602.02813708 0 -203.30006323 0 17232.96634774 0 4966.53558670 0 -8795.05762855 0 1887
0.04250000 0.04250150 46676.27105899 0 882.87950023 0 17670.54462457 0 4497.74442621 0 -4989.06776771 0 1920
0.04350000 0.04349210 46283.53569767 0 3599.60172622 0 15151.48000508 0 4843.30061147 0 -7513.84570681 0 2005
0.04450000 0.04448520 43540.47794710 0 2457.80144627 0 15624.82189108 0 745.23278701 0 1210.65906800 0 2151
0.04550000 0.04548030 39939.64719283 0 2246.98438172 0 16887.73125990 0 2129.80596817 0 2789.05218787 0 2274
0.04650000 0.04648670 40174.04830924 0 1458.57949301 0 17409.45920535 0 2249.87425850 0 4329.19042549 0 2311
0.04750000 0.04749250 38122.67869009 0 471.71868318 0 17373.58487294 0 2163.55441421 0 4417.95725356 0 2568
0.04850000 0.04851840 37663.73082636 0 -198.08278377 0 15051.82908172 0 557.68310584 0 324.78450391 0 2493
0.04950000 0.04949480 38711.72637044 0 -690.51889392 0 12953.62352858 0 -408.94081592 0 -1507.44166243 0 2644
0.05050000 0.05050630 37328.68227734 0 847.16128759 0 10481.35055378 0 -494.50884935 0 -9017.47848950 0 2829
0.05150000 0.05149060 38036.64672625 0 26.45178399 0 8807.32576444 0 -1972.50144947 0 -6865.10712336 0 2784
0.05250000 0.05249300 37116.20436407 0 -348.63318433 0 7835.37494721 0 285.63608504 0 -6524.04630197 0 3055
0.05350000 0.05348950 38087.02580417 0 223.03758945 0 7932.76711632 0 79.05163811 0 -8995.42241846 0 3009
0.05450000 0.05448610 37414.60351794 0 897.06868448 0 8481.11293064 0 3392.30566096 0 -7218.44715297 0 3336
0.05550000 0.05550870 36349.88876337 0 1091.95488808 0 8125.27055562 0 549.12530599 0 -9028.87191174 0 3349
0.05650000 0.05647670 35280.74507889 0 682.39070027 0 9824.48488391 0 153.93078133 0 -6759.42178296 0 3324
0.05750000 0.05747970 35638.82406352 0 624.70942413 0 11004.46253983 0 -2795.93917391 0 -5292.42732309 0 3639
0.05850000 0.05849280 35063.39534270 0 538.50583925 0 11270.18726316 0 224.79033847 0 -4387.26476917 0 3846
0.05950000 0.05951020 34482.87335245 0 1181.69386627 0 11105.20962336 0 109.76881379 0 -3353.97327244 0 3787
0.06050000 0.06049470 33496.32921111 0 1345.73035846 0 10642.66325406 0 881.82430767 0 -4992.50018840 0 3930
0.06150000 0.06148310 32843.06204681 0 654.91804793 0 11897.43446413 0 1615.78436079 0 -4809.20892335 0 4083
0.06250000 0.06249100 31811.01065047 0 1019.85633779 0 10841.32290595 0 -134.25968905 0 -3653.59038203 0 4303
0.06350000 0.06350600 31762.40314451 0 -711.78550820 0 10787.12387597 0 539.60089218 0 -4672.31069930 0 4470
0.06450000 0.06451750 32158.34948003 0 -510.43417414 0 11454.09857839 0 -696.88658792 0 -3306.62801152 0 4479
0.06550000 0.06550280 32496.49827999 0 1343.61554442 0 11088.04751989 0 542.81961700 0 -3261.74080670 0 4636
0.06650000 0.06648880 31699.95523254 0 760.02541297 0 10350.24315560 0 233.64819832 0 -2173.89596559 0 4653
0.06750000 0.06749660 30514.66286070 0 533.34059972 0 9145.36384116 0 1501.79477678 0 -3502.51958221 0 5220
0.06850000 0.06852730 30890.90045804 0 237.76821039 0 8626.79150828 0 871.20484094 0 -3528.93814922 0 5029
0.06950000 0.06949320 29870.14283301 0 3.15410674 0 8308.87184576 0 684.27188826 0 -4559.74944519 0 5040
0.07050000 0.07048030 29363.25180281 0 717.68927179 0 5218.61920585 0 457.91038690 0 -4485.85274935 0 5475
0.07150000 0.07148790 29540.85189290 0 434.08717282 0 7218.38071902 0 951.01637270 0 -2591.83193820 0 5509
0.07250000 0.07249820 28808.63905264 0 365.20181119 0 5207.80154450 0 1164.19959306 0 -3042.01052067 0 5916
0.07350000 0.07351270 28248.82230981 0 481.29735138 0 5580.75066137 0 1609.25168914 0 -2789.00789857 0 5721
0.07450000 0.07449140 27690.11279946 0 1115.58101478 0 5321.28180157 0 646.17201856 0 -909.04783270 0 6028
0.07550000 0.07549160 26594.06336567 0 1198.81168044 0 6871.92767544 0 1183.19970245 0 838.10523313 0 6183
0.07650000 0.07648840 25946.33236377 0 193.03048196 0 7228.78870435 0 985.29186140 0 1644.48382671 0 6330
0.07750000 0.07749960 25518.38700953 0 475.64050063 0 7210.75188722 0 468.87973910 0 2535.14163513 0 6583
0.07850000 0.07848650 25233.27464545 0 510.34670277 0 7476.69805704 0 -33.12108812 0 1784.06155338 0 6549
0.07950000 0.07947320 24500.61891220 0 836.27497783 0 6621.03986738 0 -799.77616630 0 1764.85106982 0 6828
0.08050000 0.08048110 24236.21179553 0 861.57413281 0 7385.82748725 0 -469.58283172 0 1298.62868868 0 7147
0.08150000 0.08149960 23822.88191005 0 21.83285297 0 6195.98438992 0 81.09514637 0 278.21319849 0 7386
0.08250000 0.08250610 23193.30952087 0 733.29349916 0 6491.31650980 0 -420.74059248 0 -1256.06667208 0 7227
0.08350000 0.08350160 22652.64789997 0 1059.81414360 0 6438.68974994 0 -852.41953465 0 -2306.74171877 0 7798
0.08450000 0.08449610 22432.19791283 0 137.28464819 0 6386.55017237 0 614.59596264 0 -1027.05888509 0 7371
0.08550000 0.08548940 22116.63665550 0 -168.36244949 0 6179.53091524 0 530.76960590 0 -370.12567404 0 8256
0.08650000 0.08650700 22517.45481394 0 -229.71309408 0 6481.77216581 0 1369.31441032 0 -1303.31228208 0 8037
0.08750000 0.08749060 22643.12570063 0 33.01479380 0 6487.21974962 0 567.80763965 0 -1013.44546172 0 8155
0.08850000 0.08849210 22151.62520193 0 571.56780116 0 7251.05514956 0 706.51397435 0 371.81420357 0 8718
0.08950000 0.08949900 21608.74911607 0 1000.45319578 0 5983.53969362 0 -70.18237376 0 1470.27186802 0 8571
0.09050000 0.09049190 20733.37111591 0 800.81475037 0 6303.38594066 0 530.74856848 0 -509.39005391 0 8932
0.09150000 0.09150830 19757.12423665 0 885.74944682 0 6276.69056552 0 10.78415649 0 498.36312562 0 9285
0.09250000 0.09250820 19064.10742625 0 1017.29309460 0 6476.55710082 0 145.28883181 0 362.12481212 0 9204
0.09350000 0.09350330 18511.15552481 0 182.56824224 0 5858.30062760 0 -268.36879449 0 1261.21530312 0 9349
0.09450000 0.09448040 18637.82292073 0 -113.07500998 0 7044.64487029 0 528.75665725 0 1716.58680593 0 9564
0.09550000 0.09549270 18560.09520050 0 49.67122420 0 6927.80969880 0 13.85978259 0 1724.90212187 0 10155
0.09650000 0.09649430 18504.95502291 0 314.05652839 0 6728.49677974 0 968.68226694 0 2625.12641893 0 9913
0.09750000 0.09749140 18408.29362724 0 -55.03022941 0 6901.43542109 0 1068.69304087 0 3104.54701125 0 10476
0.09850000 0.09850240 18569.28523010 0 380.29892608 0 6601.95117939 0 1075.57338351 0 3098.72296840 0 10575
0.09950000 0.09950330 18050.54681235 0 563.49164744 0 6667.99759693 0 361.88786437 0 3498.09065228 0 10882
0.10050000 0.10051200 17486.07969310 0 427.94203254 0 5839.18979496 0 -157.54146645 0 2728.07689509 0 10875
0.10150000 0.10150300 17125.34335050 0 372.76199458 0 5922.95193221 0 184.51143524 0 3269.19248130 0 11118
0.10250000 0.10250800 16962.58017567 0 255.70426936 0 5812.62728772 0 65.47276039 0 2130.24886116 0 11575
0.10350000 0.10349800 16710.24189305 0 234.40554534 0 5479.17315348 0 486.03519917 0 1919.81932798 0 11364
0.10450000 0.10450100 16221.73092205 0 502.50971127 0 5713.82893336 0 78.08878874 0 1764.30852590 0 12093
0.10550000 0.10551000 16128.16977734 0 402.74363572 0 5151.21089235 0 334.07418443 0 1891.58489969 0 12067
0.10650000 0.10649700 15783.82047548 0 61.03198308 0 5028.79526916 0 285.48660866 0 793.65759961 0 12054
0.10750000 0.10749900 15572.56051794 0 -8.76922589 0 4916.12329180 0 -45.73102669 0 1240.77579150 0 12807
0.10850000 0.10850100 15280.47258922 0 168.87066920 0 4809.48573148 0 354.53584069 0 494.24422079 0 12736
0.10950000 0.10950300 15489.40735855 0 283.35629336 0 4681.65574144 0 312.19637782 0 928.29153324 0 12933
0.11050000 0.11050200 15161.66654392 0 -74.59081988 0 4358.31063977 0 92.11033800 0 357.77117401 0 13428
0.11150000 0.11150900 15276.92944528 0 309.17031145 0 5008.38897452 0 -495.59393719 0 23.03519672 0 13453
0.11250000 0.11250000 14970.22604780 0 368.84903499 0 5443.23238712 0 -692.92158841 0 849.73338865 0 13668
0.11350000 0.11349100 15026.80562763 0 250.31315441 0 5981.95635117 0 -463.87061935 0 1463.77241335 0 13791
0.11450000 0.11448600 14913.53574473 0 -70.22832390 0 6106.52000538 0 448.81336483 0 2063.89241852 0 14205
0.11550000 0.11549300 14939.44498481 0 -140.03722814 0 6075.94931656 0 898.35639586 0 1235.81538998 0 14776
0.11650000 0.11649800 15141.18274300 0 99.72942615 0 6178.60083995 0 1155.00956346 0 1739.07469764 0 14553
0.11750000 0.11747300 14952.95322109 0 328.25567774 0 5294.54213713 0 737.99702274 0 1624.04431510 0 14568
0.11850000 0.11849100 14759.40898326 0 -19.37213950 0 4505.48398125 0 332.31479201 0 1722.56586134 0 16015
0.11950000 0.11950300 14520.35749042 0 126.92981002 0 3745.96678799 0 494.07592145 0 1527.20576224 0 15270
0.12050000 0.12050700 14476.73253064 0 365.73328278 0 3537.17595889 0 188.82964192 0 1049.55452742 0 15999
0.12150000 0.12150000 13967.40558898 0 31.81355729 0 3072.16046116 0 40.23184584 0 513.79462472 0 15670
0.12250000 0.12250700 13910.16166967 0 200.37032608 0 3385.34116865 0 -46.05090615 0 262.42517053 0 16887
0.12350000 0.12352200 13825.67983130 0 275.21259846 0 3317.40138356 0 -467.64074595 0 -173.50222268 0 16407
0.12450000 0.12449800 13577.32758562 0 255.94121711 0 3679.54391141 0 -88.98428853 0 -123.88492070 0 16306
0.12550000 0.12549900 13480.11257371 0 220.15324883 0 3595.29459186 0 -160.09474455 0 728.74830982 0 17523
0.12650000 0.12650100 13394.96639585 0 236.64104772 0 3856.39108341 0 -278.89414646 0 -1.19808091 0 17154
0.12750000 0.12750600 13498.27118641 0 113.28649138 0 4246.02619378 0 402.67609454 0 289.50143364 0 18007
0.12850000 0.12850300 12905.90180861 0 181.39457581 0 4500.00318047 0 -149.42545236 0 69.05908640 0 17496
0.12950000 0.12949900 12933.36117416 0 385.83508849 0 3890.48277153 0 318.52974762 0 487.83888088 0 18405
0.13050000 0.13049000 12485.81780499 0 176.79291761 0 4218.91007030 0 610.76493825 0 509.62035827 0 18100
0.13150000 0.13148800 12529.22131828 0 100.92667663 0 3763.31712099 0 371.33698637 0 65.16229241 0 19059
0.13250000 0.13249300 12565.53854369 0 164.84698636 0 3691.51309454 0 399.15841694 0 169.52725807 0 18957
0.13350000 0.13349100 12317.07557476 0 91.49571325 0 3510.49165608 0 52.19106388 0 735.46699652 0 19468
0.13450000 0.13450700 12074.59166123 0 33.47119503 0 3285.90061946 0 433.95762662 0 1072.67354164 0 19953
0.13550000 0.13551000 12344.64566356 0 -226.75346166 0 3243.71506190 0 319.75545397 0 661.43411109 0 19956
0.13650000 0.13649900 12380.18782622 0 -74.78237110 0 3208.09539295 0 297.18894876 0 306.26161172 0 19723
0.13750000 0.13749600 12444.73947992 0 313.54941591 0 3430.17301184 0 -337.48999663 0 444.37336257 0 20946
0.13850000 0.13851100 12091.31087171 0 405.27809087 0 3595.00671142 0 -695.30324547 0 810.83077540 0 20955
0.13950000 0.13949800 11835.31872190 0 440.91326107 0 3850.76634240 0 -487.08928449 0 614.63360854 0 20506
0.14050000 0.14048300 11483.21879267 0 399.86261680 0 3699.24157726 0 24.70102799 0 686.36123595 0 21447
0.14150000 0.14148400 11354.44765503 0 188.29927756 0 3786.52471381 0 107.69275288 0 358.61267069 0 21771
0.14250000 0.14249400 11076.53230208 0 125.25346005 0 3658.26290311 0 538.52466220 0 -163.01340938 0 22470
0.14350000 0.14350900 10978.61973371 0 138.81705795 0 2930.27969093 0 473.77259943 0 -18.86126244 0 22519
0.14450000 0.14449900 10792.67111070 0 -1.76439710 0 3009.09249899 0 325.24843432 0 -265.38701742 0 22218
0.14550000 0.14550500 10481.66057887 0 201.90052137 0 2576.14245393 0 581.18190080 0 29.07293545 0 23559
0.14650000 0.14650700 10507.01620271 0 243.44166963 0 2475.51716598 0 336.78358231 0 167.86751658 0 23044
0.14750000 0.14750500 10212.95740017 0 176.88149621 0 2014.76451330 0 451.02782979 0 795.48231874 0 23649
0.14850000 0.14849900 10321.83157011 0 71.55667071 0 2572.74325021 0 8.43281545 0 342.66409402 0 23640
0.14950000 0.14949500 10067.50026903 0 144.57023792 0 2508.50162161 0 -295.68421982 0 482.97370136 0 24457
0.15050000 0.15050000 10085.29349501 0 289.51582766 0 2934.75291016 0 -239.71361786 0 952.44027367 0 24591
0.15150000 0.15149900 9859.96061263 0 141.50098948 0 2801.51962561 0 -128.45004022 0 725.82743053 0 25020
0.15250000 0.15250500 9949.63537133 0 -128.34706760 0 3137.31002039 0 280.75097533 0 798.53717315 0 25297
0.15350000 0.15350100 9863.81378167 0 113.07833168 0 3109.05344745 0 364.10343657 0 576.53152438 0 25452
0.15450000 0.15450400 9730.27047203 0 295.49820476 0 2992.20720364 0 31.06119281 0 623.41839105 0 26061
0.15550000 0.15549900 9459.34175604 0 332.19078198 0 2895.73403750 0 139.03739721 0 520.36272780 0 26128
0.15650000 0.15649500 9209.62761441 0 247.91378162 0 2743.47849891 0 -82.59821447 0 620.12326719 0 26331
0.15750000 0.15749700 9030.92029183 0 161.16986729 0 2664.96464363 0 -137.22375041 0 583.35096923 0 27345
0.15850000 0.15849900 9090.85478608 0 -57.97269973 0 2467.58938141 0 48.50530840 0 -3.35516908 0 26980
0.15950000 0.15949700 9074.04699700 0 -109.49255928 0 2334.83220683 0 38.49880556 0 -32.99486362 0 27777
0.16050000 0.16050000 9154.00025452 0 4.39854747 0 2211.35364046 0 97.14005227 0 -827.65628019 0 28224
0.16150000 0.16150500 9020.06941351 0 238.74257497 0 2236.36602222 0 -91.00997036 0 -566.87202821 0 28075
0.16250000 0.16249700 8909.83334762 0 278.78342321 0 2332.78382674 0 -89.36716952 0 -323.11479732 0 28590
0.16350000 0.16349900 8737.20473137 0 119.71286871 0 2378.20250315 0 221.89271106 0 -197.47491314 0 29163
0.16450000 0.16449100 8744.45710412 0 -9.07130106 0 2554.62892681 0 247.43324272 0 181.20302459 0 28996
0.16550000 0.16550500 8761.66349689 0 -38.81015934 0 2454.72333997 0 267.75206600 0 166.26092224 0 30777
0.16650000 0.16650700 8800.25054889 0 59.86728523 0 2597.52311316 0 164.33876666 0 449.82205362 0 29211
0.16750000 0.16749900 8759.07257289 0 80.86794227 0 2567.04100293 0 116.28044801 0 528.48206359 0 30922
0.16850000 0.16850800 8653.34294319 0 80.90935276 0 2578.09118310 0 17.96263255 0 469.10007836 0 30867
0.16950000 0.16949900 8715.58048100 0 62.54479482 0 2381.95602126 0 33.65089887 0 101.29516360 0 30852
0.17050000 0.17049200 8525.53509781 0 26.42288522 0 2400.72361183 0 -88.09584519 0 179.63850509 0 31257
0.17150000 0.17149500 8573.23467313 0 125.04308587 0 2597.68919803 0 22.48933111 0 190.81601699 0 32608
0.17250000 0.17250900 8371.62978283 0 183.07978364 0 2412.49349311 0 95.60465299 0 133.24435687 0 32361
0.17350000 0.17350400 8234.05614696 0 205.53335114 0 2354.34164316 0 199.76909884 0 201.60710476 0 32508
0.17450000 0.17449800 8154.23575734 0 169.05889873 0 2331.76517286 0 183.03770881 0 159.79247009 0 32791
0.17550000 0.17549800 7964.58897785 0 159.10487871 0 2328.13345032 0 172.72605271 0 580.54856382 0 33633
0.17650000 0.17650100 7895.22086286 0 53.17949032 0 1978.72409602 0 162.68456133 0 225.75584519 0 33984
0.17750000 0.17750300 7828.65404605 0 3.18577359 0 1827.89688734 0 235.87595008 0 474.84218601 0 34069
0.17850000 0.17849800 7764.57850232 0 112.46160318 0 1700.02260801 0 158.72399074 0 60.79326376 0 34536
