### header ###
fiducial parameters:
Omega_m = 0.31
Omega_nu = 0
Omega_de = 0.69
Omega_k = 0
H_0 = 100
w_de = -1
zeff = 0
beta = 0
fgrowth = 0
b_1 = 2
gamma = 0.55
Lx = 3500 Ly = 3500 Lz = 3500
nx = 700 ny = 700 nz = 700
xoffset = -685.467585 yoffset = -31.7331281 zoffset = 572.489161
bins = 400 dk = 0.001
kx_ny = 0.628318531 ky_ny = 0.628318531 kz_ny = 0.628318531
############################
A(data) = 8.03322315 (not used)
A(ran) = 8.03526216 (used)
Ngal = 477916
weighted Ngal = 0
Nran = 23820508
weighted Nran = 0
SN(data) = 3484.95769
SN(ran) = 69.9900476
SN(data+ran) = 3554.94774
############################
13 columns: k_central k_mean P_0(k) sigma^{lin}_{P_0(k)} P^img_1(k) sigma^{lin}_{P_1(k)} P_2(k) sigma^{lin}_{P_2(k)} P^img_3(k) sigma^{lin}_{P_3(k)} P_4(k) sigma^{lin}_{P_4(k)} N_modes
### header ###
0.00050000 0 0 0 0 0 0 0 0 0 0 0 0
0.00150000 0.00179520 50380.84949681 0 -53144.83394129 0 -17072.41763787 0 -42927.07115215 0 23774.05295760 0 3
0.00250000 0.00253879 82244.23224367 0 -42751.57480377 0 -13130.00566294 0 -71462.99884451 0 -20469.96050847 0 6
0.00350000 0.00331552 90721.86846432 0 -17686.59949556 0 -26178.85118497 0 27368.12959374 0 54742.45968937 0 7
0.00450000 0.00420575 93976.24617501 0 1391.93516993 0 9891.92641438 0 -31799.60615590 0 36624.48241888 0 24
0.00550000 0.00557378 76299.61177179 0 24423.11263847 0 23055.90196987 0 5400.52643029 0 8223.01703912 0 45
0.00650000 0.00659388 62675.89114518 0 28243.17542415 0 74130.32189332 0 6533.92281571 0 29545.61299257 0 40
0.00750000 0.00754703 46169.04785905 0 6136.95782631 0 36485.96763540 0 20420.13504679 0 23576.85485258 0 57
0.00850000 0.00846663 50697.29654013 0 -11852.14865562 0 58742.77992310 0 47791.47561472 0 36452.52921444 0 75
0.00950000 0.00948925 60230.12531599 0 -7701.83163758 0 51090.58551769 0 16767.92870536 0 7199.48026055 0 112
0.01050000 0.01054430 69910.10528869 0 -2765.31312346 0 49469.70788749 0 28767.56072757 0 21275.58286228 0 105
0.01150000 0.01145670 68873.18206943 0 4645.26100977 0 29538.08381170 0 -2511.04825632 0 14490.24076691 0 144
0.01250000 0.01249090 69739.59148648 0 4613.49450986 0 27424.59845031 0 -3239.49650614 0 6501.80200141 0 169
0.01350000 0.01339930 64142.53129066 0 -1773.84179757 0 20613.67928462 0 8599.32107040 0 -14829.60752261 0 180
0.01450000 0.01448870 67930.81650411 0 2951.00708299 0 20953.48893330 0 -5902.62314385 0 -13402.16340699 0 267
0.01550000 0.01550050 66777.41242775 0 5681.64168512 0 28676.76766405 0 1968.92508855 0 -13931.75270306 0 238
0.01650000 0.01653350 63427.36983062 0 -4338.86763738 0 19516.41189509 0 1002.04761055 0 -15653.94210535 0 315
0.01750000 0.01747870 71994.58115905 0 -3318.44218210 0 8675.75332862 0 6408.93841315 0 -12296.03815760 0 297
0.01850000 0.01844180 71179.10443616 0 -4499.03988821 0 11259.66855458 0 22835.89487572 0 -1249.63365136 0 388
0.01950000 0.01947590 78098.64310832 0 -11852.37010212 0 -221.58711490 0 20440.39740121 0 -7965.58548708 0 399
0.02050000 0.02045430 79620.31270815 0 -4231.20035085 0 -8327.67265330 0 17551.29568628 0 -10090.90716370 0 462
0.02150000 0.02154770 83691.71726721 0 357.42128854 0 -17610.42190081 0 766.77731664 0 -10363.51887306 0 571
0.02250000 0.02255340 68721.93411240 0 8617.80078052 0 -10633.21856099 0 -10120.35954771 0 2715.02262413 0 510
0.02350000 0.02348930 73145.66004720 0 8627.53335404 0 -11008.08319005 0 -15110.06951026 0 -3681.66979777 0 555
0.02450000 0.02439640 66703.00640497 0 1361.01016671 0 -4836.76793983 0 -17151.36331383 0 -9703.75225409 0 592
0.02550000 0.02547300 63741.38096248 0 3839.47257109 0 12761.96158597 0 -18092.95381641 0 -12553.80187938 0 837
0.02650000 0.02652900 62320.58024175 0 5630.04465146 0 19337.81529577 0 -11530.16544990 0 -381.79701163 0 723
0.02750000 0.02749970 64065.68935642 0 3478.65872222 0 29127.74345392 0 -3317.99928910 0 2498.16007023 0 826
0.02850000 0.02848090 59421.73488098 0 1960.83121911 0 27274.56844902 0 1793.68340365 0 9469.00789561 0 831
0.02950000 0.02946900 60036.02746192 0 -396.21982194 0 34185.91360082 0 9760.60864203 0 5205.85281533 0 996
0.03050000 0.03053250 64445.69154419 0 -1234.98496562 0 29937.68401440 0 10585.75150449 0 5601.82129550 0 1041
0.03150000 0.03150510 60444.59624773 0 -175.90713163 0 30541.34716351 0 4095.67509507 0 12709.70021283 0 1036
0.03250000 0.03246190 59903.60245709 0 4725.70144957 0 29125.75043545 0 2397.13617859 0 9379.55458340 0 1059
0.03350000 0.03345080 57262.29937160 0 3149.56708396 0 28819.71137746 0 3593.78875569 0 13598.25427952 0 1302
0.03450000 0.03451200 53335.27792817 0 4282.48735941 0 28429.52265085 0 1841.73729336 0 9175.15946725 0 1339
0.03550000 0.03553350 51148.82594623 0 2841.66787541 0 25395.15203430 0 10879.66636680 0 12825.29528393 0 1365
0.03650000 0.03647120 48529.99968013 0 -924.78382074 0 24678.32972554 0 6094.89406432 0 10012.71440583 0 1308
0.03750000 0.03744890 50577.93687858 0 -824.79851316 0 19798.97762446 0 7658.68278776 0 5950.43344241 0 1579
0.03850000 0.03847530 47305.51127843 0 1650.40752049 0 16472.18690945 0 2020.57748383 0 3517.69973953 0 1662
0.03950000 0.03950240 47789.70404275 0 3985.83763287 0 17546.31314011 0 -1850.29620044 0 6482.29256508 0 1683
0.04050000 0.04050350 44924.96144242 0 640.53841969 0 18298.67761154 0 -4323.58782913 0 5221.03297266 0 1822
0.04150000 0.04152450 45520.87396416 0 -2233.37649452 0 16230.36733541 0 1525.17952679 0 2309.64266787 0 1887
0.04250000 0.04250150 48520.47748078 0 -2273.23686387 0 15758.02195865 0 7005.83637180 0 899.99731440 0 1920
0.04350000 0.04349210 49421.98616752 0 -512.19467379 0 13999.07243796 0 5925.78644737 0 1069.62643785 0 2005
0.04450000 0.04448520 46756.43469068 0 3515.13096018 0 13520.52655930 0 574.73670052 0 -311.35155944 0 2151
0.04550000 0.04548030 44413.19858931 0 4610.87036888 0 11163.00715891 0 651.60077941 0 3018.27145626 0 2274
0.04650000 0.04648670 40947.33947457 0 1953.03630244 0 11487.64772259 0 325.84523262 0 6604.44245248 0 2311
0.04750000 0.04749250 39532.07491625 0 280.28372323 0 12004.61456838 0 1295.27377426 0 2743.87710261 0 2568
0.04850000 0.04851840 40373.79304897 0 634.07328923 0 15165.43113436 0 -1665.28872505 0 3107.09364596 0 2493
0.04950000 0.04949480 39425.11625851 0 1553.46931671 0 16821.07586449 0 -2502.29004739 0 1353.97924045 0 2644
0.05050000 0.05050630 39080.54551015 0 1015.53370218 0 17369.48811276 0 -1791.41357706 0 3674.25134014 0 2829
0.05150000 0.05149060 37605.93329080 0 435.97943313 0 16954.71882505 0 37.87310849 0 1011.98059315 0 2784
0.05250000 0.05249300 38608.08941014 0 332.94812899 0 19101.64260738 0 820.33747349 0 -1753.62373245 0 3055
0.05350000 0.05348950 37881.63417879 0 710.70706376 0 19238.27509565 0 1273.57201762 0 1873.16055119 0 3009
0.05450000 0.05448610 37600.28640514 0 -155.93265765 0 18202.79127861 0 1381.25037648 0 221.65133438 0 3336
0.05550000 0.05550870 37345.18004132 0 500.51226387 0 16584.79245286 0 1461.28114027 0 -570.51814477 0 3349
0.05650000 0.05647670 36440.46038039 0 1648.45879132 0 15464.49462771 0 2957.75012880 0 174.55077184 0 3324
0.05750000 0.05747970 34900.41072137 0 446.45938857 0 11961.54322483 0 165.14040297 0 -89.95001670 0 3639
0.05850000 0.05849280 34792.45555438 0 -144.89354981 0 10473.42276921 0 2491.30630117 0 -423.62493310 0 3846
0.05950000 0.05951020 34591.82502867 0 543.27358232 0 9264.39133296 0 2686.55567702 0 -4948.69807142 0 3787
0.06050000 0.06049470 34379.34711540 0 470.85282738 0 9840.70583977 0 -449.42898609 0 -3384.37787639 0 3930
0.06150000 0.06148310 34261.53757933 0 270.52568336 0 9086.32620523 0 488.41132008 0 -4098.29923605 0 4083
0.06250000 0.06249100 34001.00577635 0 -321.43512565 0 10104.07215791 0 597.82581947 0 -1026.96477032 0 4303
0.06350000 0.06350600 34134.64873691 0 6.67306872 0 9461.48978706 0 504.60902405 0 -1395.54474782 0 4470
0.06450000 0.06451750 34590.82851944 0 310.98838718 0 11064.47454035 0 125.26010344 0 -1671.81032437 0 4479
0.06550000 0.06550280 34643.42206233 0 1345.75250311 0 12288.73042322 0 -777.52522234 0 -547.00052685 0 4636
0.06650000 0.06648880 32480.55413225 0 2174.20599069 0 11872.41101004 0 -2052.05610329 0 1571.62792941 0 4653
0.06750000 0.06749660 31401.66680192 0 1454.47166050 0 13945.81455558 0 -154.92729056 0 1242.89060554 0 5220
0.06850000 0.06852730 30455.31519967 0 -34.57322352 0 14095.84455687 0 1208.38924141 0 697.72144121 0 5029
0.06950000 0.06949320 30460.74063883 0 598.70828376 0 14206.12491207 0 2084.09941131 0 530.27799468 0 5040
0.07050000 0.07048030 29208.68214834 0 1273.72703016 0 13342.37285297 0 1564.99560684 0 1307.91836920 0 5475
0.07150000 0.07148790 29233.04126294 0 439.34652711 0 13166.98722784 0 1066.65351864 0 -291.28297070 0 5509
0.07250000 0.07249820 28797.45600458 0 -56.18108685 0 12276.44014267 0 651.84658503 0 1239.72392064 0 5916
0.07350000 0.07351270 28095.02771808 0 1136.55199798 0 12422.59483028 0 122.95152372 0 81.51213013 0 5721
0.07450000 0.07449140 27729.19810607 0 1532.35439328 0 10987.76547401 0 -1075.18142321 0 1040.15190918 0 6028
0.07550000 0.07549160 25706.28436171 0 877.70651007 0 11490.63725029 0 863.37117113 0 620.51190579 0 6183
0.07650000 0.07648840 25296.60834342 0 343.55873787 0 10396.54761799 0 1979.21127831 0 25.25564074 0 6330
0.07750000 0.07749960 24998.76280580 0 -542.74653966 0 9883.61109844 0 2417.60890718 0 -1069.15032788 0 6583
0.07850000 0.07848650 25471.77252205 0 22.56960546 0 8949.79336789 0 2128.46621686 0 -955.41540735 0 6549
0.07950000 0.07947320 25146.91051187 0 266.23183580 0 8987.38391065 0 431.27369508 0 -1192.03541765 0 6828
0.08050000 0.08048110 24795.80709187 0 545.65745385 0 8247.52009394 0 598.62634855 0 246.93609534 0 7147
0.08150000 0.08149960 24503.38699341 0 742.89763371 0 8898.92710767 0 -280.37119459 0 609.54033913 0 7386
0.08250000 0.08250610 23794.42603527 0 399.34111030 0 8731.79036453 0 610.05188053 0 804.99787468 0 7227
0.08350000 0.08350160 23719.57711950 0 -357.90736360 0 8731.12602504 0 -72.90893374 0 102.71507854 0 7798
0.08450000 0.08449610 23502.78099955 0 474.56205619 0 8460.47411718 0 -367.10182213 0 -2508.11409024 0 7371
0.08550000 0.08548940 23299.60383913 0 836.99135725 0 8675.41008656 0 -567.44003847 0 -1100.41414424 0 8256
0.08650000 0.08650700 22580.23489566 0 772.41755891 0 7656.28009327 0 -118.42737180 0 -1133.79498910 0 8037
0.08750000 0.08749060 21967.71388669 0 -52.41926450 0 7525.19483974 0 1261.31495404 0 -782.75578859 0 8155
0.08850000 0.08849210 22261.01977114 0 -544.02982210 0 6994.28793702 0 1456.91864429 0 -1530.08456669 0 8718
0.08950000 0.08949900 22686.86138366 0 -80.17226810 0 7558.41181420 0 991.06164987 0 -1480.45840685 0 8571
0.09050000 0.09049190 22037.02664006 0 952.81341101 0 7184.01222278 0 401.68955040 0 -789.67156267 0 8932
0.09150000 0.09150830 21516.29520383 0 1196.39791363 0 7244.02422330 0 -1097.37257661 0 -304.73363089 0 9285
0.09250000 0.09250820 20603.60346903 0 980.01811309 0 8307.50994981 0 -1349.46173192 0 618.32512164 0 9204
0.09350000 0.09350330 19822.89384607 0 559.64955073 0 8137.89300591 0 -6.48721975 0 -409.03160899 0 9349
0.09450000 0.09448040 19615.17703247 0 413.49486312 0 8879.72769643 0 395.70717330 0 -427.45927918 0 9564
0.09550000 0.09549270 19300.94445412 0 -119.74830015 0 7824.81194934 0 807.27213020 0 -952.61632363 0 10155
0.09650000 0.09649430 19214.13742754 0 267.30252961 0 7167.10478278 0 1072.99242460 0 -750.76341326 0 9913
0.09750000 0.09749140 19192.65711739 0 208.01244467 0 7051.62043493 0 1081.43396504 0 -554.34590714 0 10476
0.09850000 0.09850240 18689.19850789 0 481.43796990 0 6342.81448934 0 873.67729107 0 -263.73724102 0 10575
0.09950000 0.09950330 18270.55390650 0 556.06986811 0 6616.20126143 0 299.22072036 0 -620.32810520 0 10882
0.10050000 0.10051200 17473.12507306 0 761.79809217 0 6838.19030172 0 -868.87743826 0 -637.21229331 0 10875
0.10150000 0.10150300 17197.64563157 0 703.17013226 0 7287.69347238 0 -444.10651955 0 -305.91836965 0 11118
0.10250000 0.10250800 16786.41948781 0 430.21185913 0 7709.88121772 0 -335.48479861 0 -543.44852505 0 11575
0.10350000 0.10349800 16256.49802198 0 203.02768404 0 7446.26023611 0 -58.57791301 0 -266.49314267 0 11364
0.10450000 0.10450100 16565.63733092 0 -7.51817499 0 7228.36795601 0 1086.45526434 0 -464.36444503 0 12093
0.10550000 0.10551000 16083.43758507 0 110.55616680 0 6929.00550988 0 1239.82357157 0 -556.70099063 0 12067
0.10650000 0.10649700 16038.81611605 0 442.51985540 0 5899.36788035 0 1064.53759736 0 -258.15900377 0 12054
0.10750000 0.10749900 15493.17194899 0 216.42408984 0 5384.09510026 0 1783.09826112 0 643.41058075 0 12807
0.10850000 0.10850100 15320.00078882 0 126.70061290 0 4743.40609696 0 1059.13319562 0 486.16142367 0 12736
0.10950000 0.10950300 14932.58014342 0 271.76689098 0 4074.25014654 0 1193.69626637 0 554.52638603 0 12933
0.11050000 0.11050200 14848.09830505 0 281.69212294 0 3755.10145597 0 140.46794158 0 -251.30634194 0 13428
0.11150000 0.11150900 14278.87008613 0 106.98622784 0 3381.35513172 0 -416.76673510 0 529.64244323 0 13453
0.11250000 0.11250000 14540.06622860 0 117.93908227 0 3886.35279437 0 -571.14262389 0 444.12977143 0 13668
0.11350000 0.11349100 14545.38094451 0 -88.89039522 0 3883.93902756 0 -168.43995577 0 252.96054727 0 13791
0.11450000 0.11448600 14747.22942596 0 -41.46087390 0 4404.65939146 0 -323.25984478 0 29.40898050 0 14205
0.11550000 0.11549300 14726.85634829 0 278.43243052 0 5025.26319754 0 -174.60945516 0 -103.18897404 0 14776
0.11650000 0.11649800 14499.76296626 0 502.50417510 0 5328.53417432 0 -660.97239514 0 452.54584552 0 14553
0.11750000 0.11747300 14143.89844659 0 381.03412845 0 5599.01999732 0 45.35412475 0 781.36067566 0 14568
0.11850000 0.11849100 13988.55372938 0 10.14455258 0 5240.85243409 0 793.92222817 0 1283.63676088 0 16015
0.11950000 0.11950300 14076.57871169 0 -251.78688084 0 4839.76853985 0 860.27424188 0 155.84740075 0 15270
0.12050000 0.12050700 14194.60969426 0 -87.04441722 0 4387.14297359 0 569.37326638 0 7.92898038 0 15999
0.12150000 0.12150000 13964.74823102 0 362.40162024 0 4027.14847676 0 -208.19070910 0 -522.65802074 0 15670
0.12250000 0.12250700 13767.77157250 0 534.37918379 0 4334.83731115 0 -364.69248425 0 357.22309393 0 16887
0.12350000 0.12352200 13526.17344495 0 68.24493836 0 4287.24845908 0 -191.98193280 0 275.32775064 0 16407
0.12450000 0.12449800 13561.16199138 0 -21.52183137 0 4988.40342822 0 434.60867932 0 531.76279344 0 16306
0.12550000 0.12549900 13656.60543132 0 65.87446434 0 4934.60300193 0 343.54766554 0 1251.00661963 0 17523
0.12650000 0.12650100 13571.56997671 0 197.23575092 0 5271.34561664 0 800.87564815 0 1192.55581692 0 17154
0.12750000 0.12750600 13255.12293339 0 139.80913825 0 4954.58854822 0 385.89930797 0 2279.20484694 0 18007
0.12850000 0.12850300 13261.76632829 0 369.07491041 0 5028.87277543 0 547.63940000 0 2246.55256105 0 17496
0.12950000 0.12949900 12962.81355818 0 -9.97904347 0 4388.34985700 0 623.50586242 0 1872.45192241 0 18405
0.13050000 0.13049000 12768.60498086 0 170.01001143 0 4185.39414307 0 -148.06134194 0 2002.06455673 0 18100
0.13150000 0.13148800 12867.81301124 0 115.82980439 0 3606.97589455 0 107.00626874 0 1145.87489548 0 19059
0.13250000 0.13249300 12625.66126745 0 -66.41291149 0 3923.62223971 0 -278.12904882 0 1396.86235447 0 18957
0.13350000 0.13349100 12679.36204282 0 225.49675279 0 3780.88890047 0 -597.09836773 0 663.41605723 0 19468
0.13450000 0.13450700 12553.13753989 0 463.18081351 0 4488.03399734 0 -281.50942958 0 278.53651037 0 19953
0.13550000 0.13551000 12170.14582442 0 368.01307446 0 4486.80496929 0 -390.16326026 0 670.38719293 0 19956
0.13650000 0.13649900 11803.31970317 0 111.49720369 0 4763.96740415 0 349.82124479 0 231.27429188 0 19723
0.13750000 0.13749600 12042.81408900 0 -50.61979027 0 4419.79525948 0 598.54552058 0 125.29221318 0 20946
0.13850000 0.13851100 11988.22752764 0 20.04212588 0 4178.28571054 0 640.89384132 0 -183.46399332 0 20955
0.13950000 0.13949800 11795.23690606 0 112.44278023 0 3897.20367269 0 262.71083651 0 389.54321007 0 20506
0.14050000 0.14048300 11753.82641123 0 278.31506387 0 3693.09643699 0 153.38380848 0 -49.21382646 0 21447
0.14150000 0.14148400 11394.30802437 0 320.44636704 0 3626.67356040 0 106.97626274 0 259.81763803 0 21771
0.14250000 0.14249400 11170.75778628 0 329.52456616 0 3333.71091802 0 -27.26249961 0 -131.36316888 0 22470
0.14350000 0.14350900 10799.10413142 0 187.19758124 0 3436.48423699 0 357.22863009 0 457.91149413 0 22519
0.14450000 0.14449900 10834.83452361 0 23.00884459 0 3373.17268368 0 388.09273552 0 236.42181569 0 22218
0.14550000 0.14550500 10660.26825052 0 4.31701087 0 3019.61120757 0 534.28064010 0 -49.64719725 0 23559
0.14650000 0.14650700 10657.42266304 0 175.80083731 0 2828.29250703 0 151.01100927 0 45.52497072 0 23044
0.14750000 0.14750500 10614.22952392 0 175.35683708 0 2513.69454195 0 -79.96167248 0 -202.33344927 0 23649
0.14850000 0.14849900 10123.58159424 0 368.99408244 0 2620.68641668 0 -96.04012752 0 -357.22863009 0 23640
0.14950000 0.14949500 10078.09648388 0 186.18114183 0 2451.09161743 0 -258.18447012 0 -550.10852843 0 24457
0.15050000 0.15050000 10008.92767074 0 -71.48226469 0 2737.82054093 0 -159.14695355 0 -310.22439677 0 24591
0.15150000 0.15149900 9998.98472305 0 161.12004183 0 2695.56854942 0 -185.38947060 0 -735.25330065 0 25020
0.15250000 0.15250500 9875.82725409 0 181.36357330 0 2905.04586267 0 173.80449714 0 -266.78988097 0 25297
0.15350000 0.15350100 9856.07422662 0 207.91832991 0 2885.54749866 0 68.30838278 0 -75.33975193 0 25452
0.15450000 0.15450400 9667.66754750 0 148.96152195 0 3088.40356167 0 182.74872113 0 99.37876562 0 26061
0.15550000 0.15549900 9628.65974717 0 78.04627101 0 3320.42412824 0 -14.07071038 0 224.52349544 0 26128
0.15650000 0.15649500 9499.43464421 0 270.56222204 0 3297.33833099 0 -82.18831700 0 -96.52365595 0 26331
0.15750000 0.15749700 9420.10143688 0 255.59243888 0 3374.22455453 0 -412.11303698 0 -117.45189998 0 27345
0.15850000 0.15849900 9149.33880577 0 196.86593528 0 3316.47130828 0 -143.76195821 0 -80.33669212 0 26980
0.15950000 0.15949700 9091.93987391 0 2.81606866 0 3246.89281912 0 198.38948717 0 -505.68193233 0 27777
0.16050000 0.16050000 8983.43109069 0 -17.11249945 0 2988.35403460 0 305.15327200 0 -696.91537597 0 28224
0.16150000 0.16150500 9066.99392609 0 50.54062314 0 2981.99852016 0 356.90974713 0 -826.04636417 0 28075
0.16250000 0.16249700 8929.32063930 0 128.50097292 0 2737.18941842 0 321.66985893 0 -420.26226805 0 28590
0.16350000 0.16349900 8991.55817710 0 -39.55521608 0 2505.22421347 0 248.49618590 0 -480.84449329 0 29163
0.16450000 0.16449100 8890.14675409 0 -44.24656010 0 2551.39580796 0 381.37183436 0 -209.08646018 0 28996
0.16550000 0.16550500 8991.90141917 0 -13.94260358 0 2553.96458732 0 128.28395535 0 -162.26159852 0 30777
0.16650000 0.16650700 8999.29773215 0 -38.84957681 0 2422.53609172 0 238.14245497 0 111.83158790 0 29211
0.16750000 0.16749900 8927.39405478 0 264.57209431 0 2398.44271292 0 187.49210508 0 158.34310277 0 30922
0.16850000 0.16850800 8680.39263272 0 382.11257289 0 2484.86220813 0 -136.09326604 0 275.74407005 0 30867
0.16950000 0.16949900 8362.29581301 0 275.23142141 0 2278.81731558 0 103.90590707 0 160.47231083 0 30852
0.17050000 0.17049200 8172.17292355 0 258.97946304 0 2274.51018122 0 81.46939095 0 313.65128130 0 31257
0.17150000 0.17149500 8090.24879221 0 -1.99650625 0 2284.56385216 0 -130.90034570 0 236.55689805 0 32608
0.17250000 0.17250900 7976.32564216 0 67.75908475 0 2514.81284676 0 176.17729635 0 226.94944181 0 32361
0.17350000 0.17350400 8167.07965413 0 24.74764248 0 2524.32397378 0 -86.32039790 0 567.28391869 0 32508
0.17450000 0.17449800 8077.70384820 0 -2.10306630 0 2630.66258134 0 180.40360274 0 482.63267375 0 32791
0.17550000 0.17549800 8100.87822404 0 20.09483014 0 2396.98116604 0 38.29861793 0 668.32995498 0 33633
0.17650000 0.17650100 8287.10365517 0 42.48384599 0 2913.64905905 0 -4.52913447 0 780.52360791 0 33984
0.17750000 0.17750300 8072.03481789 0 169.89928818 0 3048.72034951 0 -276.18364135 0 1064.75682940 0 34069
0.17850000 0.17849800 8145.32253586 0 83.64919954 0 3160.25187741 0 -19.26396289 0 1043.66405062 0 34536
