### header ###
fiducial parameters:
Omega_m = 0.31
Omega_nu = 0
Omega_de = 0.69
Omega_k = 0
H_0 = 100
w_de = -1
zeff = 0
beta = 0
fgrowth = 0
b_1 = 2
gamma = 0.55
Lx = 3500 Ly = 3500 Lz = 3500
nx = 700 ny = 700 nz = 700
xoffset = -685.467585 yoffset = -31.7331281 zoffset = 572.489161
bins = 400 dk = 0.001
kx_ny = 0.628318531 ky_ny = 0.628318531 kz_ny = 0.628318531
############################
A(data) = 8.05674154 (not used)
A(ran) = 8.0464227 (used)
Ngal = 477466
weighted Ngal = 0
Nran = 23820508
weighted Nran = 0
SN(data) = 3501.59424
SN(ran) = 70.0872599
SN(data+ran) = 3571.6815
############################
13 columns: k_central k_mean P_0(k) sigma^{lin}_{P_0(k)} P^img_1(k) sigma^{lin}_{P_1(k)} P_2(k) sigma^{lin}_{P_2(k)} P^img_3(k) sigma^{lin}_{P_3(k)} P_4(k) sigma^{lin}_{P_4(k)} N_modes
### header ###
0.00050000 0 0 0 0 0 0 0 0 0 0 0 0
0.00150000 0.00179520 18330.78735351 0 -26760.14823795 0 -16615.68423910 0 4743.45038626 0 -82896.28145224 0 3
0.00250000 0.00253879 22591.63939022 0 -19322.86765726 0 -10941.49422859 0 7927.86207642 0 18389.02778206 0 6
0.00350000 0.00331552 37687.75777121 0 -13377.91501563 0 -2766.20998177 0 -40338.69377929 0 -40421.84693868 0 7
0.00450000 0.00420575 50275.33024129 0 -13668.00992588 0 -19701.76261255 0 1292.62748863 0 8601.31408887 0 24
0.00550000 0.00557378 57221.22104652 0 431.39216896 0 -3842.99357038 0 -5759.62406881 0 -3014.96083114 0 45
0.00650000 0.00659388 54910.31613362 0 10368.61214247 0 -3515.37455132 0 -20443.82982190 0 3510.46951143 0 40
0.00750000 0.00754703 62603.58886412 0 -363.93735170 0 32921.45410653 0 4372.61608343 0 2923.04946282 0 57
0.00850000 0.00846663 53814.70959282 0 -4898.38542744 0 16770.80750981 0 18840.77863466 0 14202.02815188 0 75
0.00950000 0.00948925 72780.38405143 0 -2471.99616669 0 48619.90695765 0 -1581.65945569 0 6617.02061347 0 112
0.01050000 0.01054430 69830.60599649 0 -1393.47422308 0 50116.44238014 0 25417.96102343 0 33614.24947043 0 105
0.01150000 0.01145670 77878.74673742 0 2196.20670010 0 47868.64971871 0 14146.11291155 0 40100.08517945 0 144
0.01250000 0.01249090 72645.08024215 0 2117.17244555 0 47323.66989114 0 32845.05506528 0 45902.75844716 0 169
0.01350000 0.01339930 80298.71404979 0 1245.63654210 0 62592.62726254 0 19622.59549010 0 17336.16041505 0 180
0.01450000 0.01448870 69295.14836826 0 7006.54500059 0 40438.12325616 0 22038.68748878 0 22458.77149240 0 267
0.01550000 0.01550050 68622.17246579 0 -366.60135305 0 35719.98420444 0 10543.83168273 0 25839.26298278 0 238
0.01650000 0.01653350 64464.95738938 0 -1008.01670086 0 19429.49414526 0 6993.86718867 0 12294.26658563 0 315
0.01750000 0.01747870 72830.09878987 0 -2121.44636293 0 30404.16105901 0 1785.21307516 0 4124.21954845 0 297
0.01850000 0.01844180 67724.31764624 0 -18.44549664 0 22353.69512987 0 3304.54641445 0 -12389.71002557 0 388
0.01950000 0.01947590 67009.04546296 0 1670.75845351 0 15834.53172315 0 2301.57094308 0 5288.30841826 0 399
0.02050000 0.02045430 67537.52752655 0 936.52048504 0 10768.22341750 0 -688.31660851 0 2393.10585235 0 462
0.02150000 0.02154770 66591.17592430 0 1259.53230975 0 12349.18531673 0 15724.02992146 0 -2036.49948692 0 571
0.02250000 0.02255340 66580.76793897 0 -3186.51543188 0 11088.26896639 0 6561.19395173 0 8462.52249727 0 510
0.02350000 0.02348930 70023.48589483 0 -2673.14709167 0 6348.91534031 0 6142.68221824 0 1590.08549488 0 555
0.02450000 0.02439640 67412.74242585 0 3085.23687677 0 5987.12712686 0 -3093.91757942 0 5560.26686045 0 592
0.02550000 0.02547300 68947.36664571 0 2730.43530028 0 13478.56244823 0 -5928.06734628 0 4554.10255953 0 837
0.02650000 0.02652900 64403.50598663 0 2338.22033823 0 12336.23069669 0 -6509.14295276 0 1324.28326528 0 723
0.02750000 0.02749970 64468.72197982 0 3168.21287896 0 17933.29089252 0 -6095.55840381 0 -1338.05723736 0 826
0.02850000 0.02848090 63986.41151072 0 1892.06100966 0 18437.74601126 0 -2424.24122974 0 -3691.56845616 0 831
0.02950000 0.02946900 61632.98887051 0 -2419.19224963 0 20696.61099751 0 -647.84615407 0 -9631.04029700 0 996
0.03050000 0.03053250 62378.26705406 0 2012.42825276 0 23322.63427475 0 1700.57622425 0 -628.85933147 0 1041
0.03150000 0.03150510 63025.99805595 0 3541.23950210 0 22600.82941982 0 2944.99481061 0 3075.10569956 0 1036
0.03250000 0.03246190 60482.90649160 0 3536.52269173 0 27355.72858994 0 2774.30385121 0 7181.75346852 0 1059
0.03350000 0.03345080 56200.57414474 0 2252.26588066 0 21510.98048792 0 1313.02271094 0 8886.41538062 0 1302
0.03450000 0.03451200 54656.42772553 0 3616.79704666 0 29942.11294433 0 4930.51731407 0 9250.17446789 0 1339
0.03550000 0.03553350 53903.84180761 0 1039.75884165 0 26403.73010203 0 995.83050017 0 3041.41261513 0 1365
0.03650000 0.03647120 50544.16628789 0 266.58836466 0 26461.52763759 0 4035.53022665 0 3832.90668247 0 1308
0.03750000 0.03744890 52233.02799247 0 -1402.65318035 0 18154.62666565 0 6248.77723465 0 -3657.02280273 0 1579
0.03850000 0.03847530 53009.64085525 0 731.00927855 0 14772.58504979 0 3956.34095955 0 -3815.37919228 0 1662
0.03950000 0.03950240 52290.38263504 0 1305.43816844 0 11088.49041288 0 3164.00539553 0 -3377.75662615 0 1683
0.04050000 0.04050350 48700.95637533 0 2711.09194882 0 8892.21727883 0 3701.54462082 0 1406.16310732 0 1822
0.04150000 0.04152450 46197.28228733 0 2842.99655438 0 4453.45512693 0 5187.43953916 0 -2630.12003742 0 1887
0.04250000 0.04250150 44543.74129892 0 2316.82860668 0 8062.61226947 0 4847.54131188 0 4435.78369652 0 1920
0.04350000 0.04349210 42241.69424587 0 209.20714852 0 4566.40391241 0 1685.76145364 0 6242.89783017 0 2005
0.04450000 0.04448520 42379.76613636 0 -603.71076011 0 5872.76108381 0 -105.74623818 0 3629.91775157 0 2151
0.04550000 0.04548030 43087.95203176 0 -603.77830129 0 8104.57638053 0 -5963.06696503 0 223.56241765 0 2274
0.04650000 0.04648670 43216.61244615 0 1346.57185514 0 11804.53765890 0 -6460.97833980 0 -170.76403675 0 2311
0.04750000 0.04749250 43388.78709708 0 1856.17560492 0 13252.90846843 0 -5153.69109311 0 2599.68221649 0 2568
0.04850000 0.04851840 41058.50561575 0 556.25366870 0 13636.01090716 0 1309.46849468 0 -1193.04299921 0 2493
0.04950000 0.04949480 41709.89048483 0 -183.19272136 0 12320.95088845 0 5091.83001435 0 -4335.11411927 0 2644
0.05050000 0.05050630 41984.81631008 0 -238.02398109 0 11015.42414140 0 6078.39630034 0 -4134.69396773 0 2829
0.05150000 0.05149060 40327.95362422 0 1486.17172646 0 9607.32337724 0 1638.18367389 0 -5910.63950701 0 2784
0.05250000 0.05249300 38703.75429657 0 2306.47598297 0 10865.61558661 0 -561.20299790 0 -1654.01709838 0 3055
0.05350000 0.05348950 37481.92325283 0 1020.18850754 0 9930.35845383 0 -61.01559604 0 1237.62017893 0 3009
0.05450000 0.05448610 37075.01531575 0 406.85921886 0 9479.72590603 0 -457.53282062 0 -796.13780037 0 3336
0.05550000 0.05550870 37046.00582472 0 966.64606641 0 9730.34797830 0 449.03813302 0 -989.06530970 0 3349
0.05650000 0.05647670 35933.01573395 0 940.86083637 0 10219.62293971 0 432.39421435 0 -1973.87441774 0 3324
0.05750000 0.05747970 35246.19942545 0 1343.64876139 0 7957.17052022 0 1428.78386692 0 977.15259543 0 3639
0.05850000 0.05849280 33978.41823372 0 428.86103550 0 8968.87098355 0 1309.20275888 0 -911.98864218 0 3846
0.05950000 0.05951020 33633.84748536 0 1.24378746 0 7239.90531847 0 1462.83126574 0 -1253.85220711 0 3787
0.06050000 0.06049470 33600.74123415 0 502.31926728 0 9586.58491286 0 1191.19392096 0 1108.63866712 0 3930
0.06150000 0.06148310 33229.48618298 0 1521.79139540 0 7316.32650437 0 -1317.45164087 0 852.80928048 0 4083
0.06250000 0.06249100 31862.16479113 0 1204.27033658 0 10179.19788180 0 -1894.98410341 0 3601.59474468 0 4303
0.06350000 0.06350600 31450.05286138 0 230.68192250 0 10414.26333770 0 -500.77024904 0 2754.92728278 0 4470
0.06450000 0.06451750 31668.17766031 0 -165.91214401 0 12384.61675615 0 293.37564009 0 236.50153643 0 4479
0.06550000 0.06550280 30562.05241092 0 1112.89043985 0 12026.98066451 0 -587.56841776 0 972.01171502 0 4636
0.06650000 0.06648880 30495.95063176 0 1923.31818262 0 12669.28622724 0 -1648.74667177 0 98.63680914 0 4653
0.06750000 0.06749660 28731.68639515 0 1311.62759802 0 12200.59471767 0 -270.16140388 0 -646.64037790 0 5220
0.06850000 0.06852730 28359.43483475 0 -39.30929974 0 13273.06009960 0 1169.30393480 0 -1709.13513133 0 5029
0.06950000 0.06949320 28289.78991164 0 -888.52195695 0 10815.93406515 0 1967.70713282 0 -3097.88147171 0 5040
0.07050000 0.07048030 29047.69054548 0 -887.56641532 0 11919.02549753 0 2161.82713154 0 -3310.61404845 0 5475
0.07150000 0.07148790 29581.81949473 0 371.45324578 0 9877.56560909 0 620.30263885 0 -1705.17123905 0 5509
0.07250000 0.07249820 28781.73330333 0 1372.28179337 0 10181.26840654 0 1412.49647711 0 -380.20702579 0 5916
0.07350000 0.07351270 28166.55493641 0 484.86928337 0 9053.85107653 0 207.75667397 0 2760.26414334 0 5721
0.07450000 0.07449140 27390.49568987 0 878.01542793 0 9518.21330710 0 2543.32408317 0 2307.98181915 0 6028
0.07550000 0.07549160 27303.91010979 0 405.14522297 0 10288.58137868 0 741.19249569 0 3972.87194050 0 6183
0.07650000 0.07648840 26351.24728239 0 601.11097824 0 9420.92078892 0 879.34632138 0 3110.31569248 0 6330
0.07750000 0.07749960 25743.93026609 0 922.83841326 0 8336.43086223 0 598.14359519 0 3297.22760774 0 6583
0.07850000 0.07848650 25442.20941478 0 -19.08281966 0 9201.23479219 0 1236.05898113 0 3948.13636686 0 6549
0.07950000 0.07947320 25172.26613570 0 52.46488247 0 7926.07943213 0 944.99856416 0 3483.51947282 0 6828
0.08050000 0.08048110 25073.72244482 0 169.70773696 0 7965.66299336 0 921.41783399 0 3082.98919483 0 7147
0.08150000 0.08149960 24973.51790521 0 423.41566616 0 7503.61487867 0 713.49396792 0 2869.82479742 0 7386
0.08250000 0.08250610 24375.16947201 0 935.60369655 0 7830.22631617 0 -358.47205217 0 3357.66035660 0 7227
0.08350000 0.08350160 23438.22934586 0 738.05792053 0 8111.95054886 0 63.29151241 0 3435.93062075 0 7798
0.08450000 0.08449610 23771.28487640 0 118.43180073 0 8044.47580141 0 321.45173413 0 2803.39084851 0 7371
0.08550000 0.08548940 22586.21395106 0 188.50411557 0 7217.99318765 0 1249.05789047 0 3095.92167022 0 8256
0.08650000 0.08650700 22401.08468009 0 405.66008608 0 6636.19788006 0 511.19041392 0 381.35633310 0 8037
0.08750000 0.08749060 21842.92878598 0 444.92365712 0 5711.80269792 0 679.98579132 0 850.07773795 0 8155
0.08850000 0.08849210 21721.35465948 0 571.10276352 0 6446.23000314 0 -602.48283929 0 -975.44967187 0 8718
0.08950000 0.08949900 20671.91971316 0 763.08026739 0 5589.45350868 0 -991.00518101 0 -490.50066777 0 8571
0.09050000 0.09049190 20803.90182500 0 354.86690321 0 6368.91195893 0 -617.59877713 0 -651.82886931 0 8932
0.09150000 0.09150830 20272.65168020 0 -148.03587559 0 6183.27336102 0 -283.44044303 0 -1007.97019710 0 9285
0.09250000 0.09250820 21002.98222524 0 59.73109564 0 7132.62556330 0 336.95077442 0 -1907.72834928 0 9204
0.09350000 0.09350330 20803.12676227 0 381.12381428 0 6858.74053659 0 -3.29243329 0 -2724.40088325 0 9349
0.09450000 0.09448040 20240.43121498 0 835.20206956 0 7012.19188625 0 -829.76777254 0 -2257.71346447 0 9564
0.09550000 0.09549270 19659.35560850 0 634.33238163 0 7521.79563603 0 -1023.36626476 0 -1988.96599647 0 10155
0.09650000 0.09649430 18984.49741080 0 1152.13075900 0 8088.94225789 0 -236.24465849 0 -2232.16961111 0 9913
0.09750000 0.09749140 18242.76237120 0 402.12469276 0 7670.28658417 0 -303.75151568 0 -2546.60149131 0 10476
0.09850000 0.09850240 17775.73171035 0 154.34931520 0 7389.85781349 0 884.82712216 0 -1530.61603828 0 10575
0.09950000 0.09950330 18037.37074582 0 99.94788312 0 7456.46891960 0 915.41663394 0 -1874.47815785 0 10882
0.10050000 0.10051200 17733.87832254 0 241.68449168 0 7415.15807570 0 1164.54283513 0 -1464.97929676 0 10875
0.10150000 0.10150300 17274.81973556 0 581.28598065 0 6705.45527180 0 1116.50001774 0 -160.60850042 0 11118
0.10250000 0.10250800 16894.15320829 0 381.60988934 0 6474.58622700 0 616.05086612 0 -195.74430877 0 11575
0.10350000 0.10349800 16313.52049480 0 524.49934836 0 6394.14578720 0 417.64698493 0 716.93856817 0 11364
0.10450000 0.10450100 16169.13737917 0 296.24558669 0 6459.40606968 0 650.27763660 0 113.98736954 0 12093
0.10550000 0.10551000 15878.82102242 0 241.56048164 0 6616.21233376 0 45.94527617 0 1807.43523107 0 12067
0.10650000 0.10649700 15732.44488832 0 177.79385578 0 6212.84754061 0 567.20973411 0 1836.73260254 0 12054
0.10750000 0.10749900 15862.87687468 0 -300.23494532 0 5945.17408812 0 1612.93877331 0 2400.96720297 0 12807
0.10850000 0.10850100 15806.85091110 0 -217.34198556 0 5192.30028976 0 1182.75680945 0 2057.39296385 0 12736
0.10950000 0.10950300 16074.80117171 0 148.76886350 0 5266.70631254 0 826.36303265 0 1952.64877107 0 12933
0.11050000 0.11050200 15810.39405504 0 83.01088001 0 4987.41799131 0 31.65356219 0 2263.11675898 0 13428
0.11150000 0.11150900 15770.31223920 0 389.21214756 0 4706.22523022 0 -220.30826138 0 1751.20996564 0 13453
0.11250000 0.11250000 15025.69839514 0 563.47282449 0 4686.15110532 0 -642.06861498 0 2100.79647714 0 13668
0.11350000 0.11349100 15347.68160087 0 443.70459416 0 5237.70789384 0 -495.31823630 0 1499.97891551 0 13791
0.11450000 0.11448600 14438.20084027 0 378.88831190 0 5590.52752418 0 -59.26926897 0 2098.88096495 0 14205
0.11550000 0.11549300 14563.20738747 0 68.94858460 0 5110.25436285 0 214.72780967 0 1423.96740563 0 14776
0.11650000 0.11649800 14438.75445651 0 -242.25914533 0 5055.20276385 0 1153.64766750 0 747.39410482 0 14553
0.11750000 0.11747300 14882.64395849 0 -277.57432534 0 4854.00754957 0 495.72569785 0 573.19211121 0 14568
0.11850000 0.11849100 14540.95201458 0 327.87700423 0 5073.71569095 0 100.66415181 0 749.45577170 0 16015
0.11950000 0.11950300 14404.20880307 0 569.15403435 0 4464.92605544 0 308.74402694 0 1011.86986990 0 15270
0.12050000 0.12050700 14040.48293278 0 259.88850091 0 4359.62824642 0 -51.74706366 0 920.26299051 0 15999
0.12150000 0.12150000 13713.18501114 0 154.59401358 0 4011.81330689 0 322.84906153 0 1297.75397502 0 15670
0.12250000 0.12250700 13782.38704126 0 19.82699061 0 4397.50666962 0 115.29944003 0 880.91084087 0 16887
0.12350000 0.12352200 13743.74462764 0 29.07072098 0 4157.14864246 0 168.18861400 0 600.05578569 0 16407
0.12450000 0.12449800 13482.54848517 0 198.46035005 0 4228.89730728 0 -54.41494032 0 411.83955056 0 16306
0.12550000 0.12549900 13243.71843883 0 602.88476468 0 4204.01779342 0 70.98522803 0 615.24590811 0 17523
0.12650000 0.12650100 13098.67098371 0 198.48913809 0 4237.12404463 0 250.70511471 0 663.31862077 0 17154
0.12750000 0.12750600 12702.94609469 0 -43.19701443 0 3715.29644825 0 400.07520544 0 315.22355142 0 18007
0.12850000 0.12850300 12845.11474536 0 58.69062927 0 3737.91720785 0 152.19131910 0 376.93847550 0 17496
0.12950000 0.12949900 12640.16601297 0 290.52451645 0 4158.90914211 0 -369.81454171 0 409.53761423 0 18405
0.13050000 0.13049000 12393.91750900 0 457.52949892 0 4019.89610401 0 -190.68647079 0 302.03530533 0 18100
0.13150000 0.13148800 12216.53886541 0 230.75610708 0 4161.64400634 0 -125.36529053 0 559.20333604 0 19059
0.13250000 0.13249300 12092.30738094 0 109.88551609 0 4463.75238901 0 4.83987926 0 576.51602312 0 18957
0.13350000 0.13349100 12077.80263543 0 53.83286821 0 4535.45676454 0 -18.53518247 0 603.91227642 0 19468
0.13450000 0.13450700 12049.23603740 0 160.59299917 0 4643.38978687 0 453.73612044 0 434.82016072 0 19953
0.13550000 0.13551000 11814.50275124 0 24.76137216 0 4406.22058926 0 96.64689092 0 218.10486874 0 19956
0.13650000 0.13649900 11949.47439078 0 255.90689291 0 4337.17357169 0 169.97900892 0 389.39705538 0 19723
0.13750000 0.13749600 11708.76204922 0 45.74409203 0 4159.72849414 0 133.62856654 0 640.05234463 0 20946
0.13850000 0.13851100 11632.69517772 0 -96.31538552 0 4058.20634788 0 471.87591019 0 596.91567437 0 20955
0.13950000 0.13949800 11872.30028679 0 -109.10203839 0 4033.88045025 0 474.34836032 0 571.70620522 0 20506
0.14050000 0.14048300 11834.76510566 0 116.51739576 0 4206.96303182 0 205.44255808 0 478.37979379 0 21447
0.14150000 0.14148400 11598.37097078 0 452.31886286 0 4110.89954169 0 -162.15419697 0 994.71440983 0 21771
0.14250000 0.14249400 11249.14984600 0 525.86567324 0 4298.85225549 0 -199.54875958 0 1233.23553830 0 22470
0.14350000 0.14350900 11026.48539390 0 321.09631251 0 4593.80791633 0 39.61157421 0 1819.82516254 0 22519
0.14450000 0.14449900 10643.11721938 0 212.53659659 0 4257.87358134 0 347.05427081 0 1691.36405000 0 22218
0.14550000 0.14550500 10509.05351047 0 107.97830814 0 4076.61962405 0 740.33439051 0 1155.51889040 0 23559
0.14650000 0.14650700 10495.72243139 0 15.97027843 0 3885.81025045 0 595.51281081 0 1375.55920152 0 23044
0.14750000 0.14750500 10234.80309704 0 70.47966568 0 3276.02410572 0 319.18080031 0 1373.12329006 0 23649
0.14850000 0.14849900 10326.73661001 0 -1.37372120 0 3256.57003101 0 207.00486311 0 1242.23733838 0 23640
0.14950000 0.14949500 10178.66641021 0 113.74377840 0 2844.31416104 0 213.39691623 0 1222.80540832 0 24457
0.15050000 0.15050000 10181.92167371 0 173.04493566 0 3026.19924083 0 -240.02475019 0 1244.23035685 0 24591
0.15150000 0.15149900 10009.63629953 0 196.59687778 0 3037.79196492 0 -309.23342370 0 653.73884534 0 25020
0.15250000 0.15250500 9835.96688475 0 171.76054598 0 3238.65500945 0 -164.24243743 0 906.74478914 0 25297
0.15350000 0.15350100 9749.48095559 0 75.76371125 0 3115.51968515 0 -27.65401702 0 451.37439356 0 25452
0.15450000 0.15450400 9736.36025068 0 19.39948815 0 3222.96552519 0 -140.68053022 0 231.27872081 0 26061
0.15550000 0.15549900 9690.22187316 0 176.36995480 0 3049.03037461 0 113.71056142 0 11.35156885 0 26128
0.15650000 0.15649500 9365.60345413 0 313.75979008 0 3033.83914496 0 300.17736923 0 220.67254087 0 26331
0.15750000 0.15749700 9170.40943990 0 323.67948589 0 3053.35965361 0 82.70129781 0 252.13898077 0 27345
0.15850000 0.15849900 9006.98192557 0 120.03839506 0 3206.09130216 0 319.47200246 0 66.56072703 0 26980
0.15950000 0.15949700 8865.96479668 0 122.31375781 0 3259.65920964 0 -10.74628914 0 233.15437264 0 27777
0.16050000 0.16050000 8765.04055596 0 234.09773471 0 3075.21642281 0 -47.22468331 0 750.07028572 0 28224
0.16150000 0.16150500 8732.11146195 0 53.61773293 0 3169.30903911 0 152.90326958 0 800.48590232 0 28075
0.16250000 0.16249700 8676.74983786 0 -67.49246316 0 3151.80369358 0 207.46325736 0 589.51382523 0 28590
0.16350000 0.16349900 8778.34949039 0 19.21358381 0 2915.05524430 0 181.83082540 0 353.69655847 0 29163
0.16450000 0.16449100 8658.70194840 0 129.71117802 0 2784.39073912 0 90.35858549 0 132.99190786 0 28996
0.16550000 0.16550500 8495.40730198 0 88.01999976 0 2482.82490036 0 144.94337527 0 104.57677923 0 30777
0.16650000 0.16650700 8481.23472621 0 43.65574085 0 2667.00195139 0 148.64596069 0 -81.10599725 0 29211
0.16750000 0.16749900 8540.84812303 0 24.82249139 0 2176.29866008 0 203.48275659 0 -60.35568548 0 30922
0.16850000 0.16850800 8381.51736889 0 86.52423940 0 2254.45820097 0 97.32496009 0 204.48590922 0 30867
0.16950000 0.16949900 8490.03722444 0 37.37906136 0 2068.17740823 0 -27.99150148 0 336.29972172 0 30852
0.17050000 0.17049200 8393.65263690 0 17.85567390 0 2214.01099841 0 267.71331286 0 483.52178144 0 31257
0.17150000 0.17149500 8381.14090985 0 240.51082525 0 2243.90627542 0 -30.86908798 0 548.89610886 0 32608
0.17250000 0.17250900 8192.67886911 0 124.09529487 0 2292.11517768 0 95.28444135 0 458.09861642 0 32361
0.17350000 0.17350400 8198.08216362 0 4.89583879 0 2346.13705047 0 -99.88809257 0 646.59055243 0 32508
0.17450000 0.17449800 8123.07823530 0 67.29293987 0 2238.15973884 0 144.28900087 0 570.28008978 0 32791
0.17550000 0.17549800 8181.28544687 0 51.72226165 0 2264.24613611 0 13.77829028 0 535.97913473 0 33633
0.17650000 0.17650100 8129.52232835 0 118.62445918 0 2220.68761028 0 96.83766708 0 487.66725985 0 33984
0.17750000 0.17750300 7926.55554210 0 195.60369025 0 2030.86367359 0 171.13938856 0 570.87578086 0 34069
0.17850000 0.17849800 7819.48616110 0 76.53965977 0 1978.33656465 0 232.14014768 0 561.15206520 0 34536
