### header ###
fiducial parameters:
Omega_m = 0.31
Omega_nu = 0
Omega_de = 0.69
Omega_k = 0
H_0 = 100
w_de = -1
zeff = 0
beta = 0
fgrowth = 0
b_1 = 2
gamma = 0.55
Lx = 3500 Ly = 3500 Lz = 3500
nx = 700 ny = 700 nz = 700
xoffset = -685.467585 yoffset = -31.7331281 zoffset = 572.489161
bins = 400 dk = 0.001
kx_ny = 0.628318531 ky_ny = 0.628318531 kz_ny = 0.628318531
############################
A(data) = 8.03732525 (not used)
A(ran) = 8.0360542 (used)
Ngal = 477098
weighted Ngal = 0
Nran = 23820508
weighted Nran = 0
SN(data) = 3489.0837
SN(ran) = 69.9969465
SN(data+ran) = 3559.08064
############################
13 columns: k_central k_mean P_0(k) sigma^{lin}_{P_0(k)} P^img_1(k) sigma^{lin}_{P_1(k)} P_2(k) sigma^{lin}_{P_2(k)} P^img_3(k) sigma^{lin}_{P_3(k)} P_4(k) sigma^{lin}_{P_4(k)} N_modes
### header ###
0.00050000 0 0 0 0 0 0 0 0 0 0 0 0
0.00150000 0.00179520 15962.41707480 0 -29075.14991103 0 -18077.89545465 0 59291.74578761 0 -68771.53812759 0 3
0.00250000 0.00253879 36370.70473403 0 -39316.93964503 0 -6308.41277612 0 -33764.61164147 0 57824.55202589 0 6
0.00350000 0.00331552 50345.75022714 0 -30839.63559413 0 -14511.49963057 0 -59442.44012839 0 -26761.80908667 0 7
0.00450000 0.00420575 64724.93557612 0 -12063.07644342 0 -8610.71449264 0 -59398.59372211 0 15118.04158413 0 24
0.00550000 0.00557378 59172.38612607 0 1925.56586456 0 2032.76811346 0 -61303.03359092 0 21871.82755376 0 45
0.00650000 0.00659388 56233.34822620 0 3306.58372222 0 -3017.62926142 0 -29504.97756049 0 16977.85998392 0 40
0.00750000 0.00754703 73253.72593743 0 -8488.45388199 0 23466.57449739 0 -34011.19231518 0 2712.52027872 0 57
0.00850000 0.00846663 67985.29234222 0 1717.00755428 0 2462.14179760 0 -3701.22352340 0 -13740.42293020 0 75
0.00950000 0.00948925 75605.26628241 0 13884.47387609 0 17766.43095750 0 -26846.62309478 0 -37969.99133084 0 112
0.01050000 0.01054430 71378.18483640 0 -2000.39263569 0 -4359.10784715 0 -14374.53497256 0 -32356.54409428 0 105
0.01150000 0.01145670 69479.17040675 0 -11911.71776315 0 14361.46962927 0 -4671.41384099 0 -23278.56642197 0 144
0.01250000 0.01249090 82875.35475833 0 -6615.79158541 0 16663.84885206 0 757.64486313 0 -51264.97463358 0 169
0.01350000 0.01339930 81476.25579425 0 3016.88741566 0 16783.09779036 0 16821.29731098 0 -26796.13329361 0 180
0.01450000 0.01448870 77337.53150029 0 8050.83131586 0 10122.97261637 0 3834.54538654 0 -25468.67227110 0 267
0.01550000 0.01550050 60595.84420475 0 10473.41169688 0 5154.43293888 0 -9712.57689697 0 2000.70266078 0 238
0.01650000 0.01653350 62346.60020507 0 7497.11542400 0 5713.75142709 0 8845.59171902 0 -4280.36147304 0 315
0.01750000 0.01747870 60750.19241272 0 -5789.47505652 0 13562.93356335 0 -2601.22126964 0 16653.77303648 0 297
0.01850000 0.01844180 62912.50672656 0 -2299.50041834 0 4261.31707435 0 6027.77363127 0 7137.24272275 0 388
0.01950000 0.01947590 64007.33820462 0 -6612.93492561 0 10054.73387851 0 5215.76254605 0 13576.99541587 0 399
0.02050000 0.02045430 69506.29760256 0 1327.49423948 0 7294.46973517 0 8912.94467089 0 17020.82060422 0 462
0.02150000 0.02154770 76201.51097389 0 -4605.02418137 0 13430.28711203 0 -4314.27600396 0 9593.21723542 0 571
0.02250000 0.02255340 66303.51692551 0 8413.85962969 0 17314.68010490 0 -2139.36138448 0 18526.65677955 0 510
0.02350000 0.02348930 70711.29871257 0 6581.14628106 0 20961.79317692 0 -10838.75412660 0 5862.38631545 0 555
0.02450000 0.02439640 62333.75630828 0 1918.63458922 0 18856.27988940 0 468.13346440 0 26122.05015865 0 592
0.02550000 0.02547300 65035.95718028 0 -536.68887075 0 19813.15020023 0 3869.63358389 0 6175.79954177 0 837
0.02650000 0.02652900 59404.68350076 0 596.58904079 0 14872.12524991 0 10670.62087423 0 8901.25229588 0 723
0.02750000 0.02749970 63747.80291087 0 -699.41107798 0 9492.18227145 0 14653.55755799 0 -5314.14015206 0 826
0.02850000 0.02848090 59193.86643621 0 1822.26107400 0 6178.20223626 0 5242.23647469 0 3730.14443583 0 831
0.02950000 0.02946900 59409.44460043 0 2078.65182750 0 3626.30817368 0 -2540.21275989 0 2817.22018221 0 996
0.03050000 0.03053250 56844.87272594 0 3547.05247263 0 10184.71189956 0 -5560.04541396 0 15431.72054624 0 1041
0.03150000 0.03150510 58610.35491827 0 2104.82680338 0 17102.64508463 0 -2847.80194336 0 18155.95534462 0 1036
0.03250000 0.03246190 56240.87740708 0 -2246.85151382 0 10341.78389944 0 2205.42994668 0 10173.58421312 0 1059
0.03350000 0.03345080 58461.43214946 0 572.08487873 0 19212.03368583 0 2538.93944254 0 13754.81695246 0 1302
0.03450000 0.03451200 58559.86511710 0 -1302.76973816 0 15155.79821176 0 3656.63527136 0 6107.52758694 0 1339
0.03550000 0.03553350 58396.88049577 0 -921.29493119 0 15289.33044908 0 3491.83478876 0 -2272.46180113 0 1365
0.03650000 0.03647120 57815.36199629 0 -131.34545316 0 10901.04702603 0 -5080.10442237 0 -10454.85448048 0 1308
0.03750000 0.03744890 54800.36794817 0 5882.39400640 0 13799.32769823 0 -6198.47566300 0 -8789.48824916 0 1579
0.03850000 0.03847530 50227.82996782 0 7294.01576986 0 13523.29464050 0 -4547.69168346 0 -8675.96370280 0 1662
0.03950000 0.03950240 44899.82726509 0 3548.59152578 0 11705.88324477 0 -4490.02701581 0 -10437.22733937 0 1683
0.04050000 0.04050350 44170.38250603 0 723.44355900 0 14656.65780894 0 2366.54334511 0 -10043.98265111 0 1822
0.04150000 0.04152450 45142.42190186 0 -2573.44080667 0 14490.46221341 0 3100.58311897 0 -18648.00945956 0 1887
0.04250000 0.04250150 46026.54703863 0 183.17057671 0 15135.86802709 0 2215.09608624 0 -14516.37145349 0 1920
0.04350000 0.04349210 43720.29250216 0 3814.57091257 0 14281.74889058 0 -643.66856591 0 -14756.86234855 0 2005
0.04450000 0.04448520 40051.58839674 0 3920.51091644 0 14085.21512505 0 -902.95916129 0 -6309.83003370 0 2151
0.04550000 0.04548030 37835.35186104 0 3896.32895903 0 14819.42098377 0 1163.21415615 0 -3339.99999852 0 2274
0.04650000 0.04648670 36614.29588004 0 -1487.67756263 0 11312.59426721 0 6223.20016432 0 478.73189372 0 2311
0.04750000 0.04749250 38800.08352249 0 -3440.79137134 0 12896.82250226 0 6347.44272111 0 -684.78121520 0 2568
0.04850000 0.04851840 39574.59264356 0 -519.42047296 0 10381.34531601 0 4158.84270816 0 1172.09416065 0 2493
0.04950000 0.04949480 40920.54444851 0 258.77241057 0 13179.27750839 0 666.98134582 0 2312.42182140 0 2644
0.05050000 0.05050630 39068.58739935 0 2417.09958024 0 9372.40186156 0 -1097.42572377 0 4489.91629256 0 2829
0.05150000 0.05149060 37144.66023886 0 1521.49244263 0 10784.14542059 0 727.90127697 0 3005.88152479 0 2784
0.05250000 0.05249300 36707.19268527 0 1741.23380098 0 11298.64313794 0 1419.17308898 0 5934.75503047 0 3055
0.05350000 0.05348950 35467.31375208 0 572.63628051 0 12235.47254085 0 2606.41418998 0 4163.49308458 0 3009
0.05450000 0.05448610 36036.20980126 0 -867.21548231 0 10445.54265531 0 -446.98753846 0 2016.09319228 0 3336
0.05550000 0.05550870 34920.89452228 0 -317.00730295 0 7809.76465991 0 1873.14947887 0 1913.62989841 0 3349
0.05650000 0.05647670 36274.48623136 0 -302.14713581 0 9670.02595269 0 -288.65993695 0 3780.87782815 0 3324
0.05750000 0.05747970 35638.27044728 0 961.66684194 0 9024.63121134 0 1137.63708582 0 3669.99956741 0 3639
0.05850000 0.05849280 34496.71375848 0 1137.40456700 0 9074.50096232 0 166.63738129 0 2176.71940842 0 3846
0.05950000 0.05951020 34377.46482018 0 1133.90571235 0 9164.18679335 0 -1097.97823278 0 3025.34667182 0 3787
0.06050000 0.06049470 33458.01896724 0 685.02148465 0 8673.91532270 0 923.73305711 0 2137.19120882 0 3930
0.06150000 0.06148310 32856.23811335 0 538.81475711 0 10542.42549748 0 1151.74322764 0 2901.83488847 0 4083
0.06250000 0.06249100 32224.45125920 0 788.78024052 0 8879.71662411 0 -414.19020512 0 -17.97248692 0 4303
0.06350000 0.06350600 31424.69723754 0 1131.07119720 0 9330.74777560 0 501.36040395 0 -660.13422015 0 4470
0.06450000 0.06451750 30207.95946322 0 696.93309169 0 8704.77389197 0 443.65587593 0 -955.13084860 0 4479
0.06550000 0.06550280 30212.27766990 0 88.95849001 0 9016.31589540 0 1069.74823342 0 -1323.88466159 0 4636
0.06650000 0.06648880 29963.26108473 0 -292.99032319 0 7263.17934524 0 1458.96702438 0 -1237.84162543 0 4653
0.06750000 0.06749660 31007.93493137 0 -117.93465334 0 7631.46701335 0 689.96084875 0 -1332.47678565 0 5220
0.06850000 0.06852730 29609.83247652 0 396.09138297 0 6764.13859334 0 -94.57747341 0 -1625.38406640 0 5029
0.06950000 0.06949320 30246.93404659 0 115.52752993 0 7588.20744029 0 -314.13071296 0 670.45584135 0 5040
0.07050000 0.07048030 29589.23795236 0 362.33740076 0 8119.96691203 0 1058.31495082 0 394.30652421 0 5475
0.07150000 0.07148790 29836.81513530 0 -137.68878805 0 9042.16977385 0 515.89725921 0 1483.53651315 0 5509
0.07250000 0.07249820 29507.74564169 0 627.67237825 0 8294.43353420 0 425.72535311 0 957.83360309 0 5916
0.07350000 0.07351270 29770.49190964 0 741.81697480 0 9696.46666436 0 -251.87878114 0 214.79092192 0 5721
0.07450000 0.07449140 28257.56944642 0 1304.29771899 0 9884.18685933 0 -796.34928177 0 929.11420697 0 6028
0.07550000 0.07549160 27360.82185936 0 1585.22474429 0 10195.68457345 0 13.68782939 0 1524.70341683 0 6183
0.07650000 0.07648840 26260.56494213 0 627.10215352 0 8287.01507657 0 -31.15165371 0 1065.50199686 0 6330
0.07750000 0.07749960 26486.10819868 0 84.90026152 0 8880.95672449 0 322.58000403 0 -516.09323935 0 6583
0.07850000 0.07848650 25751.23800047 0 -99.41552574 0 8009.08865129 0 349.28202257 0 -429.07251691 0 6549
0.07950000 0.07947320 26133.45465321 0 185.59652308 0 8233.00427610 0 696.12149028 0 -2637.28383158 0 6828
0.08050000 0.08048110 24560.40946622 0 943.92787035 0 7081.49356729 0 512.83908309 0 -1053.22057417 0 7147
0.08150000 0.08149960 24644.89130459 0 1058.85306580 0 7019.56605458 0 -209.61461007 0 -2959.67671332 0 7386
0.08250000 0.08250610 23466.35305089 0 518.98422336 0 6553.99694060 0 -73.67425283 0 -2109.44396282 0 7227
0.08350000 0.08350160 23440.11164107 0 406.34878468 0 7904.43303711 0 -555.70891032 0 -2631.58158430 0 7798
0.08450000 0.08449610 22716.86738392 0 176.54157584 0 7606.79787366 0 11.03573079 0 -1552.86033884 0 7371
0.08550000 0.08548940 23310.56544070 0 287.96127326 0 9480.41239017 0 -142.50967828 0 -650.55665918 0 8256
0.08650000 0.08650700 22632.60699205 0 336.04616548 0 8320.24312335 0 1250.76302849 0 -548.34249262 0 8037
0.08750000 0.08749060 22591.41794373 0 412.51164068 0 8952.50608747 0 938.20790735 0 -1094.02430559 0 8155
0.08850000 0.08849210 21830.41705894 0 334.24248377 0 7837.01365129 0 604.84124447 0 -342.02964981 0 8718
0.08950000 0.08949900 21646.28429721 0 834.26313641 0 8227.64527089 0 765.68669265 0 -214.30373963 0 8571
0.09050000 0.09049190 20743.22548500 0 916.80842517 0 7309.10734858 0 830.38560826 0 484.16065458 0 8932
0.09150000 0.09150830 20097.26605508 0 583.71303425 0 7410.76236274 0 1445.46986042 0 420.07846746 0 9285
0.09250000 0.09250820 19813.26092348 0 173.78235249 0 6894.60379667 0 683.89210752 0 1137.40456700 0 9204
0.09350000 0.09350330 19398.93452876 0 401.20458257 0 6741.99394370 0 623.09507917 0 946.92625591 0 9349
0.09450000 0.09448040 19179.92394385 0 67.06927891 0 6558.32621961 0 151.81596729 0 1442.48033272 0 9564
0.09550000 0.09549270 18844.21105535 0 430.68132570 0 6645.93045357 0 -390.00935495 0 1223.29259061 0 10155
0.09650000 0.09649430 19200.29702152 0 148.71128741 0 6800.77691616 0 -197.04087801 0 1457.32832031 0 9913
0.09750000 0.09749140 18672.03640442 0 -45.95214102 0 6758.04881468 0 74.38576043 0 591.27100318 0 10476
0.09850000 0.09850240 18941.31534401 0 157.80277332 0 6451.61115300 0 -224.37955522 0 -24.75007839 0 10575
0.09950000 0.09950330 18637.26930449 0 240.73005728 0 6884.45047481 0 -406.01329324 0 -731.67140357 0 10882
0.10050000 0.10051200 18158.05908634 0 791.48520948 0 5995.38708118 0 -218.46693376 0 -877.94345782 0 10875
0.10150000 0.10150300 17686.37804906 0 662.86465545 0 6470.04657383 0 306.09331238 0 -727.90016974 0 11118
0.10250000 0.10250800 17411.34150057 0 -98.15793109 0 5814.40993202 0 895.20742668 0 -787.87120266 0 11575
0.10350000 0.10349800 17512.54254941 0 -521.89292309 0 6128.63143804 0 1531.67898146 0 -348.40398721 0 11364
0.10450000 0.10450100 17288.88158808 0 60.08142399 0 5411.93092486 0 857.57813078 0 -671.73026594 0 12093
0.10550000 0.10551000 17579.19794482 0 400.68086161 0 5348.92939664 0 747.16490769 0 -1090.87312195 0 12067
0.10650000 0.10649700 17025.69242714 0 399.35328986 0 5059.96386352 0 -416.06142801 0 -447.09826171 0 12054
0.10750000 0.10749900 16895.70333377 0 513.11810568 0 5369.47963150 0 -631.97286921 0 -296.42717281 0 12807
0.10850000 0.10850100 16192.83215428 0 357.97379755 0 5546.28251421 0 -774.94869236 0 -242.54259685 0 12736
0.10950000 0.10950300 16079.45154813 0 634.39770834 0 5990.16094386 0 534.03262003 0 -945.80795110 0 12933
0.11050000 0.11050200 15403.15394821 0 613.81536374 0 5019.79346908 0 40.02335397 0 -998.89531968 0 13428
0.11150000 0.11150900 14704.82242190 0 575.94026223 0 4986.34397580 0 862.05577894 0 -1171.11979607 0 13453
0.11250000 0.11250000 14481.82580005 0 166.91640387 0 4813.00673077 0 271.41589828 0 -120.82342289 0 13668
0.11350000 0.11349100 14258.05411547 0 150.01560727 0 4507.83131412 0 1077.83767394 0 53.60167806 0 13791
0.11450000 0.11448600 14426.79634570 0 -267.91815087 0 4239.61531771 0 956.96553282 0 694.54589846 0 14205
0.11550000 0.11549300 14397.78685468 0 -349.98179350 0 3655.88235327 0 781.90432681 0 785.90807947 0 14776
0.11650000 0.11649800 14754.20499059 0 248.64012613 0 4137.80529100 0 -215.68335130 0 556.92797329 0 14553
0.11750000 0.11747300 14729.18153650 0 388.25882039 0 4031.28952625 0 -14.15585656 0 1093.92133297 0 14568
0.11850000 0.11849100 14210.00022575 0 262.72190883 0 4204.59355431 0 -172.39277573 0 1064.19878422 0 16015
0.11950000 0.11950300 14064.50987764 0 362.41158534 0 3874.70470866 0 -317.40812111 0 1201.71262954 0 15270
0.12050000 0.12050700 13930.97764032 0 -48.05687924 0 4077.94830303 0 322.15039783 0 -24.30452804 0 15999
0.12150000 0.12150000 14014.79513920 0 -198.20125765 0 3263.02519638 0 312.82639310 0 378.61039655 0 15670
0.12250000 0.12250700 13957.66194314 0 -18.78807437 0 3644.58858196 0 184.31988402 0 -880.86544434 0 16887
0.12350000 0.12352200 13975.37766285 0 229.24252028 0 3642.96095021 0 112.86242134 0 -261.01012741 0 16407
0.12450000 0.12449800 13820.03294564 0 393.43181055 0 3601.32900889 0 -447.03957839 0 -91.81913585 0 16306
0.12550000 0.12549900 13332.85065362 0 476.26387252 0 3757.44878883 0 228.49403112 0 1198.33557047 0 17523
0.12650000 0.12650100 13099.99966269 0 327.80724858 0 3964.26874412 0 114.13241700 0 1150.79100770 0 17154
0.12750000 0.12750600 12915.64545445 0 195.51621888 0 4144.70334936 0 287.47187650 0 1194.34953354 0 18007
0.12850000 0.12850300 12689.43785841 0 160.08699393 0 3997.67394810 0 97.88034791 0 1306.61183487 0 17496
0.12950000 0.12949900 12935.02202289 0 71.44572602 0 4330.10942845 0 64.66259839 0 1196.57507083 0 18405
0.13050000 0.13049000 12527.22829982 0 9.17399687 0 3961.37886734 0 85.48742691 0 1212.56350786 0 18100
0.13150000 0.13148800 12690.43436764 0 145.74722605 0 4027.75745463 0 115.04256210 0 489.07787403 0 19059
0.13250000 0.13249300 12493.67915562 0 72.14184308 0 3726.98882326 0 256.49261889 0 1120.77393512 0 18957
0.13350000 0.13349100 12435.21728057 0 92.93168305 0 3714.20028809 0 383.89521718 0 202.40320492 0 19468
0.13450000 0.13450700 12403.43970834 0 34.02458983 0 3586.04920064 0 383.39806980 0 730.29400637 0 19953
0.13550000 0.13551000 12288.39825348 0 31.57395218 0 3213.11115610 0 146.45364038 0 726.80843851 0 19956
0.13650000 0.13649900 12336.00925020 0 110.81625571 0 3275.86909317 0 -95.58284051 0 371.35691656 0 19723
0.13750000 0.13749600 12401.00379688 0 141.63053569 0 3367.20470060 0 -396.04377197 0 428.38492554 0 20946
0.13850000 0.13851100 12233.47952238 0 306.65578648 0 3847.62180215 0 -296.77816551 0 454.17458450 0 20955
0.13950000 0.13949800 11896.54867815 0 306.76983143 0 3724.77435829 0 51.80762927 0 561.07455893 0 20506
0.14050000 0.14048300 11677.42736999 0 272.78775932 0 3982.71523727 0 270.20901487 0 538.98748538 0 21447
0.14150000 0.14148400 11653.51114838 0 73.20124312 0 3804.74976046 0 682.31208676 0 865.49705749 0 21771
0.14250000 0.14249400 11371.38831200 0 137.90469838 0 3481.62610527 0 782.49337449 0 666.39451261 0 22470
0.14350000 0.14350900 11198.77076808 0 223.21031772 0 3058.01003004 0 209.87923863 0 909.26042134 0 22519
0.14450000 0.14449900 11107.75625807 0 16.03084404 0 3089.07897348 0 167.71804019 0 869.70011200 0 22218
0.14550000 0.14550500 11003.60997082 0 259.24298437 0 3052.07526394 0 -116.21955023 0 972.32506181 0 23559
0.14650000 0.14650700 10818.00458989 0 340.09531466 0 3240.74767884 0 -223.27564443 0 695.44718570 0 23044
0.14750000 0.14750500 10535.20634169 0 246.41569607 0 3243.50468772 0 -287.06330771 0 975.06103327 0 23649
0.14850000 0.14849900 10465.70535881 0 178.41833490 0 3748.95631570 0 -112.18811676 0 686.72883713 0 23640
0.14950000 0.14949500 10303.36293232 0 109.67591698 0 3698.06791083 0 52.81565372 0 554.62050079 0 24457
0.15050000 0.15050000 10123.53730494 0 247.11214530 0 4104.49973795 0 180.47114392 0 844.12414890 0 24591
0.15150000 0.15149900 10021.62762731 0 22.33852604 0 3321.92996442 0 554.03698928 0 1112.71328265 0 25020
0.15250000 0.15250500 10041.98963265 0 -169.18512323 0 3436.29600747 0 642.20923350 0 780.39738340 0 25297
0.15350000 0.15350100 10063.74675092 0 -50.44872285 0 2945.30483571 0 397.76330402 0 946.47118336 0 25452
0.15450000 0.15450400 10102.26736896 0 107.01246925 0 2951.40568668 0 312.00925553 0 829.47435593 0 26061
0.15550000 0.15549900 9938.43017862 0 179.52778184 0 2628.48133335 0 -242.07977367 0 993.00595011 0 26128
0.15650000 0.15649500 9862.64011523 0 190.79387234 0 2545.07351049 0 -98.90763820 0 450.06453753 0 26331
0.15750000 0.15749700 9573.72994374 0 280.52177821 0 2720.68058211 0 -127.75248376 0 756.65499729 0 27345
0.15850000 0.15849900 9527.64692785 0 361.02643750 0 2962.75481962 0 -189.30353742 0 592.90527832 0 26980
0.15950000 0.15949700 9165.86978672 0 137.42083779 0 2765.75601645 0 -172.65851152 0 301.30785359 0 27777
0.16050000 0.16050000 9201.36766009 0 75.29236238 0 2843.59445992 0 265.28404479 0 236.16272329 0 28224
0.16150000 0.16150500 9065.11163087 0 95.41276960 0 2695.25852433 0 32.70266497 0 183.87034764 0 28075
0.16250000 0.16249700 8956.51426905 0 215.23160045 0 2820.59724128 0 198.26104820 0 182.15635175 0 28590
0.16350000 0.16349900 8938.11206520 0 -6.97930708 0 2657.97800666 0 99.59212932 0 202.36334455 0 29163
0.16450000 0.16449100 8844.50663119 0 125.19809842 0 2556.45586040 0 75.84697513 0 181.62488016 0 28996
0.16550000 0.16550500 8786.32156426 0 171.78158340 0 2451.88882482 0 118.42294287 0 47.48920115 0 30777
0.16650000 0.16650700 8738.02408340 0 -23.04726556 0 2637.43884413 0 84.47430919 0 188.82632022 0 29211
0.16750000 0.16749900 8792.51099384 0 25.83583056 0 2550.53216662 0 72.92155619 0 93.11349063 0 30922
0.16850000 0.16850800 8642.97924716 0 139.89107346 0 2333.58103413 0 82.31874899 0 10.14905901 0 30867
0.16950000 0.16949900 8595.25752719 0 204.35525578 0 2484.02071144 0 32.63180209 0 -97.20028572 0 30852
0.17050000 0.17049200 8352.16463580 0 137.60131668 0 2254.00423566 0 195.47857298 0 451.58255326 0 31257
0.17150000 0.17149500 8334.58178399 0 62.89113714 0 2094.87278336 0 309.56116451 0 403.24964097 0 32608
0.17250000 0.17250900 8265.02543948 0 -17.62913413 0 1826.73429323 0 473.79474408 0 413.34317227 0 32361
0.17350000 0.17350400 8375.89262789 0 -63.81822290 0 1997.56919286 0 263.04189902 0 558.43823839 0 32508
0.17450000 0.17449800 8268.28070297 0 87.14473249 0 1692.54878875 0 50.50452737 0 454.72598628 0 32791
0.17550000 0.17549800 8310.47733286 0 201.83408742 0 2003.96899660 0 -204.87565505 0 782.82332977 0 33633
0.17650000 0.17650100 8114.85149796 0 97.53810235 0 2120.46092602 0 -376.29074450 0 688.91894298 0 33984
0.17750000 0.17750300 8105.37358792 0 151.30996204 0 2251.74548139 0 -283.95752060 0 231.97184835 0 34069
0.17850000 0.17849800 7937.56143297 0 211.86893540 0 2521.60018187 0 -148.39904785 0 606.50430766 0 34536
