### header ###
fiducial parameters:
Omega_m = 0.31
Omega_nu = 0
Omega_de = 0.69
Omega_k = 0
H_0 = 100
w_de = -1
zeff = 0
beta = 0
fgrowth = 0
b_1 = 2
gamma = 0.55
Lx = 3500 Ly = 3500 Lz = 3500
nx = 700 ny = 700 nz = 700
xoffset = -685.467585 yoffset = -31.7331281 zoffset = 572.489161
bins = 400 dk = 0.001
kx_ny = 0.628318531 ky_ny = 0.628318531 kz_ny = 0.628318531
############################
A(data) = 8.08013091 (not used)
A(ran) = 8.08667264 (used)
Ngal = 480811
weighted Ngal = 0
Nran = 23820508
weighted Nran = 0
SN(data) = 3478.98736
SN(ran) = 70.4378514
SN(data+ran) = 3549.42521
############################
13 columns: k_central k_mean P_0(k) sigma^{lin}_{P_0(k)} P^img_1(k) sigma^{lin}_{P_1(k)} P_2(k) sigma^{lin}_{P_2(k)} P^img_3(k) sigma^{lin}_{P_3(k)} P_4(k) sigma^{lin}_{P_4(k)} N_modes
### header ###
0.00050000 0 0 0 0 0 0 0 0 0 0 0 0
0.00150000 0.00179520 31024.32197210 0 -43990.56795098 0 -36952.66612650 0 -14165.60020323 0 -57684.81928668 0 3
0.00250000 0.00253879 50528.44358664 0 -36222.00341172 0 -13431.06217476 0 -28195.01081119 0 21504.11564653 0 6
0.00350000 0.00331552 67366.12793836 0 -13806.74615586 0 -2952.46862987 0 -34392.19101219 0 72219.12790637 0 7
0.00450000 0.00420575 69786.42742047 0 11829.33966650 0 1704.77263535 0 -44313.54766594 0 27031.30947275 0 24
0.00550000 0.00557378 51872.40237313 0 2072.52883188 0 2779.43033760 0 -10595.53943963 0 -15890.33624023 0 45
0.00650000 0.00659388 51523.40269485 0 -1567.57545852 0 14346.63271402 0 -12345.08855655 0 2941.40737737 0 40
0.00750000 0.00754703 61063.87137483 0 -1550.28048716 0 22612.34463763 0 -31321.28172374 0 -56269.66545161 0 57
0.00850000 0.00846663 52211.65840557 0 7228.79977667 0 24966.76378707 0 -17081.71839072 0 3309.57324992 0 75
0.00950000 0.00948925 65003.62599181 0 -8873.66006243 0 32092.35842411 0 -14630.30567587 0 -3613.09889017 0 112
0.01050000 0.01054430 68407.81225730 0 -13442.24522283 0 41243.96705646 0 19390.07666891 0 -10693.89490099 0 105
0.01150000 0.01145670 86891.50841655 0 -8232.64996171 0 45105.10816722 0 23148.57732860 0 -15353.99282602 0 144
0.01250000 0.01249090 84183.66065891 0 2048.78976747 0 49492.51687661 0 10852.47273705 0 -5493.65575434 0 169
0.01350000 0.01339930 92110.78088957 0 502.72119267 0 49314.03100054 0 -3387.35633177 0 11032.27621978 0 180
0.01450000 0.01448870 83317.69413484 0 8558.47526415 0 43517.55823473 0 8199.75408467 0 1999.30754785 0 267
0.01550000 0.01550050 84981.86455508 0 5182.85559668 0 52867.36148134 0 -4805.76543034 0 26878.73283675 0 238
0.01650000 0.01653350 75465.75498970 0 5048.02789737 0 46819.76838864 0 10296.81918835 0 -1824.88521499 0 315
0.01750000 0.01747870 80107.05210718 0 4769.45927726 0 46053.78495768 0 13999.40460770 0 19152.90747129 0 297
0.01850000 0.01844180 72210.60221626 0 -455.03711861 0 28032.57980610 0 15776.18057135 0 -5229.63616904 0 388
0.01950000 0.01947590 79650.42943166 0 -7582.57162696 0 25888.53482822 0 14881.42600276 0 -10932.13811412 0 399
0.02050000 0.02045430 78602.76605731 0 -4622.98349223 0 14454.47715775 0 12132.16775029 0 -9860.35921632 0 462
0.02150000 0.02154770 78612.62042640 0 2541.09854588 0 17840.94770353 0 7476.12229615 0 -10361.30440809 0 571
0.02250000 0.02255340 77947.28442805 0 6258.98591813 0 6501.04908332 0 -254.43648817 0 -7254.39899166 0 510
0.02350000 0.02348930 70100.99216857 0 10500.28422922 0 13805.52820013 0 -2121.14741016 0 -3938.72489076 0 555
0.02450000 0.02439640 66806.53264203 0 6093.66503627 0 12121.20614872 0 -1314.49533014 0 4121.76149234 0 592
0.02550000 0.02547300 61224.86297770 0 3587.01249290 0 14275.43766543 0 -1949.80318359 0 1334.75768456 0 837
0.02650000 0.02652900 57837.50664593 0 1636.16851078 0 19052.92437818 0 -2443.93889560 0 5680.77804378 0 723
0.02750000 0.02749970 58133.02699534 0 1483.68045337 0 20013.44855620 0 9367.60754492 0 3381.89767563 0 826
0.02850000 0.02848090 58335.53981627 0 -3554.65915978 0 19612.74112101 0 10485.66876046 0 7330.70945431 0 831
0.02950000 0.02946900 58993.23591050 0 -3337.59730403 0 13077.96573630 0 11529.50111041 0 4268.30371131 0 996
0.03050000 0.03053250 62378.15633081 0 -2852.50768140 0 10787.38961176 0 4977.72970709 0 3910.64547502 0 1041
0.03150000 0.03150510 63016.91874960 0 2490.17692404 0 14768.37756636 0 -6319.71761976 0 3599.40242437 0 1036
0.03250000 0.03246190 61317.64905968 0 6169.79834172 0 18691.30224961 0 -10980.08128058 0 6578.44463380 0 1059
0.03350000 0.03345080 56313.73330439 0 6977.96733023 0 18705.69627187 0 -9142.50718135 0 8276.85068238 0 1302
0.03450000 0.03451200 55051.37755181 0 188.21734236 0 26350.47221966 0 -3502.16526781 0 4303.75729538 0 1339
0.03550000 0.03553350 56060.06634279 0 -1835.24891102 0 27931.48948051 0 3390.32371482 0 -1530.82641245 0 1365
0.03650000 0.03647120 56242.53825580 0 350.56309055 0 25303.58390805 0 2474.02240213 0 -9950.55437429 0 1308
0.03750000 0.03744890 53971.38298900 0 3244.83336670 0 21764.31527977 0 8639.27001835 0 1835.25998334 0 1579
0.03850000 0.03847530 50458.90938678 0 823.16091632 0 20212.63967969 0 5192.52173625 0 1165.60577831 0 1662
0.03950000 0.03950240 51112.95161382 0 1763.37845062 0 17195.98478285 0 9537.80024971 0 1045.89844576 0 1683
0.04050000 0.04050350 47303.07536697 0 3725.47191476 0 17261.97583877 0 2176.88549329 0 5942.28421135 0 1822
0.04150000 0.04152450 44697.64661390 0 3645.04254727 0 15066.33382723 0 4563.07114264 0 9734.89870380 0 1887
0.04250000 0.04250150 42927.40332189 0 -765.21390438 0 11493.73750124 0 4091.50082861 0 13172.41266700 0 1920
0.04350000 0.04349210 43932.10607594 0 -2445.26757457 0 11053.54615575 0 3010.80870934 0 11634.90964268 0 2005
0.04450000 0.04448520 43861.57536684 0 228.44420566 0 14469.31407301 0 1812.78316396 0 6745.78067879 0 2151
0.04550000 0.04548030 43491.20610166 0 3235.79834965 0 12514.82729602 0 -4491.17853759 0 6384.40214135 0 2274
0.04650000 0.04648670 40872.49055880 0 4286.80556609 0 14426.90706895 0 -5051.74819851 0 6103.37546513 0 2311
0.04750000 0.04749250 38556.60309973 0 1033.87168655 0 17807.39855933 0 -3907.76667057 0 8603.10780549 0 2568
0.04850000 0.04851840 39513.91630355 0 472.67311758 0 23480.08273367 0 -733.69321009 0 7203.86490118 0 2493
0.04950000 0.04949480 38354.09027880 0 333.72319173 0 22022.85406429 0 1650.51824374 0 4818.75326735 0 2644
0.05050000 0.05050630 37604.60461182 0 1276.36224347 0 21430.15251675 0 1943.87948981 0 3668.61552681 0 2829
0.05150000 0.05149060 36905.71946927 0 1831.42895895 0 22501.28921970 0 1386.24399497 0 824.60806917 0 2784
0.05250000 0.05249300 36510.43747325 0 -70.62869917 0 19619.27379266 0 1528.70052609 0 -589.45182021 0 3055
0.05350000 0.05348950 34815.92888300 0 865.91559137 0 19677.84639095 0 782.46347921 0 -853.19791909 0 3009
0.05450000 0.05448610 34615.63052703 0 353.40092740 0 17035.10390323 0 1757.02293617 0 -2783.79283358 0 3336
0.05550000 0.05550870 35200.80289370 0 -1107.85253205 0 14484.59388126 0 3980.58935090 0 -2171.99152572 0 3349
0.05650000 0.05647670 36138.07518959 0 -708.05634920 0 14454.14498801 0 2933.56817140 0 -3502.79639033 0 3324
0.05750000 0.05747970 36099.32205273 0 -615.77073630 0 11892.23047147 0 2993.36979775 0 -2869.45941070 0 3639
0.05850000 0.05849280 36165.31310865 0 912.23112609 0 13621.72760814 0 195.10765009 0 -1239.59105275 0 3846
0.05950000 0.05951020 34834.75183519 0 1885.25152990 0 13627.92811004 0 359.66564878 0 1125.52396247 0 3787
0.06050000 0.06049470 33868.91294126 0 699.60927260 0 15725.02643069 0 613.44001193 0 4308.15300834 0 3930
0.06150000 0.06148310 33541.61501962 0 640.16085341 0 13862.55067295 0 2486.93273287 0 4514.85116805 0 4083
0.06250000 0.06249100 32728.35276169 0 335.73946208 0 14181.43362772 0 4023.48353725 0 5747.52201779 0 4303
0.06350000 0.06350600 32569.35417730 0 374.28443924 0 11346.80775090 0 2934.11071532 0 5924.12559864 0 4470
0.06450000 0.06451750 31895.27104234 0 433.75943200 0 10738.10669400 0 2252.84164155 0 6959.67584963 0 4479
0.06550000 0.06550280 31891.61717515 0 679.25612511 0 8368.83955698 0 2285.02888980 0 7562.30927254 0 4636
0.06650000 0.06648880 30572.12822651 0 623.35527880 0 8939.95007112 0 405.30023552 0 7160.09600117 0 4653
0.06750000 0.06749660 30254.90612045 0 1217.05887174 0 8163.09361720 0 -558.15367964 0 5479.05135791 0 5220
0.06850000 0.06852730 29414.62738997 0 957.02310891 0 8515.13818481 0 -471.48284266 0 6618.42679872 0 5029
0.06950000 0.06949320 28740.10136202 0 637.57435833 0 10787.84357708 0 -997.32194232 0 7615.48964864 0 5040
0.07050000 0.07048030 28844.29193856 0 -233.16101603 0 10512.59665441 0 873.84226871 0 5640.24226262 0 5475
0.07150000 0.07148790 28993.32543062 0 353.60022925 0 9340.02638379 0 2271.21062842 0 6449.64027919 0 5509
0.07250000 0.07249820 28518.87631214 0 323.48793467 0 9130.43834730 0 1203.31811664 0 5920.11741706 0 5916
0.07350000 0.07351270 28512.56508699 0 395.55769691 0 9735.40803074 0 84.06352593 0 5925.16639718 0 5721
0.07450000 0.07449140 27402.56452392 0 1062.74941691 0 10222.28029767 0 -975.53825047 0 5288.83988985 0 6028
0.07550000 0.07549160 26177.96539898 0 1465.95366134 0 10697.05051357 0 -780.31101927 0 5926.09647246 0 6183
0.07650000 0.07648840 25839.59515252 0 848.69480458 0 10621.37117343 0 -191.65529922 0 5104.95071926 0 6330
0.07750000 0.07749960 25129.74840840 0 -216.40969581 0 10607.05465744 0 1400.26155819 0 4365.44121695 0 6583
0.07850000 0.07848650 25498.34610161 0 -220.21525385 0 9537.34628439 0 1269.09879839 0 3184.42276249 0 6549
0.07950000 0.07947320 25493.36355544 0 66.08362055 0 9584.79119624 0 1266.31964486 0 3450.12534117 0 6828
0.08050000 0.08048110 25581.83143075 0 242.53373899 0 8649.57835275 0 -141.39248070 0 1309.47956700 0 7147
0.08150000 0.08149960 24721.40106909 0 1143.97045561 0 9611.94053669 0 591.22449941 0 2641.30308549 0 7386
0.08250000 0.08250610 23998.59970493 0 1323.13174350 0 9277.72241204 0 -718.48537195 0 2378.41287732 0 7227
0.08350000 0.08350160 22783.19060958 0 716.38384470 0 10200.70033660 0 231.21339410 0 4232.36294495 0 7798
0.08450000 0.08449610 22306.41630289 0 459.99419843 0 10200.36816685 0 1002.71970067 0 2462.33002712 0 7371
0.08550000 0.08548940 21638.53366983 0 489.52187425 0 9303.43235027 0 1445.08232906 0 3758.99891431 0 8256
0.08650000 0.08650700 21440.11760908 0 250.08174282 0 8460.66234670 0 1300.01272928 0 3093.54112038 0 8037
0.08750000 0.08749060 21450.41487116 0 14.40941280 0 8208.72266777 0 703.47905012 0 3185.23104220 0 8155
0.08850000 0.08849210 21227.30752607 0 86.42636005 0 8377.22130686 0 366.37215592 0 4263.94121534 0 8718
0.08950000 0.08949900 21138.72892752 0 352.60814894 0 8360.16992664 0 -61.32108148 0 2886.76545439 0 8571
0.09050000 0.09049190 20471.17846420 0 509.89273746 0 8050.23341032 0 412.24036872 0 3056.67027873 0 8932
0.09150000 0.09150830 20545.69521023 0 996.30328844 0 8108.72850234 0 -200.77225147 0 2966.19831264 0 9285
0.09250000 0.09250820 19870.94773578 0 213.33823291 0 8372.43806254 0 54.73659136 0 3905.85115838 0 9204
0.09350000 0.09350330 19879.25197940 0 -245.48894248 0 8305.47264204 0 470.39664760 0 2394.01378299 0 9349
0.09450000 0.09448040 19990.75029032 0 -4.76837419 0 8119.15863232 0 94.79914136 0 2110.44047206 0 9564
0.09550000 0.09549270 19609.53014682 0 503.58372677 0 8156.60523485 0 191.42610209 0 1097.54641211 0 10155
0.09650000 0.09649430 18946.85150642 0 740.69645553 0 7347.32901386 0 119.87563188 0 1421.84151926 0 9913
0.09750000 0.09749140 18721.52969636 0 333.53939114 0 7262.71430759 0 551.35084327 0 1341.04676506 0 10476
0.09850000 0.09850240 18415.82280812 0 256.10619475 0 6960.78308211 0 651.28411093 0 1748.86263278 0 10575
0.09950000 0.09950330 18149.75484273 0 423.89288336 0 6694.61546580 0 752.40211733 0 1109.32515126 0 10882
0.10050000 0.10051200 17501.69167109 0 399.23481599 0 5798.57650753 0 1009.46606818 0 2105.77902331 0 10875
0.10150000 0.10150300 17323.31651826 0 289.90446626 0 5489.30433069 0 1022.54026933 0 1547.44597200 0 11118
0.10250000 0.10250800 16867.57962873 0 226.65159627 0 5736.92580293 0 418.64460139 0 778.17738228 0 11575
0.10350000 0.10349800 16351.27712243 0 573.23418605 0 5405.34289159 0 -261.49952417 0 585.04392770 0 11364
0.10450000 0.10450100 16098.60667007 0 666.82965497 0 5492.70353441 0 -863.22833814 0 326.48299853 0 12093
0.10550000 0.10551000 15742.29925741 0 263.11276190 0 5674.95400092 0 -671.10578682 0 779.96777720 0 12067
0.10650000 0.10649700 15733.21995106 0 -76.67175261 0 6169.83155869 0 -183.30676630 0 110.71671551 0 12054
0.10750000 0.10749900 15932.96469078 0 -97.10384577 0 6090.19939860 0 -60.55022623 0 -70.94979659 0 12807
0.10850000 0.10850100 16219.62718034 0 -117.05108182 0 7093.23023159 0 417.74109969 0 658.88304745 0 12736
0.10950000 0.10950300 16176.00222055 0 164.05088621 0 6479.70164107 0 669.30099787 0 158.21134210 0 12933
0.11050000 0.11050200 16026.30438901 0 446.08735846 0 6963.73939284 0 429.76675167 0 1333.21863141 0 13428
0.11150000 0.11150900 15737.20598799 0 243.61439789 0 6487.62942564 0 552.79245997 0 1556.58063998 0 13453
0.11250000 0.11250000 15260.87457429 0 314.89581061 0 6124.18036347 0 818.52050499 0 2145.26293361 0 13668
0.11350000 0.11349100 15377.02326164 0 183.70758446 0 6468.13106163 0 583.03319351 0 1490.76674126 0 13791
0.11450000 0.11448600 14782.21797238 0 149.75983657 0 5679.20577366 0 505.86684015 0 1282.60703467 0 14205
0.11550000 0.11549300 14681.68126303 0 358.94926937 0 5211.97581096 0 609.03876281 0 1291.02200153 0 14776
0.11650000 0.11649800 14329.24916405 0 250.15482016 0 4878.01234978 0 132.29656586 0 1349.14063450 0 14553
0.11750000 0.11747300 14195.16331050 0 103.92572653 0 4956.94695341 0 298.53645069 0 1694.69681977 0 14568
0.11850000 0.11849100 14196.04909648 0 -51.08073115 0 4830.29062981 0 525.89003235 0 1468.68852557 0 16015
0.11950000 0.11950300 14151.87052046 0 93.18601435 0 5072.51987987 0 230.74835645 0 1828.89339657 0 15270
0.12050000 0.12050700 14202.69249137 0 98.15084480 0 5203.14009575 0 346.44750741 0 1772.40239534 0 15999
0.12150000 0.12150000 13951.68288774 0 362.45144571 0 4846.19048825 0 1.11285722 0 2175.55681432 0 15670
0.12250000 0.12250700 13746.06981585 0 245.72699747 0 4938.54474956 0 -295.23468343 0 1868.55446407 0 16887
0.12350000 0.12352200 13657.15904756 0 187.72573114 0 4653.97492940 0 315.15822471 0 1754.24378264 0 16407
0.12450000 0.12449800 13255.67654964 0 88.33877199 0 4114.11051589 0 415.48677435 0 1191.37107816 0 16306
0.12550000 0.12549900 13216.81268952 0 113.93422238 0 4103.27070989 0 697.93845878 0 1167.05625286 0 17523
0.12650000 0.12650100 13198.43263032 0 55.65504070 0 3619.90836993 0 494.70040057 0 1085.48422146 0 17154
0.12750000 0.12750600 12755.87180732 0 321.76840262 0 3319.48298063 0 502.58278861 0 628.13298696 0 18007
0.12850000 0.12850300 12724.98002108 0 365.88275917 0 3187.83303854 0 -85.61232273 0 1406.88280843 0 17496
0.12950000 0.12949900 12490.68962791 0 152.34411718 0 3470.60914208 0 -342.33856767 0 1426.15972594 0 18405
0.13050000 0.13049000 12300.79925728 0 215.84057832 0 3895.17743725 0 97.29572916 0 1610.17069210 0 18100
0.13150000 0.13148800 12325.37981837 0 92.56662850 0 3970.84570506 0 -209.07649509 0 1560.36737507 0 19059
0.13250000 0.13249300 12263.04262964 0 100.38479706 0 3713.27021281 0 466.05408180 0 1357.73275856 0 18957
0.13350000 0.13349100 12074.37021473 0 144.84593881 0 3779.34984732 0 143.13858633 0 1717.21792845 0 19468
0.13450000 0.13450700 12040.15673104 0 53.28667042 0 3444.95456548 0 651.19110340 0 1130.38471306 0 19953
0.13550000 0.13551000 11983.46642797 0 165.35742054 0 3455.60614195 0 405.50950246 0 709.70834006 0 19956
0.13650000 0.13649900 11823.47133434 0 269.55242601 0 2814.61818587 0 146.16243823 0 942.89039351 0 19723
0.13750000 0.13749600 11340.71797225 0 208.10323773 0 2912.82970702 0 108.50391140 0 1030.75925604 0 20946
0.13850000 0.13851100 11403.38733072 0 150.15290410 0 2579.19841558 0 82.73783648 0 783.78440756 0 20955
0.13950000 0.13949800 11244.72091607 0 97.79974138 0 2663.84633882 0 251.76584342 0 802.04820735 0 20506
0.14050000 0.14048300 11193.56677541 0 117.04997459 0 2596.81448437 0 -37.60969788 0 502.93931747 0 21447
0.14150000 0.14148400 11108.08842781 0 0.49724814 0 2624.82746616 0 -65.16339964 0 658.28735637 0 21771
0.14250000 0.14249400 11150.27398537 0 204.42058250 0 2977.92390462 0 -187.65265379 0 669.41725728 0 22470
0.14350000 0.14350900 10929.37003291 0 287.12752720 0 2735.40677412 0 -92.74389642 0 569.74418926 0 22519
0.14450000 0.14449900 10745.09333096 0 222.50833232 0 2703.78421444 0 -99.63043957 0 431.52946578 0 22218
0.14550000 0.14550500 10641.76639575 0 119.19136221 0 2803.34655921 0 -30.68761257 0 452.57684803 0 23559
0.14650000 0.14650700 10462.10685324 0 26.28780286 0 2747.03271518 0 280.53727947 0 91.84604160 0 23044
0.14750000 0.14750500 10474.37498914 0 92.81110543 0 2444.47036719 0 -27.60241999 0 -506.17797248 0 23649
0.14850000 0.14849900 10356.17792170 0 221.44096021 0 2643.24074233 0 -123.08217715 0 -462.57847904 0 23640
0.14950000 0.14949500 10230.30773316 0 160.19550271 0 2499.92056988 0 -281.11968375 0 -474.51333796 0 24457
0.15050000 0.15050000 10060.66864462 0 123.04785294 0 2643.10787443 0 192.32074594 0 -169.92696899 0 24591
0.15150000 0.15149900 10154.81662255 0 -36.23827973 0 2805.87104927 0 17.93085498 0 -539.17571490 0 25020
0.15250000 0.15250500 10149.44654501 0 46.82464021 0 3032.93121432 0 5.45436007 0 -584.86898497 0 25297
0.15350000 0.15350100 9990.18222482 0 288.62229105 0 3035.34498113 0 118.24357120 0 -212.08706020 0 25452
0.15450000 0.15450400 9769.89832255 0 281.90471158 0 2802.13967580 0 17.23086261 0 -191.54457597 0 26061
0.15550000 0.15549900 9597.29185096 0 128.88961152 0 2796.83603222 0 -137.55813462 0 -7.87067352 0 26128
0.15650000 0.15649500 9535.99546076 0 140.36275449 0 3050.90159750 0 226.04815457 0 43.74420872 0 26331
0.15750000 0.15749700 9319.62008915 0 214.71341565 0 2962.32299896 0 304.09365052 0 244.16137074 0 27345
0.15850000 0.15849900 9159.91287597 0 94.92038331 0 2635.77799540 0 297.76913858 0 11.10377022 0 26980
0.15950000 0.15949700 9118.35844093 0 18.06161914 0 2514.36995377 0 456.79761825 0 315.74727239 0 27777
0.16050000 0.16050000 9131.35735026 0 -13.23120671 0 2366.60977906 0 353.14737116 0 431.46192460 0 28224
0.16150000 0.16150500 9056.43092821 0 93.00730703 0 2568.59112840 0 166.37607442 0 710.05711829 0 28075
0.16250000 0.16249700 9112.43474715 0 105.11279048 0 2555.40398955 0 57.37069743 0 896.87159710 0 28590
0.16350000 0.16349900 8980.31976741 0 93.94823319 0 2664.64354621 0 19.71626736 0 850.27703980 0 29163
0.16450000 0.16449100 8891.17648030 0 160.24975710 0 2459.46229499 0 -157.23476305 0 791.93363863 0 28996
0.16550000 0.16550500 8821.12188117 0 84.04581021 0 2790.76839821 0 66.43472397 0 803.49978914 0 30777
0.16650000 0.16650700 8774.61811693 0 216.41633921 0 2533.95689637 0 -53.57145062 0 673.55387783 0 29211
0.16750000 0.16749900 8535.37839457 0 130.53606622 0 2539.57056505 0 173.98719050 0 555.99014737 0 30922
0.16850000 0.16850800 8411.10262081 0 168.26833473 0 2135.04317781 0 218.34624542 0 572.95737793 0 30867
0.16950000 0.16949900 8284.56809278 0 102.11163684 0 2045.14697260 0 423.26618977 0 235.70322181 0 30852
0.17050000 0.17049200 8158.16643265 0 156.02787965 0 1963.59930031 0 113.98736954 0 357.62391208 0 31257
0.17150000 0.17149500 8039.61505082 0 162.57494531 0 1836.98726601 0 -5.75097658 0 464.95127825 0 32608
0.17250000 0.17250900 8039.80328034 0 -24.03668850 0 1926.85025424 0 110.31711531 0 706.83175008 0 32361
0.17350000 0.17350400 8027.07010680 0 -87.56038756 0 1714.56057049 0 21.76819059 0 607.87949040 0 32508
0.17450000 0.17449800 8193.53143812 0 5.51325377 0 2055.95356163 0 -145.86237823 0 667.93245852 0 32791
0.17550000 0.17549800 8137.79335499 0 227.47648447 0 2036.83165666 0 -41.52741857 0 633.25393719 0 33633
0.17650000 0.17650100 7933.22108164 0 228.76419585 0 2227.07634170 0 -218.23662941 0 660.83731278 0 33984
0.17750000 0.17750300 7721.60680970 0 179.89759749 0 2193.00679823 0 117.62130655 0 964.67076366 0 34069
0.17850000 0.17849800 7722.66975289 0 -67.60717245 0 2089.23697003 0 343.55209447 0 499.02746511 0 34536
