### header ###
fiducial parameters:
Omega_m = 0.31
Omega_nu = 0
Omega_de = 0.69
Omega_k = 0
H_0 = 100
w_de = -1
zeff = 0
beta = 0
fgrowth = 0
b_1 = 2
gamma = 0.55
Lx = 3500 Ly = 3500 Lz = 3500
nx = 700 ny = 700 nz = 700
xoffset = -685.467585 yoffset = -31.7331281 zoffset = 572.489161
bins = 400 dk = 0.001
kx_ny = 0.628318531 ky_ny = 0.628318531 kz_ny = 0.628318531
############################
A(data) = 8.08689714 (not used)
A(ran) = 8.08546658 (used)
Ngal = 481298
weighted Ngal = 0
Nran = 23820508
weighted Nran = 0
SN(data) = 3489.17591
SN(ran) = 70.4273462
SN(data+ran) = 3559.60326
############################
13 columns: k_central k_mean P_0(k) sigma^{lin}_{P_0(k)} P^img_1(k) sigma^{lin}_{P_1(k)} P_2(k) sigma^{lin}_{P_2(k)} P^img_3(k) sigma^{lin}_{P_3(k)} P_4(k) sigma^{lin}_{P_4(k)} N_modes
### header ###
0.00050000 0 0 0 0 0 0 0 0 0 0 0 0
0.00150000 0.00179520 69939.33622621 0 -57070.30525925 0 19390.63028515 0 72853.57211848 0 -136347.92951426 0 3
0.00250000 0.00253879 104613.87152128 0 -35810.99871445 0 4131.15082379 0 -54874.66324771 0 35855.73090672 0 6
0.00350000 0.00331552 92709.24004601 0 -63.94954067 0 -40670.30990761 0 -3619.91944226 0 50760.51951484 0 7
0.00450000 0.00420575 65979.42997807 0 17348.78286534 0 -55020.15359582 0 11986.45595567 0 12689.65930491 0 24
0.00550000 0.00557378 62214.17520024 0 -9060.33945888 0 -54142.89330044 0 -6222.11507649 0 -20580.79447991 0 45
0.00650000 0.00659388 72987.87941853 0 -25840.81310825 0 -43975.95248222 0 -41553.88142814 0 -7698.88639917 0 40
0.00750000 0.00754703 66709.31763012 0 350.01390324 0 -31467.43641134 0 -27521.48129248 0 34835.96979092 0 57
0.00850000 0.00846663 90931.79974288 0 1667.31496049 0 -90.13946418 0 -50733.28159579 0 44289.07782809 0 75
0.00950000 0.00948925 89629.36217446 0 -7146.65419884 0 16874.00157712 0 -443.66694825 0 45621.29995027 0 112
0.01050000 0.01054430 90145.88612725 0 -465.27237567 0 28953.68650777 0 25357.17396017 0 54355.26049046 0 105
0.01150000 0.01145670 96454.56463917 0 -1324.09503576 0 36755.13585174 0 23518.28225429 0 32963.63966409 0 144
0.01250000 0.01249090 102998.75149998 0 5318.80160081 0 40843.37034453 0 27875.35279368 0 5662.64157573 0 169
0.01350000 0.01339930 89666.23301611 0 16633.73212856 0 31878.33038536 0 7974.34369601 0 22634.37856402 0 180
0.01450000 0.01448870 81227.01776258 0 12252.41319782 0 44573.74729918 0 6974.95565788 0 57104.62946618 0 267
0.01550000 0.01550050 82515.83637147 0 -4175.28511051 0 39561.85947002 0 15327.19779996 0 47118.38898900 0 238
0.01650000 0.01653350 77557.53859443 0 6519.62844436 0 47326.32724909 0 20392.45423474 0 16407.52453251 0 315
0.01750000 0.01747870 79604.92217665 0 4482.67499213 0 30825.68446486 0 10310.64852205 0 13559.39041941 0 297
0.01850000 0.01844180 74219.01121512 0 -1036.15147823 0 39695.17026083 0 11359.87309419 0 24120.50600118 0 388
0.01950000 0.01947590 71829.71424250 0 -4408.32433097 0 35866.47106179 0 396.33165242 0 3232.50986918 0 399
0.02050000 0.02045430 77335.20631208 0 -911.54464195 0 26237.09161351 0 10165.30211415 0 -8098.49767420 0 462
0.02150000 0.02154770 74414.32702492 0 828.97167238 0 17825.44644879 0 -6822.10221376 0 -4835.81571989 0 571
0.02250000 0.02255340 77867.23151961 0 -168.56728750 0 14361.91252227 0 5812.80444492 0 -14114.99967881 0 510
0.02350000 0.02348930 76585.72064510 0 -3335.63750254 0 8733.31834536 0 1300.40026065 0 -9790.44855742 0 555
0.02450000 0.02439640 74368.15543042 0 5793.46109346 0 12327.59428334 0 5417.01312195 0 -15046.40364255 0 592
0.02550000 0.02547300 72562.14852925 0 4998.33530358 0 8726.09918958 0 3559.05487273 0 -17389.97191367 0 837
0.02650000 0.02652900 66132.44950707 0 6388.72034803 0 19104.74285833 0 -6541.57379216 0 -9305.01569272 0 723
0.02750000 0.02749970 66205.30540437 0 2477.46589515 0 22568.83040109 0 -4638.18579421 0 -1106.50392289 0 826
0.02850000 0.02848090 59886.77252336 0 5053.56405978 0 22613.34114687 0 -1504.95038935 0 2639.01111425 0 831
0.02950000 0.02946900 60720.62930546 0 362.72382490 0 23384.63929373 0 7974.08903254 0 8063.84129752 0 996
0.03050000 0.03053250 58657.74446849 0 -200.07801671 0 23606.97157609 0 6638.06910295 0 1598.42295547 0 1041
0.03150000 0.03150510 61594.67862664 0 126.77590471 0 23711.27287588 0 286.48311789 0 6656.68168097 0 1036
0.03250000 0.03246190 56653.65367632 0 1545.81834026 0 22734.14021064 0 3552.48898411 0 -2781.35692212 0 1059
0.03350000 0.03345080 56955.48525088 0 5647.11817633 0 23585.38054269 0 -6464.54362839 0 1471.11336470 0 1302
0.03450000 0.03451200 53062.01295165 0 59.25830737 0 23916.44305477 0 1040.77085214 0 -3144.62882709 0 1339
0.03550000 0.03553350 51390.53479702 0 -271.50115518 0 22600.05435708 0 6079.07171216 0 -2573.20828785 0 1365
0.03650000 0.03647120 52617.45911018 0 1007.68785282 0 15662.46779546 0 1900.06630050 0 -8343.68323499 0 1308
0.03750000 0.03744890 50631.52693071 0 499.83463759 0 18044.78920344 0 3067.57651868 0 -8303.02565825 0 1579
0.03850000 0.03847530 51132.88179849 0 2370.92798574 0 13224.89548664 0 1405.91951617 0 -8572.39317644 0 1662
0.03950000 0.03950240 49804.97788299 0 860.10040638 0 15205.73439670 0 -457.01795752 0 -10827.31641506 0 1683
0.04050000 0.04050350 47231.65887189 0 2288.63846769 0 15770.97657869 0 -1664.77939811 0 -2765.94424597 0 1822
0.04150000 0.04152450 48141.80397199 0 2544.30952008 0 20241.20627772 0 -2322.07688864 0 -8245.02882085 0 1887
0.04250000 0.04250150 45843.07861639 0 271.34392817 0 16936.11731935 0 3973.82416044 0 -3804.82726673 0 1920
0.04350000 0.04349210 44686.46356583 0 1255.20303074 0 18794.60704016 0 2337.75530058 0 -5626.40185660 0 2005
0.04450000 0.04448520 45288.46586622 0 1513.56465806 0 18145.99025229 0 4418.97590745 0 -3551.55890883 0 2151
0.04550000 0.04548030 42615.93882474 0 1692.11696808 0 14543.16647955 0 4288.77643990 0 -1528.29085007 0 2274
0.04650000 0.04648670 39861.47657961 0 1199.13277786 0 13357.43121472 0 4285.01184947 0 2203.56979611 0 2311
0.04750000 0.04749250 39099.58990884 0 504.13512855 0 13081.17671049 0 3712.72766889 0 -773.97100608 0 2568
0.04850000 0.04851840 38141.05874929 0 1360.78872021 0 11272.62317462 0 -321.66321554 0 -3859.84564875 0 2493
0.04950000 0.04949480 36111.28016353 0 953.08579020 0 9854.69018601 0 -386.36102392 0 360.37427757 0 2644
0.05050000 0.05050630 37822.95085725 0 -1702.61353201 0 9080.96720001 0 -1682.65013036 0 -2083.39078253 0 2829
0.05150000 0.05149060 39180.08571027 0 -1460.88253657 0 11541.90211421 0 470.52176487 0 -2457.79037394 0 2784
0.05250000 0.05249300 39530.52479078 0 1318.02740176 0 10735.67078254 0 -164.79937537 0 -3803.88611912 0 3055
0.05350000 0.05348950 38472.01053812 0 1089.58762503 0 9100.12232195 0 -192.51118992 0 -3467.17672139 0 3009
0.05450000 0.05448610 37125.83728667 0 1310.84146295 0 8935.67615374 0 1585.06973174 0 -2362.76768235 0 3336
0.05550000 0.05550870 35854.84512073 0 1888.37392550 0 11711.53013043 0 825.88470822 0 -3045.80832809 0 3349
0.05650000 0.05647670 34811.05706008 0 824.24600415 0 10594.12218205 0 1319.35608074 0 -468.40030743 0 3324
0.05750000 0.05747970 34597.02902134 0 254.73211924 0 11277.27355104 0 -894.16441368 0 -898.24013645 0 3639
0.05850000 0.05849280 34113.16842676 0 473.09829485 0 12310.43217987 0 -1969.34583689 0 2355.28279077 0 3846
0.05950000 0.05951020 34157.67917253 0 593.48657537 0 14990.70984872 0 -3114.74462241 0 49.92500188 0 3787
0.06050000 0.06049470 33604.94871758 0 346.70327812 0 15811.83345727 0 -239.68040088 0 2625.42537170 0 3930
0.06150000 0.06148310 34548.86440837 0 529.07554020 0 17137.96580080 0 1421.66436206 0 -125.31435783 0 4083
0.06250000 0.06249100 33135.92503827 0 323.54993969 0 16177.22017628 0 960.67143994 0 640.90491364 0 4303
0.06350000 0.06350600 34427.51172836 0 612.20987664 0 16580.69569267 0 416.55746816 0 -960.56957455 0 4470
0.06450000 0.06451750 33231.25775496 0 564.60773778 0 14265.80474284 0 -231.59428207 0 1675.89601223 0 4479
0.06550000 0.06550280 32722.26298304 0 353.43857330 0 13615.41638299 0 1859.24263890 0 -723.34833701 0 4636
0.06650000 0.06648880 33113.22677239 0 -439.49046733 0 12975.54673172 0 541.47100784 0 -426.00991186 0 4653
0.06750000 0.06749660 32685.50286464 0 -144.04319526 0 12059.53329948 0 1372.09356385 0 -2763.56369614 0 5220
0.06850000 0.06852730 32420.20996199 0 793.22467171 0 12361.58632053 0 1094.06416596 0 -3087.21882291 0 5029
0.06950000 0.06949320 31870.69048124 0 1592.41068309 0 9808.67360407 0 803.77881172 0 -4645.58210718 0 5040
0.07050000 0.07048030 30162.00931523 0 1003.86015013 0 10806.37864883 0 105.27034966 0 -2873.68903878 0 5475
0.07150000 0.07148790 29365.79843752 0 830.96579808 0 10178.66641021 0 98.65031737 0 -4290.01654028 0 5509
0.07250000 0.07249820 28826.90838859 0 1132.92027544 0 12472.75246171 0 30.45808328 0 -4298.88547246 0 5916
0.07350000 0.07351270 27365.14006604 0 749.45245000 0 10593.76786766 0 224.31755020 0 -3596.30217342 0 5721
0.07450000 0.07449140 26556.63890778 0 1288.29820962 0 10134.39925558 0 865.32100753 0 -3334.23131729 0 6028
0.07550000 0.07549160 26649.09282001 0 -330.15679591 0 9833.74134746 0 539.17017874 0 -2906.56277117 0 6183
0.07650000 0.07648840 26925.12587774 0 -404.75658437 0 10671.73917903 0 2248.43485627 0 -2616.61180114 0 6330
0.07750000 0.07749960 27342.44180016 0 27.56709927 0 9870.05857286 0 890.62791313 0 -2556.37835413 0 6583
0.07850000 0.07848650 26791.59364043 0 160.95727866 0 10098.69100804 0 -522.22066391 0 -173.60630253 0 6549
0.07950000 0.07947320 27119.77734805 0 1027.71215225 0 10877.04222582 0 -705.27941014 0 -521.26733674 0 6828
0.08050000 0.08048110 25909.46152213 0 1141.74491832 0 11902.63845680 0 -1557.14532855 0 819.67091953 0 7147
0.08150000 0.08149960 25003.85607521 0 1084.64715370 0 12516.93103774 0 998.38931443 0 -232.44906555 0 7386
0.08250000 0.08250610 24190.92598703 0 511.56687297 0 10835.14454871 0 2446.50767495 0 1880.66758742 0 7227
0.08350000 0.08350160 24074.99874618 0 -246.25404013 0 10090.12102863 0 2617.63045503 0 -350.49554937 0 7798
0.08450000 0.08449610 24283.26917601 0 -5.62765303 0 9120.22966382 0 2226.46736383 0 500.70270786 0 7371
0.08550000 0.08548940 23835.17219060 0 880.08705991 0 7725.84751011 0 360.74630768 0 -1216.72670200 0 8256
0.08650000 0.08650700 22398.64876863 0 939.42586308 0 6759.03425159 0 -570.58236425 0 -315.66755165 0 8037
0.08750000 0.08749060 21953.09841793 0 762.09150878 0 7815.26760534 0 -830.47307963 0 -801.29750373 0 8155
0.08850000 0.08849210 21331.49810261 0 671.98492941 0 8017.73613698 0 -1126.55368867 0 -3033.38517964 0 8718
0.08950000 0.08949900 20786.29682854 0 427.21015187 0 7805.40216393 0 229.88139342 0 -1361.43091505 0 8571
0.09050000 0.09049190 20563.96454618 0 4.77468541 0 7232.56436711 0 516.71107508 0 -2707.69274510 0 8932
0.09150000 0.09150830 20680.77757302 0 -33.00294642 0 6902.32120707 0 1013.41113751 0 -2524.29075680 0 9285
0.09250000 0.09250820 20578.35856845 0 -93.12644525 0 6810.22160923 0 724.99700617 0 -2518.21205048 0 9204
0.09350000 0.09350330 20532.18697395 0 203.52704589 0 6833.17453858 0 479.63207373 0 -2877.81901594 0 9349
0.09450000 0.09448040 20304.20780594 0 316.57658952 0 6861.69684731 0 275.98766120 0 -1694.04355260 0 9564
0.09550000 0.09549270 20202.45314085 0 742.26318949 0 7533.17798594 0 -409.77013305 0 -865.61663860 0 10155
0.09650000 0.09649430 19544.20343039 0 1049.03302092 0 8375.87048324 0 -450.51739562 0 -105.10249322 0 9913
0.09750000 0.09749140 18747.88182943 0 841.98497574 0 9025.32876780 0 -67.86427183 0 1691.82908764 0 10476
0.09850000 0.09850240 18396.44623968 0 290.92533461 0 9033.68837304 0 941.80752014 0 1748.28687189 0 10575
0.09950000 0.09950330 18120.96679820 0 404.91934755 0 9151.42040283 0 1617.30126929 0 1870.45890394 0 10882
0.10050000 0.10051200 17650.72516315 0 370.01273632 0 8964.67457244 0 592.19443507 0 2293.18919319 0 10875
0.10150000 0.10150300 17214.91845829 0 285.74237936 0 8269.65367125 0 1298.48474846 0 1691.84015996 0 11118
0.10250000 0.10250800 16791.84492697 0 115.95824336 0 7500.78036352 0 331.22748972 0 1674.17980188 0 11575
0.10350000 0.10349800 16641.92564892 0 111.60460524 0 7296.61776619 0 831.91580355 0 1199.71961107 0 11364
0.10450000 0.10450100 16620.33461553 0 54.66661426 0 6289.50124533 0 37.06992205 0 126.37508655 0 12093
0.10550000 0.10551000 16006.70637408 0 356.20886897 0 5667.67948352 0 705.51082172 0 461.94071313 0 12067
0.10650000 0.10649700 16129.83062606 0 316.82903852 0 5222.39486861 0 886.22002062 0 262.65990381 0 12054
0.10750000 0.10749900 15738.97755996 0 13.89200306 0 4547.61417719 0 940.65378390 0 -350.96501594 0 12807
0.10850000 0.10850100 15929.08937710 0 -98.49087590 0 4316.15829918 0 100.50227442 0 -282.60005358 0 12736
0.10950000 0.10950300 15914.47390834 0 -44.34056414 0 4388.52701420 0 279.98919939 0 302.06852231 0 12933
0.11050000 0.11050200 16000.28442568 0 -54.51204461 0 5091.12138556 0 -237.58662426 0 1142.97394638 0 13428
0.11150000 0.11150900 16078.89793189 0 285.24080305 0 4949.29597696 0 399.90579887 0 510.26144587 0 13453
0.11250000 0.11250000 15892.43998195 0 296.70508817 0 5304.80618224 0 73.13414483 0 961.54615360 0 13668
0.11350000 0.11349100 15281.35837521 0 590.10176567 0 4953.45917109 0 553.15120329 0 736.35167527 0 13791
0.11450000 0.11448600 15299.73843441 0 149.30365678 0 4885.05434836 0 589.80834907 0 1195.70035717 0 14205
0.11550000 0.11549300 14730.17804573 0 177.23359614 0 4608.99914598 0 2.01088920 0 999.59066168 0 14776
0.11650000 0.11649800 14920.06841637 0 215.40543595 0 4338.32509347 0 -8.77977782 0 374.20471850 0 14553
0.11750000 0.11747300 14538.73754962 0 460.46587947 0 4860.60665516 0 -817.94585133 0 771.45980281 0 14568
0.11850000 0.11849100 14503.08466370 0 376.26195645 0 5247.66191385 0 -1043.76148707 0 517.73637236 0 16015
0.11950000 0.11950300 14006.38017234 0 271.14684079 0 5971.85839094 0 -444.37114811 0 1075.07180720 0 15270
0.12050000 0.12050700 14213.98626269 0 232.39591839 0 5965.07105582 0 237.87007578 0 848.49439550 0 15999
0.12150000 0.12150000 13796.89178677 0 133.48462632 0 5858.15668737 0 579.36603953 0 1513.63109201 0 15670
0.12250000 0.12250700 13900.97164007 0 109.34419013 0 5795.50947355 0 722.47915951 0 767.80261392 0 16887
0.12350000 0.12352200 13811.06436254 0 28.17607714 0 5685.07410581 0 271.69602810 0 919.70826704 0 16407
0.12450000 0.12449800 13549.09315733 0 147.19991507 0 5824.49681993 0 380.86472188 0 273.05349512 0 16306
0.12550000 0.12549900 13330.41474216 0 417.31813688 0 5196.29739901 0 -134.51103083 0 852.77495628 0 17523
0.12650000 0.12650100 13025.37219341 0 40.02313252 0 5332.27662011 0 -98.29711021 0 231.81019240 0 17154
0.12750000 0.12750600 13106.31088783 0 140.44911863 0 5155.61767763 0 170.95780243 0 469.64926567 0 18007
0.12850000 0.12850300 13110.96126426 0 -121.40139824 0 4989.89819207 0 275.13619942 0 20.05430543 0 17496
0.12950000 0.12949900 12985.29037756 0 61.54994643 0 4816.40593449 0 514.66269499 0 -53.04097553 0 18405
0.13050000 0.13049000 13164.55131638 0 -35.73581763 0 4442.32744049 0 563.74188198 0 -87.54411124 0 18100
0.13150000 0.13148800 13069.77221593 0 124.40089103 0 3840.98947959 0 419.24915033 0 -308.93668539 0 19059
0.13250000 0.13249300 12716.89722396 0 338.88400233 0 3806.05629479 0 461.46681763 0 80.53964784 0 18957
0.13350000 0.13349100 12334.01623173 0 504.78507402 0 3404.59594151 0 116.67019385 0 22.92901313 0 19468
0.13450000 0.13450700 12005.94324735 0 321.95552491 0 3269.25891525 0 270.42271074 0 448.66499567 0 19953
0.13550000 0.13551000 11853.69878110 0 251.23880076 0 3486.83009794 0 401.87556546 0 385.04231003 0 19956
0.13650000 0.13649900 11699.01840338 0 0.27798622 0 3595.02885607 0 7.44266173 0 437.02355336 0 19723
0.13750000 0.13749600 11684.73510437 0 173.75245722 0 3638.55416493 0 -32.78515379 0 1071.20092244 0 20946
0.13850000 0.13851100 11760.91269912 0 86.09164367 0 3894.83419518 0 168.23622499 0 938.14258063 0 20955
0.13950000 0.13949800 11737.55009375 0 -85.92157276 0 3864.63996540 0 177.93336707 0 1116.25642659 0 20506
0.14050000 0.14048300 11540.79488172 0 158.11833457 0 3735.01625875 0 22.99356478 0 1318.24884826 0 21447
0.14150000 0.14148400 11698.46478714 0 173.27302555 0 3802.34706597 0 92.09284372 0 956.24915341 0 21771
0.14250000 0.14249400 11360.31598718 0 157.07421434 0 3757.86953717 0 81.36099289 0 1085.00257533 0 22470
0.14350000 0.14350900 11178.72986015 0 394.02085823 0 3659.33691861 0 45.16622740 0 1259.54338207 0 22519
0.14450000 0.14449900 10890.27365398 0 198.51571167 0 3618.31395516 0 417.58055098 0 1030.61310135 0 22218
0.14550000 0.14550500 10795.73814468 0 176.56261326 0 3536.10194338 0 320.96898077 0 695.24345492 0 23559
0.14650000 0.14650700 10516.75984855 0 266.28609019 0 3454.50998179 0 -56.24585995 0 1033.51958662 0 23044
0.14750000 0.14750500 10418.29366393 0 111.92348820 0 3505.12157854 0 -151.70856574 0 770.87407683 0 23649
0.14850000 0.14849900 10250.76938943 0 102.00833204 0 3310.39260195 0 47.96597545 0 638.52325657 0 23640
0.14950000 0.14949500 10144.81831324 0 147.21541632 0 3155.04788475 0 370.03598821 0 435.67494420 0 24457
0.15050000 0.15050000 10104.11644720 0 -19.37712205 0 2820.17649293 0 393.03209962 0 426.68310921 0 24591
0.15150000 0.15149900 10191.22242655 0 -149.79748247 0 2733.53555123 0 644.18121455 0 -85.06822869 0 25020
0.15250000 0.15250500 10151.51706975 0 -45.31426438 0 2486.13552548 0 109.31163750 0 62.23587696 0 25297
0.15350000 0.15350100 10183.72646265 0 160.61403659 0 2540.87709938 0 55.15999706 0 185.62531112 0 25452
0.15450000 0.15450400 10121.44463555 0 278.78231598 0 2805.89319392 0 -401.72830354 0 -9.32029550 0 26061
0.15550000 0.15549900 9833.90743233 0 326.84174186 0 2866.81312507 0 -451.37439356 0 265.38369572 0 26128
0.15650000 0.15649500 9621.59560393 0 267.87939773 0 3262.02868715 0 -341.43728043 0 260.41665080 0 26331
0.15750000 0.15749700 9540.51296929 0 184.53468713 0 3347.71740892 0 114.49337479 0 419.60457195 0 27345
0.15850000 0.15849900 9450.55033013 0 30.99963069 0 3237.63635557 0 329.39280549 0 238.50009106 0 26980
0.15950000 0.15949700 9365.45951390 0 149.50628033 0 3430.41660299 0 96.78285907 0 285.94611014 0 27777
0.16050000 0.16050000 9226.86722415 0 283.00751513 0 3262.60444804 0 138.24018983 0 19.16685860 0 28224
0.16150000 0.16150500 9032.74722543 0 231.05727432 0 3300.93683656 0 -189.37440030 0 451.96565570 0 28075
0.16250000 0.16249700 8876.56101154 0 97.16972610 0 3197.38845485 0 -155.11109115 0 177.40189548 0 28590
0.16350000 0.16349900 8890.47892383 0 3.90761166 0 3417.72771875 0 287.22385642 0 107.65931446 0 29163
0.16450000 0.16449100 8790.06401005 0 0.87202862 0 3063.86728987 0 200.58512918 0 4.31704409 0 28996
0.16550000 0.16550500 8749.74967539 0 53.59758130 0 2745.27221554 0 601.96244002 0 -119.08949682 0 30777
0.16650000 0.16650700 8748.95246800 0 14.62399445 0 2432.15794199 0 482.07462858 0 165.34966991 0 29211
0.16750000 0.16749900 8684.38974198 0 11.01902265 0 2354.96169335 0 413.49707758 0 124.16283605 0 30922
0.16850000 0.16850800 8705.56002704 0 58.04090525 0 2047.41679919 0 120.30523808 0 222.69656184 0 30867
0.16950000 0.16949900 8670.28360016 0 82.83538367 0 2211.46436370 0 40.76342816 0 163.30128982 0 30852
0.17050000 0.17049200 8518.05020623 0 152.21235651 0 2193.04001521 0 -300.21501513 0 274.72873787 0 31257
0.17150000 0.17149500 8511.63933016 0 262.68094123 0 2430.00991097 0 -232.95064186 0 243.49813848 0 32608
0.17250000 0.17250900 8266.02194871 0 229.05982692 0 2470.65641538 0 -324.02826412 0 196.69763594 0 32361
0.17350000 0.17350400 8192.10310822 0 185.12816374 0 2550.93077032 0 -155.84961522 0 262.57907584 0 32508
0.17450000 0.17449800 8151.40124219 0 -107.84488663 0 2713.86003002 0 -7.39399886 0 -23.00242264 0 32791
0.17550000 0.17549800 8076.70733896 0 9.22964638 0 2569.03402140 0 319.91268099 0 44.48306496 0 33633
0.17650000 0.17650100 8158.26608358 0 44.43877566 0 2444.18248674 0 283.93648318 0 -165.68294689 0 33984
0.17750000 0.17750300 8064.88209606 0 -1.26728294 0 2076.81382158 0 307.35002125 0 -146.53003942 0 34069
0.17850000 0.17849800 8064.53885399 0 95.46624893 0 2058.25660519 0 102.28967982 0 -171.44387749 0 34536
