### header ###
fiducial parameters:
Omega_m = 0.31
Omega_nu = 0
Omega_de = 0.69
Omega_k = 0
H_0 = 100
w_de = -1
zeff = 0
beta = 0
fgrowth = 0
b_1 = 2
gamma = 0.55
Lx = 3500 Ly = 3500 Lz = 3500
nx = 700 ny = 700 nz = 700
xoffset = -685.467585 yoffset = -31.7331281 zoffset = 572.489161
bins = 400 dk = 0.001
kx_ny = 0.628318531 ky_ny = 0.628318531 kz_ny = 0.628318531
############################
A(data) = 8.00055435 (not used)
A(ran) = 7.99159207 (used)
Ngal = 474860
weighted Ngal = 0
Nran = 23820508
weighted Nran = 0
SN(data) = 3496.06015
SN(ran) = 69.6096652
SN(data+ran) = 3565.66982
############################
13 columns: k_central k_mean P_0(k) sigma^{lin}_{P_0(k)} P^img_1(k) sigma^{lin}_{P_1(k)} P_2(k) sigma^{lin}_{P_2(k)} P^img_3(k) sigma^{lin}_{P_3(k)} P_4(k) sigma^{lin}_{P_4(k)} N_modes
### header ###
0.00050000 0 0 0 0 0 0 0 0 0 0 0 0
0.00150000 0.00179520 54193.60454811 0 -41927.90456051 0 33199.14801298 0 2886.15647653 0 -29202.03875345 0 3
0.00250000 0.00253879 85288.34650606 0 -25322.51758349 0 30084.06014850 0 -28695.36916975 0 59271.70487969 0 6
0.00350000 0.00331552 82654.35115495 0 7931.02876132 0 14191.06655031 0 -20035.59320584 0 5483.17026274 0 7
0.00450000 0.00420575 69474.29858383 0 23279.34148471 0 15221.67854443 0 -11542.78790019 0 50879.76845314 0 24
0.00550000 0.00557378 55059.57107218 0 5958.63803510 0 19276.36389302 0 29223.18689385 0 6748.05050537 0 45
0.00650000 0.00659388 58947.83937874 0 -9728.43246611 0 17612.08274953 0 42459.48687506 0 21886.33229927 0 40
0.00750000 0.00754703 58946.73214626 0 -4250.21153256 0 3970.83463274 0 23154.44566075 0 -16854.18211570 0 57
0.00850000 0.00846663 66006.00355764 0 -2668.86210196 0 -816.16099257 0 20927.13680023 0 11747.07229309 0 75
0.00950000 0.00948925 63443.20325511 0 -6339.79174466 0 -4218.04642896 0 -1756.82363432 0 -15635.34059966 0 112
0.01050000 0.01054430 75730.71572261 0 -8696.73538416 0 -8329.30028505 0 -7506.53797243 0 18523.11363561 0 105
0.01150000 0.01145670 76455.39938199 0 4706.59061694 0 -505.92330901 0 -15916.68837330 0 -1822.79254559 0 144
0.01250000 0.01249090 79318.92402658 0 3563.08519897 0 3924.07620503 0 -29883.54034604 0 -19620.60247163 0 169
0.01350000 0.01339930 65633.64127399 0 3063.35796293 0 7200.78679488 0 -22503.39296142 0 -23458.15953053 0 180
0.01450000 0.01448870 74458.50560094 0 -3296.56326826 0 10831.16958410 0 -16230.14588892 0 -36695.67746746 0 267
0.01550000 0.01550050 76424.61831899 0 -10552.12485402 0 13567.80538627 0 -10061.88660035 0 -31336.11863900 0 238
0.01650000 0.01653350 82130.40874454 0 2548.99311348 0 22031.49047765 0 -9456.59581949 0 -55457.73187266 0 315
0.01750000 0.01747870 82027.10395398 0 3303.31738639 0 6571.73480496 0 -7790.04484941 0 -33535.19307123 0 297
0.01850000 0.01844180 75888.93924426 0 5324.04988277 0 22680.32871202 0 5723.55043455 0 -32357.76205001 0 388
0.01950000 0.01947590 73749.10174981 0 3885.16805561 0 23029.43911355 0 560.40246881 0 -27973.12142183 0 399
0.02050000 0.02045430 68695.24980959 0 4283.17384355 0 31606.39408782 0 7301.13527471 0 -20277.30205663 0 462
0.02150000 0.02154770 70695.35456483 0 4864.58161977 0 34505.35017184 0 -938.19129886 0 -9547.70998042 0 571
0.02250000 0.02255340 65057.65893692 0 2925.72896543 0 31695.96919560 0 -11981.14123976 0 -11853.14516486 0 510
0.02350000 0.02348930 63487.82472413 0 5786.44123952 0 44181.89772384 0 -8494.36650345 0 3694.61334549 0 555
0.02450000 0.02439640 61402.13089804 0 2794.76550747 0 38631.67346200 0 -5767.61828733 0 976.51925845 0 592
0.02550000 0.02547300 64125.81208018 0 -2980.82485373 0 39537.61107866 0 6676.93296306 0 -9397.20386916 0 837
0.02650000 0.02652900 63925.18155447 0 -3683.90640739 0 29636.29533284 0 5008.75436124 0 -11849.26985117 0 723
0.02750000 0.02749970 67097.07044527 0 1515.84555697 0 31951.18628267 0 7514.62076954 0 -22490.32761813 0 826
0.02850000 0.02848090 64838.64835201 0 5066.00935287 0 24336.74850489 0 5236.27956393 0 -18062.61564640 0 831
0.02950000 0.02946900 61706.73055381 0 3037.26049333 0 21772.39807689 0 -912.35292166 0 -19928.63454809 0 996
0.03050000 0.03053250 53735.65319361 0 4073.97333842 0 18846.75769006 0 -2597.01378621 0 -15271.50400612 0 1041
0.03150000 0.03150510 55976.69173691 0 1326.05483726 0 23323.29861424 0 6346.19154841 0 -12253.40970705 0 1036
0.03250000 0.03246190 51986.00442577 0 -1503.48884247 0 20160.15686005 0 8846.86503637 0 -10273.84411435 0 1059
0.03350000 0.03345080 52993.14309127 0 3335.99181693 0 22621.64539048 0 7075.76917536 0 -1016.55014160 0 1302
0.03450000 0.03451200 51863.65523652 0 1601.01387948 0 20628.07330688 0 7273.12229292 0 4628.06568932 0 1339
0.03550000 0.03553350 50121.86781930 0 1030.29532563 0 25443.31664726 0 3468.58290664 0 5377.51813932 0 1365
0.03650000 0.03647120 47614.87203387 0 3003.06915429 0 24712.98610223 0 -967.74886996 0 10581.31150224 0 1308
0.03750000 0.03744890 48108.25482778 0 2856.27227184 0 30395.85681540 0 -2448.20174065 0 11635.57398217 0 1579
0.03850000 0.03847530 45612.10992067 0 832.09960414 0 29184.98737323 0 -2881.99328240 0 14574.16898904 0 1662
0.03950000 0.03950240 46892.18139295 0 -1331.49134874 0 28109.08957060 0 4004.60522343 0 8823.85674540 0 1683
0.04050000 0.04050350 46696.97630640 0 1151.31140697 0 25947.66104275 0 7361.97769959 0 13274.94239482 0 1822
0.04150000 0.04152450 46459.58566229 0 -206.47671322 0 24227.24321243 0 4658.37064235 0 5460.99239613 0 1887
0.04250000 0.04250150 46317.97062786 0 1740.42552127 0 23524.15058645 0 3994.14187648 0 7699.14106265 0 1920
0.04350000 0.04349210 44148.01640990 0 2590.79113967 0 21707.18208371 0 2699.25563359 0 6379.31994426 0 2005
0.04450000 0.04448520 41161.25679007 0 2535.09734583 0 22089.95235269 0 -599.49441882 0 9472.13029121 0 2151
0.04550000 0.04548030 40912.79382114 0 323.48682744 0 21726.44792889 0 -283.39615373 0 6967.95794860 0 2274
0.04650000 0.04648670 41595.95626245 0 -1554.76477871 0 21497.69369814 0 552.67509332 0 7895.13228426 0 2311
0.04750000 0.04749250 42401.80006275 0 -479.55456745 0 23321.52704227 0 1761.51830005 0 8230.82302811 0 2568
0.04850000 0.04851840 42620.36775467 0 555.36345379 0 21766.30829824 0 922.47856271 0 3349.22324509 0 2493
0.04950000 0.04949480 42761.31844961 0 -548.10554487 0 20720.74866561 0 1165.59470598 0 4205.53470192 0 2644
0.05050000 0.05050630 41203.22090113 0 945.60089863 0 20202.34241761 0 -434.57546234 0 1502.00515095 0 2829
0.05150000 0.05149060 40534.67392858 0 3103.47299574 0 19994.29343426 0 1506.66659970 0 405.32791633 0 2784
0.05250000 0.05249300 38991.08112561 0 1753.70123873 0 17852.46292134 0 -126.48359533 0 843.08999376 0 3055
0.05350000 0.05348950 38323.19849255 0 557.81486650 0 18107.90145491 0 2198.38794809 0 -434.41823533 0 3009
0.05450000 0.05448610 37078.11556670 0 921.93158986 0 17465.26372244 0 -221.58379320 0 -3502.18741246 0 3336
0.05550000 0.05550870 35868.46408026 0 1153.11619591 0 15758.46485164 0 3548.50294718 0 -1069.15475681 0 3349
0.05650000 0.05647670 35398.11172196 0 571.89775644 0 15454.64025862 0 1499.17063580 0 -3086.29981995 0 3324
0.05750000 0.05747970 34363.73513741 0 -171.62214192 0 14810.23095417 0 2602.32850213 0 -1704.32974236 0 3639
0.05850000 0.05849280 33651.12031208 0 1534.24776082 0 15601.45928571 0 1526.37533787 0 -791.13421678 0 3846
0.05950000 0.05951020 32429.06782184 0 1090.25417899 0 13972.16668865 0 520.22321651 0 1444.84981023 0 3787
0.06050000 0.06049470 32535.91575634 0 -339.61920470 0 15831.32074895 0 1707.81752468 0 1949.85854521 0 3930
0.06150000 0.06148310 32275.05178362 0 16.36766416 0 15137.30742932 0 828.06484898 0 2609.20441584 0 4083
0.06250000 0.06249100 32789.58271794 0 252.97937022 0 15803.86138340 0 2206.86934890 0 2551.29615704 0 4303
0.06350000 0.06350600 32103.65219542 0 245.90304743 0 14713.68028175 0 762.31074081 0 5204.13660499 0 4470
0.06450000 0.06451750 32952.34589277 0 -561.33365133 0 14447.39086987 0 2156.20239053 0 4004.52771716 0 4479
0.06550000 0.06550280 32619.62253197 0 -21.10219026 0 13755.03839896 0 1537.89055569 0 3832.39735553 0 4636
0.06650000 0.06648880 32702.66496811 0 1215.85198834 0 12675.81889888 0 879.17027141 0 4503.88956648 0 4653
0.06750000 0.06749660 31397.45931849 0 1334.09334507 0 11804.31621241 0 1337.20466835 0 4851.08445582 0 5220
0.06850000 0.06852730 30066.45515204 0 1068.68196854 0 10606.53425818 0 618.40705684 0 4191.14067965 0 5029
0.06950000 0.06949320 29399.90119796 0 989.43180365 0 11275.83414881 0 536.13857621 0 3174.56839340 0 5040
0.07050000 0.07048030 28558.18306525 0 1004.47355692 0 10786.71419995 0 1061.07306693 0 3375.83004163 0 5475
0.07150000 0.07148790 27884.09993029 0 711.57956296 0 11446.79084401 0 828.44684419 0 3314.55579609 0 5509
0.07250000 0.07249820 26875.41113931 0 614.59485541 0 11484.54747164 0 -404.86730762 0 3040.40503358 0 5916
0.07350000 0.07351270 26955.02115475 0 1204.44749377 0 12991.26943297 0 -1333.25184839 0 3272.39238318 0 5721
0.07450000 0.07449140 25864.61860661 0 1112.65792103 0 12726.19797681 0 -33.74578869 0 3157.01875857 0 6028
0.07550000 0.07549160 25000.31293127 0 228.30358713 0 12723.31917235 0 566.01281580 0 3619.86408064 0 6183
0.07650000 0.07648840 25596.11472976 0 384.61823999 0 13548.09664810 0 1674.25730815 0 4294.51190416 0 6330
0.07750000 0.07749960 25101.73542661 0 -28.19401430 0 12378.08408451 0 1440.17728916 0 3174.10335576 0 6583
0.07850000 0.07848650 25078.70499099 0 556.13298036 0 12113.56624459 0 1427.68770677 0 5695.39351254 0 6549
0.07950000 0.07947320 24297.77392153 0 310.26204267 0 10699.36462946 0 1384.02953001 0 4566.31533381 0 6828
0.08050000 0.08048110 24245.18037864 0 166.75806963 0 10923.55706238 0 941.03467187 0 6337.12331438 0 7147
0.08150000 0.08149960 23988.19171960 0 123.83730970 0 10063.97926974 0 973.52308735 0 3505.54232688 0 7386
0.08250000 0.08250610 23737.84645545 0 524.14281950 0 10142.70349920 0 634.20283543 0 4462.49014398 0 7227
0.08350000 0.08350160 23445.97997323 0 345.33252430 0 9744.04444410 0 -178.04851925 0 4146.19811321 0 7798
0.08450000 0.08449610 23167.95389703 0 -20.46254205 0 9287.36640696 0 -267.88382666 0 3795.11683786 0 7371
0.08550000 0.08548940 23377.99589884 0 119.66304325 0 8475.77607008 0 234.80857796 0 2872.94719302 0 8256
0.08650000 0.08650700 22985.37126077 0 480.23772989 0 9039.66742844 0 752.34343401 0 1102.14696308 0 8037
0.08750000 0.08749060 22269.32401475 0 743.11022234 0 8791.71378645 0 119.59328760 0 322.79259267 0 8155
0.08850000 0.08849210 22096.37430108 0 681.15170712 0 8676.12978767 0 -791.48299501 0 -1482.90539064 0 8718
0.08950000 0.08949900 21105.51195306 0 627.62366002 0 8937.51415966 0 -472.13721706 0 -979.81659678 0 8571
0.09050000 0.09049190 20527.53659753 0 442.25190514 0 9034.77346087 0 108.80076043 0 -1044.60187653 0 8932
0.09150000 0.09150830 20530.52612523 0 349.13476065 0 9056.23162637 0 616.16158937 0 -200.25628114 0 9285
0.09250000 0.09250820 20059.95232044 0 372.08215383 0 8952.94898046 0 569.29797457 0 -761.45817180 0 9204
0.09350000 0.09350330 19826.65843651 0 664.94514529 0 8592.78839876 0 894.58959096 0 -660.31580628 0 9349
0.09450000 0.09448040 19168.85161903 0 433.43944182 0 7986.44574704 0 127.52328663 0 116.43324610 0 9564
0.09550000 0.09549270 18797.37512137 0 514.30838059 0 8502.33857732 0 212.69050191 0 475.39801672 0 10155
0.09650000 0.09649430 18487.35002645 0 13.66502040 0 7965.67406568 0 1042.86905769 0 1570.29925043 0 9913
0.09750000 0.09749140 18500.08319999 0 -299.82859100 0 7167.50338648 0 1309.10310796 0 124.56586867 0 10476
0.09850000 0.09850240 18735.48082563 0 -81.12913841 0 7301.62245701 0 1336.19708679 0 158.84467908 0 10575
0.09950000 0.09950330 18637.38002774 0 11.02430415 0 6238.36924932 0 574.30598709 0 -88.13338037 0 10882
0.10050000 0.10051200 18152.19075419 0 427.66965335 0 5920.33886356 0 902.32139538 0 1744.76587260 0 10875
0.10150000 0.10150300 18385.81680786 0 418.15077571 0 6094.67261783 0 -91.38554361 0 1168.56208904 0 11118
0.10250000 0.10250800 17775.73171035 0 441.38162041 0 6310.57187946 0 -294.88701243 0 1855.88772448 0 11575
0.10350000 0.10349800 17541.99493343 0 738.29818998 0 7559.61869761 0 -158.87014543 0 2368.60279753 0 11364
0.10450000 0.10450100 17126.89347598 0 346.85939790 0 7411.74779965 0 -227.77986617 0 2506.79648359 0 12093
0.10550000 0.10551000 16929.80609421 0 -52.83170860 0 7304.21338101 0 805.61903211 0 2679.04864079 0 12067
0.10650000 0.10649700 16833.47686828 0 -16.61391267 0 7521.95064857 0 933.15782000 0 2500.95029609 0 12054
0.10750000 0.10749900 16930.13826395 0 -26.56228579 0 6628.05972131 0 673.18627665 0 1617.36770323 0 12807
0.10850000 0.10850100 16695.40497780 0 292.64265219 0 6076.38113722 0 184.42617834 0 993.77215498 0 12736
0.10950000 0.10950300 16399.22028890 0 525.98746881 0 5877.66612370 0 -517.55921516 0 1153.17155754 0 12933
0.11050000 0.11050200 15897.97614436 0 464.30244002 0 5614.95307273 0 -159.26874912 0 479.44384420 0 13428
0.11150000 0.11150900 15621.16802389 0 374.39516249 0 5837.77253738 0 178.08173622 0 257.95638023 0 13453
0.11250000 0.11250000 15361.63273014 0 129.81082894 0 5677.81066073 0 103.40543799 0 493.98734285 0 13668
0.11350000 0.11349100 15208.94537089 0 137.31011454 0 5208.01191867 0 445.86701919 0 -329.76815731 0 13791
0.11450000 0.11448600 15167.53487607 0 272.76561467 0 5276.94821299 0 419.44513048 0 47.10919896 0 14205
0.11550000 0.11549300 14837.24742673 0 230.37743357 0 4669.07758045 0 51.50945157 0 -594.34357331 0 14776
0.11650000 0.11649800 14799.04790611 0 90.65620958 0 5136.70614684 0 35.95770702 0 275.94780083 0 14553
0.11750000 0.11747300 14426.46417596 0 98.25691767 0 4800.57251000 0 501.78668846 0 -730.01387655 0 14568
0.11850000 0.11849100 14691.09273912 0 55.30593030 0 4784.62836226 0 487.63072118 0 -886.81349723 0 16015
0.11950000 0.11950300 14502.08815447 0 48.70461024 0 4428.26558797 0 -54.08542793 0 -909.12091005 0 15270
0.12050000 0.12050700 14084.44006231 0 662.53137848 0 4521.88209431 0 163.27360901 0 -1201.12579633 0 15999
0.12150000 0.12150000 13780.28329954 0 302.18478172 0 4312.31620247 0 -294.38322165 0 -783.46331015 0 15670
0.12250000 0.12250700 13712.29922516 0 20.81375619 0 4422.09830305 0 25.15056438 0 -1382.99980380 0 16887
0.12350000 0.12352200 13664.02388895 0 39.04079586 0 4400.23046153 0 -132.39843125 0 -1174.82902488 0 16407
0.12450000 0.12449800 13596.92560055 0 389.14239191 0 4261.97034152 0 12.38517037 0 -1504.77323215 0 16306
0.12550000 0.12549900 13389.87312644 0 255.23701725 0 4406.64133760 0 44.17547578 0 -644.04723942 0 17523
0.12650000 0.12650100 13357.65266121 0 -100.49352729 0 3781.44251671 0 729.51451470 0 -775.24985959 0 17154
0.12750000 0.12750600 13234.19623949 0 80.55293463 0 4038.13222298 0 618.79126651 0 -684.81886110 0 18007
0.12850000 0.12850300 13234.30696274 0 164.89681183 0 3620.08552713 0 536.12528942 0 -599.85980554 0 17496
0.12950000 0.12949900 13122.47648207 0 363.47342129 0 4173.76820201 0 62.95701747 0 122.89173316 0 18405
0.13050000 0.13049000 12812.56211039 0 220.49206197 0 3725.16188966 0 122.06573773 0 762.77577845 0 18100
0.13150000 0.13148800 12519.69911894 0 263.18473201 0 4010.52891721 0 64.61642679 0 397.39791730 0 19059
0.13250000 0.13249300 12382.84518418 0 137.98552635 0 4032.14209526 0 7.29978445 0 517.22483095 0 18957
0.13350000 0.13349100 12249.75583986 0 274.25373513 0 4076.44246686 0 267.09658437 0 785.80842854 0 19468
0.13450000 0.13450700 11968.51878947 0 227.81308314 0 3690.82661040 0 441.40930122 0 1126.85264144 0 19953
0.13550000 0.13551000 11753.05134850 0 -79.66404839 0 3640.12643505 0 609.39418444 0 636.02091116 0 19956
0.13650000 0.13649900 11937.95917297 0 47.35921205 0 3199.11573753 0 258.78459013 0 217.20579597 0 19723
0.13750000 0.13749600 11554.30311800 0 271.96840729 0 3209.78945865 0 101.86062723 0 449.04256195 0 20946
0.13850000 0.13851100 11501.82029836 0 229.74963275 0 3367.97976334 0 -207.27724230 0 157.14175552 0 20955
0.13950000 0.13949800 11342.37882097 0 25.63951824 0 2890.76256365 0 -287.95795156 0 423.84637959 0 20506
0.14050000 0.14048300 11322.55935955 0 115.22857716 0 3295.38960182 0 -82.81622854 0 97.42239655 0 21447
0.14150000 0.14148400 11473.25370033 0 -97.26882341 0 3183.50375953 0 154.24080642 0 -46.86239684 0 21771
0.14250000 0.14249400 11322.44863630 0 6.74272472 0 2964.57068089 0 304.45460831 0 -301.74631766 0 22470
0.14350000 0.14350900 11367.40227506 0 316.90875926 0 3080.39827082 0 99.28896907 0 -830.90157860 0 22519
0.14450000 0.14449900 11077.41808806 0 240.07568288 0 2936.46912050 0 120.87878451 0 -750.22751274 0 22218
0.14550000 0.14550500 10696.48582500 0 330.87317532 0 3085.19258747 0 9.72593012 0 -223.08409321 0 23559
0.14650000 0.14650700 10627.68239858 0 184.09733029 0 2955.42494059 0 -30.53968631 0 -13.99353628 0 23044
0.14750000 0.14750500 10533.84444574 0 139.41828519 0 3341.55012399 0 331.08354949 0 -69.88419605 0 23649
0.14850000 0.14849900 10379.49623777 0 166.56541118 0 2997.88730627 0 45.93896495 0 133.79132971 0 23640
0.14950000 0.14949500 10351.52754528 0 94.20345028 0 3378.69777376 0 241.56269610 0 940.53309556 0 24457
0.15050000 0.15050000 10291.67055731 0 92.31174359 0 3087.34061848 0 266.58836466 0 912.27652262 0 24591
0.15150000 0.15149900 10299.57619723 0 40.45982501 0 2958.45875759 0 304.12576026 0 626.72458724 0 25020
0.15250000 0.15250500 10048.19013455 0 112.82366820 0 3083.84176384 0 186.54542131 0 892.26661721 0 25297
0.15350000 0.15350100 10072.38316427 0 238.32514833 0 2951.09566159 0 -44.22784787 0 359.24711490 0 25452
0.15450000 0.15450400 9745.32883378 0 279.40458064 0 2979.61797032 0 -76.79443397 0 497.47733964 0 26061
0.15550000 0.15549900 9598.22192624 0 272.28396855 0 2973.37317912 0 -184.53468713 0 443.71123755 0 26128
0.15650000 0.15649500 9512.90966351 0 200.78443103 0 3037.62588005 0 -319.20073050 0 218.13808572 0 26331
0.15750000 0.15749700 9219.00587353 0 207.99251449 0 3419.93111138 0 -319.39006725 0 475.47773745 0 27345
0.15850000 0.15849900 9169.03647162 0 136.56051815 0 3365.73208140 0 -8.31925769 0 217.89560180 0 26980
0.15950000 0.15949700 9123.69530149 0 10.39366881 0 3523.92238608 0 120.41042517 0 27.00606457 0 27777
0.16050000 0.16050000 9136.05201599 0 -49.53758124 0 3478.55907130 0 320.62241701 0 212.00180330 0 28224
0.16150000 0.16150500 9203.53783576 0 -22.91893731 0 3209.20262544 0 340.54595828 0 172.08385787 0 28075
0.16250000 0.16249700 9161.58479702 0 145.50031321 0 3182.78405842 0 388.53119958 0 218.13919295 0 28590
0.16350000 0.16349900 9250.05267232 0 74.91745346 0 3027.21789472 0 134.01056175 0 317.02944760 0 29163
0.16450000 0.16449100 9122.54377971 0 -18.47251311 0 2879.60166023 0 106.91857593 0 582.66559233 0 28996
0.16550000 0.16550500 9129.28682552 0 130.52610112 0 3165.43372543 0 19.59890071 0 674.23814751 0 30777
0.16650000 0.16650700 8915.01519563 0 308.74402694 0 3027.88223421 0 -70.35222322 0 808.09037501 0 29211
0.16750000 0.16749900 8735.56602730 0 268.82275981 0 3157.81596595 0 169.00464433 0 647.51066263 0 30922
0.16850000 0.16850800 8470.02953349 0 159.79579178 0 2783.15063874 0 103.70173340 0 649.09843401 0 30867
0.16950000 0.16949900 8394.42769963 0 53.08205386 0 3021.65958766 0 149.71001111 0 125.83586433 0 30852
0.17050000 0.17049200 8376.98878804 0 -5.56603554 0 2580.87033663 0 102.86499782 0 57.32430439 0 31257
0.17150000 0.17149500 8288.53198507 0 128.94940207 0 2565.21406933 0 281.43856671 0 -140.98723361 0 32608
0.17250000 0.17250900 8202.75468470 0 98.76037628 0 2124.23658878 0 37.22216651 0 -96.83711346 0 32361
0.17350000 0.17350400 8056.21246572 0 47.62760521 0 2047.12891875 0 216.64885803 0 -128.07136671 0 32508
0.17450000 0.17449800 8061.81506208 0 179.12032029 0 2170.49676187 0 155.62706149 0 157.72858874 0 32791
0.17550000 0.17549800 7900.42485552 0 61.13174473 0 2118.53434150 0 378.49967330 0 301.86589876 0 33633
0.17650000 0.17650100 7735.48043270 0 177.81489319 0 2175.61217594 0 305.70910271 0 612.48668476 0 33984
0.17750000 0.17750300 7709.22795056 0 156.02455795 0 2209.11703084 0 245.64174057 0 899.25103970 0 34069
0.17850000 0.17849800 7521.23094746 0 161.17318899 0 2275.17452071 0 144.30118043 0 1274.57959917 0 34536
