### header ###
fiducial parameters:
Omega_m = 0.31
Omega_nu = 0
Omega_de = 0.69
Omega_k = 0
H_0 = 100
w_de = -1
zeff = 0
beta = 0
fgrowth = 0
b_1 = 2
gamma = 0.55
Lx = 3500 Ly = 3500 Lz = 3500
nx = 700 ny = 700 nz = 700
xoffset = -685.467585 yoffset = -31.7331281 zoffset = 572.489161
bins = 400 dk = 0.001
kx_ny = 0.628318531 ky_ny = 0.628318531 kz_ny = 0.628318531
############################
A(data) = 8.07841679 (not used)
A(ran) = 8.06678168 (used)
Ngal = 479551
weighted Ngal = 0
Nran = 23820508
weighted Nran = 0
SN(data) = 3499.55345
SN(ran) = 70.264594
SN(data+ran) = 3569.81804
############################
13 columns: k_central k_mean P_0(k) sigma^{lin}_{P_0(k)} P^img_1(k) sigma^{lin}_{P_1(k)} P_2(k) sigma^{lin}_{P_2(k)} P^img_3(k) sigma^{lin}_{P_3(k)} P_4(k) sigma^{lin}_{P_4(k)} N_modes
### header ###
0.00050000 0 0 0 0 0 0 0 0 0 0 0 0
0.00150000 0.00179520 10695.55574972 0 -4892.06312997 0 9789.33025261 0 -14504.63478918 0 -11914.59656760 0 3
0.00250000 0.00253879 16386.15494561 0 -7635.60806284 0 8233.61325397 0 -25287.41831382 0 -5990.62598150 0 6
0.00350000 0.00331552 25688.67936524 0 -7157.87046389 0 5247.14151458 0 8636.25834600 0 15531.70363936 0 7
0.00450000 0.00420575 36032.88810382 0 -14136.59071221 0 -1480.05980316 0 6959.11116107 0 5772.39045933 0 24
0.00550000 0.00557378 59371.57724955 0 -23273.80532230 0 1629.33688636 0 3758.25706854 0 -24671.57560740 0 45
0.00650000 0.00659388 83628.82646224 0 -29022.99926113 0 807.87557191 0 -24530.40346597 0 2052.93081695 0 40
0.00750000 0.00754703 88136.81278891 0 3023.34258103 0 26989.12391519 0 -22856.71084638 0 -15599.35554400 0 57
0.00850000 0.00846663 86223.95795324 0 26462.96703981 0 32549.09182288 0 -28260.66969737 0 13021.82904947 0 75
0.00950000 0.00948925 68120.81759800 0 9047.53985139 0 25056.22817160 0 9992.51848536 0 24110.20873910 0 112
0.01050000 0.01054430 75795.71026929 0 3460.57761579 0 21359.95397740 0 24362.10412872 0 16272.33144648 0 105
0.01150000 0.01145670 79009.67399440 0 -11257.45408961 0 32469.48180743 0 10145.63766527 0 -17804.29830838 0 144
0.01250000 0.01249090 85042.98378808 0 -2302.12455932 0 37107.12505772 0 -1509.74470600 0 -7917.86376711 0 169
0.01350000 0.01339930 78901.60810417 0 7759.82847498 0 35252.39992735 0 -15651.72764039 0 -8374.51965961 0 180
0.01450000 0.01448870 81277.61828700 0 6591.19995199 0 46253.97259041 0 -8825.60617272 0 -4880.96866050 0 267
0.01550000 0.01550050 76902.61058141 0 -7918.17379221 0 44577.62261286 0 15926.32129589 0 25254.42278586 0 238
0.01650000 0.01653350 77846.63699545 0 2440.03036493 0 38737.52488727 0 26510.91020628 0 3288.20366302 0 315
0.01750000 0.01747870 81099.13241093 0 -471.75743632 0 26195.90256519 0 23386.85375870 0 1950.97685002 0 297
0.01850000 0.01844180 77283.60927842 0 -7.74678528 0 25082.58030467 0 14478.50410261 0 -15741.85636441 0 388
0.01950000 0.01947590 72897.19707827 0 7830.76886009 0 20163.25711100 0 -10292.74457282 0 3303.00736130 0 399
0.02050000 0.02045430 68897.98407702 0 9206.06232581 0 26314.81933374 0 -11870.75016132 0 -189.66006628 0 462
0.02150000 0.02154770 63112.80508252 0 5521.30334942 0 33396.45684125 0 -9067.03821539 0 18277.52947113 0 571
0.02250000 0.02255340 67535.64523133 0 -143.44971865 0 38273.04086113 0 10179.78471502 0 12767.49774838 0 510
0.02350000 0.02348930 66857.02244320 0 -9543.70179883 0 30878.38873099 0 14253.07156930 0 1935.35379970 0 555
0.02450000 0.02439640 76357.40930734 0 -4534.52668925 0 38949.55990754 0 19475.99790950 0 9038.50483433 0 592
0.02550000 0.02547300 74585.83733636 0 4034.85481484 0 33104.92252877 0 1138.73324597 0 8985.47947078 0 837
0.02650000 0.02652900 68661.70066539 0 11771.98502394 0 33080.56341417 0 7350.05280576 0 17717.82345155 0 723
0.02750000 0.02749970 61254.75825471 0 8074.41536772 0 27974.67154730 0 1926.46272287 0 16356.92400809 0 826
0.02850000 0.02848090 60154.27989098 0 -1663.67216563 0 29944.99174878 0 10233.43012876 0 17774.18158488 0 831
0.02950000 0.02946900 60103.79008981 0 -4153.11831623 0 28660.71279307 0 3924.37515780 0 1148.67619366 0 996
0.03050000 0.03053250 61724.00338052 0 844.87153082 0 23785.56817542 0 -2208.66306552 0 -285.29837914 0 1041
0.03150000 0.03150510 60064.81550645 0 3692.77533957 0 25226.52052731 0 -3417.39554900 0 549.03562015 0 1036
0.03250000 0.03246190 57393.50642070 0 4548.41138458 0 26686.29583140 0 -4295.36447317 0 -5091.25425346 0 1059
0.03350000 0.03345080 53025.03138675 0 3946.43122884 0 24104.00823720 0 5030.55576880 0 1790.49457410 0 1302
0.03450000 0.03451200 50608.05360209 0 1242.55843580 0 23498.46279287 0 4597.10746913 0 -13105.42510185 0 1339
0.03550000 0.03553350 50019.55953798 0 -1144.81195230 0 22149.63218346 0 10893.37390493 0 -5021.24394363 0 1365
0.03650000 0.03647120 51638.66559621 0 -2018.15264469 0 21933.83257275 0 3460.00185490 0 -5921.31322814 0 1308
0.03750000 0.03744890 50972.77598162 0 500.33399944 0 18067.70891582 0 -1411.41138928 0 -5274.30192736 0 1579
0.03850000 0.03847530 52883.63779882 0 229.95779246 0 21302.37788834 0 -4381.30785841 0 -11107.97770456 0 1662
0.03950000 0.03950240 51222.23545978 0 3320.81165961 0 21845.25397420 0 -3916.43630090 0 -5526.70664393 0 1683
0.04050000 0.04050350 49010.42785401 0 2515.78721134 0 25525.14112767 0 -4182.39354305 0 -6896.78504466 0 1822
0.04150000 0.04152450 47662.70447708 0 2416.21379425 0 25774.48988259 0 -491.65329678 0 -9397.92357027 0 1887
0.04250000 0.04250150 47500.38419524 0 1000.75657748 0 29752.22257369 0 -1257.87146102 0 -10528.78439330 0 1920
0.04350000 0.04349210 43048.09166242 0 2745.69296388 0 24685.41601343 0 2763.57476846 0 -9856.08529894 0 2005
0.04450000 0.04448520 43364.31725924 0 1400.32799214 0 23190.09854667 0 6956.37629684 0 -3029.57629990 0 2151
0.04550000 0.04548030 43464.07890585 0 -3347.29666057 0 17491.17296251 0 8612.61893251 0 -6842.10990471 0 2274
0.04650000 0.04648670 44092.21189281 0 -1350.91220647 0 14867.47487349 0 7303.69298175 0 -9260.99212924 0 2311
0.04750000 0.04749250 45401.07140963 0 272.52091630 0 11392.64717565 0 3137.09964622 0 -8272.74284988 0 2568
0.04850000 0.04851840 44412.64497306 0 864.03108169 0 11756.70521569 0 659.58724731 0 -7573.94628592 0 2493
0.04950000 0.04949480 43391.77662479 0 1825.92601352 0 12235.58326409 0 -4035.67416687 0 -2800.15772966 0 2644
0.05050000 0.05050630 41649.98920756 0 1917.09553607 0 12320.61871870 0 -1686.64723962 0 -5497.65286360 0 2829
0.05150000 0.05149060 41183.17999321 0 2231.04023398 0 17473.01434981 0 -3290.00845196 0 -2601.26555894 0 2784
0.05250000 0.05249300 37825.82966170 0 3378.19951914 0 16699.83390772 0 78.31256042 0 -11.02273188 0 3055
0.05350000 0.05348950 37781.20819268 0 956.68097407 0 20014.11289569 0 3578.78575556 0 5155.94984738 0 3009
0.05450000 0.05448610 36039.75294520 0 -518.33317067 0 18496.54005605 0 5177.68482099 0 5109.46822779 0 3336
0.05550000 0.05550870 37448.37410863 0 275.67099271 0 16980.40661863 0 5398.40054393 0 6202.04095159 0 3349
0.05650000 0.05647670 35488.12972274 0 833.34081176 0 16285.28606651 0 2987.54575489 0 7399.41322980 0 3324
0.05750000 0.05747970 35360.13364784 0 1550.83410340 0 14137.36577494 0 600.35473846 0 9654.10394960 0 3639
0.05850000 0.05849280 34530.26290268 0 1135.22331901 0 16304.33046520 0 739.28694858 0 10021.90443543 0 3846
0.05950000 0.05951020 33465.21597837 0 382.08710654 0 16190.94985906 0 64.86721495 0 6335.88321400 0 3787
0.06050000 0.06049470 32900.85958237 0 945.82345236 0 14778.45338194 0 424.12429495 0 4846.27906685 0 3930
0.06150000 0.06148310 32003.89054881 0 453.25115261 0 14658.31865766 0 -174.70799885 0 5104.19780117 0 4083
0.06250000 0.06249100 31403.54909714 0 606.90069689 0 13880.37711590 0 966.93948302 0 3266.16973663 0 4303
0.06350000 0.06350600 31276.88170122 0 618.24429367 0 12121.87048821 0 2028.69349792 0 3509.36227895 0 4470
0.06450000 0.06451750 31097.28859266 0 338.65480521 0 13132.88446740 0 2476.54689219 0 3337.45336381 0 4479
0.06550000 0.06550280 30062.46911511 0 311.89631782 0 10118.05650415 0 560.27402985 0 5369.76751195 0 4636
0.06650000 0.06648880 30484.87830694 0 175.18743051 0 10935.33801599 0 1395.58903712 0 2961.74723806 0 4653
0.06750000 0.06749660 29879.11141611 0 -717.39474795 0 9953.78749314 0 814.27869735 0 2773.06375083 0 5220
0.06850000 0.06852730 30287.90164841 0 386.85374237 0 10721.52035142 0 562.27369171 0 1045.23853521 0 5029
0.06950000 0.06949320 30093.47162460 0 947.48873001 0 9782.96366584 0 -891.39301078 0 1177.41994889 0 5040
0.07050000 0.07048030 28833.21961374 0 1014.16405560 0 10524.31117407 0 -394.05628967 0 285.18876312 0 5475
0.07150000 0.07148790 28218.59486306 0 632.28621600 0 9432.91211670 0 -477.71877600 0 498.23025772 0 5509
0.07250000 0.07249820 28052.06709779 0 628.50280261 0 10606.97715117 0 575.80960880 0 -634.91478591 0 5916
0.07350000 0.07351270 28154.70754885 0 -188.10994081 0 9671.28819772 0 -231.99177853 0 -789.40914857 0 5721
0.07450000 0.07449140 27074.38081630 0 238.58977689 0 11109.52783004 0 389.78569399 0 -1324.03967414 0 6028
0.07550000 0.07549160 27829.51336893 0 938.39392240 0 9946.26938459 0 691.74681474 0 -429.75346488 0 6183
0.07650000 0.07648840 26516.66781518 0 831.91580355 0 10946.05602641 0 -97.40268781 0 -1443.16681686 0 6330
0.07750000 0.07749960 25955.96528637 0 852.23573406 0 10926.74589193 0 1299.30410049 0 151.79935880 0 6583
0.07850000 0.07848650 26165.34294869 0 -166.19005937 0 10909.46199289 0 266.50089329 0 464.88152260 0 6549
0.07950000 0.07947320 25691.44744645 0 421.18902164 0 11137.31936533 0 51.64364814 0 -431.66897708 0 6828
0.08050000 0.08048110 25773.82554310 0 259.65598209 0 11948.25643505 0 -320.57037708 0 -536.18507997 0 7147
0.08150000 0.08149960 25003.96679846 0 573.82323373 0 11173.63659074 0 582.15405092 0 -161.77663069 0 7386
0.08250000 0.08250610 25112.58630493 0 600.69687329 0 11459.85618730 0 -36.45872972 0 277.05503331 0 7227
0.08350000 0.08350160 24399.08569362 0 375.60979652 0 10997.67520472 0 1315.31468218 0 464.92470467 0 7798
0.08450000 0.08449610 24384.35950161 0 723.34501531 0 11936.07687775 0 54.64635191 0 25.74381954 0 7371
0.08550000 0.08548940 23652.92172409 0 565.69836177 0 11513.88913241 0 824.19507146 0 819.38525355 0 8256
0.08650000 0.08650700 22980.49943785 0 671.61068483 0 11436.93647492 0 393.84148657 0 446.58672031 0 8037
0.08750000 0.08749060 22316.27067198 0 855.11896744 0 11094.69091478 0 1103.04492862 0 1238.28451842 0 8155
0.08850000 0.08849210 22026.39720823 0 326.92478429 0 10867.36501393 0 476.96364345 0 1072.47756149 0 8718
0.08950000 0.08949900 21366.81881878 0 513.21664937 0 11067.71873152 0 1150.20417449 0 904.52146632 0 8571
0.09050000 0.09049190 20908.31384804 0 999.81653710 0 10877.07544279 0 189.68221093 0 1109.93412912 0 8932
0.09150000 0.09150830 20115.31394453 0 860.42703996 0 10120.66957281 0 954.17530697 0 1295.90489677 0 9285
0.09250000 0.09250820 19700.43393358 0 133.30082572 0 9844.14933279 0 101.12354257 0 1268.66697772 0 9204
0.09350000 0.09350330 19281.34643919 0 49.21526586 0 9748.61731425 0 991.88764530 0 1102.11596057 0 9349
0.09450000 0.09448040 19506.00390976 0 203.71638264 0 9886.19095012 0 725.76321105 0 1238.04092727 0 9564
0.09550000 0.09549270 19215.35538327 0 218.27648978 0 8866.15302621 0 408.09489031 0 863.23830323 0 10155
0.09650000 0.09649430 18633.61543730 0 613.13884469 0 8751.89770640 0 826.99747687 0 2565.18085236 0 9913
0.09750000 0.09749140 18659.74612387 0 186.93516715 0 8025.76357247 0 1508.60425654 0 1606.81577768 0 10476
0.09850000 0.09850240 18103.47252498 0 -81.85902606 0 7090.42893342 0 1014.16294837 0 1537.66910919 0 10575
0.09950000 0.09950330 18105.57626670 0 471.14845845 0 7645.04168358 0 1045.13113365 0 1550.55729528 0 10882
0.10050000 0.10051200 17364.28412009 0 475.68700439 0 6822.44545583 0 -104.88215395 0 721.58894459 0 10875
0.10150000 0.10150300 16652.77652724 0 673.86501016 0 6909.88360492 0 329.81023214 0 1973.11042733 0 11118
0.10250000 0.10250800 16347.95542499 0 455.72913891 0 6126.84879375 0 807.18798053 0 1969.53406642 0 11575
0.10350000 0.10349800 16139.68499515 0 -169.12090374 0 5818.41811360 0 444.96130302 0 1459.95246129 0 11364
0.10450000 0.10450100 16072.25453700 0 48.18199651 0 5875.17485062 0 591.21896325 0 767.16484801 0 12093
0.10550000 0.10551000 16226.15985198 0 190.27347308 0 5851.62401573 0 -88.15630008 0 874.12129130 0 12067
0.10650000 0.10649700 15762.67233507 0 269.61553826 0 5656.52965243 0 -33.13038888 0 1150.99030955 0 12054
0.10750000 0.10749900 15775.51623186 0 246.04809489 0 6167.12991144 0 96.66239218 0 1745.97275600 0 12807
0.10850000 0.10850100 15570.45677622 0 356.76027075 0 6052.28775842 0 208.57602600 0 1300.95387689 0 12736
0.10950000 0.10950300 15191.22965118 0 266.19751159 0 5768.82517074 0 448.72921516 0 1251.90347795 0 12933
0.11050000 0.11050200 14950.18513988 0 215.29139101 0 5441.41652585 0 465.41742312 0 1693.02489872 0 13428
0.11150000 0.11150900 14914.75370046 0 -10.97864188 0 5135.37746786 0 1116.79897051 0 1683.56913332 0 13453
0.11250000 0.11250000 14795.50476216 0 278.98493953 0 5103.32308751 0 529.68783977 0 1415.90675316 0 13668
0.11350000 0.11349100 14460.89910614 0 285.50986054 0 3607.97240378 0 776.46338639 0 1409.79482986 0 13791
0.11450000 0.11448600 14298.80027080 0 41.16347126 0 3931.87112170 0 61.80793160 0 999.28063658 0 14205
0.11550000 0.11549300 14280.19876510 0 100.91471852 0 3614.77081122 0 -260.84293531 0 615.93903564 0 14776
0.11650000 0.11649800 14380.18185822 0 72.31457135 0 4418.98697977 0 -553.50330322 0 144.14727512 0 14553
0.11750000 0.11747300 14190.18076433 0 91.52361550 0 4159.38525207 0 -429.78668186 0 -12.68423387 0 14568
0.11850000 0.11849100 14217.41868338 0 145.23125572 0 4476.15339281 0 -360.37095587 0 56.18053324 0 16015
0.11950000 0.11950300 14229.15534769 0 189.75639551 0 4281.07010183 0 219.18109872 0 -215.32350075 0 15270
0.12050000 0.12050700 14161.28199655 0 302.35086659 0 4488.60975823 0 67.07326495 0 -652.78994710 0 15999
0.12150000 0.12150000 13605.11912091 0 296.29098322 0 4213.83894553 0 394.16147675 0 -231.72936443 0 15670
0.12250000 0.12250700 13569.24478850 0 46.47818717 0 3992.09349639 0 311.06257176 0 -748.85565169 0 16887
0.12350000 0.12352200 13395.96290509 0 126.29204411 0 4002.19145662 0 835.61396004 0 -449.49542004 0 16407
0.12450000 0.12449800 13371.16089749 0 -51.18348232 0 3722.51560403 0 -439.79274180 0 -209.57253524 0 16306
0.12550000 0.12549900 13423.42227064 0 119.11717763 0 3910.06971413 0 212.94405814 0 -94.66173380 0 17523
0.12650000 0.12650100 13504.69313481 0 -28.70566643 0 3920.37804854 0 -507.85210799 0 -629.06195501 0 17154
0.12750000 0.12750600 13355.77036600 0 301.69538496 0 4341.81287579 0 -384.85740221 0 -599.64610967 0 18007
0.12850000 0.12850300 13111.40415725 0 461.11582493 0 4555.17657504 0 -402.83775048 0 -630.82909806 0 17496
0.12950000 0.12949900 12871.46687843 0 346.20391627 0 4667.73782915 0 55.77074650 0 -657.47021880 0 18405
0.13050000 0.13049000 12564.09914146 0 63.63807617 0 4301.40996252 0 424.88828536 0 -126.99070781 0 18100
0.13150000 0.13148800 12546.16197526 0 9.25418265 0 4021.23585531 0 795.12578988 0 -1026.10112899 0 19059
0.13250000 0.13249300 12683.79097275 0 -106.47667945 0 3673.00016744 0 719.29697336 0 -841.17891049 0 18957
0.13350000 0.13349100 12513.60934029 0 148.97813043 0 3302.29873251 0 533.05161205 0 -799.18379692 0 19468
0.13450000 0.13450700 12529.44276478 0 -23.76951330 0 3013.17818685 0 247.44542228 0 -630.96196595 0 19953
0.13550000 0.13551000 12402.22175261 0 -244.31527605 0 3012.21489459 0 203.76399364 0 -439.46057205 0 19956
0.13650000 0.13649900 12648.47025658 0 29.06562771 0 3443.65910347 0 -133.07162860 0 -399.69985363 0 19723
0.13750000 0.13749600 12635.18346680 0 371.35027316 0 3588.36331653 0 -206.23090761 0 -271.37160898 0 20946
0.13850000 0.13851100 12293.49152289 0 415.54767214 0 3817.29470448 0 -351.31379417 0 344.66818481 0 20955
0.13950000 0.13949800 11897.43446413 0 392.59363556 0 4094.06960797 0 -23.18533745 0 971.13367966 0 20506
0.14050000 0.14048300 11809.18803533 0 279.88179784 0 4352.22086111 0 492.90336225 0 676.10272701 0 21447
0.14150000 0.14148400 11482.11156018 0 113.83235700 0 4208.77889309 0 464.48070444 0 1147.66861210 0 21771
0.14250000 0.14249400 11469.59983314 0 85.82247546 0 3753.55133050 0 592.20107846 0 1252.99963810 0 22470
0.14350000 0.14350900 11391.98283616 0 1.71375229 0 3779.48271522 0 362.37504666 0 1071.30389506 0 22519
0.14450000 0.14449900 11272.18028162 0 292.95267728 0 3548.19292208 0 -6.02628994 0 680.26370667 0 22218
0.14550000 0.14550500 11131.11886343 0 315.53800545 0 3494.71359321 0 -281.29573372 0 812.31003800 0 23559
0.14650000 0.14650700 10959.01064645 0 120.24655476 0 3228.78956804 0 -275.55141160 0 1033.00804521 0 23044
0.14750000 0.14750500 10591.28766690 0 133.16463613 0 3319.40547436 0 170.14177209 0 571.05958145 0 23649
0.14850000 0.14849900 10720.63456543 0 156.90259331 0 3233.84962048 0 361.01425794 0 410.85632812 0 23640
0.14950000 0.14949500 10361.76944573 0 228.31798116 0 3161.04908480 0 417.01364795 0 269.49042099 0 24457
0.15050000 0.15050000 10058.63133685 0 447.19016201 0 2886.83188834 0 279.54852086 0 538.38515091 0 24591
0.15150000 0.15149900 9894.31803654 0 222.86153948 0 2864.35506896 0 188.04239963 0 526.77692557 0 25020
0.15250000 0.15250500 9682.83663250 0 97.40301998 0 2718.56576807 0 219.59298920 0 756.07037854 0 25297
0.15350000 0.15350100 9604.41135581 0 -19.15645062 0 2542.05076581 0 -52.28074971 0 731.84302461 0 25452
0.15450000 0.15450400 9743.29152601 0 -31.62687789 0 2560.78513941 0 119.62318288 0 744.86740029 0 26061
0.15550000 0.15549900 9789.19738471 0 84.28696545 0 2734.26632467 0 -91.37103887 0 792.95118528 0 26128
0.15650000 0.15649500 9697.17529314 0 161.64154833 0 2798.02077097 0 -108.51476228 0 603.46384727 0 26331
0.15750000 0.15749700 9485.19563449 0 249.85365293 0 2974.50255626 0 -51.94116151 0 995.33224555 0 27345
0.15850000 0.15849900 9359.13721643 0 179.28086900 0 2865.81661584 0 227.88726772 0 706.73542085 0 26980
0.15950000 0.15949700 9296.58965353 0 -65.43290003 0 2651.58927524 0 411.41326605 0 739.22272910 0 27777
0.16050000 0.16050000 9386.30870154 0 -84.67117512 0 2613.04651255 0 419.37537483 0 744.95044273 0 28224
0.16150000 0.16150500 9433.47680526 0 127.77130671 0 2308.08147007 0 295.80601539 0 675.97539527 0 28075
0.16250000 0.16249700 9159.00494533 0 250.92434674 0 2233.95225541 0 60.36553985 0 763.09576864 0 28590
0.16350000 0.16349900 8986.38740141 0 247.01581608 0 2067.62379198 0 -63.86062990 0 558.61318112 0 29163
0.16450000 0.16449100 8810.53673864 0 141.60949827 0 2155.64877429 0 -122.78100991 0 263.85017873 0 28996
0.16550000 0.16550500 8651.57137122 0 115.83201886 0 2291.73871864 0 -248.05329291 0 156.43755567 0 30777
0.16650000 0.16650700 8650.74094686 0 51.85058989 0 2195.16590157 0 -44.33148483 0 319.52404238 0 29211
0.16750000 0.16749900 8662.40010489 0 26.08451498 0 2505.26850277 0 -111.54924362 0 32.04651900 0 30922
0.16850000 0.16850800 8655.10344284 0 -84.14258233 0 2292.30340720 0 10.57975030 0 -83.37416299 0 30867
0.16950000 0.16949900 8671.23582010 0 113.12704990 0 2630.44113484 0 27.81401211 0 -82.84003404 0 30852
0.17050000 0.17049200 8564.17751143 0 287.17956712 0 2470.52354749 0 -44.24102394 0 -29.18155495 0 31257
0.17150000 0.17149500 8354.14658194 0 215.68002961 0 2491.48345837 0 13.53768866 0 51.49350742 0 32608
0.17250000 0.17250900 8229.62721703 0 146.11593447 0 2607.18925272 0 63.49491101 0 32.78460017 0 32361
0.17350000 0.17350400 8122.05958142 0 148.92387604 0 2449.08752664 0 97.81812144 0 333.96346118 0 32508
0.17450000 0.17449800 8104.50994658 0 91.54343497 0 2654.55665830 0 253.12663214 0 397.42338365 0 32791
0.17550000 0.17549800 7969.50509007 0 153.55875121 0 2531.60956351 0 -61.13108039 0 317.36826074 0 33633
0.17650000 0.17650100 7864.83840356 0 202.72540957 0 2542.68188833 0 49.88613802 0 473.62533751 0 33984
0.17750000 0.17750300 7725.16102597 0 52.99303237 0 2602.20670655 0 -286.96697849 0 625.77236731 0 34069
0.17850000 0.17849800 7784.73013349 0 23.51429622 0 2691.64894644 0 242.58467168 0 628.54930637 0 34536
