### header ###
fiducial parameters:
Omega_m = 0.31
Omega_nu = 0
Omega_de = 0.69
Omega_k = 0
H_0 = 100
w_de = -1
zeff = 0
beta = 0
fgrowth = 0
b_1 = 2
gamma = 0.55
Lx = 3500 Ly = 3500 Lz = 3500
nx = 700 ny = 700 nz = 700
xoffset = -685.467585 yoffset = -31.7331281 zoffset = 572.489161
bins = 400 dk = 0.001
kx_ny = 0.628318531 ky_ny = 0.628318531 kz_ny = 0.628318531
############################
A(data) = 7.99836571 (not used)
A(ran) = 7.98880193 (used)
Ngal = 474136
weighted Ngal = 0
Nran = 23820508
weighted Nran = 0
SN(data) = 3495.38105
SN(ran) = 69.5853621
SN(data+ran) = 3564.96641
############################
13 columns: k_central k_mean P_0(k) sigma^{lin}_{P_0(k)} P^img_1(k) sigma^{lin}_{P_1(k)} P_2(k) sigma^{lin}_{P_2(k)} P^img_3(k) sigma^{lin}_{P_3(k)} P_4(k) sigma^{lin}_{P_4(k)} N_modes
### header ###
0.00050000 0 0 0 0 0 0 0 0 0 0 0 0
0.00150000 0.00179520 27296.71309866 0 -18913.96670171 0 14462.11706187 0 8988.85652985 0 -31926.60572157 0 3
0.00250000 0.00253879 48488.36773881 0 -19012.73183909 0 10612.65725380 0 23085.13290739 0 48383.73426927 0 6
0.00350000 0.00331552 51600.57679883 0 882.27052236 0 19960.96573656 0 -12400.89307364 0 -5989.86199109 0 7
0.00450000 0.00420575 51957.65927424 0 16588.55704330 0 -1108.42829295 0 10938.77043668 0 -23250.88560992 0 24
0.00550000 0.00557378 40380.10427411 0 -981.81736588 0 -4533.17586563 0 16404.31355831 0 -16939.99263304 0 45
0.00650000 0.00659388 47925.67219153 0 -10619.93177121 0 -21924.64254315 0 -1865.32134522 0 9431.99311374 0 40
0.00750000 0.00754703 48059.20442884 0 -12501.87267598 0 -14893.27339031 0 -23165.29653908 0 -5702.56837902 0 57
0.00850000 0.00846663 59354.30442284 0 -9416.68008851 0 -21168.84565103 0 -8030.23679170 0 2947.30892650 0 75
0.00950000 0.00948925 73187.84560476 0 -12418.71951659 0 -10372.07778014 0 -16126.61965186 0 -684.21984833 0 112
0.01050000 0.01054430 72716.27529073 0 8024.85564184 0 6233.10989503 0 -1886.28125610 0 8635.49435558 0 105
0.01150000 0.01145670 69796.83540580 0 11826.35013880 0 9495.69219842 0 -11443.24770007 0 10548.91387982 0 144
0.01250000 0.01249090 63837.04584891 0 12087.76772776 0 33561.32375780 0 -3587.65468774 0 -6899.16559450 0 169
0.01350000 0.01339930 56073.68530232 0 11753.49424149 0 36778.49845710 0 3566.67263221 0 15173.84610122 0 180
0.01450000 0.01448870 50492.56925423 0 71.91463897 0 39488.78212621 0 9520.93709901 0 18047.44656140 0 267
0.01550000 0.01550050 52080.45135647 0 -5357.15613398 0 24680.43346726 0 4157.07113619 0 15150.92638884 0 238
0.01650000 0.01653350 73229.69899257 0 -16298.79430279 0 41636.81314103 0 7889.93936392 0 -5153.32570639 0 315
0.01750000 0.01747870 66105.87592750 0 -3742.16898058 0 27095.19678696 0 16716.55311820 0 2852.08693306 0 297
0.01850000 0.01844180 78742.60951977 0 1080.26804923 0 32927.43316193 0 -3655.32873703 0 4787.85040878 0 388
0.01950000 0.01947590 80581.72267215 0 5037.38739322 0 47196.67032547 0 1632.23783547 0 10962.03339113 0 399
0.02050000 0.02045430 70956.55070730 0 8037.00198216 0 36668.88244140 0 3226.78547725 0 15047.84304478 0 462
0.02150000 0.02154770 69836.25288215 0 7151.95784243 0 52939.33159266 0 -543.96892432 0 18635.49773252 0 571
0.02250000 0.02255340 62388.78576263 0 5437.55228449 0 52045.57353330 0 6522.86156321 0 25233.49609195 0 510
0.02350000 0.02348930 64528.18036409 0 651.47123321 0 50072.15308087 0 10959.37603317 0 17875.05046397 0 555
0.02450000 0.02439640 62580.33698200 0 1231.44182168 0 49182.27033519 0 9672.01897116 0 25907.02561067 0 592
0.02550000 0.02547300 63012.15764992 0 47.44181160 0 42250.44138248 0 13135.32037886 0 15172.73886874 0 837
0.02650000 0.02652900 66842.96059068 0 -2279.58130599 0 39507.93724815 0 12470.87016649 0 20269.77287575 0 723
0.02750000 0.02749970 61532.23071466 0 637.11596409 0 31888.95981719 0 11626.82684556 0 12371.55141287 0 826
0.02850000 0.02848090 66323.66855668 0 3718.56278407 0 34244.92909210 0 4612.98518292 0 24234.88311656 0 831
0.02950000 0.02946900 62776.64930103 0 1893.26789307 0 34057.80680267 0 2952.70114869 0 19922.54476944 0 996
0.03050000 0.03053250 61455.16733393 0 -1411.52211253 0 33040.26015183 0 6373.61769698 0 15505.13005979 0 1041
0.03150000 0.03150510 62501.16985954 0 -929.65675089 0 35747.55429324 0 1592.37746612 0 12390.37436506 0 1036
0.03250000 0.03246190 63446.63567581 0 -967.91827653 0 33750.43906570 0 1500.04534946 0 11865.43544541 0 1059
0.03350000 0.03345080 65809.91268510 0 543.73197657 0 33979.74691270 0 -1208.62176023 0 9149.91456666 0 1302
0.03450000 0.03451200 62347.81816080 0 3981.68551106 0 31088.76290255 0 443.88728751 0 3976.06077005 0 1339
0.03550000 0.03553350 59540.31947979 0 4709.54692766 0 33883.86057977 0 1271.75615634 0 193.78118558 0 1365
0.03650000 0.03647120 55734.65071637 0 4121.97186651 0 30069.55540299 0 4354.55712165 0 -1503.90959082 0 1308
0.03750000 0.03744890 54182.86439304 0 2226.21270036 0 25706.17363846 0 5234.19796687 0 -10333.78968092 0 1579
0.03850000 0.03847530 51086.59948075 0 880.91637704 0 24249.38786207 0 3858.78270557 0 -11994.53875279 0 1662
0.03950000 0.03950240 50584.91244322 0 -375.37949216 0 19850.35321162 0 3475.92385799 0 -11181.49794136 0 1683
0.04050000 0.04050350 48805.36839837 0 655.30336483 0 19817.46840691 0 4723.95202225 0 -10732.88055668 0 1822
0.04150000 0.04152450 47797.34394688 0 3745.92249870 0 17729.00649962 0 -334.28898753 0 -9672.32899625 0 1887
0.04250000 0.04250150 45365.52924696 0 2828.70218304 0 17103.42014736 0 1558.10862080 0 -9111.59325046 0 1920
0.04350000 0.04349210 42651.70243391 0 2554.78393936 0 13687.38649431 0 461.04496205 0 -4676.90571410 0 2005
0.04450000 0.04448520 42630.77574000 0 934.93382090 0 13829.44442174 0 2062.18728050 0 -2401.64261479 0 2151
0.04550000 0.04548030 40543.53178844 0 424.50961185 0 14744.90423774 0 2084.95198033 0 -3427.26099041 0 2274
0.04650000 0.04648670 38869.28555261 0 1828.15155081 0 16411.73201594 0 4093.94781240 0 -5205.74209209 0 2311
0.04750000 0.04749250 37412.49977622 0 2245.17959278 0 13742.74811841 0 -2084.33193014 0 -4445.68235491 0 2568
0.04850000 0.04851840 36089.57840689 0 1691.87337694 0 14675.70220763 0 807.12043935 0 -6984.15675981 0 2493
0.04950000 0.04949480 35235.90216337 0 368.46482531 0 15571.67473195 0 -2509.66421572 0 -4625.00972767 0 2644
0.05050000 0.05050630 35034.38585167 0 -382.52335614 0 15600.35205323 0 -1672.39715758 0 -5618.81731409 0 2829
0.05150000 0.05149060 36160.21983923 0 52.26480556 0 19113.71144144 0 -647.41765510 0 -4695.76188326 0 2784
0.05250000 0.05249300 35207.00339559 0 976.35981697 0 14877.88285882 0 3236.45161682 0 -5977.40562567 0 3055
0.05350000 0.05348950 34785.47998975 0 191.07068047 0 16908.54723055 0 4112.41645019 0 -3276.16804594 0 3009
0.05450000 0.05448610 34873.61569530 0 -202.00570846 0 12880.98907777 0 2475.56145528 0 -6825.46820051 0 3336
0.05550000 0.05550870 35196.37396377 0 -426.40076493 0 13561.60488437 0 1132.68775662 0 -3694.13723552 0 3349
0.05650000 0.05647670 35209.88220005 0 -733.06762373 0 11258.00770586 0 530.75631911 0 -3212.29180406 0 3324
0.05750000 0.05747970 35849.41968157 0 935.79746223 0 11079.74327627 0 -436.51865535 0 -2876.92215763 0 3639
0.05850000 0.05849280 35225.38345479 0 574.28052074 0 11722.04883900 0 156.13971013 0 -1506.52265947 0 3846
0.05950000 0.05951020 34994.52548232 0 -56.57437583 0 11629.04131053 0 1569.76777884 0 -944.89226984 0 3787
0.06050000 0.06049470 35586.89486012 0 -43.46817567 0 9957.45243266 0 2753.70932705 0 632.15113364 0 3930
0.06150000 0.06148310 34771.41813723 0 774.47368962 0 10246.55083367 0 1718.88984950 0 -1769.08069790 0 4083
0.06250000 0.06249100 34233.96749053 0 1446.79853940 0 10342.00534593 0 -152.63974825 0 195.43317644 0 4303
0.06350000 0.06350600 32305.05778388 0 1785.03591796 0 11111.52084850 0 -215.56487743 0 705.64701132 0 4470
0.06450000 0.06451750 31465.00049988 0 1265.23455703 0 10667.56491258 0 -358.36354338 0 -347.72303923 0 4479
0.06550000 0.06550280 30000.13192638 0 997.31862062 0 11244.72091607 0 232.20215270 0 -492.41175103 0 4636
0.06650000 0.06648880 29853.31289928 0 1215.91842228 0 10650.56889398 0 -1108.32864202 0 -1591.29237829 0 4653
0.06750000 0.06749660 29486.04388505 0 367.69197704 0 12427.24520670 0 879.36182263 0 -917.09409115 0 5220
0.06850000 0.06852730 28847.83508250 0 102.21638103 0 12669.83984348 0 1177.14314077 0 920.92511554 0 5029
0.06950000 0.06949320 29036.28605091 0 330.69269643 0 12657.54956293 0 1737.65744006 0 2178.03701508 0 5040
0.07050000 0.07048030 28680.20008475 0 342.18355513 0 11517.65372285 0 3257.92085464 0 2200.98994442 0 5475
0.07150000 0.07148790 28953.79723102 0 -145.25561483 0 11170.75778628 0 2404.35533437 0 4104.32258075 0 5509
0.07250000 0.07249820 28217.26618408 0 195.81184995 0 11251.91792720 0 1227.59972497 0 5744.07852477 0 5916
0.07350000 0.07351270 28339.39392683 0 321.10406314 0 10009.08268329 0 739.98782674 0 5811.32075339 0 5721
0.07450000 0.07449140 27767.28690345 0 558.43380946 0 9639.90922918 0 712.41330902 0 4411.55744982 0 6028
0.07550000 0.07549160 26969.85807001 0 932.22110132 0 8848.72518694 0 778.04451438 0 3414.12921318 0 6183
0.07650000 0.07648840 26381.03183615 0 640.53952692 0 7996.96445562 0 179.35062464 0 3895.53175165 0 6330
0.07750000 0.07749960 25610.39802878 0 -190.44398688 0 7485.52269992 0 1328.08107270 0 2945.31590803 0 6583
0.07850000 0.07848650 25511.96506114 0 -159.50680410 0 6723.89069262 0 1683.17052963 0 173.83992858 0 6549
0.07950000 0.07947320 25475.42638924 0 455.29731824 0 6072.99300583 0 561.20299790 0 -647.15413377 0 6828
0.08050000 0.08048110 24992.11941090 0 399.54484108 0 5827.87387900 0 432.05207952 0 897.56583187 0 7147
0.08150000 0.08149960 24483.23536224 0 201.35133406 0 4357.64630028 0 303.83012919 0 260.63809730 0 7386
0.08250000 0.08250610 24516.56305994 0 305.76114263 0 5336.11871682 0 -383.16112205 0 732.00578778 0 7227
0.08350000 0.08350160 23925.63308437 0 388.68621213 0 4450.59846713 0 831.59581336 0 -562.00684868 0 7798
0.08450000 0.08449610 23434.90764841 0 840.40606222 0 4264.42839763 0 192.55547922 0 -354.55909258 0 7371
0.08550000 0.08548940 23045.05109154 0 402.43582509 0 3746.28788541 0 524.39859020 0 467.87326477 0 8256
0.08650000 0.08650700 22679.88581903 0 315.54575608 0 4940.06165806 0 -68.94637014 0 -961.52179448 0 8037
0.08750000 0.08749060 22313.05969778 0 714.10737471 0 4994.98038916 0 -345.38013530 0 305.34593045 0 8155
0.08850000 0.08849210 21867.62007033 0 1085.43328876 0 6341.44152106 0 -1689.22709131 0 753.71529505 0 8718
0.08950000 0.08949900 21172.83168796 0 753.96995853 0 6393.40394143 0 -1541.37833800 0 1404.24759512 0 8571
0.09050000 0.09049190 21056.01866112 0 439.39967427 0 7947.68153785 0 -563.04764721 0 1540.66970922 0 8932
0.09150000 0.09150830 20674.68779437 0 618.77465803 0 8512.11544013 0 217.63540217 0 1335.41095173 0 9285
0.09250000 0.09250820 20098.15184106 0 253.02255229 0 8146.56263624 0 576.86147966 0 1081.10290253 0 9204
0.09350000 0.09350330 20586.44136556 0 35.72906351 0 7900.93418247 0 1905.91248801 0 1993.11811828 0 9349
0.09450000 0.09448040 19749.81650227 0 -253.88508639 0 7209.57822079 0 1392.27841200 0 1346.05145588 0 9564
0.09550000 0.09549270 19835.62701961 0 658.10244855 0 6498.60209953 0 928.46093981 0 432.03325656 0 10155
0.09650000 0.09649430 19302.05168660 0 845.62334168 0 6282.53675302 0 254.22389953 0 2339.48258326 0 9913
0.09750000 0.09749140 18599.06978387 0 667.30576494 0 6233.99568102 0 184.80706632 0 1973.46474173 0 10476
0.09850000 0.09850240 18184.63266590 0 257.26103823 0 6509.66335203 0 359.42095040 0 1766.54513552 0 10575
0.09950000 0.09950330 18132.14984626 0 40.01084224 0 6152.14905596 0 -87.92112390 0 935.43539721 0 10882
0.10050000 0.10051200 17650.06082366 0 483.69450970 0 6794.22209987 0 -137.27911203 0 1178.72648322 0 10875
0.10150000 0.10150300 17241.82420760 0 507.97943973 0 6116.56260399 0 -241.87493566 0 897.94450538 0 11118
0.10250000 0.10250800 16942.09637476 0 312.19194889 0 6551.41708892 0 589.32891740 0 -141.52756306 0 11575
0.10350000 0.10349800 16768.59304485 0 165.65415884 0 5803.96872971 0 325.58724745 0 -181.78875057 0 11364
0.10450000 0.10450100 16548.58595070 0 172.98846680 0 5529.81796720 0 -5.47503210 0 -1286.27197418 0 12093
0.10550000 0.10551000 16617.78798082 0 -40.12599442 0 5303.43321396 0 -408.58207260 0 -1218.75293744 0 12067
0.10650000 0.10649700 16318.39231772 0 243.40845265 0 6148.93808176 0 -725.47975953 0 -1509.89971854 0 12054
0.10750000 0.10749900 16465.10062157 0 96.33132966 0 5857.81344530 0 -122.74890017 0 -1839.87714279 0 12807
0.10850000 0.10850100 16457.46071744 0 -166.89647369 0 5823.94320368 0 129.03465897 0 -1929.50761220 0 12736
0.10950000 0.10950300 16525.22334533 0 -57.68127614 0 5677.45634633 0 746.78401972 0 -1622.05129663 0 12933
0.11050000 0.11050200 16349.61627371 0 362.51566519 0 5738.71951956 0 239.25522361 0 -2708.37922924 0 13428
0.11150000 0.11150900 15759.79353062 0 718.09784058 0 4817.31386512 0 593.89403693 0 -1587.25097973 0 13453
0.11250000 0.11250000 15279.14391024 0 618.43141596 0 4727.61696177 0 644.80790814 0 -2168.03870576 0 13668
0.11350000 0.11349100 15023.37320693 0 114.66610305 0 4427.90020125 0 619.49657360 0 -1056.02187235 0 13791
0.11450000 0.11448600 14846.10528659 0 80.12831097 0 4533.25337190 0 345.71673398 0 -838.36321829 0 14205
0.11550000 0.11549300 14628.53410390 0 442.57189533 0 4397.45130800 0 380.47940498 0 -938.17358314 0 14776
0.11650000 0.11649800 14636.72762426 0 109.51381815 0 4938.23472447 0 40.63930740 0 400.29111577 0 14553
0.11750000 0.11747300 14217.97229962 0 301.66659692 0 4973.99833363 0 180.86864038 0 960.51753462 0 14568
0.11850000 0.11849100 14538.84827287 0 -73.53972409 0 5254.08386224 0 680.91475937 0 955.15299325 0 16015
0.11950000 0.11950300 14320.50202744 0 -204.42833313 0 5001.59056708 0 184.88235812 0 1190.06454383 0 15270
0.12050000 0.12050700 14807.79504271 0 170.02661992 0 5219.40534091 0 667.71433372 0 1168.97176505 0 15999
0.12150000 0.12150000 14402.21578461 0 94.47605092 0 4561.08919649 0 171.38740864 0 1228.47443863 0 15670
0.12250000 0.12250700 14228.38028495 0 217.21022490 0 4352.02155927 0 305.22967104 0 859.90442623 0 16887
0.12350000 0.12352200 14055.20912479 0 383.23973555 0 3863.42200967 0 -10.92902679 0 466.41503959 0 16407
0.12450000 0.12449800 13576.99541587 0 205.31411911 0 4075.80027202 0 278.88750307 0 -21.77284097 0 16306
0.12550000 0.12549900 13404.59931845 0 340.85487615 0 3924.59660429 0 275.24692267 0 151.49486987 0 17523
0.12650000 0.12650100 13329.97184917 0 174.10787884 0 3995.17160269 0 133.83451178 0 156.58924652 0 17154
0.12750000 0.12750600 13053.27445195 0 219.55091436 0 3889.44197299 0 78.23593994 0 369.22106510 0 18007
0.12850000 0.12850300 13272.39576011 0 75.35226366 0 3987.17738417 0 3.56456889 0 731.16318386 0 17496
0.12950000 0.12949900 12785.54563784 0 264.76253830 0 3968.11084083 0 -25.22032003 0 582.27031033 0 18405
0.13050000 0.13049000 12720.44036790 0 310.49234703 0 4009.97530097 0 159.58541761 0 686.10103632 0 18100
0.13150000 0.13148800 12359.37185557 0 250.84130430 0 3692.98571374 0 34.59868987 0 127.72148125 0 19059
0.13250000 0.13249300 12081.12433287 0 216.55917220 0 3778.29797647 0 139.63640999 0 -9.20557514 0 18957
0.13350000 0.13349100 12068.16971284 0 58.81630016 0 3688.65643473 0 -90.03737734 0 -509.34687184 0 19468
0.13450000 0.13450700 11955.34272293 0 268.73750291 0 3575.95124040 0 -190.70750821 0 -765.31023360 0 19953
0.13550000 0.13551000 11811.73467004 0 136.73435365 0 3182.80620307 0 -290.96740944 0 -277.85666963 0 19956
0.13650000 0.13649900 11722.49173200 0 -64.59992903 0 3665.78101166 0 311.82656217 0 -512.85015542 0 19723
0.13750000 0.13749600 11783.61096500 0 28.15980082 0 3185.60750125 0 241.47411750 0 -562.02677886 0 20946
0.13850000 0.13851100 11945.48835384 0 5.86734672 0 3418.08203314 0 310.96292083 0 -828.71479445 0 20955
0.13950000 0.13949800 11769.77055897 0 120.03175166 0 3127.94283359 0 -123.12093029 0 -418.73982339 0 20506
0.14050000 0.14048300 11593.05625487 0 329.93424218 0 3232.15555479 0 200.17766763 0 -683.71384309 0 21447
0.14150000 0.14148400 11347.80426013 0 316.70502849 0 3273.15637359 0 -73.23822468 0 -215.05333602 0 21771
0.14250000 0.14249400 11076.08940908 0 307.85602649 0 3161.58055639 0 63.66464975 0 -717.15780020 0 22470
0.14350000 0.14350900 10789.80337857 0 319.98132940 0 3010.38796099 0 203.57576412 0 -289.02864537 0 22519
0.14450000 0.14449900 10593.42462559 0 296.54564669 0 3097.36107244 0 281.02667622 0 -261.82172882 0 22218
0.14550000 0.14550500 10522.99356742 0 -60.05186089 0 2908.52257266 0 283.66631846 0 -195.57711667 0 23559
0.14650000 0.14650700 10525.94987815 0 -184.58783428 0 2822.64562137 0 393.17936154 0 -417.98579807 0 23044
0.14750000 0.14750500 10571.25783130 0 55.16187935 0 2733.71270842 0 123.93696063 0 -37.82284013 0 23649
0.14850000 0.14849900 10510.89151639 0 216.96774098 0 2688.69263571 0 52.06738601 0 -271.98390854 0 23640
0.14950000 0.14949500 10363.40814981 0 125.66867223 0 2634.36073783 0 -9.35314709 0 39.70591042 0 24457
0.15050000 0.15050000 10113.38398308 0 377.30054052 0 2934.78612713 0 -60.79370665 0 -21.94933383 0 24591
0.15150000 0.15149900 10032.10204658 0 295.94774115 0 2903.04177188 0 -37.15938643 0 61.11580058 0 25020
0.15250000 0.15250500 9646.51940710 0 152.03187762 0 2962.27870966 0 73.45003826 0 223.05419794 0 25297
0.15350000 0.15350100 9620.02333381 0 27.72510135 0 3066.72394967 0 194.96813880 0 604.48028668 0 25452
0.15450000 0.15450400 9772.13493217 0 -72.47024823 0 3061.54210165 0 200.83757819 0 130.91141803 0 26061
0.15550000 0.15549900 9718.00233613 0 23.94080217 0 3078.96994092 0 -155.33475211 0 35.09229411 0 26128
0.15650000 0.15649500 9680.03533433 0 117.65341629 0 3074.43028774 0 -183.08974874 0 68.70964383 0 26331
0.15750000 0.15749700 9631.67141952 0 184.26009347 0 3096.64137133 0 -161.99364826 0 90.38637702 0 27345
0.15850000 0.15849900 9570.13143818 0 132.18805708 0 3221.30467646 0 -16.73615113 0 -99.30347382 0 26980
0.15950000 0.15949700 9389.14321669 0 57.42915931 0 2994.39952395 0 254.57378500 0 -483.80966188 0 27777
0.16050000 0.16050000 9304.09668976 0 161.17983239 0 2677.70888949 0 397.64925907 0 -528.44884662 0 28224
0.16150000 0.16150500 9122.79844318 0 78.06941217 0 2574.71412403 0 175.93924137 0 -715.82690676 0 28075
0.16250000 0.16249700 9055.08010459 0 69.59044727 0 2152.01705175 0 364.06025450 0 -559.45246334 0 28590
0.16350000 0.16349900 8946.93670808 0 202.48956905 0 2061.42329009 0 197.67089329 0 -480.72712665 0 29163
0.16450000 0.16449100 8891.59722864 0 141.52534860 0 1945.95001455 0 48.59200470 0 -331.64823806 0 28996
0.16550000 0.16550500 8674.41357732 0 136.37007416 0 2005.84021950 0 128.95825993 0 -283.60099174 0 30777
0.16650000 0.16650700 8672.55342675 0 182.99231228 0 2093.62161066 0 -65.28120918 0 -245.01947591 0 29211
0.16750000 0.16749900 8561.52015347 0 118.34986552 0 2048.32472983 0 87.98124663 0 -389.29961893 0 30922
0.16850000 0.16850800 8459.54404189 0 132.56673059 0 2227.44172842 0 -72.25710598 0 -28.18571006 0 30867
0.16950000 0.16949900 8356.38319156 0 94.84664163 0 2233.33220522 0 -91.51420403 0 -103.46024600 0 30852
0.17050000 0.17049200 8462.77716074 0 -46.21499801 0 2312.17823025 0 287.22385642 0 83.86832085 0 31257
0.17150000 0.17149500 8334.65929026 0 36.51874172 0 2171.44898181 0 121.92733367 0 -416.81988226 0 32608
0.17250000 0.17250900 8331.57011164 0 184.62658742 0 2273.52474431 0 -0.51531375 0 -296.12379111 0 32361
0.17350000 0.17350400 8176.82329997 0 174.29721560 0 2329.09674258 0 -76.60055756 0 24.09027855 0 32508
0.17450000 0.17449800 8016.70641077 0 157.42188534 0 2424.79484598 0 87.15026865 0 131.01549788 0 32791
0.17550000 0.17549800 7954.08134160 0 44.66531543 0 2118.13573781 0 376.44907874 0 304.54761583 0 33633
0.17650000 0.17650100 7865.62453862 0 41.37085590 0 2117.59319389 0 342.23005889 0 143.68223747 0 33984
0.17750000 0.17750300 7886.91661925 0 56.50938128 0 1830.79783644 0 175.57828358 0 29.13837289 0 34069
0.17850000 0.17849800 7773.95676145 0 147.89525707 0 1784.95841169 0 196.16727158 0 288.39087946 0 34536
