### header ###
fiducial parameters:
Omega_m = 0.31
Omega_nu = 0
Omega_de = 0.69
Omega_k = 0
H_0 = 100
w_de = -1
zeff = 0
beta = 0
fgrowth = 0
b_1 = 2
gamma = 0.55
Lx = 3500 Ly = 3500 Lz = 3500
nx = 700 ny = 700 nz = 700
xoffset = -685.467585 yoffset = -31.7331281 zoffset = 572.489161
bins = 400 dk = 0.001
kx_ny = 0.628318531 ky_ny = 0.628318531 kz_ny = 0.628318531
############################
A(data) = 8.02952148 (not used)
A(ran) = 8.02395762 (used)
Ngal = 476860
weighted Ngal = 0
Nran = 23820508
weighted Nran = 0
SN(data) = 3492.88295
SN(ran) = 69.8915809
SN(data+ran) = 3562.77453
############################
13 columns: k_central k_mean P_0(k) sigma^{lin}_{P_0(k)} P^img_1(k) sigma^{lin}_{P_1(k)} P_2(k) sigma^{lin}_{P_2(k)} P^img_3(k) sigma^{lin}_{P_3(k)} P_4(k) sigma^{lin}_{P_4(k)} N_modes
### header ###
0.00050000 0 0 0 0 0 0 0 0 0 0 0 0
0.00150000 0.00179520 17233.96285697 0 -14714.45534449 0 25318.42082331 0 -20074.67851245 0 -27000.41768651 0 3
0.00250000 0.00253879 41241.42042176 0 -25234.04970819 0 -5531.74455172 0 2586.46186066 0 28862.89344425 0 6
0.00350000 0.00331552 41661.39370213 0 -8313.66616241 0 -3114.24636779 0 8623.77983593 0 38477.43597728 0 7
0.00450000 0.00420575 48735.05913577 0 -2283.83307872 0 -19685.37557182 0 -10031.45985174 0 -3566.62834291 0 24
0.00550000 0.00557378 53781.82478811 0 -11737.77154025 0 -19555.27575520 0 5173.52162686 0 -15862.65542819 0 45
0.00650000 0.00659388 62468.06360834 0 -22175.09853054 0 -36163.43081343 0 7405.15976639 0 29068.50651614 0 40
0.00750000 0.00754703 70643.75753118 0 -14191.39872006 0 -19229.41723579 0 -11840.96560756 0 -7902.31822307 0 57
0.00850000 0.00846663 82958.72936422 0 -6832.43269282 0 -38488.39757885 0 -7041.32317285 0 -2887.44086621 0 75
0.00950000 0.00948925 88340.21139583 0 -9008.94172707 0 -35516.25342778 0 -11579.54801859 0 -91.44920948 0 112
0.01050000 0.01054430 89463.38802543 0 10618.06054831 0 -28117.83670721 0 -17138.96231003 0 29584.91974568 0 105
0.01150000 0.01145670 77919.82506250 0 9236.34513419 0 -22278.07115136 0 -13973.16319788 0 763.12123499 0 144
0.01250000 0.01249090 78355.52104411 0 4281.38012693 0 -21363.27567484 0 -1880.92225089 0 31764.17471648 0 169
0.01350000 0.01339930 69825.73417357 0 1505.95797091 0 -20826.04647464 0 -7567.87865192 0 7623.36207159 0 180
0.01450000 0.01448870 77096.48698899 0 -3426.41949373 0 -1846.09978934 0 -4476.97274485 0 11339.94290951 0 267
0.01550000 0.01550050 82886.20563666 0 -2223.90965680 0 -2490.06620079 0 -12107.91935893 0 8504.23194486 0 238
0.01650000 0.01653350 76025.57173253 0 3578.69717696 0 5886.83400865 0 -7233.82661214 0 -5138.02375349 0 315
0.01750000 0.01747870 79751.40903400 0 5134.70205605 0 13459.73949604 0 -9273.00560167 0 -4616.07436154 0 297
0.01850000 0.01844180 68212.16427775 0 5611.31027787 0 12877.44593383 0 1214.82226213 0 -15714.83989186 0 388
0.01950000 0.01947590 67944.43546364 0 5564.21968041 0 24409.93657194 0 -6705.01237880 0 -12227.61119022 0 399
0.02050000 0.02045430 63242.68345265 0 3785.57249387 0 25048.47754423 0 -6325.08769730 0 -14187.19123663 0 462
0.02150000 0.02154770 58200.34673024 0 3953.01926210 0 20610.80048017 0 -2376.85167952 0 -17599.79246898 0 571
0.02250000 0.02255340 59017.37357860 0 1974.21765981 0 19415.43229274 0 -8715.43654077 0 -16586.12113184 0 510
0.02350000 0.02348930 56626.52648051 0 -1144.18082978 0 22293.46168286 0 -554.65925393 0 -22427.76898291 0 555
0.02450000 0.02439640 61011.83144819 0 -2183.25208007 0 20104.13089646 0 3385.27473470 0 -23945.56326905 0 592
0.02550000 0.02547300 65841.57953408 0 -7383.01511675 0 19592.47876659 0 5339.06395523 0 -19438.24128187 0 837
0.02650000 0.02652900 70100.43855232 0 -6015.27297655 0 15525.17096771 0 10286.10117792 0 -12186.08997215 0 723
0.02750000 0.02749970 71222.50794945 0 5188.89001371 0 16133.48449325 0 5506.30034929 0 -18633.50471405 0 826
0.02850000 0.02848090 64985.46737910 0 7757.83545651 0 12947.42302668 0 2903.60646044 0 -974.30700795 0 831
0.02950000 0.02946900 61142.15271130 0 4224.82269175 0 9931.35496306 0 2049.21051581 0 -2085.43916262 0 996
0.03050000 0.03053250 56601.39230318 0 5035.07327733 0 11707.43337024 0 -2988.76371062 0 1586.30983212 0 1041
0.03150000 0.03150510 52134.37357834 0 6113.71701651 0 16002.38816740 0 239.17771734 0 3406.58895998 0 1036
0.03250000 0.03246190 48549.59769506 0 -640.94034508 0 19649.72268591 0 1097.67042215 0 -5308.32718153 0 1059
0.03350000 0.03345080 49720.05315163 0 629.30997509 0 12245.32690993 0 2130.09384861 0 7265.71490762 0 1302
0.03450000 0.03451200 49337.94722214 0 -1007.38779281 0 12201.36978040 0 1959.34752758 0 -8871.73347791 0 1339
0.03550000 0.03553350 49830.88712307 0 -1698.94859250 0 9693.55464293 0 4790.29739256 0 -3994.59584180 0 1365
0.03650000 0.03647120 52456.57823056 0 -1301.65143336 0 9433.07820157 0 546.45576847 0 -13089.59167736 0 1308
0.03750000 0.03744890 50162.94614438 0 1354.59929064 0 7247.22412517 0 -659.39791055 0 -6632.85403796 0 1579
0.03850000 0.03847530 50742.13945564 0 1295.51736541 0 10035.85556470 0 -4989.16741863 0 -7075.25984841 0 1662
0.03950000 0.03950240 49118.27229774 0 3304.59070375 0 13570.46274423 0 -2689.03587778 0 -4856.14450826 0 1683
0.04050000 0.04050350 47617.75083832 0 2464.48913046 0 14610.37549120 0 -2740.48897121 0 -3281.61562975 0 1822
0.04150000 0.04152450 45458.09388244 0 1822.26107400 0 21170.39577650 0 -1327.11778044 0 -3725.35011918 0 1887
0.04250000 0.04250150 46934.47767376 0 1246.46696646 0 20926.14029100 0 1025.38032064 0 -1716.43179339 0 1920
0.04350000 0.04349210 42441.77115535 0 1179.41296736 0 20188.83418133 0 1199.24350111 0 -1389.63212636 0 2005
0.04450000 0.04448520 43681.20719555 0 1572.89017444 0 18948.95524813 0 3299.02132437 0 663.58214210 0 2151
0.04550000 0.04548030 41887.93346792 0 1256.97460271 0 17664.78701567 0 5185.22507420 0 -100.36209879 0 2274
0.04650000 0.04648670 40279.01394852 0 1565.12847474 0 16422.91506401 0 4735.95442235 0 -2467.62259838 0 2311
0.04750000 0.04749250 38362.94813865 0 932.17127585 0 12915.64545445 0 2942.61426078 0 -1252.58996208 0 2568
0.04850000 0.04851840 37426.22945900 0 1343.07300050 0 14129.17225458 0 179.06717313 0 -1682.08544180 0 2493
0.04950000 0.04949480 36432.93119951 0 1285.44154982 0 14033.06447515 0 -1776.96419317 0 -1904.17413301 0 2644
0.05050000 0.05050630 35991.58833224 0 1027.00352346 0 14729.95659924 0 -2611.20850663 0 -2122.13284707 0 2829
0.05150000 0.05149060 35201.79940293 0 749.88537790 0 16481.70910880 0 -1665.67625642 0 512.79479379 0 2784
0.05250000 0.05249300 36462.60503003 0 -480.47246318 0 19576.09172586 0 255.54372065 0 -995.07093868 0 3055
0.05350000 0.05348950 37084.31606860 0 -1013.15536681 0 19720.47484150 0 965.11365665 0 -4843.78779376 0 3009
0.05450000 0.05448610 36545.31529642 0 655.18599819 0 18137.24311568 0 212.84108552 0 -3544.67192279 0 3336
0.05550000 0.05550870 36166.97395737 0 397.47763804 0 19304.48759806 0 1984.31562005 0 -2217.42127446 0 3349
0.05650000 0.05647670 36360.40747195 0 471.99106237 0 17818.91377714 0 1322.04665567 0 -3719.85824607 0 3324
0.05750000 0.05747970 35411.61995824 0 461.18558058 0 16259.81971943 0 2073.55855809 0 -4490.65813832 0 3639
0.05850000 0.05849280 34686.27195937 0 1812.58386211 0 16222.17381505 0 1580.49686159 0 -1896.47886726 0 3846
0.05950000 0.05951020 32674.31981658 0 2010.35772802 0 14142.12687462 0 2613.52262252 0 -297.70049017 0 3787
0.06050000 0.06049470 31495.78156288 0 820.85344383 0 12941.66541778 0 4286.52875797 0 18.70326036 0 3930
0.06150000 0.06148310 30444.24287485 0 -412.53932149 0 11289.34238509 0 4701.82951726 0 2022.80302112 0 4083
0.06250000 0.06249100 31007.49203838 0 -1200.15143174 0 10204.22133589 0 2653.18369002 0 921.67028300 0 4303
0.06350000 0.06350600 31748.45201524 0 540.30398480 0 11441.03323511 0 -24.42997748 0 2299.76615413 0 4470
0.06450000 0.06451750 31304.56251326 0 1874.54459180 0 11070.74147620 0 -1692.90310315 0 4508.73924475 0 4479
0.06550000 0.06550280 29396.69022376 0 1696.90021241 0 11505.36344230 0 49.13753814 0 8840.34343705 0 4636
0.06650000 0.06648880 29032.52146048 0 668.27791506 0 13045.63454783 0 487.37937940 0 8589.42241201 0 4653
0.06750000 0.06749660 28675.77115482 0 -175.54728107 0 12380.51999597 0 2239.92023849 0 7306.22854413 0 5220
0.06850000 0.06852730 29214.77192699 0 530.30678272 0 14583.91263488 0 1947.94303302 0 5086.65923866 0 5029
0.06950000 0.06949320 27894.72936211 0 959.69928982 0 11099.89490744 0 -229.22148286 0 6154.62925672 0 5040
0.07050000 0.07048030 27351.85327625 0 607.97581963 0 11828.89677350 0 -110.74207114 0 5302.50313868 0 5475
0.07150000 0.07148790 27483.72466484 0 270.19572808 0 11226.67302662 0 -302.69521589 0 5506.65466368 0 5509
0.07250000 0.07249820 27238.80483986 0 -267.81185655 0 11358.10152222 0 1508.46031632 0 4073.48615613 0 5916
0.07350000 0.07351270 27524.02792718 0 -155.67577972 0 10322.72842842 0 1442.42497110 0 2419.53549170 0 5721
0.07450000 0.07449140 27090.32496404 0 494.82773231 0 9313.46387655 0 862.82087659 0 2198.66475621 0 6028
0.07550000 0.07549160 27280.43678117 0 30.69193078 0 9987.79060266 0 449.17100092 0 164.72961972 0 6183
0.07650000 0.07648840 26514.67479672 0 421.12812385 0 8850.31960172 0 428.78131476 0 830.99901506 0 6330
0.07750000 0.07749960 26533.94064190 0 147.72031434 0 8672.91881347 0 22.88926348 0 429.82654223 0 6583
0.07850000 0.07848650 25916.99070301 0 721.78713921 0 8384.92764494 0 888.14328345 0 -858.01327315 0 6549
0.07950000 0.07947320 25153.77535326 0 1126.63119495 0 6701.76818763 0 968.22497993 0 -1259.64303299 0 6828
0.08050000 0.08048110 23896.29142360 0 921.70239274 0 6939.95603913 0 531.98423993 0 -1840.88472435 0 7147
0.08150000 0.08149960 23272.91953631 0 803.06686124 0 5962.52442111 0 -239.97271026 0 -217.24676357 0 7386
0.08250000 0.08250610 23107.27755703 0 321.03320026 0 6703.98265260 0 723.46348919 0 -898.33425121 0 7227
0.08350000 0.08350160 22367.64625914 0 -77.82482452 0 5684.01116263 0 500.41039848 0 175.93481244 0 7798
0.08450000 0.08449610 22774.00057998 0 -184.68859244 0 6363.39794117 0 957.59222641 0 -1506.74410597 0 7371
0.08550000 0.08548940 22500.29271047 0 47.32987039 0 5598.01241576 0 7.30602924 0 -644.83558895 0 8256
0.08650000 0.08650700 22606.91919847 0 394.12936701 0 6200.69012796 0 231.35511985 0 -1066.53172306 0 8037
0.08750000 0.08749060 22154.28255988 0 657.16019371 0 6180.72672632 0 -849.91386754 0 333.91917188 0 8155
0.08850000 0.08849210 21821.66992233 0 928.84625671 0 6213.34579523 0 174.00047729 0 -755.01186429 0 8718
0.08950000 0.08949900 20862.03153030 0 901.44446725 0 6729.51543363 0 -776.99264352 0 16.61203037 0 8571
0.09050000 0.09049190 20390.79338602 0 584.36408695 0 6698.31362229 0 -429.01161912 0 35.21851861 0 8932
0.09150000 0.09150830 20077.00370066 0 88.23015249 0 7227.71468884 0 72.93938264 0 207.21745175 0 9285
0.09250000 0.09250820 19929.63105732 0 129.56059440 0 7803.43129011 0 75.18872542 0 28.52551971 0 9204
0.09350000 0.09350330 20026.07100649 0 109.30831580 0 7266.61176593 0 641.41977674 0 -331.40353968 0 9349
0.09450000 0.09448040 19688.58654602 0 -89.66113975 0 7590.05651853 0 52.39612334 0 -976.73849048 0 9564
0.09550000 0.09549270 19831.86242917 0 466.18362800 0 6758.87923905 0 231.79801285 0 -1687.47766399 0 10155
0.09650000 0.09649430 19098.21018669 0 382.99503717 0 6539.45897812 0 567.81096135 0 -994.63468909 0 9913
0.09750000 0.09749140 19052.70293169 0 383.93175585 0 5719.60868692 0 445.17389166 0 -1336.52925653 0 10476
0.09850000 0.09850240 18619.44286153 0 369.47351411 0 6133.01607867 0 927.91064526 0 -706.58262277 0 10575
0.09950000 0.09950330 18194.26558850 0 273.28490671 0 5243.36585182 0 1148.21115602 0 -214.17197897 0 10882
0.10050000 0.10051200 17910.37118015 0 377.95270045 0 5059.26630706 0 1289.43865908 0 957.85131881 0 10875
0.10150000 0.10150300 17429.50011327 0 468.96942493 0 5140.22714613 0 793.37414809 0 1448.37080953 0 11118
0.10250000 0.10250800 17416.43476999 0 304.00064299 0 5216.03935417 0 -188.83628532 0 1025.07693894 0 11575
0.10350000 0.10349800 16813.76813011 0 504.97219631 0 5653.01972546 0 -726.07766508 0 1820.45628506 0 11364
0.10450000 0.10450100 16569.95553760 0 364.86078359 0 5745.75044582 0 -405.99004136 0 2132.93943609 0 12093
0.10550000 0.10551000 16472.18690945 0 119.53238981 0 6023.85402829 0 174.33043257 0 1785.96599325 0 12067
0.10650000 0.10649700 16838.23796796 0 -419.32776383 0 5625.81502338 0 481.58301736 0 923.85817438 0 12054
0.10750000 0.10749900 16637.49671899 0 -30.15857689 0 5507.28578620 0 909.39328924 0 129.18634982 0 12807
0.10850000 0.10850100 16730.39352422 0 447.45368334 0 5094.57595091 0 -141.53309923 0 -255.15176035 0 12736
0.10950000 0.10950300 16085.31988029 0 489.97251787 0 5051.89213873 0 -257.80468938 0 94.65032931 0 12933
0.11050000 0.11050200 15818.36612891 0 632.45340811 0 4919.53356785 0 -464.99446032 0 77.74920054 0 13428
0.11150000 0.11150900 15318.56138660 0 516.36340408 0 5548.70735334 0 -179.95628081 0 -547.32716044 0 13453
0.11250000 0.11250000 14875.66839385 0 457.73544417 0 5580.77280602 0 -102.82214792 0 -855.09682279 0 13668
0.11350000 0.11349100 14753.98354409 0 -14.48503677 0 5052.21323615 0 91.35487327 0 -2185.34474946 0 13791
0.11450000 0.11448600 14558.99990404 0 168.56285857 0 5045.21552686 0 -176.68883776 0 -1827.71973014 0 14205
0.11550000 0.11549300 14650.12513730 0 67.35029451 0 4851.78201228 0 2.50976387 0 -2802.99224481 0 14776
0.11650000 0.11649800 14288.50300872 0 392.71875283 0 4595.96701967 0 146.04285713 0 -2322.14332259 0 14553
0.11750000 0.11747300 14096.28744987 0 132.90000757 0 4718.08369010 0 547.35041232 0 -1906.76505702 0 14568
0.11850000 0.11849100 14243.66009320 0 -194.52524581 0 4752.78435608 0 736.51997461 0 -1580.67401879 0 16015
0.11950000 0.11950300 14415.94546738 0 -114.92187376 0 4869.22092387 0 495.75559313 0 -825.79502239 0 15270
0.12050000 0.12050700 14125.07549440 0 492.19362623 0 5195.30088978 0 635.45400813 0 -159.58320315 0 15999
0.12150000 0.12150000 13903.62899802 0 469.41674685 0 4869.63059989 0 -214.52518613 0 959.98274133 0 15670
0.12250000 0.12250700 13587.84629419 0 467.13363347 0 5411.76483999 0 -339.90819238 0 1502.80235834 0 16887
0.12350000 0.12352200 13269.95984865 0 286.49529745 0 5435.94679739 0 469.44221320 0 1891.56275504 0 16407
0.12450000 0.12449800 13304.50550209 0 -51.22411775 0 5428.76085858 0 445.83933838 0 1742.96108365 0 16306
0.12550000 0.12549900 12996.69487213 0 -35.42125288 0 4953.81348549 0 656.60657747 0 1064.96166740 0 17523
0.12650000 0.12650100 13398.73098629 0 -49.82479734 0 4980.97389827 0 228.58703865 0 933.58521173 0 17154
0.12750000 0.12750600 13139.63858554 0 76.15157479 0 4891.65345395 0 425.04219067 0 1085.06236588 0 18007
0.12850000 0.12850300 13230.76381879 0 163.66778377 0 4624.61112398 0 -234.84290217 0 1132.39987618 0 17496
0.12950000 0.12949900 13046.96322680 0 72.24647655 0 4574.77458997 0 -35.62166196 0 936.39647501 0 18405
0.13050000 0.13049000 12971.89286453 0 231.11374317 0 4706.66812321 0 -26.12515041 0 1054.61679433 0 18100
0.13150000 0.13148800 12996.58414888 0 154.40356960 0 4716.56678160 0 -62.77465628 0 40.09632059 0 19059
0.13250000 0.13249300 12557.12357683 0 332.57166995 0 4739.54185560 0 -20.48380091 0 742.29197754 0 18957
0.13350000 0.13349100 12419.82674908 0 372.30692203 0 4885.56367530 0 106.48675526 0 627.22727079 0 19468
0.13450000 0.13450700 12062.85499692 0 196.67549129 0 4856.08914664 0 393.39859357 0 785.39432359 0 19953
0.13550000 0.13551000 12023.10535082 0 263.60769482 0 5015.38668380 0 598.98066295 0 433.19917237 0 19956
0.13650000 0.13649900 11753.82641123 0 254.06888699 0 4861.39279023 0 230.35418169 0 906.36500840 0 19723
0.13750000 0.13749600 11679.53111170 0 196.30678287 0 4742.50923865 0 186.03830884 0 1653.27525262 0 20946
0.13850000 0.13851100 11656.72212257 0 -68.13033980 0 4882.52985830 0 316.80135771 0 1791.15891359 0 20955
0.13950000 0.13949800 11779.62492806 0 -47.41136270 0 4712.45894909 0 304.13461812 0 1990.46076032 0 20506
0.14050000 0.14048300 11616.97247648 0 60.28559766 0 4405.10228445 0 177.42736182 0 1473.27246804 0 21447
0.14150000 0.14148400 11509.90309548 0 156.34565537 0 4242.11766312 0 291.18885594 0 1405.85308222 0 21771
0.14250000 0.14249400 11411.35940459 0 176.55929156 0 4205.63435284 0 176.51610949 0 1428.54027578 0 22470
0.14350000 0.14350900 11231.65557279 0 114.47565907 0 3580.45767661 0 408.60532448 0 1188.86873275 0 22519
0.14450000 0.14449900 11137.09791884 0 92.61158214 0 3416.04472537 0 158.48372129 0 455.57301913 0 22218
0.14550000 0.14550500 10809.51211675 0 260.01029648 0 3351.73666283 0 267.79303360 0 354.43951147 0 23559
0.14650000 0.14650700 10701.20263537 0 293.55390452 0 2947.28678185 0 -3.10585355 0 418.06330434 0 23044
0.14750000 0.14750500 10338.27397247 0 197.09845410 0 2761.60389464 0 307.94792679 0 344.16217957 0 23649
0.14850000 0.14849900 10254.09108687 0 91.36727428 0 2693.63089258 0 261.06991797 0 548.88946547 0 23640
0.14950000 0.14949500 10209.64677505 0 48.72487260 0 2813.18985597 0 396.59517375 0 312.71899155 0 24457
0.15050000 0.15050000 10060.46934277 0 217.56564652 0 2551.27401239 0 96.57237418 0 675.42731519 0 24591
0.15150000 0.15149900 9893.32152731 0 116.44210396 0 2695.53533245 0 121.06037064 0 747.69416482 0 25020
0.15250000 0.15250500 9870.91114187 0 164.34098112 0 2829.51046276 0 9.46167802 0 1015.43515849 0 25297
0.15350000 0.15350100 9708.00402682 0 194.75887186 0 2868.59576937 0 57.56557035 0 804.96465771 0 25452
0.15450000 0.15450400 9424.53036681 0 277.48574675 0 2820.66367523 0 77.64534213 0 688.02762084 0 26061
0.15550000 0.15549900 9376.33253687 0 156.50841854 0 2792.09707719 0 13.50502530 0 788.58426037 0 26128
0.15650000 0.15649500 9320.51694746 0 13.72580746 0 2601.26555894 0 4.38548212 0 768.34515784 0 26331
0.15750000 0.15749700 9418.97205975 0 -134.56749968 0 2505.94391458 0 168.47095828 0 682.11942831 0 27345
0.15850000 0.15849900 9490.00102346 0 -63.75776800 0 2382.42105890 0 276.37076364 0 674.36105031 0 26980
0.15950000 0.15949700 9500.11005602 0 17.46083479 0 2367.27411855 0 300.17736923 0 655.19817775 0 27777
0.16050000 0.16050000 9448.39122679 0 139.11601072 0 2329.53963557 0 107.85839486 0 755.60312644 0 28224
0.16150000 0.16150500 9310.35255328 0 288.22036566 0 2290.87507730 0 127.60522184 0 919.45360357 0 28075
0.16250000 0.16249700 9113.68591985 0 196.93236922 0 2278.88374952 0 -162.64137926 0 747.19258850 0 28590
0.16350000 0.16349900 8947.37960108 0 207.86850445 0 2391.11283389 0 -8.29258446 0 645.58075641 0 29163
0.16450000 0.16449100 8895.80471207 0 126.61314153 0 2125.74242496 0 -127.12246848 0 710.59301882 0 28996
0.16550000 0.16550500 8751.41052411 0 50.29492826 0 2157.40927394 0 114.41697575 0 509.81966011 0 30777
0.16650000 0.16650700 8794.00575769 0 31.20158989 0 1936.23958569 0 189.76968230 0 398.83289060 0 29211
0.16750000 0.16749900 8639.87899621 0 99.21212714 0 2001.76560396 0 52.03915158 0 109.33444648 0 30922
0.16850000 0.16850800 8537.59285954 0 186.08591983 0 2061.55615798 0 -156.64239367 0 289.62544368 0 30867
0.16950000 0.16949900 8484.68929155 0 207.28831463 0 2194.98874437 0 -185.27321119 0 177.63219983 0 30852
0.17050000 0.17049200 8297.43413422 0 169.73652500 0 2558.55960212 0 -157.38534667 0 553.22206617 0 31257
0.17150000 0.17149500 8308.69468856 0 58.97585236 0 2639.33221167 0 -100.30385836 0 496.83293033 0 32608
0.17250000 0.17250900 8231.08876391 0 39.51956319 0 2788.18854653 0 206.37595506 0 370.63610821 0 32361
0.17350000 0.17350400 8167.99865709 0 118.01437408 0 2814.57389658 0 144.27460685 0 446.86242119 0 32508
0.17450000 0.17449800 8186.23477607 0 -23.79542254 0 2807.73119984 0 29.65766492 0 339.24828182 0 32791
0.17550000 0.17549800 8092.04250884 0 103.45393477 0 2584.18096175 0 192.28752896 0 202.19061628 0 33633
0.17650000 0.17650100 8077.15023195 0 109.07070371 0 2381.57956222 0 179.02952723 0 81.92944605 0 33984
0.17750000 0.17750300 7980.05701562 0 44.03087121 0 2286.06968833 0 -18.60294510 0 165.06732563 0 34069
0.17850000 0.17849800 7907.13468436 0 151.78607201 0 2069.59466580 0 70.20053237 0 267.85614585 0 34536
