### header ###
fiducial parameters:
Omega_m = 0.31
Omega_nu = 0
Omega_de = 0.69
Omega_k = 0
H_0 = 100
w_de = -1
zeff = 0
beta = 0
fgrowth = 0
b_1 = 2
gamma = 0.55
Lx = 3500 Ly = 3500 Lz = 3500
nx = 700 ny = 700 nz = 700
xoffset = -685.467585 yoffset = -31.7331281 zoffset = 572.489161
bins = 400 dk = 0.001
kx_ny = 0.628318531 ky_ny = 0.628318531 kz_ny = 0.628318531
############################
A(data) = 8.00892133 (not used)
A(ran) = 8.0089989 (used)
Ngal = 476382
weighted Ngal = 0
Nran = 23820508
weighted Nran = 0
SN(data) = 3488.52533
SN(ran) = 69.761285
SN(data+ran) = 3558.28662
############################
13 columns: k_central k_mean P_0(k) sigma^{lin}_{P_0(k)} P^img_1(k) sigma^{lin}_{P_1(k)} P_2(k) sigma^{lin}_{P_2(k)} P^img_3(k) sigma^{lin}_{P_3(k)} P_4(k) sigma^{lin}_{P_4(k)} N_modes
### header ###
0.00050000 0 0 0 0 0 0 0 0 0 0 0 0
0.00150000 0.00179520 15175.39622669 0 -7680.20738721 0 19603.88326116 0 -56349.93980654 0 5776.63115973 0 3
0.00250000 0.00253879 39731.26603974 0 -22015.32488341 0 1214.29079054 0 -19883.12729308 0 -13530.93454463 0 6
0.00350000 0.00331552 49543.11740103 0 -18388.47416582 0 36982.22923377 0 -59581.61925136 0 35153.85623646 0 7
0.00450000 0.00420575 75964.45249953 0 -23967.15430244 0 63209.13430845 0 -47269.08332978 0 49426.19365095 0 24
0.00550000 0.00557378 111851.51808548 0 -16476.39439288 0 104261.21797580 0 1953.35739986 0 35924.82221359 0 45
0.00650000 0.00659388 136764.24892744 0 13070.54727867 0 140400.40039788 0 35770.36328237 0 56616.67211143 0 40
0.00750000 0.00754703 119374.05556727 0 36344.68477071 0 95512.30979710 0 43364.87087548 0 -3530.23361123 0 57
0.00850000 0.00846663 100418.12475450 0 34228.43132812 0 94229.69169011 0 65351.62916086 0 28792.03056542 0 75
0.00950000 0.00948925 89729.56671407 0 13365.95690483 0 66805.09323980 0 44766.62719752 0 -14687.66031843 0 112
0.01050000 0.01054430 75624.97502059 0 -6436.84067170 0 61130.96966324 0 32745.18269542 0 -31273.89217351 0 105
0.01150000 0.01145670 88947.97130512 0 -8031.98621902 0 57224.54274397 0 11669.89818911 0 -27613.27086522 0 144
0.01250000 0.01249090 88200.03576362 0 -3924.39730245 0 33346.07776332 0 2665.25252407 0 -39501.29385326 0 169
0.01350000 0.01339930 83042.54686310 0 800.50693974 0 23577.51919207 0 2018.82805651 0 -17008.41960042 0 180
0.01450000 0.01448870 87280.14701769 0 9229.36956956 0 25528.13065537 0 160.74801172 0 -25686.02200729 0 267
0.01550000 0.01550050 84280.43277782 0 7904.46625408 0 21569.11019322 0 1154.40058559 0 -26957.56778946 0 238
0.01650000 0.01653350 71891.27636849 0 7129.91284372 0 23835.06146736 0 12361.69704378 0 -29625.88734751 0 315
0.01750000 0.01747870 64968.30527563 0 2324.36885988 0 6101.92499058 0 1357.21235930 0 -7051.03360171 0 297
0.01850000 0.01844180 64917.59402796 0 3083.38779852 0 10254.64470311 0 -5352.22894944 0 -20788.17912376 0 388
0.01950000 0.01947590 60814.85478966 0 2183.72819003 0 11896.43795490 0 -8903.27853132 0 -18739.57758581 0 399
0.02050000 0.02045430 58871.55106074 0 4237.81052876 0 13164.77276287 0 -9386.03189342 0 -15847.48634318 0 462
0.02150000 0.02154770 54047.78203025 0 6251.14671216 0 19242.03968608 0 -6504.22684054 0 -3747.69407067 0 571
0.02250000 0.02255340 55535.34886964 0 -864.63009446 0 20988.36675648 0 9644.89177535 0 -344.27843898 0 510
0.02350000 0.02348930 61337.91141410 0 -9930.73491287 0 25207.14395888 0 5692.21575532 0 -1790.84888849 0 555
0.02450000 0.02439640 67913.87584714 0 -9034.23091695 0 29333.35652580 0 11397.18682883 0 5052.01393430 0 592
0.02550000 0.02547300 73352.93396780 0 4273.56306560 0 36079.72403780 0 6209.07187785 0 8014.35907791 0 837
0.02650000 0.02652900 66655.06323851 0 8622.49544625 0 27790.31733907 0 1786.72998366 0 20708.12621532 0 723
0.02750000 0.02749970 67273.78474937 0 -3862.72445321 0 34010.41725244 0 4358.52101394 0 11644.98545827 0 826
0.02850000 0.02848090 67717.45280486 0 -4936.77317759 0 35536.62650545 0 4994.29390502 0 22269.98835424 0 831
0.02950000 0.02946900 70047.84500944 0 1814.67653150 0 32071.09956046 0 13751.05236202 0 11995.64598527 0 996
0.03050000 0.03053250 67061.63900585 0 1235.51643721 0 23201.94593423 0 7199.75706868 0 14087.20814352 0 1041
0.03150000 0.03150510 65144.02307051 0 4324.07501143 0 17682.39201213 0 574.80202724 0 4823.28184820 0 1036
0.03250000 0.03246190 58305.75526251 0 6045.62221888 0 16676.91419535 0 -4039.15087687 0 4998.77819657 0 1059
0.03350000 0.03345080 55115.48631251 0 6074.29954016 0 20798.69783234 0 -7437.60167810 0 3230.02966842 0 1302
0.03450000 0.03451200 49446.12383562 0 3825.13391045 0 18694.18105406 0 -6685.32578528 0 1886.51377493 0 1339
0.03550000 0.03553350 48893.72555042 0 2451.36842555 0 22157.93642708 0 -1080.13628857 0 -684.04822730 0 1365
0.03650000 0.03647120 48672.16833080 0 515.64591743 0 25597.33268549 0 -835.64496255 0 -2542.64867135 0 1308
0.03750000 0.03744890 47784.05715709 0 1454.39415423 0 23352.52955176 0 4644.27557286 0 -2762.43431900 0 1579
0.03850000 0.03847530 46075.15454458 0 2204.62166697 0 28022.28254402 0 3857.62011147 0 539.60753557 0 1662
0.03950000 0.03950240 45304.74218370 0 926.48120813 0 25148.34991410 0 5966.37759015 0 5549.34954818 0 1683
0.04050000 0.04050350 44282.54515645 0 886.68173657 0 28748.62705213 0 3606.99803920 0 7311.60969399 0 1822
0.04150000 0.04152450 44972.57243914 0 1925.48835829 0 24129.14241454 0 1727.12765916 0 4226.87107184 0 1887
0.04250000 0.04250150 42225.19648189 0 373.86258366 0 22025.17925250 0 2352.20468447 0 6298.71341958 0 1920
0.04350000 0.04349210 42764.52942381 0 -390.34816809 0 18922.60311507 0 1841.98088451 0 4343.86125588 0 2005
0.04450000 0.04448520 42776.59825786 0 -847.46134760 0 17880.47590314 0 4288.13424506 0 -1933.64866168 0 2151
0.04550000 0.04548030 42280.00448975 0 133.23771347 0 16157.06854511 0 2668.90639126 0 -9134.00363589 0 2274
0.04650000 0.04648670 40948.33598381 0 2733.92308260 0 10239.78564321 0 -1054.33666451 0 -9931.49890328 0 2311
0.04750000 0.04749250 37499.74969579 0 1717.77154469 0 9396.17414295 0 486.90769836 0 -6928.09757925 0 2568
0.04850000 0.04851840 37716.98870873 0 1387.38444443 0 11553.41733202 0 199.15126312 0 -10651.07822092 0 2493
0.04950000 0.04949480 36127.66720426 0 745.93034347 0 10572.50900401 0 -2275.97172810 0 -8153.25032043 0 2644
0.05050000 0.05050630 34915.02619013 0 2025.50466837 0 14114.99967881 0 -1700.01153568 0 -8373.44564410 0 2829
0.05150000 0.05149060 34534.80255585 0 1306.36824373 0 13997.19014274 0 -649.14825947 0 -3593.09119922 0 2784
0.05250000 0.05249300 33397.45335048 0 165.12822342 0 15645.74858499 0 1320.85084459 0 -3757.22734234 0 3055
0.05350000 0.05348950 34304.71964612 0 -37.00060929 0 14978.75173791 0 2435.43535013 0 -2715.59838502 0 3009
0.05450000 0.05448610 33980.85414518 0 57.27270736 0 15910.37714815 0 369.21663617 0 -3579.72690317 0 3336
0.05550000 0.05550870 33176.33902385 0 1136.86202308 0 16549.80390643 0 -35.03438585 0 -584.68850607 0 3349
0.05650000 0.05647670 33297.69170387 0 1313.10021722 0 16945.97168844 0 -23.01692739 0 394.61544207 0 3324
0.05750000 0.05747970 32431.61445655 0 -665.37807319 0 18836.34970473 0 2303.98470989 0 4858.21503300 0 3639
0.05850000 0.05849280 33012.46861654 0 288.65218632 0 15998.95574670 0 4180.13478878 0 5564.74007968 0 3846
0.05950000 0.05951020 33761.06849753 0 -462.96933211 0 17794.33321605 0 3601.84940816 0 7074.21904988 0 3787
0.06050000 0.06049470 32715.50886490 0 68.58751609 0 15849.03646866 0 5827.67457715 0 7714.29907532 0 3930
0.06150000 0.06148310 33988.38332605 0 -597.61987423 0 13928.87389861 0 2085.43916262 0 6612.34809240 0 4083
0.06250000 0.06249100 33540.61851039 0 -6.97459027 0 14774.68879151 0 -292.60500628 0 6511.20240518 0 4303
0.06350000 0.06350600 33313.63585161 0 1269.50847441 0 15133.98573187 0 -1628.36252178 0 4515.18333780 0 4470
0.06450000 0.06451750 32049.39780381 0 1740.68018474 0 14842.11924965 0 -2604.57618406 0 5215.12035121 0 4479
0.06550000 0.06550280 30411.80096313 0 2044.19475267 0 14117.54631352 0 -397.91831656 0 4828.23117739 0 4636
0.06650000 0.06648880 29711.69786485 0 267.23609566 0 13237.62866018 0 2575.32310189 0 1908.30411017 0 4653
0.06750000 0.06749660 29506.30623947 0 -798.37551721 0 12682.90518677 0 2068.86389236 0 -1556.83530345 0 5220
0.06850000 0.06852730 30052.72546927 0 -339.69892544 0 10934.10898794 0 954.73224490 0 -4663.84037081 0 5029
0.06950000 0.06949320 30109.08360259 0 705.98250276 0 11774.97455164 0 -2015.12990002 0 -3549.57696269 0 5040
0.07050000 0.07048030 29299.47521185 0 617.39504635 0 9897.00861147 0 -1728.46741046 0 -1998.87572719 0 5475
0.07150000 0.07148790 29161.07115162 0 447.10490511 0 10942.24714668 0 186.78458353 0 -2384.19263087 0 5509
0.07250000 0.07249820 29524.57557542 0 -657.06497171 0 10414.86124324 0 1821.57458986 0 -2499.96485918 0 5916
0.07350000 0.07351270 29661.20806368 0 42.92751405 0 10422.74473851 0 2830.68412919 0 -3991.52880782 0 5721
0.07450000 0.07449140 28375.37898249 0 1715.96675574 0 8650.40877711 0 2062.49730559 0 -4012.30048918 0 6028
0.07550000 0.07549160 27460.69422922 0 2174.71531763 0 8791.59199088 0 -84.23902228 0 -2294.56216147 0 6183
0.07650000 0.07648840 24510.25183480 0 1688.55167949 0 8120.81948104 0 763.72467669 0 -1316.82051836 0 6330
0.07750000 0.07749960 24612.56011612 0 48.49501113 0 7812.79847691 0 1880.45721325 0 -1678.63087646 0 6583
0.07850000 0.07848650 23804.61257410 0 -168.56950197 0 6849.97125533 0 2003.24929549 0 -442.16332654 0 6549
0.07950000 0.07947320 24100.79726300 0 467.40158373 0 6519.04161115 0 1727.98022817 0 -1020.97132090 0 6828
0.08050000 0.08048110 23374.00986191 0 623.01535843 0 6012.44953372 0 -270.38949377 0 1189.30055342 0 7147
0.08150000 0.08149960 23144.92346141 0 834.44915147 0 6214.87377606 0 -236.62997540 0 1834.08631691 0 7386
0.08250000 0.08250610 22482.46626751 0 790.72675523 0 7744.44901580 0 -520.86430412 0 2951.37246971 0 7227
0.08350000 0.08350160 21890.53978270 0 192.21112992 0 7921.61728523 0 1143.21753753 0 4117.43221334 0 7798
0.08450000 0.08449610 22402.85625206 0 -200.82096970 0 7729.19135220 0 647.31578971 0 4367.16849962 0 7371
0.08550000 0.08548940 22461.20740386 0 -418.92583844 0 8136.27644649 0 325.57838959 0 2024.91783516 0 8256
0.08650000 0.08650700 22325.68214808 0 277.52560711 0 7762.55226688 0 -314.79173076 0 2162.91221937 0 8037
0.08750000 0.08749060 22341.18340282 0 547.23193844 0 8025.22102855 0 -1198.88918671 0 1063.41597086 0 8155
0.08850000 0.08849210 21668.09677710 0 625.22318000 0 8362.76085065 0 -744.68581417 0 1625.76052545 0 8718
0.08950000 0.08949900 21295.62377020 0 614.57713969 0 7716.93428863 0 245.79232418 0 197.72957661 0 8571
0.09050000 0.09049190 21201.06611625 0 246.45334198 0 8416.81594042 0 609.38200488 0 134.26965415 0 8932
0.09150000 0.09150830 20748.20803116 0 236.68090809 0 7738.22636926 0 796.75452886 0 -365.86836514 0 9285
0.09250000 0.09250820 20319.70906068 0 575.58926953 0 8576.74460010 0 6.01644664 0 -331.47329533 0 9204
0.09350000 0.09350330 20039.46851952 0 798.07767167 0 8310.00122289 0 -17.52837597 0 -274.31795461 0 9349
0.09450000 0.09448040 19548.63236031 0 573.19986184 0 8811.61075415 0 -820.97081047 0 738.65250437 0 9564
0.09550000 0.09549270 18745.77808771 0 535.76876056 0 8210.68246927 0 736.94958081 0 470.37007402 0 10155
0.09650000 0.09649430 18811.54769714 0 221.19626183 0 8379.25861463 0 348.71954847 0 -288.35323355 0 9913
0.09750000 0.09749140 18272.87909471 0 155.59827344 0 7839.68208157 0 1059.02690130 0 -551.17368608 0 10476
0.09850000 0.09850240 18035.37772735 0 164.14278651 0 7006.45642199 0 979.92178387 0 -203.62780404 0 10575
0.09950000 0.09950330 17736.53568049 0 -77.13734387 0 6215.02878860 0 1127.24017281 0 -92.13702230 0 10882
0.10050000 0.10051200 17797.32274375 0 19.21402670 0 6267.96557356 0 1030.30861242 0 -661.83492924 0 10875
0.10150000 0.10150300 17770.52771769 0 174.59616837 0 4984.70527173 0 918.08617145 0 31.49766386 0 11118
0.10250000 0.10250800 17489.51211379 0 223.18595860 0 4986.84223042 0 530.72974553 0 296.50246462 0 11575
0.10350000 0.10349800 17411.34150057 0 500.53994468 0 4162.62944325 0 136.76314169 0 1219.58336180 0 11364
0.10450000 0.10450100 16828.16215237 0 192.49568867 0 4614.84533349 0 413.68752157 0 -170.18938309 0 12093
0.10550000 0.10551000 16131.82364453 0 500.36168025 0 3579.97049431 0 688.43397516 0 206.38038399 0 12067
0.10650000 0.10649700 15997.18417473 0 328.54245095 0 3542.75641060 0 654.94462151 0 -438.73865647 0 12054
0.10750000 0.10749900 15627.03635604 0 43.47814076 0 2896.66411278 0 317.37268967 0 -58.87498348 0 12807
0.10850000 0.10850100 15669.66480660 0 210.32323886 0 2840.71565547 0 20.73326039 0 -385.44644989 0 12736
0.10950000 0.10950300 15640.32314583 0 260.37346874 0 3317.76677028 0 -472.18150636 0 48.91797394 0 12933
0.11050000 0.11050200 15560.15951414 0 159.81240027 0 3467.92963947 0 -512.82690353 0 617.39172466 0 13428
0.11150000 0.11150900 15243.71247082 0 296.32752189 0 4359.18535343 0 -44.33447436 0 202.12086063 0 13453
0.11250000 0.11250000 15338.93446426 0 124.09529487 0 4501.65295687 0 254.25822374 0 772.78737456 0 13668
0.11350000 0.11349100 15147.05107516 0 194.99028345 0 4928.97826092 0 -92.56718212 0 242.05652179 0 13791
0.11450000 0.11448600 15094.34680902 0 719.14971144 0 5330.41646954 0 -279.72124913 0 878.27894926 0 14205
0.11550000 0.11549300 14373.98135632 0 659.97367144 0 5313.56439117 0 -262.19486617 0 1122.43478384 0 14776
0.11650000 0.11649800 13880.04494616 0 492.81035473 0 5207.27007291 0 -189.03558716 0 1286.93631367 0 14553
0.11750000 0.11747300 13731.12217735 0 -35.17123979 0 5344.53368369 0 657.49014899 0 1237.69768520 0 14568
0.11850000 0.11849100 13708.75608121 0 -408.91202788 0 5172.30367113 0 480.36395440 0 484.23705362 0 16015
0.11950000 0.11950300 13908.83299069 0 -84.42691964 0 4634.76444584 0 579.64063319 0 -71.38305666 0 15270
0.12050000 0.12050700 13812.28231827 0 152.34743888 0 3959.07582378 0 481.33721175 0 171.21800207 0 15999
0.12150000 0.12150000 13674.76404402 0 123.39773841 0 3490.62790535 0 495.63601202 0 518.19033768 0 15670
0.12250000 0.12250700 13477.67666225 0 59.00663342 0 3424.10537784 0 608.06107653 0 -92.14909113 0 16887
0.12350000 0.12352200 13377.02922965 0 82.78544748 0 3000.67753213 0 530.14291232 0 -229.36763755 0 16407
0.12450000 0.12449800 13289.44714033 0 380.80271686 0 3142.38114516 0 -138.95435478 0 -205.71161557 0 16306
0.12550000 0.12549900 13058.03555162 0 351.01262694 0 3237.10488398 0 -168.63815038 0 462.06915210 0 17523
0.12650000 0.12650100 12784.65985185 0 111.78176244 0 3339.13635718 0 -135.64705135 0 739.38217058 0 17154
0.12750000 0.12750600 12881.09980102 0 122.88619700 0 3449.37242308 0 264.29417896 0 1028.73744953 0 18007
0.12850000 0.12850300 12680.69072180 0 59.98232669 0 3652.16205213 0 -73.39545170 0 860.73706505 0 17496
0.12950000 0.12949900 12758.63988853 0 136.24495689 0 3466.43487562 0 315.55793563 0 1062.23123210 0 18405
0.13050000 0.13049000 12712.02540104 0 67.20635429 0 3781.47573369 0 -33.25960291 0 1184.17406703 0 18100
0.13150000 0.13148800 12618.68570282 0 139.75599109 0 3663.99836736 0 -22.21196937 0 743.20433710 0 19059
0.13250000 0.13249300 12534.42531095 0 327.28242038 0 3855.23956163 0 -145.80923107 0 900.04160370 0 18957
0.13350000 0.13349100 12373.98732433 0 241.62580835 0 3842.88284713 0 -161.47214176 0 1020.79748540 0 19468
0.13450000 0.13450700 12331.46959702 0 -32.60312477 0 4032.82857940 0 -118.43844412 0 1187.21895635 0 19953
0.13550000 0.13551000 12183.21116770 0 60.05075365 0 4098.98572019 0 203.82156973 0 1136.78451681 0 19956
0.13650000 0.13649900 12273.00772198 0 148.21414002 0 3686.48625907 0 382.54328632 0 718.76550176 0 19723
0.13750000 0.13749600 12018.34425115 0 362.54777493 0 3962.56360610 0 278.84764270 0 1030.61310135 0 20946
0.13850000 0.13851100 11793.68678058 0 273.68129594 0 3563.05198199 0 -152.59767342 0 704.90516556 0 20955
0.13950000 0.13949800 11499.93800314 0 238.70271460 0 3860.28854175 0 65.94920253 0 885.11943154 0 20506
0.14050000 0.14048300 11420.21726445 0 11.49938439 0 3560.62714286 0 -197.78050931 0 283.85454798 0 21447
0.14150000 0.14148400 11191.24158720 0 71.11953533 0 3699.18621564 0 69.68810518 0 208.56495368 0 21771
0.14250000 0.14249400 11291.33540356 0 176.81727673 0 3343.95281848 0 34.21237646 0 0.35325588 0 22470
0.14350000 0.14350900 11032.04370096 0 105.02930515 0 3275.57014040 0 281.75523520 0 36.67209342 0 22519
0.14450000 0.14449900 11034.39103382 0 158.15819494 0 3161.55841174 0 393.14393010 0 -107.80569060 0 22218
0.14550000 0.14550500 10812.78952490 0 203.06865164 0 2921.61006060 0 122.62599737 0 -76.29916888 0 23559
0.14650000 0.14650700 10752.61143951 0 212.41922995 0 3163.65108113 0 200.57184239 0 114.09587833 0 23044
0.14750000 0.14750500 10524.67656079 0 203.88246751 0 2947.56358997 0 113.31970836 0 -101.55381311 0 23649
0.14850000 0.14849900 10534.65272545 0 104.86643125 0 3211.20671623 0 -257.89437521 0 -177.13173075 0 23640
0.14950000 0.14949500 10389.49454708 0 213.67926051 0 3222.79944031 0 -274.15851314 0 -99.26128826 0 24457
0.15050000 0.15050000 10282.17050261 0 186.86319703 0 3041.58977233 0 -86.56011373 0 103.89926368 0 24591
0.15150000 0.15149900 10228.53616119 0 -102.86134395 0 3258.61841110 0 254.29365518 0 -36.45496513 0 25020
0.15250000 0.15250500 10097.03015932 0 175.10438808 0 3247.06997632 0 310.06606252 0 -710.62180686 0 25297
0.15350000 0.15350100 10070.60051998 0 277.81791649 0 3216.11175612 0 161.43006693 0 -292.81870215 0 25452
0.15450000 0.15450400 9761.54978964 0 299.59717941 0 2952.93366751 0 -2.21656871 0 11.15581015 0 26061
0.15550000 0.15549900 9646.63013035 0 -21.73309132 0 2887.81732525 0 148.59834969 0 129.76875411 0 26128
0.15650000 0.15649500 9727.71276499 0 -89.12014596 0 2984.79981834 0 211.43822197 0 -204.99080723 0 26331
0.15750000 0.15749700 9628.49366229 0 189.12084406 0 2814.75105377 0 272.50873674 0 -91.27493109 0 27345
0.15850000 0.15849900 9544.08933020 0 153.16789815 0 2388.94265822 0 402.16566037 0 -145.76051284 0 26980
0.15950000 0.15949700 9287.88680622 0 180.66269514 0 2075.64015515 0 333.50728140 0 -289.77824176 0 27777
0.16050000 0.16050000 9134.41331191 0 153.47792324 0 2115.32336730 0 291.69264672 0 -711.35258030 0 28224
0.16150000 0.16150500 8966.14719164 0 130.31461972 0 1924.00466676 0 -218.42818063 0 -670.17571153 0 28075
0.16250000 0.16249700 8767.79756484 0 225.58090246 0 1807.19163992 0 -34.00654194 0 -917.35982694 0 28590
0.16350000 0.16349900 8592.00226370 0 157.93896291 0 1872.96124935 0 -49.03113310 0 -680.78299871 0 29163
0.16450000 0.16449100 8533.19714658 0 191.13047102 0 1862.67505959 0 3.30844387 0 -726.05994936 0 28996
0.16550000 0.16550500 8491.27732482 0 189.97562754 0 1987.83661934 0 102.60358023 0 -377.78329388 0 30777
0.16650000 0.16650700 8332.48911460 0 33.52622449 0 1919.57573683 0 356.57979185 0 -35.10746320 0 29211
0.16750000 0.16749900 8310.24481404 0 95.80639074 0 1957.71989583 0 151.30774758 0 39.78197729 0 30922
0.16850000 0.16850800 8233.29215655 0 94.76459570 0 1958.49495857 0 75.17798527 0 235.73865325 0 30867
0.16950000 0.16949900 8175.21781287 0 110.54874835 0 2260.55905195 0 81.65153070 0 561.82747702 0 30852
0.17050000 0.17049200 8117.63065149 0 143.60473120 0 2375.24619242 0 -69.44108161 0 860.17016202 0 31257
0.17150000 0.17149500 8111.86197026 0 33.83802116 0 2334.66612196 0 -75.55245129 0 940.23857172 0 32608
0.17250000 0.17250900 8020.28277169 0 82.51218250 0 2577.90295358 0 -174.17431279 0 800.44272025 0 32361
0.17350000 0.17350400 8100.63463289 0 123.20286549 0 2549.34742787 0 -94.74466552 0 1158.32018858 0 32508
0.17450000 0.17449800 8020.08346984 0 -74.17926157 0 2604.12221875 0 225.92746623 0 1186.83142499 0 32791
0.17550000 0.17549800 8136.04392766 0 6.23376316 0 2657.18079928 0 86.73760310 0 811.76417238 0 33633
0.17650000 0.17650100 8021.89933111 0 146.75259315 0 2535.71739602 0 82.63541748 0 723.47899044 0 33984
0.17750000 0.17750300 7918.04092431 0 198.63972171 0 2464.26768396 0 106.68528205 0 655.05423753 0 34069
0.17850000 0.17849800 7745.01370437 0 113.45921965 0 2278.88374952 0 148.01040925 0 816.45883810 0 34536
