### header ###
fiducial parameters:
Omega_m = 0.31
Omega_nu = 0
Omega_de = 0.69
Omega_k = 0
H_0 = 100
w_de = -1
zeff = 0
beta = 0
fgrowth = 0
b_1 = 2
gamma = 0.55
Lx = 3500 Ly = 3500 Lz = 3500
nx = 700 ny = 700 nz = 700
xoffset = -685.467585 yoffset = -31.7331281 zoffset = 572.489161
bins = 400 dk = 0.001
kx_ny = 0.628318531 ky_ny = 0.628318531 kz_ny = 0.628318531
############################
A(data) = 8.04914355 (not used)
A(ran) = 8.04321855 (used)
Ngal = 478478
weighted Ngal = 0
Nran = 23820508
weighted Nran = 0
SN(data) = 3495.08484
SN(ran) = 70.0593506
SN(data+ran) = 3565.14419
############################
13 columns: k_central k_mean P_0(k) sigma^{lin}_{P_0(k)} P^img_1(k) sigma^{lin}_{P_1(k)} P_2(k) sigma^{lin}_{P_2(k)} P^img_3(k) sigma^{lin}_{P_3(k)} P_4(k) sigma^{lin}_{P_4(k)} N_modes
### header ###
0.00050000 0 0 0 0 0 0 0 0 0 0 0 0
0.00150000 0.00179520 19931.40262929 0 -26437.38996948 0 -3584.51014749 0 3183.78056765 0 5262.12237006 0 3
0.00250000 0.00253879 32132.99385619 0 -22251.60829504 0 -1576.07900399 0 -8465.87741169 0 2117.44925367 0 6
0.00350000 0.00331552 37862.36833360 0 -7588.45103143 0 5069.22032707 0 -47131.89722528 0 10821.81346962 0 7
0.00450000 0.00420575 37019.43224516 0 4795.44602361 0 -778.34900331 0 -11820.81397639 0 29171.03624396 0 24
0.00550000 0.00557378 42277.90074803 0 -1966.07950107 0 4364.30076749 0 -17985.33081917 0 -653.76763338 0 45
0.00650000 0.00659388 34474.90127859 0 -5171.27394492 0 3570.61437984 0 -3970.77927111 0 7929.27933400 0 40
0.00750000 0.00754703 54183.63945578 0 -4517.74104483 0 15968.61757670 0 -10508.26737541 0 -4128.51561048 0 57
0.00850000 0.00846663 52550.58226827 0 3390.31264250 0 9645.82185064 0 -9470.67981665 0 8406.02042372 0 75
0.00950000 0.00948925 67033.84747055 0 -7710.06944724 0 5163.55653453 0 13524.51259623 0 -8388.86939257 0 112
0.01050000 0.01054430 62057.94469705 0 -5298.79390986 0 29575.95116258 0 -2803.88910313 0 12554.68766537 0 105
0.01150000 0.01145670 73847.97761044 0 -8053.26722732 0 11099.56273770 0 29119.21776381 0 -7891.42305545 0 144
0.01250000 0.01249090 75541.26824496 0 -8725.21340359 0 24527.19249177 0 16096.06003536 0 -4246.60195467 0 169
0.01350000 0.01339930 76046.60914968 0 623.09729363 0 14376.86016077 0 -4866.30890244 0 7549.87505177 0 180
0.01450000 0.01448870 74786.46786207 0 1767.89595914 0 17016.39167429 0 -5833.53183698 0 -15748.72120580 0 267
0.01550000 0.01550050 82771.05345854 0 1449.64412688 0 17674.08776852 0 9111.82576928 0 2232.61250411 0 238
0.01650000 0.01653350 78348.43475623 0 -6023.88724526 0 5116.16698430 0 764.64257242 0 -16348.06614823 0 315
0.01750000 0.01747870 86485.48626545 0 -3522.72657500 0 7108.99722214 0 -7204.47387905 0 -12497.33302281 0 297
0.01850000 0.01844180 84274.12155267 0 -954.55398048 0 12302.23865950 0 -8257.25266745 0 -15308.59629426 0 388
0.01950000 0.01947590 86727.74873249 0 8443.82134065 0 6361.26098248 0 -15368.94046452 0 -14232.58776838 0 399
0.02050000 0.02045430 78473.55202668 0 10986.47001200 0 19398.04874278 0 -9937.31187381 0 -3529.27031897 0 462
0.02150000 0.02154770 68995.42053542 0 7735.81260245 0 24836.22107746 0 -2964.79212739 0 5370.28791122 0 571
0.02250000 0.02255340 70458.84970670 0 1657.51595303 0 28275.06371963 0 13337.50103004 0 8385.65841838 0 510
0.02350000 0.02348930 70608.65826150 0 -4919.26783205 0 27602.75215664 0 3842.16314602 0 7528.93728553 0 555
0.02450000 0.02439640 73851.52075439 0 1255.55734514 0 34914.58329713 0 6064.53374967 0 11006.88737897 0 592
0.02550000 0.02547300 70308.81970541 0 5030.47826253 0 32834.97924970 0 435.06264463 0 10434.44818584 0 837
0.02650000 0.02652900 68284.46655882 0 1849.58757166 0 34965.95888429 0 7147.82786528 0 13278.81770851 0 723
0.02750000 0.02749970 66748.07076698 0 -353.41089249 0 26550.43840588 0 -250.87230681 0 13476.68015302 0 826
0.02850000 0.02848090 68098.34077862 0 104.71296883 0 31723.53928440 0 9856.60569821 0 4157.70225870 0 831
0.02950000 0.02946900 66493.40729615 0 3193.10346515 0 30063.79779408 0 4860.94989723 0 1956.88947147 0 996
0.03050000 0.03053250 59074.61749792 0 7563.25042015 0 22630.28180384 0 2916.91539487 0 1227.72152054 0 1041
0.03150000 0.03150510 55470.35432295 0 5199.28692672 0 25883.10938906 0 2438.75704758 0 9526.58398466 0 1036
0.03250000 0.03246190 49401.50236660 0 2018.32980189 0 20909.97469677 0 8837.23211378 0 6708.43372717 0 1059
0.03350000 0.03345080 50000.18296955 0 -621.52834521 0 18868.23800021 0 9685.59364138 0 4193.45479554 0 1302
0.03450000 0.03451200 52893.04927491 0 -3925.59311353 0 15440.02478986 0 288.37980713 0 -6432.73283919 0 1339
0.03550000 0.03553350 53229.20505641 0 620.07454896 0 16272.55289297 0 -2757.45177284 0 -2454.88942484 0 1365
0.03650000 0.03647120 51981.35404935 0 3074.71816819 0 12587.90463982 0 -5564.18646344 0 -7818.73324301 0 1308
0.03750000 0.03744890 50958.38195935 0 2145.65046498 0 15417.65869372 0 -1987.61517284 0 -4446.41312835 0 1579
0.03850000 0.03847530 48845.89310720 0 179.65511358 0 15617.73560320 0 887.36268455 0 -6351.83843406 0 1662
0.03950000 0.03950240 47597.37776065 0 1335.13414361 0 13920.68037824 0 8214.53563830 0 -9120.25180847 0 1683
0.04050000 0.04050350 47748.40427118 0 845.92229445 0 9307.34088093 0 2461.65461531 0 -9851.12489742 0 1822
0.04150000 0.04152450 47104.99147597 0 -223.42954975 0 11602.46773096 0 1503.96495244 0 -9890.64202470 0 1887
0.04250000 0.04250150 45946.93702318 0 636.92662733 0 10934.20863886 0 -2074.49970570 0 -3152.73376886 0 1920
0.04350000 0.04349210 46542.84954492 0 1948.43021531 0 13922.67339671 0 -1006.28498926 0 -3704.81095664 0 2005
0.04450000 0.04448520 45463.74076810 0 519.71721127 0 13989.10734562 0 244.53561532 0 1302.45971307 0 2151
0.04550000 0.04548030 45576.12486501 0 1241.81659004 0 16021.21111959 0 1035.72297926 0 566.11689565 0 2274
0.04650000 0.04648670 44651.14284966 0 1450.09809220 0 15167.75632257 0 461.39374029 0 -339.46972831 0 2311
0.04750000 0.04749250 43533.05948947 0 731.71790734 0 16308.64867188 0 -837.08436478 0 250.55342386 0 2568
0.04850000 0.04851840 41815.18829386 0 2277.01252663 0 14963.13975992 0 -129.27603565 0 -1878.67456895 0 2493
0.04950000 0.04949480 41002.36892892 0 2849.47386440 0 14921.61854185 0 -601.56051463 0 -1055.24127345 0 2644
0.05050000 0.05050630 38540.76967524 0 -140.74917863 0 12169.03859193 0 -750.10239547 0 -4607.38258656 0 2829
0.05150000 0.05149060 37101.03527907 0 1099.61472239 0 13303.84116260 0 4225.37630799 0 -4432.29591420 0 2784
0.05250000 0.05249300 37839.00572823 0 1058.18872631 0 12231.15433417 0 1619.41608333 0 -5063.76167094 0 3055
0.05350000 0.05348950 34979.57784382 0 -4.23672544 0 12335.56635721 0 2467.21292236 0 -3637.20334130 0 3009
0.05450000 0.05448610 36695.34529772 0 1145.73095526 0 12259.16731596 0 889.99346892 0 -2660.18139930 0 3336
0.05550000 0.05550870 36216.57797256 0 325.07016989 0 13147.16776641 0 -2731.57574973 0 -1849.89759675 0 3349
0.05650000 0.05647670 35172.45774216 0 607.82191431 0 15415.33350551 0 1042.61882315 0 1505.06111260 0 3324
0.05750000 0.05747970 34401.71321153 0 811.01125429 0 14692.31069485 0 861.06702033 0 595.40208757 0 3639
0.05850000 0.05849280 33470.30924779 0 302.95762999 0 13649.74058993 0 4068.09393394 0 561.27164631 0 3846
0.05950000 0.05951020 34732.88644686 0 -97.00452701 0 11883.48333486 0 3462.38240474 0 -3013.76502006 0 3787
0.06050000 0.06049470 32697.12880570 0 421.77917655 0 10781.37733939 0 1720.37354102 0 -26.06325611 0 3930
0.06150000 0.06148310 32007.87658574 0 1804.62286057 0 8335.99904156 0 -778.33239482 0 -4298.40936250 0 4083
0.06250000 0.06249100 31209.11907333 0 1323.40855162 0 7894.31293222 0 -1302.88046141 0 -1212.12061487 0 4303
0.06350000 0.06350600 30443.79998186 0 421.29642319 0 9069.86165822 0 431.04449796 0 -1023.65303797 0 4470
0.06450000 0.06451750 30379.58049791 0 216.92677338 0 8558.43097485 0 -612.06925811 0 -4523.59830466 0 4479
0.06550000 0.06550280 30146.39733723 0 484.50389665 0 10363.21992029 0 -1094.09516847 0 -2609.21548816 0 4636
0.06650000 0.06648880 30685.84100240 0 47.60036729 0 10148.11786603 0 -374.76497814 0 -1193.46374755 0 4653
0.06750000 0.06749660 30521.74914858 0 -228.45638522 0 12612.04230793 0 -1023.61982100 0 -2060.82538455 0 5220
0.06850000 0.06852730 30983.02220053 0 564.86018679 0 13544.22133441 0 -256.27227963 0 -1544.15749153 0 5029
0.06950000 0.06949320 30517.43094190 0 790.97034637 0 13829.88731473 0 -1053.42873387 0 -1420.57927423 0 5040
0.07050000 0.07048030 29905.79571892 0 558.05956488 0 13401.72051399 0 291.28075624 0 -1084.62943798 0 5475
0.07150000 0.07148790 30128.01727803 0 290.51012243 0 14112.23159761 0 742.49017215 0 -2713.46142633 0 5509
0.07250000 0.07249820 29028.75687004 0 1036.77706458 0 15215.25659604 0 75.92691732 0 -2621.33968384 0 5916
0.07350000 0.07351270 28455.09972118 0 766.54701229 0 13839.52023732 0 335.59220016 0 -1355.41864267 0 5721
0.07450000 0.07449140 27379.53408830 0 949.50942929 0 13482.65920842 0 2253.00772642 0 -728.18915742 0 6028
0.07550000 0.07549160 27542.18653989 0 -120.36724310 0 12992.26594220 0 1526.69643529 0 -1326.64167047 0 6183
0.07650000 0.07648840 26968.19722129 0 226.49990542 0 12684.56603549 0 2594.66645335 0 -349.40381814 0 6330
0.07750000 0.07749960 26926.12238698 0 958.16355837 0 11781.61794653 0 911.84802365 0 -978.24543389 0 6583
0.07850000 0.07848650 25355.40238820 0 1150.22631914 0 11549.20984859 0 1062.60658392 0 1453.79624869 0 6549
0.07950000 0.07947320 24423.99842446 0 971.59096667 0 11052.68251442 0 818.41199620 0 2026.23544181 0 6828
0.08050000 0.08048110 23922.97572642 0 204.23456744 0 9407.46791427 0 2514.25923052 0 3214.56163065 0 7147
0.08150000 0.08149960 24043.99623668 0 -655.91012823 0 9949.77931156 0 2807.70905519 0 2348.32937079 0 7386
0.08250000 0.08250610 24073.33789745 0 260.62702498 0 8865.66584391 0 1389.79821124 0 3136.02563071 0 7227
0.08350000 0.08350160 23792.98663304 0 497.33893558 0 9040.26533398 0 453.82691350 0 4292.75140451 0 7798
0.08450000 0.08449610 23230.73397875 0 633.76437136 0 8269.37686313 0 -549.14745064 0 4406.88492874 0 7371
0.08550000 0.08548940 22776.54721469 0 595.92802299 0 9179.35587835 0 -498.50263692 0 4810.47116838 0 8256
0.08650000 0.08650700 22366.53902666 0 418.49733947 0 9593.40546494 0 502.26279842 0 4334.29476723 0 8037
0.08750000 0.08749060 22422.89715999 0 227.01255406 0 10080.12271932 0 -246.14996028 0 4911.19610726 0 8155
0.08850000 0.08849210 21846.58265317 0 315.54797054 0 8828.56248345 0 154.83981919 0 2806.55753341 0 8718
0.08950000 0.08949900 21618.93565490 0 497.84715529 0 8386.61063831 0 613.43226130 0 3066.26998435 0 8571
0.09050000 0.09049190 21264.28909096 0 597.57004876 0 8140.50607457 0 875.93272364 0 1680.08135101 0 8932
0.09150000 0.09150830 20076.56080767 0 790.40787227 0 7322.03982397 0 -263.96090198 0 878.28891436 0 9285
0.09250000 0.09250820 19985.43557441 0 732.50736410 0 6894.58165202 0 355.12821007 0 960.60057706 0 9204
0.09350000 0.09350330 19165.19775184 0 170.72639084 0 6736.81209568 0 -35.23545927 0 -348.01091968 0 9349
0.09450000 0.09448040 19164.42268911 0 393.22918700 0 6239.66471133 0 141.11567258 0 -874.23533624 0 9564
0.09550000 0.09549270 18570.28173934 0 551.84134726 0 6341.93977568 0 278.20323339 0 -1176.40129501 0 10155
0.09650000 0.09649430 18402.20384859 0 432.54811967 0 6539.32611022 0 -73.88495918 0 -482.64485331 0 9913
0.09750000 0.09749140 17895.53426489 0 283.78811403 0 6463.40317894 0 897.96665002 0 491.45842387 0 10476
0.09850000 0.09850240 17961.63604406 0 -79.23455291 0 7390.72145482 0 1557.33355807 0 704.96717058 0 10575
0.09950000 0.09950330 18073.24507823 0 -304.21323162 0 5594.86787551 0 1240.28860921 0 1528.87768328 0 10882
0.10050000 0.10051200 18368.98687413 0 -19.04295929 0 6712.59692130 0 997.32747848 0 1711.34959629 0 10875
0.10150000 0.10150300 18297.34893256 0 559.99168556 0 5955.33848231 0 -564.89229653 0 1833.49948369 0 11118
0.10250000 0.10250800 17663.90122968 0 276.51802556 0 6227.03118871 0 -165.54011390 0 2167.75082532 0 11575
0.10350000 0.10349800 17285.67061388 0 534.20091936 0 6477.35430821 0 -550.40969566 0 1887.91996018 0 11364
0.10450000 0.10450100 17252.12146968 0 206.13568561 0 6333.11513279 0 408.46359872 0 1638.11723994 0 12093
0.10550000 0.10551000 17039.86500290 0 -222.19830723 0 6365.39095964 0 512.03412508 0 967.86734384 0 12067
0.10650000 0.10649700 17075.62861207 0 475.27843561 0 5549.07274006 0 531.28446901 0 701.64215143 0 12054
0.10750000 0.10749900 16424.68663598 0 516.76865117 0 5073.85963117 0 359.59478590 0 802.64057673 0 12807
0.10850000 0.10850100 15942.15472038 0 462.82096295 0 5270.08337161 0 505.22575254 0 865.26896760 0 12736
0.10950000 0.10950300 15697.56706514 0 111.70979233 0 4805.03465690 0 553.84322359 0 450.02799886 0 12933
0.11050000 0.11050200 15390.19932817 0 295.32547649 0 5181.33868818 0 381.36519096 0 362.50016394 0 13428
0.11150000 0.11150900 15258.99227907 0 413.88460895 0 4897.39999054 0 -790.79983257 0 -177.39193038 0 13453
0.11250000 0.11250000 14931.69435743 0 380.68867191 0 5557.11124788 0 -749.22878904 0 622.94228109 0 13668
0.11350000 0.11349100 15048.39666102 0 237.09279857 0 5702.24728160 0 -887.78121842 0 -40.86617933 0 13791
0.11450000 0.11448600 14702.27578719 0 381.59328085 0 6076.09325678 0 -599.02605948 0 586.11794320 0 14205
0.11550000 0.11549300 14595.76002244 0 110.34634625 0 6270.00288133 0 498.88795382 0 -175.66354048 0 14776
0.11650000 0.11649800 14474.62878892 0 -380.25242232 0 6265.67360232 0 789.47890422 0 -117.43750596 0 14553
0.11750000 0.11747300 14588.00939506 0 52.23989283 0 5532.74106095 0 1130.56187026 0 -719.69114812 0 14568
0.11850000 0.11849100 14691.97852511 0 212.07930958 0 5229.85761554 0 570.37641901 0 -203.61230279 0 16015
0.11950000 0.11950300 14412.40232344 0 42.28044738 0 4799.38777124 0 440.90440321 0 -230.53244612 0 15270
0.12050000 0.12050700 14252.29650656 0 253.46323082 0 4846.95447866 0 -57.13629632 0 -150.77073982 0 15999
0.12150000 0.12150000 14178.00120703 0 416.30391193 0 4920.85117450 0 274.66119668 0 438.90584858 0 15670
0.12250000 0.12250700 13666.57052366 0 462.41903756 0 5015.97351702 0 -41.75705859 0 59.89563038 0 16887
0.12350000 0.12352200 13525.17693572 0 227.94927274 0 4804.90178900 0 488.83206842 0 538.24896132 0 16407
0.12450000 0.12449800 13261.98777478 0 -78.84181755 0 4147.84788961 0 822.78335004 0 173.87203832 0 16306
0.12550000 0.12549900 13447.11704575 0 -79.87198665 0 4009.99744562 0 518.29552476 0 -43.41613574 0 17523
0.12650000 0.12650100 13324.87857975 0 219.25528329 0 3699.55160236 0 218.39939258 0 -100.36553121 0 17154
0.12750000 0.12750600 13137.86701356 0 288.62450551 0 3247.36892909 0 121.72581736 0 61.49912446 0 18007
0.12850000 0.12850300 12942.10831077 0 -102.55109741 0 3051.80952814 0 341.30219807 0 498.27454702 0 17496
0.12950000 0.12949900 12944.87639198 0 -15.60832413 0 2972.65347801 0 1013.34691803 0 -135.66033814 0 18405
0.13050000 0.13049000 12881.09980102 0 79.05972090 0 2483.62210775 0 738.20075352 0 155.13655750 0 18100
0.13150000 0.13148800 12820.53418426 0 198.14921772 0 2442.08981735 0 -175.70782978 0 -152.56556368 0 19059
0.13250000 0.13249300 12693.09172560 0 299.23954332 0 2520.85833611 0 -281.43303054 0 561.70457421 0 18957
0.13350000 0.13349100 12485.15346551 0 218.54997620 0 2786.64949338 0 -270.50132425 0 573.20429077 0 19468
0.13450000 0.13450700 12272.45410574 0 107.78963573 0 2795.90595693 0 -205.45363040 0 561.63371133 0 19953
0.13550000 0.13551000 12251.85958158 0 126.53784972 0 3098.41294330 0 94.17178343 0 667.73426391 0 19956
0.13650000 0.13649900 12203.91641511 0 81.24750156 0 3135.02912148 0 163.86708562 0 118.67760634 0 19723
0.13750000 0.13749600 12044.69638422 0 77.85881655 0 2972.83063521 0 405.79738291 0 569.73200971 0 20946
0.13850000 0.13851100 12098.50788284 0 117.75195998 0 2848.75416329 0 -45.51057670 0 343.22767536 0 20955
0.13950000 0.13949800 11650.74306717 0 308.42292952 0 2987.16929585 0 -60.12504895 0 495.16654545 0 20506
0.14050000 0.14048300 11658.71514104 0 547.79330531 0 3173.16220815 0 -180.39031595 0 536.22383311 0 21447
0.14150000 0.14148400 11208.84658366 0 287.11313317 0 3270.93083630 0 -50.57151493 0 1191.09427004 0 21771
0.14250000 0.14249400 11057.06715505 0 156.38773020 0 3332.76977041 0 180.96496960 0 808.20884888 0 22470
0.14350000 0.14350900 10886.26547239 0 57.33238719 0 3237.11595630 0 292.84859743 0 1060.08763002 0 22519
0.14450000 0.14449900 11033.70454968 0 213.39359453 0 3387.56670594 0 -13.73986931 0 382.08489207 0 22218
0.14550000 0.14550500 10660.87722839 0 127.49006966 0 3004.22067607 0 -62.07953573 0 635.65663168 0 23559
0.14650000 0.14650700 10543.85382738 0 207.36139197 0 3172.61966424 0 -54.30454924 0 513.81123321 0 23044
0.14750000 0.14750500 10567.85862758 0 87.04109552 0 2909.84017931 0 -251.39270608 0 -118.98652420 0 23649
0.14850000 0.14849900 10343.50010978 0 33.82971691 0 3070.94250543 0 18.11997029 0 -280.11985282 0 23640
0.14950000 0.14949500 10298.86756844 0 181.61270061 0 3129.05006607 0 -11.38755391 0 -588.18182455 0 24457
0.15050000 0.15050000 10221.60488586 0 -10.26620421 0 2757.44070051 0 154.93393395 0 -292.81316599 0 24591
0.15150000 0.15149900 10268.41867519 0 30.22888616 0 3069.00484858 0 227.97141739 0 -475.66818144 0 25020
0.15250000 0.15250500 10250.33756876 0 -32.17263278 0 2868.86150516 0 210.98979281 0 -549.53498200 0 25297
0.15350000 0.15350100 10391.15539580 0 60.21218815 0 2848.10089613 0 11.08439365 0 -501.22864329 0 25452
0.15450000 0.15450400 10159.96525359 0 307.15293386 0 2910.36057858 0 -293.94586482 0 -121.62505920 0 26061
0.15550000 0.15549900 10005.18522495 0 434.39166175 0 3304.95609047 0 -215.82729153 0 -96.14808269 0 26128
0.15650000 0.15649500 9724.22498268 0 223.55245255 0 2999.19384060 0 -152.50466589 0 -254.30804920 0 26331
0.15750000 0.15749700 9601.52147904 0 -2.67952475 0 2929.84787026 0 185.50019385 0 -543.44409612 0 27345
0.15850000 0.15849900 9432.25884953 0 66.11672681 0 2712.13274735 0 276.35526238 0 -957.05078972 0 26980
0.15950000 0.15949700 9467.51313176 0 221.51182309 0 2891.63727731 0 123.10985796 0 -1080.81723654 0 27777
0.16050000 0.16050000 9252.85397050 0 187.26512243 0 2385.55452683 0 74.82798908 0 -911.31212313 0 28224
0.16150000 0.16150500 9131.73380931 0 28.44568825 0 2466.09461756 0 160.62400168 0 -886.19344705 0 28075
0.16250000 0.16249700 9128.00243584 0 -69.85806536 0 2283.03587133 0 364.26177081 0 -721.70409677 0 28590
0.16350000 0.16349900 9158.81671581 0 41.46563500 0 2289.33602415 0 308.98540362 0 -1084.05035539 0 29163
0.16450000 0.16449100 9132.42029345 0 190.90791729 0 2496.35528129 0 28.46063588 0 -559.23766024 0 28996
0.16550000 0.16550500 8838.45006951 0 305.23742167 0 2354.27520921 0 -79.22226263 0 -420.11279166 0 30777
0.16650000 0.16650700 8813.00586708 0 107.52478572 0 2355.54852657 0 220.91834648 0 131.80827634 0 29211
0.16750000 0.16749900 8731.64642431 0 -74.01206946 0 2366.03401817 0 452.28675312 0 209.90470498 0 30922
0.16850000 0.16850800 8810.91319769 0 -27.37344431 0 2176.78584237 0 531.89676857 0 -91.98832098 0 30867
0.16950000 0.16949900 8682.59602536 0 164.49710090 0 2194.44620046 0 20.08043612 0 -60.44614637 0 30852
0.17050000 0.17049200 8629.68138505 0 192.04836675 0 2211.74117182 0 -205.31965527 0 280.54170840 0 31257
0.17150000 0.17149500 8441.24148897 0 244.76702691 0 2249.33171458 0 -209.92795686 0 315.23794545 0 32608
0.17250000 0.17250900 8344.59116562 0 212.04498537 0 2429.12412499 0 -225.08154061 0 340.00562883 0 32361
0.17350000 0.17350400 8167.01322018 0 75.06704057 0 2450.48263956 0 111.02109372 0 173.89086128 0 32508
0.17450000 0.17449800 8179.49173025 0 -27.32539042 0 2335.09794263 0 198.14146709 0 231.16689033 0 32791
0.17550000 0.17549800 8165.72883050 0 -34.77662213 0 2333.54781715 0 186.54209961 0 -63.85919050 0 33633
0.17650000 0.17650100 8092.31931696 0 172.53671595 0 2060.73680595 0 148.69910785 0 -117.10201451 0 33984
0.17750000 0.17750300 7967.68922880 0 159.19899347 0 1897.51966580 0 92.75120416 0 -48.44839665 0 34069
0.17850000 0.17849800 7859.63441089 0 172.14697012 0 2058.83236608 0 116.56168506 0 60.28039367 0 34536
