### header ###
fiducial parameters:
Omega_m = 0.31
Omega_nu = 0
Omega_de = 0.69
Omega_k = 0
H_0 = 100
w_de = -1
zeff = 0
beta = 0
fgrowth = 0
b_1 = 2
gamma = 0.55
Lx = 3500 Ly = 3500 Lz = 3500
nx = 700 ny = 700 nz = 700
xoffset = -685.467585 yoffset = -31.7331281 zoffset = 572.489161
bins = 400 dk = 0.001
kx_ny = 0.628318531 ky_ny = 0.628318531 kz_ny = 0.628318531
############################
A(data) = 8.07866846 (not used)
A(ran) = 8.07436004 (used)
Ngal = 479949
weighted Ngal = 0
Nran = 23820508
weighted Nran = 0
SN(data) = 3491.89484
SN(ran) = 70.3306043
SN(data+ran) = 3562.22544
############################
13 columns: k_central k_mean P_0(k) sigma^{lin}_{P_0(k)} P^img_1(k) sigma^{lin}_{P_1(k)} P_2(k) sigma^{lin}_{P_2(k)} P^img_3(k) sigma^{lin}_{P_3(k)} P_4(k) sigma^{lin}_{P_4(k)} N_modes
### header ###
0.00050000 0 0 0 0 0 0 0 0 0 0 0 0
0.00150000 0.00179520 27118.67011557 0 -10092.35763825 0 18045.12137319 0 1526.55249507 0 21734.08783302 0 3
0.00250000 0.00253879 44230.94812279 0 3987.38775834 0 28953.57578452 0 -33840.89995947 0 -17278.03070975 0 6
0.00350000 0.00331552 47863.11355630 0 -3802.84532059 0 880.96398803 0 34632.01756776 0 52591.77131660 0 7
0.00450000 0.00420575 46010.60289089 0 -10122.35256618 0 22052.86006455 0 7579.83676272 0 4159.88350669 0 24
0.00550000 0.00557378 62875.63588491 0 -2199.06335991 0 29736.61059569 0 8767.56504602 0 -13762.45685658 0 45
0.00650000 0.00659388 57126.44194608 0 4301.09993743 0 41370.74517564 0 20388.24675131 0 10738.98140766 0 40
0.00750000 0.00754703 77336.75643755 0 -12433.88860160 0 36450.75764247 0 -17756.46586517 0 17291.76039253 0 57
0.00850000 0.00846663 69809.79002583 0 -1097.03265624 0 54981.28973571 0 3213.93050813 0 9606.14971081 0 75
0.00950000 0.00948925 80175.03618156 0 17842.60855226 0 45327.10827984 0 18724.74067056 0 18935.88990485 0 112
0.01050000 0.01054430 62979.05139872 0 6196.47157221 0 37578.47392525 0 11612.54354655 0 19799.42051746 0 105
0.01150000 0.01145670 62274.07647751 0 -1331.92316941 0 29539.19104418 0 31570.51975541 0 6466.79131033 0 144
0.01250000 0.01249090 67214.32636510 0 -4904.69665259 0 34706.20214405 0 10354.47278368 0 8097.87762401 0 169
0.01350000 0.01339930 62606.24622207 0 9130.27226243 0 14626.31963894 0 9874.16640537 0 -14774.35662176 0 180
0.01450000 0.01448870 65129.40760175 0 2438.24772064 0 26123.48956087 0 -3367.17148362 0 18067.37674607 0 267
0.01550000 0.01550050 64748.96252098 0 -3604.49569379 0 29510.18155315 0 -138.44170614 0 24936.42561707 0 238
0.01650000 0.01653350 71587.23032897 0 -4806.27475728 0 37529.64497280 0 4280.58291954 0 2433.86308001 0 315
0.01750000 0.01747870 74461.38440540 0 1820.02446439 0 34209.94054568 0 -9468.57607494 0 -14582.91612565 0 297
0.01850000 0.01844180 72779.49826544 0 4568.83982387 0 42742.71694392 0 -3810.79524981 0 -15906.28038797 0 388
0.01950000 0.01947590 72272.16434225 0 4172.08520864 0 46028.98295009 0 -3403.64372158 0 -1683.55806100 0 399
0.02050000 0.02045430 69750.66381130 0 -96.93012099 0 43728.26457602 0 2709.47538940 0 -3494.51429136 0 462
0.02150000 0.02154770 68450.32998460 0 632.65824612 0 32999.95688949 0 17137.08001481 0 -12014.35821422 0 571
0.02250000 0.02255340 66209.95578080 0 2021.70686096 0 26259.67915614 0 14870.57512443 0 -16386.70856185 0 510
0.02350000 0.02348930 65010.71227969 0 2450.78159233 0 8790.92765139 0 9650.25078056 0 -16832.92325204 0 555
0.02450000 0.02439640 61413.20322286 0 1285.64085167 0 12663.86078808 0 4894.58762003 0 -16663.29523582 0 592
0.02550000 0.02547300 59277.13031885 0 2082.75966001 0 10232.79900625 0 -6880.05476186 0 -12447.95045411 0 837
0.02650000 0.02652900 62989.12721430 0 -2391.23462946 0 17077.40018404 0 -12365.46163422 0 -14051.88742734 0 723
0.02750000 0.02749970 60426.99125127 0 130.95238563 0 24162.47011224 0 -6194.60034931 0 -5936.16121572 0 826
0.02850000 0.02848090 65993.27038410 0 1172.08308833 0 26856.03457087 0 4170.42435992 0 -9609.30532338 0 831
0.02950000 0.02946900 63609.73102039 0 959.50109520 0 28731.13277891 0 1918.92246967 0 4677.39289639 0 996
0.03050000 0.03053250 66088.16020779 0 -840.66736909 0 21804.50781886 0 7561.55635445 0 -3552.81008153 0 1041
0.03150000 0.03150510 62946.05587076 0 -934.23737167 0 29128.62923990 0 9133.92612962 0 -5421.36454560 0 1036
0.03250000 0.03246190 65903.14166007 0 3260.58928492 0 26507.47778558 0 1585.19152731 0 -6966.67355892 0 1059
0.03350000 0.03345080 58441.39124154 0 4386.75544222 0 22007.90642578 0 -807.95750711 0 -2690.23168886 0 1302
0.03450000 0.03451200 57903.94059484 0 6048.22421521 0 23688.68533325 0 -2111.35947502 0 -4222.10997217 0 1339
0.03550000 0.03553350 50614.25410399 0 3153.84100134 0 21821.11630609 0 -1490.64494568 0 -9430.01116760 0 1365
0.03650000 0.03647120 51979.80392387 0 422.31618430 0 22374.62182378 0 669.63427485 0 -9374.82670070 0 1308
0.03750000 0.03744890 49107.86431241 0 2323.44985692 0 25499.01044110 0 1824.32052642 0 -10812.59022305 0 1579
0.03850000 0.03847530 48561.33435936 0 127.59968568 0 20058.18074847 0 1471.17979865 0 -9859.99382960 0 1662
0.03950000 0.03950240 48006.38943945 0 447.57658614 0 22727.38609250 0 5153.02675362 0 -5585.29031454 0 1683
0.04050000 0.04050350 49681.41073802 0 -813.99524583 0 21667.98605385 0 3761.03622207 0 -6740.06735918 0 1822
0.04150000 0.04152450 48037.83484194 0 1570.33246740 0 21636.76209786 0 1632.16032919 0 -2906.67349442 0 1887
0.04250000 0.04250150 47787.37885454 0 5024.99746175 0 21328.50857491 0 -77.95647446 0 2436.68652284 0 1920
0.04350000 0.04349210 43599.38271514 0 909.02015189 0 23789.00059611 0 -247.45870907 0 5185.82297974 0 2005
0.04450000 0.04448520 42455.50083812 0 1493.46838851 0 20878.52929428 0 7071.19630521 0 5023.93451856 0 2151
0.04550000 0.04548030 42121.33807509 0 1227.94296704 0 19886.67043703 0 4160.73607570 0 4545.03432551 0 2274
0.04650000 0.04648670 39949.16939217 0 538.93101653 0 16015.23206419 0 3315.45265440 0 1647.81659649 0 2311
0.04750000 0.04749250 40235.72115848 0 338.36471030 0 15330.85166715 0 2687.06500396 0 925.47251934 0 2568
0.04850000 0.04851840 39516.46293826 0 291.96834761 0 13762.89974958 0 1636.02457055 0 190.60232113 0 2493
0.04950000 0.04949480 39100.25424833 0 642.54583218 0 11777.18901660 0 1164.40996723 0 2691.80395899 0 2644
0.05050000 0.05050630 38125.88966429 0 617.24224827 0 11658.05080155 0 2482.40415202 0 1374.52947531 0 2829
0.05150000 0.05149060 37501.41054451 0 1305.82569981 0 10902.91824892 0 3208.30576713 0 3943.72958158 0 2784
0.05250000 0.05249300 35159.28167563 0 1461.52473141 0 10490.26377525 0 3073.72165896 0 2445.94298639 0 3055
0.05350000 0.05348950 32907.39225401 0 1465.12323698 0 8722.42317774 0 4459.56705023 0 4874.60207373 0 3009
0.05450000 0.05448610 33288.83384401 0 127.28301719 0 8213.19588700 0 3067.68724193 0 3920.41126551 0 3336
0.05550000 0.05550870 32372.37751877 0 -173.22652179 0 6772.22139045 0 487.71265638 0 3386.13837604 0 3349
0.05650000 0.05647670 33697.07046008 0 -157.64554630 0 7460.80927092 0 -2773.88310287 0 2185.40011108 0 3324
0.05750000 0.05747970 33830.93486713 0 -12.57328917 0 8485.63043916 0 -3836.93700870 0 3282.50141574 0 3639
0.05850000 0.05849280 32987.77733219 0 636.72621825 0 10736.88873827 0 -4593.06607057 0 492.01536180 0 3846
0.05950000 0.05951020 33561.32375780 0 815.71809957 0 12035.17418488 0 -2412.30526359 0 -1033.56719761 0 3787
0.06050000 0.06049470 32567.91477507 0 1077.33056146 0 13733.22591906 0 -1460.27355871 0 -3902.36337606 0 3930
0.06150000 0.06148310 32415.67030881 0 237.83132264 0 13261.21271204 0 1253.89649641 0 -4657.47378404 0 4083
0.06250000 0.06249100 32237.07370949 0 460.55002913 0 14171.24708889 0 33.06860530 0 -4444.68584568 0 4303
0.06350000 0.06350600 32456.52718739 0 627.44539559 0 14724.30971358 0 1007.07223156 0 -3455.68364822 0 4470
0.06450000 0.06451750 31417.94311941 0 724.02264159 0 12675.04383615 0 1305.51567472 0 -2193.77078864 0 4479
0.06550000 0.06550280 31612.37314322 0 1106.84052157 0 14114.55678582 0 2109.33323958 0 1151.23390069 0 4636
0.06650000 0.06648880 30172.19585406 0 597.95093674 0 12727.41593254 0 2336.90273157 0 2153.68897280 0 4653
0.06750000 0.06749660 30501.15462442 0 -312.22959479 0 11810.07382131 0 2973.37317912 0 3354.49367171 0 5220
0.06850000 0.06852730 30101.11152872 0 -474.60745272 0 10553.54211159 0 2269.93731107 0 3175.15522662 0 5029
0.06950000 0.06949320 30632.58312002 0 179.17125298 0 10629.43182590 0 2325.45394771 0 3333.69984570 0 5040
0.07050000 0.07048030 30211.83477691 0 -415.18339265 0 7245.48577018 0 1864.25840204 0 3547.76110142 0 5475
0.07150000 0.07148790 29818.87796910 0 -168.52631990 0 7776.79127660 0 153.38602295 0 1809.58326209 0 5509
0.07250000 0.07249820 29805.48045607 0 617.98741573 0 6722.18555460 0 -674.07870603 0 -145.05631298 0 5916
0.07350000 0.07351270 28911.16878046 0 1778.45895702 0 8117.84102566 0 -1308.56056404 0 634.69998281 0 5721
0.07450000 0.07449140 27382.08072301 0 1875.77361985 0 8346.68383501 0 -2009.82625643 0 2387.44789437 0 6028
0.07550000 0.07549160 26836.76872569 0 1110.50989001 0 10301.50278175 0 85.70178711 0 2174.98105343 0 6183
0.07650000 0.07648840 26015.75584039 0 421.15691189 0 11019.94164993 0 1056.99512970 0 4040.04773518 0 6330
0.07750000 0.07749960 25578.95262629 0 376.74581705 0 11380.02472536 0 1995.99692273 0 4069.40046827 0 6583
0.07850000 0.07848650 25705.06640598 0 146.59536613 0 11366.84865882 0 2256.17441132 0 6326.32779768 0 6549
0.07950000 0.07947320 25740.49784540 0 -8.65561277 0 9936.07177343 0 1623.23603539 0 5076.82701422 0 6828
0.08050000 0.08048110 25417.29668394 0 184.73288174 0 9167.41991220 0 1030.64853279 0 5162.47144669 0 7147
0.08150000 0.08149960 25046.48452576 0 515.26281499 0 8189.37931632 0 269.72847598 0 4164.31243662 0 7386
0.08250000 0.08250610 23941.24506237 0 761.85013210 0 7004.17552308 0 41.96975795 0 4320.42114424 0 7227
0.08350000 0.08350160 23764.97365125 0 511.26792020 0 6495.50184859 0 1277.07087226 0 2140.73435276 0 7798
0.08450000 0.08449610 22871.21559189 0 236.22805001 0 5179.01349997 0 1022.25238888 0 385.86387653 0 7371
0.08550000 0.08548940 22759.16366473 0 596.89131525 0 5544.61059316 0 -468.19104049 0 -599.59074804 0 8256
0.08650000 0.08650700 21591.36556610 0 1049.08948978 0 4755.90675168 0 -21.60409874 0 -201.01584262 0 8037
0.08750000 0.08749060 21115.58776865 0 891.29003816 0 5804.81022640 0 -856.41110775 0 -96.62131385 0 8155
0.08850000 0.08849210 20462.87422059 0 740.30670970 0 6270.76687174 0 -1117.36365907 0 12.72342990 0 8718
0.08950000 0.08949900 20248.51401210 0 555.87610243 0 7129.77997582 0 -1128.67957504 0 -455.92511906 0 8571
0.09050000 0.09049190 19753.02747647 0 621.54716816 0 7650.85465411 0 -1342.82940936 0 -1472.57491158 0 8932
0.09150000 0.09150830 19474.66923052 0 548.55065233 0 8539.46408243 0 -337.96278490 0 -1297.77611967 0 9285
0.09250000 0.09250820 19202.40076323 0 167.65824964 0 8279.82913776 0 169.53057976 0 -1930.99130372 0 9204
0.09350000 0.09350330 18634.61194653 0 309.63867079 0 7602.47966698 0 1173.68857543 0 -1957.16627959 0 9349
0.09450000 0.09448040 18857.60856838 0 -74.03465701 0 8261.53765716 0 936.72753752 0 -2669.65930935 0 9564
0.09550000 0.09549270 18799.36813984 0 -222.59691092 0 7457.28827163 0 1089.51897662 0 -2720.11589355 0 10155
0.09650000 0.09649430 18726.29079603 0 354.67092306 0 6870.08966952 0 522.79199587 0 -2386.97178440 0 9913
0.09750000 0.09749140 18319.93647519 0 296.44710300 0 6554.29589337 0 -54.14521849 0 -2250.57181496 0 10476
0.09850000 0.09850240 18153.18726342 0 478.82711571 0 6915.07652526 0 -269.08628114 0 -2354.40807711 0 10575
0.09950000 0.09950330 17608.20743585 0 612.29624077 0 7006.75537476 0 -411.10656266 0 -1816.19344000 0 10882
0.10050000 0.10051200 17312.57636319 0 400.23575415 0 6650.50332372 0 186.45794995 0 -2254.36962238 0 10875
0.10150000 0.10150300 16795.16662441 0 307.46185173 0 6680.98543395 0 861.97162927 0 -948.24829149 0 11118
0.10250000 0.10250800 16884.96317869 0 -105.90634400 0 6457.16946006 0 1421.31004767 0 -1360.21295932 0 11575
0.10350000 0.10349800 16781.21549514 0 -104.96132107 0 6109.79741353 0 728.03193041 0 -234.53619877 0 11364
0.10450000 0.10450100 16746.22694871 0 457.33794770 0 6069.44986189 0 1041.17388476 0 140.16013095 0 12093
0.10550000 0.10551000 16489.34901292 0 188.45761181 0 5794.85620639 0 950.35203321 0 1532.71978000 0 12067
0.10650000 0.10649700 16251.62619906 0 127.36938132 0 5338.14495227 0 172.40274082 0 951.45262229 0 12054
0.10750000 0.10749900 16139.57427190 0 154.27513063 0 5451.91308978 0 107.32238362 0 833.70730571 0 12807
0.10850000 0.10850100 15878.37812943 0 465.54032593 0 6157.38626560 0 -487.23433195 0 1303.12405256 0 12736
0.10950000 0.10950300 15782.93468949 0 535.70232661 0 5226.86808784 0 -26.72571331 0 690.29080403 0 12933
0.11050000 0.11050200 15019.94078624 0 165.45042807 0 5404.84463697 0 44.26981198 0 1542.28626864 0 13428
0.11150000 0.11150900 15254.78479564 0 121.55419632 0 5048.43757339 0 278.79892447 0 -18.82328436 0 13453
0.11250000 0.11250000 15287.22670736 0 70.06998966 0 4983.31015880 0 135.42671209 0 154.38363941 0 13668
0.11350000 0.11349100 14942.98812875 0 68.66391513 0 4905.00667769 0 338.43446594 0 -430.88062755 0 13791
0.11450000 0.11448600 14879.10081455 0 164.86359485 0 4143.20858551 0 -236.00881797 0 -447.23555854 0 14205
0.11550000 0.11549300 14720.21295340 0 142.63036662 0 4339.37696433 0 485.35868012 0 -855.37473814 0 14776
0.11650000 0.11649800 14807.13070322 0 1.29416654 0 3755.37826409 0 256.86132731 0 -944.97088334 0 14553
0.11750000 0.11747300 14617.35105583 0 -116.60375990 0 3728.26214061 0 414.41718778 0 -986.23965241 0 14568
0.11850000 0.11849100 14700.28276872 0 168.85738241 0 3439.65092189 0 168.44327747 0 -1109.72375495 0 16015
0.11950000 0.11950300 14437.97939377 0 355.11270882 0 3513.00507381 0 109.54614933 0 -951.57220340 0 15270
0.12050000 0.12050700 13990.76819435 0 368.37403225 0 3359.23262673 0 212.00733947 0 -658.46229911 0 15999
0.12150000 0.12150000 13823.57608958 0 169.03453961 0 3849.36015715 0 478.94226789 0 -596.96882153 0 15670
0.12250000 0.12250700 13656.49470807 0 156.50620408 0 3753.54025817 0 340.01891562 0 -923.43964050 0 16887
0.12350000 0.12352200 13514.32605740 0 257.29425521 0 3673.96345970 0 279.52859067 0 -300.31909499 0 16407
0.12450000 0.12449800 13458.30009382 0 327.41196658 0 3962.68540167 0 -264.97955586 0 -190.63996703 0 16306
0.12550000 0.12549900 13437.26267666 0 15.22898628 0 4083.79449054 0 165.54675729 0 614.67679061 0 17523
0.12650000 0.12650100 13403.71353246 0 -103.68147105 0 4249.07108310 0 159.83011599 0 1.87146649 0 17154
0.12750000 0.12750600 13365.07111884 0 233.53193891 0 4014.19385673 0 11.91880405 0 188.97911831 0 18007
0.12850000 0.12850300 13192.89646791 0 200.21642077 0 4043.08155218 0 159.33629030 0 700.64232050 0 17496
0.12950000 0.12949900 13052.72083571 0 86.01225510 0 4020.88154092 0 594.36018180 0 696.33075722 0 18405
0.13050000 0.13049000 13057.81410513 0 -77.75684044 0 3416.53190767 0 713.01121456 0 713.68884084 0 18100
0.13150000 0.13148800 12808.24390371 0 304.08257819 0 3261.79616833 0 408.97735459 0 298.71914405 0 19059
0.13250000 0.13249300 12577.71810099 0 404.22289832 0 2898.54640800 0 -42.00696096 0 1138.04676183 0 18957
0.13350000 0.13349100 12227.83263672 0 222.87482627 0 2847.87944963 0 222.10640693 0 1088.71291137 0 19468
0.13450000 0.13450700 12056.76521827 0 107.70216436 0 2781.78874279 0 112.41842112 0 486.54563334 0 19953
0.13550000 0.13551000 11972.94771940 0 185.69285230 0 2812.21549139 0 -41.93476940 0 94.97474843 0 19956
0.13650000 0.13649900 11781.72866978 0 171.95098997 0 2862.86030511 0 -252.65052218 0 -38.58793778 0 19723
0.13750000 0.13749600 11755.37653671 0 222.41864649 0 3082.53522951 0 -457.49738918 0 223.55466702 0 20946
0.13850000 0.13851100 11729.13512689 0 112.95875057 0 3141.59501009 0 -283.37290185 0 100.23676007 0 20955
0.13950000 0.13949800 11563.93604059 0 287.35450986 0 3624.02727477 0 -10.65385737 0 -68.30406457 0 20506
0.14050000 0.14048300 11439.81527938 0 219.78786212 0 3415.40253053 0 -55.59181773 0 -92.17046072 0 21447
0.14150000 0.14148400 11169.76127705 0 254.15303665 0 3614.51614775 0 -52.06461793 0 -253.39679687 0 21771
0.14250000 0.14249400 11017.56110009 0 316.11930250 0 3377.26944386 0 0.70189571 0 5.94707853 0 22470
0.14350000 0.14350900 10705.28832323 0 75.37950158 0 3466.03627193 0 384.90833490 0 -380.34764431 0 22519
0.14450000 0.14449900 10563.29682976 0 93.15279738 0 3050.99017610 0 245.80450374 0 -286.55619524 0 22218
0.14550000 0.14550500 10431.68010464 0 -4.05275876 0 2815.93579253 0 683.84671098 0 -249.18156281 0 23559
0.14650000 0.14650700 10563.21932348 0 -226.91733207 0 2332.63988652 0 668.02214435 0 -458.90468167 0 23044
0.14750000 0.14750500 10490.45200478 0 -111.78065521 0 2165.52528803 0 531.74507772 0 -698.54965111 0 23649
0.14850000 0.14849900 10669.23683362 0 38.33670673 0 2148.83929453 0 199.18558733 0 -240.12107941 0 23640
0.14950000 0.14949500 10438.45636743 0 371.47539043 0 1954.29854747 0 -168.50860418 0 -218.18458948 0 24457
0.15050000 0.15050000 10219.55650576 0 509.41219856 0 2153.05785029 0 -119.74276398 0 173.12133470 0 24591
0.15150000 0.15149900 9876.48052126 0 281.91356944 0 2058.71057051 0 -317.52105882 0 306.29704316 0 25020
0.15250000 0.15250500 9705.15843934 0 184.22576926 0 2334.99829171 0 129.83075913 0 170.42411638 0 25297
0.15350000 0.15350100 9495.67005377 0 111.26911380 0 2383.50614674 0 83.99377029 0 -39.97219983 0 25452
0.15450000 0.15450400 9533.74777882 0 217.53796571 0 2439.39924242 0 -21.74615667 0 -229.03436057 0 26061
0.15550000 0.15549900 9388.56745580 0 95.84647256 0 2513.31808291 0 -194.83194921 0 -139.39724777 0 26128
0.15650000 0.15649500 9383.02022107 0 -11.05769828 0 2447.32702699 0 212.50227238 0 203.43846729 0 26331
0.15750000 0.15749700 9320.53909211 0 47.17076109 0 2418.64970571 0 -16.56364431 0 246.08020463 0 27345
0.15850000 0.15849900 9455.82075675 0 108.39905648 0 2641.50238733 0 22.52897003 0 -5.31749507 0 26980
0.15950000 0.15949700 9358.65003414 0 175.33358520 0 2812.24870836 0 -216.82490799 0 29.73306745 0 27777
0.16050000 0.16050000 9142.79506180 0 255.61790523 0 2640.35086555 0 -237.95090375 0 56.99003090 0 28224
0.16150000 0.16150500 8977.02021462 0 110.38432432 0 2928.54133593 0 73.34706564 0 201.06456085 0 28075
0.16250000 0.16249700 8846.79860242 0 216.97216991 0 2794.21189123 0 82.37665725 0 -128.62941188 0 28590
0.16350000 0.16349900 8843.49904963 0 156.30579500 0 2724.00227956 0 396.87198187 0 -206.98050400 0 29163
0.16450000 0.16449100 8671.57906217 0 14.00560511 0 2487.47527678 0 161.01042582 0 115.59285664 0 28996
0.16550000 0.16550500 8675.23292936 0 -0.71699947 0 2419.97838469 0 227.91162683 0 -169.27923799 0 30777
0.16650000 0.16650700 8783.59777236 0 -33.78974582 0 2312.13394095 0 141.61946336 0 -34.33782590 0 29211
0.16750000 0.16749900 8756.35985330 0 60.10644745 0 2603.84541063 0 46.76739629 0 169.54608102 0 30922
0.16850000 0.16850800 8666.58544367 0 114.82665176 0 2336.19410279 0 -58.71222031 0 330.01507015 0 30867
0.16950000 0.16949900 8694.46555757 0 69.18154632 0 2580.61567316 0 72.08670290 0 280.88384323 0 30852
0.17050000 0.17049200 8500.32341420 0 124.16947945 0 2467.81082790 0 149.63361206 0 643.54677034 0 31257
0.17150000 0.17149500 8535.54447945 0 79.23809606 0 2419.44691310 0 382.32294706 0 781.08054584 0 32608
0.17250000 0.17250900 8417.76816035 0 25.50853264 0 2423.41080538 0 176.07764543 0 741.10280985 0 32361
0.17350000 0.17350400 8429.75948813 0 78.74017361 0 2408.61817942 0 351.65703624 0 874.24087240 0 32508
0.17450000 0.17449800 8242.81435589 0 267.79524806 0 2299.11288697 0 -46.67771046 0 975.69769195 0 32791
0.17550000 0.17549800 8003.78500771 0 325.01812996 0 2364.92678569 0 -205.85112687 0 877.09199604 0 33633
0.17650000 0.17650100 7846.73515248 0 175.79419391 0 2314.25982732 0 126.26657777 0 662.70853567 0 33984
0.17750000 0.17750300 7666.48877676 0 55.00133064 0 2119.68586328 0 9.62245925 0 590.02536663 0 34069
0.17850000 0.17849800 7782.27207738 0 -47.34769684 0 2088.66120914 0 319.12433146 0 400.83698139 0 34536
