### header ###
fiducial parameters:
Omega_m = 0.31
Omega_nu = 0
Omega_de = 0.69
Omega_k = 0
H_0 = 100
w_de = -1
zeff = 0
beta = 0
fgrowth = 0
b_1 = 2
gamma = 0.55
Lx = 3500 Ly = 3500 Lz = 3500
nx = 700 ny = 700 nz = 700
xoffset = -685.467585 yoffset = -31.7331281 zoffset = 572.489161
bins = 400 dk = 0.001
kx_ny = 0.628318531 ky_ny = 0.628318531 kz_ny = 0.628318531
############################
A(data) = 8.01438097 (not used)
A(ran) = 8.0152272 (used)
Ngal = 475890
weighted Ngal = 0
Nran = 23820508
weighted Nran = 0
SN(data) = 3484.70485
SN(ran) = 69.8155358
SN(data+ran) = 3554.52039
############################
13 columns: k_central k_mean P_0(k) sigma^{lin}_{P_0(k)} P^img_1(k) sigma^{lin}_{P_1(k)} P_2(k) sigma^{lin}_{P_2(k)} P^img_3(k) sigma^{lin}_{P_3(k)} P_4(k) sigma^{lin}_{P_4(k)} N_modes
### header ###
0.00050000 0 0 0 0 0 0 0 0 0 0 0 0
0.00150000 0.00179520 8505.20630944 0 -11234.97727023 0 6757.36233055 0 21700.98158181 0 8830.33405542 0 3
0.00250000 0.00253879 14721.43090913 0 -11417.67062974 0 15696.90272565 0 -13686.27926183 0 -14537.74104039 0 6
0.00350000 0.00331552 27752.00709520 0 -20437.29715026 0 -15361.52200689 0 48897.49014086 0 32678.97019300 0 7
0.00450000 0.00420575 41432.30730163 0 -22504.72164040 0 567.83310600 0 17746.05787984 0 -18963.34927040 0 24
0.00550000 0.00557378 80729.42748523 0 -30598.81252932 0 -7547.68273145 0 -18557.77001229 0 -39515.35570578 0 45
0.00650000 0.00659388 90981.18231157 0 -4696.85804342 0 26973.40121395 0 -36083.37790499 0 -28100.89605024 0 40
0.00750000 0.00754703 109563.97577795 0 26483.89373372 0 40887.54892055 0 -66391.09901483 0 -8688.97368446 0 57
0.00850000 0.00846663 84046.58527765 0 13079.07296878 0 57272.81808018 0 -49633.24612506 0 916.74420568 0 75
0.00950000 0.00948925 83115.07059066 0 13.46483277 0 56761.05522706 0 15681.95508715 0 -5258.50171985 0 112
0.01050000 0.01054430 106298.52574244 0 -25676.49980794 0 87089.70303081 0 30885.14284913 0 -16547.03582523 0 105
0.01150000 0.01145670 116526.25362392 0 -14704.49025216 0 66730.35504727 0 46072.60790988 0 -38558.15322521 0 144
0.01250000 0.01249090 118220.31932117 0 10822.61067701 0 53415.22011336 0 25592.68230907 0 13480.44474345 0 169
0.01350000 0.01339930 97825.31845172 0 20944.18818046 0 29554.24940593 0 25456.60343705 0 14973.32629875 0 180
0.01450000 0.01448870 100246.06082682 0 3854.89631956 0 46319.41003008 0 4631.28773584 0 26197.67413716 0 267
0.01550000 0.01550050 100795.91247731 0 1382.40189826 0 37456.67835225 0 14905.12077787 0 32001.67608384 0 238
0.01650000 0.01653350 93771.51888912 0 10859.47044633 0 45004.12856488 0 7511.29907210 0 28423.32214895 0 315
0.01750000 0.01747870 81620.30674014 0 14522.01833914 0 41122.72509970 0 10173.38491127 0 24536.38252137 0 297
0.01850000 0.01844180 70787.80847707 0 9945.16215211 0 31210.33702906 0 6108.69018105 0 31609.38361552 0 388
0.01950000 0.01947590 68438.59332029 0 4862.84326478 0 27074.82370929 0 21392.28516587 0 19798.09183848 0 399
0.02050000 0.02045430 64285.25355757 0 -6774.00403475 0 18247.08057788 0 15281.91199145 0 12147.89045153 0 462
0.02150000 0.02154770 70649.29369358 0 -1571.38433826 0 14835.80802450 0 15109.73734052 0 11144.51637646 0 571
0.02250000 0.02255340 68599.14203016 0 -1798.68809446 0 10034.88120011 0 -6456.16187850 0 8499.67014703 0 510
0.02350000 0.02348930 68965.63598166 0 3863.94240894 0 16579.36701370 0 175.85066277 0 6929.57019845 0 555
0.02450000 0.02439640 64595.16792925 0 4148.18005936 0 7811.53623188 0 -10569.79628443 0 11083.95075971 0 592
0.02550000 0.02547300 66012.97912227 0 5806.43785815 0 20763.93073241 0 1166.72408312 0 7241.43329929 0 837
0.02650000 0.02652900 60423.55883057 0 -320.52498055 0 15345.13496616 0 -4079.86381523 0 11455.20581088 0 723
0.02750000 0.02749970 66923.67783861 0 649.02535666 0 21973.69294209 0 4666.60845202 0 5626.86689424 0 826
0.02850000 0.02848090 58960.01893604 0 -690.78462972 0 13349.01624786 0 574.06128871 0 5163.41259430 0 831
0.02950000 0.02946900 66650.96647832 0 -3060.93312379 0 15178.27503114 0 9608.80706877 0 -8770.23347630 0 996
0.03050000 0.03053250 59873.81790333 0 147.22538142 0 7209.54500381 0 3255.18599041 0 -7113.81368343 0 1041
0.03150000 0.03150510 64830.12266190 0 2070.71297061 0 6127.20310814 0 2765.49028065 0 -18588.99396828 0 1036
0.03250000 0.03246190 59224.20460622 0 4205.11395357 0 621.13749214 0 -6030.22061506 0 -16207.33689979 0 1059
0.03350000 0.03345080 56641.69556552 0 3413.39843974 0 10292.84422374 0 -11011.93635909 0 -20506.27773388 0 1302
0.03450000 0.03451200 53206.06389754 0 4409.36512950 0 11122.48245007 0 -7861.11810242 0 -15982.23653623 0 1339
0.03550000 0.03553350 52505.85007601 0 1271.06967221 0 17232.41273150 0 -2443.62887050 0 -11561.38940589 0 1365
0.03650000 0.03647120 51797.66418061 0 -730.14120828 0 13343.70153194 0 3466.32415238 0 -11800.88379171 0 1308
0.03750000 0.03744890 52384.16522625 0 -1278.52134681 0 17051.49094396 0 6350.04471744 0 -8151.79984588 0 1579
0.03850000 0.03847530 54175.88882840 0 -116.00253266 0 13620.73109891 0 7872.38972908 0 -7740.83943791 0 1662
0.03950000 0.03950240 53882.47222071 0 877.20271929 0 15038.87446168 0 -485.55798197 0 -2552.38124487 0 1683
0.04050000 0.04050350 51592.05110872 0 4822.39606221 0 18379.50558271 0 185.51458787 0 -1031.56864298 0 1822
0.04150000 0.04152450 46127.19447123 0 5435.13851768 0 15400.38586701 0 -4436.48125298 0 -4810.32722816 0 1887
0.04250000 0.04250150 42096.97896049 0 3748.60200130 0 17379.12103535 0 -1696.85592311 0 1561.57425847 0 1920
0.04350000 0.04349210 41402.63347112 0 195.38335098 0 18072.02712250 0 278.89968262 0 -3952.19991007 0 2005
0.04450000 0.04448520 41073.78542400 0 -587.85961990 0 18855.39410342 0 3713.51380395 0 -5068.85494035 0 2151
0.04550000 0.04548030 40846.69204197 0 988.32789287 0 15094.34680902 0 1467.00553220 0 -5798.48792893 0 2274
0.04650000 0.04648670 40716.37077886 0 1289.91476905 0 15640.98748532 0 1164.91929417 0 -3507.85644277 0 2311
0.04750000 0.04749250 38771.51692446 0 878.46164262 0 14899.36316896 0 1071.30057336 0 -708.65425474 0 2568
0.04850000 0.04851840 37778.77228122 0 1524.14980059 0 15909.60208542 0 2267.78928006 0 -565.52120458 0 2493
0.04950000 0.04949480 37739.79769786 0 -414.62977641 0 15216.25310527 0 2653.78159556 0 -2709.36466615 0 2644
0.05050000 0.05050630 38706.74382427 0 -808.52108844 0 15537.90414125 0 2715.15549203 0 -657.53997445 0 2829
0.05150000 0.05149060 37397.44141447 0 402.44689742 0 13800.32420746 0 1562.44897213 0 -1151.05674350 0 2784
0.05250000 0.05249300 37997.56141964 0 439.23248216 0 12475.07764992 0 665.55855208 0 1974.50554026 0 3055
0.05350000 0.05348950 36822.56630988 0 -327.47618607 0 12898.15118124 0 1152.16397598 0 1782.99861020 0 3009
0.05450000 0.05448610 37842.88104192 0 758.95582639 0 10923.86708748 0 2582.81906580 0 -900.95174880 0 3336
0.05550000 0.05550870 37537.39560017 0 168.47206551 0 11197.66353559 0 98.04023228 0 -1954.22104119 0 3349
0.05650000 0.05647670 36984.33297548 0 1336.23030376 0 11326.87756623 0 -1300.73243040 0 1411.09029186 0 3324
0.05750000 0.05747970 36773.84808068 0 -277.98178690 0 12510.61981259 0 1188.45905673 0 2995.09708042 0 3639
0.05850000 0.05849280 36434.48132499 0 263.75163504 0 12511.28415208 0 909.71438666 0 2351.10852432 0 3846
0.05950000 0.05951020 37161.71161908 0 1650.13071237 0 12589.56548855 0 1592.57676797 0 2855.17611169 0 3787
0.06050000 0.06049470 34800.09545851 0 1059.46536536 0 12141.13633339 0 1136.80666146 0 3593.12441620 0 3930
0.06150000 0.06148310 34401.15959529 0 1678.56444251 0 12344.20277056 0 -818.99440049 0 4030.73591001 0 4083
0.06250000 0.06249100 32846.49446751 0 829.18426102 0 12720.21892141 0 522.93925779 0 3560.72679378 0 4303
0.06350000 0.06350600 32988.66311818 0 78.47620938 0 11670.34108210 0 6.57553261 0 1350.01534816 0 4470
0.06450000 0.06451750 31882.31642230 0 -86.26492556 0 12511.83776832 0 1821.74067474 0 2184.33716790 0 4479
0.06550000 0.06550280 32229.43380536 0 153.46463645 0 10300.63914041 0 2182.88669335 0 660.18515285 0 4636
0.06650000 0.06648880 32068.77437225 0 137.00562561 0 9628.95869994 0 1539.59569371 0 1506.97662479 0 4653
0.06750000 0.06749660 31652.67640556 0 475.31165258 0 7313.81308663 0 1435.94766108 0 1156.65933986 0 5220
0.06850000 0.06852730 31178.55945683 0 405.78298888 0 6636.55219445 0 935.47968651 0 91.35675557 0 5029
0.06950000 0.06949320 30239.73703545 0 1200.37287824 0 6342.77020004 0 -1207.61417867 0 -2257.97920027 0 5040
0.07050000 0.07048030 29243.33852502 0 1571.52827848 0 8546.21820057 0 -1425.96042409 0 -276.37187087 0 5475
0.07150000 0.07148790 28054.83517899 0 1114.98310924 0 8764.02190208 0 -895.10334683 0 827.82457953 0 5509
0.07250000 0.07249820 27374.44081888 0 466.03304438 0 9167.67457567 0 1317.29662832 0 -115.27065199 0 5916
0.07350000 0.07351270 27692.77015742 0 -617.73939565 0 9896.77609265 0 1336.54032886 0 483.92481406 0 5721
0.07450000 0.07449140 27438.10668659 0 58.80987821 0 7915.72680842 0 2507.05114706 0 -737.55855868 0 6028
0.07550000 0.07549160 27572.19254014 0 598.68613911 0 8137.80442731 0 -417.28159821 0 561.84962167 0 6183
0.07650000 0.07648840 27055.89003385 0 932.44919121 0 8820.59040958 0 -87.79224204 0 2085.43916262 0 6330
0.07750000 0.07749960 26176.85816650 0 1339.05374659 0 10011.28607593 0 -928.14205685 0 2421.52851016 0 6583
0.07850000 0.07848650 24816.06944629 0 1040.54497671 0 9420.55540220 0 673.89490544 0 2980.09408029 0 6549
0.07950000 0.07947320 24428.31663114 0 489.40561484 0 9800.01504606 0 2313.39618598 0 2876.95537460 0 6828
0.08050000 0.08048110 24395.87471942 0 22.66128431 0 9305.75753848 0 1169.27071782 0 2578.17976170 0 7147
0.08150000 0.08149960 24207.42375101 0 85.16909757 0 8876.00739529 0 1088.60550982 0 3332.06114162 0 7386
0.08250000 0.08250610 23992.17775653 0 -192.55437199 0 7769.64962709 0 632.45783704 0 3397.91932965 0 7227
0.08350000 0.08350160 24074.33440669 0 246.15660367 0 7737.93848881 0 -192.84778860 0 1851.01590156 0 7798
0.08450000 0.08449610 23426.60340480 0 742.45695518 0 7543.14307828 0 -285.40910239 0 365.30035488 0 7371
0.08550000 0.08548940 22537.82789160 0 1284.34538966 0 7284.64858306 0 -712.54506968 0 180.04375218 0 8256
0.08650000 0.08650700 21813.14423222 0 772.40205765 0 6638.13553690 0 153.13468117 0 628.55262807 0 8037
0.08750000 0.08749060 21282.33698042 0 -49.42420063 0 6492.36838066 0 1214.81118980 0 -684.49554922 0 8155
0.08850000 0.08849210 21292.52351925 0 -4.30889485 0 5401.66687975 0 1196.27611806 0 -778.00686847 0 8718
0.08950000 0.08949900 20692.29279083 0 668.91235927 0 4995.06896776 0 1206.42943991 0 -1153.90233098 0 8571
0.09050000 0.09049190 20302.65768046 0 650.84896856 0 4358.13348257 0 90.64868040 0 -564.30878501 0 8932
0.09150000 0.09150830 19839.50233330 0 276.11056400 0 4546.17477496 0 -467.71271606 0 -1283.22708486 0 9285
0.09250000 0.09250820 19190.55337568 0 554.58949828 0 4392.92272715 0 -620.01918733 0 -483.43431007 0 9204
0.09350000 0.09350330 19010.40665088 0 339.23167333 0 4993.21988952 0 -463.24614023 0 -1449.52233131 0 9349
0.09450000 0.09448040 18909.09487879 0 309.97084053 0 4782.72392239 0 -128.59287321 0 -713.51500534 0 9564
0.09550000 0.09549270 18530.08920025 0 503.80628050 0 5649.27727967 0 30.80309692 0 -1830.11135230 0 10155
0.09650000 0.09649430 18210.20973623 0 423.58950166 0 5583.24193445 0 -165.97193457 0 -1418.79662994 0 9913
0.09750000 0.09749140 17953.11035395 0 294.93683789 0 5786.68483067 0 715.41501627 0 -1096.24209225 0 10476
0.09850000 0.09850240 17197.53490832 0 408.27647643 0 6036.66470810 0 -131.80163294 0 -14.19294885 0 10575
0.09950000 0.09950330 17693.35361370 0 233.69027316 0 6268.74063630 0 536.70326477 0 -1270.13959692 0 10882
0.10050000 0.10051200 16862.70780581 0 559.89978527 0 5697.05436126 0 195.74320154 0 -139.38285375 0 10875
0.10150000 0.10150300 16732.38654269 0 435.05046508 0 5577.41789160 0 -61.71038442 0 -448.96394844 0 11118
0.10250000 0.10250800 16352.82724791 0 -51.75769309 0 5164.91843048 0 917.24799646 0 -410.66699136 0 11575
0.10350000 0.10349800 16510.82932307 0 -150.28023583 0 4946.28430461 0 358.25282013 0 -858.91456039 0 11364
0.10450000 0.10450100 16410.62478346 0 11.60180339 0 4289.46292404 0 562.61029038 0 -899.48355852 0 12093
0.10550000 0.10551000 16074.69044846 0 565.21893011 0 4342.58793852 0 158.96758189 0 -758.98350720 0 12067
0.10650000 0.10649700 16021.43256608 0 108.92499191 0 4483.48327184 0 -190.95774275 0 623.02310906 0 12054
0.10750000 0.10749900 15621.61091688 0 190.82044592 0 4788.37080805 0 435.19329807 0 -10.32000464 0 12807
0.10850000 0.10850100 15842.94669001 0 387.81814187 0 5337.08200908 0 42.49458614 0 764.80090666 0 12736
0.10950000 0.10950300 15180.37877286 0 521.26180058 0 5450.44047058 0 157.37316711 0 1137.42671165 0 12933
0.11050000 0.11050200 15058.36175336 0 398.65462617 0 5384.30547444 0 357.65602183 0 1710.58560588 0 13428
0.11150000 0.11150900 14768.04539661 0 -92.03028509 0 5143.78136240 0 188.91046989 0 1642.39115732 0 13453
0.11250000 0.11250000 14906.89234984 0 -149.63914823 0 5046.56635049 0 414.17802556 0 709.91096361 0 13668
0.11350000 0.11349100 15101.32237366 0 33.75309642 0 4645.60425183 0 539.29751048 0 845.86250389 0 13791
0.11450000 0.11448600 14589.44879729 0 333.28694213 0 3909.41644697 0 -20.48003632 0 65.56454997 0 14205
0.11550000 0.11549300 14412.40232344 0 483.83734269 0 4023.84892397 0 177.47054389 0 812.94005328 0 14776
0.11650000 0.11649800 14194.72041750 0 16.43431956 0 3857.04435058 0 272.70028796 0 -154.47775417 0 14553
0.11750000 0.11747300 13787.81248042 0 342.36181955 0 3928.61585820 0 562.74426551 0 -100.73767205 0 14568
0.11850000 0.11849100 13886.24544806 0 89.57876165 0 4129.86643411 0 197.68418008 0 590.12501756 0 16015
0.11950000 0.11950300 13967.51631223 0 -29.69542155 0 4635.30698975 0 -299.27054583 0 245.62623931 0 15270
0.12050000 0.12050700 13990.21457810 0 151.94662072 0 4664.53792727 0 -501.71028941 0 800.71509945 0 15999
0.12150000 0.12150000 13929.75968459 0 218.79688904 0 5028.85063078 0 -191.60547375 0 1177.07670682 0 15670
0.12250000 0.12250700 13685.61492234 0 283.69842820 0 4915.55860324 0 -226.21645390 0 1167.42163958 0 16887
0.12350000 0.12352200 13727.80047990 0 73.37286415 0 5275.89634214 0 341.21583394 0 689.14924734 0 16407
0.12450000 0.12449800 13474.68713455 0 291.69707565 0 5299.01535636 0 470.93365535 0 704.77561936 0 16306
0.12550000 0.12549900 12985.84399380 0 457.20618704 0 4763.36949861 0 269.24350815 0 868.74014143 0 17523
0.12650000 0.12650100 12831.38506258 0 294.12966541 0 4616.49510989 0 499.88889198 0 1077.06150397 0 17154
0.12750000 0.12750600 12635.84780629 0 -89.69092430 0 4469.83109534 0 77.10656280 0 657.78799452 0 18007
0.12850000 0.12850300 12658.43534892 0 -7.86791651 0 4507.97525434 0 277.44588638 0 207.10783573 0 17496
0.12950000 0.12949900 12743.91369652 0 -1.41464451 0 4651.40615004 0 -115.11785391 0 -6.11396061 0 18405
0.13050000 0.13049000 12655.33509797 0 68.38611050 0 4036.40494031 0 60.34538822 0 458.11854660 0 18100
0.13150000 0.13148800 12542.17593832 0 179.00184641 0 4126.82154478 0 276.88894844 0 412.43191994 0 19059
0.13250000 0.13249300 12583.14354015 0 -46.78212248 0 3523.71201191 0 1027.16739387 0 664.05935930 0 18957
0.13350000 0.13349100 12554.46621887 0 -98.81031247 0 3060.65631567 0 983.90892803 0 93.53335318 0 19468
0.13450000 0.13450700 12373.43370809 0 232.35827248 0 3086.04515648 0 636.80040283 0 433.16927709 0 19953
0.13550000 0.13551000 12215.09946318 0 335.31760651 0 2564.67152542 0 49.85126020 0 313.63799451 0 19956
0.13650000 0.13649900 11855.02746008 0 314.03438374 0 2543.40158944 0 -235.95677805 0 313.09434336 0 19723
0.13750000 0.13749600 11778.40697233 0 49.29299358 0 2649.23087006 0 -428.84774871 0 570.25351620 0 20946
0.13850000 0.13851100 11927.88335738 0 36.96119182 0 2656.09571145 0 -378.26604724 0 -72.76543641 0 20955
0.13950000 0.13949800 11699.46129637 0 259.19205168 0 3152.49017772 0 -482.86408534 0 -213.78776930 0 20506
0.14050000 0.14048300 11636.68121465 0 286.68795590 0 3322.15141091 0 -341.56904110 0 -237.60101828 0 21447
0.14150000 0.14148400 11420.21726445 0 81.37893006 0 3230.09610237 0 137.43080288 0 1.91172546 0 21771
0.14250000 0.14249400 11284.35983892 0 211.13151857 0 3322.79360575 0 409.71144973 0 103.73572544 0 22470
0.14350000 0.14350900 11190.13435472 0 108.37536171 0 3224.16133627 0 303.97739111 0 68.57611159 0 22519
0.14450000 0.14449900 11095.79814726 0 168.05906779 0 3438.85371450 0 226.83539686 0 -435.23537290 0 22218
0.14550000 0.14550500 10732.08334929 0 383.31281290 0 2939.31470798 0 134.23532994 0 217.86902822 0 23559
0.14650000 0.14650700 10466.71294037 0 282.53915579 0 3216.82038491 0 -245.00397466 0 450.57165001 0 23044
0.14750000 0.14750500 10363.95069372 0 172.85116998 0 3245.89630989 0 175.72443827 0 381.59106639 0 23649
0.14850000 0.14849900 10309.50807259 0 28.13555243 0 3032.06757299 0 368.62315956 0 537.31777880 0 23640
0.14950000 0.14949500 10304.72482827 0 21.65912819 0 3000.84361700 0 128.67259395 0 283.28432325 0 24457
0.15050000 0.15050000 10281.05219781 0 151.61998714 0 3142.23720493 0 80.64494565 0 377.78661558 0 24591
0.15150000 0.15149900 10115.97490709 0 238.07269932 0 2979.93906774 0 -232.30180363 0 232.47563912 0 25020
0.15250000 0.15250500 9886.11344385 0 228.46192138 0 3257.72155279 0 -117.15848337 0 284.04056304 0 25297
0.15350000 0.15350100 9735.57411562 0 61.48827359 0 3158.07062942 0 -1.13827928 0 412.36991492 0 25452
0.15450000 0.15450400 9702.41250278 0 58.81187123 0 3138.08508313 0 122.90169825 0 -146.74705698 0 26061
0.15550000 0.15549900 9677.40012102 0 196.91133181 0 3162.38883610 0 94.10158489 0 -4.03464444 0 26128
0.15650000 0.15649500 9411.19928773 0 162.08997749 0 3015.32621786 0 202.52057156 0 -121.09469484 0 26331
0.15750000 0.15749700 9383.49633103 0 59.21955423 0 2774.12669401 0 402.65394989 0 9.90237869 0 27345
0.15850000 0.15849900 9273.45956698 0 -0.89741082 0 2737.87590256 0 130.14964208 0 -396.69150298 0 26980
0.15950000 0.15949700 9352.20594110 0 91.06898585 0 2597.65598105 0 378.27269064 0 66.23265405 0 27777
0.16050000 0.16050000 9145.35276883 0 100.26499450 0 2306.25453648 0 30.24549464 0 -79.67334914 0 28224
0.16150000 0.16150500 9081.77547972 0 151.83811194 0 2312.59897860 0 79.42732209 0 -251.79352424 0 28075
0.16250000 0.16249700 9057.89247509 0 181.16759315 0 2416.72312119 0 88.82296476 0 92.72784155 0 28590
0.16350000 0.16349900 8735.66567822 0 283.26771477 0 2008.13219073 0 -38.75169746 0 -124.51050705 0 29163
0.16450000 0.16449100 8699.12700632 0 54.23601155 0 2264.65581213 0 160.14457001 0 122.29493485 0 28996
0.16550000 0.16550500 8781.19507787 0 -50.86725673 0 2111.86880196 0 357.87968279 0 382.36391466 0 30777
0.16650000 0.16650700 8647.38603244 0 77.20798530 0 2225.38227600 0 265.51324192 0 545.61205732 0 29211
0.16750000 0.16749900 8670.93686733 0 212.02616242 0 1889.30400078 0 166.62963066 0 351.84194406 0 30922
0.16850000 0.16850800 8426.10562094 0 198.41163182 0 2167.95012717 0 -39.27253962 0 839.73729380 0 30867
0.16950000 0.16949900 8310.72092400 0 255.34552604 0 2326.05185325 0 -281.00120987 0 374.42616500 0 30852
0.17050000 0.17049200 8086.73886525 0 223.95769964 0 2407.80989971 0 -360.77841743 0 486.31311452 0 31257
0.17150000 0.17149500 8000.49652723 0 58.06958257 0 2574.09407384 0 -245.18998971 0 246.25293290 0 32608
0.17250000 0.17250900 8051.57316162 0 -67.56786570 0 2480.83188189 0 -26.05207307 0 181.03029632 0 32361
0.17350000 0.17350400 8037.78811722 0 -1.11295687 0 2456.36204404 0 190.98210187 0 -295.24797022 0 32508
0.17450000 0.17449800 8012.58750594 0 32.58607339 0 2403.45847606 0 133.23107008 0 -244.45700181 0 32791
0.17550000 0.17549800 7987.26509908 0 88.85297076 0 2221.45160069 0 298.77229121 0 -245.40036389 0 33633
0.17650000 0.17650100 7918.55025125 0 114.32286099 0 1936.63818938 0 224.34965994 0 -105.56144108 0 33984
0.17750000 0.17750300 7756.85001960 0 90.67104649 0 2034.10786476 0 190.43734349 0 -36.80850446 0 34069
0.17850000 0.17849800 7640.38023483 0 219.98052057 0 1866.53930095 0 240.26169794 0 -31.59089283 0 34536
