### header ###
fiducial parameters:
Omega_m = 0.31
Omega_nu = 0
Omega_de = 0.69
Omega_k = 0
H_0 = 100
w_de = -1
zeff = 0
beta = 0
fgrowth = 0
b_1 = 2
gamma = 0.55
Lx = 3500 Ly = 3500 Lz = 3500
nx = 700 ny = 700 nz = 700
xoffset = -685.467585 yoffset = -31.7331281 zoffset = 572.489161
bins = 400 dk = 0.001
kx_ny = 0.628318531 ky_ny = 0.628318531 kz_ny = 0.628318531
############################
A(data) = 8.04208498 (not used)
A(ran) = 8.03722426 (used)
Ngal = 477617
weighted Ngal = 0
Nran = 23820508
weighted Nran = 0
SN(data) = 3492.20517
SN(ran) = 70.0071381
SN(data+ran) = 3562.21231
############################
13 columns: k_central k_mean P_0(k) sigma^{lin}_{P_0(k)} P^img_1(k) sigma^{lin}_{P_1(k)} P_2(k) sigma^{lin}_{P_2(k)} P^img_3(k) sigma^{lin}_{P_3(k)} P_4(k) sigma^{lin}_{P_4(k)} N_modes
### header ###
0.00050000 0 0 0 0 0 0 0 0 0 0 0 0
0.00150000 0.00179520 275.01329661 0 -5557.70915342 0 -2768.41337441 0 -4159.88350669 0 17818.69233065 0 3
0.00250000 0.00253879 4880.29324869 0 -10530.86599036 0 -11670.11963561 0 2942.00528291 0 -6610.10041046 0 6
0.00350000 0.00331552 12394.58184849 0 -18497.53656528 0 -20698.60401598 0 15186.68999801 0 -3885.09054934 0 7
0.00450000 0.00420575 26205.86765752 0 -27566.76710098 0 -30324.99393656 0 12333.68406199 0 6397.41212302 0 24
0.00550000 0.00557378 53513.21018801 0 -27587.47234839 0 -36462.49430678 0 2733.55769588 0 -3068.49552164 0 45
0.00650000 0.00659388 77850.62303238 0 -29880.55081834 0 -46994.71112077 0 10496.28711996 0 25526.69125315 0 40
0.00750000 0.00754703 76893.64199831 0 -4281.62371807 0 -35332.00994280 0 -5547.54475924 0 8562.05162506 0 57
0.00850000 0.00846663 90524.11674305 0 3599.01489300 0 -39089.73553975 0 -19190.99626867 0 17560.81788562 0 75
0.00950000 0.00948925 68477.45718041 0 15682.06581039 0 -15926.32129589 0 -21781.36665999 0 13398.06664680 0 112
0.01050000 0.01054430 62646.43876116 0 22255.26216223 0 -2424.98307551 0 -31628.87090720 0 26811.74527160 0 105
0.01150000 0.01145670 50058.53412134 0 13708.64535797 0 1660.94837372 0 -27693.98811315 0 20042.01515423 0 144
0.01250000 0.01249090 44704.62217853 0 3176.30674840 0 15955.44151017 0 -9553.71118047 0 16642.14709542 0 169
0.01350000 0.01339930 46194.51420613 0 -892.16475182 0 28714.08139869 0 -6427.08595353 0 -298.29175231 0 180
0.01450000 0.01448870 55085.48031225 0 -5131.44679255 0 28095.91350407 0 2220.15613869 0 -10209.27031601 0 267
0.01550000 0.01550050 53700.55392394 0 -6506.98384942 0 25887.87048873 0 3818.06976721 0 -1735.84157879 0 238
0.01650000 0.01653350 65450.72646798 0 -2673.40175514 0 33273.44331251 0 328.09180733 0 -10685.53529576 0 315
0.01750000 0.01747870 68397.62571846 0 -9779.92984884 0 38748.15431909 0 13472.02977659 0 52.67581026 0 297
0.01850000 0.01844180 79300.21179764 0 -6244.51438960 0 32477.23243481 0 12507.29811514 0 -12880.76763128 0 388
0.01950000 0.01947590 80279.89109760 0 409.60515541 0 28663.48087427 0 2176.19900916 0 -7486.69636635 0 399
0.02050000 0.02045430 77587.87676444 0 6513.49437642 0 28965.53389532 0 2948.18364016 0 -10753.07647715 0 462
0.02150000 0.02154770 70608.87970800 0 7857.87391125 0 22832.24100853 0 2480.10110845 0 -1126.74191820 0 571
0.02250000 0.02255340 63034.63446931 0 4896.77994035 0 22953.92585829 0 9216.96856576 0 -2598.76321353 0 510
0.02350000 0.02348930 60839.65679726 0 4464.56066872 0 19930.95973630 0 -2446.61839820 0 -2204.47772674 0 555
0.02450000 0.02439640 57950.11218933 0 1912.86590799 0 14047.34777417 0 5698.82593323 0 1969.78872989 0 592
0.02550000 0.02547300 54151.86188355 0 1450.20881545 0 15020.93729547 0 634.31466591 0 -16248.74739461 0 837
0.02650000 0.02652900 55354.09491235 0 -1974.10693657 0 10446.37307967 0 1817.61069758 0 -6853.13794023 0 723
0.02750000 0.02749970 58562.30102856 0 -4546.14155799 0 11032.11013490 0 -3112.46372350 0 -25331.48616660 0 826
0.02850000 0.02848090 57474.88800812 0 -1992.24340462 0 6622.03637661 0 1676.82608751 0 -14111.56725812 0 831
0.02950000 0.02946900 61195.41059368 0 -389.07927966 0 5825.16115941 0 -1313.99707553 0 -19550.73610203 0 996
0.03050000 0.03053250 57802.29665301 0 4576.84511471 0 3798.12851022 0 -2286.47936435 0 -20753.85491682 0 1041
0.03150000 0.03150510 57692.12702106 0 5069.69643704 0 6035.40246307 0 -1040.49736572 0 -12961.92777220 0 1036
0.03250000 0.03246190 49409.69588697 0 3783.04800381 0 11722.93462499 0 -2642.07814823 0 -5521.72409776 0 1059
0.03350000 0.03345080 49353.44847689 0 3962.75183562 0 10933.86539679 0 1204.10425170 0 -134.10024758 0 1302
0.03450000 0.03451200 47204.86384583 0 23.57818353 0 19652.82293686 0 -2490.71946795 0 -3003.25738381 0 1339
0.03550000 0.03553350 47439.70785523 0 1738.01175446 0 21424.83780083 0 -5222.71596603 0 49.18171672 0 1365
0.03650000 0.03647120 49685.06460521 0 493.71164197 0 29562.33220305 0 -3445.41960312 0 3634.66777892 0 1308
0.03750000 0.03744890 48544.61514889 0 1286.96953065 0 32066.78135378 0 -3881.28166960 0 6974.16952282 0 1579
0.03850000 0.03847530 48053.77898968 0 1922.85314498 0 29504.86683724 0 2733.36946636 0 6742.16002857 0 1662
0.03950000 0.03950240 45870.20581219 0 -59.37866354 0 29558.89978235 0 6236.63089433 0 5752.58207023 0 1683
0.04050000 0.04050350 45956.56994578 0 1077.00392788 0 26521.65036135 0 8344.77939515 0 3228.64562782 0 1822
0.04150000 0.04152450 45936.41831461 0 -772.11860614 0 25858.97172096 0 8184.65143362 0 1805.84081630 0 1887
0.04250000 0.04250150 45353.34968966 0 -1350.08178211 0 20475.16450114 0 5250.51857365 0 809.42569738 0 1920
0.04350000 0.04349210 45751.62121338 0 61.51529006 0 18527.21039579 0 -439.62997862 0 978.72597279 0 2005
0.04450000 0.04448520 46565.32636431 0 934.11446886 0 17388.97540444 0 483.71333265 0 2536.20457831 0 2151
0.04550000 0.04548030 44206.81045469 0 2353.73266530 0 20342.85021955 0 -2413.03603703 0 1914.38281649 0 2274
0.04650000 0.04648670 43780.41522592 0 2276.80215246 0 19542.09968867 0 -2298.82500652 0 -4852.74530454 0 2311
0.04750000 0.04749250 41073.34253101 0 3116.89265342 0 22684.42547220 0 -1918.32456413 0 547.42902582 0 2568
0.04850000 0.04851840 39590.42606805 0 2587.90126289 0 20389.02181405 0 -1604.39093855 0 -1734.54611679 0 2493
0.04950000 0.04949480 37654.87296650 0 -180.39695934 0 21456.17248007 0 1577.23052577 0 632.23971224 0 2644
0.05050000 0.05050630 39407.84343179 0 -1530.08456669 0 20948.17421739 0 2813.97599103 0 -5919.22055875 0 2829
0.05150000 0.05149060 39379.16611051 0 35.34740047 0 17722.58455122 0 2374.18324924 0 -7744.18328001 0 2784
0.05250000 0.05249300 39441.83546898 0 880.61631703 0 15608.54557360 0 2064.13600967 0 -5309.64478818 0 3055
0.05350000 0.05348950 38179.92260940 0 1417.14685354 0 12621.23233753 0 2276.19317459 0 -2792.78356133 0 3009
0.05450000 0.05448610 36018.82625130 0 904.09961074 0 12231.92939690 0 4285.05613877 0 -2430.45280397 0 3336
0.05550000 0.05550870 35975.64418450 0 715.79590425 0 12238.01917555 0 4229.62808072 0 -1732.33165183 0 3349
0.05650000 0.05647670 34678.18916226 0 723.62957406 0 10770.27179759 0 2391.57787153 0 -1384.61636322 0 3324
0.05750000 0.05747970 33672.15772923 0 1479.46189762 0 10452.88360667 0 -956.14175185 0 -501.50877310 0 3639
0.05850000 0.05849280 32062.68459360 0 1438.31713859 0 12917.85991942 0 -1522.04605887 0 2468.90698806 0 3846
0.05950000 0.05951020 31047.79530072 0 1599.44160935 0 12222.96081380 0 -2043.96223385 0 2500.15308870 0 3787
0.06050000 0.06049470 31308.10565720 0 212.37051172 0 14429.45370366 0 1466.75086873 0 2580.71532408 0 3930
0.06150000 0.06148310 30435.38501500 0 -122.08788238 0 11909.39257494 0 1975.05915650 0 1590.93806389 0 4083
0.06250000 0.06249100 31963.58728647 0 -1372.62503544 0 11036.71622203 0 3824.05989494 0 2089.51377815 0 4303
0.06350000 0.06350600 31793.73782375 0 -423.48210011 0 10355.22570177 0 1534.09274827 0 1403.97078700 0 4470
0.06450000 0.06451750 32449.66234601 0 318.78551832 0 9400.34840941 0 2121.16955481 0 2235.60203181 0 4479
0.06550000 0.06550280 31221.63080037 0 498.99646260 0 9577.87099322 0 744.27613815 0 2861.26589034 0 4636
0.06650000 0.06648880 31837.36278354 0 858.76397677 0 10887.30627093 0 -395.77139278 0 1700.32156078 0 4653
0.06750000 0.06749660 30137.09658438 0 1432.27164924 0 10479.16930579 0 -1532.77514162 0 2188.75502550 0 5220
0.06850000 0.06852730 29128.62923990 0 1941.10033628 0 12460.68362766 0 -177.87136205 0 1965.73625900 0 5029
0.06950000 0.06949320 27824.64154601 0 725.80085695 0 11999.85346870 0 -716.94742603 0 3953.59502299 0 5040
0.07050000 0.07048030 27064.63717046 0 173.47454186 0 12056.98666477 0 2617.98476942 0 3142.46972375 0 5475
0.07150000 0.07148790 28549.98954488 0 -303.91427885 0 11684.40293462 0 2225.22726345 0 3198.79464011 0 5509
0.07250000 0.07249820 27525.68877591 0 -366.25589651 0 10129.26169687 0 451.89147113 0 1385.94504220 0 5916
0.07350000 0.07351270 28099.01375502 0 1186.20030247 0 9385.81044692 0 -115.38691140 0 318.47438599 0 5721
0.07450000 0.07449140 26970.85457924 0 964.27326720 0 8375.46080722 0 411.42544561 0 2321.56756170 0 6028
0.07550000 0.07549160 26175.64021077 0 131.83817162 0 7743.65180842 0 -607.90717122 0 811.89482581 0 6183
0.07650000 0.07648840 26542.02343902 0 -833.11161463 0 8182.29302843 0 1374.08658232 0 -197.95766650 0 6330
0.07750000 0.07749960 27142.91850693 0 -475.18542808 0 7869.77666043 0 66.09203552 0 -2135.17604570 0 6583
0.07850000 0.07848650 26479.46480379 0 1077.09250648 0 7161.30288458 0 -611.99175184 0 -1131.32586067 0 6549
0.07950000 0.07947320 26519.10372664 0 772.69104533 0 8439.42562770 0 -1692.94739245 0 -1876.47117632 0 6828
0.08050000 0.08048110 25812.68940321 0 893.34727611 0 8682.39672352 0 -1000.17528043 0 -1350.19250536 0 7147
0.08150000 0.08149960 25335.58292678 0 638.02943088 0 10066.31553027 0 -474.32621567 0 -655.12399317 0 7386
0.08250000 0.08250610 24481.90668326 0 267.77753234 0 9807.43350369 0 921.85186912 0 -1155.14243135 0 7227
0.08350000 0.08350160 24625.95762915 0 455.98380238 0 10668.88251923 0 2013.83443802 0 -1071.19427904 0 7798
0.08450000 0.08449610 23760.98761432 0 943.83486282 0 9422.52627602 0 2166.42214634 0 -1119.42311149 0 7371
0.08550000 0.08548940 22836.33776871 0 938.23005200 0 8256.65476191 0 902.16859729 0 -896.06774632 0 8256
0.08650000 0.08650700 21695.44541940 0 1199.59781550 0 7745.87734571 0 220.80873046 0 -67.63618194 0 8037
0.08750000 0.08749060 21030.10942105 0 966.51984191 0 7939.18906471 0 105.38384099 0 610.10281323 0 8155
0.08850000 0.08849210 20025.96028324 0 484.09089893 0 7240.02711404 0 628.54266298 0 1111.37353135 0 8718
0.08950000 0.08949900 19889.43851823 0 91.36539198 0 7033.94900452 0 867.08039994 0 1520.78381384 0 8571
0.09050000 0.09049190 19941.47844488 0 -233.13997861 0 6695.39052854 0 1713.98480960 0 953.81102748 0 8932
0.09150000 0.09150830 20248.62473535 0 13.77164689 0 6811.16275684 0 112.45053086 0 984.61312789 0 9285
0.09250000 0.09250820 19693.67981544 0 322.40727577 0 6260.95679195 0 -205.33847823 0 366.51166722 0 9204
0.09350000 0.09350330 19526.93060367 0 731.27058542 0 6682.41376385 0 -632.38254523 0 -548.53847277 0 9349
0.09450000 0.09448040 18875.43501134 0 471.70650362 0 5930.35931752 0 -160.60407149 0 -540.11354082 0 9564
0.09550000 0.09549270 18392.68164925 0 213.84202369 0 6480.15560639 0 174.48987405 0 -1034.13963681 0 10155
0.09650000 0.09649430 18507.39093437 0 382.49235363 0 6473.45684987 0 386.64779713 0 -1581.90304684 0 9913
0.09750000 0.09749140 18009.91138027 0 471.43633890 0 6588.05541174 0 -571.17141193 0 -1555.89415584 0 10476
0.09850000 0.09850240 17515.19990737 0 631.09704832 0 6625.42450801 0 -0.27902923 0 -875.99472865 0 10575
0.09950000 0.09950330 17397.16892480 0 319.55836659 0 7370.17121996 0 81.17320626 0 178.87672914 0 10882
0.10050000 0.10051200 17281.24168395 0 127.50446368 0 7221.32595742 0 697.13460800 0 -474.64288416 0 10875
0.10150000 0.10150300 17246.91747701 0 3.17229857 0 7022.46700368 0 732.03014690 0 482.37247412 0 11118
0.10250000 0.10250800 16929.69537096 0 206.83988547 0 6883.94114787 0 832.30997832 0 737.74235927 0 11575
0.10350000 0.10349800 17060.57025031 0 142.74108986 0 6692.12419271 0 799.78834586 0 863.13422338 0 11364
0.10450000 0.10450100 16517.47271796 0 450.27269724 0 5961.33968236 0 1119.78849821 0 1461.71296093 0 12093
0.10550000 0.10551000 16206.45111380 0 398.56051140 0 5392.86438152 0 950.19702066 0 1694.14320353 0 12067
0.10650000 0.10649700 15653.05631937 0 182.33904511 0 5148.90784879 0 842.53305582 0 799.66322859 0 12054
0.10750000 0.10749900 15594.59444433 0 299.88616709 0 5111.42802928 0 720.47617595 0 2284.10988684 0 12807
0.10850000 0.10850100 15053.48993044 0 196.01779519 0 4728.85706215 0 156.84390999 0 1112.91258450 0 12736
0.10950000 0.10950300 15153.80519330 0 245.48008462 0 4450.98599850 0 195.18072744 0 1407.53607560 0 12933
0.11050000 0.11050200 14858.28484389 0 350.30842708 0 4515.21655477 0 -606.21531998 0 1278.84244423 0 13428
0.11150000 0.11150900 14705.59748464 0 151.05862027 0 4141.99062978 0 61.43678727 0 1418.85199156 0 13453
0.11250000 0.11250000 14478.72554910 0 -115.00602343 0 4747.99003943 0 -28.77907595 0 435.72919859 0 13668
0.11350000 0.11349100 14798.93718286 0 74.34756091 0 4459.30131444 0 173.79674652 0 -56.11343495 0 13791
0.11450000 0.11448600 14559.99641327 0 202.99889599 0 4330.08728380 0 115.58399878 0 129.61595602 0 14205
0.11550000 0.11549300 14578.48719572 0 81.29013001 0 4347.16080867 0 -400.68418330 0 392.60692235 0 14776
0.11650000 0.11649800 14733.05685019 0 -83.24074148 0 4395.34756628 0 357.36703415 0 542.66792615 0 14553
0.11750000 0.11747300 14354.27261814 0 44.70606158 0 4473.65104740 0 290.94969372 0 -82.48848773 0 14568
0.11850000 0.11849100 14669.94459872 0 183.77401841 0 4108.60757046 0 335.88561677 0 -780.03974731 0 16015
0.11950000 0.11950300 14269.45861003 0 113.69284570 0 4049.18240315 0 65.55978887 0 -485.48379739 0 15270
0.12050000 0.12050700 14132.71539852 0 389.10253154 0 3955.90913888 0 -549.86050835 0 -1437.42028028 0 15999
0.12150000 0.12150000 13777.51521834 0 131.98211184 0 3774.97627902 0 -395.65513337 0 -857.21274406 0 15670
0.12250000 0.12250700 13781.50125527 0 382.61747090 0 3938.92419261 0 -214.01253749 0 -1683.03766173 0 16887
0.12350000 0.12352200 13626.26726132 0 53.14140152 0 3961.98784521 0 163.84494097 0 -1279.48463907 0 16407
0.12450000 0.12449800 13588.51063368 0 -50.23989880 0 3937.31870551 0 346.18952224 0 -1030.85890696 0 16306
0.12550000 0.12549900 13584.52459675 0 284.08817403 0 3853.50120663 0 480.93196466 0 -1071.98041411 0 17523
0.12650000 0.12650100 13281.91795946 0 395.34842997 0 3668.25014009 0 485.59894957 0 -1041.78729156 0 17154
0.12750000 0.12750600 13062.46448155 0 358.61377792 0 3787.06725772 0 265.41580546 0 -818.65669458 0 18007
0.12850000 0.12850300 12600.74853661 0 254.05892189 0 3557.31651773 0 110.21823945 0 140.21770704 0 17496
0.12950000 0.12949900 12615.03183563 0 182.02237662 0 4210.81620086 0 -267.14087367 0 -170.61234590 0 18405
0.13050000 0.13049000 12313.42170757 0 123.99121502 0 3741.43820714 0 284.76358585 0 740.90350801 0 18100
0.13150000 0.13148800 12556.23779084 0 -325.14324723 0 3771.02345906 0 640.41662412 0 579.27081754 0 19059
0.13250000 0.13249300 12613.59243340 0 -45.11839496 0 3773.29328565 0 270.43156860 0 952.97395972 0 18957
0.13350000 0.13349100 12741.80995480 0 107.96734654 0 4097.80098143 0 570.28451871 0 620.03579582 0 19468
0.13450000 0.13450700 12575.94652902 0 72.63699745 0 3711.10003714 0 57.95985584 0 899.11706457 0 19953
0.13550000 0.13551000 12457.02976047 0 366.28579179 0 4094.88896000 0 -63.98120752 0 1530.52745968 0 19956
0.13650000 0.13649900 12172.69245912 0 446.84470547 0 3968.78625265 0 -153.55321505 0 1472.94029830 0 19723
0.13750000 0.13749600 11843.62296551 0 108.35997118 0 3833.39386476 0 520.99717202 0 1400.10654564 0 20946
0.13850000 0.13851100 11747.84735583 0 55.35874529 0 3658.42898798 0 587.00594366 0 1182.72359248 0 20955
0.13950000 0.13949800 11704.66528904 0 210.92889503 0 3278.71468065 0 301.00004296 0 734.37194360 0 20506
0.14050000 0.14048300 11527.39736869 0 239.21979217 0 3126.12697232 0 -51.92920340 0 669.94208548 0 21447
0.14150000 0.14148400 11230.76978680 0 329.08056593 0 2968.53457318 0 -492.55347679 0 1000.51852250 0 21771
0.14250000 0.14249400 10942.14749575 0 284.52442363 0 3269.26998758 0 -360.57136495 0 431.62247331 0 22470
0.14350000 0.14350900 10842.88410375 0 86.08023918 0 3368.47801795 0 -161.13443585 0 55.40890292 0 22519
0.14450000 0.14449900 10863.46755559 0 -92.79936877 0 3389.61508603 0 -63.97866088 0 -86.99282019 0 22218
0.14550000 0.14550500 10949.66560431 0 58.69616544 0 3396.74566321 0 177.46611496 0 -328.29443087 0 23559
0.14650000 0.14650700 10894.04931674 0 167.63389052 0 3349.43361926 0 -85.79501609 0 -493.20563672 0 23044
0.14750000 0.14750500 10679.67803593 0 205.03731099 0 3254.45521697 0 156.63575028 0 -149.65022055 0 23649
0.14850000 0.14849900 10550.02111230 0 239.63611158 0 3041.98837603 0 342.95972510 0 143.08211747 0 23640
0.14950000 0.14949500 10454.73268491 0 74.53567970 0 3015.56980901 0 483.17300320 0 -287.63574691 0 24457
0.15050000 0.15050000 10333.12534143 0 163.06323484 0 2808.98237254 0 297.99058508 0 210.22912410 0 24591
0.15150000 0.15149900 10180.79229657 0 257.97741765 0 2801.86286768 0 266.22962133 0 217.04856895 0 25020
0.15250000 0.15250500 9899.93170522 0 251.20226209 0 2857.27985340 0 191.53793257 0 502.13989562 0 25297
0.15350000 0.15350100 9825.54782709 0 9.54145412 0 2313.57334318 0 284.83223426 0 688.58788047 0 25452
0.15450000 0.15450400 9646.68549197 0 18.74334218 0 2563.05496599 0 -6.03068565 0 -105.24078655 0 26061
0.15550000 0.15549900 9662.13138509 0 125.17706100 0 2637.41669948 0 107.06982389 0 -167.68150152 0 26128
0.15650000 0.15649500 9519.89630047 0 287.54827554 0 2727.40148328 0 -262.22033252 0 -193.03823259 0 26331
0.15750000 0.15749700 9262.44260379 0 251.04503508 0 2574.37088196 0 0.90723086 0 591.94198606 0 27345
0.15850000 0.15849900 9256.44140374 0 -46.80437786 0 2931.68587618 0 198.53674909 0 432.93343657 0 26980
0.15950000 0.15949700 9283.67932279 0 -17.88878015 0 2734.59849441 0 433.80039960 0 513.42148738 0 27777
0.16050000 0.16050000 9351.08763629 0 42.50621209 0 2879.54629861 0 -89.94879875 0 291.87755454 0 28224
0.16150000 0.16150500 9140.39236731 0 283.26771477 0 2882.00435472 0 -172.63193794 0 390.82317082 0 28075
0.16250000 0.16249700 9042.34693105 0 346.35339265 0 3026.75285707 0 -358.24949844 0 1007.99012728 0 28590
0.16350000 0.16349900 8696.12640629 0 210.38524388 0 3112.22013235 0 48.03916352 0 868.87079487 0 29163
0.16450000 0.16449100 8785.54650153 0 -83.23088711 0 2919.91599490 0 420.72398399 0 908.43553314 0 28996
0.16550000 0.16550500 8763.62329839 0 -213.61836273 0 2733.26981543 0 619.52979058 0 412.98775064 0 30777
0.16650000 0.16650700 8858.97815972 0 17.63887778 0 2475.05212834 0 374.42727223 0 377.62274517 0 29211
0.16750000 0.16749900 8873.48290524 0 205.74926148 0 2286.80046177 0 -79.96875877 0 212.93630752 0 30922
0.16850000 0.16850800 8665.94324884 0 176.67112204 0 2209.22775409 0 -207.34699795 0 295.41959125 0 30867
0.16950000 0.16949900 8504.03264301 0 219.50441060 0 2406.43693143 0 -237.79035504 0 267.36564186 0 30852
0.17050000 0.17049200 8393.36475645 0 181.15652082 0 2553.32239248 0 -264.14802427 0 -7.92685449 0 31257
0.17150000 0.17149500 8303.66785309 0 190.26129352 0 2578.81088421 0 -182.89044689 0 -53.14250875 0 32608
0.17250000 0.17250900 8141.96762144 0 135.74670228 0 2620.64212738 0 22.00214882 0 311.17883117 0 32361
0.17350000 0.17350400 8124.17439546 0 62.90099151 0 2775.96469993 0 146.55218407 0 215.73206953 0 32508
0.17450000 0.17449800 8159.25152048 0 -20.28726715 0 2530.40268010 0 251.20004763 0 104.44989039 0 32791
0.17550000 0.17549800 8178.84953541 0 39.03370958 0 2621.71614288 0 135.38795895 0 248.75860000 0 33633
0.17650000 0.17650100 8098.75233768 0 -63.44818580 0 2447.76991998 0 87.00322817 0 340.15953415 0 33984
0.17750000 0.17750300 8172.58259957 0 109.86303927 0 2593.33777437 0 225.73591501 0 225.02507175 0 34069
0.17850000 0.17849800 8021.65573996 0 152.14813703 0 2440.67255977 0 41.80190150 0 410.17316567 0 34536
