### header ###
fiducial parameters:
Omega_m = 0.31
Omega_nu = 0
Omega_de = 0.69
Omega_k = 0
H_0 = 100
w_de = -1
zeff = 0
beta = 0
fgrowth = 0
b_1 = 2
gamma = 0.55
Lx = 3500 Ly = 3500 Lz = 3500
nx = 700 ny = 700 nz = 700
xoffset = -685.467585 yoffset = -31.7331281 zoffset = 572.489161
bins = 400 dk = 0.001
kx_ny = 0.628318531 ky_ny = 0.628318531 kz_ny = 0.628318531
############################
A(data) = 8.00125998 (not used)
A(ran) = 8.00124053 (used)
Ngal = 475820
weighted Ngal = 0
Nran = 23820508
weighted Nran = 0
SN(data) = 3483.72067
SN(ran) = 69.6937068
SN(data+ran) = 3553.41438
############################
13 columns: k_central k_mean P_0(k) sigma^{lin}_{P_0(k)} P^img_1(k) sigma^{lin}_{P_1(k)} P_2(k) sigma^{lin}_{P_2(k)} P^img_3(k) sigma^{lin}_{P_3(k)} P_4(k) sigma^{lin}_{P_4(k)} N_modes
### header ###
0.00050000 0 0 0 0 0 0 0 0 0 0 0 0
0.00150000 0.00179520 2018.89449046 0 -269.72404705 0 -4255.22729570 0 5579.58806726 0 -8636.90054084 0 3
0.00250000 0.00253879 9412.24008626 0 -3043.51635685 0 33453.59003731 0 4749.67303281 0 9349.57072779 0 6
0.00350000 0.00331552 21682.82296911 0 -20997.99967907 0 23262.40082773 0 19271.82423985 0 22553.43986960 0 7
0.00450000 0.00420575 39219.17101688 0 -21812.92278573 0 45524.19566161 0 29439.42939756 0 14841.89780315 0 24
0.00550000 0.00557378 69930.14619661 0 -18167.91345543 0 45045.98195269 0 31344.75505235 0 -5924.67921488 0 45
0.00650000 0.00659388 88328.80690126 0 608.14411897 0 20308.19384287 0 30498.27581997 0 -5299.94543164 0 40
0.00750000 0.00754703 89561.71026982 0 16676.80347210 0 37458.33920097 0 -11918.25043479 0 1009.66758449 0 57
0.00850000 0.00846663 69596.31560333 0 24178.52498323 0 28886.92038911 0 -7875.29067819 0 20067.81367106 0 75
0.00950000 0.00948925 65648.25674275 0 15197.87304607 0 56692.40681318 0 7905.93887328 0 16122.07999869 0 112
0.01050000 0.01054430 49667.12743900 0 7828.36616560 0 33079.12401195 0 8690.83383503 0 5782.57699816 0 105
0.01150000 0.01145670 59960.84637640 0 -4819.09650942 0 49982.68869633 0 25447.85630044 0 -13942.71430463 0 144
0.01250000 0.01249090 62239.19865433 0 -12976.21107121 0 32228.76946587 0 17089.24757160 0 10414.85017092 0 169
0.01350000 0.01339930 78028.55529222 0 -10349.78919028 0 43698.70146876 0 24122.27757315 0 3643.90209782 0 180
0.01450000 0.01448870 77114.86704819 0 -5519.64250069 0 28142.41726831 0 24383.69516212 0 6615.22689685 0 267
0.01550000 0.01550050 84255.74149347 0 4213.21889534 0 21258.86365180 0 28658.83049785 0 3516.47071148 0 238
0.01650000 0.01653350 75064.71538476 0 3997.53000787 0 17584.73410723 0 857.04998089 0 11132.55826566 0 315
0.01750000 0.01747870 72710.62840507 0 2156.99959792 0 11671.44831458 0 -4129.10244369 0 -8069.41067691 0 297
0.01850000 0.01844180 76361.72751402 0 -4194.40701547 0 11280.81669498 0 -9983.27309413 0 -4082.98621082 0 388
0.01950000 0.01947590 82677.82448357 0 -6733.65648311 0 17881.69385887 0 -10896.70667470 0 -5037.53133344 0 399
0.02050000 0.02045430 86590.78407448 0 -4251.23018644 0 21917.66697851 0 -16445.39188339 0 -28817.38618925 0 462
0.02150000 0.02154770 87689.49086623 0 2236.24422665 0 16943.86794673 0 -9012.87240238 0 -26869.09991416 0 571
0.02250000 0.02255340 88476.40099109 0 5590.50537953 0 15984.22955469 0 1629.48082659 0 -22015.32488341 0 510
0.02350000 0.02348930 86655.77862116 0 3680.99438596 0 33215.31360722 0 -5783.16383138 0 -21787.12426890 0 555
0.02450000 0.02439640 78064.54034788 0 6505.89876159 0 30967.41022253 0 5813.64594160 0 -23754.56566592 0 592
0.02550000 0.02547300 80596.33814091 0 6881.67132129 0 39771.12640909 0 -229.33995674 0 -17860.87788821 0 837
0.02650000 0.02652900 69991.70832261 0 7924.82825942 0 36338.59499206 0 1734.55718911 0 1860.25022046 0 723
0.02750000 0.02749970 69919.73821128 0 3079.56784646 0 40248.78650176 0 5569.56761330 0 -6341.26436386 0 826
0.02850000 0.02848090 67645.15052379 0 2584.46884219 0 39729.05157478 0 8107.42196801 0 323.27202434 0 831
0.02950000 0.02946900 67109.02855607 0 1450.05380290 0 36897.85811865 0 8727.99255712 0 -5784.35964246 0 996
0.03050000 0.03053250 61598.77538682 0 2109.58790305 0 29759.08741508 0 5727.86864123 0 -1672.10927714 0 1041
0.03150000 0.03150510 62760.15153705 0 1400.31691981 0 26462.19197708 0 11314.03366944 0 -1049.23343000 0 1036
0.03250000 0.03246190 62000.03643825 0 -258.68604644 0 21320.86867079 0 8508.18476482 0 -164.23911573 0 1059
0.03350000 0.03345080 58477.37629720 0 503.40767681 0 17320.65916030 0 3327.90901982 0 -5757.25459130 0 1302
0.03450000 0.03451200 56947.84534675 0 3300.59359449 0 16834.91627051 0 1355.90582497 0 -6491.29436515 0 1339
0.03550000 0.03553350 54237.22950790 0 3357.25068059 0 18167.58128568 0 -4710.01196530 0 -9437.61785475 0 1365
0.03650000 0.03647120 49509.78970333 0 5031.59656734 0 17269.94791264 0 495.32045076 0 -3428.36822290 0 1308
0.03750000 0.03744890 48838.91754257 0 488.59954960 0 13877.49831145 0 2106.05583143 0 -178.72171660 0 1579
0.03850000 0.03847530 48276.99705802 0 -1397.20559654 0 14291.38181317 0 9308.21559459 0 781.63526932 0 1662
0.03950000 0.03950240 49295.31877159 0 -537.93340006 0 15296.19529046 0 973.32489274 0 -2285.75966324 0 1683
0.04050000 0.04050350 48783.44519523 0 2039.16791720 0 13675.31766026 0 1827.65329619 0 -2367.19661228 0 1822
0.04150000 0.04152450 46603.85805468 0 2940.63231464 0 19372.47167245 0 -1851.92383219 0 4297.40178094 0 1887
0.04250000 0.04250150 44571.31138772 0 2105.43578124 0 16571.39493983 0 -2861.86379588 0 -1562.54862306 0 1920
0.04350000 0.04349210 43638.91091474 0 2532.58392809 0 21746.48883681 0 -2204.98705368 0 -1663.25141728 0 2005
0.04450000 0.04448520 41138.89069394 0 2197.83433185 0 16058.19268448 0 -559.38160047 0 -565.02405719 0 2151
0.04550000 0.04548030 40381.65439959 0 -15.64408774 0 20654.20399345 0 1761.57366167 0 -4186.27992906 0 2274
0.04650000 0.04648670 41055.07319506 0 464.34783655 0 16872.00855865 0 2394.04699996 0 -8201.37064409 0 2311
0.04750000 0.04749250 38830.53241574 0 1056.76482534 0 16449.71009007 0 4174.97508542 0 -6130.19263584 0 2568
0.04850000 0.04851840 37848.30648108 0 1124.08456024 0 11434.83273321 0 3064.29911053 0 -1868.46588547 0 2493
0.04950000 0.04949480 38032.21779632 0 -1324.41613318 0 11456.53448985 0 4135.73476626 0 64.75615953 0 2644
0.05050000 0.05050630 39408.06487829 0 -1526.68536297 0 10256.99203598 0 2111.83558499 0 -2736.22612616 0 2829
0.05150000 0.05149060 40126.99092876 0 24.03292391 0 12989.94075399 0 462.19426937 0 1526.18710835 0 2784
0.05250000 0.05249300 39205.44133410 0 1316.44405931 0 12527.67119281 0 -3596.51254759 0 -145.34197896 0 3055
0.05350000 0.05348950 39062.05472770 0 1518.19288983 0 14756.64090205 0 -2461.14528836 0 3036.51864756 0 3009
0.05450000 0.05448610 37339.20098592 0 2059.83994764 0 14174.12589334 0 -1000.28378921 0 1098.83190902 0 3336
0.05550000 0.05550870 36870.84164609 0 477.65787821 0 14694.41443657 0 2379.48689283 0 -1640.17669236 0 3349
0.05650000 0.05647670 36861.87306299 0 -509.10217346 0 13939.72477693 0 2392.56330844 0 -1869.42917773 0 3324
0.05750000 0.05747970 36037.31703374 0 684.57305549 0 12629.86875089 0 1822.96970279 0 -4028.52144504 0 3639
0.05850000 0.05849280 34970.49853747 0 691.97158294 0 12331.13742728 0 1465.92044436 0 -636.49923559 0 3846
0.05950000 0.05951020 34779.27948785 0 727.88909742 0 11546.10959764 0 823.45101123 0 -2232.44641923 0 3787
0.06050000 0.06049470 34441.01996464 0 1260.71704850 0 13258.22318434 0 -7.65601436 0 -1559.11620236 0 3930
0.06150000 0.06148310 33618.34623061 0 1730.08396989 0 12759.52567451 0 -475.00162749 0 -929.70989805 0 4083
0.06250000 0.06249100 32534.25490762 0 2173.14304751 0 13359.86712618 0 16.49953555 0 1689.94679242 0 4303
0.06350000 0.06350600 31289.50415151 0 -297.23766699 0 14234.91295660 0 1148.70941064 0 1315.93473237 0 4470
0.06450000 0.06451750 31699.51233954 0 -346.64348756 0 14218.08302287 0 1810.81229014 0 1409.90555311 0 4479
0.06550000 0.06550280 31327.03933264 0 577.12942992 0 13782.94065750 0 1657.54917000 0 202.56707532 0 4636
0.06650000 0.06648880 30541.45788676 0 919.96735944 0 14233.58427762 0 -366.20939275 0 1780.78414523 0 4653
0.06750000 0.06749660 29271.68367656 0 1277.67985012 0 13198.43263032 0 1063.16352185 0 3558.08050815 0 5220
0.06850000 0.06852730 29285.30263609 0 534.23967250 0 12268.13589906 0 1032.48875318 0 3990.23334582 0 5029
0.06950000 0.06949320 28264.76645755 0 -702.95532916 0 11723.26679473 0 2491.63847091 0 3372.12081282 0 5040
0.07050000 0.07048030 29768.05599818 0 -1391.99053155 0 10650.20350726 0 2129.34093052 0 1579.30105051 0 5475
0.07150000 0.07148790 29895.94134983 0 -403.29946643 0 8990.96027156 0 2354.52987269 0 1480.38090058 0 5509
0.07250000 0.07249820 30526.73169475 0 120.13250982 0 7924.72860850 0 205.99838879 0 386.99436090 0 5916
0.07350000 0.07351270 29749.45449248 0 426.86248087 0 7949.43096517 0 -1272.22119399 0 153.45356413 0 5721
0.07450000 0.07449140 29053.66960088 0 1167.65415840 0 6456.15080618 0 -1228.08690726 0 -1635.20521852 0 6028
0.07550000 0.07549160 28327.65726252 0 1367.48747673 0 7391.51866221 0 -1954.96288695 0 -3924.27550687 0 6183
0.07650000 0.07648840 26982.36979706 0 831.28578827 0 8505.51633454 0 -1592.23352590 0 -3894.72347193 0 6330
0.07750000 0.07749960 26088.94390744 0 1177.65246771 0 8596.88515894 0 -319.83074578 0 -4391.85978397 0 6583
0.07850000 0.07848650 25380.75801204 0 938.63529908 0 8630.51180942 0 1066.89600255 0 -2648.24543315 0 6549
0.07950000 0.07947320 24363.10063796 0 29.26027918 0 7270.57565822 0 2257.07126963 0 -4219.89550721 0 6828
0.08050000 0.08048110 24761.92577792 0 -88.52445488 0 7209.07996617 0 2374.51541898 0 -3123.89036271 0 7147
0.08150000 0.08149960 23993.50643551 0 659.19307254 0 7006.61143454 0 1092.64469392 0 -2810.41070244 0 7386
0.08250000 0.08250610 24105.66908592 0 904.95882315 0 7224.95767996 0 -170.44515379 0 -736.23209417 0 7227
0.08350000 0.08350160 23311.22978019 0 199.55429574 0 8021.23499162 0 -620.91050948 0 -96.33498353 0 7798
0.08450000 0.08449610 23048.26206574 0 926.39041507 0 9001.42361852 0 -444.10098338 0 1731.97733743 0 7371
0.08550000 0.08548940 22846.19213780 0 1046.37344850 0 9291.30815459 0 -103.91022528 0 2015.49528674 0 8256
0.08650000 0.08650700 22207.09754927 0 572.46465947 0 9537.51236926 0 710.85543291 0 2125.94172680 0 8037
0.08750000 0.08749060 21267.50006516 0 552.70166690 0 9437.59571010 0 1312.76804747 0 3912.20667282 0 8155
0.08850000 0.08849210 21217.45315698 0 370.40801832 0 8758.06499133 0 1965.38194461 0 1790.84888849 0 8718
0.08950000 0.08949900 20637.70622947 0 -59.35375081 0 7702.89458076 0 1323.41962395 0 2554.76179471 0 8571
0.09050000 0.09049190 20468.96399924 0 166.88983029 0 7524.94017627 0 1347.78981087 0 1896.62280749 0 8932
0.09150000 0.09150830 20081.65407708 0 142.14539879 0 6403.93372233 0 442.09689259 0 3098.66760677 0 9285
0.09250000 0.09250820 20067.03860832 0 492.69520255 0 6287.36428664 0 1067.26692543 0 3316.77026105 0 9204
0.09350000 0.09350330 19922.87693918 0 458.27466638 0 5914.26015723 0 155.82193441 0 2931.34263411 0 9349
0.09450000 0.09448040 19083.70544118 0 703.78353905 0 5362.08331852 0 334.39638908 0 3544.01865563 0 9564
0.09550000 0.09549270 18545.70117824 0 100.67610992 0 5566.96561697 0 704.31943957 0 3260.87716537 0 10155
0.09650000 0.09649430 18653.21345223 0 288.51488950 0 5827.26490113 0 -230.05079999 0 2910.60416973 0 9913
0.09750000 0.09749140 18339.97738311 0 375.21783622 0 5708.99032742 0 -252.02715029 0 1958.39530765 0 10476
0.09850000 0.09850240 17954.77120267 0 570.31441399 0 5477.25764129 0 -134.00834728 0 2618.18407127 0 10575
0.09950000 0.09950330 17509.55302171 0 -4.94457917 0 4885.79619413 0 313.40769015 0 2432.51225638 0 10882
0.10050000 0.10051200 17823.56415357 0 -546.48234205 0 5298.58353569 0 572.08820043 0 2063.16164508 0 10875
0.10150000 0.10150300 17835.30081788 0 171.81701484 0 4964.12181989 0 935.97794113 0 1002.69423432 0 11118
0.10250000 0.10250800 17508.22434273 0 747.55133183 0 4924.07322102 0 -228.65125813 0 1053.94691867 0 11575
0.10350000 0.10349800 17063.11688502 0 670.77583154 0 5262.27738261 0 -740.96108410 0 1274.55745452 0 11364
0.10450000 0.10450100 16292.48307765 0 543.58471465 0 5574.38407460 0 -692.13434611 0 1181.77137254 0 12093
0.10550000 0.10551000 16327.47162407 0 163.11527476 0 5834.97123920 0 -198.48249470 0 1054.24365698 0 12067
0.10650000 0.10649700 16161.27602854 0 -167.22864343 0 5544.48879759 0 433.13827458 0 792.18387317 0 12054
0.10750000 0.10749900 16409.84972072 0 227.55731244 0 5741.10006939 0 726.37883231 0 314.93013482 0 12807
0.10850000 0.10850100 16170.24461165 0 400.83476692 0 5035.01791571 0 224.85123625 0 33.61524598 0 12736
0.10950000 0.10950300 15782.04890351 0 450.65912137 0 4749.14156121 0 272.17103083 0 221.34241652 0 12933
0.11050000 0.11050200 15278.14740101 0 275.76510747 0 4320.67580771 0 -13.89521403 0 261.88927001 0 13428
0.11150000 0.11150900 15543.99391990 0 -348.82916448 0 4677.83578938 0 26.69028187 0 -476.45320927 0 13453
0.11250000 0.11250000 15473.13104107 0 286.62041472 0 4987.39584666 0 -229.30784699 0 -935.67013050 0 13668
0.11350000 0.11349100 15491.40037702 0 413.47271847 0 4758.38695244 0 -362.98956069 0 -965.37828522 0 13791
0.11450000 0.11448600 14831.15764808 0 415.58421081 0 5501.33994777 0 -266.33702289 0 -422.30400475 0 14205
0.11550000 0.11549300 14645.03186788 0 456.08345330 0 4916.21187040 0 155.75882215 0 -242.85483641 0 14776
0.11650000 0.11649800 14451.48763005 0 -156.02012902 0 5557.50985157 0 511.63662861 0 -601.70777655 0 14553
0.11750000 0.11747300 14318.61973223 0 264.08601925 0 4859.64336290 0 920.84096587 0 -582.83389166 0 14568
0.11850000 0.11849100 14160.72838031 0 468.66272153 0 4943.12869204 0 354.82925730 0 -169.43314330 0 16015
0.11950000 0.11950300 13584.30315025 0 285.43235427 0 4098.80856299 0 259.18208659 0 609.66545640 0 15270
0.12050000 0.12050700 13826.67634053 0 -178.24339216 0 3980.26825348 0 655.09077620 0 484.65558750 0 15999
0.12150000 0.12150000 13706.98450924 0 -241.85168378 0 3425.38976752 0 660.04785602 0 711.60835100 0 15670
0.12250000 0.12250700 13935.73874000 0 236.32327200 0 3982.08411475 0 -152.49137910 0 -5.97832463 0 16887
0.12350000 0.12352200 13597.92210978 0 393.51374575 0 3266.01472408 0 84.27545023 0 441.85662314 0 16407
0.12450000 0.12449800 13391.53397516 0 222.73310052 0 3550.98314794 0 178.82911815 0 747.27341648 0 16306
0.12550000 0.12549900 13083.16972896 0 193.64942492 0 3511.72068413 0 -54.83203480 0 600.29716237 0 17523
0.12650000 0.12650100 12952.95918909 0 222.05768870 0 4016.24223682 0 468.29290588 0 248.72206133 0 17154
0.12750000 0.12750600 12768.38353437 0 63.48284218 0 3635.85251767 0 751.41335873 0 818.76852506 0 18007
0.12850000 0.12850300 12463.56243211 0 93.67408243 0 3211.61639225 0 644.33290540 0 1366.69026934 0 17496
0.12950000 0.12949900 12571.62832234 0 209.60685944 0 3017.82856327 0 280.26157858 0 1022.12505715 0 18405
0.13050000 0.13049000 12419.93747232 0 152.40612220 0 3037.02797451 0 253.06794882 0 1607.66834669 0 18100
0.13150000 0.13148800 12233.92241537 0 179.94853019 0 3149.62244559 0 10.88674158 0 1281.21192174 0 19059
0.13250000 0.13249300 12321.72595118 0 125.32100123 0 3113.88098107 0 -555.56497010 0 1580.38613834 0 18957
0.13350000 0.13349100 12146.00815631 0 144.79832782 0 3143.57695624 0 -214.62040812 0 1521.28206846 0 19468
0.13450000 0.13450700 12066.06597112 0 191.61876054 0 3303.90421961 0 -63.30269545 0 1396.34195520 0 19953
0.13550000 0.13551000 12126.85303437 0 111.73082974 0 3202.03883128 0 413.85139198 0 1619.62645750 0 19956
0.13650000 0.13649900 11730.35308262 0 86.13360778 0 3165.83232912 0 345.59272394 0 981.05558993 0 19723
0.13750000 0.13749600 11817.27083244 0 12.57838244 0 2966.02115544 0 420.50475196 0 641.82059490 0 20946
0.13850000 0.13851100 11680.08472794 0 39.21119894 0 2764.79272419 0 -131.06643058 0 378.68679559 0 20955
0.13950000 0.13949800 11678.53460247 0 126.64968021 0 2835.71096465 0 -84.42404083 0 124.16394328 0 20506
0.14050000 0.14048300 11621.95502264 0 60.30741014 0 2605.10765566 0 -186.50777541 0 168.94485378 0 21447
0.14150000 0.14148400 11522.19337603 0 258.42473957 0 3104.66880682 0 -43.85925018 0 380.10958933 0 21771
0.14250000 0.14249400 11367.84516806 0 256.80596568 0 2969.85217983 0 -99.12786674 0 172.43927949 0 22470
0.14350000 0.14350900 11211.61466486 0 249.60341839 0 3378.03343427 0 28.90862215 0 -92.27454057 0 22519
0.14450000 0.14449900 10899.71834705 0 399.99216300 0 3344.41785612 0 -126.73715157 0 246.66260891 0 22218
0.14550000 0.14550500 10703.29530477 0 254.44202433 0 3417.19624715 0 94.17433007 0 818.00896358 0 23559
0.14650000 0.14650700 10675.89130084 0 -100.95834348 0 3232.39914593 0 387.53911928 0 930.63443717 0 23044
0.14750000 0.14750500 10608.32797480 0 75.65099498 0 3218.16013621 0 577.12278652 0 510.31127133 0 23649
0.14850000 0.14849900 10734.56355005 0 45.86699484 0 2857.32414270 0 286.23731228 0 498.56353470 0 23640
0.14950000 0.14949500 10377.83538905 0 164.13060695 0 2502.19039647 0 152.91102021 0 308.98318916 0 24457
0.15050000 0.15050000 10168.38022045 0 181.05133374 0 2566.12199997 0 -69.64901987 0 359.37223217 0 24591
0.15150000 0.15149900 10122.59615733 0 94.13856646 0 2386.61747001 0 -46.50321062 0 26.92512588 0 25020
0.15250000 0.15250500 10097.66128184 0 100.43019359 0 2957.65047788 0 -7.06901506 0 237.00200551 0 25297
0.15350000 0.15350100 9979.51957602 0 222.71649203 0 2466.39357033 0 206.98161123 0 272.19096102 0 25452
0.15450000 0.15450400 9834.67142274 0 124.26691590 0 2762.54504225 0 82.46999695 0 85.30019389 0 26061
0.15550000 0.15549900 9709.86417739 0 61.68370012 0 2510.19568731 0 168.77212551 0 594.04240608 0 26128
0.15650000 0.15649500 9900.14207940 0 74.85688785 0 2564.25077708 0 44.29616412 0 119.29322760 0 26331
0.15750000 0.15749700 9642.55551481 0 83.72072676 0 2536.53674805 0 225.30741604 0 618.46241847 0 27345
0.15850000 0.15849900 9710.16313016 0 69.74402042 0 2499.27837504 0 -150.63787193 0 190.76176260 0 26980
0.15950000 0.15949700 9556.85572072 0 130.61357249 0 2410.40082372 0 -85.62583097 0 392.29025386 0 27777
0.16050000 0.16050000 9487.59832898 0 177.97433467 0 2442.85380776 0 -166.26645841 0 72.77794814 0 28224
0.16150000 0.16150500 9351.08763629 0 248.17841018 0 2471.12145303 0 86.46345234 0 397.90170808 0 28075
0.16250000 0.16249700 9040.37605723 0 156.45194969 0 2619.93349859 0 94.47140054 0 215.91476289 0 28590
0.16350000 0.16349900 9050.27471562 0 116.74105673 0 2682.79108658 0 207.94047456 0 36.33471968 0 29163
0.16450000 0.16449100 8906.12411880 0 261.97231244 0 2584.81208426 0 27.24334449 0 273.53514125 0 28996
0.16550000 0.16550500 8700.41139600 0 223.25017809 0 2634.08392971 0 -130.47516843 0 221.30255615 0 30777
0.16650000 0.16650700 8437.24437971 0 322.26665724 0 2698.74630665 0 -257.41605078 0 433.33979089 0 29211
0.16750000 0.16749900 8380.08903899 0 244.34960026 0 2910.57095275 0 -149.08442475 0 343.69714193 0 30922
0.16850000 0.16850800 8107.51054661 0 45.10610468 0 2817.82916007 0 105.51305502 0 474.38711346 0 30867
0.16950000 0.16949900 8174.48703944 0 -157.71530195 0 2781.42335607 0 315.69966139 0 -49.03954807 0 30852
0.17050000 0.17049200 8257.52947557 0 -141.03927354 0 2588.29986658 0 294.86929671 0 -173.10694068 0 31257
0.17150000 0.17149500 8383.04534972 0 37.81730397 0 2567.94893356 0 -31.70969888 0 -731.20193700 0 32608
0.17250000 0.17250900 8266.46484170 0 275.80386061 0 2417.83035367 0 -253.61824337 0 -428.80235218 0 32361
0.17350000 0.17350400 8122.00421979 0 263.78485201 0 2308.04825310 0 -194.24400876 0 -306.97688390 0 32508
0.17450000 0.17449800 7944.08303228 0 94.83900172 0 2349.46982024 0 41.30874016 0 -189.95569736 0 32791
0.17550000 0.17549800 8016.00885431 0 24.12316336 0 2307.35069663 0 331.33378404 0 -471.83715705 0 33633
0.17650000 0.17650100 7942.57719611 0 -23.89385551 0 2181.59123134 0 455.06258495 0 -562.22275901 0 33984
0.17750000 0.17750300 7907.50007108 0 47.62018675 0 2154.78513296 0 234.86836852 0 -397.22851073 0 34069
0.17850000 0.17849800 7842.35051185 0 145.86348546 0 2002.82854715 0 161.25955312 0 -19.41687169 0 34536
