### header ###
fiducial parameters:
Omega_m = 0.31
Omega_nu = 0
Omega_de = 0.69
Omega_k = 0
H_0 = 100
w_de = -1
zeff = 0
beta = 0
fgrowth = 0
b_1 = 2
gamma = 0.55
Lx = 3500 Ly = 3500 Lz = 3500
nx = 700 ny = 700 nz = 700
xoffset = -685.467585 yoffset = -31.7331281 zoffset = 572.489161
bins = 400 dk = 0.001
kx_ny = 0.628318531 ky_ny = 0.628318531 kz_ny = 0.628318531
############################
A(data) = 8.03923513 (not used)
A(ran) = 8.04377657 (used)
Ngal = 477785
weighted Ngal = 0
Nran = 23820508
weighted Nran = 0
SN(data) = 3480.06091
SN(ran) = 70.0642112
SN(data+ran) = 3550.12512
############################
13 columns: k_central k_mean P_0(k) sigma^{lin}_{P_0(k)} P^img_1(k) sigma^{lin}_{P_1(k)} P_2(k) sigma^{lin}_{P_2(k)} P^img_3(k) sigma^{lin}_{P_3(k)} P_4(k) sigma^{lin}_{P_4(k)} N_modes
### header ###
0.00050000 0 0 0 0 0 0 0 0 0 0 0 0
0.00150000 0.00179520 79800.34870970 0 -62930.33316951 0 13361.30652841 0 126127.06647416 0 -209818.34084838 0 3
0.00250000 0.00253879 122240.68046282 0 -43683.31093726 0 11587.96298545 0 25193.41427611 0 195083.29097973 0 6
0.00350000 0.00331552 104935.30111076 0 7021.86909814 0 9236.24548327 0 -119977.49726989 0 -13253.01919168 0 7
0.00450000 0.00420575 87421.54060562 0 28044.75936340 0 -26327.88467703 0 -29270.46572083 0 31401.44535543 0 24
0.00550000 0.00557378 68709.09021561 0 -5015.38668380 0 -28208.96194047 0 -24789.38514347 0 -10003.51330390 0 45
0.00650000 0.00659388 85256.23676409 0 6607.93023479 0 -23666.54068362 0 -45020.62632886 0 -8272.12279969 0 40
0.00750000 0.00754703 67615.36597003 0 9889.95554056 0 2603.98935085 0 -56161.59956138 0 -26837.65451168 0 57
0.00850000 0.00846663 77736.35664026 0 2480.82080957 0 549.71767536 0 -34890.77779877 0 -14765.60948515 0 75
0.00950000 0.00948925 65804.81941568 0 2927.86592412 0 15346.24219864 0 -14310.75838160 0 -3738.91371709 0 112
0.01050000 0.01054430 66829.56307765 0 1571.35112129 0 10359.28924498 0 17585.06627697 0 -23608.74314806 0 105
0.01150000 0.01145670 70623.38445351 0 -6782.37471231 0 14896.59508776 0 33362.24335756 0 -5578.73549825 0 144
0.01250000 0.01249090 73976.30585509 0 -4169.60500788 0 2271.06668820 0 17326.41676921 0 -22964.00167387 0 169
0.01350000 0.01339930 76209.92594076 0 -6455.03250137 0 -179.29637025 0 19740.84791916 0 -1777.92748543 0 180
0.01450000 0.01448870 73737.58653200 0 6794.95287331 0 -6650.31509420 0 -9917.89101608 0 -6753.97419915 0 267
0.01550000 0.01550050 69458.35443609 0 -3423.00921768 0 -1597.60360343 0 -16807.56762821 0 7857.88498357 0 238
0.01650000 0.01653350 74869.39957496 0 -1960.58762796 0 4443.51217924 0 -17499.92009912 0 -16837.46290522 0 315
0.01750000 0.01747870 75512.03730744 0 -1103.77348759 0 21607.08826735 0 -22176.31648627 0 3687.62670853 0 297
0.01850000 0.01844180 79183.39877080 0 856.68791587 0 23958.07499609 0 -11319.01621561 0 -12412.96190769 0 388
0.01950000 0.01947590 84509.18700857 0 2529.97085944 0 35112.88863464 0 -16349.83772021 0 -17967.06148322 0 399
0.02050000 0.02045430 82365.14203069 0 5676.95809172 0 42988.74400139 0 -411.15970982 0 -14841.12274042 0 462
0.02150000 0.02154770 73387.70106773 0 8376.78948620 0 51929.42484595 0 1692.57093340 0 -6971.68932206 0 571
0.02250000 0.02255340 71361.68707242 0 6320.81377992 0 55078.28330112 0 22012.55680221 0 16008.58866930 0 510
0.02350000 0.02348930 68967.85044663 0 -727.47388523 0 51068.66231455 0 20327.34896481 0 -5875.91669638 0 555
0.02450000 0.02439640 63020.01900054 0 2911.95499336 0 37235.12113263 0 14751.54763263 0 8715.12651568 0 592
0.02550000 0.02547300 63608.62378790 0 2839.64163996 0 35144.88765336 0 11941.28087041 0 5051.30530551 0 837
0.02650000 0.02652900 62623.29760229 0 -1267.20543084 0 29638.28835130 0 7929.14646610 0 8857.95950584 0 723
0.02750000 0.02749970 60972.96758807 0 633.78540878 0 26153.49556113 0 2211.71902717 0 -4590.28691704 0 826
0.02850000 0.02848090 58052.86336365 0 3988.40641222 0 25362.59939934 0 2160.00019795 0 7391.82868730 0 831
0.02950000 0.02946900 59303.70389841 0 526.87436203 0 20531.52263446 0 80.24645268 0 -9474.09009270 0 996
0.03050000 0.03053250 57070.74815224 0 -986.98592710 0 20542.04134304 0 2262.17561137 0 -2833.64043991 0 1041
0.03150000 0.03150510 58628.51353097 0 614.15639134 0 22401.52757309 0 -1660.16223866 0 -5487.52168639 0 1036
0.03250000 0.03246190 58896.02089859 0 3964.95522826 0 19286.99332485 0 5863.78142838 0 -1551.64238311 0 1059
0.03350000 0.03345080 56150.30579006 0 -571.93318788 0 13194.55731664 0 8356.69321665 0 -611.82788143 0 1302
0.03450000 0.03451200 55556.49701004 0 -1572.05975008 0 9202.36416932 0 7537.45190332 0 -4250.55477463 0 1339
0.03550000 0.03553350 57630.89706481 0 -644.18453625 0 8812.83978220 0 44.42903201 0 -5062.74301705 0 1365
0.03650000 0.03647120 56283.06296464 0 3044.51286608 0 11595.60288958 0 238.34175681 0 -2685.37093827 0 1308
0.03750000 0.03744890 51464.38720356 0 4540.39502141 0 11855.02746008 0 -1963.58822799 0 2492.32495505 0 1579
0.03850000 0.03847530 48355.38911774 0 5412.44025180 0 13406.03872067 0 -330.43249680 0 6042.20087051 0 1662
0.03950000 0.03950240 45607.45954425 0 1626.98955350 0 17852.57364459 0 913.94955090 0 5487.32238455 0 1683
0.04050000 0.04050350 45362.09682626 0 -1335.59918125 0 17238.28106365 0 6041.58082032 0 10212.91311087 0 1822
0.04150000 0.04152450 45998.42333359 0 -2391.52250990 0 15453.31157964 0 2944.83979807 0 7139.23574122 0 1887
0.04250000 0.04250150 46397.02702706 0 730.01387655 0 14996.02456463 0 817.79526771 0 11618.52260195 0 1920
0.04350000 0.04349210 48109.58350676 0 2851.06827918 0 20839.99760391 0 -1326.35379003 0 4501.98512661 0 2005
0.04450000 0.04448520 41660.39719289 0 4527.00858070 0 16742.01946528 0 -2568.27003098 0 10355.36964199 0 2151
0.04550000 0.04548030 41413.92724243 0 3386.68091995 0 17135.41916609 0 -2242.11255880 0 6579.26398584 0 2274
0.04650000 0.04648670 38725.56677646 0 314.61789526 0 16899.46792420 0 1206.80589896 0 6039.38850001 0 2311
0.04750000 0.04749250 39538.71831115 0 -332.23617851 0 19268.05964941 0 318.79659064 0 32.77817822 0 2568
0.04850000 0.04851840 39322.03291444 0 412.19940112 0 16769.03593784 0 -1235.29499072 0 -1635.14985689 0 2493
0.04950000 0.04949480 38805.95185465 0 1730.08396989 0 17819.46739338 0 -2067.97810638 0 -986.89181234 0 2644
0.05050000 0.05050630 38113.15649074 0 -5.61180853 0 18492.00040287 0 1008.93791829 0 -1064.11906349 0 2829
0.05150000 0.05149060 38378.67083990 0 -644.80237198 0 19339.36542124 0 5122.54464340 0 242.73857700 0 2784
0.05250000 0.05249300 37276.08873445 0 1164.29924398 0 15158.23412322 0 5265.65444168 0 -1431.90626252 0 3055
0.05350000 0.05348950 36221.00690249 0 817.66239981 0 13867.86538886 0 5294.14353344 0 429.51983883 0 3009
0.05450000 0.05448610 35190.61635486 0 873.28090184 0 11516.65721362 0 3238.52214156 0 1942.92726988 0 3336
0.05550000 0.05550870 34597.36119108 0 628.22378003 0 11641.66376082 0 1656.25370800 0 2485.22759484 0 3349
0.05650000 0.05647670 34326.19995627 0 435.67937313 0 9955.42619722 0 -1314.81642756 0 2046.57530250 0 3324
0.05750000 0.05747970 33546.04394955 0 703.01179801 0 10578.13374502 0 -2387.94614899 0 1220.56879871 0 3639
0.05850000 0.05849280 33305.33160799 0 1311.32864525 0 13414.45368753 0 -2031.16262636 0 871.81824773 0 3846
0.05950000 0.05951020 32780.61413484 0 776.24526160 0 12748.67479619 0 -1641.76003481 0 -109.31684149 0 3787
0.06050000 0.06049470 32423.53165943 0 -16.31617785 0 13427.18686108 0 1558.73974332 0 950.70191867 0 3930
0.06150000 0.06148310 32355.21541530 0 -252.39918040 0 12906.12325511 0 2354.92847638 0 -1977.88259933 0 4083
0.06250000 0.06249100 33070.48759859 0 -827.77253960 0 11851.15214639 0 2511.94511463 0 -2483.96534982 0 4303
0.06350000 0.06350600 31781.11537346 0 502.72894330 0 10822.72140026 0 -272.45005342 0 -3183.19373444 0 4470
0.06450000 0.06451750 31497.33168835 0 1880.23576675 0 10663.86675609 0 -52.49223112 0 -2231.15095723 0 4479
0.06550000 0.06550280 31446.17754769 0 265.03602472 0 12054.66147656 0 200.46222638 0 -53.31069737 0 4636
0.06650000 0.06648880 30263.43181057 0 -147.52322695 0 10741.45053609 0 178.85679896 0 2072.00843261 0 4653
0.06750000 0.06749660 31032.84766221 0 -245.80118204 0 11311.59775798 0 2620.17708973 0 939.27527946 0 5220
0.06850000 0.06852730 31504.63942274 0 -385.84837528 0 10758.44655469 0 1473.21710642 0 -1076.19675540 0 5029
0.06950000 0.06949320 30978.03965436 0 1831.88292427 0 10828.18005640 0 -833.04075175 0 859.06957294 0 5040
0.07050000 0.07048030 29631.97712616 0 1462.35515577 0 12222.51792081 0 -1913.24236704 0 940.84422788 0 5475
0.07150000 0.07148790 28776.41858742 0 1699.62400431 0 11594.16348735 0 -268.93348306 0 1984.26025842 0 5509
0.07250000 0.07249820 27826.63456448 0 165.69180475 0 12301.79576651 0 218.02293354 0 685.64707100 0 5916
0.07350000 0.07351270 27605.74168435 0 -95.17847920 0 11888.13371128 0 2126.27389655 0 330.13797296 0 5721
0.07450000 0.07449140 28033.02269910 0 152.53677563 0 11357.43718273 0 1370.87560812 0 -231.66957388 0 6028
0.07550000 0.07549160 27108.26213024 0 792.75077620 0 11152.93134333 0 836.17089798 0 405.85385176 0 6183
0.07650000 0.07648840 26806.31983244 0 989.40744454 0 10265.84989583 0 1808.18814916 0 1162.08477902 0 6330
0.07750000 0.07749960 25587.03542341 0 32.68760661 0 9523.84912043 0 518.25455716 0 1551.16627314 0 6583
0.07850000 0.07848650 26133.45465321 0 -186.41476788 0 9470.22585134 0 2027.82985659 0 424.62587126 0 6549
0.07950000 0.07947320 25979.66006148 0 -57.01671521 0 8196.65383372 0 748.93537243 0 -845.86804006 0 6828
0.08050000 0.08048110 25472.76903128 0 941.31147999 0 7778.95037994 0 -397.42891981 0 -266.81424008 0 7147
0.08150000 0.08149960 24176.31051827 0 1145.73095526 0 7426.65114886 0 -216.72747154 0 736.84107203 0 7386
0.08250000 0.08250610 23835.39363710 0 892.48031308 0 8219.82820957 0 427.80473572 0 216.44955618 0 7227
0.08350000 0.08350160 22628.62095512 0 995.89139795 0 7799.99886942 0 1366.47989517 0 -172.83788319 0 7798
0.08450000 0.08449610 22141.77083284 0 688.15938150 0 7782.89212757 0 -2.42605709 0 184.61219340 0 7371
0.08550000 0.08548940 21492.48970547 0 183.22704556 0 7636.02881118 0 -216.91791552 0 531.40847904 0 8256
0.08650000 0.08650700 21418.41585244 0 -137.89030436 0 8773.95377744 0 -156.37333618 0 978.32515463 0 8037
0.08750000 0.08749060 21840.38215128 0 -217.85131250 0 8642.68029439 0 357.19098418 0 1281.66588706 0 8155
0.08850000 0.08849210 21479.97797843 0 302.93437811 0 8163.81331831 0 320.21384822 0 666.87726597 0 8718
0.08950000 0.08949900 21678.72620892 0 360.75073661 0 8135.51245607 0 732.72438166 0 1275.83077188 0 8571
0.09050000 0.09049190 21303.59584407 0 390.90289156 0 7868.72478957 0 725.25499134 0 669.97640968 0 8932
0.09150000 0.09150830 20423.23529774 0 735.51128582 0 6988.34209859 0 841.89971884 0 2316.08676091 0 9285
0.09250000 0.09250820 20023.52437178 0 716.03506646 0 7197.75297788 0 1026.58609682 0 2107.50630598 0 9204
0.09350000 0.09350330 19631.12118021 0 494.03384662 0 6945.38147829 0 933.51213439 0 1727.71449238 0 9349
0.09450000 0.09448040 18787.29930578 0 563.42299902 0 6762.61061251 0 361.94322600 0 2534.88697166 0 9564
0.09550000 0.09549270 18621.54660325 0 496.14201726 0 6703.07472196 0 -423.94935221 0 2260.55905195 0 10155
0.09650000 0.09649430 18293.80578862 0 445.29568723 0 6647.96776134 0 -178.92323291 0 2466.77002937 0 9913
0.09750000 0.09749140 17864.08886240 0 152.08834648 0 7121.63074475 0 -180.38588702 0 1390.03073006 0 10476
0.09850000 0.09850240 18198.47307193 0 -149.38337752 0 6796.22619066 0 -23.30314698 0 1699.19218364 0 10575
0.09950000 0.09950330 18071.14133651 0 -121.16112879 0 6459.05175528 0 1097.25631720 0 271.08926470 0 10882
0.10050000 0.10051200 18135.69299021 0 211.63088042 0 6152.51444268 0 615.36548921 0 -387.59115921 0 10875
0.10150000 0.10150300 17381.11405381 0 812.53923512 0 5019.59416723 0 -109.34430085 0 -564.79264560 0 11118
0.10250000 0.10250800 17087.91889262 0 488.30059683 0 4785.75773939 0 -99.92142026 0 -1393.47422308 0 11575
0.10350000 0.10349800 16464.65772858 0 313.30914646 0 4741.66774196 0 491.32666320 0 -728.85460414 0 11364
0.10450000 0.10450100 16094.73135638 0 198.03849447 0 4181.17558732 0 587.26171436 0 -1663.20712798 0 12093
0.10550000 0.10551000 16144.77826456 0 78.70695663 0 4472.80955071 0 183.21265154 0 -2013.86765499 0 12067
0.10650000 0.10649700 16210.10498099 0 -1.36217276 0 4322.56917525 0 -335.77157182 0 -1192.22364717 0 12054
0.10750000 0.10749900 16104.58572547 0 362.50791456 0 4859.53263966 0 -343.47237373 0 -1065.74005184 0 12807
0.10850000 0.10850100 16045.01661795 0 369.44915499 0 5161.00989982 0 -392.56706198 0 -91.61972328 0 12736
0.10950000 0.10950300 15758.90774463 0 277.86220579 0 5756.91134923 0 -283.53234333 0 245.86540153 0 12933
0.11050000 0.11050200 15894.21155392 0 117.02782994 0 6543.56681062 0 26.07100674 0 1072.94149190 0 13428
0.11150000 0.11150900 15793.01050508 0 -147.40032415 0 6065.05414894 0 1133.90571235 0 548.42553506 0 13453
0.11250000 0.11250000 15911.26293414 0 -207.94047456 0 5936.69268731 0 761.39063062 0 1142.84107848 0 13668
0.11350000 0.11349100 15697.56706514 0 237.88225533 0 5503.75371458 0 886.75702838 0 -28.61398758 0 13791
0.11450000 0.11448600 15417.76941697 0 416.02156764 0 4677.03858199 0 329.19793258 0 547.89627793 0 14205
0.11550000 0.11549300 14919.29335364 0 396.23421596 0 4615.43216670 0 47.09192613 0 434.43484382 0 14776
0.11650000 0.11649800 14707.70122635 0 253.06019820 0 4171.69767727 0 638.97832912 0 263.83689194 0 14553
0.11750000 0.11747300 14544.71660502 0 220.59835629 0 4030.82448860 0 167.66600026 0 44.44165446 0 14568
0.11850000 0.11849100 14162.16778254 0 585.16683050 0 3975.01997152 0 -91.52505491 0 290.82568369 0 16015
0.11950000 0.11950300 13770.87182345 0 460.87334102 0 4421.58897610 0 -236.07414469 0 802.34162396 0 15270
0.12050000 0.12050700 13563.26573310 0 187.09017969 0 4225.18807847 0 588.90706183 0 1184.87162349 0 15999
0.12150000 0.12150000 13327.20376796 0 47.60911442 0 3979.01708078 0 429.60288127 0 1114.55128857 0 15670
0.12250000 0.12250700 13562.82284010 0 -182.06666592 0 3820.66069122 0 743.69816279 0 493.23885370 0 16887
0.12350000 0.12352200 13508.01483225 0 -118.98763143 0 3673.77523018 0 -107.80890157 0 206.32170067 0 16407
0.12450000 0.12449800 13353.88807078 0 339.17188277 0 3828.32274000 0 -390.00603325 0 152.11049113 0 16306
0.12550000 0.12549900 13260.43764931 0 315.70076862 0 3575.65228763 0 -476.45320927 0 -86.16372451 0 17523
0.12650000 0.12650100 13006.99213421 0 323.07272249 0 4172.77169278 0 -317.64839056 0 -400.13167430 0 17154
0.12750000 0.12750600 12839.24641321 0 147.40253861 0 4151.67891400 0 125.60445274 0 -483.88052476 0 18007
0.12850000 0.12850300 12808.79751995 0 28.52895213 0 4198.74736680 0 394.76934739 0 -515.20302444 0 17496
0.12950000 0.12949900 12843.56461989 0 -219.34718359 0 4126.51151969 0 318.73680009 0 -89.90052341 0 18405
0.13050000 0.13049000 12971.56069479 0 -38.58594476 0 3926.77785228 0 557.62552975 0 -293.38006902 0 18100
0.13150000 0.13148800 12829.39204412 0 55.42617575 0 3580.53518288 0 388.78697029 0 -108.09977154 0 19059
0.13250000 0.13249300 12880.32473828 0 224.23561499 0 3530.44398540 0 -62.39631494 0 30.20275547 0 18957
0.13350000 0.13349100 12820.42346101 0 132.61544882 0 3292.18969995 0 501.86530196 0 426.22914389 0 19468
0.13450000 0.13450700 12645.48072888 0 39.09084277 0 3370.05028808 0 246.68475356 0 506.66958370 0 19953
0.13550000 0.13551000 12580.37545895 0 244.09050786 0 3049.32932738 0 132.03968793 0 599.65164583 0 19956
0.13650000 0.13649900 12335.56635721 0 281.14847180 0 3331.85076745 0 175.76540587 0 166.73813944 0 19723
0.13750000 0.13749600 11977.15520283 0 312.14987405 0 2935.15151385 0 16.13326305 0 907.12899881 0 20946
0.13850000 0.13851100 11868.53569636 0 262.00885111 0 3064.88594375 0 338.47654078 0 808.10255456 0 20955
0.13950000 0.13949800 11583.20188578 0 144.90794383 0 2724.67769137 0 161.15325881 0 923.68101718 0 20506
0.14050000 0.14048300 11423.20679215 0 192.74260151 0 2778.37846674 0 260.48197752 0 -170.82825623 0 21447
0.14150000 0.14148400 11231.98774253 0 130.15849994 0 2426.73250283 0 -35.64125997 0 421.25102666 0 21771
0.14250000 0.14249400 11009.67760482 0 200.16659530 0 2624.83853848 0 -156.05334599 0 116.16086690 0 22470
0.14350000 0.14350900 11001.78303723 0 140.75250033 0 2744.43071885 0 -263.10833297 0 140.78461007 0 22519
0.14450000 0.14449900 10753.18720040 0 330.63179864 0 2731.59789438 0 -87.02227257 0 146.09711152 0 22218
0.14550000 0.14550500 10647.20290723 0 168.15761149 0 2749.62363919 0 319.40889021 0 256.81482354 0 23559
0.14650000 0.14650700 10506.46258646 0 67.62189864 0 2710.80406837 0 216.07974053 0 302.83583442 0 23044
0.14750000 0.14750500 10540.33282808 0 183.70758446 0 2903.03069955 0 293.21619861 0 170.49497925 0 23649
0.14850000 0.14849900 10445.00011140 0 158.28774114 0 3029.07804529 0 -68.34370350 0 774.54012357 0 23640
0.14950000 0.14949500 10144.15397375 0 161.62493984 0 2986.00670174 0 -92.89193341 0 1071.10570045 0 24457
0.15050000 0.15050000 10228.33685935 0 176.57811451 0 3268.36205694 0 171.37190738 0 1002.01550081 0 24591
0.15150000 0.15149900 9972.76545788 0 112.89896001 0 3327.66542867 0 159.27428528 0 1093.25699348 0 25020
0.15250000 0.15250500 10028.14922662 0 40.56988392 0 3031.25929328 0 337.76901922 0 1196.58614315 0 25297
0.15350000 0.15350100 9956.61093597 0 -6.09208169 0 2725.16487366 0 297.58755245 0 1126.63119495 0 25452
0.15450000 0.15450400 9929.81590991 0 44.73828205 0 2913.90372252 0 74.96617169 0 784.98686204 0 26061
0.15550000 0.15549900 9943.12484434 0 159.96187665 0 2678.86041127 0 -218.98068964 0 603.55906926 0 26128
0.15650000 0.15649500 9652.56489645 0 314.23368559 0 2817.39733940 0 -482.99141708 0 721.25456038 0 26331
0.15750000 0.15749700 9453.19661577 0 374.76719260 0 2969.86325216 0 -203.70088139 0 344.44895278 0 27345
0.15850000 0.15849900 9318.78966479 0 118.88908774 0 3012.72422153 0 -246.36144168 0 219.12020093 0 26980
0.15950000 0.15949700 9342.96054987 0 -8.42321574 0 3296.64077453 0 -19.42473305 0 -145.93988450 0 27777
0.16050000 0.16050000 9305.50287501 0 -41.52409687 0 3097.98112263 0 128.81985587 0 -314.54260345 0 28224
0.16150000 0.16150500 9333.58229075 0 -26.52607929 0 2890.41932158 0 62.69438193 0 -456.91941383 0 28075
0.16250000 0.16249700 9364.56265559 0 -7.99796096 0 2874.29801665 0 201.20296491 0 -446.45717410 0 28590
0.16350000 0.16349900 9213.89045946 0 149.22836498 0 2891.00615480 0 205.46580996 0 -976.11844029 0 29163
0.16450000 0.16449100 9178.21542889 0 205.77583506 0 2663.15985468 0 43.32279604 0 -364.86078359 0 28996
0.16550000 0.16550500 9037.69655462 0 20.85450235 0 2495.74630342 0 502.03360130 0 -362.01630334 0 30777
0.16650000 0.16650700 8948.75256935 0 -66.03578811 0 2324.21384733 0 418.96902051 0 -94.90942171 0 29211
0.16750000 0.16749900 9143.76942638 0 0.15552298 0 2275.29631628 0 390.92946514 0 -220.06245577 0 30922
0.16850000 0.16850800 8924.81420310 0 215.76528651 0 2281.03178054 0 -11.12170739 0 -56.15041651 0 30867
0.16950000 0.16949900 8730.31774533 0 293.47529102 0 2052.72044278 0 93.86640871 0 15.98910138 0 30852
0.17050000 0.17049200 8695.80530887 0 153.39155911 0 2132.10901173 0 -138.73844444 0 526.69056144 0 31257
0.17150000 0.17149500 8502.60431311 0 84.04481371 0 2214.60890395 0 71.28141272 0 296.21458418 0 32608
0.17250000 0.17250900 8454.17396435 0 155.35357507 0 2126.39569212 0 98.89878034 0 245.59191510 0 32361
0.17350000 0.17350400 8295.50754970 0 233.32710090 0 2301.90311282 0 -126.44705666 0 275.87915241 0 32508
0.17450000 0.17449800 8191.44984106 0 159.48908839 0 2381.49098362 0 -59.72788466 0 352.04124591 0 32791
0.17550000 0.17549800 8071.53656327 0 121.34492938 0 2539.26053996 0 -45.67345060 0 301.47393846 0 33633
0.17650000 0.17650100 8056.09067015 0 6.91181019 0 2690.24276119 0 171.41508945 0 215.41318658 0 33984
0.17750000 0.17750300 8105.61717906 0 -29.35505828 0 2532.12996278 0 -7.92960043 0 257.18574642 0 34069
0.17850000 0.17849800 8221.37833504 0 33.53607886 0 2685.82490358 0 -73.66583787 0 93.58661106 0 34536
