### header ###
fiducial parameters:
Omega_m = 0.31
Omega_nu = 0
Omega_de = 0.69
Omega_k = 0
H_0 = 100
w_de = -1
zeff = 0
beta = 0
fgrowth = 0
b_1 = 2
gamma = 0.55
Lx = 3500 Ly = 3500 Lz = 3500
nx = 700 ny = 700 nz = 700
xoffset = -685.467585 yoffset = -31.7331281 zoffset = 572.489161
bins = 400 dk = 0.001
kx_ny = 0.628318531 ky_ny = 0.628318531 kz_ny = 0.628318531
############################
A(data) = 8.11589935 (not used)
A(ran) = 8.11270189 (used)
Ngal = 482204
weighted Ngal = 0
Nran = 23820508
weighted Nran = 0
SN(data) = 3490.66024
SN(ran) = 70.6645756
SN(data+ran) = 3561.32482
############################
13 columns: k_central k_mean P_0(k) sigma^{lin}_{P_0(k)} P^img_1(k) sigma^{lin}_{P_1(k)} P_2(k) sigma^{lin}_{P_2(k)} P^img_3(k) sigma^{lin}_{P_3(k)} P_4(k) sigma^{lin}_{P_4(k)} N_modes
### header ###
0.00050000 0 0 0 0 0 0 0 0 0 0 0 0
0.00150000 0.00179520 44853.21277760 0 -17974.14777110 0 12633.41189483 0 70590.72109529 0 -77723.40202022 0 3
0.00250000 0.00253879 85535.03790302 0 -11999.29985246 0 66242.06552277 0 -40413.21052532 0 36566.13126708 0 6
0.00350000 0.00331552 94825.93638160 0 1676.85930448 0 30760.35774843 0 31252.30114012 0 37402.09179089 0 7
0.00450000 0.00420575 97518.83650074 0 22906.75775456 0 86844.89392907 0 -7839.41634577 0 13636.01090716 0 24
0.00550000 0.00557378 82000.41965116 0 31639.05744603 0 106679.63516269 0 38561.91781564 0 -18888.38963138 0 45
0.00650000 0.00659388 82017.36030814 0 16419.92553631 0 181363.57329694 0 71686.32763610 0 24641.68033039 0 40
0.00750000 0.00754703 74168.52141394 0 -8461.10523969 0 98888.37235756 0 74065.54879313 0 -15430.94548351 0 57
0.00850000 0.00846663 84731.63001418 0 -14635.17749879 0 120358.38524365 0 76870.72228593 0 -8743.28343769 0 75
0.00950000 0.00948925 98106.77694861 0 -3469.75657307 0 67206.02212148 0 59741.61434499 0 -6794.90858401 0 112
0.01050000 0.01054430 93639.75822377 0 4604.91345813 0 50254.51427063 0 37351.49126647 0 16501.63929347 0 105
0.01150000 0.01145670 84451.72164276 0 8465.27950615 0 12023.65896706 0 21776.27339058 0 22027.17227097 0 144
0.01250000 0.01249090 83238.41628914 0 -1522.21214374 0 -1476.59416549 0 16423.24723375 0 3326.10423087 0 169
0.01350000 0.01339930 77801.46191019 0 -5077.94531903 0 -3365.26704376 0 -5049.76625236 0 1517.50640569 0 180
0.01450000 0.01448870 80305.91106092 0 6513.67153361 0 4534.28309811 0 -10975.06551744 0 -6977.30299074 0 267
0.01550000 0.01550050 76758.44891227 0 5650.55059702 0 9573.48635260 0 -24967.09595681 0 11214.71491581 0 238
0.01650000 0.01653350 73181.42365636 0 6775.33271373 0 22149.41073696 0 -1830.56531762 0 15108.07649179 0 315
0.01750000 0.01747870 77500.29467512 0 2099.70031698 0 38634.99515945 0 7861.12917474 0 31620.23449384 0 297
0.01850000 0.01844180 77731.59554058 0 -1040.88711155 0 33539.06838491 0 13778.62245082 0 7373.82508715 0 388
0.01950000 0.01947590 74513.20288555 0 6581.98777774 0 42585.48993149 0 8878.60939163 0 13644.97949026 0 399
0.02050000 0.02045430 71307.32195756 0 7266.89964638 0 47810.96290640 0 2608.58436565 0 15605.33459940 0 462
0.02150000 0.02154770 64952.91474414 0 3877.97104448 0 47639.89548796 0 9313.02098356 0 17155.23862751 0 571
0.02250000 0.02255340 62454.88754180 0 4342.10075623 0 44646.60319648 0 5646.61992171 0 13844.39206024 0 510
0.02350000 0.02348930 58833.57298661 0 953.65822940 0 45360.65742404 0 8793.40785215 0 3004.74107534 0 555
0.02450000 0.02439640 61890.42042255 0 218.52672432 0 43640.68248671 0 7042.17574186 0 13639.66477435 0 592
0.02550000 0.02547300 63744.48121343 0 -3203.62217373 0 37144.66023886 0 4193.69838669 0 7666.52199373 0 837
0.02650000 0.02652900 65323.06256282 0 -3501.20197555 0 43840.09505669 0 1134.58112417 0 15603.23085768 0 723
0.02750000 0.02749970 72263.52792890 0 -2167.20828140 0 36213.58844486 0 9245.84518889 0 640.75654449 0 826
0.02850000 0.02848090 72039.20262807 0 -1743.81365266 0 36467.47685295 0 110.28135170 0 9698.89150349 0 831
0.02950000 0.02946900 68020.83450489 0 6179.16552852 0 34268.62386721 0 1209.95043921 0 3546.24419292 0 996
0.03050000 0.03053250 65350.18975863 0 8398.24765170 0 32032.12497710 0 2377.38315111 0 1946.51470312 0 1041
0.03150000 0.03150510 56597.73843599 0 5915.72170411 0 33530.65341805 0 6004.85391890 0 2725.60776666 0 1036
0.03250000 0.03246190 52507.62164798 0 3019.84372639 0 28264.32356456 0 6774.02617940 0 2623.97489715 0 1059
0.03350000 0.03345080 50175.12570168 0 -71.83624691 0 24384.02733186 0 13902.41104229 0 527.48444713 0 1302
0.03450000 0.03451200 49595.82166717 0 -1104.88293454 0 19242.37185583 0 3784.16630862 0 -6235.60116812 0 1339
0.03550000 0.03553350 48538.85753998 0 1869.83885375 0 15250.13441922 0 447.73492039 0 -5714.78115330 0 1365
0.03650000 0.03647120 48875.34549122 0 1318.17134198 0 20314.50506802 0 21.08314586 0 -402.35831882 0 1308
0.03750000 0.03744890 46700.63017359 0 1031.09253302 0 17228.64814106 0 -3311.28946026 0 -2023.79953035 0 1579
0.03850000 0.03847530 45539.03257687 0 1203.37347826 0 18013.23307771 0 7.12161967 0 -2732.01864273 0 1662
0.03950000 0.03950240 47051.29070060 0 1038.36262149 0 21720.46887349 0 780.90781758 0 -2487.34240888 0 1683
0.04050000 0.04050350 44980.65523626 0 946.67159244 0 18904.11233262 0 1248.48212958 0 3751.72439690 0 1822
0.04150000 0.04152450 47272.95864347 0 -1660.05151541 0 19119.69049684 0 1428.00880419 0 -3249.18479036 0 1887
0.04250000 0.04250150 46944.99638234 0 -1047.62019227 0 18803.79706976 0 1168.49565509 0 3889.03229698 0 1920
0.04350000 0.04349210 48762.62922457 0 163.85933499 0 18657.53165891 0 1243.92033175 0 -3921.93924634 0 2005
0.04450000 0.04448520 46538.75278474 0 1827.85259804 0 20469.51761548 0 -849.53962297 0 -717.48664825 0 2151
0.04550000 0.04548030 46863.39334842 0 2109.88685582 0 20973.97273422 0 -1750.19131176 0 -2593.82495667 0 2274
0.04650000 0.04648670 43406.28137030 0 1748.37545049 0 20567.50769012 0 -1374.68448786 0 2136.53794166 0 2311
0.04750000 0.04749250 43094.37398016 0 1282.79526419 0 19889.32779498 0 5931.75443044 0 433.29439436 0 2568
0.04850000 0.04851840 40157.32909876 0 2040.02048621 0 18839.11778593 0 5055.99997124 0 4552.00989014 0 2493
0.04950000 0.04949480 39853.28305924 0 2389.85058886 0 14094.07298490 0 7908.15333825 0 2354.13126899 0 2644
0.05050000 0.05050630 38146.26274195 0 -472.53139182 0 14524.45425060 0 2676.00375147 0 2132.97265306 0 2829
0.05150000 0.05149060 37041.46617155 0 -122.72896999 0 12260.27454844 0 2032.88990903 0 4459.98779857 0 2784
0.05250000 0.05249300 39012.33998927 0 376.39039542 0 15894.54372366 0 -3101.65713447 0 767.87347680 0 3055
0.05350000 0.05348950 36997.84121176 0 2058.62199191 0 14751.43690939 0 -4411.62388377 0 2722.76217918 0 3009
0.05450000 0.05448610 37134.58442327 0 2695.84535754 0 17976.91585231 0 -3631.77790214 0 246.71243438 0 3336
0.05550000 0.05550870 35232.35901943 0 425.20163215 0 18945.41210419 0 -1633.16791075 0 1842.94417676 0 3349
0.05650000 0.05647670 35569.84347990 0 256.11062368 0 19979.12434926 0 1167.36627795 0 -3966.49428141 0 3324
0.05750000 0.05747970 34460.72870282 0 597.40507113 0 18450.58990805 0 6771.94458233 0 -2815.61469511 0 3639
0.05850000 0.05849280 34060.24271413 0 -114.85876151 0 13501.14999086 0 2324.85604217 0 -3387.96530963 0 3846
0.05950000 0.05951020 33660.86395792 0 -31.12629808 0 12501.54050624 0 3441.62179570 0 -5448.76854953 0 3787
0.06050000 0.06049470 33758.30041632 0 228.99560743 0 9591.87748412 0 0.74294082 0 -2975.08938947 0 3930
0.06150000 0.06148310 32691.59264329 0 887.85540300 0 9512.23425170 0 300.21722960 0 -3923.22363602 0 4083
0.06250000 0.06249100 32884.58326488 0 896.73430027 0 9534.69999876 0 -1237.64232358 0 -4464.31707758 0 4303
0.06350000 0.06350600 31723.98217739 0 415.87873465 0 9458.83242910 0 -1007.86501001 0 -4581.90516715 0 4470
0.06450000 0.06451750 30825.57374161 0 930.44399318 0 9668.84121393 0 1494.43168077 0 -5278.59798939 0 4479
0.06550000 0.06550280 30698.46345269 0 598.56434353 0 10113.68293585 0 -563.57690434 0 -4369.38296458 0 4636
0.06650000 0.06648880 30768.21909905 0 -204.42944036 0 10945.15916810 0 -123.66679590 0 -5904.06254607 0 4653
0.06750000 0.06749660 30296.98095477 0 322.45488676 0 11092.14428007 0 840.44260089 0 -3888.54511468 0 5220
0.06850000 0.06852730 30494.84339927 0 112.91335404 0 9852.33178083 0 808.34946741 0 -5030.20145441 0 5029
0.06950000 0.06949320 29378.08871807 0 472.36087802 0 11352.67608305 0 -879.45483016 0 -1294.89731522 0 5040
0.07050000 0.07048030 29912.43911381 0 678.67814976 0 10847.08051486 0 1643.78627025 0 -2551.45116958 0 5475
0.07150000 0.07148790 29946.98476725 0 -412.23593979 0 11945.04546085 0 2048.39116377 0 680.61580660 0 5509
0.07250000 0.07249820 29620.79407809 0 273.50413874 0 11021.80180050 0 1442.60212830 0 1714.07338820 0 5916
0.07350000 0.07351270 29591.45241732 0 1161.24328233 0 12370.55490363 0 704.28290090 0 3416.10008700 0 5721
0.07450000 0.07449140 29184.54448024 0 832.97653227 0 12943.32626650 0 192.96183354 0 5755.46087468 0 6028
0.07550000 0.07549160 28266.31658303 0 444.13309313 0 12571.18542935 0 -247.79862944 0 5899.46753127 0 6183
0.07650000 0.07648840 28094.69554834 0 549.24156540 0 13852.03196437 0 1541.71050775 0 6191.27865187 0 6330
0.07750000 0.07749960 27614.04592796 0 274.60029890 0 12507.74100814 0 1302.92475071 0 2655.02169594 0 6583
0.07850000 0.07848650 26777.64251116 0 802.13235702 0 11762.68427109 0 1144.15868513 0 2511.14790724 0 6549
0.07950000 0.07947320 26153.38483788 0 1126.35438683 0 9924.88872537 0 105.45459314 0 -350.43132988 0 6828
0.08050000 0.08048110 25002.08450324 0 486.29872050 0 9280.21368512 0 -46.38385096 0 -332.45762500 0 7147
0.08150000 0.08149960 24603.48080977 0 411.99567034 0 9030.65455604 0 982.70647356 0 -2039.63295484 0 7386
0.08250000 0.08250610 24271.42178846 0 30.43317055 0 8091.72141142 0 387.26341839 0 -3297.37154797 0 7227
0.08350000 0.08350160 24305.41382565 0 160.15453511 0 8771.82789108 0 850.02016186 0 -2979.58475335 0 7798
0.08450000 0.08449610 23728.65642585 0 653.60929914 0 7440.74621835 0 238.98173719 0 -2547.47620497 0 7371
0.08550000 0.08548940 23555.81743543 0 351.32597373 0 8716.75414743 0 187.24076331 0 -1410.00520403 0 8256
0.08650000 0.08650700 23209.36439185 0 410.14991379 0 8783.26560261 0 115.01709575 0 -1006.66366277 0 8037
0.08750000 0.08749060 23033.75732023 0 847.54771173 0 8894.38745449 0 88.87002214 0 -1176.39022268 0 8155
0.08850000 0.08849210 22059.28201294 0 1185.66883088 0 8479.55173284 0 -414.55448461 0 -1140.15050355 0 8718
0.08950000 0.08949900 21058.56529583 0 843.05677678 0 8737.78049226 0 642.18819609 0 191.71287530 0 8571
0.09050000 0.09049190 20757.84095376 0 42.68979123 0 8548.11156812 0 929.60913989 0 -1387.51731232 0 8932
0.09150000 0.09150830 20360.34449277 0 148.07462873 0 8385.58091210 0 1041.01112159 0 -1699.90081243 0 9285
0.09250000 0.09250820 20912.18916173 0 285.32052379 0 7848.59530305 0 492.27666867 0 -1811.55413590 0 9204
0.09350000 0.09350330 19960.07995057 0 295.35869347 0 7394.62998548 0 662.47823132 0 162.92815247 0 9349
0.09450000 0.09448040 20224.48706724 0 -33.91508454 0 7093.55132901 0 407.76272056 0 678.17878791 0 9564
0.09550000 0.09549270 19725.34666442 0 295.00659354 0 7619.38710698 0 996.82147324 0 911.56014320 0 10155
0.09650000 0.09649430 19475.66573976 0 742.77473090 0 7480.07511611 0 829.32155785 0 1317.59558109 0 9913
0.09750000 0.09749140 18701.82095818 0 378.47752865 0 7196.01462289 0 666.39229814 0 2182.57666825 0 10476
0.09850000 0.09850240 18540.82935532 0 425.86929334 0 7398.94819216 0 90.33854458 0 3004.88501556 0 10575
0.09950000 0.09950330 18619.22141504 0 124.40864166 0 7353.90597480 0 707.22703207 0 2555.10503677 0 10882
0.10050000 0.10051200 17772.74218265 0 4.12489496 0 7238.62092879 0 54.18275367 0 1627.76461624 0 10875
0.10150000 0.10150300 17952.55673770 0 760.73625622 0 6898.40160409 0 -309.70842643 0 2062.17620817 0 11118
0.10250000 0.10250800 17392.18637863 0 168.72340728 0 6243.04177040 0 614.61146389 0 1003.80035957 0 11575
0.10350000 0.10349800 17211.15386785 0 154.30059698 0 6648.53244990 0 703.16238163 0 1346.60507212 0 11364
0.10450000 0.10450100 17049.16575575 0 480.23994436 0 5710.67332079 0 288.38423606 0 1050.56764514 0 12093
0.10550000 0.10551000 16457.34999419 0 437.43322938 0 5871.75350225 0 582.25480908 0 1565.28348729 0 12067
0.10650000 0.10649700 16222.83815454 0 497.05437683 0 5535.17697241 0 352.63029359 0 1580.03182395 0 12054
0.10750000 0.10749900 16284.62172702 0 95.86695636 0 5667.25873518 0 550.72193522 0 2002.39672648 0 12807
0.10850000 0.10850100 15933.07541403 0 -57.57442821 0 5728.65477630 0 402.63180524 0 1640.29848793 0 12736
0.10950000 0.10950300 15941.15821115 0 122.30157825 0 5184.61609633 0 65.00008285 0 1804.80001776 0 12933
0.11050000 0.11050200 15808.95465282 0 243.22908099 0 5225.96015720 0 165.13818851 0 1493.59018409 0 13428
0.11150000 0.11150900 15601.45928571 0 261.99777879 0 5171.99364604 0 -257.96966702 0 1270.38318807 0 13453
0.11250000 0.11250000 15475.89912227 0 273.67022361 0 5207.35865151 0 -34.36860696 0 1222.90505925 0 13668
0.11350000 0.11349100 15028.90936934 0 284.68829404 0 5047.00924349 0 -535.00034121 0 968.51396761 0 13791
0.11450000 0.11448600 15302.28506911 0 134.58078647 0 5561.46267153 0 -364.78992071 0 113.96301043 0 14205
0.11550000 0.11549300 14903.01703615 0 260.88058121 0 6120.18325421 0 -543.15843014 0 336.94413102 0 14776
0.11650000 0.11649800 14769.37407559 0 539.97845845 0 6408.09691647 0 -617.82465256 0 -576.38094076 0 14553
0.11750000 0.11747300 14466.54599180 0 424.14865406 0 6314.45826548 0 -101.21300695 0 302.86351523 0 14568
0.11850000 0.11849100 14205.01767959 0 -22.85372132 0 6431.19378604 0 726.14409902 0 -393.23583040 0 16015
0.11950000 0.11950300 14029.07843822 0 -19.18900325 0 6291.92608447 0 844.87595975 0 -475.49656041 0 15270
0.12050000 0.12050700 14008.48391405 0 199.93961265 0 5507.81725779 0 1158.23160998 0 -1268.27944635 0 15999
0.12150000 0.12150000 13401.16689775 0 282.71742022 0 4981.68252705 0 427.43602730 0 -124.97000853 0 15670
0.12250000 0.12250700 13594.37896584 0 330.14793805 0 4533.07621470 0 265.92181070 0 -431.49292711 0 16887
0.12350000 0.12352200 13298.85861643 0 -125.12723554 0 4641.87287837 0 440.35300143 0 434.15360677 0 16407
0.12450000 0.12449800 13413.01428531 0 12.57483930 0 4271.84685526 0 85.28956446 0 165.53457774 0 16306
0.12550000 0.12549900 13239.28950890 0 207.81203559 0 4360.99014237 0 31.99935090 0 346.26592129 0 17523
0.12650000 0.12650100 13359.31350994 0 257.93866451 0 4725.42464145 0 59.30403607 0 438.53824739 0 17154
0.12750000 0.12750600 12934.24696015 0 228.41320315 0 4423.79236874 0 242.77179397 0 976.03207616 0 18007
0.12850000 0.12850300 13043.75225261 0 -24.63193668 0 4609.18737551 0 727.28454848 0 1034.44966190 0 17496
0.12950000 0.12949900 12989.71930749 0 -53.85877745 0 4181.34167219 0 645.52096586 0 719.88602104 0 18405
0.13050000 0.13049000 12906.45542486 0 50.45614131 0 4309.82492938 0 47.85015894 0 742.00520433 0 18100
0.13150000 0.13148800 13046.85250356 0 112.54796732 0 4051.26400022 0 44.09531214 0 268.92462520 0 19059
0.13250000 0.13249300 12738.93115035 0 143.98119024 0 4301.88607249 0 -236.23469340 0 743.04932456 0 18957
0.13350000 0.13349100 12597.42683917 0 310.17567854 0 4011.80223457 0 94.07080383 0 214.67244805 0 19468
0.13450000 0.13450700 12357.93245334 0 183.61900586 0 4061.89343205 0 401.21897659 0 126.63417895 0 19953
0.13550000 0.13551000 12104.26549174 0 -5.96440672 0 3597.67514170 0 212.28525482 0 -168.65697334 0 19956
0.13650000 0.13649900 12222.40719756 0 137.88476820 0 3501.46771135 0 341.20586884 0 -262.35873658 0 19723
0.13750000 0.13749600 12171.80667314 0 118.97655911 0 3137.86363663 0 22.67479255 0 -296.44045960 0 20946
0.13850000 0.13851100 12112.12684237 0 209.06652999 0 3345.25935281 0 -204.30432309 0 15.92997516 0 20955
0.13950000 0.13949800 12082.89590484 0 52.05719947 0 3612.04701931 0 -131.93892977 0 138.62218503 0 20506
0.14050000 0.14048300 11926.33323191 0 142.75880558 0 3528.78313668 0 133.73486086 0 479.55788915 0 21447
0.14150000 0.14148400 11844.17658175 0 137.63342643 0 3528.04129091 0 399.83382876 0 665.66041747 0 21771
0.14250000 0.14249400 11751.94411601 0 63.71104279 0 3387.46705502 0 553.14345266 0 678.61393027 0 22470
0.14350000 0.14350900 11689.38548079 0 140.31625073 0 3380.61328595 0 272.73350493 0 559.22105176 0 22519
0.14450000 0.14449900 11397.85116831 0 353.63123176 0 2930.40148650 0 216.78615486 0 367.84920405 0 22218
0.14550000 0.14550500 11296.42867298 0 230.70295992 0 2930.25754628 0 9.38710591 0 574.76438134 0 23559
0.14650000 0.14650700 10878.61449594 0 164.62332540 0 2776.33008665 0 6.53591583 0 635.52376378 0 23044
0.14750000 0.14750500 10917.82159813 0 270.67737421 0 2924.97604734 0 195.28480729 0 333.93578037 0 23649
0.14850000 0.14849900 10605.89206334 0 92.57382551 0 2904.22651063 0 -163.22599801 0 162.59819719 0 23640
0.14950000 0.14949500 10498.78946537 0 211.92983319 0 2931.92946733 0 79.04167301 0 420.40177934 0 24457
0.15050000 0.15050000 10464.60919865 0 125.04530034 0 3005.40541482 0 -12.51538091 0 44.35230080 0 24591
0.15150000 0.15149900 10242.42085651 0 344.38805500 0 3064.08873636 0 -266.73451935 0 56.43265007 0 25020
0.15250000 0.15250500 10049.52988585 0 261.64457163 0 3175.14415429 0 -109.83746220 0 342.54119122 0 25297
0.15350000 0.15350100 9773.30859860 0 138.87131234 0 2780.90295680 0 138.23243920 0 395.08933757 0 25452
0.15450000 0.15450400 9696.64382155 0 128.08354627 0 2913.04008119 0 461.04717652 0 275.55473330 0 26061
0.15550000 0.15549900 9601.22252627 0 115.69029310 0 2617.23185133 0 429.25963920 0 287.05002092 0 26128
0.15650000 0.15649500 9449.17736186 0 168.45434979 0 2400.22535721 0 361.91000902 0 7.10501119 0 26331
0.15750000 0.15749700 9464.16928966 0 94.23124182 0 2508.85593601 0 -185.36068256 0 178.20685349 0 27345
0.15850000 0.15849900 9267.05976324 0 109.66573044 0 2623.79773995 0 -288.46063511 0 79.11463963 0 26980
0.15950000 0.15949700 9273.70315813 0 121.17330835 0 2728.89624713 0 -326.68562208 0 98.53638315 0 27777
0.16050000 0.16050000 9320.89340651 0 -11.71684485 0 2962.83232590 0 -161.00046072 0 -12.80381497 0 28224
0.16150000 0.16150500 9203.65963133 0 9.44417267 0 2835.30128864 0 -111.08752767 0 369.91972880 0 28075
0.16250000 0.16249700 9211.66492217 0 221.20733416 0 2842.09969607 0 343.75693248 0 -348.39070042 0 28590
0.16350000 0.16349900 9237.54094527 0 95.00741179 0 2956.26643728 0 -18.75696114 0 -85.06501771 0 29163
0.16450000 0.16449100 8987.71608039 0 100.67732788 0 2774.20420029 0 48.20535912 0 -362.55109663 0 28996
0.16550000 0.16550500 8920.88352778 0 189.22603115 0 2701.21543508 0 254.01352536 0 -110.36915524 0 30777
0.16650000 0.16650700 8910.94058010 0 27.78743853 0 2643.44004418 0 -36.26695705 0 -133.58981340 0 29211
0.16750000 0.16749900 8838.81545623 0 91.06555343 0 2683.87617442 0 310.73483094 0 -18.85373325 0 30922
0.16850000 0.16850800 8766.65711539 0 85.86831488 0 2781.02475237 0 57.27470038 0 90.96224864 0 30867
0.16950000 0.16949900 8660.91641337 0 216.17828422 0 2824.53898891 0 27.22551805 0 296.71062433 0 30852
0.17050000 0.17049200 8508.45050062 0 238.58756242 0 3048.52104767 0 134.35823274 0 451.62573533 0 31257
0.17150000 0.17149500 8317.26466797 0 69.54350061 0 2803.25798061 0 261.99445709 0 704.66046718 0 32608
0.17250000 0.17250900 8247.66403416 0 130.14521315 0 2942.97964750 0 490.77526142 0 907.84869993 0 32361
0.17350000 0.17350400 8188.51567498 0 37.50240705 0 2651.41211805 0 423.79544690 0 1030.56327589 0 32508
0.17450000 0.17449800 8083.17357666 0 46.13771318 0 2524.14681658 0 266.10118237 0 864.57694730 0 32791
0.17550000 0.17549800 8055.38204136 0 208.65796121 0 2383.19612164 0 -160.14567725 0 1124.89283995 0 33633
0.17650000 0.17650100 7883.19631811 0 59.17803301 0 2533.89046242 0 -203.87139519 0 913.31732115 0 33984
0.17750000 0.17750300 7927.72920853 0 36.05038238 0 2480.06789148 0 -184.70520093 0 1070.97947594 0 34069
0.17850000 0.17849800 7893.82574993 0 12.37509456 0 2484.89542510 0 216.21593013 0 865.09070317 0 34536
