### header ###
fiducial parameters:
Omega_m = 0.31
Omega_nu = 0
Omega_de = 0.69
Omega_k = 0
H_0 = 100
w_de = -1
zeff = 0
beta = 0
fgrowth = 0
b_1 = 2
gamma = 0.55
Lx = 3500 Ly = 3500 Lz = 3500
nx = 700 ny = 700 nz = 700
xoffset = -685.467585 yoffset = -31.7331281 zoffset = 572.489161
bins = 400 dk = 0.001
kx_ny = 0.628318531 ky_ny = 0.628318531 kz_ny = 0.628318531
############################
A(data) = 8.05518218 (not used)
A(ran) = 8.04802478 (used)
Ngal = 478453
weighted Ngal = 0
Nran = 23820508
weighted Nran = 0
SN(data) = 3495.96722
SN(ran) = 70.1012146
SN(data+ran) = 3566.06843
############################
13 columns: k_central k_mean P_0(k) sigma^{lin}_{P_0(k)} P^img_1(k) sigma^{lin}_{P_1(k)} P_2(k) sigma^{lin}_{P_2(k)} P^img_3(k) sigma^{lin}_{P_3(k)} P_4(k) sigma^{lin}_{P_4(k)} N_modes
### header ###
0.00050000 0 0 0 0 0 0 0 0 0 0 0 0
0.00150000 0.00179520 41268.43689431 0 -57630.78634156 0 37937.66014237 0 -122964.81050596 0 5104.15351187 0 3
0.00250000 0.00253879 72022.26197110 0 -54315.28939787 0 243.15378918 0 6138.51902411 0 7450.39021327 0 6
0.00350000 0.00331552 92463.76660479 0 -21002.31788575 0 30154.59085760 0 9251.17097713 0 12062.52282718 0 7
0.00450000 0.00420575 110059.79448333 0 2552.31481092 0 16476.61583938 0 3634.75635752 0 42611.50989482 0 24
0.00550000 0.00557378 103949.75347866 0 11301.30049590 0 4290.50372258 0 22062.82515688 0 -11349.35438561 0 45
0.00650000 0.00659388 95702.31089099 0 12370.00128739 0 3209.55693983 0 16149.76081073 0 38481.42201421 0 40
0.00750000 0.00754703 96265.11716152 0 708.44498780 0 11560.94651289 0 2739.23779851 0 -22579.57055617 0 57
0.00850000 0.00846663 82908.46100954 0 8792.77672963 0 15730.78403960 0 43.71818876 0 -16497.98542628 0 75
0.00950000 0.00948925 77713.43692788 0 20445.93356362 0 19142.94237896 0 -12160.40217857 0 -9170.25442735 0 112
0.01050000 0.01054430 60250.27694716 0 8741.02468343 0 25705.06640598 0 -3810.69559888 0 28547.22146367 0 105
0.01150000 0.01145670 56572.71498190 0 4763.33628163 0 29297.70363988 0 1118.44874691 0 2283.87736802 0 144
0.01250000 0.01249090 53557.94238027 0 -690.95182182 0 22851.94974671 0 -3300.81504099 0 -1086.00683519 0 169
0.01350000 0.01339930 56163.59257985 0 -6250.49344500 0 31899.81069551 0 -6724.49967048 0 -13868.52972835 0 180
0.01450000 0.01448870 63892.18602651 0 -3394.07723293 0 36205.06275475 0 -3807.51784166 0 -10581.93155243 0 267
0.01550000 0.01550050 69391.25614769 0 -1601.77786989 0 54925.37449538 0 4886.17265317 0 17224.55138088 0 238
0.01650000 0.01653350 71044.13279662 0 2933.65675000 0 37254.27625456 0 22084.52691353 0 5345.26445712 0 315
0.01750000 0.01747870 78641.18702444 0 -8543.39475774 0 31988.50001731 0 16700.49824721 0 20727.28133726 0 297
0.01850000 0.01844180 77683.20948113 0 -2171.27182461 0 30470.92717767 0 23903.37771149 0 19586.72115769 0 388
0.01950000 0.01947590 81807.42902958 0 -208.18849464 0 21428.82383777 0 18401.31806260 0 24112.64465056 0 399
0.02050000 0.02045430 81664.15314642 0 -903.93131140 0 20381.16046343 0 7827.31429475 0 13927.43449638 0 462
0.02150000 0.02154770 75391.79185991 0 670.43812563 0 3467.02170884 0 13115.72236393 0 16154.18974066 0 571
0.02250000 0.02255340 75593.64034135 0 1495.50569628 0 2113.21962559 0 1165.83829713 0 -3815.35704763 0 510
0.02350000 0.02348930 70795.00548820 0 5943.52431173 0 -5132.84190548 0 -10483.37678922 0 -11124.91836153 0 555
0.02450000 0.02439640 63140.26444808 0 9473.03822184 0 -1384.18454255 0 -7444.04577115 0 -17487.18692558 0 592
0.02550000 0.02547300 57932.50719287 0 5554.59783015 0 -2815.20501909 0 -10150.25482472 0 -9696.11234996 0 837
0.02650000 0.02652900 54352.82457900 0 -447.75374334 0 -902.64027833 0 108.24869431 0 -9952.79098391 0 723
0.02750000 0.02749970 59162.19958723 0 -1919.12177152 0 1313.04485559 0 -2673.33532119 0 -20480.47921705 0 826
0.02850000 0.02848090 59709.39387977 0 -2050.09630180 0 5148.33208790 0 -2235.96741853 0 -11561.72157563 0 831
0.02950000 0.02946900 62033.58558245 0 -1589.17756425 0 4870.10670986 0 -8893.39094526 0 -17395.39735283 0 996
0.03050000 0.03053250 63683.25125718 0 1941.57644625 0 16843.88485361 0 -7652.83660025 0 -17603.88922917 0 1041
0.03150000 0.03150510 63656.56695437 0 3001.48581184 0 24270.97889547 0 -12403.66115484 0 -10579.34062842 0 1036
0.03250000 0.03246190 61566.22275186 0 4741.90026078 0 24517.33812268 0 -1399.02145781 0 -18112.33038484 0 1059
0.03350000 0.03345080 55646.07211782 0 3810.78417748 0 24661.61051507 0 1556.17096396 0 -9116.75295383 0 1302
0.03450000 0.03451200 54254.05944162 0 2110.76156948 0 21303.04222783 0 9815.98133845 0 -12122.31338120 0 1339
0.03550000 0.03553350 54129.27434092 0 -301.41746961 0 16680.01444630 0 9579.33254010 0 -11385.00727152 0 1365
0.03650000 0.03647120 50274.55517855 0 300.71326975 0 18880.97117375 0 4567.41149397 0 -5743.21488343 0 1308
0.03750000 0.03744890 50873.12505825 0 4683.23908389 0 15837.74269734 0 2850.04962529 0 -4357.52450470 0 1579
0.03850000 0.03847530 45637.13337476 0 2725.80706850 0 15232.08652976 0 -1329.35439005 0 4068.44824834 0 1662
0.03950000 0.03950240 45505.70487916 0 574.25948332 0 18642.69474365 0 686.67347551 0 5027.34479461 0 1683
0.04050000 0.04050350 43628.17075966 0 774.88779457 0 18509.71612258 0 1608.43233711 0 3087.68386055 0 1822
0.04150000 0.04152450 43641.12537970 0 1832.17080472 0 20714.54816372 0 4375.48381556 0 5701.88189488 0 1887
0.04250000 0.04250150 43152.17151571 0 1326.68595977 0 15573.22485743 0 3011.69449532 0 6242.28885231 0 1920
0.04350000 0.04349210 40296.17605199 0 -74.65503937 0 12555.24128161 0 6119.08709405 0 2353.43371253 0 2005
0.04450000 0.04448520 42901.82625156 0 -2631.51515035 0 11392.53645240 0 5796.86029718 0 3757.84739253 0 2151
0.04550000 0.04548030 42453.17564991 0 -672.69355819 0 11306.50448856 0 -907.03931298 0 -349.53114988 0 2274
0.04650000 0.04648670 43232.11370090 0 1755.31779815 0 10754.87019377 0 1214.46794773 0 2570.58414687 0 2311
0.04750000 0.04749250 41769.79176210 0 1980.87212703 0 10984.80916328 0 -2223.95394610 0 5967.87235400 0 2568
0.04850000 0.04851840 40391.73021517 0 2484.39717048 0 13807.52121860 0 -2414.91833225 0 6718.22166231 0 2493
0.04950000 0.04949480 40533.34524960 0 1627.63174834 0 16552.01837139 0 -2307.38391361 0 9376.81971917 0 2644
0.05050000 0.05050630 37926.14492456 0 1580.93975458 0 19526.04481768 0 433.85686846 0 5729.68450250 0 2829
0.05150000 0.05149060 36807.95084112 0 1985.09068279 0 17995.40663475 0 -1193.79591730 0 4148.32399958 0 2784
0.05250000 0.05249300 35586.34124388 0 974.45205541 0 17464.59938295 0 1452.64472691 0 5483.67958968 0 3055
0.05350000 0.05348950 35429.55712445 0 -224.30315618 0 16813.98957660 0 3180.81318460 0 1427.76521304 0 3009
0.05450000 0.05448610 35662.85100838 0 -1283.26030183 0 15534.58244381 0 3551.22673908 0 2176.87442097 0 3336
0.05550000 0.05550870 37816.75035535 0 -1945.00886694 0 15507.67669450 0 1353.73564930 0 -132.93543901 0 3349
0.05650000 0.05647670 37752.86304115 0 266.80095330 0 14858.28484389 0 2108.34780267 0 373.27132152 0 3324
0.05750000 0.05747970 37985.16041584 0 1242.35913395 0 15387.43124697 0 -411.14310133 0 1650.26358027 0 3639
0.05850000 0.05849280 36156.56597204 0 1724.45922888 0 14716.66980946 0 -91.35155158 0 2883.00086395 0 3846
0.05950000 0.05951020 35387.15012039 0 791.85502513 0 15202.08052951 0 570.75287805 0 1769.68967576 0 3787
0.06050000 0.06049470 35003.49406543 0 1146.93783866 0 15146.49745892 0 539.37280229 0 884.10077765 0 3930
0.06150000 0.06148310 33488.80003024 0 872.14820301 0 14421.03873680 0 435.94732339 0 376.98608650 0 4083
0.06250000 0.06249100 32897.09499193 0 1759.49206461 0 14151.98124370 0 1045.92723381 0 2415.16192339 0 4303
0.06350000 0.06350600 30994.42669509 0 1163.02592663 0 12193.84059953 0 2360.18783067 0 1957.85276373 0 4470
0.06450000 0.06451750 30716.06844915 0 204.41393910 0 12824.40949795 0 903.81062306 0 556.74970886 0 4479
0.06550000 0.06550280 30762.57221339 0 -167.82987067 0 14234.47006360 0 682.82141371 0 425.14294883 0 4636
0.06650000 0.06648880 30054.71848773 0 916.94240030 0 14838.57610571 0 -843.39558992 0 904.23469310 0 4653
0.06750000 0.06749660 29163.17489334 0 1408.43293391 0 13758.80298939 0 -1016.34751806 0 2988.21009438 0 5220
0.06850000 0.06852730 29418.28125716 0 -12.68689122 0 15154.69097928 0 941.69015350 0 5143.44919266 0 5029
0.06950000 0.06949320 29134.05467906 0 -684.68599321 0 13378.02573888 0 2459.34049942 0 3343.56528711 0 5040
0.07050000 0.07048030 29679.03450664 0 -604.86892529 0 12894.71876055 0 3148.83631053 0 277.67951243 0 5475
0.07150000 0.07148790 29516.16060855 0 442.31391016 0 11695.14308970 0 1239.69070367 0 1807.46844805 0 5509
0.07250000 0.07249820 28968.41269978 0 1217.98894703 0 11140.30889303 0 -489.47647772 0 368.54454605 0 5916
0.07350000 0.07351270 28161.57239024 0 1296.82389973 0 11265.20471699 0 796.21530664 0 2056.96114318 0 5721
0.07450000 0.07449140 26792.59014966 0 735.66297667 0 9974.75847635 0 878.88681990 0 1888.46250409 0 6028
0.07550000 0.07549160 26467.50669299 0 389.74694085 0 10570.41633462 0 1085.90164810 0 946.50882926 0 6183
0.07650000 0.07648840 25976.78125703 0 521.78219985 0 9455.83182907 0 1469.37500971 0 700.98556257 0 6330
0.07750000 0.07749960 25170.16239399 0 735.15364973 0 9391.49054955 0 317.20660480 0 1248.23853843 0 6583
0.07850000 0.07848650 24918.48845086 0 669.91440466 0 8644.49615566 0 -83.53061494 0 2729.93704566 0 6549
0.07950000 0.07947320 23883.11535707 0 655.17714033 0 9876.28121941 0 978.47352378 0 234.54394940 0 6828
0.08050000 0.08048110 23589.80947262 0 371.54293161 0 8515.31534200 0 338.26727384 0 1424.56531117 0 7147
0.08150000 0.08149960 23794.53675852 0 -182.46416238 0 8628.35270608 0 314.06649348 0 -443.19858891 0 7386
0.08250000 0.08250610 23918.54679649 0 67.68113558 0 8652.21356606 0 194.85077216 0 649.63765622 0 7227
0.08350000 0.08350160 23471.99993655 0 497.41422739 0 7846.15939159 0 396.16335308 0 1723.16376688 0 7798
0.08450000 0.08449610 22930.89542266 0 662.73953818 0 6888.81297079 0 597.10501112 0 755.23995418 0 7371
0.08550000 0.08548940 22684.64691870 0 269.69193731 0 7578.71845792 0 202.70437215 0 408.87991814 0 8256
0.08650000 0.08650700 21918.88493424 0 1102.47248943 0 7320.99902544 0 322.54346536 0 -750.73683968 0 8037
0.08750000 0.08749060 21339.69162298 0 695.12165935 0 7308.08869470 0 145.77158517 0 477.13858618 0 8155
0.08850000 0.08849210 20613.90073111 0 194.71679703 0 7129.28172120 0 240.68798244 0 82.51439697 0 8718
0.08950000 0.08949900 20942.85950148 0 -184.10286646 0 7344.79345147 0 514.90407167 0 772.54710511 0 8571
0.09050000 0.09049190 20849.18763351 0 -34.79323062 0 6540.62157222 0 1464.81321188 0 -340.19053666 0 8932
0.09150000 0.09150830 21103.18676485 0 216.38312223 0 6273.35779575 0 722.12927404 0 308.90346842 0 9285
0.09250000 0.09250820 20347.16842623 0 353.21823404 0 6088.71570707 0 -380.00883117 0 663.89659613 0 9204
0.09350000 0.09350330 20098.92690380 0 547.96492634 0 6861.26502664 0 -30.28181187 0 345.19301301 0 9349
0.09450000 0.09448040 19633.33564518 0 743.69151940 0 6649.35180194 0 -259.07689950 0 1119.14630337 0 9564
0.09550000 0.09549270 19593.47527583 0 336.57431537 0 6713.70415379 0 599.04377520 0 673.99344913 0 10155
0.09650000 0.09649430 18957.03804525 0 -6.41409812 0 7244.15709120 0 -94.72628546 0 1203.32918897 0 9913
0.09750000 0.09749140 19471.90114932 0 77.80655518 0 6629.60984679 0 -428.85439211 0 -736.76910192 0 10476
0.09850000 0.09850240 18881.96768298 0 697.07371021 0 7958.74279034 0 -399.49390839 0 910.78286600 0 10575
0.09950000 0.09950330 18425.01283772 0 1129.16675733 0 7530.60920658 0 -738.67464902 0 473.50022024 0 10882
0.10050000 0.10051200 17596.58149479 0 672.52636609 0 7721.59573738 0 728.63869381 0 636.04084135 0 10875
0.10150000 0.10150300 16860.82551059 0 372.64130624 0 7160.52782184 0 1000.12324050 0 597.41392898 0 11118
0.10250000 0.10250800 16871.89783541 0 -40.99915795 0 6968.52263716 0 991.58204913 0 -218.25766683 0 11575
0.10350000 0.10349800 16798.48832186 0 -63.23936176 0 6296.28858045 0 758.74545222 0 134.75351474 0 11364
0.10450000 0.10450100 16702.93415867 0 495.14550803 0 5989.70697854 0 425.65227577 0 678.11346119 0 12093
0.10550000 0.10551000 16362.79234024 0 89.60887837 0 5801.32244408 0 259.69584246 0 1284.74399336 0 12067
0.10650000 0.10649700 16245.86859016 0 126.07281208 0 5848.59019873 0 274.16404930 0 844.71762551 0 12054
0.10750000 0.10749900 16049.11337813 0 387.87682519 0 6258.95270116 0 145.43720096 0 1331.69065059 0 12807
0.10850000 0.10850100 15650.95257765 0 309.56559344 0 6003.35915505 0 970.34533013 0 1678.06618789 0 12736
0.10950000 0.10950300 15405.81130617 0 144.64995866 0 6071.80826707 0 314.84155622 0 1624.66436529 0 12933
0.11050000 0.11050200 15451.31856117 0 -15.53679691 0 5630.25502563 0 698.60169104 0 1361.63021690 0 13428
0.11150000 0.11150900 15262.09253002 0 137.61571071 0 5605.66339221 0 110.79964723 0 1285.67406864 0 13453
0.11250000 0.11250000 15256.11347462 0 345.29155670 0 4832.09541876 0 -205.31190465 0 1391.48120461 0 13668
0.11350000 0.11349100 14872.90031265 0 75.92160260 0 4940.32739386 0 112.66201226 0 853.85450795 0 13791
0.11450000 0.11448600 14797.27633414 0 426.39190707 0 4674.65803216 0 425.61241540 0 423.55074852 0 14205
0.11550000 0.11549300 14369.55242639 0 277.91867465 0 4696.97983899 0 55.55051795 0 595.40319480 0 14776
0.11650000 0.11649800 14108.68845366 0 103.89871006 0 4044.08913374 0 1208.15672259 0 92.13358988 0 14553
0.11750000 0.11747300 14113.67099983 0 32.59714571 0 3848.45222652 0 480.98068289 0 507.53876120 0 14568
0.11850000 0.11849100 14196.15981973 0 -46.57086253 0 4181.92850540 0 409.35713534 0 47.15293464 0 16015
0.11950000 0.11950300 13913.26192061 0 162.69009749 0 4053.97671980 0 -399.47619267 0 356.63958241 0 15270
0.12050000 0.12050700 13867.86538886 0 488.36370908 0 4425.49750676 0 -943.50380031 0 169.72323822 0 15999
0.12150000 0.12150000 13600.13657474 0 444.82511343 0 5040.37692092 0 -496.39557350 0 762.38160369 0 15670
0.12250000 0.12250700 13442.90956232 0 322.92324610 0 5039.21432681 0 -635.71752946 0 437.05344864 0 16887
0.12350000 0.12352200 13269.84912540 0 42.20537702 0 5122.94324709 0 144.02769401 0 477.01568337 0 16407
0.12450000 0.12449800 13176.50942718 0 138.82591581 0 5174.54028075 0 389.36937457 0 -79.73546489 0 16306
0.12550000 0.12549900 12961.26343271 0 16.62199546 0 4826.82499214 0 853.84565009 0 -101.06629865 0 17523
0.12650000 0.12650100 13086.93431940 0 -177.19816470 0 4520.89665740 0 650.55776642 0 -313.52616403 0 17154
0.12750000 0.12750600 13118.37972188 0 -27.99438029 0 4252.52564845 0 461.76134147 0 124.80060196 0 18007
0.12850000 0.12850300 13305.05911833 0 29.15874596 0 4086.42970384 0 200.94055081 0 7.12454277 0 17496
0.12950000 0.12949900 13005.10983899 0 326.19843978 0 4285.07828341 0 -508.82757981 0 12.22871842 0 18405
0.13050000 0.13049000 13002.78465078 0 274.43089233 0 4477.30491459 0 -376.73917365 0 457.23718955 0 18100
0.13150000 0.13148800 12663.97151133 0 306.28043467 0 4774.92900572 0 -303.90652823 0 220.18868027 0 19059
0.13250000 0.13249300 12789.31022827 0 140.45686925 0 5117.26314446 0 96.41127185 0 109.01811016 0 18957
0.13350000 0.13349100 12446.95394488 0 204.67303151 0 4938.30115842 0 117.34560566 0 151.34871518 0 19468
0.13450000 0.13450700 12456.03325123 0 195.32909659 0 4930.04120410 0 36.52682451 0 128.76892318 0 19953
0.13550000 0.13551000 12330.36236454 0 37.04655944 0 5082.11958548 0 370.60732017 0 92.80424059 0 19956
0.13650000 0.13649900 12101.38668729 0 268.78068497 0 4839.55816568 0 132.30542372 0 -347.52484462 0 19723
0.13750000 0.13749600 11900.20254534 0 375.91428545 0 4797.40582510 0 -53.40680515 0 34.92576635 0 20946
0.13850000 0.13851100 11704.66528904 0 253.64038802 0 4778.56072826 0 135.71237807 0 115.97706631 0 20955
0.13950000 0.13949800 11464.06367073 0 142.49085532 0 4556.94814701 0 416.60507916 0 190.48606172 0 20506
0.14050000 0.14048300 11451.33049719 0 20.86114574 0 4319.54643058 0 453.03413505 0 134.69815312 0 21447
0.14150000 0.14148400 11244.38874633 0 94.32679598 0 4041.54249903 0 693.85609262 0 425.55483931 0 21771
0.14250000 0.14249400 11211.06104862 0 32.09047613 0 3629.22019511 0 418.88929977 0 21.72323695 0 22470
0.14350000 0.14350900 11118.82858288 0 53.42352436 0 3535.30473600 0 399.95673156 0 200.36146822 0 22519
0.14450000 0.14449900 11137.76225832 0 190.76065537 0 3202.52601357 0 192.39825221 0 9.38933145 0 22218
0.14550000 0.14550500 10834.13696715 0 106.28501751 0 3277.40814632 0 -77.21473942 0 281.77959431 0 23559
0.14650000 0.14650700 10771.46760867 0 260.38343383 0 2976.14126033 0 57.23672230 0 459.07740993 0 23044
0.14750000 0.14750500 10518.94109654 0 222.47511535 0 3268.38420159 0 359.26040169 0 500.59309184 0 23649
0.14850000 0.14849900 10465.68321416 0 148.65038962 0 3101.32496473 0 262.81270190 0 1020.01356480 0 23640
0.14950000 0.14949500 10262.77178953 0 135.89728589 0 3355.63412116 0 277.64297376 0 751.22955813 0 24457
0.15050000 0.15050000 10288.17170266 0 70.76444587 0 3225.06926690 0 89.11571703 0 1113.38869446 0 24591
0.15150000 0.15149900 10098.69100804 0 274.43864295 0 3366.57357808 0 -6.08285845 0 1179.35760573 0 25020
0.15250000 0.15250500 9903.67415101 0 144.32996848 0 3278.43787253 0 47.14086581 0 1309.00345703 0 25297
0.15350000 0.15350100 9895.61349854 0 11.55042780 0 3297.12795682 0 33.76682611 0 1090.59077766 0 25452
0.15450000 0.15450400 9790.72536554 0 259.89403707 0 3306.63908384 0 -54.21287039 0 952.43805920 0 26061
0.15550000 0.15549900 9678.81737860 0 167.32829436 0 3499.74042868 0 -4.97149599 0 657.67505681 0 26128
0.15650000 0.15649500 9435.30373886 0 292.34369942 0 3215.51385058 0 -116.47642816 0 726.70657312 0 26331
0.15750000 0.15749700 9342.55087385 0 205.37390967 0 3450.93362088 0 -285.61394039 0 737.57738163 0 27345
0.15850000 0.15849900 9161.07547008 0 -95.71460117 0 3536.68877660 0 103.35096215 0 702.91546879 0 26980
0.15950000 0.15949700 9337.94478673 0 -39.82283417 0 3548.35900696 0 94.74865155 0 418.98784346 0 27777
0.16050000 0.16050000 9301.27324693 0 81.89335027 0 3301.98870742 0 248.86046539 0 432.53151118 0 28224
0.16150000 0.16150500 9222.48258352 0 176.27805451 0 3286.58710359 0 16.93401358 0 437.91044658 0 28075
0.16250000 0.16249700 8951.86389263 0 207.44111271 0 3069.25951205 0 262.10185864 0 785.19612898 0 28590
0.16350000 0.16349900 8929.81889391 0 124.27023760 0 3011.28481930 0 275.48387042 0 423.19200520 0 29163
0.16450000 0.16449100 8804.12586257 0 -6.71024959 0 2741.47440812 0 377.57624141 0 379.95457678 0 28996
0.16550000 0.16550500 8660.79461779 0 70.79666634 0 2600.35762831 0 473.71613058 0 474.44468955 0 30777
0.16650000 0.16650700 8816.47150474 0 23.25786117 0 2456.97102191 0 127.51664324 0 396.67378726 0 29211
0.16750000 0.16749900 8635.19540281 0 -2.59127832 0 2326.95978389 0 -10.41240319 0 49.77109657 0 30922
0.16850000 0.16850800 8713.89748763 0 161.89399734 0 2340.91091316 0 -275.03433403 0 -41.34760402 0 30867
0.16950000 0.16949900 8579.45731968 0 110.05791219 0 2398.73059336 0 -238.90644538 0 -297.87875460 0 30852
0.17050000 0.17049200 8512.10436781 0 49.42397919 0 2334.34502454 0 -155.05572953 0 -94.13081583 0 31257
0.17150000 0.17149500 8466.55282350 0 68.37669902 0 2210.85538584 0 134.11131990 0 -38.89275888 0 32608
0.17250000 0.17250900 8500.83274114 0 -45.25425238 0 2319.14272256 0 479.96756517 0 -259.42899943 0 32361
0.17350000 0.17350400 8431.48677080 0 57.27137868 0 2080.44554412 0 464.18507337 0 -27.89340068 0 32508
0.17450000 0.17449800 8445.57076797 0 136.42765025 0 2078.50788728 0 291.83658694 0 -308.80935366 0 32791
0.17550000 0.17549800 8188.61532590 0 201.64917960 0 1902.44685034 0 -51.45253982 0 -19.98078520 0 33633
0.17650000 0.17650100 8106.23722925 0 265.61178561 0 1994.86754560 0 -231.48134436 0 117.12748086 0 33984
0.17750000 0.17750300 7884.66893731 0 205.46913166 0 1995.88619948 0 -89.62725843 0 369.36500532 0 34069
0.17850000 0.17849800 7804.04026798 0 39.01865121 0 2012.90436273 0 195.10875733 0 448.49891080 0 34536
