### header ###
fiducial parameters:
Omega_m = 0.31
Omega_nu = 0
Omega_de = 0.69
Omega_k = 0
H_0 = 100
w_de = -1
zeff = 0
beta = 0
fgrowth = 0
b_1 = 2
gamma = 0.55
Lx = 3500 Ly = 3500 Lz = 3500
nx = 700 ny = 700 nz = 700
xoffset = -685.467585 yoffset = -31.7331281 zoffset = 572.489161
bins = 400 dk = 0.001
kx_ny = 0.628318531 ky_ny = 0.628318531 kz_ny = 0.628318531
############################
A(data) = 8.03355598 (not used)
A(ran) = 8.02892586 (used)
Ngal = 477574
weighted Ngal = 0
Nran = 23820508
weighted Nran = 0
SN(data) = 3490.12851
SN(ran) = 69.9348561
SN(data+ran) = 3560.06337
############################
13 columns: k_central k_mean P_0(k) sigma^{lin}_{P_0(k)} P^img_1(k) sigma^{lin}_{P_1(k)} P_2(k) sigma^{lin}_{P_2(k)} P^img_3(k) sigma^{lin}_{P_3(k)} P_4(k) sigma^{lin}_{P_4(k)} N_modes
### header ###
0.00050000 0 0 0 0 0 0 0 0 0 0 0 0
0.00150000 0.00179520 46210.45835387 0 -43053.95999457 0 36519.84894934 0 -94225.26276018 0 71086.20763093 0 3
0.00250000 0.00253879 77593.52365010 0 -32590.83448744 0 -13351.34143607 0 -21203.28058121 0 -44828.63221650 0 6
0.00350000 0.00331552 84341.44128757 0 -13251.57978945 0 -15809.95116205 0 -40414.31775780 0 32357.87277326 0 7
0.00450000 0.00420575 80351.52903917 0 8563.03706197 0 -15253.67756316 0 -50619.90098965 0 30917.36331435 0 24
0.00550000 0.00557378 56434.75381465 0 19486.40589483 0 3563.94884030 0 -25102.95338234 0 12799.38604386 0 45
0.00650000 0.00659388 32380.79248563 0 10278.33947823 0 -20464.64579256 0 8875.01088606 0 16599.18647512 0 40
0.00750000 0.00754703 43642.34333543 0 -12826.29179317 0 -7585.88225208 0 8005.16904831 0 -11202.53535851 0 57
0.00850000 0.00846663 53616.62570181 0 -19769.19307070 0 -13238.62516941 0 -508.95380431 0 -10431.28150095 0 75
0.00950000 0.00948925 66397.96385622 0 -8771.98290362 0 -3632.37580768 0 -25812.57867997 0 -52919.06923824 0 112
0.01050000 0.01054430 71513.15647594 0 3446.07287028 0 -7301.15741936 0 -36603.99861796 0 1093.49394123 0 105
0.01150000 0.01145670 66853.25785276 0 6846.51668999 0 -4484.34691318 0 -4345.64390017 0 8565.34010553 0 144
0.01250000 0.01249090 76801.96314881 0 -15980.68641075 0 -4671.46920261 0 8244.37555369 0 2297.37453197 0 169
0.01350000 0.01339930 83448.79046069 0 -9433.33286504 0 -1897.77432927 0 24192.25466600 0 -6990.56763588 0 180
0.01450000 0.01448870 87854.91139902 0 1327.85962620 0 -16288.60776396 0 8535.89879384 0 -33614.91380992 0 267
0.01550000 0.01550050 74449.42629459 0 2949.40159589 0 -11968.74023596 0 -21101.08302314 0 -2256.48443642 0 238
0.01650000 0.01653350 73207.33289644 0 13318.23518486 0 -5712.30095254 0 -27229.61481026 0 -22014.10692768 0 315
0.01750000 0.01747870 73442.50907558 0 4509.76897096 0 15701.55310207 0 -33677.02955215 0 -9385.79937459 0 297
0.01850000 0.01844180 66146.84352933 0 4435.17471866 0 23613.17207799 0 -18959.91684971 0 -7880.70504502 0 388
0.01950000 0.01947590 65579.16543588 0 -775.77911672 0 18286.05516124 0 4013.00911797 0 -11032.98484857 0 399
0.02050000 0.02045430 68098.78367161 0 -2795.11982187 0 27398.57848699 0 9886.93279589 0 -20494.98396256 0 462
0.02150000 0.02154770 75375.73698892 0 -5812.01830985 0 24690.50928284 0 9497.12052832 0 -21209.92397610 0 571
0.02250000 0.02255340 75572.16003120 0 1078.53744486 0 26040.44712473 0 2586.79403041 0 -19883.12729308 0 510
0.02350000 0.02348930 74784.58556685 0 9169.62330484 0 25979.66006148 0 -1036.75270546 0 -10534.87417195 0 555
0.02450000 0.02439640 67060.08888037 0 5624.63028462 0 26285.47767297 0 -2407.12341557 0 -2041.93599841 0 592
0.02550000 0.02547300 65364.47305764 0 -514.57300916 0 27256.85272931 0 3649.07287351 0 -8755.70658614 0 837
0.02650000 0.02652900 63991.39405688 0 4741.98883938 0 31884.97378026 0 3062.67147879 0 -4736.47482162 0 723
0.02750000 0.02749970 61986.63892522 0 4308.98343270 0 30923.45309300 0 7794.66200886 0 -4233.29302024 0 826
0.02850000 0.02848090 59195.85945468 0 2573.26364948 0 26272.30160644 0 7020.04216454 0 986.92835101 0 831
0.02950000 0.02946900 58649.32950163 0 -720.34109359 0 20261.24718564 0 11293.32842203 0 3372.18724677 0 996
0.03050000 0.03053250 60248.83754493 0 -4119.05984508 0 20617.22242856 0 10650.77926815 0 -175.14535568 0 1041
0.03150000 0.03150510 63050.02500080 0 -2042.95465229 0 16895.37116402 0 2162.98972565 0 6260.35888641 0 1036
0.03250000 0.03246190 63370.01518806 0 2763.06544152 0 18029.95228819 0 3779.61558312 0 -8126.72103017 0 1059
0.03350000 0.03345080 56327.68443366 0 6230.99508099 0 12102.16175003 0 -2968.96639385 0 5558.08561246 0 1302
0.03450000 0.03451200 54789.18490011 0 3828.57740347 0 15432.38488573 0 -794.29536552 0 -4871.38002721 0 1339
0.03550000 0.03553350 51020.05480859 0 1270.34997109 0 15931.96818155 0 203.19819784 0 -2104.45034433 0 1365
0.03650000 0.03647120 49832.21580205 0 985.11138251 0 18902.78365364 0 -122.30932888 0 -10233.88409408 0 1308
0.03750000 0.03744890 49280.03896334 0 1937.24716724 0 16719.65336915 0 -3557.08399891 0 -4319.20318851 0 1579
0.03850000 0.03847530 48654.78478083 0 3554.98025720 0 19835.07340337 0 -3920.79879688 0 811.97343932 0 1662
0.03950000 0.03950240 43501.17119399 0 2989.78236451 0 17171.84711474 0 3230.17360864 0 -3065.82709136 0 1683
0.04050000 0.04050350 43559.41162254 0 415.68164727 0 20372.52405007 0 1011.78461300 0 -60.66039586 0 1822
0.04150000 0.04152450 43211.18700699 0 1417.13578121 0 21989.63708983 0 4514.57435993 0 332.22067725 0 1887
0.04250000 0.04250150 42699.09198413 0 1297.92005989 0 18992.35876142 0 3335.95859996 0 1413.62585425 0 1920
0.04350000 0.04349210 41447.36566338 0 1366.03700218 0 21937.92933293 0 -191.43938888 0 1950.34572751 0 2005
0.04450000 0.04448520 41068.58143134 0 986.95381736 0 21116.14138489 0 685.44444746 0 4247.95277830 0 2151
0.04550000 0.04548030 41598.72434365 0 255.27355593 0 25599.32570396 0 -558.28986924 0 2810.88681241 0 2274
0.04650000 0.04648670 40272.37055363 0 1521.48137030 0 23521.16105875 0 -153.53992826 0 3749.42135334 0 2311
0.04750000 0.04749250 39337.09127620 0 608.74534620 0 22219.71999956 0 3290.01952429 0 3671.79328403 0 2568
0.04850000 0.04851840 39276.63638269 0 -1120.55248862 0 20940.20214352 0 5037.90779248 0 4812.07665548 0 2493
0.04950000 0.04949480 39109.00138493 0 229.48168249 0 17503.57396631 0 5938.35353604 0 -645.40359921 0 2644
0.05050000 0.05050630 37896.69254054 0 1911.37114414 0 16771.02895631 0 4810.96942300 0 1173.48927358 0 2829
0.05150000 0.05149060 35663.84751761 0 2722.64038361 0 14482.15796980 0 2558.72568699 0 3335.89216601 0 2784
0.05250000 0.05249300 33966.90301591 0 1387.31801048 0 13021.71832622 0 3340.14393874 0 6667.12288327 0 3055
0.05350000 0.05348950 34101.43176245 0 170.07755261 0 12219.63911635 0 2621.26217757 0 7859.62333857 0 3009
0.05450000 0.05448610 33521.13121871 0 -513.62743262 0 10688.01549652 0 2019.50346832 0 5499.25835070 0 3336
0.05550000 0.05550870 34213.15151987 0 782.61738453 0 11009.00219301 0 472.07742650 0 7393.21272791 0 3349
0.05650000 0.05647670 33207.56297984 0 803.88953497 0 13239.51095540 0 -1362.09525454 0 6205.19656417 0 3324
0.05750000 0.05747970 32348.12912742 0 1134.92436624 0 13188.35681474 0 -171.69411203 0 7247.46771632 0 3639
0.05850000 0.05849280 32602.68187500 0 612.68266491 0 13476.90159951 0 1537.22621620 0 6753.17699176 0 3846
0.05950000 0.05951020 31106.36789901 0 80.89927695 0 13134.21314637 0 2211.77438880 0 5187.50597311 0 3787
0.06050000 0.06049470 31752.54877542 0 346.93136801 0 14271.78379824 0 369.99612784 0 3861.90510117 0 3930
0.06150000 0.06148310 30938.06856177 0 721.88014674 0 12611.59941493 0 1445.02696743 0 2280.95427427 0 4083
0.06250000 0.06249100 30583.86489082 0 392.96898737 0 12066.39814086 0 744.64595380 0 4328.34892881 0 4303
0.06350000 0.06350600 29905.57427243 0 494.67936316 0 10237.75940777 0 688.51369590 0 4947.25866919 0 4470
0.06450000 0.06451750 30346.91713970 0 -288.06867481 0 10651.02285930 0 1123.23199123 0 4394.31784008 0 4479
0.06550000 0.06550280 30078.41326285 0 -85.97682366 0 8971.27367803 0 2599.57149325 0 4385.09459350 0 4636
0.06650000 0.06648880 29518.92868976 0 1.37173925 0 8454.34004923 0 -22.83611632 0 3165.42265310 0 4653
0.06750000 0.06749660 30627.93274359 0 -26.60015314 0 8663.49626505 0 334.82599528 0 1676.27247127 0 5220
0.06850000 0.06852730 29457.03439402 0 667.39212907 0 9916.32981828 0 -2253.04094340 0 588.81848323 0 5029
0.06950000 0.06949320 29622.56565006 0 1678.89661225 0 10929.22609269 0 -2178.45776342 0 3277.45243562 0 5040
0.07050000 0.07048030 28737.44400406 0 824.71657795 0 12061.30487145 0 -333.07213903 0 2769.84170431 0 5475
0.07150000 0.07148790 29095.85515844 0 -284.53438872 0 12195.61217150 0 440.99076734 0 2129.83918514 0 5509
0.07250000 0.07249820 29111.91002943 0 -322.66526094 0 12221.52141157 0 1577.06444089 0 2225.36013135 0 5916
0.07350000 0.07351270 29391.70767759 0 -200.33378741 0 12644.59494289 0 1962.29276598 0 2461.87606180 0 5721
0.07450000 0.07449140 29576.72622531 0 216.50491781 0 11875.84343074 0 602.46180187 0 2391.00211064 0 6028
0.07550000 0.07549160 28778.96522213 0 1272.35406189 0 12589.78693504 0 1461.45829746 0 1872.82838145 0 6183
0.07650000 0.07648840 27641.72674001 0 1345.56427359 0 12099.61511532 0 -351.47434288 0 2501.04994701 0 6330
0.07750000 0.07749960 26462.74559332 0 853.51126588 0 10918.48593762 0 652.24740318 0 1425.51753110 0 6583
0.07850000 0.07848650 25240.58237983 0 1306.70041347 0 10492.11285350 0 1374.54054764 0 1935.26522110 0 6549
0.07950000 0.07947320 24865.56273823 0 213.86749003 0 10252.66275697 0 2022.58157462 0 -357.10683452 0 6828
0.08050000 0.08048110 23644.61748047 0 567.83089153 0 7911.00999805 0 2314.20446570 0 806.50149640 0 7147
0.08150000 0.08149960 23208.03571288 0 834.40264771 0 7378.69691007 0 1058.50982373 0 -263.49143541 0 7386
0.08250000 0.08250610 22097.70298006 0 679.88281870 0 6050.81513922 0 1363.78932024 0 823.50194392 0 7227
0.08350000 0.08350160 22243.74694442 0 48.36347191 0 5460.13982712 0 1220.74595591 0 167.11127679 0 7798
0.08450000 0.08449610 21650.38105739 0 -303.92978011 0 4611.96652904 0 962.40093707 0 32.71905201 0 7371
0.08550000 0.08548940 22271.53847971 0 -81.53560346 0 4383.72162522 0 339.88826219 0 201.46316454 0 8256
0.08650000 0.08650700 21705.41051174 0 697.34498217 0 4613.56094381 0 -665.91618817 0 1168.83889716 0 8037
0.08750000 0.08749060 21809.37964178 0 535.85623192 0 4677.04965432 0 -676.12154996 0 1324.23897599 0 8155
0.08850000 0.08849210 20932.23006965 0 585.91642689 0 5949.20441436 0 -298.57298936 0 1549.87081114 0 8718
0.08950000 0.08949900 20799.58361832 0 1034.18835504 0 7089.75352160 0 -1535.39928260 0 1997.14844451 0 8571
0.09050000 0.09049190 20295.79283908 0 737.84090296 0 8755.40763337 0 -912.98736587 0 3406.43394743 0 8932
0.09150000 0.09150830 19899.07144082 0 294.48508704 0 8415.93015443 0 -29.74281110 0 3470.54270813 0 9285
0.09250000 0.09250820 20355.47266985 0 -648.39423415 0 8951.57601218 0 1038.32165389 0 2810.16711130 0 9204
0.09350000 0.09350330 20363.55546697 0 -288.01109872 0 8455.41406473 0 822.00939454 0 2449.67435985 0 9349
0.09450000 0.09448040 20513.03185202 0 377.89401713 0 8030.63539539 0 594.76432166 0 1900.71956767 0 9564
0.09550000 0.09549270 19553.28273674 0 560.13451855 0 7173.95855185 0 563.77177726 0 455.48444053 0 10155
0.09650000 0.09649430 18967.33530733 0 696.60756534 0 6791.76404376 0 366.69103888 0 1895.52664733 0 9913
0.09750000 0.09749140 18795.60354940 0 576.18828231 0 6336.09358817 0 1094.48823600 0 -18.20489502 0 10476
0.09850000 0.09850240 17872.17165952 0 183.24586852 0 5572.91145540 0 1220.91204078 0 1107.28784349 0 10575
0.09950000 0.09950330 17753.14416772 0 262.12843222 0 4753.62585277 0 1386.05576545 0 363.18886254 0 10882
0.10050000 0.10051200 17501.47022459 0 156.94023921 0 4745.17766893 0 960.91724555 0 1986.00968575 0 10875
0.10150000 0.10150300 17412.00584006 0 -127.13907696 0 4398.06028586 0 212.00180330 0 2378.90005961 0 11118
0.10250000 0.10250800 17418.64923495 0 323.38717651 0 4861.94640647 0 460.80801430 0 2465.36384412 0 11575
0.10350000 0.10349800 17442.67617981 0 123.23276077 0 5250.21962088 0 -237.96640500 0 2724.34552163 0 11364
0.10450000 0.10450100 17040.52934239 0 567.30827780 0 5600.76942464 0 -430.31704622 0 3016.84312636 0 12093
0.10550000 0.10551000 17067.76726145 0 485.08187200 0 5914.58125465 0 -401.56332590 0 3245.03266855 0 12067
0.10650000 0.10649700 16335.88659093 0 532.16914776 0 6069.54951281 0 -289.24234124 0 2754.36259421 0 12054
0.10750000 0.10749900 16165.15134223 0 380.46611819 0 6380.22787490 0 2.41910367 0 3033.29660104 0 12807
0.10850000 0.10850100 15837.52125085 0 400.32211828 0 6120.49327930 0 664.90860661 0 2786.07373249 0 12736
0.10950000 0.10950300 15456.52255384 0 55.14504942 0 5192.43315765 0 990.87452758 0 2136.62652025 0 12933
0.11050000 0.11050200 15254.67407239 0 -75.48546373 0 4861.02740351 0 635.13623241 0 1408.27792136 0 13428
0.11150000 0.11150900 15495.05424421 0 138.00213484 0 4709.48049371 0 540.55975551 0 773.46942976 0 13453
0.11250000 0.11250000 15259.54589531 0 137.44851860 0 4277.29443907 0 -136.49629867 0 1261.74677471 0 13668
0.11350000 0.11349100 15083.82810044 0 305.24185060 0 4647.55298100 0 -863.45864249 0 758.80302831 0 13791
0.11450000 0.11448600 15042.41760562 0 222.01782833 0 4959.88111949 0 -494.39591164 0 723.58085583 0 14205
0.11550000 0.11549300 14831.37909458 0 537.79056707 0 5318.04868272 0 -520.90084279 0 376.61848531 0 14776
0.11650000 0.11649800 14419.37788807 0 427.81470081 0 5712.83242413 0 -446.39959802 0 1164.88607720 0 14553
0.11750000 0.11747300 14383.50355566 0 221.94032206 0 5861.55589109 0 975.89256487 0 836.83855917 0 14568
0.11850000 0.11849100 14097.17323585 0 70.84029130 0 5364.58566393 0 988.42532933 0 886.06279361 0 16015
0.11950000 0.11950300 14029.96422420 0 -22.01897875 0 4613.60523311 0 917.15498894 0 1337.02751115 0 15270
0.12050000 0.12050700 13895.87837065 0 -8.72508054 0 4324.11930073 0 885.71401538 0 1104.32599660 0 15999
0.12150000 0.12150000 14052.10887384 0 5.37959974 0 3922.16069283 0 575.61473588 0 1507.86241078 0 15670
0.12250000 0.12250700 13878.05192769 0 0.42303367 0 3725.09545571 0 263.33088670 0 699.32692831 0 16887
0.12350000 0.12352200 13780.39402279 0 174.45776431 0 3546.37706081 0 -402.15901697 0 934.43778074 0 16407
0.12450000 0.12449800 13682.18250165 0 267.69891884 0 3663.65512529 0 121.10576717 0 120.44364214 0 16306
0.12550000 0.12549900 13330.63618866 0 371.94707147 0 3674.76066709 0 -387.40625138 0 328.19256548 0 17523
0.12650000 0.12650100 13256.67305887 0 44.83881876 0 3688.86680891 0 149.91042018 0 210.80709945 0 17154
0.12750000 0.12750600 13094.35277703 0 35.23678795 0 3643.56992807 0 176.54600477 0 357.21202160 0 18007
0.12850000 0.12850300 13321.66760555 0 137.73639905 0 3621.60243563 0 572.33289881 0 372.95243856 0 17496
0.12950000 0.12949900 12961.92777220 0 127.24426405 0 3571.32300863 0 241.24270592 0 420.01867690 0 18405
0.13050000 0.13049000 12743.02791053 0 310.57428223 0 2994.43274093 0 462.42235926 0 874.69262326 0 18100
0.13150000 0.13148800 12597.20539267 0 281.98443232 0 3380.55792433 0 -309.75160850 0 295.63550159 0 19059
0.13250000 0.13249300 12214.43512369 0 237.60323275 0 3245.82987594 0 -138.98646452 0 412.53599979 0 18957
0.13350000 0.13349100 12409.30804050 0 28.80686748 0 3251.63177414 0 -499.79809892 0 -142.95146404 0 19468
0.13450000 0.13450700 12103.26898251 0 283.19906635 0 3219.57739379 0 -497.57699056 0 -739.90699877 0 19953
0.13550000 0.13551000 12071.26996378 0 316.35957195 0 3728.18463434 0 -712.59600238 0 -1020.81187942 0 19956
0.13650000 0.13649900 11738.54660298 0 269.08406667 0 3575.71872158 0 -213.86195387 0 -1473.56034849 0 19723
0.13750000 0.13749600 11684.07076488 0 343.47237373 0 3862.02689674 0 -26.90884956 0 -726.67114169 0 20946
0.13850000 0.13851100 11361.53394291 0 164.62111094 0 3617.52782010 0 422.23424910 0 -1283.82499040 0 20955
0.13950000 0.13949800 11217.70444352 0 73.46830759 0 3850.09093059 0 747.89457390 0 -853.81907651 0 20506
0.14050000 0.14048300 11142.19118825 0 19.69323692 0 3421.73590033 0 503.56822552 0 -809.51870491 0 21447
0.14150000 0.14148400 11092.36572657 0 80.17946511 0 3364.68021054 0 740.11183678 0 -92.86380970 0 21771
0.14250000 0.14249400 11147.06301117 0 85.97804162 0 3180.06026651 0 248.52608118 0 53.56281420 0 22470
0.14350000 0.14350900 11048.43074169 0 78.27934345 0 3158.74604124 0 132.01089988 0 536.02453126 0 22519
0.14450000 0.14449900 11107.31336507 0 -59.20527093 0 3047.72384028 0 101.29560650 0 581.61815040 0 22218
0.14550000 0.14550500 10894.96831970 0 177.73517245 0 2884.69492965 0 199.06711345 0 525.45931892 0 23559
0.14650000 0.14650700 10792.92577417 0 308.08965254 0 3160.41796229 0 206.17665322 0 625.58967395 0 23044
0.14750000 0.14750500 10557.25134041 0 324.17774051 0 2898.72356520 0 150.74305901 0 43.21561594 0 23649
0.14850000 0.14849900 10345.22739246 0 260.17305966 0 2709.54182335 0 6.04812456 0 459.35975422 0 23640
0.14950000 0.14949500 10042.79791236 0 150.31345281 0 2597.24630503 0 227.70900329 0 617.10827314 0 24457
0.15050000 0.15050000 9988.13384473 0 73.23025261 0 2562.43491580 0 331.89847260 0 525.90996254 0 24591
0.15150000 0.15149900 9929.69411434 0 143.19394795 0 2547.59800055 0 331.98372950 0 178.67853453 0 25020
0.15250000 0.15250500 9815.00697386 0 83.52330721 0 2491.59418162 0 51.64198729 0 333.38327136 0 25297
0.15350000 0.15350100 9625.14982020 0 36.62891135 0 2460.27057470 0 -104.63501966 0 483.59153708 0 25452
0.15450000 0.15450400 9768.79109007 0 131.91678512 0 2688.30510434 0 -84.12708108 0 462.36367594 0 26061
0.15550000 0.15549900 9721.81121587 0 36.39672470 0 2507.37224448 0 93.85057529 0 587.61602875 0 26128
0.15650000 0.15649500 9578.22530762 0 106.08427626 0 2692.75617892 0 -0.90709689 0 222.04218745 0 26331
0.15750000 0.15749700 9564.89422854 0 170.33332331 0 2561.96987816 0 -219.62067001 0 -213.13339490 0 27345
0.15850000 0.15849900 9345.70648643 0 155.43772473 0 2739.56996825 0 -16.96291235 0 -197.90009041 0 26980
0.15950000 0.15949700 9244.69366711 0 240.78874060 0 2620.61998273 0 -308.28895439 0 -217.75276881 0 27777
0.16050000 0.16050000 9044.97107203 0 56.54835587 0 2547.28797545 0 130.04999116 0 -111.15949778 0 28224
0.16150000 0.16150500 9102.97898175 0 -49.94681436 0 2895.12505963 0 155.54401905 0 -232.22429735 0 28075
0.16250000 0.16249700 9089.59254105 0 220.99363829 0 2520.54831102 0 132.29435140 0 -279.79764817 0 28590
0.16350000 0.16349900 8966.56793999 0 149.00470401 0 2510.93753307 0 60.62031404 0 97.34931921 0 29163
0.16450000 0.16449100 8829.18253364 0 133.16242166 0 2657.32473950 0 88.67415271 0 312.34253251 0 28996
0.16550000 0.16550500 8849.40059876 0 80.31078288 0 2791.76490745 0 234.74546571 0 560.72356623 0 30777
0.16650000 0.16650700 8652.10284281 0 81.33242629 0 2619.59025652 0 359.74536952 0 780.45717396 0 29211
0.16750000 0.16749900 8594.96964675 0 165.37845796 0 2437.25121141 0 425.35332300 0 679.12657891 0 30922
0.16850000 0.16850800 8384.51796892 0 139.88110836 0 2245.67784739 0 411.56938583 0 517.20490077 0 30867
0.16950000 0.16949900 8254.04169326 0 -19.47821237 0 2101.92585427 0 160.43466492 0 404.72226017 0 30852
0.17050000 0.17049200 8281.04709349 0 69.07680212 0 1985.31212928 0 -88.63340656 0 227.45101812 0 31257
0.17150000 0.17149500 8279.04300270 0 85.98568152 0 2014.60950075 0 -208.07444969 0 260.11991250 0 32608
0.17250000 0.17250900 8161.05630943 0 92.15507019 0 2129.24127960 0 -255.19494242 0 202.41649171 0 32361
0.17350000 0.17350400 8222.04267453 0 96.44105640 0 1942.38472596 0 30.93208951 0 367.48492457 0 32508
0.17450000 0.17449800 8111.81768096 0 91.90361769 0 1970.81845609 0 220.18535858 0 294.56591501 0 32791
0.17550000 0.17549800 8104.64281448 0 32.66778714 0 2042.20173420 0 368.74938406 0 200.89072535 0 33633
0.17650000 0.17650100 8005.06939738 0 130.25704363 0 1877.45661322 0 144.37757947 0 8.80932986 0 33984
0.17750000 0.17750300 7852.13844699 0 306.24057430 0 1946.22682267 0 -8.48439034 0 483.69340247 0 34069
0.17850000 0.17849800 7710.43483396 0 192.24434690 0 1963.14533500 0 -139.98408098 0 598.70828376 0 34536
