### header ###
fiducial parameters:
Omega_m = 0.31
Omega_nu = 0
Omega_de = 0.69
Omega_k = 0
H_0 = 100
w_de = -1
zeff = 0
beta = 0
fgrowth = 0
b_1 = 2
gamma = 0.55
Lx = 3500 Ly = 3500 Lz = 3500
nx = 700 ny = 700 nz = 700
xoffset = -685.467585 yoffset = -31.7331281 zoffset = 572.489161
bins = 400 dk = 0.001
kx_ny = 0.628318531 ky_ny = 0.628318531 kz_ny = 0.628318531
############################
A(data) = 8.08378597 (not used)
A(ran) = 8.08895875 (used)
Ngal = 480605
weighted Ngal = 0
Nran = 23820508
weighted Nran = 0
SN(data) = 3482.40675
SN(ran) = 70.4577643
SN(data+ran) = 3552.86452
############################
13 columns: k_central k_mean P_0(k) sigma^{lin}_{P_0(k)} P^img_1(k) sigma^{lin}_{P_1(k)} P_2(k) sigma^{lin}_{P_2(k)} P^img_3(k) sigma^{lin}_{P_3(k)} P_4(k) sigma^{lin}_{P_4(k)} N_modes
### header ###
0.00050000 0 0 0 0 0 0 0 0 0 0 0 0
0.00150000 0.00179520 35616.23652089 0 -26723.16667305 0 48616.80670671 0 -44078.81437978 0 -28507.36109433 0 3
0.00250000 0.00253879 69180.10691340 0 -26180.73348019 0 -607.61486184 0 4637.36644217 0 22979.06003563 0 6
0.00350000 0.00331552 71788.08230118 0 -3249.95985309 0 30985.56883524 0 -17791.78658134 0 37321.70671271 0 7
0.00450000 0.00420575 74370.14844889 0 17187.34836949 0 20770.02051106 0 -11119.49292237 0 3593.08012690 0 24
0.00550000 0.00557378 62682.64526332 0 20876.42555256 0 51784.70956057 0 9379.46600480 0 6554.47305057 0 45
0.00650000 0.00659388 51276.82202114 0 5658.73304507 0 42595.56574708 0 17880.47590314 0 -6629.26660472 0 40
0.00750000 0.00754703 55170.18359712 0 -5765.35953307 0 61070.95766272 0 31457.69276550 0 24281.16543430 0 57
0.00850000 0.00846663 64156.92531292 0 -7924.38536643 0 34339.92963905 0 30546.88332592 0 -4907.74154192 0 75
0.00950000 0.00948925 64165.56172628 0 -1792.38794164 0 48367.90084478 0 24315.37891799 0 5156.21558317 0 112
0.01050000 0.01054430 81768.67589271 0 -863.48410884 0 43361.10628504 0 16974.31683998 0 724.96046750 0 105
0.01150000 0.01145670 70437.36939656 0 -3909.28357907 0 35675.47345867 0 8026.01823594 0 30250.58791378 0 144
0.01250000 0.01249090 76174.71594783 0 6893.31940699 0 33748.77821698 0 11328.31696845 0 -13028.36172111 0 169
0.01350000 0.01339930 84347.64178947 0 -7034.95658607 0 24156.71250334 0 597.90554021 0 -24066.03016307 0 180
0.01450000 0.01448870 78227.85713896 0 -1294.75337499 0 34742.29792296 0 -6128.91931849 0 -6832.22231864 0 267
0.01550000 0.01550050 68385.55688441 0 11034.87821611 0 44911.89609914 0 -15711.85036416 0 6541.17518846 0 238
0.01650000 0.01653350 75753.63543498 0 9636.29965129 0 41508.15272664 0 1617.34555858 0 -32515.21050893 0 315
0.01750000 0.01747870 65860.62393277 0 136.49519143 0 49438.92682449 0 -1594.65836503 0 -17330.07063640 0 297
0.01850000 0.01844180 62500.61624330 0 6475.31700044 0 41186.28024416 0 -8184.03138343 0 -9950.57651894 0 388
0.01950000 0.01947590 63556.14096826 0 1789.88559623 0 51118.04488324 0 5958.02905724 0 -5646.01094385 0 399
0.02050000 0.02045430 68442.69008048 0 -3492.96416589 0 57956.97703072 0 3233.82747583 0 -8129.56661765 0 462
0.02150000 0.02154770 70033.11881743 0 -652.53417640 0 63231.50040458 0 16993.36123867 0 -1894.70729529 0 571
0.02250000 0.02255340 74500.02681901 0 -944.60217493 0 66672.44678847 0 6504.70295051 0 8950.14768228 0 510
0.02350000 0.02348930 68226.11540702 0 7821.35738399 0 60229.57169975 0 15273.71847108 0 4116.65715060 0 555
0.02450000 0.02439640 68116.61011457 0 7893.07283184 0 62015.86986274 0 16532.19890997 0 9129.65221224 0 592
0.02550000 0.02547300 60969.75661388 0 707.47726661 0 49148.49974450 0 11613.98294877 0 8093.59263431 0 837
0.02650000 0.02652900 60944.73315979 0 2856.09511464 0 48078.69172052 0 12454.48312576 0 14825.28931593 0 723
0.02750000 0.02749970 59827.09269259 0 1356.08298216 0 40558.81159669 0 12186.42214190 0 1581.05047783 0 826
0.02850000 0.02848090 58179.86292932 0 -4058.11776928 0 27235.15097267 0 10531.48604055 0 7833.64766454 0 831
0.02950000 0.02946900 63293.28397707 0 -5098.34054134 0 18958.92034047 0 8939.60682905 0 -452.24135659 0 996
0.03050000 0.03053250 64768.33908941 0 -1480.76843195 0 14812.11324939 0 5666.86013148 0 -9194.67997590 0 1041
0.03150000 0.03150510 62371.29148942 0 5415.09760976 0 10968.79858159 0 -3618.64612491 0 -2117.16137322 0 1036
0.03250000 0.03246190 58366.32087927 0 5041.03018808 0 13341.92995997 0 -5762.20392050 0 -644.75808268 0 1059
0.03350000 0.03345080 55783.59039207 0 1919.08855454 0 15394.73898135 0 -3982.71523727 0 3242.34209362 0 1302
0.03450000 0.03451200 55426.61863992 0 1546.70412624 0 20597.40296713 0 -2347.56538037 0 -2015.63922696 0 1339
0.03550000 0.03553350 54968.33511567 0 1197.29477194 0 20767.58459960 0 3343.24418969 0 -6476.82283662 0 1365
0.03650000 0.03647120 51776.73748670 0 2361.51650965 0 22339.41183085 0 -2386.78355488 0 -2826.44342878 0 1308
0.03750000 0.03744890 51995.85879486 0 2463.44833193 0 22530.63088047 0 -1524.28266848 0 -5014.35695759 0 1579
0.03850000 0.03847530 51814.38339108 0 989.28675620 0 26734.68189086 0 -546.96509541 0 -1912.87698032 0 1662
0.03950000 0.03950240 49819.92552150 0 586.64055694 0 22609.68727968 0 5095.31779667 0 -3882.33354046 0 1683
0.04050000 0.04050350 48407.65049088 0 -1548.69714471 0 19955.98319039 0 8389.27906859 0 -2041.78098586 0 1822
0.04150000 0.04152450 50218.30776847 0 -555.47639150 0 17292.31400877 0 6020.62090944 0 -9859.28520081 0 1887
0.04250000 0.04250150 49858.12504212 0 984.47915276 0 14971.99761977 0 3534.92827695 0 -3494.19319394 0 1920
0.04350000 0.04349210 47745.08257373 0 2914.15838599 0 12464.00532510 0 790.76107943 0 772.02227691 0 2005
0.04450000 0.04448520 45933.98240315 0 2442.51056569 0 10504.22597685 0 -1144.44656558 0 756.31950585 0 2151
0.04550000 0.04548030 44785.33942646 0 1128.94531083 0 14031.51434968 0 -811.99669120 0 2132.45225380 0 2274
0.04650000 0.04648670 44472.65697358 0 1581.77017894 0 18158.61270258 0 1250.12083365 0 3530.55470865 0 2311
0.04750000 0.04749250 42118.56999389 0 1517.81643079 0 16480.82332281 0 2327.39160455 0 3109.18631535 0 2568
0.04850000 0.04851840 41169.11814069 0 1861.43495921 0 15576.76800137 0 413.64101781 0 799.28898401 0 2493
0.04950000 0.04949480 39942.85816703 0 203.65769932 0 16538.51013512 0 2697.88266531 0 3778.85159271 0 2644
0.05050000 0.05050630 40912.01875840 0 -132.20798726 0 16355.81677561 0 1001.25815379 0 2562.10274606 0 2829
0.05150000 0.05149060 40749.36630682 0 -513.58757225 0 12513.49861704 0 1530.84855710 0 -1947.74373117 0 2784
0.05250000 0.05249300 41321.47333020 0 442.96717732 0 14451.37690680 0 -2905.17873057 0 -1216.93707617 0 3055
0.05350000 0.05348950 39591.64402378 0 1857.20533113 0 13592.71811711 0 -910.62674622 0 -514.38810133 0 3009
0.05450000 0.05448610 38492.60506228 0 1963.95361471 0 12035.17418488 0 993.34254878 0 -4250.59906393 0 3336
0.05550000 0.05550870 37465.53621210 0 987.71116438 0 14828.61101337 0 -932.42040316 0 -3441.88753150 0 3349
0.05650000 0.05647670 36435.81000397 0 1652.40053896 0 13113.61862221 0 708.91556161 0 -5683.93365635 0 3324
0.05750000 0.05747970 35719.98420444 0 1243.74317455 0 14390.58984355 0 -3019.60013524 0 -5076.49484448 0 3639
0.05850000 0.05849280 34471.57958114 0 988.86932955 0 14826.28582516 0 -1013.01696275 0 -4902.83650202 0 3846
0.05950000 0.05951020 34751.59867580 0 -747.97761633 0 18227.59328620 0 139.82574674 0 -4903.52298616 0 3787
0.06050000 0.06049470 34309.92363879 0 695.34421308 0 16490.56696865 0 1259.77590089 0 -7241.25614210 0 3930
0.06150000 0.06148310 34102.76044143 0 1441.73848696 0 17469.02831287 0 2270.45771034 0 -4609.30917108 0 4083
0.06250000 0.06249100 32725.03106425 0 17.94602407 0 15906.72328096 0 2023.42307131 0 -1706.98710032 0 4303
0.06350000 0.06350600 33358.36804387 0 -462.77888812 0 16824.95117817 0 3097.79289311 0 -3752.36659174 0 4470
0.06450000 0.06451750 32987.77733219 0 62.16645348 0 14937.56268959 0 713.57590312 0 -4277.05084792 0 4479
0.06550000 0.06550280 32419.98851549 0 1413.01687638 0 15402.37888547 0 -305.27506757 0 -2180.21826307 0 4636
0.06650000 0.06648880 32089.14744991 0 1209.68470341 0 15217.69250750 0 468.31505053 0 -3520.05814472 0 4653
0.06750000 0.06749660 31435.21594612 0 -83.38047422 0 13564.92658182 0 259.77667043 0 -5497.16568131 0 5220
0.06850000 0.06852730 30467.05186398 0 1371.51780296 0 12431.12052039 0 -851.87699073 0 -6601.89581777 0 5029
0.06950000 0.06949320 29544.50576009 0 1102.10488824 0 12386.05615838 0 1576.17865491 0 -4756.83682696 0 5040
0.07050000 0.07048030 28959.88700967 0 42.41774421 0 11135.65851661 0 1273.20663090 0 -5841.12745180 0 5475
0.07150000 0.07148790 28157.47563006 0 -245.26528152 0 9723.04024392 0 1949.05026550 0 -6503.01995714 0 5509
0.07250000 0.07249820 28185.93150484 0 510.48510683 0 8924.88063704 0 2016.66895317 0 -6265.99469974 0 5916
0.07350000 0.07351270 27511.29475364 0 1127.67199348 0 9679.02775277 0 956.77951776 0 -3570.24899312 0 5721
0.07450000 0.07449140 26357.00489130 0 1127.38411303 0 7700.20400583 0 755.82235847 0 -3018.43754114 0 6028
0.07550000 0.07549160 25615.71274469 0 771.80968827 0 8977.80634968 0 852.43282144 0 -2551.60618213 0 6183
0.07650000 0.07648840 24838.65698892 0 362.61753058 0 7990.46500095 0 -334.16497749 0 -2491.95956833 0 6330
0.07750000 0.07749960 25504.32515701 0 -300.73209270 0 8808.55479250 0 278.80778233 0 -3526.20328499 0 6583
0.07850000 0.07848650 25389.94804164 0 -259.67591227 0 9085.00859857 0 -837.60697851 0 -4249.20395100 0 6549
0.07950000 0.07947320 25724.33225116 0 28.25756945 0 8576.96604659 0 -37.43608383 0 -4621.96483835 0 6828
0.08050000 0.08048110 25475.75855898 0 341.22579903 0 8263.39780773 0 -435.05267954 0 -3991.13020413 0 7147
0.08150000 0.08149960 25676.72125444 0 492.15708756 0 8887.98765075 0 -66.82103739 0 -5245.27029169 0 7386
0.08250000 0.08250610 25109.70750048 0 101.13251115 0 7402.25881728 0 974.40555164 0 -4321.31800255 0 7227
0.08350000 0.08350160 24518.99897140 0 1002.84260347 0 7946.82896884 0 -81.13046709 0 -3344.46214542 0 7798
0.08450000 0.08449610 24345.82781124 0 715.66857251 0 7495.87532363 0 171.84469565 0 -3149.82174743 0 7371
0.08550000 0.08548940 23126.54340221 0 797.47755167 0 7627.92386941 0 283.68181971 0 -2314.49234614 0 8256
0.08650000 0.08650700 22983.93185855 0 600.69133713 0 7562.30927254 0 616.71077668 0 -3592.37149811 0 8037
0.08750000 0.08749060 22356.68465757 0 485.49265525 0 7300.53736917 0 320.89701066 0 -3287.62790213 0 8155
0.08850000 0.08849210 21859.31582672 0 421.65516651 0 8317.23145100 0 253.48648270 0 -3248.17720880 0 8718
0.08950000 0.08949900 21409.66871583 0 879.02522396 0 7898.89687470 0 435.69044545 0 -1890.87627090 0 8571
0.09050000 0.09049190 20546.91316596 0 709.02849932 0 7902.41787399 0 827.75482388 0 -1614.82106853 0 8932
0.09150000 0.09150830 20061.83461566 0 200.14555789 0 7687.14973487 0 1521.71388913 0 -652.99810681 0 9285
0.09250000 0.09250820 20203.89254308 0 -260.74549885 0 7083.65267063 0 1335.41095173 0 -257.97188148 0 9204
0.09350000 0.09350330 20113.43164931 0 322.11385916 0 7039.05334626 0 816.20860356 0 33.73183756 0 9349
0.09450000 0.09448040 19712.94566062 0 764.36797876 0 6782.27506139 0 339.09326927 0 2066.60513810 0 9564
0.09550000 0.09549270 19062.00368453 0 864.79950103 0 6924.33298881 0 561.98581126 0 1807.54595432 0 10155
0.09650000 0.09649430 18251.50950781 0 156.61803456 0 6527.52301196 0 609.08969551 0 3291.46999884 0 9913
0.09750000 0.09749140 18497.86873502 0 -90.32093958 0 6585.64164493 0 885.97642948 0 1612.65089286 0 10476
0.09850000 0.09850240 18394.34249797 0 272.61724552 0 6963.71724819 0 180.30395181 0 2309.79768042 0 10575
0.09950000 0.09950330 17886.23351204 0 766.25359568 0 7243.00556942 0 -780.41399189 0 1842.52342842 0 10882
0.10050000 0.10051200 17233.29851749 0 694.91682134 0 6788.46449096 0 -128.36367609 0 2679.25901497 0 10875
0.10150000 0.10150300 16929.91681745 0 438.52828230 0 6991.33162629 0 -32.14738788 0 2833.27505319 0 11118
0.10250000 0.10250800 16571.83783282 0 59.58726614 0 7317.45588150 0 697.19218409 0 2532.79430227 0 11575
0.10350000 0.10349800 16667.94561225 0 10.15334400 0 6794.64284821 0 812.64442220 0 2475.43965970 0 11364
0.10450000 0.10450100 16687.21145743 0 -172.43042163 0 6278.58393306 0 848.15447513 0 1683.56913332 0 12093
0.10550000 0.10551000 16603.72612830 0 -27.49368976 0 5959.42417017 0 323.05722123 0 1583.60818486 0 12067
0.10650000 0.10649700 16665.95259378 0 -198.45259942 0 5324.59242669 0 -132.02086498 0 86.67449085 0 12054
0.10750000 0.10749900 16655.32316195 0 403.34375573 0 6127.61278416 0 -785.17952049 0 277.76698380 0 12807
0.10850000 0.10850100 16445.61332989 0 578.54890196 0 5899.00249363 0 -1229.88062388 0 -87.81028993 0 12736
0.10950000 0.10950300 16140.57078113 0 371.22404866 0 6264.96497354 0 -219.50994676 0 262.86584905 0 12933
0.11050000 0.11050200 15739.64189945 0 328.78272040 0 6315.46584703 0 244.43596439 0 -20.60083539 0 13428
0.11150000 0.11150900 15624.26827484 0 520.11027880 0 6456.30581873 0 607.77651778 0 -275.56691285 0 13453
0.11250000 0.11250000 15263.64265550 0 62.05617313 0 6684.59501184 0 614.24829164 0 357.52647563 0 13668
0.11350000 0.11349100 14939.11281506 0 65.84213315 0 5915.63312551 0 1113.32226051 0 542.91483900 0 13791
0.11450000 0.11448600 15169.30644804 0 -176.78295252 0 5598.99785267 0 1034.65007098 0 376.19441527 0 14205
0.11550000 0.11549300 14945.31331696 0 68.82623541 0 4779.85619026 0 620.46097309 0 621.86383665 0 14776
0.11650000 0.11649800 15015.06896332 0 106.17163690 0 4695.36327957 0 387.23020142 0 394.94761182 0 14553
0.11750000 0.11747300 14728.84936676 0 318.58510924 0 4524.22942717 0 242.97220305 0 394.06514753 0 14568
0.11850000 0.11849100 14534.75151269 0 286.76767664 0 4697.48916593 0 -452.46501755 0 733.04105015 0 16015
0.11950000 0.11950300 14259.60424094 0 222.37214273 0 4874.97853278 0 527.19324499 0 857.10977144 0 15270
0.12050000 0.12050700 14094.62660114 0 363.63729169 0 4773.78855626 0 124.46843222 0 1369.43620589 0 15999
0.12150000 0.12150000 13990.21457810 0 324.06923172 0 4720.12099786 0 386.99878983 0 993.23625446 0 15670
0.12250000 0.12250700 13738.09774198 0 160.88641578 0 4810.53760233 0 -207.20084326 0 724.29612801 0 16887
0.12350000 0.12352200 13643.87225778 0 172.55996783 0 4658.42600397 0 42.37234768 0 1247.06487200 0 16407
0.12450000 0.12449800 13553.41136401 0 165.66744563 0 4365.90625459 0 27.92661766 0 804.92590457 0 16306
0.12550000 0.12549900 13464.05770272 0 -59.89839846 0 4188.61618959 0 293.92593464 0 255.47064331 0 17523
0.12650000 0.12650100 13490.52055904 0 -147.73249389 0 4286.00835870 0 -141.44894956 0 -118.27900264 0 17154
0.12750000 0.12750600 13558.17246368 0 -54.59143318 0 4382.47045252 0 420.32538030 0 -547.98817823 0 18007
0.12850000 0.12850300 13508.01483225 0 58.71520983 0 4002.04751640 0 -268.57473973 0 16.01656074 0 17496
0.12950000 0.12949900 13522.96247076 0 319.13761825 0 4441.28664196 0 -74.25078879 0 -504.13512855 0 18405
0.13050000 0.13049000 13179.72040138 0 252.14119524 0 4549.29717056 0 417.07122404 0 259.69473523 0 18100
0.13150000 0.13148800 12939.22950632 0 395.23881396 0 4014.21600138 0 29.06894941 0 47.67399825 0 19059
0.13250000 0.13249300 12857.84791890 0 230.43390243 0 4069.40046827 0 250.39508961 0 -234.08555515 0 18957
0.13350000 0.13349100 12446.06815890 0 230.93326428 0 3690.94840597 0 214.63258768 0 -459.41290138 0 19468
0.13450000 0.13450700 12205.35581734 0 345.58054438 0 3535.99122013 0 23.43656850 0 -248.83942797 0 19953
0.13550000 0.13551000 12106.70140320 0 119.22125748 0 3604.10816242 0 -133.49902034 0 -211.36293016 0 19956
0.13650000 0.13649900 11882.37610238 0 -7.53483883 0 3891.86681213 0 343.27417912 0 -432.10190498 0 19723
0.13750000 0.13749600 11840.52271456 0 210.90675038 0 3687.57134690 0 730.75904401 0 -275.69867352 0 20946
0.13850000 0.13851100 11632.58445447 0 337.36820106 0 3443.43765697 0 605.17341422 0 189.74975211 0 20955
0.13950000 0.13949800 11429.40729405 0 263.10833297 0 3204.61868296 0 452.38861851 0 1043.49242958 0 20506
0.14050000 0.14048300 11246.60321129 0 66.90873020 0 3298.57843137 0 408.30747894 0 1387.47302302 0 21447
0.14150000 0.14148400 11106.20613259 0 136.51733608 0 3265.98150711 0 405.60693892 0 1340.73673997 0 21771
0.14250000 0.14249400 11070.85219945 0 179.38162715 0 3035.53321066 0 69.73040146 0 1374.79521111 0 22470
0.14350000 0.14350900 10749.96515388 0 367.91563800 0 3052.35207206 0 -42.13484631 0 1552.51709677 0 22519
0.14450000 0.14449900 10702.67525458 0 30.32654406 0 2873.24614579 0 -156.13971013 0 1028.27573358 0 22218
0.14550000 0.14550500 10685.38028321 0 -63.93415014 0 3200.05688514 0 -303.75151568 0 873.57764015 0 23559
0.14650000 0.14650700 10743.99717080 0 144.30893106 0 3251.69820809 0 -239.19100413 0 453.51799564 0 23044
0.14750000 0.14750500 10621.72548783 0 37.06383227 0 3256.41501846 0 -473.62644474 0 -73.76781398 0 23649
0.14850000 0.14849900 10642.12071014 0 194.09121068 0 3827.24872449 0 -505.48705941 0 238.56541778 0 23640
0.14950000 0.14949500 10441.16908701 0 339.06669569 0 3655.62768980 0 -125.43393894 0 -143.90479120 0 24457
0.15050000 0.15050000 10154.07477679 0 347.24914373 0 3968.05547921 0 39.17089568 0 167.14892269 0 24591
0.15150000 0.15149900 9899.82098198 0 228.03120794 0 3896.55040553 0 322.45931569 0 131.98875523 0 25020
0.15250000 0.15250500 9762.11447821 0 106.47679017 0 3676.45473278 0 691.74681474 0 352.44095684 0 25297
0.15350000 0.15350100 9755.21641984 0 2.80796372 0 3386.08301441 0 678.68922208 0 516.73654143 0 25452
0.15450000 0.15450400 9753.75487297 0 -13.08582709 0 3112.26442165 0 183.91131524 0 372.66455812 0 26061
0.15550000 0.15549900 9647.12838496 0 189.34671949 0 3041.36832584 0 139.84124799 0 205.37501690 0 26128
0.15650000 0.15649500 9459.28639442 0 269.45056062 0 3117.91130731 0 -316.49354708 0 442.59846891 0 26331
0.15750000 0.15749700 9296.73359375 0 146.92642865 0 3053.42608756 0 -146.30194953 0 376.13794641 0 27345
0.15850000 0.15849900 9156.25900878 0 70.25689050 0 3011.38447023 0 97.12621186 0 -86.67393723 0 26980
0.15950000 0.15949700 9301.37289785 0 -45.14751517 0 2906.68456674 0 38.17626874 0 -137.49612960 0 27777
0.16050000 0.16050000 9282.50565636 0 -182.60920984 0 2920.27030929 0 91.79267300 0 -497.02005262 0 28224
0.16150000 0.16150500 9358.61681717 0 21.30603176 0 2762.03571531 0 240.21630141 0 -453.35191077 0 28075
0.16250000 0.16249700 9406.07280134 0 116.51407407 0 2693.34301214 0 4.92969796 0 -330.03610757 0 28590
0.16350000 0.16349900 9304.15205138 0 177.29338669 0 2907.47070180 0 218.19012564 0 -337.60182712 0 29163
0.16450000 0.16449100 9035.85854870 0 175.11546040 0 2906.83957929 0 301.97772924 0 -231.22668089 0 28996
0.16550000 0.16550500 8882.56221159 0 271.49229732 0 2809.87923085 0 267.75981662 0 114.79564925 0 30777
0.16650000 0.16650700 8726.14347887 0 197.03423461 0 2642.53211354 0 65.75964433 0 -123.09324947 0 29211
0.16750000 0.16749900 8539.94019240 0 186.65503733 0 2700.42930002 0 -66.11506596 0 -95.99329159 0 30922
0.16850000 0.16850800 8378.00744193 0 171.25564797 0 2526.40557084 0 -160.09142286 0 77.85328039 0 30867
0.16950000 0.16949900 8318.99195064 0 143.58147932 0 2552.21516000 0 38.64761761 0 36.00830754 0 30852
0.17050000 0.17049200 8220.62541695 0 -5.22199626 0 2422.40322382 0 85.21748363 0 113.29977817 0 31257
0.17150000 0.17149500 8273.03073032 0 -18.19282619 0 2307.76037265 0 213.42791874 0 -91.85788899 0 32608
0.17250000 0.17250900 8297.15732610 0 33.60240208 0 2385.29986336 0 127.12689741 0 -8.24391052 0 32361
0.17350000 0.17350400 8283.16190753 0 74.84149732 0 2400.08141699 0 71.38383172 0 33.21431710 0 32508
0.17450000 0.17449800 8209.37593494 0 122.20967795 0 2570.18554318 0 -154.70695130 0 47.86577091 0 32791
0.17550000 0.17549800 8113.31244481 0 177.94222493 0 2384.90125966 0 -133.42926469 0 281.93682132 0 33633
0.17650000 0.17650100 8081.09197959 0 76.62690969 0 2579.39771743 0 71.00560111 0 289.43057076 0 33984
0.17750000 0.17750300 8003.47498261 0 67.63097795 0 2624.74995988 0 171.09842096 0 226.46004505 0 34069
0.17850000 0.17849800 7857.72997102 0 60.94484388 0 2479.51427524 0 230.39182759 0 193.35490108 0 34536
