### header ###
fiducial parameters:
Omega_m = 0.31
Omega_nu = 0
Omega_de = 0.69
Omega_k = 0
H_0 = 100
w_de = -1
zeff = 0
beta = 0
fgrowth = 0
b_1 = 2
gamma = 0.55
Lx = 3500 Ly = 3500 Lz = 3500
nx = 700 ny = 700 nz = 700
xoffset = -685.467585 yoffset = -31.7331281 zoffset = 572.489161
bins = 400 dk = 0.001
kx_ny = 0.628318531 ky_ny = 0.628318531 kz_ny = 0.628318531
############################
A(data) = 8.05895369 (not used)
A(ran) = 8.06381154 (used)
Ngal = 479495
weighted Ngal = 0
Nran = 23820508
weighted Nran = 0
SN(data) = 3480.481
SN(ran) = 70.238723
SN(data+ran) = 3550.71972
############################
13 columns: k_central k_mean P_0(k) sigma^{lin}_{P_0(k)} P^img_1(k) sigma^{lin}_{P_1(k)} P_2(k) sigma^{lin}_{P_2(k)} P^img_3(k) sigma^{lin}_{P_3(k)} P_4(k) sigma^{lin}_{P_4(k)} N_modes
### header ###
0.00050000 0 0 0 0 0 0 0 0 0 0 0 0
0.00150000 0.00179520 14931.14074119 0 -694.58908052 0 41688.96379093 0 -8546.86039541 0 -48023.55154292 0 3
0.00250000 0.00253879 40659.56975254 0 -17076.95729105 0 -7574.15666009 0 21523.71366146 0 29279.54502718 0 6
0.00350000 0.00331552 37623.20611752 0 -14119.09643899 0 -20812.75968486 0 18259.59230493 0 5749.21608348 0 7
0.00450000 0.00420575 48547.82612308 0 -16277.53543914 0 -39992.01928922 0 5011.86568451 0 -1408.79832063 0 24
0.00550000 0.00557378 56196.69883105 0 -4624.75506420 0 -29231.93403046 0 49.12513714 0 -2807.60940426 0 45
0.00650000 0.00659388 54644.46961473 0 10257.95532823 0 -14335.11749621 0 -8900.23364200 0 34522.51227531 0 40
0.00750000 0.00754703 48280.42947871 0 -906.90201615 0 -20129.26507380 0 3385.41867493 0 25335.47220353 0 57
0.00850000 0.00846663 44694.32491645 0 -5526.04230444 0 3846.61422060 0 12533.65024821 0 48488.14629231 0 75
0.00950000 0.00948925 56229.47291252 0 -8071.33726142 0 9397.83499167 0 -7074.11939896 0 10879.00202731 0 112
0.01050000 0.01054430 66077.75222246 0 -4057.75238256 0 18462.21584911 0 -4695.05325447 0 29516.93567129 0 105
0.01150000 0.01145670 72750.26732792 0 -5820.47756602 0 22899.45002018 0 141.74125893 0 37249.18298515 0 144
0.01250000 0.01249090 72420.97638782 0 -3126.51450369 0 23162.63918112 0 -17355.09409049 0 10985.07489908 0 169
0.01350000 0.01339930 79804.55619313 0 -6434.44904954 0 29775.69590230 0 -2893.63029578 0 -6529.91463412 0 180
0.01450000 0.01448870 84149.55789846 0 -2286.30220715 0 27126.97435919 0 -20905.54576684 0 -14666.73362452 0 267
0.01550000 0.01550050 83505.37004052 0 16295.47260535 0 36521.84196781 0 -19898.18565484 0 -10213.96498173 0 238
0.01650000 0.01653350 76610.96554569 0 9858.82016317 0 30473.69525887 0 -1772.77885439 0 218.70609598 0 315
0.01750000 0.01747870 68715.51216401 0 957.21908906 0 31320.83883075 0 17872.17165952 0 8502.59324079 0 297
0.01850000 0.01844180 80003.41514687 0 -1533.18481764 0 46173.80895872 0 19720.91773449 0 -5556.43583607 0 388
0.01950000 0.01947590 73631.84582998 0 2748.62712996 0 33490.90377195 0 21278.24022023 0 -4689.02990977 0 399
0.02050000 0.02045430 73343.19032196 0 8358.74159674 0 35975.09056826 0 10929.93472148 0 8901.20800658 0 462
0.02150000 0.02154770 64105.32827927 0 4039.83736101 0 30008.76833974 0 12886.08234719 0 26432.73959306 0 571
0.02250000 0.02255340 65591.45571643 0 -5010.97989853 0 25450.18148865 0 20087.07951624 0 16171.68401387 0 510
0.02350000 0.02348930 70776.62542900 0 -7551.81270861 0 18383.71306614 0 17085.37225791 0 11292.66408254 0 555
0.02450000 0.02439640 72368.05067518 0 586.27517022 0 18251.06661482 0 3863.54380524 0 5600.08294050 0 592
0.02550000 0.02547300 67024.21454796 0 7710.33518304 0 14363.68409424 0 -8254.92747924 0 3364.40340242 0 837
0.02650000 0.02652900 65893.73018398 0 4787.23035859 0 14653.33611149 0 -1157.32367934 0 9948.16275213 0 723
0.02750000 0.02749970 59866.17799920 0 929.46962860 0 20998.66401856 0 -3900.27070667 0 5293.52348325 0 826
0.02850000 0.02848090 61749.69117410 0 1768.85925140 0 22128.70548955 0 2100.03248673 0 3052.71745877 0 831
0.02950000 0.02946900 62025.50278533 0 -4001.29459831 0 27336.35202151 0 1162.50552736 0 -3108.90950723 0 996
0.03050000 0.03053250 63379.86955715 0 3613.55285549 0 31554.13271467 0 844.28026868 0 7679.06693775 0 1041
0.03150000 0.03150510 59647.27813754 0 6227.88375772 0 27777.25199579 0 2982.90645079 0 5997.36902732 0 1036
0.03250000 0.03246190 55709.18436929 0 2303.46431062 0 28966.97329755 0 6036.34361068 0 6794.66499286 0 1059
0.03350000 0.03345080 54282.51531641 0 1406.05238407 0 21690.13070349 0 5511.81436705 0 8601.91199441 0 1302
0.03450000 0.03451200 52126.95512071 0 540.02164052 0 24494.19696381 0 3990.93090228 0 -702.13376265 0 1339
0.03550000 0.03553350 53578.20473469 0 -1476.69381641 0 19072.96528610 0 2753.47680823 0 2325.79718978 0 1365
0.03650000 0.03647120 53349.00761095 0 -330.43692573 0 17557.38546493 0 158.49811531 0 721.79931877 0 1308
0.03750000 0.03744890 53645.19229985 0 1553.97864365 0 15467.48415541 0 -1790.45028480 0 -641.95457003 0 1579
0.03850000 0.03847530 53380.45301343 0 2798.31972374 0 24016.42614788 0 -1539.57354906 0 3282.95538105 0 1662
0.03950000 0.03950240 50456.25202883 0 4946.69398063 0 23587.92717740 0 508.55630785 0 5373.98606770 0 1683
0.04050000 0.04050350 48129.29224494 0 1590.90484692 0 22719.19257213 0 6175.43415505 0 9248.84578891 0 1822
0.04150000 0.04152450 45778.41623945 0 51.22256763 0 20011.67698423 0 5572.96681702 0 3920.48877179 0 1887
0.04250000 0.04250150 46712.14539140 0 -296.57997089 0 20326.90607182 0 684.40032723 0 706.53944070 0 1920
0.04350000 0.04349210 46778.80078681 0 552.19123273 0 18131.70695327 0 -366.65892914 0 -515.16870023 0 2005
0.04450000 0.04448520 43774.54689377 0 3098.21364145 0 16795.16662441 0 1010.63862738 0 2434.08452651 0 2151
0.04550000 0.04548030 43440.38413074 0 542.12981117 0 13138.42062981 0 705.31816327 0 -653.35131397 0 2274
0.04650000 0.04648670 41606.80714077 0 -861.16113510 0 14381.62126044 0 2601.91882611 0 -4291.03519417 0 2311
0.04750000 0.04749250 41846.08008010 0 890.26695535 0 14189.40570159 0 4782.14816150 0 -5748.25279122 0 2568
0.04850000 0.04851840 40497.69236369 0 413.88793065 0 11075.09289985 0 2719.10831199 0 -3551.27102838 0 2493
0.04950000 0.04949480 40495.36717548 0 777.49975600 0 11143.40914398 0 1277.81271802 0 -1018.60295062 0 2644
0.05050000 0.05050630 39462.98360939 0 1690.27896216 0 12591.66923026 0 -78.19707608 0 -2875.95886537 0 2829
0.05150000 0.05149060 38066.98489625 0 2490.28764729 0 11391.42921992 0 774.62648771 0 -568.93590955 0 2784
0.05250000 0.05249300 36531.25344390 0 1013.09004009 0 9610.47898981 0 2204.30056955 0 -1067.26138927 0 3055
0.05350000 0.05348950 36614.51732654 0 327.37432068 0 9339.41740593 0 1170.89834957 0 1434.82935627 0 3009
0.05450000 0.05448610 35697.28593856 0 40.37268582 0 10264.17797478 0 2091.73931544 0 -1888.77252919 0 3336
0.05550000 0.05550870 35618.34026261 0 817.89381140 0 7740.44083422 0 1757.01186385 0 782.99495081 0 3349
0.05650000 0.05647670 35106.68813274 0 622.70533334 0 8790.52904769 0 -576.59574386 0 1804.16889525 0 3324
0.05750000 0.05747970 34663.57369350 0 1328.18072362 0 10241.83402330 0 -936.35772187 0 3550.01985568 0 3639
0.05850000 0.05849280 33615.79959591 0 1353.63599838 0 11268.85858418 0 -1107.55357928 0 5217.02479108 0 3846
0.05950000 0.05951020 32799.76925677 0 135.35806368 0 11637.56700064 0 1812.80530861 0 5849.37633379 0 3787
0.06050000 0.06049470 33055.76140658 0 -340.54263659 0 12163.94532252 0 1502.53662254 0 6998.73901159 0 3930
0.06150000 0.06148310 33332.23735730 0 647.40436831 0 12223.40370679 0 850.86165855 0 1435.33868322 0 4083
0.06250000 0.06249100 32499.81997744 0 695.94654755 0 11525.95796647 0 112.48817676 0 5096.89006679 0 4303
0.06350000 0.06350600 31774.02908557 0 1083.36719295 0 11503.03825409 0 -1411.84320995 0 3281.92565485 0 4470
0.06450000 0.06451750 31932.36333048 0 -418.74535955 0 12008.82205181 0 -656.14486152 0 2832.92073880 0 4479
0.06550000 0.06550280 32181.60136215 0 335.06072857 0 14008.26246756 0 -660.87163699 0 2501.40426140 0 4636
0.06650000 0.06648880 31730.84701878 0 569.09202933 0 12676.92613136 0 56.35160066 0 2782.36450368 0 4653
0.06750000 0.06749660 31752.77022192 0 -464.79183677 0 13454.75694987 0 1873.39307002 0 4320.78653095 0 5220
0.06850000 0.06852730 32082.94694801 0 -76.79631626 0 13932.63848905 0 1894.31976392 0 3933.86414017 0 5029
0.06950000 0.06949320 30896.99023669 0 1233.84451617 0 11960.76816209 0 2739.63640220 0 2510.26212126 0 5040
0.07050000 0.07048030 30564.37759914 0 628.84272298 0 11326.98828948 0 1782.69965743 0 3382.80560627 0 5475
0.07150000 0.07148790 30116.83422997 0 -271.44025739 0 9542.67207263 0 949.90692575 0 3709.72706886 0 5509
0.07250000 0.07249820 30221.91059250 0 81.74841354 0 9262.17686799 0 174.37582910 0 2718.00107951 0 5916
0.07350000 0.07351270 29372.33110916 0 716.06939067 0 9417.02333058 0 -662.42176246 0 2624.92711708 0 5721
0.07450000 0.07449140 29467.99599559 0 1761.28578123 0 10721.23247097 0 -689.40612528 0 2726.21674452 0 6028
0.07550000 0.07549160 27929.49646204 0 1285.90658746 0 11486.65121336 0 -1444.94946116 0 4619.28533574 0 6183
0.07650000 0.07648840 27676.38311669 0 992.05483740 0 13152.92537532 0 -696.28203899 0 4988.28163265 0 6330
0.07750000 0.07749960 26773.10285798 0 785.82392980 0 13888.34918977 0 602.06209094 0 4621.46658373 0 6583
0.07850000 0.07848650 26348.03630820 0 855.09571556 0 13910.05094642 0 2681.53991388 0 5579.55485029 0 6549
0.07950000 0.07947320 25389.06225565 0 141.15331849 0 11995.53526203 0 2258.11206816 0 5249.15667770 0 6828
0.08050000 0.08048110 24952.14831831 0 480.31855787 0 10534.34270036 0 3181.54395804 0 4350.80360354 0 7147
0.08150000 0.08149960 24479.91366479 0 267.23609566 0 8681.27841871 0 1000.01805341 0 1890.21193142 0 7386
0.08250000 0.08250610 23453.17698436 0 835.09356077 0 8464.07262274 0 756.88973058 0 2144.41036460 0 7227
0.08350000 0.08350160 22908.30788003 0 690.02396100 0 7760.08313845 0 -696.55663264 0 1874.37850692 0 7798
0.08450000 0.08449610 22249.72599982 0 85.44014808 0 7848.08597611 0 301.73413810 0 1128.83458759 0 7371
0.08550000 0.08548940 23051.58376319 0 -142.08339377 0 7704.62186343 0 647.13420358 0 1583.16529187 0 8256
0.08650000 0.08650700 22739.34420330 0 129.58163182 0 7663.53246603 0 618.07820879 0 1512.43528093 0 8037
0.08750000 0.08749060 22696.05141326 0 454.04946723 0 8374.63038286 0 274.62465801 0 1765.17216724 0 8155
0.08850000 0.08849210 22577.90970745 0 424.71002093 0 8724.32761760 0 -564.69963808 0 910.21042681 0 8718
0.08950000 0.08949900 21517.84532931 0 1288.39786055 0 9070.54814236 0 -1113.14510332 0 2341.13235965 0 8571
0.09050000 0.09049190 20625.19450243 0 1067.45183326 0 9711.23714566 0 -108.46371886 0 2225.79195202 0 8932
0.09150000 0.09150830 20194.59179023 0 31.62809584 0 8985.93343609 0 529.86942589 0 2080.37911018 0 9285
0.09250000 0.09250820 20156.50299286 0 188.33470900 0 9725.25470888 0 1089.10708614 0 2104.67179083 0 9204
0.09350000 0.09350330 19820.79010436 0 233.34370939 0 9010.35898464 0 775.58202934 0 680.68113332 0 9349
0.09450000 0.09448040 19534.68123104 0 181.49201226 0 8508.02975227 0 294.45851346 0 1676.75965356 0 9564
0.09550000 0.09549270 19564.13361506 0 207.55626489 0 8784.59428159 0 117.35446352 0 1609.11882124 0 10155
0.09650000 0.09649430 19364.83176832 0 136.29478236 0 8340.32832057 0 127.64840390 0 938.61869060 0 9913
0.09750000 0.09749140 19428.49763603 0 503.56047489 0 8548.36623159 0 885.88342195 0 943.27681765 0 10476
0.09850000 0.09850240 18781.43097363 0 369.70271123 0 7279.25636087 0 60.35933935 0 1476.46129759 0 10575
0.09950000 0.09950330 18468.74852075 0 505.38851572 0 7753.12971846 0 824.63685722 0 1057.81005280 0 10882
0.10050000 0.10051200 18061.28696742 0 485.39078986 0 7234.41344536 0 561.97252447 0 464.07656459 0 10875
0.10150000 0.10150300 17519.85028379 0 653.15090489 0 7347.20721829 0 747.89125220 0 436.14883970 0 11118
0.10250000 0.10250800 16861.82201982 0 526.61637686 0 7447.24567302 0 -92.15396296 0 611.53225036 0 11575
0.10350000 0.10349800 16928.03452224 0 85.27849214 0 7189.49302357 0 -192.70384838 0 1548.54213216 0 11364
0.10450000 0.10450100 16804.79954700 0 113.35513980 0 7724.82885622 0 255.85153128 0 839.17592694 0 12093
0.10550000 0.10551000 16565.63733092 0 307.58586176 0 7559.67405923 0 465.76509412 0 1916.30940101 0 12067
0.10650000 0.10649700 16576.70965574 0 35.13126869 0 7052.59479951 0 488.96493632 0 903.05991944 0 12054
0.10750000 0.10749900 16180.09898074 0 251.33512999 0 6955.95554849 0 897.34327814 0 56.63992399 0 12807
0.10850000 0.10850100 15776.95563409 0 264.41043837 0 6142.38326547 0 203.42739496 0 -573.49327845 0 12736
0.10950000 0.10950300 15590.94057714 0 139.10272393 0 5934.65537955 0 507.16340939 0 -349.49461120 0 12933
0.11050000 0.11050200 15611.75654779 0 131.52593206 0 4875.99718666 0 519.20013370 0 -409.36820766 0 13428
0.11150000 0.11150900 15353.43920978 0 45.29743445 0 4542.47661847 0 495.28280486 0 -411.83401440 0 13453
0.11250000 0.11250000 15289.10900258 0 127.99164597 0 4493.81375090 0 247.18411541 0 -823.83079197 0 13668
0.11350000 0.11349100 15040.53531040 0 265.05263321 0 4662.68884903 0 371.04356977 0 -838.22924316 0 13791
0.11450000 0.11448600 14799.82296884 0 425.63788175 0 4164.03562850 0 -45.54501163 0 -608.90035875 0 14205
0.11550000 0.11549300 14668.28375000 0 79.13523416 0 4647.11008801 0 257.36733255 0 -168.42334728 0 14776
0.11650000 0.11649800 14674.26280540 0 -42.63686552 0 4054.43068512 0 261.55156410 0 -284.82669810 0 14553
0.11750000 0.11747300 14775.35313099 0 165.08504135 0 4118.07440818 0 254.02459769 0 -823.44879676 0 14568
0.11850000 0.11849100 14485.81183699 0 324.81329195 0 4089.02062785 0 -51.45752236 0 -424.00139214 0 16015
0.11950000 0.11950300 14361.80179902 0 163.11306030 0 3836.94808103 0 145.45159498 0 -234.34907648 0 15270
0.12050000 0.12050700 14050.89091811 0 -18.38637042 0 3740.82922928 0 488.56854709 0 -188.49857941 0 15999
0.12150000 0.12150000 14200.92091940 0 -22.90122159 0 3964.43482899 0 255.54482788 0 -102.08661338 0 15670
0.12250000 0.12250700 14286.17782051 0 249.50376746 0 4232.21900473 0 537.43514544 0 -204.85351040 0 16887
0.12350000 0.12352200 13929.64896135 0 291.59188856 0 4135.05935445 0 -380.71856719 0 262.34655702 0 16407
0.12450000 0.12449800 13666.68124690 0 224.45484703 0 4340.52848611 0 -242.92569929 0 867.46018068 0 16306
0.12550000 0.12549900 13616.30216898 0 234.98352070 0 4651.51687329 0 -442.30173060 0 539.43591454 0 17523
0.12650000 0.12650100 13424.30805662 0 260.19298984 0 4794.69310552 0 -2.54912598 0 150.61794174 0 17154
0.12750000 0.12750600 13234.08551624 0 174.86744033 0 5056.57573213 0 -68.21349296 0 46.26227683 0 18007
0.12850000 0.12850300 12973.00009702 0 218.95522329 0 4523.44329211 0 314.20489754 0 163.20385336 0 17496
0.12950000 0.12949900 13146.39270368 0 191.77930925 0 4729.33317211 0 111.89359292 0 103.63397077 0 18405
0.13050000 0.13049000 12643.04481742 0 277.84449007 0 4739.59721722 0 249.34875492 0 106.34857265 0 18100
0.13150000 0.13148800 12622.33957001 0 360.48721528 0 4744.08150877 0 200.88740365 0 44.10261988 0 19059
0.13250000 0.13249300 12239.56930103 0 419.34658679 0 4841.32973765 0 -91.88091943 0 554.76222655 0 18957
0.13350000 0.13349100 11974.16567513 0 263.08397385 0 4589.11325061 0 327.12297891 0 622.66547297 0 19468
0.13450000 0.13450700 11912.27137939 0 -123.06999759 0 4342.48828760 0 738.21957647 0 765.32905656 0 19953
0.13550000 0.13551000 12082.23156536 0 -165.32198910 0 4072.13533250 0 844.26808912 0 332.45762500 0 19956
0.13650000 0.13649900 12027.75572725 0 78.21634192 0 3828.96493484 0 304.61294255 0 125.76278699 0 19723
0.13750000 0.13749600 11783.61096500 0 360.62672658 0 3259.07237642 0 259.25405670 0 -191.55121936 0 20946
0.13850000 0.13851100 11518.42878559 0 208.93698379 0 3417.35125970 0 -223.70414340 0 147.46786533 0 20955
0.13950000 0.13949800 11356.77284324 0 -55.58052395 0 3163.61786416 0 230.16595217 0 138.87684850 0 20506
0.14050000 0.14048300 11627.38046181 0 -72.87649183 0 3288.81264088 0 223.77057735 0 -530.89804487 0 21447
0.14150000 0.14148400 11499.27366365 0 155.74664260 0 3176.64999047 0 -299.32258575 0 47.67975586 0 21771
0.14250000 0.14249400 11523.07916201 0 340.31233223 0 3663.51118507 0 -315.34534700 0 -423.47656394 0 22470
0.14350000 0.14350900 11263.21169852 0 143.15851651 0 3632.32044606 0 -65.84600846 0 26.65241452 0 22519
0.14450000 0.14449900 11117.49990391 0 149.01577634 0 3887.32715895 0 110.67508357 0 -263.77599415 0 22218
0.14550000 0.14550500 10933.48893775 0 151.78053585 0 3293.10870291 0 298.00055017 0 -257.52677403 0 23559
0.14650000 0.14650700 10907.24752793 0 61.34400119 0 3628.30119215 0 483.78530277 0 -445.09417092 0 23044
0.14750000 0.14750500 10650.94535302 0 164.18153964 0 2924.13455066 0 130.07767197 0 -44.31731226 0 23649
0.14850000 0.14849900 10709.61760224 0 178.03301799 0 2989.07373572 0 115.99256757 0 -600.44553152 0 23640
0.14950000 0.14949500 10284.49569083 0 345.26055419 0 3053.93541450 0 -186.23871791 0 -125.82036308 0 24457
0.15050000 0.15050000 10306.55176186 0 122.89726932 0 3296.86222103 0 105.21343791 0 201.27272055 0 24591
0.15150000 0.15149900 10044.23731459 0 19.09134535 0 3034.16024238 0 500.21109663 0 277.35509331 0 25020
0.15250000 0.15250500 10207.98592633 0 -53.63810601 0 3283.71937147 0 472.26344156 0 487.94849690 0 25297
0.15350000 0.15350100 10138.76175156 0 95.30603239 0 3078.70420512 0 307.97007144 0 536.29248152 0 25452
0.15450000 0.15450400 10145.69302690 0 229.31449039 0 3179.30734843 0 -28.78715874 0 564.59002206 0 26061
0.15550000 0.15549900 9751.68434823 0 288.50049547 0 2974.54684555 0 72.98035024 0 613.79432632 0 26128
0.15650000 0.15649500 9720.47146456 0 343.94294754 0 3447.57870646 0 -315.93660914 0 670.85555227 0 26331
0.15750000 0.15749700 9370.39777077 0 212.46794818 0 3347.62883032 0 -203.79056722 0 360.47282126 0 27345
0.15850000 0.15849900 9218.76228238 0 269.52363797 0 3590.44491359 0 -261.59696063 0 532.18464901 0 26980
0.15950000 0.15949700 9178.63617724 0 101.63807350 0 3335.07281397 0 -24.29057691 0 512.10941688 0 27777
0.16050000 0.16050000 9056.82953191 0 -126.16692684 0 3638.63167120 0 241.41543418 0 550.80387043 0 28224
0.16150000 0.16150500 9189.63099578 0 34.67907495 0 3490.76077325 0 222.76963919 0 59.80849119 0 28075
0.16250000 0.16249700 9227.23261087 0 5.34882975 0 3319.17295554 0 120.75588170 0 460.18353518 0 28590
0.16350000 0.16349900 9125.72153693 0 137.20382022 0 3179.41807167 0 11.57534054 0 243.41841774 0 29163
0.16450000 0.16449100 9088.33029602 0 112.84581285 0 3039.82927269 0 59.19209486 0 73.41593550 0 28996
0.16550000 0.16550500 8914.66088124 0 33.26126376 0 3072.73622205 0 118.71193054 0 -30.55507685 0 30777
0.16650000 0.16650700 8919.32232999 0 111.04102391 0 2783.74854428 0 -79.99167848 0 -426.60449571 0 29211
0.16750000 0.16749900 8672.81916255 0 281.27026737 0 2997.42226863 0 66.01696516 0 -459.34314573 0 30922
0.16850000 0.16850800 8478.11233061 0 203.24470160 0 2604.33259292 0 176.68219436 0 -104.97582582 0 30867
0.16950000 0.16949900 8451.90413777 0 37.05264922 0 2612.34895609 0 455.48554776 0 -94.15971460 0 30852
0.17050000 0.17049200 8446.25725211 0 -97.12200438 0 2649.93949885 0 365.48969164 0 -128.35149653 0 31257
0.17150000 0.17149500 8459.98693488 0 13.49195996 0 2476.86798961 0 311.28955442 0 -189.60249019 0 32608
0.17250000 0.17250900 8368.80634000 0 169.30138264 0 2264.96583723 0 139.93868445 0 119.76158694 0 32361
0.17350000 0.17350400 8428.78512354 0 19.89386745 0 2314.69164799 0 87.50236858 0 562.46524293 0 32508
0.17450000 0.17449800 8364.51027797 0 18.30432450 0 2080.50090575 0 142.42663584 0 546.26753895 0 32791
0.17550000 0.17549800 8320.81888424 0 189.15848997 0 2301.28306263 0 166.15241346 0 449.19536003 0 33633
0.17650000 0.17650100 8204.31588250 0 224.12821344 0 2117.78142341 0 -134.98603356 0 266.31155654 0 33984
0.17750000 0.17750300 8007.44994722 0 147.04711699 0 2389.50734679 0 -86.67227639 0 563.99654545 0 34069
0.17850000 0.17849800 7942.99794445 0 72.01606147 0 2409.91364143 0 8.03763310 0 616.19148464 0 34536
