### header ###
fiducial parameters:
Omega_m = 0.31
Omega_nu = 0
Omega_de = 0.69
Omega_k = 0
H_0 = 100
w_de = -1
zeff = 0
beta = 0
fgrowth = 0
b_1 = 2
gamma = 0.55
Lx = 3500 Ly = 3500 Lz = 3500
nx = 700 ny = 700 nz = 700
xoffset = -685.467585 yoffset = -31.7331281 zoffset = 572.489161
bins = 400 dk = 0.001
kx_ny = 0.628318531 ky_ny = 0.628318531 kz_ny = 0.628318531
############################
A(data) = 8.03113054 (not used)
A(ran) = 8.0256497 (used)
Ngal = 477162
weighted Ngal = 0
Nran = 23820508
weighted Nran = 0
SN(data) = 3493.00431
SN(ran) = 69.9063196
SN(data+ran) = 3562.91063
############################
13 columns: k_central k_mean P_0(k) sigma^{lin}_{P_0(k)} P^img_1(k) sigma^{lin}_{P_1(k)} P_2(k) sigma^{lin}_{P_2(k)} P^img_3(k) sigma^{lin}_{P_3(k)} P_4(k) sigma^{lin}_{P_4(k)} N_modes
### header ###
0.00050000 0 0 0 0 0 0 0 0 0 0 0 0
0.00150000 0.00179520 57257.98116492 0 -34725.35726598 0 10412.73535687 0 86056.76584848 0 -71708.69373223 0 3
0.00250000 0.00253879 96191.59692473 0 -22430.31561761 0 28752.94525881 0 -41018.86669290 0 114202.17264448 0 6
0.00350000 0.00331552 89592.04843982 0 5859.07569033 0 20148.75236548 0 -58458.77479150 0 -1356.14941611 0 7
0.00450000 0.00420575 75468.85524065 0 25457.15705329 0 25364.92458755 0 -18138.12890167 0 71816.09528297 0 24
0.00550000 0.00557378 52547.81418707 0 8927.15046363 0 36147.70811219 0 19074.18324183 0 19872.83003100 0 45
0.00650000 0.00659388 57451.08250976 0 -2835.00233587 0 26357.66923079 0 47746.30052946 0 -9226.08108909 0 40
0.00750000 0.00754703 56958.03188558 0 -9157.94200215 0 8509.62416705 0 31392.58749557 0 -23849.34476637 0 57
0.00850000 0.00846663 55352.10189389 0 -6269.36068649 0 -8399.89742809 0 -458.87035746 0 -12631.41887636 0 75
0.00950000 0.00948925 66102.77567655 0 -451.34560551 0 -1942.99370383 0 -21266.28210943 0 -6916.12839612 0 112
0.01050000 0.01054430 62652.74998631 0 6780.16024735 0 632.48441062 0 -22128.04115006 0 7206.41153589 0 105
0.01150000 0.01145670 60889.15008920 0 7707.58924648 0 11556.18541322 0 -33885.74287499 0 16539.50664435 0 144
0.01250000 0.01249090 58943.52117206 0 9388.46780488 0 29337.12111624 0 2030.86367359 0 16974.53828647 0 169
0.01350000 0.01339930 61649.04374150 0 -2587.75732267 0 30869.19870139 0 7435.54222569 0 -10292.88851304 0 180
0.01450000 0.01448870 60390.45257936 0 493.24217539 0 44018.47020952 0 13900.08585408 0 -2444.75824763 0 267
0.01550000 0.01550050 64072.33275131 0 -2064.96643403 0 31925.60921234 0 8559.53820733 0 -11575.11908866 0 238
0.01650000 0.01653350 64298.87251710 0 -2303.30929807 0 37959.14045252 0 17613.07925877 0 10354.42849438 0 315
0.01750000 0.01747870 64116.17915759 0 -90.18530360 0 26908.18522077 0 14341.20727486 0 -5848.52376478 0 297
0.01850000 0.01844180 66705.44231643 0 -3664.37482641 0 21486.06775708 0 11644.65328852 0 -1453.06547525 0 388
0.01950000 0.01947590 66423.76237304 0 -1583.25387047 0 21455.39741733 0 4388.56023117 0 -4376.33638457 0 399
0.02050000 0.02045430 72279.69352313 0 -722.46365825 0 28772.76472023 0 -8194.08505436 0 1146.45065637 0 462
0.02150000 0.02154770 72550.52258819 0 -276.14045928 0 26659.72225184 0 -8432.05145937 0 7964.75506272 0 571
0.02250000 0.02255340 73360.57387193 0 -1640.74138093 0 19608.64436083 0 4467.51697945 0 10269.57019697 0 510
0.02350000 0.02348930 83519.43189303 0 -783.63160948 0 36535.35020409 0 -3088.22640447 0 -3298.54521440 0 555
0.02450000 0.02439640 78626.23938593 0 1549.17325468 0 32166.43227715 0 1715.85603250 0 539.54774502 0 592
0.02550000 0.02547300 76909.91831579 0 4854.45044256 0 34904.06458856 0 -1243.59923433 0 -4309.83600171 0 837
0.02650000 0.02652900 70101.10289181 0 7337.29748757 0 25718.57464226 0 7300.81417729 0 4480.73733528 0 723
0.02750000 0.02749970 70024.70385056 0 740.34324837 0 41014.32703973 0 7980.99816323 0 -12352.06412119 0 826
0.02850000 0.02848090 62730.03481354 0 2241.94647393 0 23493.25880020 0 10426.57576290 0 -4143.72898478 0 831
0.02950000 0.02946900 64337.07203772 0 1734.50182749 0 29951.08152743 0 8079.79651759 0 -4404.70368076 0 996
0.03050000 0.03053250 59826.20690661 0 2152.96927169 0 17009.63755615 0 10861.45239248 0 -6770.58268638 0 1041
0.03150000 0.03150510 61010.05987622 0 2978.64360574 0 20123.50746490 0 1113.12295867 0 -3505.77484570 0 1036
0.03250000 0.03246190 56265.56869143 0 903.35887221 0 16646.46530210 0 -1217.60141566 0 -7175.63047290 0 1059
0.03350000 0.03345080 56234.12328894 0 365.20956182 0 16435.20534456 0 774.96308638 0 3090.91697940 0 1302
0.03450000 0.03451200 56436.85755637 0 -691.99040589 0 12689.54858166 0 -852.75281163 0 -14284.95986478 0 1339
0.03550000 0.03553350 54031.50571277 0 3071.70649584 0 16140.23861139 0 -701.53032095 0 -15952.23053597 0 1365
0.03650000 0.03647120 54545.70447735 0 2717.74641604 0 14056.09491078 0 -7137.70776039 0 -14717.77704194 0 1308
0.03750000 0.03744890 49783.71901934 0 3061.47566771 0 18331.89458599 0 -3227.22837024 0 -11884.14767435 0 1579
0.03850000 0.03847530 48650.90946715 0 2114.58152154 0 20152.18478618 0 -3124.52148522 0 -8135.83355349 0 1662
0.03950000 0.03950240 48084.33860618 0 -195.16965511 0 24284.93002474 0 -1805.48650190 0 -6581.14628106 0 1683
0.04050000 0.04050350 49526.73036030 0 287.91587672 0 24308.29263010 0 2333.50352785 0 -4464.87069382 0 1822
0.04150000 0.04152450 48058.42936610 0 3216.96432513 0 27204.36990967 0 2542.06183814 0 -816.63710253 0 1887
0.04250000 0.04250150 46974.89165935 0 1978.62444509 0 23330.71707187 0 9299.51274728 0 3410.47534599 0 1920
0.04350000 0.04349210 45204.09475110 0 346.62798631 0 22659.18057162 0 8365.97182485 0 3148.37127288 0 2005
0.04450000 0.04448520 44109.92761252 0 497.22821233 0 14880.20804703 0 11825.90724580 0 4087.18262193 0 2151
0.04550000 0.04548030 43981.71009112 0 369.70160400 0 12451.05070506 0 7997.18590211 0 2901.01553643 0 2274
0.04650000 0.04648670 40924.41976220 0 621.69996624 0 6035.92286234 0 2955.92319521 0 3975.49608149 0 2311
0.04750000 0.04749250 41120.39991149 0 1199.18813948 0 7213.38710053 0 -4154.86774355 0 3169.96230628 0 2568
0.04850000 0.04851840 38486.07239064 0 2643.32932093 0 7517.73209282 0 -6531.44261495 0 2813.48880874 0 2493
0.04950000 0.04949480 38066.54200326 0 1110.98599998 0 10120.06059494 0 -3749.18883452 0 1395.25686737 0 2644
0.05050000 0.05050630 37611.24800672 0 360.38977882 0 12933.36117416 0 672.82864056 0 849.24842082 0 2829
0.05150000 0.05149060 38708.07250325 0 -363.25308202 0 12493.01481613 0 653.92596763 0 -1572.69087259 0 2784
0.05250000 0.05249300 38140.72657954 0 690.47017569 0 14515.70711400 0 -392.72428899 0 -1472.92922597 0 3055
0.05350000 0.05348950 37735.92238417 0 1697.23238215 0 14934.35171539 0 -1745.62951393 0 -1102.47581112 0 3009
0.05450000 0.05448610 36236.84032698 0 1953.66742495 0 14490.90510640 0 -709.31195083 0 -539.29972494 0 3336
0.05550000 0.05550870 34378.79349916 0 1092.57383104 0 13826.34417079 0 1605.60889428 0 569.76079775 0 3349
0.05650000 0.05647670 34404.03839975 0 208.44094364 0 15142.95431497 0 -566.32837706 0 -529.49075238 0 3324
0.05750000 0.05747970 33584.02202368 0 1148.90871248 0 15122.91340705 0 1601.05816878 0 -1185.23701021 0 3639
0.05850000 0.05849280 32623.94073865 0 1102.04509769 0 15248.58429374 0 1830.80890876 0 376.22652501 0 3846
0.05950000 0.05951020 31738.48692291 0 -52.71854944 0 13417.55393848 0 3523.16946799 0 758.45092838 0 3787
0.06050000 0.06049470 31502.75712752 0 444.94912346 0 14108.79917691 0 243.93660254 0 -1531.51289659 0 3930
0.06150000 0.06148310 31498.32819759 0 1226.80251758 0 13775.63292312 0 2214.37638513 0 706.85278749 0 4083
0.06250000 0.06249100 30465.05884551 0 314.18939629 0 13714.95658311 0 721.17151795 0 3205.44910732 0 4303
0.06350000 0.06350600 29906.12788867 0 -53.06777056 0 11947.37064906 0 1220.05947177 0 2773.26305268 0 4470
0.06450000 0.06451750 31013.24964728 0 -836.47538691 0 12201.48050365 0 2175.09177667 0 1888.07497273 0 4479
0.06550000 0.06550280 30867.98074566 0 -84.67250380 0 11747.18301634 0 1990.23931383 0 2273.44723804 0 4636
0.06650000 0.06648880 32394.30072191 0 -75.49044627 0 11740.09672846 0 -612.55201148 0 3128.67360703 0 4653
0.06750000 0.06749660 30583.20055133 0 731.27944327 0 11444.35493255 0 -102.91283026 0 3812.65540038 0 5220
0.06850000 0.06852730 31270.68119932 0 1249.32362626 0 12520.03128868 0 -833.15590393 0 1783.76260061 0 5029
0.06950000 0.06949320 28718.06743563 0 1077.49553910 0 10386.53823635 0 1172.37096877 0 3736.84319234 0 5040
0.07050000 0.07048030 29042.59727606 0 353.48950600 0 10836.71681883 0 2552.91271646 0 1548.22103474 0 5475
0.07150000 0.07148790 28324.00339533 0 -498.53363942 0 8956.72464322 0 3087.28525686 0 1055.56347810 0 5509
0.07250000 0.07249820 28406.16004549 0 -175.28818867 0 7843.36916573 0 1051.96718700 0 -1474.92224444 0 5916
0.07350000 0.07351270 28897.77126743 0 119.33862413 0 7026.02121995 0 1696.65662126 0 482.13109744 0 5721
0.07450000 0.07449140 28043.65213092 0 772.82391323 0 5489.62542811 0 -1140.92556629 0 -875.19309234 0 6028
0.07550000 0.07549160 27703.06741950 0 997.35848099 0 7246.03938642 0 -805.94898739 0 -695.00872163 0 6183
0.07650000 0.07648840 26904.19918384 0 1039.19193862 0 7618.95528631 0 -1174.10932377 0 373.82493776 0 6330
0.07750000 0.07749960 25905.14331545 0 1233.88880547 0 7732.12551828 0 -519.52012389 0 -342.23559505 0 6583
0.07850000 0.07848650 24969.53186827 0 521.74123224 0 7139.76721281 0 1911.61473529 0 349.16354869 0 6549
0.07950000 0.07947320 24507.81592334 0 225.84110209 0 7381.37641268 0 1471.15765400 0 -1020.23058237 0 6828
0.08050000 0.08048110 24267.21430503 0 -100.00867018 0 6096.83172116 0 1300.11238021 0 -1253.71933922 0 7147
0.08150000 0.08149960 24045.32491566 0 818.82056499 0 6067.77794084 0 852.15158439 0 -1061.40634391 0 7386
0.08250000 0.08250610 23010.61616136 0 1223.45867549 0 6481.87181673 0 -1171.35231489 0 762.93079100 0 7227
0.08350000 0.08350160 22280.50706282 0 1300.64385180 0 6381.97730222 0 373.03769547 0 2169.04628732 0 7798
0.08450000 0.08449610 21583.50421548 0 627.02354001 0 7242.99449709 0 613.35364779 0 2054.38129150 0 7371
0.08550000 0.08548940 20900.67394392 0 396.16999648 0 7213.34281123 0 875.29052880 0 3217.61759230 0 8256
0.08650000 0.08650700 20968.54729506 0 313.22721126 0 7111.17847013 0 1632.13818454 0 2829.45510113 0 8037
0.08750000 0.08749060 20486.12610271 0 124.22484107 0 6638.40127269 0 988.19281051 0 3728.25106828 0 8155
0.08850000 0.08849210 20359.79087653 0 -325.67471882 0 5666.51688941 0 1140.19479285 0 2242.19006508 0 8718
0.08950000 0.08949900 20716.43045894 0 -253.99138071 0 5497.13246434 0 339.53284056 0 1866.93790465 0 8571
0.09050000 0.09049190 20760.49831171 0 450.85620876 0 5522.54344980 0 -849.52965787 0 1542.45235351 0 8932
0.09150000 0.09150830 20164.47506673 0 633.14099948 0 6211.41921071 0 -1390.88329907 0 854.80229895 0 9285
0.09250000 0.09250820 19929.40961083 0 529.30030840 0 6409.45881242 0 -998.69048167 0 1035.78276981 0 9204
0.09350000 0.09350330 19845.37066545 0 118.46501770 0 8133.60801620 0 -1331.28097457 0 -230.63320427 0 9349
0.09450000 0.09448040 19424.95449209 0 698.26509236 0 7996.02330801 0 -772.95345943 0 105.64359773 0 9564
0.09550000 0.09549270 19337.15095628 0 622.80055533 0 8182.73592142 0 130.80844541 0 -5.74472072 0 10155
0.09650000 0.09649430 18694.73467030 0 222.95122532 0 8351.19027122 0 110.57742567 0 137.95230938 0 9913
0.09750000 0.09749140 18672.03640442 0 -71.41970605 0 8369.83606621 0 1258.10397984 0 -108.91912358 0 10476
0.09850000 0.09850240 18384.37740563 0 20.39965125 0 7412.24605427 0 1780.96130243 0 496.69674074 0 10575
0.09950000 0.09950330 18157.50547010 0 221.33134419 0 6438.54580972 0 1691.72943672 0 64.81107826 0 10882
0.10050000 0.10051200 18040.02810377 0 239.66932856 0 5584.79205993 0 1044.20991623 0 22.47759444 0 10875
0.10150000 0.10150300 17552.07074901 0 617.48251772 0 4999.78577813 0 658.06590988 0 1581.02833318 0 11118
0.10250000 0.10250800 17108.29197028 0 504.02661977 0 5052.82221401 0 65.86516359 0 419.60235749 0 11575
0.10350000 0.10349800 16437.19836303 0 730.80554777 0 4334.19511631 0 -535.72557849 0 1527.17254526 0 11364
0.10450000 0.10450100 15999.84153269 0 787.73279860 0 5519.23282468 0 -153.85991845 0 501.61396019 0 12093
0.10550000 0.10551000 15356.87163047 0 427.65193763 0 5327.13906140 0 -460.35404898 0 1068.30108057 0 12067
0.10650000 0.10649700 15230.97929728 0 69.95483748 0 5971.70337839 0 -223.11177403 0 1055.11283448 0 12054
0.10750000 0.10749900 15520.29914479 0 -107.95051661 0 5883.63410678 0 301.58687618 0 924.75835439 0 12807
0.10850000 0.10850100 15617.95704969 0 -366.55484928 0 6198.74139880 0 161.66258575 0 -60.25260214 0 12736
0.10950000 0.10950300 15860.88385621 0 -63.94843344 0 6273.96677361 0 -93.49316064 0 -224.33526592 0 12933
0.11050000 0.11050200 15698.56357437 0 555.70337416 0 6348.32850710 0 -303.47913649 0 -209.03220579 0 13428
0.11150000 0.11150900 15356.20729098 0 600.23294288 0 5821.25262875 0 -59.37921715 0 -605.46461636 0 13453
0.11250000 0.11250000 14912.31778900 0 185.47251304 0 6090.01116908 0 282.57680170 0 53.30593627 0 13668
0.11350000 0.11349100 14745.67930048 0 -44.60928946 0 5100.77645280 0 254.92367046 0 -793.59670182 0 13791
0.11450000 0.11448600 14855.29531619 0 -168.31262403 0 5444.45034285 0 300.67451661 0 -1100.99765576 0 14205
0.11550000 0.11549300 14843.89082162 0 117.97894264 0 4671.94531258 0 622.37094913 0 -1042.20028927 0 14776
0.11650000 0.11649800 14851.08783275 0 47.81804919 0 4821.02309394 0 430.15871197 0 -464.36776673 0 14553
0.11750000 0.11747300 14681.23837004 0 12.10426549 0 4929.70903436 0 178.82247475 0 -765.99118158 0 14568
0.11850000 0.11849100 14902.35269666 0 140.55209125 0 5165.98137366 0 260.88611738 0 -796.43232421 0 16015
0.11950000 0.11950300 14556.01037634 0 299.56949860 0 4902.36039205 0 -223.30332525 0 41.95669261 0 15270
0.12050000 0.12050700 14827.39305764 0 152.81358375 0 5175.21569256 0 6.35841540 0 -49.91049714 0 15999
0.12150000 0.12150000 14434.10408008 0 -15.41334049 0 5144.26854469 0 -67.30689100 0 -269.70854579 0 15670
0.12250000 0.12250700 14308.32247014 0 407.74389761 0 5340.19333236 0 273.08671209 0 -741.90333894 0 16887
0.12350000 0.12352200 14152.31341345 0 479.09506597 0 5139.55173432 0 -418.71767874 0 -556.50722494 0 16407
0.12450000 0.12449800 13687.94011056 0 265.21539638 0 5029.09422193 0 903.47070269 0 -165.16365485 0 16306
0.12550000 0.12549900 13650.51565267 0 -164.37198363 0 4334.99232370 0 961.53618851 0 180.25966251 0 17523
0.12650000 0.12650100 13717.17104808 0 -114.07041198 0 4271.08286484 0 1027.97456635 0 130.68332814 0 17154
0.12750000 0.12750600 13789.58405239 0 108.12435211 0 3826.00862411 0 929.81065620 0 616.08961926 0 18007
0.12850000 0.12850300 13600.24729799 0 113.87443183 0 3765.45407968 0 434.00191592 0 1480.95666147 0 17496
0.12950000 0.12949900 13413.45717830 0 40.83484465 0 3002.62626129 0 523.88815603 0 1361.78522945 0 18405
0.13050000 0.13049000 13253.01919168 0 299.73447624 0 3614.32791823 0 -119.20132730 0 1385.94504220 0 18100
0.13150000 0.13148800 13196.99322810 0 560.92176085 0 3470.62021440 0 -637.34848291 0 1005.62286424 0 19059
0.13250000 0.13249300 12513.83078679 0 522.63144716 0 3764.75652321 0 -499.87006903 0 2235.13699417 0 18957
0.13350000 0.13349100 12343.31698458 0 262.26130012 0 3652.17312446 0 35.80169796 0 1653.30846960 0 19468
0.13450000 0.13450700 12204.13786161 0 -50.29204945 0 4055.46041133 0 526.44032690 0 1684.57671488 0 19953
0.13550000 0.13551000 12211.33487274 0 173.05822245 0 3783.23623333 0 510.62461813 0 967.92713439 0 19956
0.13650000 0.13649900 11864.66038267 0 273.15757497 0 3696.71708720 0 118.90458899 0 1234.40920473 0 19723
0.13750000 0.13749600 11742.53263992 0 280.95027718 0 3852.87008412 0 -6.12826605 0 1377.30862884 0 20946
0.13850000 0.13851100 11543.00934669 0 218.75592144 0 3967.77867109 0 -478.65992361 0 1368.45076899 0 20955
0.13950000 0.13949800 11434.72200996 0 141.61724890 0 4190.94137781 0 29.54871324 0 1220.88989613 0 20506
0.14050000 0.14048300 11353.89403878 0 71.03903953 0 4221.17989689 0 -65.31940870 0 1376.12389009 0 21447
0.14150000 0.14148400 11281.70248097 0 47.13876207 0 3872.70061787 0 730.43351766 0 1176.10234224 0 21771
0.14250000 0.14249400 11218.81167600 0 36.80020021 0 3633.29481064 0 415.69382683 0 1598.20150897 0 22470
0.14350000 0.14350900 11168.32187482 0 274.59365550 0 3413.43165672 0 634.36449137 0 1104.00268472 0 22519
0.14450000 0.14449900 10931.27447278 0 65.67726623 0 3340.57575941 0 138.87906297 0 1397.99173160 0 22218
0.14550000 0.14550500 10815.82334190 0 264.28753556 0 3112.39728955 0 14.02675325 0 1130.11897726 0 23559
0.14650000 0.14650700 10701.45729885 0 164.23247234 0 3123.60248226 0 -12.65057400 0 1405.54305713 0 23044
0.14750000 0.14750500 10587.04696649 0 -15.27471498 0 3005.20611298 0 186.94291777 0 1319.81004606 0 23649
0.14850000 0.14849900 10578.65414428 0 31.13659535 0 2856.34977812 0 365.48858440 0 1086.89372841 0 23640
0.14950000 0.14949500 10400.02432798 0 44.40367639 0 2913.17294909 0 402.37382007 0 925.17024487 0 24457
0.15050000 0.15050000 10382.56327174 0 198.33301831 0 2696.11109334 0 179.14357217 0 1028.53039705 0 24591
0.15150000 0.15149900 10217.13166663 0 130.14299869 0 2726.16138290 0 -179.45027557 0 1087.61010782 0 25020
0.15250000 0.15250500 10124.03555955 0 188.39007063 0 2960.81716278 0 -137.89694776 0 1015.19931797 0 25297
0.15350000 0.15350100 9940.10209967 0 305.81871872 0 3038.82169113 0 -330.04496543 0 1098.29711574 0 25452
0.15450000 0.15450400 9841.46983018 0 280.79415740 0 3005.94795874 0 -329.24775804 0 885.45824468 0 26061
0.15550000 0.15549900 9758.50490032 0 163.32564893 0 3143.59910089 0 -271.49451179 0 580.16435415 0 26128
0.15650000 0.15649500 9601.94222738 0 156.06774002 0 3212.82327565 0 -203.03654190 0 374.93438471 0 26331
0.15750000 0.15749700 9424.64109006 0 146.94414437 0 3290.13024754 0 165.85788962 0 421.41821876 0 27345
0.15850000 0.15849900 9426.32408343 0 5.80846409 0 3058.60793558 0 117.70545622 0 42.01604027 0 26980
0.15950000 0.15949700 9204.73364684 0 66.52784223 0 2907.40426785 0 565.03845122 0 86.77403105 0 27777
0.16050000 0.16050000 9218.87300563 0 196.45736649 0 2803.71194593 0 269.23243583 0 22.23189956 0 28224
0.16150000 0.16150500 9165.73691882 0 29.06917086 0 2624.18527132 0 201.83187296 0 218.36174668 0 28075
0.16250000 0.16249700 8853.74095008 0 158.69741716 0 2606.49169626 0 248.19944760 0 316.05508302 0 28590
0.16350000 0.16349900 9038.56019596 0 46.75931350 0 2589.35173744 0 -142.63479555 0 549.42425876 0 29163
0.16450000 0.16449100 8730.20702208 0 193.67821296 0 2701.55867715 0 -53.68294893 0 729.93194134 0 28996
0.16550000 0.16550500 8819.19529665 0 115.78883679 0 2781.77767046 0 36.68449442 0 699.38118270 0 30777
0.16650000 0.16650700 8610.48197382 0 4.74900869 0 2686.72176189 0 273.35909129 0 663.21564815 0 29211
0.16750000 0.16749900 8723.19824047 0 -42.15344782 0 2550.05605666 0 367.53696450 0 366.95123851 0 30922
0.16850000 0.16850800 8690.11413391 0 13.33617235 0 2491.37273512 0 223.30664694 0 552.20894845 0 30867
0.16950000 0.16949900 8710.62007948 0 99.76840073 0 2165.22633526 0 269.15714402 0 372.15523118 0 30852
0.17050000 0.17049200 8618.19938422 0 94.02363573 0 2047.23964199 0 -139.42935751 0 347.36540314 0 31257
0.17150000 0.17149500 8519.31245126 0 191.49032158 0 2047.28393129 0 -134.28515540 0 340.54042212 0 32608
0.17250000 0.17250900 8495.00869829 0 84.99260471 0 2033.56532084 0 -110.16974267 0 235.17507192 0 32361
0.17350000 0.17350400 8439.30383212 0 13.52085873 0 2067.94488940 0 87.71905397 0 -36.26153161 0 32508
0.17450000 0.17449800 8374.20963451 0 82.04714486 0 2092.06041286 0 -18.75308582 0 -297.11365695 0 32791
0.17550000 0.17549800 8221.56656456 0 188.92486392 0 2173.63022980 0 55.14283495 0 -83.90607748 0 33633
0.17650000 0.17650100 8149.24213885 0 199.31845522 0 2015.11882769 0 47.07841790 0 78.22287459 0 33984
0.17750000 0.17750300 7993.50989027 0 91.26684829 0 2199.06335991 0 317.77904399 0 349.81460139 0 34069
0.17850000 0.17849800 7939.89769350 0 118.04205489 0 2073.89072783 0 274.65676775 0 551.34862881 0 34536
