### header ###
fiducial parameters:
Omega_m = 0.31
Omega_nu = 0
Omega_de = 0.69
Omega_k = 0
H_0 = 100
w_de = -1
zeff = 0
beta = 0
fgrowth = 0
b_1 = 2
gamma = 0.55
Lx = 3500 Ly = 3500 Lz = 3500
nx = 700 ny = 700 nz = 700
xoffset = -685.467585 yoffset = -31.7331281 zoffset = 572.489161
bins = 400 dk = 0.001
kx_ny = 0.628318531 ky_ny = 0.628318531 kz_ny = 0.628318531
############################
A(data) = 8.02659382 (not used)
A(ran) = 8.01393114 (used)
Ngal = 476194
weighted Ngal = 0
Nran = 23820508
weighted Nran = 0
SN(data) = 3500.93491
SN(ran) = 69.8042466
SN(data+ran) = 3570.73915
############################
13 columns: k_central k_mean P_0(k) sigma^{lin}_{P_0(k)} P^img_1(k) sigma^{lin}_{P_1(k)} P_2(k) sigma^{lin}_{P_2(k)} P^img_3(k) sigma^{lin}_{P_3(k)} P_4(k) sigma^{lin}_{P_4(k)} N_modes
### header ###
0.00050000 0 0 0 0 0 0 0 0 0 0 0 0
0.00150000 0.00179520 56610.25016303 0 -18574.04632978 0 42445.09285279 0 79798.13424474 0 -130971.20858232 0 3
0.00250000 0.00253879 96952.04419327 0 -14433.10757085 0 34048.94894281 0 -25351.19490477 0 63705.06373707 0 6
0.00350000 0.00331552 78943.12932224 0 7774.30000351 0 2925.91719495 0 -37078.11556670 0 50911.21385562 0 7
0.00450000 0.00420575 63892.18602651 0 14010.58765577 0 -8680.08260763 0 -3129.19400630 0 37800.14186812 0 24
0.00550000 0.00557378 52584.24213572 0 -3975.52929846 0 -3148.28269428 0 9744.06658875 0 -28101.67111297 0 45
0.00650000 0.00659388 66307.72440895 0 -9011.25584295 0 18895.25447276 0 15553.51611925 0 -15860.77313297 0 40
0.00750000 0.00754703 77041.01464164 0 -18916.73478291 0 -3616.34308134 0 -19502.12859607 0 -13003.44899027 0 57
0.00850000 0.00846663 72925.76367630 0 -187.79548678 0 5476.85903759 0 -34631.79612127 0 -13025.26147016 0 75
0.00950000 0.00948925 85305.17643979 0 16924.49137829 0 17489.17994404 0 -38744.72189840 0 -14019.77768537 0 112
0.01050000 0.01054430 66871.97008170 0 11049.27223837 0 27323.61884797 0 -18299.45267427 0 4395.97868880 0 105
0.01150000 0.01145670 58179.75220607 0 7890.07223182 0 24787.05995526 0 -2444.91326018 0 -2771.84579510 0 144
0.01250000 0.01249090 62614.99335868 0 -8326.80901197 0 31173.57691066 0 16205.45460457 0 -12577.16448475 0 169
0.01350000 0.01339930 67427.91151085 0 -4184.58586336 0 26121.27509591 0 23420.18145640 0 -26639.45989742 0 180
0.01450000 0.01448870 65928.94017690 0 -1159.78173545 0 12015.35472345 0 -692.76103970 0 -19496.26026392 0 267
0.01550000 0.01550050 75414.71157228 0 -3896.61683948 0 3381.42156567 0 -15651.39547065 0 -14318.06611598 0 238
0.01650000 0.01653350 73204.34336874 0 -1208.71033883 0 17737.86435947 0 -20133.47255723 0 -21588.37603840 0 315
0.01750000 0.01747870 80564.67129193 0 -992.26299711 0 19981.89243047 0 -18820.07338725 0 -20954.81761228 0 297
0.01850000 0.01844180 79566.61193278 0 5398.74378600 0 21747.04245306 0 -14073.58918399 0 -33344.52763785 0 388
0.01950000 0.01947590 75524.32758799 0 1741.84277885 0 29566.76113298 0 -12911.54869427 0 -37546.36418328 0 399
0.02050000 0.02045430 78058.89346222 0 2004.27902170 0 31087.43422357 0 7846.65764620 0 -28282.15000752 0 462
0.02150000 0.02154770 74704.31121192 0 -569.59139118 0 32449.77306925 0 6528.01019425 0 -27568.31722646 0 571
0.02250000 0.02255340 80713.48333749 0 1103.41142257 0 24580.11820440 0 20064.71342011 0 -22154.83617613 0 510
0.02350000 0.02348930 73447.82379150 0 -965.06493843 0 23405.23381790 0 10799.21485467 0 -25655.35166754 0 555
0.02450000 0.02439640 73657.97651656 0 2873.62260483 0 11845.61598398 0 11158.13533599 0 -13339.82621826 0 592
0.02550000 0.02547300 74387.86416860 0 1197.43871216 0 22597.72916887 0 -6730.43443659 0 -12850.54018452 0 837
0.02650000 0.02652900 71647.46377599 0 868.08908873 0 16407.96742550 0 -9278.85178917 0 -602.55813110 0 723
0.02750000 0.02749970 76784.24742910 0 2023.00232297 0 38626.02657634 0 -16124.95880314 0 -6922.94894821 0 826
0.02850000 0.02848090 74712.61545553 0 3091.74740376 0 32296.75354026 0 -6043.48526019 0 5030.83257692 0 831
0.02950000 0.02946900 72028.01958000 0 3394.92980194 0 37471.73671400 0 4085.59927948 0 -11077.97170430 0 996
0.03050000 0.03053250 67727.86079018 0 2244.30487912 0 31155.75046770 0 10127.81122232 0 -5805.97282050 0 1041
0.03150000 0.03150510 67621.45574868 0 3985.32830592 0 33832.48499261 0 9579.39897405 0 -11265.42616348 0 1036
0.03250000 0.03246190 60527.86013036 0 6707.21577144 0 24089.17132194 0 11461.18486628 0 -17129.66155718 0 1059
0.03350000 0.03345080 54693.40929043 0 5412.05272043 0 22261.01977114 0 7359.61929441 0 -4287.11559118 0 1302
0.03450000 0.03451200 52081.33714246 0 -1558.19719940 0 15366.61527631 0 4432.86060277 0 -12689.10568867 0 1339
0.03550000 0.03553350 54130.27085015 0 -3482.57832521 0 21193.97982836 0 5274.35728899 0 -4307.37794560 0 1365
0.03650000 0.03647120 58428.54734475 0 -1384.91531599 0 21521.60991975 0 -417.01696964 0 -7358.76672540 0 1308
0.03750000 0.03744890 57905.37999707 0 2477.02300215 0 20561.97152772 0 -4340.86065585 0 280.94141932 0 1579
0.03850000 0.03847530 56884.29020229 0 3837.21381683 0 28094.25265534 0 -4168.74136655 0 3597.91873284 0 1662
0.03950000 0.03950240 53990.31666444 0 2850.39286736 0 25662.54867867 0 745.11431314 0 4080.18491265 0 1683
0.04050000 0.04050350 52158.73269294 0 2780.58185938 0 33182.98241875 0 1096.83446163 0 1997.48061426 0 1822
0.04150000 0.04152450 48062.52612628 0 2879.46879234 0 25667.30977834 0 3728.78253988 0 1381.07321928 0 1887
0.04250000 0.04250150 46572.52337544 0 1335.07878198 0 27968.24959891 0 4619.86109663 0 266.02699779 0 1920
0.04350000 0.04349210 44551.38120304 0 1996.76091315 0 22123.05860390 0 1016.04635082 0 247.03906796 0 2005
0.04450000 0.04448520 43666.37028029 0 931.49918574 0 23798.41207221 0 4225.34309102 0 117.51833393 0 2151
0.04550000 0.04548030 43076.43681395 0 1119.34560522 0 21253.43821264 0 905.51686832 0 -1199.84140665 0 2274
0.04650000 0.04648670 42085.02084969 0 1933.83689120 0 21313.00732016 0 2418.68292268 0 -2864.55437081 0 2311
0.04750000 0.04749250 40669.09195188 0 -222.87814797 0 20879.19363377 0 1954.89645301 0 -1865.43206847 0 2568
0.04850000 0.04851840 41767.46657389 0 -1027.62468088 0 20423.23529774 0 7081.71501378 0 -912.72163008 0 2493
0.04950000 0.04949480 41090.50463448 0 -813.83912605 0 15084.82460968 0 2973.98215699 0 -3004.94037718 0 2644
0.05050000 0.05050630 40404.24194222 0 1687.52195329 0 13949.91131576 0 3780.89997280 0 -5973.05420202 0 2829
0.05150000 0.05149060 39500.85096027 0 1858.46757616 0 11575.22981191 0 1842.44592215 0 -916.60358716 0 2784
0.05250000 0.05249300 36152.46921186 0 1506.31228530 0 8502.71503636 0 3477.49612812 0 520.66389504 0 3055
0.05350000 0.05348950 37837.01270977 0 -78.74637411 0 7614.28276524 0 -65.39547557 0 -1171.59590604 0 3009
0.05450000 0.05448610 36660.13530479 0 -501.80329694 0 8960.54459529 0 -692.93376796 0 -474.00511825 0 3336
0.05550000 0.05550870 36798.31791853 0 2272.12963138 0 10162.76655177 0 -2265.23157302 0 2269.64943063 0 3349
0.05650000 0.05647670 34853.79623388 0 2074.00145108 0 12583.80787964 0 -308.55579742 0 6237.54989729 0 3324
0.05750000 0.05747970 34502.02847439 0 484.23816085 0 14502.97394046 0 1513.96326175 0 5724.92340283 0 3639
0.05850000 0.05849280 34145.05672224 0 236.44396034 0 16215.53042016 0 3059.40514296 0 4533.36409515 0 3846
0.05950000 0.05951020 34469.80800917 0 343.88204975 0 15961.64201206 0 776.42131156 0 5704.55032517 0 3787
0.06050000 0.06049470 34394.62692365 0 -398.16190771 0 14706.04037763 0 -151.11619636 0 8445.23859823 0 3930
0.06150000 0.06148310 34033.77985781 0 1271.70079472 0 16542.49617205 0 339.01908469 0 9661.25667143 0 4083
0.06250000 0.06249100 34319.55656138 0 994.10543196 0 17288.21724859 0 -1290.33551739 0 6907.92380343 0 4303
0.06350000 0.06350600 32186.91607806 0 1027.54163845 0 16589.33210603 0 1605.26565221 0 7091.60259985 0 4470
0.06450000 0.06451750 32766.66300556 0 269.31215656 0 15075.41313358 0 1258.53580051 0 4245.05182920 0 4479
0.06550000 0.06550280 30889.35033256 0 -865.14163587 0 13937.39958872 0 2287.27657174 0 5015.74099820 0 4636
0.06650000 0.06648880 32799.32636378 0 -532.22008045 0 12209.78474727 0 3145.41496216 0 1561.77356032 0 4653
0.06750000 0.06749660 32226.00138467 0 -722.58213213 0 9749.66918511 0 2514.62461724 0 683.16133408 0 5220
0.06850000 0.06852730 32572.67587474 0 813.31761955 0 9068.61048552 0 970.94877183 0 490.54052814 0 5029
0.06950000 0.06949320 31613.25892921 0 1073.08875382 0 7580.97721218 0 -76.47256149 0 1002.12622406 0 5040
0.07050000 0.07048030 30712.63602846 0 1109.72375495 0 7895.39802006 0 -80.88975475 0 885.87456409 0 5475
0.07150000 0.07148790 29567.09330272 0 866.92317293 0 8472.94155492 0 424.66240993 0 -437.29925425 0 5509
0.07250000 0.07249820 29286.52059182 0 1092.80634986 0 7872.11292096 0 501.84094285 0 770.20087948 0 5916
0.07350000 0.07351270 27875.57424018 0 772.78073116 0 7769.50568687 0 -1352.61734450 0 159.19013562 0 5721
0.07450000 0.07449140 26947.93486687 0 1331.63528896 0 8684.61118848 0 1654.43784673 0 -235.47956085 0 6028
0.07550000 0.07549160 26234.87714855 0 872.53351992 0 8074.92469467 0 525.85681538 0 380.94887155 0 6183
0.07650000 0.07648840 25352.19141401 0 486.21789253 0 7433.20596515 0 445.79172738 0 1287.60065316 0 6330
0.07750000 0.07749960 25400.79891996 0 246.05473828 0 7671.17237015 0 1096.45578812 0 226.29285295 0 6583
0.07850000 0.07848650 24903.87298210 0 372.61916159 0 7707.37887231 0 262.07307060 0 2165.73566220 0 6549
0.07950000 0.07947320 24487.44284567 0 906.52444988 0 8506.18067403 0 -728.36742185 0 1104.94383232 0 6828
0.08050000 0.08048110 23979.88747598 0 783.95492137 0 8308.83862878 0 -894.55305228 0 2258.94249253 0 7147
0.08150000 0.08149960 22805.88887546 0 803.84967460 0 8809.73953126 0 388.53119958 0 1420.42426168 0 7386
0.08250000 0.08250610 23098.75186692 0 155.43772473 0 9015.23080756 0 39.58843305 0 1089.09158488 0 7227
0.08350000 0.08350160 22645.22944234 0 -418.03340906 0 8859.14424460 0 360.58908067 0 1081.17376540 0 7798
0.08450000 0.08449610 22937.42809431 0 432.39532159 0 8871.34594655 0 1289.63796093 0 285.66044416 0 7371
0.08550000 0.08548940 22458.21787616 0 634.75977337 0 7606.34390834 0 1448.80263020 0 1167.83131560 0 8256
0.08650000 0.08650700 22089.95235269 0 538.44494147 0 7375.89561189 0 953.98929191 0 2096.73293393 0 8037
0.08750000 0.08749060 21274.14346005 0 612.62176712 0 6884.32867924 0 1211.05767169 0 3317.12457544 0 8155
0.08850000 0.08849210 21320.20433130 0 -51.01175056 0 7200.65392699 0 1330.31768231 0 2532.52856647 0 8718
0.08950000 0.08949900 20824.38562592 0 339.48855126 0 6125.94086311 0 509.28043789 0 3263.86669307 0 8571
0.09050000 0.09049190 20879.41508027 0 374.34422979 0 7383.71267321 0 -562.42095363 0 2838.03615287 0 8932
0.09150000 0.09150830 20397.65822741 0 612.90189694 0 7141.76023128 0 -1178.82613414 0 3081.23976751 0 9285
0.09250000 0.09250820 19785.91228118 0 743.15340441 0 7736.80911168 0 -219.44904898 0 2978.90934153 0 9204
0.09350000 0.09350330 19336.59734004 0 288.64443570 0 7221.44775299 0 393.31112221 0 953.68258851 0 9349
0.09450000 0.09448040 19307.25567927 0 238.82008125 0 7690.93646996 0 -394.79038480 0 632.69146309 0 9564
0.09550000 0.09549270 18645.68427135 0 850.67010733 0 7655.53824751 0 -106.67277032 0 -934.09564591 0 10155
0.09650000 0.09649430 18004.37521786 0 668.37313705 0 6944.30746278 0 11.22977328 0 844.77187990 0 9913
0.09750000 0.09749140 17801.08733419 0 169.78302877 0 7311.48789842 0 360.80720547 0 711.79215159 0 10476
0.09850000 0.09850240 17744.06486137 0 -33.67702955 0 7462.39261337 0 317.83551285 0 1130.89404000 0 10575
0.09950000 0.09950330 17725.35263243 0 222.99772908 0 7034.94551375 0 1152.86153244 0 949.24922965 0 10882
0.10050000 0.10051200 17233.40924073 0 394.74941720 0 7334.69549124 0 343.90640887 0 946.77788676 0 10875
0.10150000 0.10150300 17145.93787467 0 514.58297425 0 6974.76742836 0 145.91220369 0 1235.53858186 0 11118
0.10250000 0.10250800 16855.84296442 0 -20.52543286 0 7561.36812493 0 109.59730348 0 1152.56257967 0 11575
0.10350000 0.10349800 16847.42799756 0 -162.94033203 0 6622.55677588 0 686.47195920 0 1647.38477582 0 11364
0.10450000 0.10450100 16932.35272891 0 -30.67742604 0 6617.93961643 0 596.04981857 0 803.57508095 0 12093
0.10550000 0.10551000 16733.60449842 0 312.43111111 0 5345.47483130 0 689.62092838 0 515.37575271 0 12067
0.10650000 0.10649700 16101.04258153 0 512.57999069 0 5103.50024471 0 482.46105272 0 187.96378612 0 12054
0.10750000 0.10749900 15823.57012158 0 488.75124045 0 3969.56131538 0 500.04833346 0 -653.41331899 0 12807
0.10850000 0.10850100 15381.34146832 0 405.51060969 0 4717.86224360 0 151.94440625 0 -872.94098147 0 12736
0.10950000 0.10950300 14882.31178874 0 430.01034282 0 4240.23536790 0 8.99705005 0 -597.22791393 0 12933
0.11050000 0.11050200 14730.62093873 0 229.04321843 0 4458.74769820 0 -97.65491537 0 -514.14893912 0 13428
0.11150000 0.11150900 14529.32607352 0 308.84257063 0 4759.48311259 0 -508.42786888 0 -340.45959415 0 13453
0.11250000 0.11250000 14522.57195538 0 183.76958948 0 5388.51295787 0 -79.77366441 0 806.96099788 0 13668
0.11350000 0.11349100 14457.35596220 0 -109.74080081 0 5025.38499311 0 869.06788225 0 512.21128227 0 13791
0.11450000 0.11448600 14591.33109251 0 -213.13782383 0 5081.11200393 0 1075.86126396 0 1162.67161223 0 14205
0.11550000 0.11549300 14689.09972066 0 -67.63994653 0 4704.40936895 0 431.55161043 0 487.46463630 0 14776
0.11650000 0.11649800 14967.01507361 0 -30.34414906 0 4479.22042678 0 492.45936203 0 1284.38967896 0 14553
0.11750000 0.11747300 14349.40079522 0 354.55798534 0 4443.53432389 0 -21.38852058 0 1031.49556564 0 14568
0.11850000 0.11849100 14473.63227969 0 229.81606670 0 4341.71322486 0 159.59759717 0 1154.83240626 0 16015
0.11950000 0.11950300 14071.15327253 0 111.16614118 0 3852.87008412 0 144.29896597 0 1125.84505988 0 15270
0.12050000 0.12050700 13934.18861452 0 379.91803811 0 3861.67258235 0 189.45854997 0 680.06108313 0 15999
0.12150000 0.12150000 13800.87782371 0 114.33725501 0 4032.93930264 0 430.72561500 0 1087.47391823 0 15670
0.12250000 0.12250700 13723.92516622 0 -31.64791531 0 3824.50278793 0 290.89101040 0 218.69945259 0 16887
0.12350000 0.12352200 13481.10908294 0 278.00393155 0 3594.91813282 0 17.79056863 0 469.93160995 0 16407
0.12450000 0.12449800 13531.48816087 0 50.04823686 0 3223.48592445 0 295.50263369 0 393.11735652 0 16306
0.12550000 0.12549900 13517.97992459 0 -171.35640613 0 3251.82000366 0 131.41410158 0 759.10751724 0 17523
0.12650000 0.12650100 13761.12817761 0 54.87820639 0 3215.21489781 0 -136.19402420 0 786.30668316 0 17154
0.12750000 0.12750600 13721.15708501 0 128.72463388 0 3660.13412600 0 -90.08509906 0 534.68035103 0 18007
0.12850000 0.12850300 13570.57346748 0 525.07178755 0 4095.11040650 0 -608.54050820 0 560.17216446 0 17496
0.12950000 0.12949900 13142.62811324 0 586.60069657 0 4368.13179188 0 -100.62207698 0 791.77419715 0 18405
0.13050000 0.13049000 12609.38494997 0 373.38536646 0 4522.70144635 0 42.58836874 0 1229.83633458 0 18100
0.13150000 0.13148800 12552.58392365 0 272.40797858 0 4480.93663713 0 -81.34460585 0 836.49863879 0 19059
0.13250000 0.13249300 12246.98775866 0 82.95596128 0 4709.33655349 0 475.54306417 0 1123.37593145 0 18957
0.13350000 0.13349100 12282.52992132 0 -5.08724607 0 3871.34979424 0 607.20629305 0 761.85345380 0 19468
0.13450000 0.13450700 11821.36759263 0 118.24467844 0 3881.93493677 0 802.61178869 0 1067.62899045 0 19953
0.13550000 0.13551000 12136.59668021 0 80.67484092 0 3661.69532380 0 280.83512500 0 825.69869317 0 19956
0.13650000 0.13649900 11866.43195464 0 147.39257352 0 3709.08487402 0 349.72159386 0 675.84252737 0 19723
0.13750000 0.13749600 11781.17505354 0 346.77967716 0 3646.23835835 0 -77.65608229 0 1579.62214793 0 20946
0.13850000 0.13851100 11593.16697812 0 122.92495014 0 3719.09425566 0 -191.14043611 0 1839.05779075 0 20955
0.13950000 0.13949800 11319.01621561 0 263.27441784 0 4033.49291889 0 192.43146919 0 2026.92192595 0 20506
0.14050000 0.14048300 11345.14690218 0 183.12628741 0 3941.88050334 0 209.62789686 0 1906.79827399 0 21447
0.14150000 0.14148400 10969.70651223 0 166.11698202 0 3721.03191250 0 406.59791199 0 1805.60829748 0 21771
0.14250000 0.14249400 10969.20825761 0 89.15402727 0 3514.16766792 0 261.75750934 0 1347.56836438 0 22470
0.14350000 0.14350900 10863.23503677 0 115.23522055 0 3513.75799190 0 61.91920847 0 890.72202790 0 22519
0.14450000 0.14449900 10599.41475332 0 238.34729298 0 3171.80031220 0 -182.83840696 0 782.79675619 0 22218
0.14550000 0.14550500 10542.00474913 0 -83.68972425 0 2821.69340143 0 3.25142140 0 519.65852795 0 23559
0.14650000 0.14650700 10509.06458280 0 114.56202320 0 3130.05764763 0 -30.54057210 0 214.77874237 0 23044
0.14750000 0.14750500 10469.54745552 0 162.66906007 0 2840.60493222 0 294.70653354 0 -47.97549765 0 23649
0.14850000 0.14849900 10377.89075067 0 242.97663198 0 2981.12380650 0 -40.50898614 0 101.21588576 0 23640
0.14950000 0.14949500 10165.22460788 0 205.13696192 0 2956.33287123 0 -172.10600252 0 209.03663472 0 24457
0.15050000 0.15050000 10083.09010237 0 38.97447264 0 3246.77102355 0 270.61536920 0 520.96063334 0 24591
0.15150000 0.15149900 9978.17982472 0 54.90234406 0 3011.61698905 0 397.89506468 0 456.69243117 0 25020
0.15250000 0.15250500 9980.35000038 0 121.44458031 0 2938.39570502 0 396.08473958 0 396.44126843 0 25297
0.15350000 0.15350100 9930.74598519 0 118.97766634 0 2808.01908028 0 -87.87174133 0 214.78870746 0 25452
0.15450000 0.15450400 9790.70322089 0 147.57305242 0 2470.66748771 0 29.02477083 0 -139.05622016 0 26061
0.15550000 0.15549900 9672.29577928 0 67.63695700 0 2505.17992417 0 -322.35966477 0 158.77270897 0 26128
0.15650000 0.15649500 9735.23087355 0 -24.28493002 0 2595.70725188 0 -181.35692990 0 -516.90594800 0 26331
0.15750000 0.15749700 9766.62091441 0 -48.86693052 0 2589.00849537 0 -165.60211892 0 -576.10745434 0 27345
0.15850000 0.15849900 9784.12625995 0 38.61417919 0 2534.64338051 0 -95.55150583 0 -853.73160514 0 26980
0.15950000 0.15949700 9645.11322185 0 256.97205055 0 2892.44555702 0 102.58564306 0 -417.23620168 0 27777
0.16050000 0.16050000 9516.66318163 0 307.61464981 0 2780.62614868 0 211.42161348 0 -514.57965255 0 28224
0.16150000 0.16150500 9185.30171678 0 313.73321650 0 2954.50593763 0 363.82441398 0 -41.61356126 0 28075
0.16250000 0.16249700 9097.13279425 0 134.83544994 0 2745.52687901 0 247.03574626 0 -250.11495979 0 28590
0.16350000 0.16349900 8967.36514737 0 110.83397143 0 2648.66618149 0 161.70908951 0 219.69374735 0 29163
0.16450000 0.16449100 8837.05495658 0 121.02383197 0 2436.50936564 0 156.31133116 0 715.05959465 0 28996
0.16550000 0.16550500 8870.15013547 0 -26.00158326 0 2378.16928617 0 293.27820363 0 393.44952627 0 30777
0.16650000 0.16650700 8740.99146646 0 -9.73686958 0 2002.41887113 0 523.18617063 0 335.16813012 0 29211
0.16750000 0.16749900 8838.16218906 0 54.81332257 0 1906.17822380 0 122.01480504 0 -157.78948653 0 30922
0.16850000 0.16850800 8582.44684738 0 108.09943937 0 1703.02320803 0 -110.82622081 0 -20.16757532 0 30867
0.16950000 0.16949900 8635.37256001 0 105.57661016 0 1864.69022271 0 -42.46745895 0 49.02770068 0 30852
0.17050000 0.17049200 8532.22278200 0 193.79336514 0 1931.40097974 0 -330.03610757 0 329.86780823 0 31257
0.17150000 0.17149500 8447.35341227 0 116.55504167 0 2007.34605567 0 66.08550285 0 353.83385530 0 32608
0.17250000 0.17250900 8417.57993083 0 -25.55260049 0 2088.31796707 0 76.93173080 0 735.94310649 0 32361
0.17350000 0.17350400 8491.34375877 0 12.90988785 0 2152.86962076 0 373.53705731 0 653.07561308 0 32508
0.17450000 0.17449800 8531.61380414 0 36.93052148 0 2107.69453550 0 220.44002205 0 592.15014577 0 32791
0.17550000 0.17549800 8399.74241555 0 145.61325092 0 2293.12275924 0 25.38131163 0 615.15954397 0 33633
0.17650000 0.17650100 8224.17963322 0 301.75960444 0 2295.06041608 0 -287.09431022 0 656.18250742 0 33984
0.17750000 0.17750300 8015.73204619 0 202.02785311 0 2304.87049587 0 -139.67516312 0 901.14219278 0 34069
0.17850000 0.17849800 7908.91732866 0 183.72640741 0 2336.02801791 0 1.01176911 0 1036.29652568 0 34536
