### header ###
fiducial parameters:
Omega_m = 0.31
Omega_nu = 0
Omega_de = 0.69
Omega_k = 0
H_0 = 100
w_de = -1
zeff = 0
beta = 0
fgrowth = 0
b_1 = 2
gamma = 0.55
Lx = 3500 Ly = 3500 Lz = 3500
nx = 700 ny = 700 nz = 700
xoffset = -685.467585 yoffset = -31.7331281 zoffset = 572.489161
bins = 400 dk = 0.001
kx_ny = 0.628318531 ky_ny = 0.628318531 kz_ny = 0.628318531
############################
A(data) = 8.03923456 (not used)
A(ran) = 8.03859232 (used)
Ngal = 477468
weighted Ngal = 0
Nran = 23820508
weighted Nran = 0
SN(data) = 3490.47381
SN(ran) = 70.0190545
SN(data+ran) = 3560.49286
############################
13 columns: k_central k_mean P_0(k) sigma^{lin}_{P_0(k)} P^img_1(k) sigma^{lin}_{P_1(k)} P_2(k) sigma^{lin}_{P_2(k)} P^img_3(k) sigma^{lin}_{P_3(k)} P_4(k) sigma^{lin}_{P_4(k)} N_modes
### header ###
0.00050000 0 0 0 0 0 0 0 0 0 0 0 0
0.00150000 0.00179520 3548.79082762 0 1767.04339013 0 22355.24525534 0 -5136.67292987 0 -15210.71694286 0 3
0.00250000 0.00253879 28423.65431870 0 -25507.53613121 0 -10178.67748253 0 -27280.87967417 0 -20652.43242148 0 6
0.00350000 0.00331552 39607.92034126 0 -32143.18039503 0 -42077.15949907 0 34276.37449459 0 20902.33479264 0 7
0.00450000 0.00420575 57957.30920047 0 -19425.84027807 0 -30981.47207505 0 -22627.62444588 0 -2539.37126321 0 24
0.00550000 0.00557378 53992.08823641 0 7457.80867090 0 -8901.47374238 0 -31077.57985448 0 -10552.60096398 0 45
0.00650000 0.00659388 60345.72038710 0 3614.27255660 0 -19570.99845645 0 -46617.14484446 0 -6811.42849264 0 40
0.00750000 0.00754703 50463.00614697 0 -2335.65155887 0 4076.19887571 0 -7259.60298432 0 12846.00053135 0 57
0.00850000 0.00846663 55827.21535186 0 -8275.80988385 0 2774.40350213 0 -24801.12180778 0 -20909.75325027 0 75
0.00950000 0.00948925 68405.37634584 0 -12697.63137878 0 10051.82185709 0 -15750.93567077 0 -29776.24951854 0 112
0.01050000 0.01054430 80396.15050819 0 -256.60444937 0 29290.94952174 0 -34405.47780197 0 -33755.64305837 0 105
0.01150000 0.01145670 71647.02088299 0 15705.64986226 0 32165.10359817 0 -20814.97414982 0 -12033.62405940 0 144
0.01250000 0.01249090 67618.79839072 0 9719.12064094 0 31160.29012088 0 -4081.41394070 0 -1994.84540095 0 169
0.01350000 0.01339930 63883.66033640 0 -5257.48306596 0 18139.01468765 0 14429.23225716 0 -25275.23875652 0 180
0.01450000 0.01448870 71922.16815474 0 -4438.56285005 0 23689.90328898 0 19540.66028644 0 -23752.35120096 0 267
0.01550000 0.01550050 63272.91089940 0 -269.43505937 0 13504.69313481 0 11472.36791434 0 -15498.48666490 0 238
0.01650000 0.01653350 62386.34985117 0 10974.06900821 0 4808.17919715 0 1974.57197421 0 2750.89695654 0 315
0.01750000 0.01747870 58200.78962323 0 -936.49058977 0 1211.97667465 0 1741.16736703 0 -6294.60558708 0 297
0.01850000 0.01844180 59992.40250213 0 -5834.91587758 0 14066.61361935 0 1704.41832096 0 5458.44576142 0 388
0.01950000 0.01947590 60800.23932090 0 11.73223538 0 9138.83116952 0 -6867.31051600 0 -9756.89941322 0 399
0.02050000 0.02045430 62236.54129638 0 -475.06031081 0 14319.17334847 0 -4807.03874769 0 -3695.03409383 0 462
0.02150000 0.02154770 61929.28428266 0 2842.64223999 0 14623.99445072 0 -11846.16960022 0 -11403.71950047 0 571
0.02250000 0.02255340 61466.46110524 0 3293.09763059 0 9435.48089606 0 -8038.16457627 0 -15828.44194450 0 510
0.02350000 0.02348930 60191.04000938 0 1755.77176347 0 14128.61863834 0 -5603.94718186 0 -17006.53730520 0 555
0.02450000 0.02439640 55645.51850158 0 1655.22398179 0 11290.78178732 0 -7380.70100086 0 -13026.59014914 0 592
0.02550000 0.02547300 57639.75492467 0 -311.86088638 0 11885.58707658 0 7564.37979728 0 -19641.30771904 0 837
0.02650000 0.02652900 55887.89169186 0 -915.96471402 0 19240.26811411 0 2025.83683812 0 -12917.63847292 0 723
0.02750000 0.02749970 59041.06835372 0 2564.98155051 0 17238.72395665 0 1823.60082531 0 -18025.63408151 0 826
0.02850000 0.02848090 55771.07866503 0 1761.79510817 0 25051.24562544 0 2726.15031057 0 3883.72865339 0 831
0.02950000 0.02946900 56463.43113594 0 274.06772007 0 23711.60504563 0 617.06287661 0 2880.04455323 0 996
0.03050000 0.03053250 58945.18202079 0 -15.67243289 0 31134.71305054 0 2622.02616798 0 2709.30930452 0 1041
0.03150000 0.03150510 57413.87949837 0 850.59924445 0 28890.57425630 0 8541.31316068 0 4610.62677773 0 1036
0.03250000 0.03246190 53292.76020087 0 1615.02037037 0 20550.89920290 0 5012.08713101 0 359.15300014 0 1059
0.03350000 0.03345080 56428.33186626 0 -3080.21004130 0 18461.88367936 0 5620.74389861 0 6963.25221055 0 1302
0.03450000 0.03451200 57824.44130264 0 -691.53422611 0 13993.20410581 0 6699.49836104 0 -4459.15737421 0 1339
0.03550000 0.03553350 56567.06809624 0 469.21080161 0 10711.04593214 0 -618.22436348 0 -3173.83761997 0 1365
0.03650000 0.03647120 55555.61122405 0 3905.05395099 0 8426.08347629 0 -5095.43959224 0 -994.77973654 0 1308
0.03750000 0.03744890 53473.34981866 0 3003.21309451 0 12857.07285616 0 -3136.85605507 0 -1726.90621266 0 1579
0.03850000 0.03847530 49959.99043045 0 4127.53017357 0 15270.72894338 0 -4217.63675294 0 1525.98780651 0 1662
0.03950000 0.03950240 46540.52435671 0 4165.44181375 0 16637.49671899 0 307.30351748 0 -2150.62193882 0 1683
0.04050000 0.04050350 45739.44165608 0 1759.25954579 0 20999.32835805 0 3114.58960986 0 -2216.45798220 0 1822
0.04150000 0.04152450 42887.65367579 0 1364.68617855 0 19364.94249157 0 315.07850397 0 -1830.81998109 0 1887
0.04250000 0.04250150 43798.24166888 0 948.61478544 0 17315.23372114 0 1144.64586743 0 -3388.97289119 0 1920
0.04350000 0.04349210 42508.86944375 0 -621.67117820 0 18567.95655113 0 -1256.35455252 0 -5032.70379982 0 2005
0.04450000 0.04448520 42574.63905317 0 82.45715305 0 16749.43792291 0 74.25399976 0 -6342.17229450 0 2151
0.04550000 0.04548030 43203.10420988 0 1758.47341072 0 18122.07403068 0 202.43642189 0 -10995.58253533 0 2274
0.04650000 0.04648670 42062.65475356 0 983.97314752 0 17698.55760637 0 697.93292262 0 -8212.28795637 0 2311
0.04750000 0.04749250 39972.31055104 0 1520.50700572 0 16186.07803614 0 1628.75005315 0 -7216.94131679 0 2568
0.04850000 0.04851840 38693.78920423 0 1834.75065640 0 18144.44012681 0 -449.00713051 0 -7745.12442762 0 2493
0.04950000 0.04949480 38027.67814314 0 163.20385336 0 14888.29084414 0 6524.61099053 0 -612.43353760 0 2644
0.05050000 0.05050630 38195.20241765 0 80.57076107 0 16042.80215298 0 4250.22260489 0 1698.76036298 0 2829
0.05150000 0.05149060 37021.20381713 0 410.50201372 0 12946.20507095 0 3003.21309451 0 1788.40190471 0 2784
0.05250000 0.05249300 37741.90143958 0 115.77665723 0 14052.77321333 0 3242.50817849 0 4603.55156217 0 3055
0.05350000 0.05348950 37727.95031030 0 636.11613316 0 13298.96933968 0 6.72329279 0 5395.47745018 0 3009
0.05450000 0.05448610 38122.78941334 0 -1582.71132655 0 12172.24956613 0 1622.36132173 0 4656.27797296 0 3336
0.05550000 0.05550870 38633.66648047 0 -213.30501593 0 12502.53701547 0 803.89174944 0 4127.18693150 0 3349
0.05650000 0.05647670 39166.24530425 0 1509.93293552 0 12563.76697172 0 -708.63764625 0 3795.46007993 0 3324
0.05750000 0.05747970 37552.34323868 0 2202.82795034 0 14170.80419590 0 -545.64527430 0 5146.26156316 0 3639
0.05850000 0.05849280 35737.47847766 0 1638.47155434 0 13760.79600786 0 267.62584149 0 5168.60551464 0 3846
0.05950000 0.05951020 34137.97043435 0 609.53480296 0 13345.58382716 0 2132.19759033 0 2845.75356326 0 3787
0.06050000 0.06049470 33593.87639277 0 -726.78850833 0 12046.80012594 0 2917.41364949 0 310.01845153 0 3930
0.06150000 0.06148310 34317.34209642 0 627.74434836 0 12464.44821809 0 1140.72626444 0 -1135.42262085 0 4083
0.06250000 0.06249100 33217.74951868 0 1568.35052126 0 12037.94226608 0 -810.69347857 0 -169.69112847 0 4303
0.06350000 0.06350600 32113.39584126 0 1056.66517442 0 10763.27408831 0 -730.76458017 0 1325.43478707 0 4470
0.06450000 0.06451750 30247.70910932 0 1091.49317213 0 9685.89259415 0 1673.65940261 0 1658.71176411 0 4479
0.06550000 0.06550280 31667.18115107 0 -155.98691205 0 9769.02360889 0 2043.08752019 0 -361.47486666 0 4636
0.06650000 0.06648880 30381.01990014 0 -295.01766586 0 9826.67720422 0 1307.24295739 0 170.87476000 0 4653
0.06750000 0.06749660 30813.17273781 0 256.05636929 0 10311.46787408 0 -1337.14930672 0 -378.40666577 0 5220
0.06850000 0.06852730 30493.40399705 0 449.99256742 0 10983.59120755 0 -468.49552942 0 120.53554244 0 5029
0.06950000 0.06949320 30167.65620088 0 400.37305098 0 11576.22632114 0 133.20117480 0 361.75942540 0 5040
0.07050000 0.07048030 29772.37420486 0 -129.77871920 0 10929.71327498 0 282.52033284 0 816.20085294 0 5475
0.07150000 0.07148790 30189.46868078 0 628.96673302 0 10195.17524651 0 1544.66681847 0 -1028.04100030 0 5509
0.07250000 0.07249820 29670.73026302 0 346.22495368 0 10132.99307033 0 820.28764803 0 -1858.43435919 0 5916
0.07350000 0.07351270 29458.91668924 0 1018.17888058 0 9285.42875011 0 991.57540574 0 620.47979605 0 5721
0.07450000 0.07449140 28089.71300217 0 972.76906203 0 9459.07602024 0 -554.64928884 0 216.46727190 0 6028
0.07550000 0.07549160 27899.49046178 0 -206.83434931 0 7850.20079015 0 1506.48944250 0 19.31190606 0 6183
0.07650000 0.07648840 28190.91405101 0 -163.67996333 0 8311.19703397 0 -214.86510650 0 -1259.88662414 0 6330
0.07750000 0.07749960 27512.84487912 0 1430.96511491 0 8506.36890355 0 -614.26490013 0 -1489.21661578 0 6583
0.07850000 0.07848650 26971.18674899 0 1301.56285476 0 9037.72977160 0 -1472.70777948 0 -984.42489837 0 6549
0.07950000 0.07947320 24897.45103370 0 1389.86464519 0 9305.71324918 0 -878.29666498 0 -631.22880898 0 6828
0.08050000 0.08048110 24503.71916315 0 945.31633988 0 9948.51706653 0 1509.87757389 0 -1552.41744585 0 7147
0.08150000 0.08149960 23375.00637114 0 -251.90314025 0 8441.25256129 0 2624.08562040 0 -1682.50619014 0 7386
0.08250000 0.08250610 23638.85987157 0 -289.31984751 0 6673.31231285 0 2390.52600067 0 -1851.12662481 0 7227
0.08350000 0.08350160 23797.52628622 0 -228.44420566 0 6969.78488219 0 518.93661237 0 -2775.36679439 0 7798
0.08450000 0.08449610 23924.30440539 0 808.14130770 0 6440.47239424 0 52.09097007 0 -1403.30644752 0 7371
0.08550000 0.08548940 23008.06952665 0 1021.19608909 0 7276.28897782 0 -1345.61963521 0 -1150.62492283 0 8256
0.08650000 0.08650700 22246.62574887 0 900.01060119 0 7384.24414480 0 -13.25855535 0 -301.85150474 0 8037
0.08750000 0.08749060 21588.92965464 0 566.89417285 0 8482.26445242 0 53.72768112 0 -190.21589699 0 8155
0.08850000 0.08849210 21083.36730343 0 1132.44416548 0 8742.53051961 0 1280.39256970 0 597.42943024 0 8718
0.08950000 0.08949900 20488.45129092 0 560.59180557 0 8389.86590181 0 1046.65468555 0 1581.20549038 0 8571
0.09050000 0.09049190 19935.05649648 0 292.78105625 0 8235.82771893 0 531.08516716 0 2170.93965487 0 8932
0.09150000 0.09150830 19592.14659685 0 198.96192636 0 7828.59868443 0 1598.55582337 0 3368.34515005 0 9285
0.09250000 0.09250820 19947.56822353 0 -246.77554663 0 7697.80131134 0 783.87962956 0 2557.15341687 0 9204
0.09350000 0.09350330 19568.34109849 0 -250.41059087 0 6823.23159089 0 523.41426052 0 1903.68695072 0 9349
0.09450000 0.09448040 20044.67251219 0 282.25570428 0 7072.99002183 0 -15.93274324 0 1632.69180078 0 9564
0.09550000 0.09549270 19337.81529577 0 593.21198172 0 6920.67912162 0 -692.14431120 0 1989.16529832 0 10155
0.09650000 0.09649430 18652.54911274 0 882.51411351 0 6467.32278192 0 123.39884564 0 1723.54022592 0 9913
0.09750000 0.09749140 18440.73553896 0 336.31411574 0 6665.29594968 0 1114.25233580 0 1013.14540172 0 10476
0.09850000 0.09850240 17814.37412397 0 133.69389326 0 5488.38532773 0 1107.62001323 0 579.39261311 0 10575
0.09950000 0.09950330 17533.80141306 0 354.45058379 0 5828.02889154 0 968.83617226 0 347.66214145 0 10882
0.10050000 0.10051200 17425.62479959 0 239.29951291 0 4924.41646309 0 175.11656763 0 415.34837029 0 10875
0.10150000 0.10150300 16774.23993050 0 215.15520141 0 4865.85493713 0 -122.01591227 0 212.26753910 0 11118
0.10250000 0.10250800 17204.62119621 0 222.06986826 0 5011.72174429 0 -365.84400603 0 -322.81030839 0 11575
0.10350000 0.10349800 16464.32555883 0 445.26800642 0 5029.40424702 0 -889.97243151 0 -652.45888459 0 11364
0.10450000 0.10450100 16639.04684447 0 803.64372936 0 5674.00178099 0 -883.94687234 0 -335.64977625 0 12093
0.10550000 0.10551000 15485.53204486 0 412.32008946 0 5297.17735044 0 51.26397812 0 -121.12459012 0 12067
0.10650000 0.10649700 15812.49779676 0 116.95585983 0 5746.95732922 0 672.09454542 0 -933.77565572 0 12054
0.10750000 0.10749900 15269.06809466 0 -240.82417204 0 5148.19922000 0 792.37874609 0 -769.23315829 0 12807
0.10850000 0.10850100 15860.44096322 0 -258.96064009 0 5047.89502947 0 997.28761811 0 -1323.28675605 0 12736
0.10950000 0.10950300 15853.13322884 0 196.19384516 0 5000.76014272 0 330.69269643 0 -389.24757900 0 12933
0.11050000 0.11050200 15562.81687210 0 629.64103760 0 4655.65792277 0 145.90002414 0 61.61626966 0 13428
0.11150000 0.11150900 15280.36186597 0 271.31514012 0 4468.71279053 0 -171.18589232 0 374.90891836 0 13453
0.11250000 0.11250000 15009.08990792 0 -16.87067988 0 4634.34369749 0 220.88070057 0 213.16550464 0 13668
0.11350000 0.11349100 15083.93882369 0 -149.53285391 0 4602.59934224 0 286.82525273 0 63.96039155 0 13791
0.11450000 0.11448600 15184.58625629 0 4.78047624 0 4060.74191026 0 778.72214066 0 435.29184176 0 14205
0.11550000 0.11549300 15213.92791706 0 26.27584475 0 3501.44556670 0 824.82287227 0 -24.61743194 0 14776
0.11650000 0.11649800 14875.00405436 0 163.88812304 0 2969.66395031 0 204.04301622 0 -548.99133086 0 14553
0.11750000 0.11747300 14907.33524283 0 295.98649428 0 3572.87313410 0 -97.73817926 0 -698.11118705 0 14568
0.11850000 0.11849100 14473.30010994 0 97.70230492 0 3346.27800669 0 -239.38144811 0 -286.81860933 0 16015
0.11950000 0.11950300 14615.69020711 0 115.53970948 0 4024.42468486 0 -431.71105191 0 789.53094415 0 15270
0.12050000 0.12050700 14558.33556455 0 127.71594509 0 3964.10265925 0 89.60467089 0 514.41135321 0 15999
0.12150000 0.12150000 14511.38890732 0 387.85689500 0 4675.86491556 0 440.75381959 0 778.74760700 0 15670
0.12250000 0.12250700 14217.30796013 0 379.00567854 0 3761.70056156 0 158.37742697 0 1196.48649223 0 16887
0.12350000 0.12352200 13829.55514499 0 463.84847470 0 4335.72309714 0 -281.15622242 0 1527.33863013 0 16407
0.12450000 0.12449800 13677.42140198 0 162.73549402 0 4260.59737324 0 667.64236361 0 1315.00465709 0 16306
0.12550000 0.12549900 13502.14650010 0 -52.22317362 0 4172.26236584 0 329.99403273 0 1738.67609395 0 17523
0.12650000 0.12650100 13516.76196886 0 72.06167945 0 3855.30599558 0 35.34142142 0 943.26353086 0 17154
0.12750000 0.12750600 13512.66520868 0 202.89703060 0 3835.59725740 0 275.60345153 0 996.34757774 0 18007
0.12850000 0.12850300 13147.38921291 0 299.82526930 0 4070.97273840 0 -369.82561404 0 1429.90217173 0 17496
0.12950000 0.12949900 12916.86341018 0 475.94498956 0 4127.86234331 0 -220.90063076 0 1237.15514129 0 18405
0.13050000 0.13049000 12968.57116709 0 148.16431456 0 4652.96734784 0 525.07510925 0 1542.59629373 0 18100
0.13150000 0.13148800 12553.24826314 0 43.54767496 0 4118.71660301 0 321.12731502 0 1056.99845139 0 19059
0.13250000 0.13249300 12639.72311997 0 169.85167718 0 4305.76138618 0 488.24634244 0 1601.85537616 0 18957
0.13350000 0.13349100 12586.68668409 0 70.57167670 0 3723.10243724 0 249.70196208 0 1153.68088448 0 19468
0.13450000 0.13450700 12295.81671111 0 92.18009364 0 3581.12201609 0 194.94710138 0 1258.59116214 0 19953
0.13550000 0.13551000 12186.08997215 0 305.75782094 0 3129.05006607 0 523.84497396 0 1237.18835826 0 19956
0.13650000 0.13649900 11941.61304016 0 124.51050705 0 3168.33467453 0 138.29222975 0 638.68048358 0 19723
0.13750000 0.13749600 11580.98742081 0 353.62680283 0 2788.13318491 0 96.10556496 0 506.52010732 0 20946
0.13850000 0.13851100 11565.04327308 0 259.23191205 0 2927.13515068 0 -407.55234639 0 258.38930813 0 20955
0.13950000 0.13949800 11172.64008150 0 189.93133824 0 3039.15386087 0 -236.96214514 0 590.39186058 0 20506
0.14050000 0.14048300 11212.72189735 0 98.84740476 0 3194.56501203 0 -110.59945959 0 432.60348129 0 21447
0.14150000 0.14148400 11081.07195525 0 41.91295692 0 3026.09958991 0 340.26472123 0 478.65660191 0 21771
0.14250000 0.14249400 11045.89517930 0 -54.75242478 0 2787.82315981 0 702.78924428 0 650.33521269 0 22470
0.14350000 0.14350900 11026.25287508 0 -9.57499219 0 2502.21254112 0 435.04382168 0 299.93488531 0 22519
0.14450000 0.14449900 11211.28249512 0 127.69712213 0 2712.97424404 0 20.21729006 0 535.58274550 0 22218
0.14550000 0.14550500 10817.08558693 0 331.48215319 0 2364.94893034 0 26.95856430 0 302.35308106 0 23559
0.14650000 0.14650700 10705.15545534 0 177.53254891 0 2595.99513233 0 -310.88430733 0 721.63655559 0 23044
0.14750000 0.14750500 10391.83080762 0 341.71519579 0 2826.93061107 0 -175.10881701 0 517.24143944 0 23649
0.14850000 0.14849900 10299.21081051 0 332.36129578 0 2972.59811639 0 -62.33309197 0 661.82828585 0 23640
0.14950000 0.14949500 10038.98903262 0 222.96561934 0 2943.74363791 0 481.40475293 0 718.35693298 0 24457
0.15050000 0.15050000 9835.44648548 0 137.42415949 0 2891.05044410 0 83.01209797 0 821.69604774 0 24591
0.15150000 0.15149900 9904.71494955 0 60.30065603 0 2832.98717275 0 243.60554003 0 325.84191093 0 25020
0.15250000 0.15250500 9757.87377780 0 2.78997119 0 2919.86063328 0 36.32597254 0 629.42069834 0 25297
0.15350000 0.15350100 9814.22083880 0 97.64805053 0 2893.88495925 0 -133.67839200 0 513.59532288 0 25452
0.15450000 0.15450400 9724.05889780 0 87.35975703 0 2907.63678668 0 -102.14441092 0 530.16394973 0 26061
0.15550000 0.15549900 9766.93093950 0 58.41603562 0 2851.22329172 0 76.93228441 0 461.60189999 0 26128
0.15650000 0.15649500 9693.12282226 0 48.93845774 0 2876.71178346 0 -108.04906030 0 235.45077280 0 26331
0.15750000 0.15749700 9651.85626766 0 113.12040651 0 2755.43660972 0 71.45391954 0 402.05936605 0 27345
0.15850000 0.15849900 9497.78486781 0 45.53405003 0 2890.08715184 0 165.79809907 0 30.66591082 0 26980
0.15950000 0.15949700 9424.78503028 0 73.75552370 0 2652.90688190 0 338.43114424 0 390.88628307 0 27777
0.16050000 0.16050000 9387.52665727 0 263.80921113 0 2803.45728246 0 183.67658195 0 321.66653724 0 28224
0.16150000 0.16150500 9049.77646100 0 280.97131460 0 2335.41904005 0 479.19250243 0 558.97081721 0 28075
0.16250000 0.16249700 8958.69551704 0 167.18878306 0 2568.44718818 0 250.96974327 0 967.97917432 0 28590
0.16350000 0.16349900 8724.78158292 0 156.08767020 0 2134.96567153 0 351.78326074 0 724.28284122 0 29163
0.16450000 0.16449100 8704.45279455 0 73.05586349 0 2187.55921442 0 -47.14374461 0 668.61340650 0 28996
0.16550000 0.16550500 8681.98704750 0 130.82616113 0 2434.27275603 0 -243.90670727 0 851.91131494 0 30777
0.16650000 0.16650700 8591.09433306 0 130.30244016 0 2697.58371254 0 -292.83863234 0 779.43298391 0 29211
0.16750000 0.16749900 8446.12438421 0 199.70487936 0 2648.11256525 0 -151.61223651 0 873.93749070 0 30922
0.16850000 0.16850800 8328.80203043 0 141.14888956 0 2546.57934666 0 44.34687536 0 810.69569304 0 30867
0.16950000 0.16949900 8238.02003924 0 122.88287530 0 2748.49426206 0 72.79754615 0 474.08926792 0 30852
0.17050000 0.17049200 8161.82029984 0 135.92828840 0 2500.16416102 0 118.78611512 0 373.58909724 0 31257
0.17150000 0.17149500 8008.62361365 0 138.95989094 0 2628.99066029 0 116.83627872 0 528.94045784 0 32608
0.17250000 0.17250900 8009.36545941 0 57.35453184 0 2557.64059916 0 -139.60097855 0 596.62557946 0 32361
0.17350000 0.17350400 7928.75893473 0 12.02819862 0 2528.04427492 0 105.39712778 0 471.20271284 0 32508
0.17450000 0.17449800 7917.04441508 0 77.65575012 0 2606.81279368 0 145.92991941 0 483.30697833 0 32791
0.17550000 0.17549800 7937.72751784 0 59.69876445 0 2582.45367908 0 -19.19786111 0 553.11134292 0 33633
0.17650000 0.17650100 7892.36420306 0 122.65478541 0 2785.40939300 0 45.45001109 0 343.74253846 0 33984
0.17750000 0.17750300 7752.90827197 0 122.83304984 0 2629.22317911 0 -86.76417668 0 235.77297746 0 34069
0.17850000 0.17849800 7658.37276266 0 76.81890381 0 2534.90911631 0 120.75477447 0 285.20758607 0 34536
