### header ###
fiducial parameters:
Omega_m = 0.31
Omega_nu = 0
Omega_de = 0.69
Omega_k = 0
H_0 = 100
w_de = -1
zeff = 0
beta = 0
fgrowth = 0
b_1 = 2
gamma = 0.55
Lx = 3500 Ly = 3500 Lz = 3500
nx = 700 ny = 700 nz = 700
xoffset = -685.467585 yoffset = -31.7331281 zoffset = 572.489161
bins = 400 dk = 0.001
kx_ny = 0.628318531 ky_ny = 0.628318531 kz_ny = 0.628318531
############################
A(data) = 7.998559 (not used)
A(ran) = 7.99546225 (used)
Ngal = 475849
weighted Ngal = 0
Nran = 23820508
weighted Nran = 0
SN(data) = 3486.04068
SN(ran) = 69.6433759
SN(data+ran) = 3555.68406
############################
13 columns: k_central k_mean P_0(k) sigma^{lin}_{P_0(k)} P^img_1(k) sigma^{lin}_{P_1(k)} P_2(k) sigma^{lin}_{P_2(k)} P^img_3(k) sigma^{lin}_{P_3(k)} P_4(k) sigma^{lin}_{P_4(k)} N_modes
### header ###
0.00050000 0 0 0 0 0 0 0 0 0 0 0 0
0.00150000 0.00179520 25146.24617238 0 -29028.64614679 0 32162.77840996 0 -82125.20475187 0 18595.08374693 0 3
0.00250000 0.00253879 35024.08858959 0 -10029.63291815 0 -7788.50579626 0 27200.60531923 0 26154.49207037 0 6
0.00350000 0.00331552 45775.53743499 0 -5253.23129323 0 9781.81214406 0 -14749.88678391 0 8704.35314363 0 7
0.00450000 0.00420575 42014.37941735 0 2292.04874373 0 1511.31697612 0 -18086.97476100 0 18034.15977162 0 24
0.00550000 0.00557378 53024.14560077 0 -2176.96299957 0 25377.54703784 0 -10372.68675801 0 -9279.02894637 0 45
0.00650000 0.00659388 50836.91855609 0 -8215.17783314 0 32835.97575893 0 -10250.96869127 0 28445.57752184 0 40
0.00750000 0.00754703 54006.03936568 0 10074.37618274 0 37448.37410863 0 -3582.32889950 0 -13310.92745048 0 57
0.00850000 0.00846663 65768.83436002 0 -3852.32754020 0 28255.57642795 0 14827.39305764 0 17845.59807996 0 75
0.00950000 0.00948925 57705.74598059 0 -3447.64514041 0 40949.11104654 0 7987.94051089 0 -1612.18585522 0 112
0.01050000 0.01054430 79344.39037367 0 -13002.56320428 0 18126.06006761 0 29628.87687521 0 18607.15258098 0 105
0.01150000 0.01145670 75907.09785697 0 -10375.66521338 0 9973.88376269 0 32124.24671959 0 1942.86083593 0 144
0.01250000 0.01249090 97248.33960542 0 -4859.45513338 0 -1.22501987 0 21113.04113394 0 2407.13448790 0 169
0.01350000 0.01339930 84822.20163120 0 -10202.15081115 0 -166.64956085 0 9220.51170970 0 -5427.48754123 0 180
0.01450000 0.01448870 99100.51810108 0 -4708.10752544 0 -4786.63245305 0 -12294.82020187 0 -5654.34840444 0 267
0.01550000 0.01550050 105038.82734782 0 -4768.10845363 0 6467.86532584 0 -38397.49379209 0 2599.68221649 0 238
0.01650000 0.01653350 108573.99921592 0 11667.24083115 0 39643.01961094 0 -24245.62327163 0 -16743.68031401 0 315
0.01750000 0.01747870 98160.80989372 0 17648.39997494 0 44611.28248031 0 -21437.23880463 0 10592.30632078 0 297
0.01850000 0.01844180 82707.05542109 0 20478.37547533 0 53058.80197745 0 1036.47479011 0 1601.34604922 0 388
0.01950000 0.01947590 80177.36136977 0 2442.04552805 0 62159.36719239 0 13375.03621118 0 -3955.93128353 0 399
0.02050000 0.02045430 75263.68506176 0 -853.89769001 0 51166.09877295 0 22697.04792249 0 -3871.21692634 0 462
0.02150000 0.02154770 72451.64672756 0 442.59625444 0 46567.87299901 0 17555.39244646 0 -420.39624318 0 571
0.02250000 0.02255340 77197.68803783 0 -3195.71653381 0 47208.96060601 0 5473.24945970 0 -6239.67578365 0 510
0.02350000 0.02348930 73114.98970745 0 5506.47750648 0 44802.72297643 0 -4351.18006258 0 -12152.76227445 0 555
0.02450000 0.02439640 72513.87319304 0 10159.81024104 0 48519.37024830 0 -12462.12302988 0 3323.04826922 0 592
0.02550000 0.02547300 65354.39724206 0 2701.06042253 0 49488.75228617 0 -2977.01597399 0 4830.39028073 0 837
0.02650000 0.02652900 70726.57852082 0 -3031.51395675 0 56292.25299424 0 6361.80352640 0 2514.09314565 0 723
0.02750000 0.02749970 74945.24499997 0 -3031.39216117 0 55894.09219376 0 13305.94490431 0 -7964.78827969 0 826
0.02850000 0.02848090 70164.54731302 0 2269.91516642 0 46738.38680122 0 15264.86061123 0 2629.99824185 0 831
0.02950000 0.02946900 66666.13556332 0 3362.17786513 0 39446.48584541 0 15381.12002182 0 -3069.85741759 0 996
0.03050000 0.03053250 67803.15259895 0 431.15965014 0 30712.52530521 0 14803.91972903 0 -8272.33317386 0 1041
0.03150000 0.03150510 63669.74302090 0 1902.77902008 0 23771.72776939 0 6445.16705996 0 -3310.50332520 0 1036
0.03250000 0.03246190 59780.03531211 0 2488.67108786 0 19128.88052644 0 280.12760345 0 -12092.86099718 0 1059
0.03350000 0.03345080 58437.73737435 0 2147.58812182 0 19992.74330879 0 -2819.61180437 0 -7750.85989187 0 1302
0.03450000 0.03451200 55659.24818436 0 2552.37017254 0 20207.98930326 0 -3837.63456517 0 -9165.01721771 0 1339
0.03550000 0.03553350 54301.89188484 0 5548.15373710 0 24274.74348590 0 479.48370457 0 -2232.13639414 0 1365
0.03650000 0.03647120 52058.52815333 0 -78.34013051 0 20520.78247939 0 4384.98387025 0 1367.96358669 0 1308
0.03750000 0.03744890 51406.14677502 0 -493.72603599 0 22524.09820883 0 7471.64907692 0 3565.06714511 0 1579
0.03850000 0.03847530 51821.80184871 0 1341.98791267 0 26355.12259608 0 4481.29095153 0 720.64115359 0 1662
0.03950000 0.03950240 50962.70016603 0 1260.80562710 0 21454.17946160 0 8527.50597163 0 5192.45530230 0 1683
0.04050000 0.04050350 46776.58632185 0 2971.14764184 0 17342.80380994 0 4066.17842175 0 8616.60496944 0 1822
0.04150000 0.04152450 46507.08593576 0 1929.17544245 0 18462.88018860 0 1280.41471435 0 8235.34053664 0 1887
0.04250000 0.04250150 43243.07530247 0 1024.61079407 0 18588.44035204 0 79.81175320 0 7448.71829222 0 1920
0.04350000 0.04349210 44940.35197392 0 1945.39639831 0 15480.10660570 0 -3757.01696816 0 1968.74793135 0 2005
0.04450000 0.04448520 42089.33905637 0 936.04658954 0 15438.25321789 0 -1054.84266975 0 8089.48480180 0 2151
0.04550000 0.04548030 42181.23935236 0 183.61679140 0 15897.09035837 0 1834.92781360 0 2944.86194272 0 2274
0.04650000 0.04648670 43610.45503995 0 -878.37527849 0 18673.58652990 0 138.80266393 0 3807.58427561 0 2311
0.04750000 0.04749250 43710.65957956 0 528.17646743 0 19174.71995119 0 3273.24495219 0 2471.37611650 0 2568
0.04850000 0.04851840 41229.68375745 0 2574.38195428 0 19071.52588388 0 2260.43725638 0 5069.30890567 0 2493
0.04950000 0.04949480 40846.47059548 0 1853.93899531 0 17944.91683358 0 4069.83228894 0 6350.53189973 0 2644
0.05050000 0.05050630 39296.45584411 0 -103.99149614 0 16524.00538960 0 6037.27368597 0 6271.02153521 0 2829
0.05150000 0.05149060 39678.89394335 0 -1062.83356657 0 13158.57226098 0 1661.33590509 0 4718.85875283 0 2784
0.05250000 0.05249300 38452.52324644 0 1166.31440710 0 12495.89362058 0 -4.33224639 0 2276.07137902 0 3055
0.05350000 0.05348950 38967.49707375 0 2034.36252823 0 12204.91292435 0 -2547.67550682 0 2514.29244749 0 3009
0.05450000 0.05448610 36796.54634656 0 1008.92795319 0 11299.75037042 0 340.76740478 0 1578.53706010 0 3336
0.05550000 0.05550870 37002.71303468 0 -237.57665917 0 11844.73019800 0 500.86325657 0 138.91227994 0 3349
0.05650000 0.05647670 35912.08904005 0 1020.65908134 0 12485.04274226 0 771.28264561 0 -1418.90735318 0 3324
0.05750000 0.05747970 36086.58887919 0 1477.47995148 0 12355.82871162 0 -364.71573613 0 -878.55686462 0 3639
0.05850000 0.05849280 34339.59746930 0 1283.19386788 0 13347.79829213 0 -1559.41515513 0 -943.76732164 0 3846
0.05950000 0.05951020 33776.12685928 0 1272.69730395 0 13508.67917174 0 1192.85476969 0 -43.48467343 0 3787
0.06050000 0.06049470 33099.82925936 0 -358.29157327 0 16122.19072193 0 698.99365134 0 1312.70161352 0 3930
0.06150000 0.06148310 32837.19371466 0 555.01024663 0 15877.93523644 0 1503.36704690 0 -68.70576852 0 4083
0.06250000 0.06249100 32679.30236275 0 352.57493197 0 13361.86014465 0 2691.47178924 0 2521.54482025 0 4303
0.06350000 0.06350600 32057.03770794 0 327.61126843 0 12737.49174812 0 2855.46399213 0 -856.19409018 0 4470
0.06450000 0.06451750 31667.62404407 0 -388.44815715 0 9392.66421598 0 2079.84763858 0 745.73436333 0 4479
0.06550000 0.06550280 32022.93494750 0 327.07426068 0 8933.22916996 0 2696.29932286 0 -914.83201519 0 4636
0.06650000 0.06648880 31599.41852318 0 452.50377069 0 6546.15773463 0 559.55100704 0 -27.16395592 0 4653
0.06750000 0.06749660 30427.30221788 0 837.52725777 0 6628.33652943 0 -774.38178933 0 -175.80194454 0 5220
0.06850000 0.06852730 29550.48481549 0 1753.73445570 0 7586.63517016 0 -987.35242105 0 -515.44772282 0 5029
0.06950000 0.06949320 29163.17489334 0 1411.88749925 0 8886.64789945 0 -797.35132717 0 2643.90508182 0 5040
0.07050000 0.07048030 27396.14257553 0 1074.15944763 0 8935.10039285 0 581.47310294 0 742.69833186 0 5475
0.07150000 0.07148790 27363.92211031 0 137.62013964 0 9888.10646232 0 1226.44820319 0 3632.13221653 0 5509
0.07250000 0.07249820 27581.60401624 0 -690.00956698 0 8966.28005954 0 1714.05124355 0 2558.71461467 0 5916
0.07350000 0.07351270 27862.95178988 0 38.42307086 0 8912.02566793 0 388.54227191 0 1542.97275278 0 5721
0.07450000 0.07449140 27661.65692468 0 697.66165066 0 9080.73468119 0 -962.65227885 0 105.69408753 0 6028
0.07550000 0.07549160 26415.02387335 0 1384.33955510 0 9667.98864492 0 -1547.41275503 0 1288.76324727 0 6183
0.07650000 0.07648840 26062.25960463 0 501.17217443 0 9167.50849080 0 -560.28620940 0 700.98334811 0 6330
0.07750000 0.07749960 25421.61489062 0 -75.42622679 0 8832.89176245 0 1058.15108041 0 57.68614797 0 6583
0.07850000 0.07848650 26165.45367194 0 -258.82998666 0 8529.28861592 0 1399.06574711 0 -444.75978671 0 6549
0.07950000 0.07947320 25854.98568402 0 93.13895697 0 8943.20533462 0 1712.04715276 0 -1425.78326690 0 6828
0.08050000 0.08048110 25564.00498779 0 712.07560311 0 7530.27703684 0 436.48100944 0 -269.59117915 0 7147
0.08150000 0.08149960 24977.94683514 0 820.10938360 0 7350.49569876 0 -214.15869218 0 -807.74381124 0 7386
0.08250000 0.08250610 24242.19085094 0 610.66085840 0 9154.60923238 0 -1027.94134937 0 159.65295879 0 7227
0.08350000 0.08350160 23463.47424644 0 1182.59072458 0 8438.08587639 0 -53.90793857 0 -1021.81835375 0 7798
0.08450000 0.08449610 22649.87981877 0 737.37697255 0 8504.65269320 0 -49.24316812 0 -669.55676857 0 7371
0.08550000 0.08548940 22417.47172082 0 87.11738384 0 8516.05718777 0 19.88877418 0 -1514.51687799 0 8256
0.08650000 0.08650700 22294.67963859 0 227.50305805 0 9306.57689052 0 645.23640711 0 -1665.72054572 0 8037
0.08750000 0.08749060 21757.78260813 0 763.73796348 0 8384.85013866 0 658.91183549 0 -1426.54725731 0 8155
0.08850000 0.08849210 21032.21316276 0 815.92847375 0 8179.31457306 0 539.76808428 0 -548.20851749 0 8718
0.08950000 0.08949900 20456.89516519 0 370.80883648 0 7163.07445655 0 1588.14783804 0 -1296.86818903 0 8571
0.09050000 0.09049190 19911.14027488 0 388.64745899 0 6912.30844406 0 714.97765944 0 -1446.90926265 0 8932
0.09150000 0.09150830 19872.27641476 0 273.83298679 0 6117.79163205 0 1235.68252209 0 -933.60624915 0 9285
0.09250000 0.09250820 19019.59668048 0 306.86173172 0 5648.26969811 0 116.51075237 0 -885.31430445 0 9204
0.09350000 0.09350330 19489.06325279 0 -145.21575446 0 4827.15716189 0 1196.40898595 0 -805.16395956 0 9349
0.09450000 0.09448040 19097.87801695 0 -67.13825949 0 4809.25321265 0 533.78238548 0 -965.68166692 0 9564
0.09550000 0.09549270 19114.59722742 0 648.17278765 0 4285.76476755 0 95.62956572 0 -1067.56919990 0 10155
0.09650000 0.09649430 19188.56035721 0 36.18911861 0 4698.52996447 0 106.88613402 0 -518.51475679 0 9913
0.09750000 0.09749140 18692.29875884 0 187.25183564 0 4973.24541554 0 55.59823967 0 -39.36145039 0 10476
0.09850000 0.09850240 18437.85673451 0 608.37220886 0 5003.83824902 0 526.39271590 0 658.17109696 0 10575
0.09950000 0.09950330 17922.10784445 0 580.08906234 0 4765.28501080 0 665.25627761 0 783.79215819 0 10882
0.10050000 0.10051200 17449.98391419 0 402.31956568 0 5453.81752965 0 3.63848773 0 1156.95829263 0 10875
0.10150000 0.10150300 17259.65065055 0 565.17131911 0 5222.83776161 0 6.09758464 0 1045.02483934 0 11118
0.10250000 0.10250800 16908.65795380 0 172.62197285 0 5829.98869304 0 -356.34948750 0 1144.07010654 0 11575
0.10350000 0.10349800 16544.37846727 0 410.32817822 0 5780.36253320 0 -93.34922042 0 1279.75037486 0 11364
0.10450000 0.10450100 16568.40541213 0 347.13842048 0 6264.43350194 0 10.52839686 0 1754.39879519 0 12093
0.10550000 0.10551000 16137.02763719 0 495.09236087 0 6119.45248077 0 17.91911832 0 863.61808397 0 12067
0.10650000 0.10649700 15915.02752458 0 366.34336788 0 6036.28824906 0 10.57273045 0 709.03957164 0 12054
0.10750000 0.10749900 15403.15394821 0 290.55773343 0 5821.50729222 0 327.56697913 0 288.24693924 0 12807
0.10850000 0.10850100 15125.23859526 0 286.72670904 0 5487.54383104 0 -311.04928497 0 -362.88658807 0 12736
0.10950000 0.10950300 15002.55723627 0 -1.96714244 0 5088.82941433 0 349.52118478 0 -336.85001626 0 12933
0.11050000 0.11050200 14962.36469718 0 -223.22471174 0 4811.61161784 0 540.98604001 0 -666.81526095 0 13428
0.11150000 0.11150900 15334.50553434 0 32.86852839 0 4834.81921066 0 458.05654158 0 -730.96388202 0 13453
0.11250000 0.11250000 14884.74770020 0 367.74180250 0 4938.93228093 0 59.88599746 0 -644.04502496 0 13668
0.11350000 0.11349100 14883.97263747 0 468.93288625 0 4898.45186139 0 214.73002414 0 -1027.18621682 0 13791
0.11450000 0.11448600 14454.92005074 0 143.37442684 0 5261.93414054 0 75.61412414 0 -225.01842836 0 14205
0.11550000 0.11549300 14270.34439602 0 146.43592466 0 5216.40474089 0 243.70851265 0 96.39189528 0 14776
0.11650000 0.11649800 14456.02728322 0 -63.96548482 0 5075.24367177 0 441.14024373 0 504.37207630 0 14553
0.11750000 0.11747300 14559.44279703 0 -182.94802298 0 5236.05811744 0 334.24801993 0 -156.78301220 0 14568
0.11850000 0.11849100 14583.46974189 0 260.65913472 0 5120.04229799 0 -222.45629240 0 370.20096585 0 16015
0.11950000 0.11950300 14287.06360649 0 468.12349931 0 4973.75474248 0 -538.97309136 0 20.00979469 0 15270
0.12050000 0.12050700 14123.74681542 0 257.58545735 0 4981.77110565 0 173.69931006 0 833.81470726 0 15999
0.12150000 0.12150000 13979.03153004 0 75.01289690 0 5382.88821686 0 -15.93086095 0 1089.51454769 0 15670
0.12250000 0.12250700 13962.64448931 0 -182.47080578 0 5051.47139039 0 1053.41433985 0 37.90676836 0 16887
0.12350000 0.12352200 13962.20159631 0 -235.22157568 0 4632.50569157 0 295.25129192 0 -396.03491411 0 16407
0.12450000 0.12449800 14039.81859329 0 289.33867046 0 4553.77038979 0 513.59643011 0 -554.78215674 0 16306
0.12550000 0.12549900 13838.30228159 0 377.69028635 0 4585.27115390 0 -249.04205152 0 -13.02603653 0 17523
0.12650000 0.12650100 13306.27707406 0 411.50295188 0 4510.00148978 0 -38.24259197 0 304.63508720 0 17154
0.12750000 0.12750600 13131.11289543 0 348.02199200 0 4496.33824095 0 -23.81712430 0 340.85044722 0 18007
0.12850000 0.12850300 12734.61294367 0 222.11194309 0 4412.84183950 0 272.05366419 0 459.03976403 0 17496
0.12950000 0.12949900 12668.40044125 0 74.70309326 0 4291.12377277 0 873.20782450 0 622.22590167 0 18405
0.13050000 0.13049000 12895.38310004 0 -231.10599254 0 4031.74349156 0 827.07830484 0 794.74268744 0 18100
0.13150000 0.13148800 12602.07721559 0 69.05919713 0 3472.29213545 0 863.79967010 0 544.42178240 0 19059
0.13250000 0.13249300 12694.86329757 0 186.03387991 0 3339.40209298 0 129.02137218 0 1022.15938135 0 18957
0.13350000 0.13349100 12515.04874252 0 240.08896967 0 3474.35158787 0 -218.12590616 0 625.79340473 0 19468
0.13450000 0.13450700 12193.95132278 0 284.13578503 0 3498.55568992 0 -524.79940836 0 482.97591582 0 19953
0.13550000 0.13551000 12214.32440044 0 345.36906298 0 3862.24834324 0 -643.01862045 0 420.97643300 0 19956
0.13650000 0.13649900 11910.16763767 0 26.59317758 0 3899.76137973 0 -865.94105772 0 383.04154094 0 19723
0.13750000 0.13749600 11951.91030224 0 216.27904238 0 4294.98801413 0 -188.96140259 0 182.20839168 0 20946
0.13850000 0.13851100 11910.72125391 0 198.93092385 0 4629.06219856 0 111.24918362 0 456.72121921 0 20955
0.13950000 0.13949800 11712.74808616 0 182.50402275 0 4395.28113233 0 626.13111063 0 -90.69241608 0 20506
0.14050000 0.14048300 11691.04632951 0 -29.09020827 0 4477.34920389 0 380.77060712 0 262.83263208 0 21447
0.14150000 0.14148400 11808.30224934 0 -6.85422303 0 4167.51233849 0 298.34268501 0 161.33373770 0 21771
0.14250000 0.14249400 11578.77295585 0 247.17415032 0 4448.14041102 0 229.27795172 0 649.34313238 0 22470
0.14350000 0.14350900 11342.82171397 0 352.47528104 0 4139.66544157 0 106.21714416 0 810.84295496 0 22519
0.14450000 0.14449900 11078.96821354 0 277.42263449 0 4076.49782848 0 127.52660833 0 709.32191593 0 22218
0.14550000 0.14550500 10931.66200415 0 186.40591002 0 4113.37974245 0 243.27558475 0 634.68115986 0 23559
0.14650000 0.14650700 10592.10701894 0 274.13083233 0 3909.71539974 0 422.42580032 0 792.23480587 0 23044
0.14750000 0.14750500 10430.15212381 0 170.10855512 0 3516.59250705 0 85.50038153 0 -5.87260607 0 23649
0.14850000 0.14849900 10312.26508147 0 80.72034818 0 3478.62550525 0 227.83965672 0 232.65943972 0 23640
0.14950000 0.14949500 10178.76606113 0 205.39383985 0 3468.53861734 0 31.23558193 0 155.16977447 0 24457
0.15050000 0.15050000 9981.49044984 0 115.23079162 0 3219.61061077 0 -21.10783714 0 92.88949749 0 24591
0.15150000 0.15149900 9795.15429547 0 142.59936411 0 3149.50065001 0 463.71560680 0 189.98227094 0 25020
0.15250000 0.15250500 9908.70098648 0 52.56851943 0 2862.97102836 0 524.98874511 0 452.01105223 0 25297
0.15350000 0.15350100 9833.14344192 0 -6.20734460 0 2836.16492997 0 327.06429559 0 369.16791794 0 25452
0.15450000 0.15450400 9700.12053155 0 219.29182196 0 2691.25034274 0 311.84206342 0 724.83535023 0 26061
0.15550000 0.15549900 9576.26550613 0 310.58978349 0 2663.58060302 0 4.08450312 0 1024.62186639 0 26128
0.15650000 0.15649500 9314.74826623 0 213.67926051 0 2781.52300699 0 -340.89473652 0 1042.80483821 0 26331
0.15750000 0.15749700 9236.67730394 0 261.08874092 0 3146.51112231 0 -145.87012886 0 1204.64679562 0 27345
0.15850000 0.15849900 9083.09308638 0 19.95731187 0 2985.41986853 0 -48.08323137 0 1118.30480668 0 26980
0.15950000 0.15949700 9167.72993729 0 -41.02706021 0 3139.28089421 0 28.01586060 0 1210.63692335 0 27777
0.16050000 0.16050000 9307.54018278 0 -107.91386721 0 2796.64780269 0 97.44288035 0 589.75520191 0 28224
0.16150000 0.16150500 9240.47511135 0 -3.31179879 0 3045.52044764 0 274.57040362 0 634.59922466 0 28075
0.16250000 0.16249700 9231.67261312 0 166.08376505 0 2834.47086427 0 62.79912612 0 737.90069352 0 28590
0.16350000 0.16349900 9002.19868125 0 221.31362848 0 2613.73299669 0 523.46187152 0 838.73857010 0 29163
0.16450000 0.16449100 8850.31960172 0 135.51971962 0 2510.36177218 0 319.38231663 0 853.96855289 0 28996
0.16550000 0.16550500 8696.22605721 0 208.45976659 0 2451.99954806 0 314.33333651 0 679.74995080 0 30777
0.16650000 0.16650700 8613.72616499 0 139.62201596 0 2355.86962399 0 69.85762247 0 761.35630641 0 29211
0.16750000 0.16749900 8353.42688083 0 115.17985893 0 2248.70059207 0 -6.13321538 0 866.36844946 0 30922
0.16850000 0.16850800 8405.72147095 0 29.31121188 0 2090.88674643 0 -69.64315154 0 727.89684804 0 30867
0.16950000 0.16949900 8247.56438324 0 60.72417245 0 2031.37300053 0 25.04703814 0 457.57489546 0 30852
0.17050000 0.17049200 8316.61140081 0 23.64074217 0 2114.63688316 0 114.54098578 0 337.64943811 0 31257
0.17150000 0.17149500 8260.07611028 0 -16.75807434 0 1822.68182235 0 188.09443955 0 143.31463629 0 32608
0.17250000 0.17250900 8298.31992021 0 158.81589104 0 1885.57262732 0 -9.99097943 0 -242.14731485 0 32361
0.17350000 0.17350400 8077.51561867 0 249.91233625 0 1790.43921247 0 -365.41329259 0 -86.58690876 0 32508
0.17450000 0.17449800 8007.77104464 0 210.35424137 0 1982.97586875 0 -280.33576315 0 -164.06860193 0 32791
0.17550000 0.17549800 7850.34473037 0 40.04870959 0 1964.91690697 0 -89.25600338 0 128.06804501 0 33633
0.17650000 0.17650100 7904.68770058 0 -42.94666917 0 1911.14969765 0 184.62880189 0 11.85259155 0 33984
0.17750000 0.17750300 8025.08816066 0 -80.60741047 0 1886.66878747 0 413.34760120 0 -59.46790648 0 34069
0.17850000 0.17849800 8064.25097354 0 13.53392407 0 1778.69147584 0 237.06622499 0 -419.60125026 0 34536
