### header ###
fiducial parameters:
Omega_m = 0.31
Omega_nu = 0
Omega_de = 0.69
Omega_k = 0
H_0 = 100
w_de = -1
zeff = 0
beta = 0
fgrowth = 0
b_1 = 2
gamma = 0.55
Lx = 3500 Ly = 3500 Lz = 3500
nx = 700 ny = 700 nz = 700
xoffset = -685.467585 yoffset = -31.7331281 zoffset = 572.489161
bins = 400 dk = 0.001
kx_ny = 0.628318531 ky_ny = 0.628318531 kz_ny = 0.628318531
############################
A(data) = 7.97313522 (not used)
A(ran) = 7.95508631 (used)
Ngal = 472208
weighted Ngal = 0
Nran = 23820508
weighted Nran = 0
SN(data) = 3506.23811
SN(ran) = 69.2916868
SN(data+ran) = 3575.5298
############################
13 columns: k_central k_mean P_0(k) sigma^{lin}_{P_0(k)} P^img_1(k) sigma^{lin}_{P_1(k)} P_2(k) sigma^{lin}_{P_2(k)} P^img_3(k) sigma^{lin}_{P_3(k)} P_4(k) sigma^{lin}_{P_4(k)} N_modes
### header ###
0.00050000 0 0 0 0 0 0 0 0 0 0 0 0
0.00150000 0.00179520 26068.01721353 0 -12286.62668151 0 8712.55773632 0 3154.37247293 0 -48705.60675175 0 3
0.00250000 0.00253879 36412.66884510 0 -12637.84082475 0 9863.31552705 0 -4456.82111368 0 -5401.68902440 0 6
0.00350000 0.00331552 41692.39621162 0 -9287.04530954 0 -2664.72105248 0 19181.69551582 0 30333.74107316 0 7
0.00450000 0.00420575 46090.54507608 0 -3089.97583179 0 -199.39485426 0 7598.15038797 0 3798.20601649 0 24
0.00550000 0.00557378 46387.39410447 0 -1624.53149739 0 -7941.51425293 0 9517.01749602 0 -9875.24042088 0 45
0.00650000 0.00659388 42595.23357733 0 6610.86440087 0 7482.46673827 0 -10273.52301693 0 10520.03725669 0 40
0.00750000 0.00754703 37325.58202639 0 3374.35742243 0 -11921.68285548 0 -4157.44759523 0 -8312.92431664 0 57
0.00850000 0.00846663 34495.16363300 0 -3242.22029805 0 -16722.42145035 0 3919.22652676 0 16474.06920467 0 75
0.00950000 0.00948925 43740.11196358 0 -16430.99786113 0 -30698.02055970 0 -16785.42297857 0 -3579.29508250 0 112
0.01050000 0.01054430 52638.16435759 0 -20600.83538783 0 -20012.78421671 0 -1315.93473237 0 5641.79238809 0 105
0.01150000 0.01145670 74482.20037606 0 -14226.16581999 0 -26502.27379292 0 -16603.39395855 0 -552.14805066 0 144
0.01250000 0.01249090 77032.82112128 0 -1654.36034045 0 -11732.67827083 0 -21925.86049888 0 15594.37299783 0 169
0.01350000 0.01339930 89726.46646312 0 5538.98585215 0 1981.42574327 0 -20351.59735616 0 11708.76204922 0 180
0.01450000 0.01448870 79359.78090517 0 6424.34001698 0 4388.65988209 0 -4515.54872451 0 15323.98682576 0 267
0.01550000 0.01550050 82886.20563666 0 -760.70746818 0 12168.26352920 0 1145.03339880 0 7669.60010003 0 238
0.01650000 0.01653350 80285.20581351 0 1132.06770643 0 31633.29983713 0 -12081.67794911 0 -3250.50239701 0 315
0.01750000 0.01747870 78491.26774639 0 12588.23680957 0 36112.60884251 0 -1525.36775632 0 -6695.12479274 0 297
0.01850000 0.01844180 71869.57461185 0 7884.01567014 0 35092.73700347 0 -3641.04543801 0 -4648.05123562 0 388
0.01950000 0.01947590 66748.51365998 0 8914.87125541 0 30325.99044579 0 9753.45592020 0 -1831.35145268 0 399
0.02050000 0.02045430 63419.39775675 0 498.08631750 0 28800.55625553 0 8144.77999195 0 -12961.48487920 0 462
0.02150000 0.02154770 60074.00553605 0 4670.42840408 0 27994.60173198 0 -3364.65806589 0 -16700.27680072 0 571
0.02250000 0.02255340 60181.96070303 0 1214.01398242 0 23781.80358498 0 -902.02797877 0 -8260.43042468 0 510
0.02350000 0.02348930 57542.31846626 0 -478.25246205 0 34096.22776979 0 -637.59539575 0 -7475.11471459 0 555
0.02450000 0.02439640 57130.09581327 0 1557.65465549 0 27921.96728117 0 -878.03314365 0 -8069.65426805 0 592
0.02550000 0.02547300 58617.44120615 0 335.14487824 0 32840.40468886 0 13626.26726132 0 -811.69441674 0 837
0.02650000 0.02652900 53150.03793396 0 -651.72146776 0 22449.02784656 0 7526.65638662 0 -7237.03758634 0 723
0.02750000 0.02749970 60553.21575420 0 2182.31093246 0 23044.27602881 0 11808.41297259 0 -3833.74817916 0 826
0.02850000 0.02848090 56470.62814707 0 -3361.75711679 0 16147.65706902 0 8429.21694421 0 816.69246416 0 831
0.02950000 0.02946900 57822.55900742 0 1902.18111454 0 13775.63292312 0 889.92260604 0 -6401.12135183 0 996
0.03050000 0.03053250 55442.67351090 0 492.37299790 0 12274.11495446 0 -2606.76850438 0 -7012.36904344 0 1041
0.03150000 0.03150510 53194.88084947 0 1671.20134650 0 15717.71869631 0 3426.28662583 0 -4540.28429816 0 1036
0.03250000 0.03246190 53685.82773193 0 1115.04954319 0 14604.61788229 0 -2615.50456866 0 -3237.61421092 0 1059
0.03350000 0.03345080 51766.10805487 0 -37.50838611 0 10689.26666922 0 5273.13933326 0 1110.29951584 0 1302
0.03450000 0.03451200 53069.65285577 0 -301.40639728 0 13692.92265672 0 3199.52541354 0 -505.13163778 0 1339
0.03550000 0.03553350 52825.06520053 0 690.60525805 0 12990.38364698 0 3802.43564457 0 8449.83361303 0 1365
0.03650000 0.03647120 52228.37761605 0 1491.89611839 0 12789.64239802 0 1100.40417915 0 3720.56687486 0 1308
0.03750000 0.03744890 49706.32346886 0 2194.61228533 0 7736.37729101 0 3671.58290986 0 9259.01018310 0 1579
0.03850000 0.03847530 49825.12951416 0 1628.94935499 0 11245.82814855 0 1967.40818005 0 5805.02060057 0 1662
0.03950000 0.03950240 48481.83506717 0 -535.61928417 0 11388.43969222 0 2357.37546016 0 5302.24847520 0 1683
0.04050000 0.04050350 48151.99051082 0 344.93945677 0 11744.96855138 0 282.70191897 0 4090.60397030 0 1822
0.04150000 0.04152450 46615.81616548 0 730.00723315 0 9425.58223767 0 224.15478702 0 2448.32353622 0 1887
0.04250000 0.04250150 48829.72751297 0 1726.83977872 0 17755.13718619 0 -3457.62130507 0 4872.58691062 0 1920
0.04350000 0.04349210 46036.29068447 0 2614.39733618 0 17077.95380028 0 -1571.53935081 0 9694.08611452 0 2005
0.04450000 0.04448520 43393.43747351 0 3386.16052069 0 18075.57026644 0 -1730.96975587 0 8086.83851617 0 2151
0.04550000 0.04548030 41846.85514284 0 2301.67059400 0 18272.98981796 0 1110.23308189 0 4464.66031965 0 2274
0.04650000 0.04648670 40967.26965925 0 1665.88663059 0 19093.78125676 0 2148.11959342 0 4019.51964496 0 2311
0.04750000 0.04749250 38311.01893525 0 1460.70537938 0 16671.71020268 0 2302.05812537 0 2819.26856230 0 2568
0.04850000 0.04851840 37825.82966170 0 22.29512253 0 12923.28535858 0 1978.92339786 0 0.90322158 0 2493
0.04950000 0.04949480 38551.84200006 0 -946.91850528 0 13944.48587660 0 1010.15808848 0 -1815.90555956 0 2644
0.05050000 0.05050630 38483.30430943 0 -595.65785827 0 12563.10263223 0 2432.70048590 0 -2394.51203761 0 2829
0.05150000 0.05149060 39574.70336681 0 378.55614215 0 12030.74525495 0 430.65918105 0 -3507.15888631 0 2784
0.05250000 0.05249300 37610.91583697 0 1946.29325662 0 12321.50450469 0 -723.47899044 0 1467.09411080 0 3055
0.05350000 0.05348950 38380.55313511 0 1504.51856868 0 13618.18446420 0 1630.43304652 0 4485.67559215 0 3009
0.05450000 0.05448610 35813.10245617 0 55.95177901 0 13809.62496031 0 4539.98534539 0 4901.69605257 0 3336
0.05550000 0.05550870 36162.10213445 0 -271.20220241 0 13743.30173465 0 2144.39929228 0 5753.87753223 0 3349
0.05650000 0.05647670 36076.40234035 0 1004.08602555 0 14856.95616491 0 1430.81010236 0 3789.96820682 0 3324
0.05750000 0.05747970 34840.95233709 0 1913.30880099 0 14650.23586054 0 -1729.63000457 0 6257.19220151 0 3639
0.05850000 0.05849280 34278.03534331 0 1645.54676990 0 14982.40560510 0 -292.29719565 0 9705.96671905 0 3846
0.05950000 0.05951020 33422.47680457 0 -440.93208402 0 14985.17368631 0 861.96498588 0 6252.84077786 0 3787
0.06050000 0.06049470 34342.25482726 0 -288.38977223 0 15194.55134863 0 792.03661125 0 3064.32125518 0 3930
0.06150000 0.06148310 33686.44102825 0 855.49210479 0 15607.99195736 0 -630.73719776 0 2661.83117570 0 4083
0.06250000 0.06249100 33400.88577118 0 526.33181811 0 14678.69173533 0 1050.54550049 0 2510.57214635 0 4303
0.06350000 0.06350600 32140.85520681 0 76.55881490 0 14341.31799810 0 1120.60785025 0 3125.75051328 0 4470
0.06450000 0.06451750 32569.68634704 0 248.58697897 0 12826.07034667 0 1251.33878938 0 1295.86060748 0 4479
0.06550000 0.06550280 32487.19752714 0 291.80669167 0 12882.53920325 0 3778.66336318 0 356.51225067 0 4636
0.06650000 0.06648880 30939.17579425 0 1190.69566635 0 10895.22298317 0 17.94048790 0 705.36688150 0 4653
0.06750000 0.06749660 30671.11481039 0 1604.26914297 0 11604.35002618 0 -642.49268502 0 1359.55969216 0 5220
0.06850000 0.06852730 29812.89891369 0 936.89030069 0 12759.52567451 0 -58.62873498 0 2479.33711804 0 5029
0.06950000 0.06949320 28673.22452011 0 676.53233321 0 13085.82708692 0 724.54857702 0 4590.68552073 0 5040
0.07050000 0.07048030 28951.69348930 0 417.91936412 0 12934.57912989 0 1425.35144623 0 3103.29583855 0 5475
0.07150000 0.07148790 28682.63599621 0 354.22027944 0 13333.29354661 0 2103.64206462 0 4762.19583217 0 5509
0.07250000 0.07249820 28603.91176675 0 -345.19633471 0 11926.00106216 0 804.87275741 0 3982.43842915 0 5916
0.07350000 0.07351270 28452.77453297 0 -139.93314829 0 12055.54726254 0 664.59858152 0 3888.31259586 0 5721
0.07450000 0.07449140 28740.65497826 0 116.10218358 0 12534.42531095 0 -640.02244935 0 2410.20152187 0 6028
0.07550000 0.07549160 28204.75445703 0 708.02866839 0 11929.54420611 0 -317.37379690 0 2146.32587680 0 6183
0.07650000 0.07648840 27695.42751538 0 834.99058815 0 12100.94379430 0 111.21707387 0 2411.77379200 0 6330
0.07750000 0.07749960 27197.28362179 0 672.27170262 0 11265.75833323 0 379.47403788 0 1530.79319548 0 6583
0.07850000 0.07848650 26875.41113931 0 -1.46671765 0 11061.54037427 0 1780.72878361 0 747.86135692 0 6549
0.07950000 0.07947320 25897.83558107 0 787.31537195 0 8910.81878452 0 1369.60229077 0 536.64458145 0 6828
0.08050000 0.08048110 25329.38242488 0 1107.69751951 0 9672.58365972 0 1657.61560395 0 2130.06063164 0 7147
0.08150000 0.08149960 24436.73159800 0 594.61263081 0 7740.82836559 0 958.09712442 0 1598.67761894 0 7386
0.08250000 0.08250610 23771.61704614 0 527.22978366 0 7744.28293093 0 1442.55783900 0 1896.22420379 0 7227
0.08350000 0.08350160 23273.36242931 0 384.80536228 0 7089.22205001 0 75.18817181 0 726.36886722 0 7798
0.08450000 0.08449610 22757.39209276 0 700.09313319 0 7694.13637183 0 -910.53263146 0 1398.61178179 0 7371
0.08550000 0.08548940 22427.99042940 0 559.54104194 0 8651.78174539 0 -713.62462135 0 2111.11588387 0 8256
0.08650000 0.08650700 22237.10354953 0 65.58459088 0 8823.40278008 0 435.13018582 0 613.80207695 0 8037
0.08750000 0.08749060 22267.10954979 0 170.00558250 0 9266.15183260 0 924.50922708 0 1541.64407380 0 8155
0.08850000 0.08849210 22012.99969520 0 32.63423800 0 8637.76418217 0 1025.12897887 0 237.74495851 0 8718
0.08950000 0.08949900 21795.31778926 0 290.81239690 0 8489.84899492 0 1064.00944747 0 1594.52549713 0 8571
0.09050000 0.09049190 21575.08924862 0 464.49399123 0 7823.21753456 0 1485.57382092 0 2280.69961079 0 8932
0.09150000 0.09150830 20532.18697395 0 826.46489804 0 6766.78487897 0 1097.83097086 0 2388.31153571 0 9285
0.09250000 0.09250820 20330.11704601 0 555.53064589 0 6245.54411580 0 751.95036648 0 2673.02529609 0 9204
0.09350000 0.09350330 19859.76468772 0 309.86565344 0 6472.07280927 0 233.98036807 0 1784.63731427 0 9349
0.09450000 0.09448040 19347.00532537 0 388.52566342 0 6466.59200848 0 -315.66533718 0 2254.57999655 0 9564
0.09550000 0.09549270 18941.20462076 0 409.54315039 0 6717.63482910 0 -198.50353212 0 1892.99108494 0 10155
0.09650000 0.09649430 18847.64347604 0 395.91644024 0 6752.43514600 0 -168.99357201 0 2229.26866201 0 9913
0.09750000 0.09749140 18515.69517798 0 501.22089266 0 7273.16658222 0 -172.09825189 0 849.30267521 0 10476
0.09850000 0.09850240 18316.72550099 0 446.92553344 0 6792.97092716 0 964.74826994 0 1828.50586520 0 10575
0.09950000 0.09950330 17867.29983660 0 327.24920341 0 6688.59212110 0 245.39372049 0 1761.11969635 0 10882
0.10050000 0.10051200 17571.00442445 0 404.76654947 0 6385.04433619 0 447.58212231 0 1438.77110391 0 10875
0.10150000 0.10150300 17543.54505890 0 133.85997813 0 6549.31334720 0 -228.03785134 0 1180.59770611 0 11118
0.10250000 0.10250800 17050.49443473 0 300.61251159 0 6040.45144319 0 626.85191898 0 1181.56099837 0 11575
0.10350000 0.10349800 16741.79801879 0 111.87034104 0 5681.61954047 0 590.61219985 0 1842.22447565 0 11364
0.10450000 0.10450100 16992.91834567 0 62.72184129 0 5189.49899158 0 872.42279667 0 299.66582782 0 12093
0.10550000 0.10551000 16447.93851810 0 351.02148480 0 4927.28419522 0 695.68745515 0 441.50452321 0 12067
0.10650000 0.10649700 16194.71444950 0 257.96855979 0 4374.68660817 0 653.86839154 0 549.86493728 0 12054
0.10750000 0.10749900 15779.83443854 0 184.99861753 0 4220.06159208 0 181.51194245 0 573.97049565 0 12807
0.10850000 0.10850100 15882.80705936 0 262.16054196 0 4476.28626071 0 -321.77947495 0 766.19491236 0 12736
0.10950000 0.10950300 15744.95661536 0 273.01252752 0 5262.97493907 0 -725.90161511 0 991.64294692 0 12933
0.11050000 0.11050200 15553.29467275 0 290.88436701 0 5292.16158729 0 -818.56036536 0 1301.92824148 0 13428
0.11150000 0.11150900 15623.71465860 0 83.14673744 0 5678.10961350 0 69.52445622 0 1577.33017669 0 13453
0.11250000 0.11250000 15520.18842154 0 -1.36063371 0 5806.84753416 0 535.95477561 0 1646.64293005 0 13668
0.11350000 0.11349100 15446.11456851 0 326.07442975 0 5856.39618773 0 583.32993182 0 999.94719053 0 13791
0.11450000 0.11448600 15282.79777743 0 433.27003525 0 5743.65777642 0 372.08547553 0 1706.44455640 0 14205
0.11550000 0.11549300 14898.47738298 0 335.15927226 0 5630.24395331 0 -190.29340326 0 1317.67308737 0 14776
0.11650000 0.11649800 14288.17083897 0 428.44914502 0 5737.73408265 0 -11.42807862 0 1828.12940616 0 14553
0.11750000 0.11747300 14222.17978305 0 288.31780212 0 5478.23200587 0 334.00664325 0 1554.10043922 0 14568
0.11850000 0.11849100 14218.63663911 0 -179.43145262 0 5460.89274521 0 557.98427307 0 904.84367097 0 16015
0.11950000 0.11950300 14279.31297912 0 -260.97137428 0 4815.42049758 0 895.69793067 0 1277.91236894 0 15270
0.12050000 0.12050700 14422.92103202 0 -113.29313478 0 4466.59797649 0 766.96776063 0 507.56422755 0 15999
0.12150000 0.12150000 14470.08913574 0 138.53249920 0 4023.21780145 0 673.12870056 0 1480.23696036 0 15670
0.12250000 0.12250700 14102.70939826 0 418.57706021 0 4018.52313573 0 110.38133480 0 864.89693749 0 16887
0.12350000 0.12352200 13855.13221532 0 425.12301864 0 4260.51986697 0 -352.02906635 0 1383.22125029 0 16407
0.12450000 0.12449800 13360.31001917 0 463.20849432 0 4122.99052039 0 -32.30804731 0 1495.58320255 0 16306
0.12550000 0.12549900 13284.46459416 0 182.95023744 0 4405.23515235 0 59.59833846 0 1870.15995117 0 17523
0.12650000 0.12650100 13146.39270368 0 -139.13483367 0 4315.66004456 0 264.89872789 0 1577.26374274 0 17154
0.12750000 0.12750600 13229.76730956 0 -38.83064314 0 4214.30398317 0 651.84215610 0 1267.57081756 0 18007
0.12850000 0.12850300 13168.53735331 0 379.38435205 0 3432.34318751 0 161.49096471 0 882.01364443 0 17496
0.12950000 0.12949900 12815.66236134 0 254.79633873 0 3714.97535083 0 -72.01838666 0 999.74235253 0 18405
0.13050000 0.13049000 12502.86918522 0 262.04428255 0 3666.29033860 0 -429.50544481 0 631.79571201 0 18100
0.13150000 0.13148800 12431.78485988 0 235.98002993 0 3971.01178993 0 -530.74856848 0 451.81950101 0 19059
0.13250000 0.13249300 12424.47712550 0 214.57722606 0 4207.05161042 0 -60.32579020 0 467.15245642 0 18957
0.13350000 0.13349100 12217.09248165 0 39.93090006 0 4245.84903658 0 -111.03105882 0 660.25047956 0 19468
0.13450000 0.13450700 12113.89841434 0 87.38267675 0 4309.94672496 0 255.82717217 0 640.03462891 0 19953
0.13550000 0.13551000 12246.65558891 0 126.51570508 0 4270.79498440 0 862.11889119 0 571.64420020 0 19956
0.13650000 0.13649900 11732.01393134 0 169.04229024 0 3957.25996251 0 531.52584569 0 726.80400958 0 19723
0.13750000 0.13749600 11807.97007960 0 316.40053955 0 3861.31826796 0 557.39301093 0 1037.68278075 0 20946
0.13850000 0.13851100 11398.51550780 0 216.37758607 0 3547.11890658 0 231.97849174 0 935.74874400 0 20955
0.13950000 0.13949800 11228.00170560 0 221.68676582 0 3421.03834387 0 309.77153868 0 1241.93838561 0 20506
0.14050000 0.14048300 11052.17318748 0 103.92771955 0 3524.71959347 0 -186.01284249 0 1421.67543439 0 21447
0.14150000 0.14148400 11110.52433927 0 13.07885152 0 3444.41202156 0 514.16001144 0 1322.94351398 0 21771
0.14250000 0.14249400 11132.89043540 0 8.71785031 0 3329.22662647 0 283.54563012 0 1278.26668334 0 22470
0.14350000 0.14350900 10970.10511592 0 47.79490804 0 2907.41534018 0 294.20274276 0 1234.97389330 0 22519
0.14450000 0.14449900 11085.94377817 0 88.23391708 0 3299.20955389 0 -263.11829806 0 970.54463198 0 22218
0.14550000 0.14550500 10767.27119757 0 476.55728912 0 2845.27745330 0 8.13025310 0 906.00737231 0 23559
0.14650000 0.14650700 10435.38933345 0 365.58602086 0 3183.69198905 0 -197.82147691 0 1224.21159357 0 23044
0.14750000 0.14750500 10127.45690792 0 197.09623963 0 2642.95286189 0 36.70940715 0 1106.48620717 0 23649
0.14850000 0.14849900 10176.81733196 0 -59.55205614 0 2934.67540388 0 317.12577683 0 751.99797748 0 23640
0.14950000 0.14949500 10122.30827688 0 120.56986665 0 2636.08802050 0 290.83232708 0 873.79244325 0 24457
0.15050000 0.15050000 10139.99077962 0 27.32217945 0 2687.76256043 0 108.92908867 0 508.39133021 0 24591
0.15150000 0.15149900 9990.24865877 0 68.14894130 0 2734.98602578 0 -94.33244286 0 517.00892062 0 25020
0.15250000 0.15250500 9868.80740016 0 356.52332300 0 2840.68243850 0 -102.11174756 0 236.84477850 0 25297
0.15350000 0.15350100 9698.50397212 0 220.64818175 0 2687.86221135 0 12.39436040 0 297.85660995 0 25452
0.15450000 0.15450400 9412.10721836 0 33.60284498 0 2566.86384573 0 -15.30139928 0 625.97609809 0 26061
0.15550000 0.15549900 9639.72099966 0 -34.66135923 0 2443.77281072 0 365.91597614 0 -7.88539971 0 26128
0.15650000 0.15649500 9511.52562291 0 21.82864549 0 2274.73162772 0 255.35549113 0 23.20238883 0 26331
0.15750000 0.15749700 9502.87813723 0 176.12636366 0 2289.62390460 0 3.60796133 0 71.82030277 0 27345
0.15850000 0.15849900 9347.88773442 0 207.23406024 0 2181.23691695 0 -25.03718377 0 192.08822712 0 26980
0.15950000 0.15949700 9157.48803683 0 165.47921611 0 2473.78988331 0 -54.84067121 0 473.97411574 0 27777
0.16050000 0.16050000 9187.25044595 0 87.36440741 0 2350.07879811 0 100.40118410 0 20.83579012 0 28224
0.16150000 0.16150500 8995.93174541 0 241.30692540 0 2453.71575841 0 -143.07436684 0 444.24381637 0 28075
0.16250000 0.16249700 8891.88510908 0 178.65085372 0 2702.76556056 0 -215.33235861 0 203.59901600 0 28590
0.16350000 0.16349900 8809.83918218 0 96.55620858 0 2685.81383126 0 -43.41237115 0 387.54244098 0 29163
0.16450000 0.16449100 8773.05691913 0 -35.36489475 0 2624.68352594 0 173.73252703 0 94.72440316 0 28996
0.16550000 0.16550500 8742.08762661 0 -42.83926762 0 2389.14196007 0 283.75046813 0 -270.32416705 0 30777
0.16650000 0.16650700 8691.48710219 0 43.75638828 0 2318.50052773 0 191.46485523 0 -158.78156683 0 29211
0.16750000 0.16749900 8703.82167204 0 153.70158420 0 2230.75235354 0 10.88250088 0 -388.36954364 0 30922
0.16850000 0.16850800 8586.66540313 0 140.18227560 0 1974.40588934 0 52.76449958 0 -346.00572165 0 30867
0.16950000 0.16949900 8402.36655653 0 97.24856105 0 2150.33405838 0 104.74840027 0 -431.72876763 0 30852
0.17050000 0.17049200 8255.00498552 0 270.38727930 0 2015.59493766 0 117.57148109 0 -457.76201774 0 31257
0.17150000 0.17149500 8236.71350492 0 160.35826588 0 2176.35402170 0 3.77797688 0 -285.94389567 0 32608
0.17250000 0.17250900 8023.21693776 0 88.51282894 0 2033.42138062 0 26.02716033 0 -346.02454460 0 32361
0.17350000 0.17350400 8073.09776107 0 77.07124209 0 2252.97450945 0 -257.34518790 0 -438.66779360 0 32508
0.17450000 0.17449800 8068.90134996 0 64.47846563 0 2277.94260191 0 -288.67875990 0 -782.26971353 0 32791
0.17550000 0.17549800 7897.25817063 0 221.46642656 0 2416.78955514 0 -290.74485572 0 -784.63808381 0 33633
0.17650000 0.17650100 7819.50830575 0 180.71694953 0 2519.54072946 0 -301.88693618 0 -955.42205074 0 33984
0.17750000 0.17750300 7714.18835207 0 46.94488566 0 2438.28093761 0 224.74604917 0 -1065.31376733 0 34069
0.17850000 0.17849800 7662.84598189 0 10.45835334 0 2343.59041576 0 294.73199988 0 -1145.71988293 0 34536
