### header ###
fiducial parameters:
Omega_m = 0.31
Omega_nu = 0
Omega_de = 0.69
Omega_k = 0
H_0 = 100
w_de = -1
zeff = 0
beta = 0
fgrowth = 0
b_1 = 2
gamma = 0.55
Lx = 3500 Ly = 3500 Lz = 3500
nx = 700 ny = 700 nz = 700
xoffset = -685.467585 yoffset = -31.7331281 zoffset = 572.489161
bins = 400 dk = 0.001
kx_ny = 0.628318531 ky_ny = 0.628318531 kz_ny = 0.628318531
############################
A(data) = 8.05869211 (not used)
A(ran) = 8.05702521 (used)
Ngal = 479022
weighted Ngal = 0
Nran = 23820508
weighted Nran = 0
SN(data) = 3489.36801
SN(ran) = 70.1796116
SN(data+ran) = 3559.54762
############################
13 columns: k_central k_mean P_0(k) sigma^{lin}_{P_0(k)} P^img_1(k) sigma^{lin}_{P_1(k)} P_2(k) sigma^{lin}_{P_2(k)} P^img_3(k) sigma^{lin}_{P_3(k)} P_4(k) sigma^{lin}_{P_4(k)} N_modes
### header ###
0.00050000 0 0 0 0 0 0 0 0 0 0 0 0
0.00150000 0.00179520 24662.93919405 0 -28053.94939300 0 287.39437023 0 29626.77313349 0 -18783.20254560 0 3
0.00250000 0.00253879 49166.21546421 0 -35001.27960046 0 -6377.60373392 0 -38440.56513563 0 -2868.28574427 0 6
0.00350000 0.00331552 54082.88129993 0 -11095.68742401 0 -6349.94506652 0 -41002.47965217 0 -22476.04431911 0 7
0.00450000 0.00420575 61526.58382901 0 3397.93040197 0 -14923.72228356 0 -16745.89477897 0 39703.69595094 0 24
0.00550000 0.00557378 49750.16987514 0 2231.26168048 0 -6769.05470555 0 -11865.65689190 0 14847.87685856 0 45
0.00650000 0.00659388 60528.19230011 0 -5397.65869817 0 -3116.64906228 0 4382.88012854 0 8790.29652887 0 40
0.00750000 0.00754703 60809.76152025 0 -9019.48258029 0 19497.92111264 0 11210.17526264 0 1085.73888493 0 57
0.00850000 0.00846663 65280.21266577 0 887.74578698 0 15947.35871305 0 4712.11570702 0 15383.55593328 0 75
0.00950000 0.00948925 60083.63845864 0 908.42003189 0 22452.57099050 0 11347.25064389 0 23506.43486674 0 112
0.01050000 0.01054430 70392.41575779 0 -4450.03377856 0 8688.66365936 0 39233.45431589 0 34183.92058235 0 105
0.01150000 0.01145670 75224.26758540 0 -11098.78767496 0 7069.36937161 0 28767.00711133 0 17664.12267618 0 144
0.01250000 0.01249090 80367.47318691 0 -1222.21857511 0 10050.71462460 0 17681.94911914 0 19483.19492063 0 169
0.01350000 0.01339930 73478.16196150 0 14715.56257697 0 11380.46761835 0 -7847.82024031 0 9664.83303235 0 180
0.01450000 0.01448870 64062.14621248 0 14577.60140973 0 11904.29930552 0 248.44968214 0 44470.44250862 0 267
0.01550000 0.01550050 51986.55804201 0 1568.23979801 0 12157.19120438 0 -11332.30300539 0 45289.68382195 0 238
0.01650000 0.01653350 55868.40440018 0 -1636.77748864 0 20403.19438982 0 17351.21877680 0 29555.68880816 0 315
0.01750000 0.01747870 62850.94460056 0 -9398.58790976 0 15355.32150500 0 14942.65595900 0 29092.86563074 0 297
0.01850000 0.01844180 63363.92540941 0 -3955.75412633 0 17159.44611095 0 17861.09933470 0 19700.65538007 0 388
0.01950000 0.01947590 70177.50193306 0 -2772.14474787 0 21963.72784976 0 5436.30111178 0 19063.44308676 0 399
0.02050000 0.02045430 69553.13353654 0 3203.69968000 0 24375.72308825 0 -7004.14230610 0 15351.11402156 0 462
0.02150000 0.02154770 70242.71792624 0 3830.85830238 0 28663.81304402 0 -11988.89186713 0 25232.05668972 0 571
0.02250000 0.02255340 70253.01518833 0 -1058.13668639 0 29833.71488435 0 -9905.10248091 0 15194.10845564 0 510
0.02350000 0.02348930 73034.38318277 0 11.95224247 0 38197.19543612 0 -1387.89377137 0 11822.80699485 0 555
0.02450000 0.02439640 77416.92006924 0 -1501.85013840 0 40239.15357917 0 3243.73720655 0 20592.08825122 0 592
0.02550000 0.02547300 75291.91949004 0 817.12539206 0 32687.38515986 0 9447.28399431 0 -1126.43189310 0 837
0.02650000 0.02652900 72694.57353409 0 5168.58336999 0 26290.57094239 0 15667.33961838 0 4188.06257335 0 723
0.02750000 0.02749970 64833.22291285 0 5497.92967172 0 19882.24150710 0 11512.00683719 0 -7032.21064952 0 826
0.02850000 0.02848090 59112.37412555 0 3802.98926081 0 18451.91858703 0 9416.07111065 0 7494.60200627 0 831
0.02950000 0.02946900 54529.87105285 0 3669.55667442 0 15627.81141878 0 5682.71570062 0 1514.89333704 0 996
0.03050000 0.03053250 51470.14481247 0 4831.97362318 0 14502.75249396 0 706.50290203 0 6734.92980046 0 1041
0.03150000 0.03150510 47463.07046060 0 3530.16717728 0 14332.79230799 0 1229.27164602 0 12980.64000114 0 1036
0.03250000 0.03246190 46238.24988916 0 735.82906154 0 13760.57456137 0 -4155.32170886 0 8466.05456888 0 1059
0.03350000 0.03345080 48361.36817314 0 -624.72049645 0 20662.61896032 0 -621.56599111 0 8505.33917734 0 1302
0.03450000 0.03451200 47574.79021802 0 466.89225679 0 17197.86707807 0 565.81129949 0 5037.79706924 0 1339
0.03550000 0.03553350 48501.21163560 0 1031.48892225 0 17207.27855416 0 2123.19579025 0 7325.91513766 0 1365
0.03650000 0.03647120 48432.45249847 0 189.94351780 0 14931.58363419 0 1183.80868031 0 4349.81816663 0 1308
0.03750000 0.03744890 46087.55554838 0 447.39389278 0 10077.25498719 0 2674.16574555 0 -892.49249263 0 1579
0.03850000 0.03847530 44117.01390041 0 2687.15358256 0 9906.79654661 0 3698.84297357 0 963.06970549 0 1662
0.03950000 0.03950240 42614.61014577 0 2299.29004416 0 8530.14118493 0 3303.17344617 0 2961.96868456 0 1683
0.04050000 0.04050350 41261.23988318 0 -1341.66681525 0 5009.27476050 0 3790.65469096 0 2146.04906867 0 1822
0.04150000 0.04152450 44698.86456963 0 -4947.05936735 0 6043.57383879 0 664.32398786 0 -4331.09486536 0 1887
0.04250000 0.04250150 45267.53917231 0 -796.07690258 0 4002.78936216 0 -1397.13916259 0 1241.35155239 0 1920
0.04350000 0.04349210 46545.28545638 0 2465.91746036 0 6580.40443529 0 -2467.01362052 0 -2202.07503226 0 2005
0.04450000 0.04448520 43819.50053253 0 1750.73385567 0 6539.49219509 0 -2060.03924948 0 3609.81040970 0 2151
0.04550000 0.04548030 43133.57001001 0 2143.45814467 0 9612.85953965 0 -748.51794579 0 -739.89260475 0 2274
0.04650000 0.04648670 41204.10668712 0 2577.99153218 0 8590.97253749 0 1712.77792620 0 -2660.58000300 0 2311
0.04750000 0.04749250 39916.83820370 0 824.08766990 0 10928.84963365 0 81.39487421 0 -75.25394142 0 2568
0.04850000 0.04851840 39837.33891150 0 -47.53714431 0 10041.74604150 0 -419.07420760 0 -1954.89645301 0 2493
0.04950000 0.04949480 40458.16416409 0 -904.43510218 0 13730.79000760 0 -2241.33749606 0 213.61504103 0 2644
0.05050000 0.05050630 40739.29049123 0 376.41143284 0 14547.37396298 0 -1384.27312115 0 432.74520705 0 2829
0.05150000 0.05149060 40662.11638724 0 2052.89759998 0 16037.26599058 0 -2148.78393291 0 -407.44715930 0 2784
0.05250000 0.05249300 38428.71774808 0 2231.04023398 0 16194.82517274 0 336.58206600 0 3178.88660008 0 3055
0.05350000 0.05348950 37414.49279469 0 1389.45496917 0 15018.50138401 0 4497.64477528 0 4218.66647915 0 3009
0.05450000 0.05448610 36767.09396254 0 -368.11493985 0 15356.42873748 0 3845.94988111 0 2087.66469991 0 3336
0.05550000 0.05550870 36773.40518769 0 -89.60799259 0 13900.97164007 0 1733.70462010 0 2240.60672263 0 3349
0.05650000 0.05647670 34847.15283899 0 1307.29831901 0 12690.65581414 0 602.08202113 0 2289.90071272 0 3324
0.05750000 0.05747970 34536.35268133 0 1876.93621396 0 10827.78145270 0 -974.25386079 0 1687.48873631 0 3639
0.05850000 0.05849280 34772.19319997 0 -3.93530354 0 12310.10001012 0 974.39447932 0 5.37560263 0 3846
0.05950000 0.05951020 33350.06380026 0 -164.33655219 0 10751.36026680 0 -1443.88651798 0 -4583.77639005 0 3787
0.06050000 0.06049470 33641.37666624 0 1346.87080791 0 10282.69090188 0 -990.62872197 0 -3349.97616318 0 3930
0.06150000 0.06148310 32367.83786560 0 1165.11859602 0 10731.34150353 0 733.50276610 0 -3530.43291308 0 4083
0.06250000 0.06249100 32186.80535481 0 -484.98775724 0 9415.46213278 0 1604.06984113 0 -3493.05274449 0 4303
0.06350000 0.06350600 31748.45201524 0 424.32913295 0 8892.11762791 0 2671.34230272 0 -3476.78749933 0 4470
0.06450000 0.06451750 31341.87624790 0 550.64221449 0 8081.03661797 0 1558.40757357 0 -2668.00953295 0 4479
0.06550000 0.06550280 31191.29263037 0 101.37997761 0 6313.71641971 0 2843.11834996 0 -1003.61766621 0 4636
0.06650000 0.06648880 31182.98838675 0 -937.58453546 0 6519.61737204 0 930.07749923 0 527.39808299 0 4653
0.06750000 0.06749660 32081.61826903 0 -248.01786147 0 5395.04562951 0 1594.38155691 0 -1629.69120076 0 5220
0.06850000 0.06852730 31457.91421200 0 787.17807512 0 5865.38691548 0 -229.13179703 0 -572.44030036 0 5029
0.06950000 0.06949320 31021.22172115 0 1034.71096877 0 6053.87110087 0 -605.60302042 0 -755.87550563 0 5040
0.07050000 0.07048030 30194.22978045 0 1069.69397903 0 5913.62903472 0 -0.67849989 0 -1447.05320287 0 5475
0.07150000 0.07148790 29518.26435027 0 307.48842531 0 6778.89800232 0 -513.47352730 0 -105.08809919 0 5509
0.07250000 0.07249820 28964.86955583 0 1094.00880433 0 7330.98626243 0 -961.31252754 0 1258.84582561 0 5916
0.07350000 0.07351270 28764.57119986 0 469.41674685 0 8677.70205779 0 -353.73974054 0 847.33512309 0 5721
0.07450000 0.07449140 27710.48587713 0 963.06195487 0 8773.54410142 0 -370.68925537 0 1542.78452326 0 6028
0.07550000 0.07549160 26758.59811247 0 1312.04834636 0 8423.62542018 0 273.37237807 0 1104.26731328 0 6183
0.07650000 0.07648840 26457.76304715 0 646.20080660 0 10300.01909022 0 284.34837367 0 2480.79866492 0 6330
0.07750000 0.07749960 26244.06717815 0 126.34962020 0 9934.38878006 0 488.89739513 0 664.96728994 0 6583
0.07850000 0.07848650 26118.61773795 0 393.16718199 0 11143.63059048 0 280.39333924 0 1671.02418931 0 6549
0.07950000 0.07947320 25147.79629785 0 1058.20865650 0 9746.22569209 0 -1732.60845995 0 -88.01579228 0 6828
0.08050000 0.08048110 24739.00606555 0 829.98811180 0 10578.28875756 0 488.55968923 0 1614.15672904 0 7147
0.08150000 0.08149960 23739.95019716 0 -51.95865578 0 9459.44140696 0 1316.04545562 0 1293.04823697 0 7386
0.08250000 0.08250610 24536.60396786 0 -345.92267922 0 9778.85583333 0 1718.35837790 0 -1083.35501339 0 7227
0.08350000 0.08350160 24031.15233989 0 80.86074526 0 8546.78288914 0 976.59122856 0 -2011.32102028 0 7798
0.08450000 0.08449610 23984.53785241 0 519.36843304 0 7655.16178847 0 514.57411639 0 -1925.55479224 0 7371
0.08550000 0.08548940 23237.26665040 0 497.26142930 0 7219.03398618 0 450.23837303 0 -1805.22076611 0 8256
0.08650000 0.08650700 22729.04694122 0 580.46773585 0 6802.75886230 0 457.38998763 0 -620.28713760 0 8037
0.08750000 0.08749060 22577.35609121 0 762.97840200 0 6370.07455304 0 901.81760460 0 -421.14583957 0 8155
0.08850000 0.08849210 21508.32312997 0 364.58286823 0 6106.14354634 0 597.95758013 0 -936.39758224 0 8718
0.08950000 0.08949900 21734.08783302 0 159.42043997 0 7251.52018720 0 -343.39265300 0 -1237.37658778 0 8571
0.09050000 0.09049190 21104.62616708 0 856.09776096 0 7855.09475772 0 -1026.04244567 0 -722.33632652 0 8932
0.09150000 0.09150830 20537.50168987 0 1603.16191049 0 8424.41155524 0 -1784.90305007 0 232.93846230 0 9285
0.09250000 0.09250820 19438.57345162 0 664.99497075 0 8775.79178336 0 -716.01181458 0 237.98079902 0 9204
0.09350000 0.09350330 19218.56635747 0 -98.10976648 0 9274.14605112 0 830.19405704 0 137.60463838 0 9349
0.09450000 0.09448040 19000.33083529 0 142.85070588 0 8572.69212921 0 1403.18465194 0 -120.53997137 0 9564
0.09550000 0.09549270 18893.37217755 0 296.39617030 0 7533.36621546 0 1147.48038258 0 -957.74281002 0 10155
0.09650000 0.09649430 18463.21235834 0 -176.56814942 0 6554.52841219 0 1546.16158233 0 27.59489081 0 9913
0.09750000 0.09749140 18529.53558400 0 1.34047100 0 6387.01521001 0 1152.87260477 0 678.95717234 0 10476
0.09850000 0.09850240 18632.84037456 0 413.97872371 0 6448.96486737 0 749.86323325 0 268.30568224 0 10575
0.09950000 0.09950330 18166.25260670 0 486.13042116 0 5897.75132093 0 491.99321715 0 1073.23823021 0 10882
0.10050000 0.10051200 17723.35961396 0 531.73732709 0 6039.97533322 0 -14.28008804 0 1028.54036215 0 10875
0.10150000 0.10150300 17072.74980762 0 598.72046331 0 6017.68674336 0 -433.71957163 0 1539.80606788 0 11118
0.10250000 0.10250800 16968.89140082 0 465.48717877 0 6623.56435744 0 -299.32480022 0 69.04712829 0 11575
0.10350000 0.10349800 16443.95248116 0 331.54305097 0 6521.61039051 0 -95.50013024 0 621.22607074 0 11364
0.10450000 0.10450100 16526.21985457 0 7.90960381 0 6429.74331149 0 109.93512011 0 255.54261342 0 12093
0.10550000 0.10551000 16436.75547003 0 -34.03034744 0 5881.82931784 0 -196.37100236 0 -148.46326733 0 12067
0.10650000 0.10649700 16579.80990669 0 324.05815940 0 6038.79059447 0 383.95722220 0 -426.36976242 0 12054
0.10750000 0.10749900 16124.18374040 0 197.54356155 0 6405.10738877 0 339.47083554 0 150.92464514 0 12807
0.10850000 0.10850100 15818.58757541 0 545.99183806 0 5621.28644253 0 974.82408552 0 -41.06669914 0 12736
0.10950000 0.10950300 15531.70363936 0 421.60866275 0 6072.81584863 0 295.30776077 0 590.76610516 0 12933
0.11050000 0.11050200 15022.48742095 0 145.92216878 0 5710.34115105 0 640.97024036 0 849.48536857 0 13428
0.11150000 0.11150900 15130.88548092 0 -48.09341791 0 5378.25998508 0 715.52684676 0 718.55844929 0 13453
0.11250000 0.11250000 14777.45687271 0 1.57561397 0 5233.43397646 0 498.22361433 0 686.68233337 0 13668
0.11350000 0.11349100 15030.79166456 0 61.76884630 0 5230.52195503 0 -166.00293708 0 -176.39652838 0 13791
0.11450000 0.11448600 15005.98965697 0 100.80034141 0 5107.81845139 0 -100.12758695 0 340.33115518 0 14205
0.11550000 0.11549300 14854.52025345 0 163.09977351 0 5366.89977982 0 -303.31637331 0 713.19390792 0 14776
0.11650000 0.11649800 14775.46385424 0 50.87378940 0 4976.82177646 0 -57.91047327 0 693.53499520 0 14553
0.11750000 0.11747300 14940.99511028 0 -15.63888374 0 5498.89296398 0 354.07744645 0 724.36256196 0 14568
0.11850000 0.11849100 15128.33884621 0 60.12405244 0 5140.39323101 0 753.59903564 0 603.66757804 0 16015
0.11950000 0.11950300 14511.61035381 0 487.65840199 0 5208.38837772 0 428.25427210 0 554.17317887 0 15270
0.12050000 0.12050700 14391.36490628 0 519.46254780 0 4628.65252254 0 432.29456343 0 1033.83846957 0 15999
0.12150000 0.12150000 14080.12185563 0 75.72872270 0 4554.12470418 0 272.92173445 0 1654.49320835 0 15670
0.12250000 0.12250700 13989.99313161 0 65.86959252 0 4475.15688358 0 462.93611513 0 1574.14134714 0 16887
0.12350000 0.12352200 13968.95571445 0 4.86407229 0 4389.80033155 0 554.94824161 0 1713.85194170 0 16407
0.12450000 0.12449800 13750.16657604 0 85.49274162 0 4288.73215060 0 542.26378630 0 1800.34894319 0 16306
0.12550000 0.12549900 13832.87684243 0 84.42736253 0 4045.05242600 0 697.66165066 0 2395.08779850 0 17523
0.12650000 0.12650100 13674.43187428 0 33.52323496 0 3896.06322324 0 312.40453753 0 1777.34065221 0 17154
0.12750000 0.12750600 13665.79546092 0 311.45453206 0 4014.73640064 0 34.21547671 0 2896.65304046 0 18007
0.12850000 0.12850300 13635.12512117 0 338.36249583 0 4068.03857232 0 414.92651472 0 2701.64725575 0 17496
0.12950000 0.12949900 12922.17812610 0 212.00955393 0 3638.65381585 0 294.99773568 0 2912.70791144 0 18405
0.13050000 0.13049000 13090.25601684 0 150.79399171 0 3539.83331685 0 293.15087190 0 2713.63858353 0 18100
0.13150000 0.13148800 12722.98700261 0 81.48611016 0 3291.70251766 0 400.07631267 0 2575.09058307 0 19059
0.13250000 0.13249300 12760.07929075 0 89.49250824 0 3103.97125036 0 525.74941383 0 2056.23036975 0 18957
0.13350000 0.13349100 12465.22328083 0 117.67334648 0 2721.05704116 0 -211.61870086 0 1693.01382640 0 19468
0.13450000 0.13450700 12433.44570860 0 380.32107073 0 2914.25803692 0 -293.57162024 0 1228.37478771 0 19953
0.13550000 0.13551000 12249.97728636 0 245.26749599 0 2861.74200030 0 -790.31818644 0 1111.31816972 0 19956
0.13650000 0.13649900 11969.95819169 0 250.60878548 0 3048.38817977 0 -340.54595828 0 903.44855804 0 19723
0.13750000 0.13749600 11873.40751928 0 262.79941511 0 3391.25379010 0 -352.46088702 0 826.27223959 0 20946
0.13850000 0.13851100 11780.28926755 0 179.93635063 0 3621.54707401 0 -124.50939982 0 519.47140566 0 20955
0.13950000 0.13949800 11570.24726574 0 189.07655477 0 3412.54587073 0 166.58423413 0 89.49073667 0 20506
0.14050000 0.14048300 11461.95992901 0 57.42949148 0 3561.29148234 0 194.11778426 0 156.58149589 0 21447
0.14150000 0.14148400 11311.37631148 0 10.92332454 0 3264.35387536 0 237.71617046 0 71.95549585 0 21771
0.14250000 0.14249400 11294.65710100 0 90.31761789 0 3229.28782266 0 654.36664615 0 221.89049660 0 22470
0.14350000 0.14350900 11313.48005320 0 109.51514683 0 2739.52567895 0 25.57430225 0 -38.44388683 0 22519
0.14450000 0.14449900 11235.64160972 0 110.95687424 0 3084.30680148 0 32.54898110 0 88.71434525 0 22218
0.14550000 0.14550500 10983.39190570 0 293.90932615 0 2999.10526200 0 -214.80974488 0 550.95113235 0 23559
0.14650000 0.14650700 10990.67749543 0 208.26600091 0 3091.96885026 0 351.94270222 0 1001.29469246 0 23044
0.14750000 0.14750500 10821.11591316 0 3.71873994 0 2902.74281911 0 92.10978438 0 571.06622485 0 23649
0.14850000 0.14849900 10819.83152348 0 194.16428802 0 3307.40307425 0 427.35298486 0 720.87035071 0 23640
0.14950000 0.14949500 10578.88666310 0 279.38243599 0 3057.17960568 0 -151.10955296 0 396.52209641 0 24457
0.15050000 0.15050000 10276.04750699 0 365.14202064 0 3017.49639353 0 -150.52936314 0 697.76905221 0 24591
0.15150000 0.15149900 10050.83642018 0 210.67201709 0 3256.50359706 0 -72.47489861 0 1026.45765785 0 25020
0.15250000 0.15250500 9897.06397310 0 157.91238933 0 3252.20753503 0 72.73565186 0 959.53874111 0 25297
0.15350000 0.15350100 9690.57618755 0 220.97370810 0 3135.41665284 0 302.88898158 0 729.26538739 0 25452
0.15450000 0.15450400 9566.61043888 0 241.43425714 0 2965.89935987 0 83.17917935 0 538.98084199 0 26061
0.15550000 0.15549900 9287.63214275 0 200.54859051 0 3085.56904651 0 174.94937553 0 1037.59973831 0 26128
0.15650000 0.15649500 9264.01487391 0 66.13986796 0 3072.02759326 0 268.13406120 0 1062.25669845 0 26331
0.15750000 0.15749700 9324.25939325 0 -56.05718754 0 2963.04270007 0 259.16990703 0 1046.12764289 0 27345
0.15850000 0.15849900 9263.63841487 0 -26.16268559 0 3225.16891782 0 -167.45119716 0 981.79965016 0 26980
0.15950000 0.15949700 9323.71684934 0 228.91588670 0 3229.78607727 0 -135.60940545 0 889.78420198 0 27777
0.16050000 0.16050000 9133.66039382 0 160.14235555 0 3261.69651740 0 -188.04461409 0 1264.33769872 0 28224
0.16150000 0.16150500 9117.32871472 0 90.78243408 0 3501.73344715 0 -67.86892221 0 1178.50503672 0 28075
0.16250000 0.16249700 9079.02954317 0 84.72299360 0 3478.96874732 0 44.29727135 0 909.45086533 0 28590
0.16350000 0.16349900 9002.38691077 0 54.99214061 0 3301.77833325 0 380.14612800 0 738.13985573 0 29163
0.16450000 0.16449100 8865.16758930 0 7.72851594 0 3011.67235067 0 170.81496944 0 648.99989032 0 28996
0.16550000 0.16550500 8868.53357604 0 2.52439041 0 2771.00429841 0 430.32147515 0 378.53842643 0 30777
0.16650000 0.16650700 8786.98590375 0 -59.88754759 0 2377.48280203 0 131.47721383 0 165.00753507 0 29211
0.16750000 0.16749900 8828.92787017 0 57.72611906 0 2317.72546499 0 299.61489513 0 94.95559331 0 30922
0.16850000 0.16850800 8692.69398560 0 177.00772071 0 2135.88467449 0 135.26837784 0 194.02256226 0 30867
0.16950000 0.16949900 8574.47477351 0 286.63259428 0 2038.20462494 0 108.68295089 0 155.16866724 0 30852
0.17050000 0.17049200 8416.36197510 0 217.66640468 0 2207.97658139 0 -22.29545470 0 611.32630512 0 31257
0.17150000 0.17149500 8221.59978154 0 118.99981099 0 2228.56003322 0 185.33632344 0 710.37489402 0 32608
0.17250000 0.17250900 8202.90969724 0 131.11625604 0 2219.96790916 0 246.89291327 0 961.45093160 0 32361
0.17350000 0.17350400 8048.93794832 0 98.44415069 0 2374.31611714 0 5.08414582 0 902.79086195 0 32508
0.17450000 0.17449800 8000.97263720 0 113.95858150 0 2269.02938044 0 194.21632795 0 900.05821218 0 32791
0.17550000 0.17549800 8019.86202334 0 22.86634377 0 2407.93169529 0 22.72705392 0 1198.14734095 0 33633
0.17650000 0.17650100 7913.19124604 0 -2.08725502 0 2039.28971277 0 51.57821070 0 1002.85478303 0 33984
0.17750000 0.17750300 8053.93156681 0 -15.22455735 0 2258.67675673 0 200.38472010 0 1129.72037357 0 34069
0.17850000 0.17849800 7981.15317578 0 88.59841801 0 1942.76118500 0 12.01646196 0 802.94285120 0 34536
