### header ###
fiducial parameters:
Omega_m = 0.31
Omega_nu = 0
Omega_de = 0.69
Omega_k = 0
H_0 = 100
w_de = -1
zeff = 0
beta = 0
fgrowth = 0
b_1 = 2
gamma = 0.55
Lx = 3500 Ly = 3500 Lz = 3500
nx = 700 ny = 700 nz = 700
xoffset = -685.467585 yoffset = -31.7331281 zoffset = 572.489161
bins = 400 dk = 0.001
kx_ny = 0.628318531 ky_ny = 0.628318531 kz_ny = 0.628318531
############################
A(data) = 8.00865263 (not used)
A(ran) = 8.00494871 (used)
Ngal = 476615
weighted Ngal = 0
Nran = 23820508
weighted Nran = 0
SN(data) = 3489.32135
SN(ran) = 69.7260064
SN(data+ran) = 3559.04736
############################
13 columns: k_central k_mean P_0(k) sigma^{lin}_{P_0(k)} P^img_1(k) sigma^{lin}_{P_1(k)} P_2(k) sigma^{lin}_{P_2(k)} P^img_3(k) sigma^{lin}_{P_3(k)} P_4(k) sigma^{lin}_{P_4(k)} N_modes
### header ###
0.00050000 0 0 0 0 0 0 0 0 0 0 0 0
0.00150000 0.00179520 4230.85710878 0 -6237.32845079 0 5890.86433489 0 9329.49660289 0 -15273.60774783 0 3
0.00250000 0.00253879 13375.58982742 0 -7555.84303484 0 15900.30133257 0 9415.08567374 0 19868.29037783 0 6
0.00350000 0.00331552 21776.27339058 0 -8482.10943987 0 21210.69903884 0 444.67120811 0 -15531.48219286 0 7
0.00450000 0.00420575 34788.35879420 0 -9978.75558561 0 26762.58414941 0 22710.88832852 0 16587.78198056 0 24
0.00550000 0.00557378 54470.19122208 0 -7464.41884882 0 31516.70825679 0 36995.40530030 0 18023.75178629 0 45
0.00650000 0.00659388 66427.30551699 0 -7220.56196701 0 22328.00733629 0 56092.50825451 0 18566.40642565 0 40
0.00750000 0.00754703 67871.35811983 0 -4345.69926180 0 20183.07657242 0 37635.60712132 0 14507.51359363 0 57
0.00850000 0.00846663 73042.35525664 0 10000.83380130 0 8736.75076605 0 27153.54793875 0 25850.33530760 0 75
0.00950000 0.00948925 67144.79216524 0 -3070.20065966 0 21407.78642061 0 -5593.79386000 0 -12886.19307044 0 112
0.01050000 0.01054430 68811.84138993 0 7309.25128881 0 25470.33311982 0 7901.77567915 0 35583.35171618 0 105
0.01150000 0.01145670 66309.49598092 0 1070.84439358 0 19699.21597785 0 -6077.87590108 0 19469.46523786 0 144
0.01250000 0.01249090 71427.34595859 0 -6594.02339482 0 21683.93020159 0 9097.56461492 0 22289.69709242 0 169
0.01350000 0.01339930 73079.77971453 0 -9763.46530183 0 25222.20232064 0 23520.82888900 0 15978.47194579 0 180
0.01450000 0.01448870 84092.09253266 0 -5202.65291346 0 14551.69216966 0 12688.66279567 0 5530.89198271 0 267
0.01550000 0.01550050 91304.05130328 0 -225.71487759 0 24799.23951256 0 18948.84452489 0 24549.11569491 0 238
0.01650000 0.01653350 83593.72719257 0 8142.62088861 0 13701.11617709 0 8098.63054210 0 15290.43768156 0 315
0.01750000 0.01747870 74438.90758601 0 8454.37326620 0 17353.54396502 0 -16689.64736889 0 16185.63514315 0 297
0.01850000 0.01844180 72764.32918044 0 11814.28130474 0 27675.60805395 0 -7485.29018110 0 26413.03085488 0 388
0.01950000 0.01947590 57764.98291837 0 8048.65006787 0 29278.76996444 0 -3914.65365661 0 13891.44944072 0 399
0.02050000 0.02045430 61175.03751601 0 -4175.34047214 0 24412.81537639 0 -2565.32479258 0 8240.55560163 0 462
0.02150000 0.02154770 64878.39799811 0 -8833.25714917 0 32621.50482719 0 2725.39739249 0 -6985.65152366 0 571
0.02250000 0.02255340 71785.20349673 0 -1077.85317519 0 25698.20156459 0 9012.54023263 0 -7802.95518015 0 510
0.02350000 0.02348930 74142.61217387 0 2266.98100034 0 22216.95191836 0 -314.42412957 0 -1223.73548361 0 555
0.02450000 0.02439640 70201.63960117 0 2888.12735035 0 18144.66157331 0 2344.43191245 0 6639.84067492 0 592
0.02550000 0.02547300 68436.93247157 0 2974.03751861 0 23831.85049316 0 2497.18570565 0 -1174.27540864 0 837
0.02650000 0.02652900 67962.15118335 0 3319.62692085 0 28874.07649232 0 2720.56985886 0 14102.70939826 0 723
0.02750000 0.02749970 63904.47630706 0 4069.35617897 0 22224.81326898 0 10267.78755267 0 8802.75289429 0 826
0.02850000 0.02848090 65390.49302097 0 -2615.57100261 0 21758.55767087 0 4000.80741602 0 15309.03918725 0 831
0.02950000 0.02946900 66702.23134223 0 -2489.55687385 0 21509.76253219 0 5626.57901379 0 4853.12176359 0 996
0.03050000 0.03053250 71442.40432034 0 29.14534845 0 21344.00982966 0 1877.03586488 0 -1506.10191113 0 1041
0.03150000 0.03150510 63696.20587722 0 3189.95892490 0 18063.61215564 0 -647.84615407 0 -2973.51711935 0 1036
0.03250000 0.03246190 62670.24425952 0 6019.43617068 0 17211.59676084 0 -7777.20095262 0 -7818.85503858 0 1059
0.03350000 0.03345080 61076.82599487 0 1680.35815913 0 19638.76108434 0 -5798.74259240 0 -5009.20832655 0 1302
0.03450000 0.03451200 58708.56643941 0 419.03656169 0 22735.69033611 0 1220.69059428 0 -9836.81945376 0 1339
0.03550000 0.03553350 57304.26348266 0 2242.07934183 0 20619.76906327 0 6052.37633702 0 -5227.55457198 0 1365
0.03650000 0.03647120 55911.03285073 0 1066.87828683 0 19217.23767849 0 7727.38656326 0 -7190.68883465 0 1308
0.03750000 0.03744890 53960.64283393 0 3464.91796712 0 14822.18906498 0 8121.93778585 0 -1014.51615553 0 1579
0.03850000 0.03847530 50906.12058621 0 2426.37818843 0 15740.41696219 0 5505.01595961 0 -1970.64129890 0 1662
0.03950000 0.03950240 47816.49906881 0 710.75799646 0 10775.36506701 0 1603.94804555 0 -2591.83193820 0 1683
0.04050000 0.04050350 48831.27763844 0 771.51405720 0 12007.49337283 0 -653.65248120 0 1512.88924625 0 1822
0.04150000 0.04152450 47827.12850064 0 1531.81184936 0 10411.21844837 0 -226.00054357 0 718.89836966 0 1887
0.04250000 0.04250150 44343.99655919 0 2898.82321612 0 11067.56371897 0 -277.68061966 0 2783.57138708 0 1920
0.04350000 0.04349210 44213.78601932 0 1209.05358090 0 12500.21182726 0 -15.49405773 0 -999.99812323 0 2005
0.04450000 0.04448520 40894.63520844 0 1352.35160870 0 11119.16075263 0 746.05988968 0 2934.74183783 0 2151
0.04550000 0.04548030 41693.06055111 0 2535.16377978 0 13850.14966915 0 582.84828569 0 -2318.51160005 0 2274
0.04650000 0.04648670 40032.32255156 0 349.40049644 0 11647.75353947 0 -541.71902791 0 -2123.40616442 0 2311
0.04750000 0.04749250 38852.89851188 0 317.94180717 0 13384.66913377 0 -2708.04705949 0 -2034.67255332 0 2568
0.04850000 0.04851840 38942.25217316 0 1311.05183713 0 12985.17965432 0 -3390.43443807 0 -6220.04455175 0 2493
0.04950000 0.04949480 38434.80752673 0 425.35332300 0 15101.43309690 0 550.17606961 0 -2910.06162581 0 2644
0.05050000 0.05050630 38409.00900990 0 151.57791230 0 13263.09500726 0 631.61523312 0 -6256.21783693 0 2829
0.05150000 0.05149060 38963.17886707 0 -499.81470741 0 14168.25756119 0 3728.89326312 0 -5074.22501789 0 2784
0.05250000 0.05249300 38216.79345105 0 628.35443346 0 14203.46755411 0 2002.07562906 0 -3009.35823478 0 3055
0.05350000 0.05348950 37370.86783490 0 2434.20632208 0 13932.52776580 0 1544.92148195 0 -4906.53465851 0 3009
0.05450000 0.05448610 36107.84774284 0 1639.82237797 0 15528.27121866 0 1318.30420988 0 365.65577651 0 3336
0.05550000 0.05550870 35209.21786056 0 474.51112350 0 15465.60186019 0 -792.76738469 0 1844.15106017 0 3349
0.05650000 0.05647670 33419.59800012 0 1568.78234193 0 14802.48032680 0 2380.07372604 0 1005.32944763 0 3324
0.05750000 0.05747970 32910.49250496 0 1162.79340780 0 13141.07798776 0 -239.92177757 0 -1183.88618658 0 3639
0.05850000 0.05849280 32146.72353897 0 674.96006308 0 11927.66191089 0 1805.51971888 0 157.31337656 0 3846
0.05950000 0.05951020 31746.01610378 0 -683.91093047 0 10954.49313793 0 1056.54891501 0 -2083.71187995 0 3787
0.06050000 0.06049470 31071.04718284 0 338.34478011 0 9914.68004188 0 1065.89949332 0 -2612.42646236 0 3930
0.06150000 0.06148310 31870.24758825 0 665.19316536 0 10307.30467995 0 867.81228061 0 -3144.57346547 0 4083
0.06250000 0.06249100 30561.38807143 0 860.89097037 0 10150.49841587 0 284.64179028 0 -805.38097712 0 4303
0.06350000 0.06350600 30745.63155642 0 299.36133889 0 9503.99644203 0 753.10410272 0 -2725.27559691 0 4470
0.06450000 0.06451750 29442.97254150 0 396.87862526 0 10701.91126416 0 -357.86971770 0 -2054.09341106 0 4479
0.06550000 0.06550280 30361.86477820 0 47.92722232 0 9625.96917224 0 254.83066293 0 -2935.04079060 0 4636
0.06650000 0.06648880 29591.89531031 0 -40.63731438 0 10069.77009562 0 248.97118864 0 -2903.30750767 0 4653
0.06750000 0.06749660 30392.64584120 0 -42.60176625 0 8962.20544401 0 531.44169602 0 -3139.66842558 0 5220
0.06850000 0.06852730 29728.85996832 0 71.74545385 0 9664.98804490 0 1224.96451166 0 -4439.69222718 0 5029
0.06950000 0.06949320 29873.13236071 0 515.41893477 0 9273.58136256 0 -1138.96576479 0 -3972.09687777 0 5040
0.07050000 0.07048030 28906.40768079 0 1323.71857672 0 10418.14972371 0 234.59377486 0 -2603.97827852 0 5475
0.07150000 0.07148790 28120.49406516 0 1018.61623741 0 10003.70153342 0 -239.99596214 0 -582.33010088 0 5509
0.07250000 0.07249820 27717.90433476 0 480.62415403 0 11340.71797225 0 450.32030823 0 327.71424105 0 5916
0.07350000 0.07351270 28034.35137808 0 -209.13517841 0 11874.84692150 0 424.54615052 0 829.16100914 0 5721
0.07450000 0.07449140 27505.09425174 0 298.33936331 0 11799.22294299 0 905.46261393 0 2085.12913752 0 6028
0.07550000 0.07549160 27223.63575485 0 721.46272009 0 9870.80041863 0 1914.52675672 0 794.07281179 0 6183
0.07650000 0.07648840 27084.89952488 0 -358.31814685 0 9981.33543729 0 2511.76795743 0 1205.20041186 0 6330
0.07750000 0.07749960 26899.43808416 0 -309.39175794 0 8390.09842063 0 1368.84937268 0 -407.14709930 0 6583
0.07850000 0.07848650 26512.90322474 0 524.57021124 0 7084.12878059 0 502.50638957 0 -908.00703417 0 6549
0.07950000 0.07947320 25954.19371440 0 905.53569127 0 7211.48266066 0 716.01513628 0 -421.16687699 0 6828
0.08050000 0.08048110 24889.14679009 0 1052.40011490 0 6609.66858979 0 34.95123269 0 -498.08299580 0 7147
0.08150000 0.08149960 23901.93830926 0 1260.18557691 0 7037.14890639 0 -220.24072020 0 -809.22750277 0 7386
0.08250000 0.08250610 22886.71684664 0 1080.17282724 0 6951.43803997 0 -41.53826945 0 -678.07027913 0 7227
0.08350000 0.08350160 22197.35390343 0 480.42928111 0 7117.77757572 0 557.98870200 0 7.57644863 0 7798
0.08450000 0.08449610 21667.10026786 0 341.84806368 0 7079.81057391 0 1015.15835037 0 -19.06366453 0 7371
0.08550000 0.08548940 21511.75555066 0 357.19319865 0 5685.71630065 0 2101.62690150 0 1109.26978963 0 8256
0.08650000 0.08650700 21503.56203029 0 -10.68491525 0 5442.09193766 0 388.19902984 0 -534.20424106 0 8037
0.08750000 0.08749060 21077.83114102 0 419.96220805 0 5068.85494035 0 341.47603357 0 415.80565731 0 8155
0.08850000 0.08849210 20689.52470963 0 580.13002994 0 5664.39100305 0 -659.69686332 0 -79.19513544 0 8718
0.08950000 0.08949900 20195.14540647 0 499.81692187 0 5022.78299678 0 -802.82991349 0 279.32928883 0 8571
0.09050000 0.09049190 20176.10100779 0 54.60217333 0 6143.91124629 0 -456.86183774 0 67.21676228 0 8932
0.09150000 0.09150830 20107.78476365 0 537.04207791 0 6032.06969330 0 586.24306048 0 -26.00855883 0 9285
0.09250000 0.09250820 19904.71832648 0 354.46719228 0 6462.26272948 0 222.06101040 0 721.24570252 0 9204
0.09350000 0.09350330 19531.13808710 0 -202.56486086 0 5891.60618065 0 843.39891162 0 1430.79903004 0 9349
0.09450000 0.09448040 19497.25677315 0 292.56182422 0 6711.62255672 0 1694.12105888 0 2223.69928263 0 9564
0.09550000 0.09549270 19097.98874019 0 623.97532899 0 6401.96284852 0 746.80284267 0 1584.69327269 0 10155
0.09650000 0.09649430 18526.10316331 0 679.68794578 0 5880.65565141 0 492.15930203 0 2317.01683620 0 9913
0.09750000 0.09749140 17841.83348952 0 611.95189147 0 6308.85566912 0 -773.45614297 0 2845.80892489 0 10476
0.09850000 0.09850240 17517.52509558 0 547.94942509 0 7131.77299429 0 -105.39314174 0 2340.41265854 0 10575
0.09950000 0.09950330 17357.19783221 0 35.84953040 0 6976.30648151 0 -661.43189662 0 2635.73370610 0 10882
0.10050000 0.10051200 17409.01631236 0 226.53422963 0 7083.97376805 0 -113.56551397 0 2594.71074265 0 10875
0.10150000 0.10150300 17238.94540314 0 160.62400168 0 7161.98936872 0 248.49507867 0 2495.13732556 0 11118
0.10250000 0.10250800 17290.98532979 0 136.96797970 0 7548.13669677 0 462.94718746 0 2240.00881709 0 11575
0.10350000 0.10349800 17221.22968343 0 -24.74387789 0 7175.46438802 0 508.89622822 0 2082.78180466 0 11364
0.10450000 0.10450100 17013.84503958 0 163.44412281 0 7342.44611861 0 97.03364723 0 1400.90375303 0 12093
0.10550000 0.10551000 16877.54472106 0 363.51881782 0 6942.41409524 0 -336.83340777 0 1282.03127378 0 12067
0.10650000 0.10649700 16424.79735923 0 688.20145634 0 6959.22188431 0 -299.78540893 0 998.35831192 0 12054
0.10750000 0.10749900 16047.45252941 0 357.91068530 0 7161.82328385 0 -206.63836916 0 1107.58679626 0 12807
0.10850000 0.10850100 15539.89715972 0 353.93572069 0 6361.55993525 0 673.87718972 0 -231.55552893 0 12736
0.10950000 0.10950300 15400.82876000 0 208.19070910 0 6342.12800520 0 397.48649590 0 -812.15723991 0 12933
0.11050000 0.11050200 15161.00220443 0 193.88415820 0 5652.54361549 0 739.46410578 0 -825.42409951 0 13428
0.11150000 0.11150900 15060.35477183 0 -109.08498701 0 5356.84610889 0 558.98964017 0 -722.33632652 0 13453
0.11250000 0.11250000 15092.46451380 0 82.59622145 0 5053.71907233 0 638.67716189 0 2.97260919 0 13668
0.11350000 0.11349100 15228.21121608 0 132.96976321 0 4737.46025853 0 361.35860725 0 -290.90208273 0 13791
0.11450000 0.11448600 14555.01386710 0 315.50146678 0 4727.37337062 0 267.61255470 0 -225.11918652 0 14205
0.11550000 0.11549300 14520.68966017 0 380.87357974 0 4819.39546219 0 64.82602590 0 -205.68614923 0 14776
0.11650000 0.11649800 13938.72826770 0 558.81691190 0 4801.07076461 0 132.56119443 0 287.76086418 0 14553
0.11750000 0.11747300 13950.13276226 0 231.40051638 0 5110.96299164 0 -101.02677045 0 375.22337238 0 14568
0.11850000 0.11849100 13834.09479816 0 -109.61413341 0 5182.62307786 0 -280.77201275 0 293.43321618 0 16015
0.11950000 0.11950300 13661.80942398 0 192.78024742 0 5272.51928307 0 144.93119571 0 838.61123837 0 15270
0.12050000 0.12050700 13885.13821558 0 72.41101130 0 5471.78791283 0 45.61642813 0 266.73230488 0 15999
0.12150000 0.12150000 13621.61688489 0 84.72653674 0 5445.74580485 0 518.83253251 0 644.13249632 0 15670
0.12250000 0.12250700 13811.61797878 0 106.63855684 0 5425.89312645 0 364.87628484 0 180.38256532 0 16887
0.12350000 0.12352200 13389.09806370 0 241.45861625 0 5276.27280118 0 608.27477240 0 1298.00863849 0 16407
0.12450000 0.12449800 13256.11944263 0 107.74346413 0 4384.60741121 0 882.30373934 0 1202.03372696 0 16306
0.12550000 0.12549900 13202.97228350 0 55.30493379 0 4617.51376377 0 626.76334038 0 818.25255473 0 17523
0.12650000 0.12650100 13200.31492554 0 133.24103517 0 4139.89796039 0 -123.75205280 0 1220.20341199 0 17154
0.12750000 0.12750600 12734.94511341 0 325.48538207 0 4090.68147657 0 -99.06254003 0 876.11984593 0 18007
0.12850000 0.12850300 12617.35702384 0 384.42558154 0 4403.74038850 0 -201.03466557 0 762.22105498 0 17496
0.12950000 0.12949900 12464.33749485 0 99.70861018 0 4578.05199812 0 -115.81651760 0 633.13103438 0 18405
0.13050000 0.13049000 12353.83569316 0 43.11895454 0 4295.86272779 0 -35.71987348 0 359.71768871 0 18100
0.13150000 0.13148800 12496.66868332 0 -23.64018855 0 4504.79749712 0 -370.75790378 0 -118.53920228 0 19059
0.13250000 0.13249300 12445.29309616 0 39.90786962 0 4158.34445354 0 185.84232869 0 -176.43528152 0 18957
0.13350000 0.13349100 12514.16295653 0 29.26614751 0 4195.61389888 0 105.61392390 0 -483.40330756 0 19468
0.13450000 0.13450700 12316.30051202 0 158.56897819 0 3789.29279501 0 239.35155284 0 -974.12210013 0 19953
0.13550000 0.13551000 12308.77133114 0 245.10584005 0 3915.78303374 0 -90.09927164 0 -1421.84151926 0 19956
0.13650000 0.13649900 12057.31883451 0 416.19761761 0 3786.29219498 0 -130.28915337 0 -1091.14107221 0 19723
0.13750000 0.13749600 11643.76750254 0 204.27221335 0 3576.84809871 0 -267.21505824 0 -972.37488727 0 20946
0.13850000 0.13851100 11586.74502972 0 66.97881802 0 3522.22832038 0 568.06673205 0 -862.73229799 0 20955
0.13950000 0.13949800 11531.71557537 0 60.86778050 0 3466.26879075 0 466.37739369 0 -777.33034943 0 20506
0.14050000 0.14048300 11388.10752247 0 167.23085790 0 3331.50752538 0 735.51903645 0 -1225.88351462 0 21447
0.14150000 0.14148400 11080.18616927 0 318.21197189 0 3148.20518801 0 224.64307655 0 -642.58569255 0 21771
0.14250000 0.14249400 10991.65186002 0 333.84609454 0 2953.49835607 0 59.62867663 0 -666.05348500 0 22470
0.14350000 0.14350900 10720.29132336 0 66.51289459 0 3353.20928203 0 -197.26011004 0 -41.92912252 0 22519
0.14450000 0.14449900 10927.50988234 0 14.40133000 0 3396.16990232 0 138.39741684 0 -105.91431607 0 22218
0.14550000 0.14550500 10771.64476587 0 29.33955703 0 3449.73780980 0 -127.98943151 0 -202.32126971 0 23559
0.14650000 0.14650700 10811.97017286 0 118.00662345 0 3551.85786160 0 -18.60217003 0 -37.65310139 0 23044
0.14750000 0.14750500 10698.47884347 0 119.60435992 0 3530.00109241 0 413.69195050 0 -307.11418073 0 23649
0.14850000 0.14849900 10591.85235547 0 -56.77234900 0 3101.65713447 0 265.43684288 0 -72.94967990 0 23640
0.14950000 0.14949500 10467.27762893 0 193.02494580 0 3317.79998726 0 390.95825318 0 -297.94297408 0 24457
0.15050000 0.15050000 10480.68621429 0 40.62635278 0 3004.22067607 0 218.65848498 0 -221.38781305 0 24591
0.15150000 0.15149900 10347.82938879 0 8.05010054 0 2894.15069505 0 190.13396179 0 -302.46048261 0 25020
0.15250000 0.15250500 10291.62626801 0 333.58035874 0 2973.94894001 0 -213.90402871 0 -67.34486907 0 25297
0.15350000 0.15350100 10110.71555280 0 345.69680379 0 3068.86090836 0 -324.54755615 0 -76.11060719 0 25452
0.15450000 0.15450400 9727.52453547 0 268.62788689 0 3422.36702285 0 -127.96950132 0 34.77219320 0 26061
0.15550000 0.15549900 9749.85741463 0 225.60747604 0 3461.93951175 0 -125.20695628 0 346.28252977 0 26128
0.15650000 0.15649500 9622.69176409 0 5.42748754 0 3633.33909994 0 217.12939693 0 102.90662976 0 26331
0.15750000 0.15749700 9624.28617886 0 74.28688457 0 3608.65888792 0 191.88671080 0 479.99635321 0 27345
0.15850000 0.15849900 9533.31595815 0 15.91513825 0 3410.55285226 0 316.43929269 0 359.26261616 0 26980
0.15950000 0.15949700 9394.65723445 0 139.51682888 0 3387.36740409 0 241.79853662 0 275.08526672 0 27777
0.16050000 0.16050000 9310.41898723 0 293.61258784 0 3120.71260549 0 291.29625749 0 498.84145005 0 28224
0.16150000 0.16150500 9045.61326687 0 188.20405557 0 2977.04919096 0 307.86488435 0 690.18893864 0 28075
0.16250000 0.16249700 8902.69169811 0 94.52654072 0 2690.26490584 0 379.05771847 0 858.29451020 0 28590
0.16350000 0.16349900 8944.97690659 0 -31.22373454 0 2526.69345129 0 364.28612993 0 290.94194310 0 29163
0.16450000 0.16449100 8828.04208418 0 16.94641458 0 2322.80766208 0 351.63599882 0 453.06292309 0 28996
0.16550000 0.16550500 8785.28076573 0 108.36550734 0 2090.37741949 0 10.63319642 0 428.76581351 0 30777
0.16650000 0.16650700 8726.35385305 0 124.49722026 0 2213.40202055 0 -98.84541174 0 295.95992070 0 29211
0.16750000 0.16749900 8550.55855190 0 263.26113105 0 2100.61931994 0 -131.67430121 0 342.77038834 0 30922
0.16850000 0.16850800 8479.68460074 0 268.68324851 0 2331.17833964 0 -92.77002711 0 323.07382972 0 30867
0.16950000 0.16949900 8256.21186892 0 123.92810277 0 2257.03805266 0 -86.11157386 0 407.28328890 0 30852
0.17050000 0.17049200 8085.28839070 0 160.87645069 0 2653.31655792 0 103.79584816 0 528.51085164 0 31257
0.17150000 0.17149500 8132.33469885 0 133.01626698 0 2669.80324957 0 22.33620086 0 414.60320283 0 32608
0.17250000 0.17250900 7950.20602791 0 82.27578837 0 2605.39553610 0 322.88781466 0 768.70722286 0 32361
0.17350000 0.17350400 8032.86093268 0 -12.24333389 0 2456.95994958 0 358.10998714 0 1137.47100094 0 32508
0.17450000 0.17449800 7940.10806767 0 -101.47863203 0 2254.55785190 0 463.39783108 0 1158.61914135 0 32791
0.17550000 0.17549800 8063.64199568 0 -24.32844426 0 2139.31709519 0 368.23341373 0 1062.73723735 0 33633
0.17650000 0.17650100 8000.66261211 0 12.92029583 0 1918.64566155 0 80.27202975 0 926.77683920 0 33984
0.17750000 0.17750300 8074.07212565 0 52.19549281 0 1810.81229014 0 -17.83762601 0 1016.43941835 0 34069
0.17850000 0.17849800 7898.98545330 0 156.70550593 0 1808.91892260 0 -80.27247264 0 863.58375977 0 34536
