### header ###
fiducial parameters:
Omega_m = 0.31
Omega_nu = 0
Omega_de = 0.69
Omega_k = 0
H_0 = 100
w_de = -1
zeff = 0
beta = 0
fgrowth = 0
b_1 = 2
gamma = 0.55
Lx = 3500 Ly = 3500 Lz = 3500
nx = 700 ny = 700 nz = 700
xoffset = -685.467585 yoffset = -31.7331281 zoffset = 572.489161
bins = 400 dk = 0.001
kx_ny = 0.628318531 ky_ny = 0.628318531 kz_ny = 0.628318531
############################
A(data) = 8.01402823 (not used)
A(ran) = 8.01268908 (used)
Ngal = 475930
weighted Ngal = 0
Nran = 23820508
weighted Nran = 0
SN(data) = 3484.86783
SN(ran) = 69.7934278
SN(data+ran) = 3554.66126
############################
13 columns: k_central k_mean P_0(k) sigma^{lin}_{P_0(k)} P^img_1(k) sigma^{lin}_{P_1(k)} P_2(k) sigma^{lin}_{P_2(k)} P^img_3(k) sigma^{lin}_{P_3(k)} P_4(k) sigma^{lin}_{P_4(k)} N_modes
### header ###
0.00050000 0 0 0 0 0 0 0 0 0 0 0 0
0.00150000 0.00179520 18138.12890167 0 -23456.49868181 0 16519.35501318 0 -22254.37637625 0 10256.80380645 0 3
0.00250000 0.00253879 29889.96229443 0 -21862.19463117 0 -4642.96903853 0 -24412.15103690 0 7275.90144645 0 6
0.00350000 0.00331552 38321.09475084 0 -10440.96978516 0 10950.66211354 0 -20595.52067192 0 -10980.26951010 0 7
0.00450000 0.00420575 45126.69920062 0 -7409.79907048 0 3533.87640609 0 -15938.27940670 0 29457.36656377 0 24
0.00550000 0.00557378 58866.90068432 0 -13718.72117355 0 15791.23893311 0 -2617.75225060 0 9559.98918864 0 45
0.00650000 0.00659388 66635.79739332 0 -13285.90399639 0 -25262.06268998 0 -18453.13654276 0 -8730.66098740 0 40
0.00750000 0.00754703 80711.26887253 0 -5719.46474670 0 12780.23092192 0 -10461.14356098 0 -20700.26486470 0 57
0.00850000 0.00846663 79802.23100492 0 7854.64079240 0 9783.57264370 0 -45949.59438114 0 -12110.90888664 0 75
0.00950000 0.00948925 75265.23518723 0 11627.71263155 0 20116.86407001 0 -25007.06704941 0 -15951.45547323 0 112
0.01050000 0.01054430 56916.95356051 0 12740.25982933 0 23482.74009163 0 -10659.91393613 0 -7530.28810916 0 105
0.01150000 0.01145670 64968.63744538 0 1769.72289274 0 23501.78449031 0 2182.68739150 0 -6010.44544293 0 144
0.01250000 0.01249090 61504.32845612 0 -5231.88385098 0 24871.09890064 0 4942.70794369 0 -27017.46906673 0 169
0.01350000 0.01339930 59626.01927389 0 -1984.84709164 0 16123.74084741 0 -800.79703465 0 -23566.77903700 0 180
0.01450000 0.01448870 72667.22489178 0 -7603.62011644 0 20286.93497922 0 -3895.27708817 0 -16001.05948842 0 267
0.01550000 0.01550050 78792.54570471 0 -4588.02816278 0 32257.00389416 0 1574.24099807 0 -9087.14555726 0 238
0.01650000 0.01653350 76823.88635195 0 -1487.46718846 0 10644.24659651 0 13771.75760943 0 -14620.89419977 0 315
0.01750000 0.01747870 85977.37727953 0 -2689.08016708 0 13718.05683406 0 2427.88402461 0 -24948.38372787 0 297
0.01850000 0.01844180 78235.82921282 0 1790.97068407 0 3420.36293205 0 60.13800357 0 -20635.38104126 0 388
0.01950000 0.01947590 77596.51317780 0 6767.26098893 0 8658.67980375 0 -6871.60657802 0 -12936.79359486 0 399
0.02050000 0.02045430 70702.66229921 0 3092.37852627 0 -4566.00530871 0 188.95254473 0 -14779.56061443 0 462
0.02150000 0.02154770 74559.48520329 0 -5243.81981714 0 2354.57416198 0 5995.78568487 0 -16603.17251206 0 571
0.02250000 0.02255340 74544.31611829 0 -1567.27650575 0 -6684.61715649 0 -1706.01273573 0 -21769.74071893 0 510
0.02350000 0.02348930 79303.64421834 0 2805.09598653 0 5997.23615942 0 -2634.69290757 0 -20074.45706595 0 555
0.02450000 0.02439640 75025.96224790 0 6594.18947969 0 -1165.22931926 0 -17062.89543853 0 -8943.42678112 0 592
0.02550000 0.02547300 70292.76483442 0 6760.31864127 0 12536.97194566 0 -3935.63571214 0 -1431.81768392 0 837
0.02650000 0.02652900 65065.96318053 0 1771.16229497 0 19529.14506863 0 3426.46378303 0 6671.89505527 0 723
0.02750000 0.02749970 65853.42692164 0 -1839.43424980 0 23605.08928087 0 3911.74163518 0 3468.61612361 0 826
0.02850000 0.02848090 67837.25535939 0 -128.13337173 0 25852.54977256 0 8309.48082362 0 10637.89108206 0 831
0.02950000 0.02946900 65476.85715455 0 4039.49411894 0 22255.59433198 0 6214.58589561 0 15015.17968657 0 996
0.03050000 0.03053250 59346.88596521 0 5657.81404211 0 19470.57247034 0 7308.22156260 0 18538.06127411 0 1041
0.03150000 0.03150510 57062.77607837 0 3385.26366238 0 21940.91886063 0 3210.69738929 0 21314.33599914 0 1036
0.03250000 0.03246190 51126.45985010 0 1411.83213763 0 10492.43395092 0 7718.75014990 0 9538.11027480 0 1059
0.03350000 0.03345080 53509.55632082 0 294.43193988 0 15720.92967051 0 719.63246480 0 15455.85821435 0 1302
0.03450000 0.03451200 54512.15533315 0 443.60272877 0 15871.29184154 0 -6842.89603977 0 1916.99588515 0 1339
0.03550000 0.03553350 52237.45692240 0 4449.79018742 0 18698.60998399 0 -10207.73126286 0 4193.58766344 0 1365
0.03650000 0.03647120 50647.47107844 0 4171.63124332 0 19142.05659297 0 -5077.74601718 0 -1984.39312632 0 1308
0.03750000 0.03744890 48552.80866925 0 -442.69590536 0 20813.31330110 0 -2781.82195976 0 -2966.94015840 0 1579
0.03850000 0.03847530 49032.24033390 0 -2181.41407415 0 21419.30163842 0 4492.91689259 0 -12588.90114906 0 1662
0.03950000 0.03950240 50630.41969822 0 -191.04299965 0 18821.29134298 0 2685.43737222 0 -16575.38097676 0 1683
0.04050000 0.04050350 47684.29551048 0 3080.38719850 0 15395.62476733 0 3289.51019735 0 -14978.75173791 0 1822
0.04150000 0.04152450 44115.68522143 0 3920.85415851 0 12499.10459478 0 3008.99284807 0 -9260.46065765 0 1887
0.04250000 0.04250150 42113.14455473 0 1811.28840011 0 11470.59634237 0 1953.91101610 0 -11280.70597173 0 1920
0.04350000 0.04349210 40848.24216745 0 670.91866453 0 9405.76277624 0 5163.05827991 0 -8734.03804647 0 2005
0.04450000 0.04448520 40348.65887163 0 694.80499086 0 12492.12903014 0 831.25700022 0 -4210.63904366 0 2151
0.04550000 0.04548030 39668.81812776 0 921.75886160 0 14081.56125786 0 -1654.14996628 0 -2058.41161774 0 2274
0.04650000 0.04648670 40278.90322527 0 211.57108987 0 14886.62999542 0 -1426.44760639 0 1162.25086389 0 2311
0.04750000 0.04749250 40439.00904215 0 97.06564625 0 19017.93583176 0 821.80123483 0 3371.46754565 0 2568
0.04850000 0.04851840 42127.98146999 0 -1053.58928258 0 21082.26007094 0 -314.06538625 0 5455.54481232 0 2493
0.04950000 0.04949480 42025.00884917 0 707.76625429 0 23394.16149308 0 1604.08091345 0 5757.90785847 0 2644
0.05050000 0.05050630 39601.05549987 0 2713.59429423 0 18635.71917902 0 2645.73201542 0 8683.60360692 0 2829
0.05150000 0.05149060 40470.56516788 0 196.77182051 0 18815.42301082 0 2633.50816882 0 3227.40552744 0 2784
0.05250000 0.05249300 39351.81746821 0 -704.38365906 0 17406.35895440 0 4968.47324355 0 5158.13109536 0 3055
0.05350000 0.05348950 39265.67478112 0 451.99001482 0 13984.78913894 0 2861.01122686 0 3165.04619406 0 3009
0.05450000 0.05448610 37162.92957481 0 2258.11206816 0 13957.77266639 0 1525.68885374 0 2004.97657816 0 3336
0.05550000 0.05550870 35686.32433699 0 674.35551415 0 11739.65383547 0 -49.94648219 0 2409.22715729 0 3349
0.05650000 0.05647670 35587.00558337 0 436.00268501 0 12578.71461022 0 442.42131171 0 4507.93096504 0 3324
0.05750000 0.05747970 35865.03165957 0 870.47738920 0 11731.46031510 0 795.37713165 0 2759.44479130 0 3639
0.05850000 0.05849280 34948.35388783 0 448.19774357 0 13870.96563981 0 1926.57344612 0 7411.12774946 0 3846
0.05950000 0.05951020 34372.81444376 0 1064.96277464 0 12266.47505034 0 2875.89243142 0 6063.72546996 0 3787
0.06050000 0.06049470 35151.30960176 0 -49.84694199 0 12758.41844203 0 1965.38194461 0 5970.59614591 0 3930
0.06150000 0.06148310 33408.19350556 0 272.87523069 0 10128.02159649 0 207.21302282 0 3290.04166894 0 4083
0.06250000 0.06249100 33663.29986938 0 -193.12570395 0 11946.37413983 0 -849.65698961 0 2035.55833931 0 4303
0.06350000 0.06350600 33251.52010937 0 -212.92744966 0 9777.75967318 0 -384.63484848 0 148.10120231 0 4470
0.06450000 0.06451750 33705.26398044 0 718.02144154 0 9257.85866132 0 -228.62579179 0 -1401.29128440 0 4479
0.06550000 0.06550280 32628.25894533 0 1108.45043759 0 7693.66026186 0 -828.96281452 0 -3172.96290631 0 4636
0.06650000 0.06648880 31658.87690746 0 1208.92071300 0 8084.07043497 0 1603.69338208 0 -309.49583780 0 4653
0.06750000 0.06749660 31370.88573893 0 527.88858698 0 8911.30596682 0 2025.22786025 0 -3381.90874796 0 5220
0.06850000 0.06852730 29642.93872773 0 1512.74530602 0 9459.71821508 0 1564.91810057 0 -1139.41973011 0 5029
0.06950000 0.06949320 29269.02631860 0 1267.73690244 0 8918.18188053 0 1740.50302754 0 1626.86775793 0 5040
0.07050000 0.07048030 28058.15687644 0 142.05903466 0 7617.65982431 0 676.73384952 0 506.60536422 0 5475
0.07150000 0.07148790 28239.96444996 0 80.57795808 0 8800.87059908 0 -126.91098707 0 3029.75345710 0 5509
0.07250000 0.07249820 28379.03284968 0 399.47065650 0 9514.95804360 0 -259.45889471 0 953.84092276 0 5916
0.07350000 0.07351270 27787.21708812 0 846.62095814 0 9437.24139570 0 112.26451580 0 2358.09516128 0 5721
0.07450000 0.07449140 26970.96530249 0 461.70265815 0 9100.25518985 0 -795.12246818 0 1329.34331773 0 6028
0.07550000 0.07549160 27041.60673484 0 383.70588043 0 10260.77877106 0 -315.44278346 0 -570.89681828 0 6183
0.07650000 0.07648840 26423.99245645 0 393.80605513 0 10323.01630887 0 -624.59980811 0 -1514.94869866 0 6330
0.07750000 0.07749960 26701.02202341 0 848.85092436 0 11263.65459151 0 -1307.80764595 0 726.28361032 0 6583
0.07850000 0.07848650 26001.36181812 0 298.75678995 0 10413.21146684 0 -61.23947845 0 -102.95058689 0 6549
0.07950000 0.07947320 25985.08550064 0 -292.47878178 0 11055.32880005 0 812.69756936 0 -80.04770445 0 6828
0.08050000 0.08048110 26160.24967927 0 253.40897643 0 10549.47856839 0 1392.42235222 0 -1868.16693270 0 7147
0.08150000 0.08149960 25354.18443247 0 377.36476000 0 10096.59833865 0 1063.21334732 0 -1169.21535620 0 7386
0.08250000 0.08250610 25009.17079112 0 761.04074515 0 10080.83134811 0 1089.86111146 0 -173.86318046 0 7227
0.08350000 0.08350160 24357.67519880 0 337.04599641 0 9659.47402714 0 792.67105546 0 -423.90174122 0 7798
0.08450000 0.08449610 23974.35131357 0 917.11402133 0 8991.21493503 0 637.81130609 0 59.10628435 0 7371
0.08550000 0.08548940 23064.75982972 0 1216.19523040 0 9606.05005989 0 637.93753059 0 2026.84441968 0 8256
0.08650000 0.08650700 22043.55931170 0 850.68893028 0 9190.63857734 0 824.67782482 0 1845.36901590 0 8037
0.08750000 0.08749060 21459.82634726 0 554.46991718 0 8707.09908019 0 820.46037629 0 944.82029973 0 8155
0.08850000 0.08849210 20973.08694823 0 206.07368059 0 8478.82095940 0 970.97202372 0 1240.35504316 0 8718
0.08950000 0.08949900 20610.13614068 0 246.41015991 0 8037.96527442 0 1000.74107622 0 1593.40719233 0 8571
0.09050000 0.09049190 20728.16712324 0 -243.79819848 0 7061.58552726 0 630.43160159 0 1407.40320770 0 8932
0.09150000 0.09150830 20548.68473793 0 -71.19682016 0 6360.77380019 0 950.39078634 0 1171.18623002 0 9285
0.09250000 0.09250820 20524.87923957 0 538.97419859 0 5412.82778317 0 676.73938568 0 814.98511167 0 9204
0.09350000 0.09350330 20283.72400502 0 268.84268999 0 5760.50985480 0 -299.35137380 0 -45.27440401 0 9349
0.09450000 0.09448040 19987.76076262 0 445.88030598 0 6125.88550149 0 -607.10221320 0 664.61851170 0 9564
0.09550000 0.09549270 19325.85718496 0 826.17480313 0 5682.25066298 0 -237.65637991 0 -757.53081819 0 10155
0.09650000 0.09649430 18765.15465615 0 644.35505005 0 6062.40786330 0 -313.17406410 0 286.80642978 0 9913
0.09750000 0.09749140 18251.95240080 0 263.67855770 0 6141.64141971 0 -34.88490947 0 -922.06113606 0 10476
0.09850000 0.09850240 18158.94487232 0 228.97457002 0 6142.17289130 0 982.14510669 0 -578.16026336 0 10575
0.09950000 0.09950330 17843.60506149 0 173.94511567 0 5857.74701136 0 274.28695210 0 -950.44393350 0 10882
0.10050000 0.10051200 17635.44535490 0 443.44439452 0 5789.49720117 0 430.68243294 0 -285.07803987 0 10875
0.10150000 0.10150300 17203.62468697 0 460.25882699 0 5792.07705286 0 -270.97964868 0 -142.46981791 0 11118
0.10250000 0.10250800 16929.03103147 0 405.89149767 0 5865.96267637 0 25.36558893 0 -944.00759109 0 11575
0.10350000 0.10349800 16702.15909594 0 365.68345732 0 5858.86531616 0 -324.81439918 0 -915.65247446 0 11364
0.10450000 0.10450100 16285.39678976 0 185.48579983 0 6212.44893692 0 71.82462097 0 -925.43708790 0 12093
0.10550000 0.10551000 16504.51809792 0 152.41830176 0 6572.36592748 0 46.31099506 0 257.01080369 0 12067
0.10650000 0.10649700 16177.88451577 0 55.38166500 0 5990.17201619 0 723.54653162 0 -746.42527639 0 12054
0.10750000 0.10749900 16107.57525317 0 199.65726836 0 6169.35544873 0 814.43370990 0 856.73441963 0 12807
0.10850000 0.10850100 15961.30984232 0 205.64628886 0 5636.17871941 0 936.32893382 0 505.87237631 0 12736
0.10950000 0.10950300 15711.40747116 0 164.63550496 0 5593.21809911 0 1214.41258611 0 1655.47864526 0 12933
0.11050000 0.11050200 15274.93642681 0 465.59679479 0 5100.78752513 0 278.89636093 0 1256.80851784 0 13428
0.11150000 0.11150900 15265.63567396 0 334.61008495 0 4957.36770175 0 41.26600098 0 1572.67980027 0 13453
0.11250000 0.11250000 15024.70188591 0 77.94750587 0 4769.34855401 0 -84.59267234 0 1480.55805777 0 13668
0.11350000 0.11349100 15036.77071996 0 116.53843318 0 4447.06639551 0 -125.84140049 0 1428.76172227 0 13791
0.11450000 0.11448600 14884.08336071 0 -308.42403675 0 4571.17608440 0 62.28370940 0 869.37569288 0 14205
0.11550000 0.11549300 15291.76636054 0 -57.90272264 0 4483.48327184 0 76.83230132 0 -86.68002701 0 14776
0.11650000 0.11649800 15204.07354797 0 567.86521574 0 4957.01338736 0 -421.58541086 0 -48.61935334 0 14553
0.11750000 0.11747300 14380.07113497 0 690.24097857 0 4846.98769564 0 -146.57986488 0 876.33354179 0 14568
0.11850000 0.11849100 14111.89942786 0 348.74058588 0 5083.06073309 0 183.91906587 0 1355.56258290 0 16015
0.11950000 0.11950300 14037.38268183 0 -64.07432577 0 5106.04687942 0 1019.43226775 0 1560.63311086 0 15270
0.12050000 0.12050700 14219.52242510 0 -276.00537692 0 5305.47052173 0 713.68994807 0 832.51038739 0 15999
0.12150000 0.12150000 14223.61918528 0 140.67277959 0 4776.55663746 0 255.16615438 0 836.40230957 0 15670
0.12250000 0.12250700 13900.97164007 0 382.34287724 0 4825.58489176 0 -98.45832326 0 564.50476516 0 16887
0.12350000 0.12352200 13558.28318693 0 421.78692718 0 4772.60381750 0 -537.29231245 0 209.07538785 0 16407
0.12450000 0.12449800 13379.90803410 0 262.41077650 0 4413.27366016 0 -19.53091664 0 -14.29614291 0 16306
0.12550000 0.12549900 13242.50048310 0 129.40226016 0 4427.62339313 0 259.02375234 0 -360.70755455 0 17523
0.12650000 0.12650100 12986.50833329 0 62.08529334 0 4001.62676806 0 270.14700986 0 -699.80635998 0 17154
0.12750000 0.12750600 13044.52731534 0 -30.25977794 0 3666.10210908 0 444.42650973 0 -816.52195036 0 18007
0.12850000 0.12850300 13044.97020834 0 177.31110241 0 3895.96357231 0 124.45403819 0 -640.38894330 0 17496
0.12950000 0.12949900 12829.50276737 0 165.01528570 0 3744.29486695 0 -61.45638529 0 -692.11773762 0 18405
0.13050000 0.13049000 12798.05736488 0 237.22898817 0 3952.67602003 0 117.64566566 0 -493.62749230 0 18100
0.13150000 0.13148800 12352.50701418 0 278.79338831 0 4004.92632085 0 -388.45922947 0 -400.92777445 0 19059
0.13250000 0.13249300 12409.08659400 0 285.76009508 0 4153.36190737 0 25.62811375 0 15.54277596 0 18957
0.13350000 0.13349100 12340.88107312 0 114.43801316 0 4374.75304212 0 235.28911686 0 131.69312416 0 19468
0.13450000 0.13450700 11996.75321776 0 158.10726225 0 4350.01746848 0 43.64234334 0 238.10038013 0 19953
0.13550000 0.13551000 12060.19763897 0 208.45976659 0 4444.61941173 0 194.17203865 0 436.30828118 0 19956
0.13650000 0.13649900 11903.30279629 0 157.38645390 0 4471.71339056 0 451.79514190 0 668.51043388 0 19723
0.13750000 0.13749600 11699.79346612 0 250.59660592 0 4092.66342272 0 533.53990157 0 1150.15988519 0 20946
0.13850000 0.13851100 11608.77895611 0 -44.85343422 0 4022.37630477 0 687.54376024 0 1155.85106014 0 20955
0.13950000 0.13949800 11645.53907451 0 -28.33131113 0 3879.62082088 0 302.65314106 0 1176.78882638 0 20506
0.14050000 0.14048300 11569.25075651 0 171.28665048 0 3689.85224581 0 390.41903097 0 1043.15915260 0 21447
0.14150000 0.14148400 11363.74840787 0 396.22314364 0 3656.00414884 0 -264.79354081 0 1137.47100094 0 21771
0.14250000 0.14249400 11097.01610299 0 107.98783034 0 3385.97229117 0 -61.85321741 0 1241.69479446 0 22470
0.14350000 0.14350900 11148.94530639 0 17.29707511 0 4166.93657760 0 18.08730693 0 1120.67428419 0 22519
0.14450000 0.14449900 11135.43707011 0 79.77742900 0 3779.52700452 0 105.03661288 0 881.26958420 0 22218
0.14550000 0.14550500 10983.82372637 0 190.70640098 0 3667.04325669 0 -181.99026688 0 721.03865005 0 23559
0.14650000 0.14650700 10744.90510143 0 391.64695179 0 3883.87259361 0 -75.99966249 0 921.03694602 0 23044
0.14750000 0.14750500 10478.67105117 0 333.98117690 0 3801.02945932 0 129.10995078 0 777.84189083 0 23649
0.14850000 0.14849900 10199.46023622 0 145.63318111 0 3941.72549079 0 197.98424008 0 679.51521752 0 23640
0.14950000 0.14949500 10143.00245197 0 64.50592499 0 3511.41065904 0 261.62907037 0 568.76871745 0 24457
0.15050000 0.15050000 9954.67327913 0 95.93228308 0 3770.42555352 0 185.82461297 0 251.54218246 0 24591
0.15150000 0.15149900 9877.62097071 0 282.24795365 0 3485.56785291 0 -107.78653547 0 71.55124527 0 25020
0.15250000 0.15250500 9617.25525260 0 163.86265669 0 3493.21882936 0 191.23455087 0 91.37447129 0 25297
0.15350000 0.15350100 9589.47478963 0 125.35864713 0 3478.84695174 0 -130.41537788 0 -1.03348416 0 25452
0.15450000 0.15450400 9529.92782676 0 86.33412759 0 3386.22695464 0 62.60358886 0 -566.63729492 0 26061
0.15550000 0.15549900 9376.01143946 0 124.30013288 0 3320.13624779 0 70.28246757 0 -251.07160866 0 26128
0.15650000 0.15649500 9445.39062677 0 77.56351765 0 3234.63575554 0 -146.34180990 0 -476.59050610 0 26331
0.15750000 0.15749700 9252.80968120 0 126.55556544 0 3313.63679313 0 101.47198863 0 -2.94528269 0 27345
0.15850000 0.15849900 9170.56445245 0 147.07922673 0 3304.43569120 0 324.06148109 0 36.19974804 0 26980
0.15950000 0.15949700 9187.13972270 0 35.81299173 0 3297.89194723 0 490.89373530 0 301.32778378 0 27777
0.16050000 0.16050000 9055.04688761 0 94.76514932 0 3046.21800411 0 559.97618431 0 359.88377358 0 28224
0.16150000 0.16150500 8960.01312369 0 120.61083425 0 3029.24413016 0 252.33828262 0 560.30946129 0 28075
0.16250000 0.16249700 8870.31622034 0 157.44181553 0 2697.82730369 0 138.38080835 0 588.61696692 0 28590
0.16350000 0.16349900 8802.85254522 0 -75.80567536 0 2398.87453358 0 114.84436748 0 457.32023198 0 29163
0.16450000 0.16449100 8749.24034845 0 90.58877912 0 2463.32653635 0 253.65256757 0 466.50804712 0 28996
0.16550000 0.16550500 8739.34169006 0 97.59102806 0 2079.27187769 0 285.52646903 0 270.16915450 0 30777
0.16650000 0.16650700 8597.80416190 0 61.70794851 0 1933.36078123 0 370.00387846 0 13.55828319 0 29211
0.16750000 0.16749900 8445.58184029 0 90.60472327 0 1773.59820643 0 130.72429574 0 390.60504602 0 30922
0.16850000 0.16850800 8399.11129303 0 221.65465608 0 1959.21465969 0 -193.09913037 0 266.64040459 0 30867
0.16950000 0.16949900 8299.90326266 0 164.26458208 0 1902.62400754 0 39.70668548 0 665.96379917 0 30852
0.17050000 0.17049200 8172.70439514 0 85.69148985 0 2038.69180723 0 -26.49197653 0 559.02950054 0 31257
0.17150000 0.17149500 8111.96162118 0 76.72855364 0 2017.79833030 0 50.82086369 0 890.99551432 0 32608
0.17250000 0.17250900 8261.21655974 0 -23.18112996 0 2062.29800375 0 -44.04559741 0 500.94076284 0 32361
0.17350000 0.17350400 8120.58696222 0 46.14801044 0 1926.57344612 0 317.58970724 0 819.54690950 0 32508
0.17450000 0.17449800 8137.08472620 0 26.58586985 0 1607.45797252 0 216.99985073 0 215.87268806 0 32791
0.17550000 0.17549800 7980.69921046 0 179.36612590 0 1684.06738794 0 195.13975984 0 591.23889343 0 33633
0.17650000 0.17650100 7847.47699824 0 205.43480745 0 1456.03285830 0 157.68651390 0 155.21517101 0 33984
0.17750000 0.17750300 7759.46308826 0 189.37218584 0 1763.67740339 0 -88.95306457 0 409.75573903 0 34069
0.17850000 0.17849800 7616.04326488 0 190.37976740 0 1538.37773798 0 -153.79569896 0 586.64720033 0 34536
