### header ###
fiducial parameters:
Omega_m = 0.31
Omega_nu = 0
Omega_de = 0.69
Omega_k = 0
H_0 = 100
w_de = -1
zeff = 0
beta = 0
fgrowth = 0
b_1 = 2
gamma = 0.55
Lx = 3500 Ly = 3500 Lz = 3500
nx = 700 ny = 700 nz = 700
xoffset = -685.467585 yoffset = -31.7331281 zoffset = 572.489161
bins = 400 dk = 0.001
kx_ny = 0.628318531 ky_ny = 0.628318531 kz_ny = 0.628318531
############################
A(data) = 8.00862606 (not used)
A(ran) = 7.99960245 (used)
Ngal = 475477
weighted Ngal = 0
Nran = 23820508
weighted Nran = 0
SN(data) = 3496.50073
SN(ran) = 69.6794385
SN(data+ran) = 3566.18017
############################
13 columns: k_central k_mean P_0(k) sigma^{lin}_{P_0(k)} P^img_1(k) sigma^{lin}_{P_1(k)} P_2(k) sigma^{lin}_{P_2(k)} P^img_3(k) sigma^{lin}_{P_3(k)} P_4(k) sigma^{lin}_{P_4(k)} N_modes
### header ###
0.00050000 0 0 0 0 0 0 0 0 0 0 0 0
0.00150000 0.00179520 10595.08547431 0 -13559.94403565 0 -16842.33472814 0 18119.30594947 0 -5807.58937993 0 3
0.00250000 0.00253879 17270.61225212 0 -18586.55805682 0 -16692.85834309 0 -6707.86903861 0 -2281.37502261 0 6
0.00350000 0.00331552 26280.82729655 0 -11630.14854301 0 -14025.31384778 0 -15597.91614177 0 -30705.21757083 0 7
0.00450000 0.00420575 45658.17079191 0 -13657.71266380 0 -12260.82816468 0 -22408.72458422 0 4050.85432420 0 24
0.00550000 0.00557378 48591.11891313 0 18.17699276 0 2760.38593891 0 -39385.36661241 0 14991.37418821 0 45
0.00650000 0.00659388 70881.03745204 0 4336.90783589 0 34483.75913844 0 -34466.70775822 0 5972.55594740 0 40
0.00750000 0.00754703 61811.58546984 0 -7254.02253261 0 49732.78632518 0 2273.82369708 0 -10475.88082532 0 57
0.00850000 0.00846663 70518.97243047 0 2143.88996534 0 60758.27520984 0 9585.67698222 0 12384.61675615 0 75
0.00950000 0.00948925 60575.36040384 0 6392.15276873 0 49976.15602469 0 10578.56556568 0 20867.34624621 0 112
0.01050000 0.01054430 75355.69608100 0 -1143.58292424 0 67532.76642688 0 47609.66804120 0 34913.47606465 0 105
0.01150000 0.01145670 69949.41204180 0 -548.52075705 0 62750.18644471 0 33172.13154042 0 12380.29854947 0 144
0.01250000 0.01249090 67290.61468310 0 6696.76349681 0 46159.19348996 0 49903.41085063 0 33770.70142012 0 169
0.01350000 0.01339930 64430.52245919 0 -1304.28664666 0 32064.45616557 0 31386.38699367 0 39468.51977179 0 180
0.01450000 0.01448870 61732.63979388 0 -3754.23781463 0 8038.64068624 0 33961.36685350 0 18000.49990417 0 267
0.01550000 0.01550050 69098.61460273 0 -2149.92438236 0 3763.44998888 0 8197.07458207 0 20094.71942037 0 238
0.01650000 0.01653350 62819.72064458 0 583.66874496 0 -9839.17785894 0 396.09802636 0 10405.59370737 0 315
0.01750000 0.01747870 62215.94677221 0 3649.19466908 0 -8252.92338845 0 -18035.48845060 0 10820.14154858 0 297
0.01850000 0.01844180 65128.74326226 0 -4426.66010087 0 1313.00056629 0 -10242.38763954 0 13203.19372999 0 388
0.01950000 0.01947590 71706.92216026 0 -6586.68244347 0 696.86222881 0 -3573.32709942 0 6740.44381822 0 399
0.02050000 0.02045430 77450.80138318 0 1018.58523490 0 14575.82983776 0 -10705.13331069 0 1178.30573488 0 462
0.02150000 0.02154770 75496.09315970 0 8908.37180074 0 23449.96601016 0 -13252.46557544 0 9103.70975519 0 571
0.02250000 0.02255340 69618.90314596 0 5580.21918978 0 37803.13139582 0 678.31719197 0 24863.23755001 0 510
0.02350000 0.02348930 68563.15697450 0 3637.35835385 0 37855.72493871 0 8914.11833732 0 19899.40361057 0 555
0.02450000 0.02439640 69148.21861792 0 -2645.72094309 0 35231.47323344 0 19306.81278627 0 14483.37592553 0 592
0.02550000 0.02547300 70252.79374183 0 -5246.06749907 0 30809.62959387 0 11882.04393263 0 -2183.69497306 0 837
0.02650000 0.02652900 72733.54811745 0 -2097.81802176 0 29043.48306205 0 3196.40301795 0 3000.38965168 0 723
0.02750000 0.02749970 70467.70756656 0 1739.50651831 0 19330.06466839 0 954.74774616 0 -127.58086272 0 826
0.02850000 0.02848090 69066.28341426 0 3046.36194433 0 19148.03564837 0 -2290.31038874 0 118.60231453 0 831
0.02950000 0.02946900 68420.98832383 0 840.76037662 0 17585.50916997 0 -1533.19588996 0 -10647.18076258 0 996
0.03050000 0.03053250 66674.21836044 0 3870.59687615 0 20260.58284615 0 2664.36673809 0 -10713.53720522 0 1041
0.03150000 0.03150510 65052.23349776 0 2358.36089707 0 24872.42757961 0 -1175.83660644 0 -4118.20727607 0 1036
0.03250000 0.03246190 60578.68210128 0 3500.85873348 0 21080.82066872 0 -2402.88271517 0 -3111.57793751 0 1059
0.03350000 0.03345080 61649.26518800 0 2712.25454293 0 26592.62396344 0 -708.39405511 0 1640.82995952 0 1302
0.03450000 0.03451200 60453.01121459 0 1909.45563195 0 30719.27942335 0 3319.94801827 0 1714.88166791 0 1339
0.03550000 0.03553350 57120.57361392 0 1926.14162545 0 29306.67222299 0 -2378.44609429 0 5523.80569483 0 1365
0.03650000 0.03647120 57568.33842959 0 4035.67416687 0 34814.60020402 0 2192.58604989 0 837.11647452 0 1308
0.03750000 0.03744890 54098.16110818 0 2777.70305493 0 31932.58477698 0 3895.81963209 0 7531.70536674 0 1579
0.03850000 0.03847530 49526.84108355 0 3376.58295972 0 25130.08057814 0 11278.15933702 0 1141.56776113 0 1662
0.03950000 0.03950240 50318.18013834 0 -2015.51743139 0 22419.68618579 0 5192.57709788 0 4973.38935577 0 1683
0.04050000 0.04050350 47616.42215934 0 -692.33254073 0 18287.60528672 0 9685.75972626 0 2404.45498529 0 1822
0.04150000 0.04152450 48240.12621637 0 2629.56642118 0 14975.76221021 0 3588.76192022 0 369.34507514 0 1887
0.04250000 0.04250150 43925.68412754 0 3214.51734135 0 9923.59326336 0 3844.07865821 0 6586.80423904 0 1920
0.04350000 0.04349210 42137.28222283 0 704.93173914 0 8917.26287757 0 3642.63985279 0 6559.72133253 0 2005
0.04450000 0.04448520 42854.43670134 0 -312.42114601 0 8712.92312304 0 4649.67886737 0 3437.28144438 0 2151
0.04550000 0.04548030 40595.46099184 0 780.01538820 0 6048.72246983 0 600.95928739 0 3896.97115387 0 2274
0.04650000 0.04648670 40162.97598442 0 2375.86624261 0 6240.03009804 0 -1802.87343325 0 2002.82854715 0 2311
0.04750000 0.04749250 38529.03301093 0 1740.54731684 0 7453.14722215 0 -4808.54458387 0 2546.18074297 0 2568
0.04850000 0.04851840 36881.13890817 0 1221.15563192 0 8348.69899813 0 -2689.70021727 0 -446.45828134 0 2493
0.04950000 0.04949480 37422.24342206 0 164.74512098 0 9491.63972754 0 -2029.82287505 0 -3107.43688803 0 2644
0.05050000 0.05050630 37547.02852277 0 -1155.37495018 0 8665.55571747 0 -1441.01878585 0 -2990.38027005 0 2829
0.05150000 0.05149060 38195.42386415 0 -171.98088525 0 8579.51268130 0 -2377.44958506 0 -7627.86850779 0 2784
0.05250000 0.05249300 37937.43869587 0 1969.86623616 0 11381.35340433 0 -2739.65854685 0 -8549.44024709 0 3055
0.05350000 0.05348950 36227.98246712 0 2645.05660360 0 11930.20854560 0 -3262.11726574 0 -8375.29472235 0 3009
0.05450000 0.05448610 33886.18576798 0 2509.64207107 0 13489.96694280 0 -1158.64128600 0 -4758.24301221 0 3336
0.05550000 0.05550870 33848.20769385 0 56.34683956 0 14016.89888092 0 1992.43163414 0 -3723.29066677 0 3349
0.05650000 0.05647670 32173.40784178 0 181.71124430 0 13510.67219021 0 3823.07445803 0 -3913.80108760 0 3324
0.05750000 0.05747970 33463.66585290 0 3.53335601 0 13830.88382396 0 2304.00685454 0 -5475.31998444 0 3639
0.05850000 0.05849280 32919.90398105 0 699.70892352 0 11862.66736420 0 1193.51910918 0 -354.72074852 0 3846
0.05950000 0.05951020 32585.07687854 0 288.40527348 0 11786.93266244 0 1116.22320962 0 -1868.43266850 0 3787
0.06050000 0.06049470 31806.36027404 0 123.92035214 0 11639.56001911 0 2208.24231718 0 1148.43260251 0 3930
0.06150000 0.06148310 32123.69310335 0 763.65824274 0 10083.85409279 0 2137.14691952 0 -187.61390066 0 4083
0.06250000 0.06249100 31000.95936674 0 94.72683907 0 8764.70838622 0 1746.36028737 0 -1071.65710222 0 4303
0.06350000 0.06350600 31430.56556970 0 284.99167574 0 8039.44896595 0 1672.39715758 0 -1094.54581209 0 4470
0.06450000 0.06451750 30702.33876638 0 -107.23314068 0 6264.78781634 0 609.38200488 0 -1962.48099551 0 4479
0.06550000 0.06550280 30875.73137304 0 463.54620023 0 6337.96481107 0 -903.46738099 0 -1512.60136580 0 4636
0.06650000 0.06648880 29798.28344493 0 939.57976839 0 5926.96011380 0 -185.01744049 0 -1065.82309428 0 4653
0.06750000 0.06749660 29583.81251320 0 541.61937699 0 6200.97800841 0 54.53518577 0 -2726.53784194 0 5220
0.06850000 0.06852730 28622.62399569 0 223.74953994 0 6202.29561506 0 170.26467490 0 -2472.64943385 0 5029
0.06950000 0.06949320 28680.42153124 0 689.49581111 0 7104.15861619 0 1478.05571237 0 -2429.26806521 0 5040
0.07050000 0.07048030 28031.69402012 0 42.81003668 0 6762.24522579 0 715.29764963 0 -1740.37015964 0 5475
0.07150000 0.07148790 28721.05696333 0 -593.58401183 0 6968.73301133 0 -972.34720646 0 -1594.73587130 0 5509
0.07250000 0.07249820 28158.91503228 0 1028.18383329 0 7764.29062188 0 -532.96414068 0 -2199.74984405 0 5916
0.07350000 0.07351270 27900.04407802 0 629.73072343 0 6721.18904536 0 -30.69547392 0 40.77915086 0 5721
0.07450000 0.07449140 27501.55110780 0 288.14950278 0 7931.94776428 0 49.35256269 0 -1511.02909568 0 6028
0.07550000 0.07549160 26956.01766399 0 805.49502207 0 7030.48336685 0 1348.99669428 0 -1418.96271481 0 6183
0.07650000 0.07648840 26690.61403808 0 471.26250340 0 6655.10941085 0 395.43036518 0 -1522.93184486 0 6330
0.07750000 0.07749960 25777.70085679 0 457.85723974 0 6355.85768797 0 112.41288495 0 -1684.10060492 0 6583
0.07850000 0.07848650 26015.64511714 0 439.04757434 0 8173.15836046 0 -325.95374141 0 -606.33379386 0 6549
0.07950000 0.07947320 25404.00989416 0 364.69137702 0 8641.46233866 0 -1220.52450941 0 -1546.31659487 0 6828
0.08050000 0.08048110 25325.50711119 0 814.69280230 0 9193.56167109 0 -477.03339909 0 706.09322601 0 7147
0.08150000 0.08149960 24712.98610223 0 1081.75838415 0 9969.15587999 0 496.49633166 0 1138.74431830 0 7386
0.08250000 0.08250610 24371.95849781 0 534.81321893 0 10523.86828108 0 952.81451825 0 2342.19530284 0 7227
0.08350000 0.08350160 23397.48319052 0 194.05467200 0 8621.15569494 0 1354.39998879 0 2371.11621526 0 7798
0.08450000 0.08449610 23381.42831954 0 23.45793808 0 7947.32722346 0 1424.56531117 0 1290.68983178 0 7371
0.08550000 0.08548940 23581.06233602 0 -304.25419923 0 7360.13969367 0 1260.28522783 0 1730.98082820 0 8256
0.08650000 0.08650700 23281.55594967 0 287.11534764 0 7174.20214299 0 397.97146372 0 2456.19595917 0 8037
0.08750000 0.08749060 22923.69841153 0 909.16077042 0 6271.07689684 0 -212.48234220 0 1917.52735674 0 8155
0.08850000 0.08849210 22296.56193380 0 846.16588559 0 7033.79399197 0 328.19920888 0 2541.19819680 0 8718
0.08950000 0.08949900 21412.32607379 0 389.35830225 0 7390.82110575 0 -469.45771445 0 1762.69196648 0 8571
0.09050000 0.09049190 21807.16517682 0 67.30146556 0 8082.46494787 0 438.85491588 0 2532.73894064 0 8932
0.09150000 0.09150830 21470.12360934 0 -84.74513825 0 8260.85117302 0 92.31417950 0 1293.17003254 0 9285
0.09250000 0.09250820 21502.45479781 0 471.65003476 0 8103.40271410 0 395.88654496 0 937.21471981 0 9204
0.09350000 0.09350330 20923.70437954 0 579.48119171 0 7592.45921302 0 -472.93553168 0 1277.86807964 0 9349
0.09450000 0.09448040 20544.69870100 0 304.67273310 0 7205.94649825 0 1339.59629051 0 1299.80235511 0 9564
0.09550000 0.09549270 20173.55437308 0 795.97835889 0 6728.65179229 0 39.92503172 0 233.50093640 0 10155
0.09650000 0.09649430 19499.36051487 0 580.54302766 0 6692.07990342 0 642.19483948 0 124.97111576 0 9913
0.09750000 0.09749140 18877.76019955 0 625.38372871 0 6168.19285462 0 142.70676566 0 -434.54667430 0 10476
0.09850000 0.09850240 18259.70302817 0 491.90796025 0 5733.62625014 0 62.53815142 0 448.63067147 0 10575
0.09950000 0.09950330 18128.16380933 0 -46.43334425 0 6479.35839900 0 -17.42197093 0 -195.68451822 0 10882
0.10050000 0.10051200 17979.01959402 0 94.12107218 0 5729.90594900 0 170.77510907 0 -774.59327073 0 10875
0.10150000 0.10150300 17878.26143817 0 373.87476322 0 6439.34301710 0 426.05973732 0 676.07947512 0 11118
0.10250000 0.10250800 17580.74807029 0 246.04477319 0 5710.66224847 0 616.65320059 0 902.00915582 0 11575
0.10350000 0.10349800 17479.43629820 0 176.41867303 0 5926.96011380 0 1169.14892225 0 1587.30634135 0 11364
0.10450000 0.10450100 17348.22924910 0 465.45728349 0 6554.57270149 0 425.18723813 0 1242.55843580 0 12093
0.10550000 0.10551000 16793.94866868 0 813.55567454 0 6729.12790226 0 -458.88585871 0 2018.26336794 0 12067
0.10650000 0.10649700 16304.44118845 0 536.45967363 0 6888.30364385 0 -33.69662757 0 2725.69634526 0 12054
0.10750000 0.10749900 16150.31442697 0 86.20435994 0 6869.69106583 0 -324.12348611 0 3007.09948052 0 12807
0.10850000 0.10850100 16014.78917119 0 -93.26783883 0 7013.64236080 0 345.53182615 0 1916.43119659 0 12736
0.10950000 0.10950300 16278.64267162 0 93.21004130 0 7157.38328159 0 78.16806658 0 1507.38630081 0 12933
0.11050000 0.11050200 15660.36405375 0 402.40150088 0 6466.33734501 0 467.33404255 0 1291.70848567 0 13428
0.11150000 0.11150900 15924.77117042 0 253.99248794 0 6469.22722179 0 115.57624815 0 1084.91510396 0 13453
0.11250000 0.11250000 15431.27765325 0 -42.66487850 0 5906.08878151 0 472.70301286 0 1086.66785298 0 13668
0.11350000 0.11349100 15502.69414833 0 201.95920469 0 6211.25312584 0 475.40133841 0 1289.62688860 0 13791
0.11450000 0.11448600 15233.52593199 0 237.40503813 0 6211.67387418 0 40.19132114 0 1689.89143080 0 14205
0.11550000 0.11549300 15188.90446297 0 223.54248746 0 6041.70261589 0 825.53039383 0 1620.18007374 0 14776
0.11650000 0.11649800 14759.29826001 0 -80.90193431 0 5417.03526660 0 791.15082527 0 1613.66954674 0 14553
0.11750000 0.11747300 14835.58657801 0 292.48874687 0 5542.96081676 0 226.71360129 0 1267.17221387 0 14568
0.11850000 0.11849100 14671.71617069 0 311.38145471 0 5050.24236233 0 -132.49476048 0 562.04338735 0 16015
0.11950000 0.11950300 14219.63314835 0 227.57945709 0 4728.85706215 0 47.50414879 0 989.71082624 0 15270
0.12050000 0.12050700 14130.50093356 0 78.63443291 0 4662.03558187 0 -147.67159611 0 -93.08835645 0 15999
0.12150000 0.12150000 14106.25254220 0 34.42485437 0 4231.24464015 0 771.89383794 0 356.25205104 0 15670
0.12250000 0.12250700 13829.66586823 0 90.26923183 0 4084.46990235 0 787.28215498 0 -270.52679060 0 16887
0.12350000 0.12352200 13702.22340957 0 186.09699216 0 3500.33833422 0 981.93251805 0 376.41143284 0 16407
0.12450000 0.12449800 13830.99454721 0 27.40167874 0 3177.46934251 0 718.63041940 0 591.20567646 0 16306
0.12550000 0.12549900 13768.76808173 0 159.21338750 0 3230.40612746 0 -0.11163450 0 959.28075594 0 17523
0.12650000 0.12650100 13628.48172628 0 188.12101313 0 3928.85944935 0 -344.61725212 0 973.41568580 0 17154
0.12750000 0.12750600 13441.35943684 0 483.31915789 0 4081.50251930 0 -786.71193025 0 1754.09984242 0 18007
0.12850000 0.12850300 13162.44757466 0 335.63206053 0 4381.82825768 0 -510.02117642 0 1892.70320450 0 17496
0.12950000 0.12949900 13169.31241605 0 110.21248184 0 4677.61434289 0 112.97093012 0 956.44624079 0 18405
0.13050000 0.13049000 13010.09238516 0 74.53069716 0 4474.50361641 0 -8.94641631 0 1089.14805374 0 18100
0.13150000 0.13148800 13006.77068771 0 175.17192926 0 4545.62115872 0 23.07040672 0 108.35842105 0 19059
0.13250000 0.13249300 12835.59254602 0 227.92380639 0 4531.60359550 0 -235.09092225 0 644.98727980 0 18957
0.13350000 0.13349100 12620.67872129 0 270.88553392 0 4230.42528811 0 351.64817838 0 364.45000034 0 19468
0.13450000 0.13450700 12396.79631345 0 158.61548196 0 4357.08161171 0 213.07028265 0 564.85022169 0 19953
0.13550000 0.13551000 12176.34632631 0 291.48227255 0 4138.99002976 0 463.13652421 0 255.92017970 0 19956
0.13650000 0.13649900 12036.17069411 0 228.33458964 0 4244.93003362 0 553.31618093 0 435.60518855 0 19723
0.13750000 0.13749600 11721.05232977 0 187.63383084 0 3850.61132986 0 187.51203527 0 815.25306193 0 20946
0.13850000 0.13851100 11529.27966391 0 104.81162324 0 4055.40504970 0 343.50559071 0 1076.09931894 0 20955
0.13950000 0.13949800 11610.99342107 0 -68.14196574 0 3865.17143699 0 135.84192427 0 767.46047908 0 20506
0.14050000 0.14048300 11611.32559082 0 102.72205410 0 3925.10593124 0 163.42640709 0 667.44638346 0 21447
0.14150000 0.14148400 11686.94956933 0 181.42890001 0 3463.02459958 0 -227.56727753 0 908.84963809 0 21771
0.14250000 0.14249400 11228.88749158 0 133.23992794 0 3513.65834097 0 -73.98715673 0 781.52565330 0 22470
0.14350000 0.14350900 11263.76531476 0 92.15340934 0 3145.59211935 0 406.51154786 0 538.93987439 0 22519
0.14450000 0.14449900 11194.34183815 0 -79.02495380 0 3363.32938691 0 617.15809860 0 205.78137122 0 22218
0.14550000 0.14550500 11108.64204405 0 178.54566663 0 2974.11502489 0 372.05558025 0 134.83766441 0 23559
0.14650000 0.14650700 10818.77965262 0 198.54339249 0 2889.19029353 0 226.34489287 0 310.43144924 0 23044
0.14750000 0.14750500 10717.05820452 0 151.12173252 0 2659.72743399 0 74.44676894 0 246.62385578 0 23649
0.14850000 0.14849900 10570.90351691 0 234.71114151 0 2814.66247517 0 -22.23378185 0 546.68053667 0 23640
0.14950000 0.14949500 10407.79710001 0 335.38957662 0 2872.65931257 0 -230.64095490 0 183.29458675 0 24457
0.15050000 0.15050000 10143.13531987 0 334.93893300 0 3095.13553515 0 -66.22324257 0 522.36903306 0 24591
0.15150000 0.15149900 9894.37339816 0 248.18173188 0 3117.36876339 0 -3.91277136 0 611.78802106 0 25020
0.15250000 0.15250500 9871.59762601 0 118.42958626 0 3085.43617861 0 283.98187972 0 376.22320332 0 25297
0.15350000 0.15350100 9803.04886306 0 -58.16890133 0 3131.03201222 0 4.51187271 0 226.01161590 0 25452
0.15450000 0.15450400 9686.37977645 0 156.50066792 0 2945.61486080 0 -12.94897315 0 185.37396935 0 26061
0.15550000 0.15549900 9617.47669910 0 247.71115808 0 3082.35807231 0 50.34431082 0 272.03927017 0 26128
0.15650000 0.15649500 9587.83608556 0 187.41902774 0 2926.20507540 0 -90.75818569 0 61.52403719 0 26331
0.15750000 0.15749700 9342.16334248 0 67.62743480 0 2939.60258843 0 -64.88570573 0 231.31747395 0 27345
0.15850000 0.15849900 9393.36177245 0 83.06225560 0 2668.06489457 0 179.51449505 0 -181.94265588 0 26980
0.15950000 0.15949700 9305.89040638 0 54.76560085 0 3096.67458830 0 -33.97476437 0 -2.41883794 0 27777
0.16050000 0.16050000 9197.43698478 0 153.08264125 0 2901.00446411 0 120.07161203 0 -104.35876516 0 28224
0.16150000 0.16150500 9123.58457824 0 161.97703977 0 2747.99600744 0 106.46394628 0 134.97163954 0 28075
0.16250000 0.16249700 8972.74629724 0 138.00102761 0 2853.02808067 0 252.55530018 0 414.77039494 0 28590
0.16350000 0.16349900 8940.92443571 0 36.47821701 0 2732.67190989 0 243.45606365 0 491.10300224 0 29163
0.16450000 0.16449100 8821.95230553 0 -46.38540109 0 2655.58638450 0 449.31272668 0 658.52984029 0 28996
0.16550000 0.16550500 8990.97134389 0 -78.58925782 0 2415.21728502 0 166.12030372 0 545.37843127 0 30777
0.16650000 0.16650700 8974.91647290 0 107.15297705 0 2473.33591799 0 37.85317830 0 787.43052413 0 29211
0.16750000 0.16749900 8917.75005986 0 155.95148061 0 2603.90077225 0 49.91060786 0 493.28203576 0 30922
0.16850000 0.16850800 8659.26663697 0 212.54877615 0 2222.69170107 0 -143.53829725 0 612.24087915 0 30867
0.16950000 0.16949900 8605.52157230 0 229.52707903 0 2381.22524782 0 143.44861142 0 531.50370104 0 30852
0.17050000 0.17049200 8427.10213017 0 -4.77544940 0 2097.82909409 0 -32.07774296 0 644.38605256 0 31257
0.17150000 0.17149500 8392.08036677 0 99.58426797 0 2141.29904133 0 348.74390758 0 505.83915934 0 32608
0.17250000 0.17250900 8453.71999904 0 -50.86736745 0 2174.36100324 0 165.89996446 0 368.82024694 0 32361
0.17350000 0.17350400 8314.95055208 0 45.52397422 0 2149.21575357 0 53.49925906 0 128.08133180 0 32508
0.17450000 0.17449800 8443.67740043 0 221.07668072 0 2228.89220297 0 -291.94288126 0 176.20608440 0 32791
0.17550000 0.17549800 8194.87118943 0 226.63830948 0 2421.59494411 0 -188.30481373 0 377.58509927 0 33633
0.17650000 0.17650100 8162.10818029 0 35.78121416 0 2325.29893516 0 59.27635526 0 488.86085646 0 33984
0.17750000 0.17750300 8086.77208222 0 9.59291828 0 2572.44429744 0 251.86992328 0 373.73968086 0 34069
0.17850000 0.17849800 8145.03465542 0 -23.34544326 0 2262.61850437 0 338.34256565 0 411.24718118 0 34536
