### header ###
fiducial parameters:
Omega_m = 0.31
Omega_nu = 0
Omega_de = 0.69
Omega_k = 0
H_0 = 100
w_de = -1
zeff = 0
beta = 0
fgrowth = 0
b_1 = 2
gamma = 0.55
Lx = 3500 Ly = 3500 Lz = 3500
nx = 700 ny = 700 nz = 700
xoffset = -685.467585 yoffset = -31.7331281 zoffset = 572.489161
bins = 400 dk = 0.001
kx_ny = 0.628318531 ky_ny = 0.628318531 kz_ny = 0.628318531
############################
A(data) = 8.07093666 (not used)
A(ran) = 8.0691938 (used)
Ngal = 480011
weighted Ngal = 0
Nran = 23820508
weighted Nran = 0
SN(data) = 3490.03454
SN(ran) = 70.2856044
SN(data+ran) = 3560.32014
############################
13 columns: k_central k_mean P_0(k) sigma^{lin}_{P_0(k)} P^img_1(k) sigma^{lin}_{P_1(k)} P_2(k) sigma^{lin}_{P_2(k)} P^img_3(k) sigma^{lin}_{P_3(k)} P_4(k) sigma^{lin}_{P_4(k)} N_modes
### header ###
0.00050000 0 0 0 0 0 0 0 0 0 0 0 0
0.00150000 0.00179520 49303.51229196 0 -57400.70343183 0 -26625.39804490 0 -15000.45349456 0 23370.79888771 0 3
0.00250000 0.00253879 71939.10881171 0 -37107.45722747 0 473.50575640 0 -90862.81915926 0 -7244.46711629 0 6
0.00350000 0.00331552 94823.83263988 0 -14370.21676588 0 -15564.58844407 0 27533.43940328 0 -23418.18843793 0 7
0.00450000 0.00420575 103438.87641152 0 -5144.20211074 0 20536.72662713 0 -45556.85901982 0 27497.12217787 0 24
0.00550000 0.00557378 108127.67380248 0 9236.38942349 0 40996.05770378 0 -8439.08238563 0 -9905.71145878 0 45
0.00650000 0.00659388 102538.47495727 0 10080.69848021 0 68396.62920923 0 -22277.96042811 0 20974.52635046 0 40
0.00750000 0.00754703 93120.13402003 0 11692.37500849 0 37164.47970028 0 17096.11241298 0 -45365.19707721 0 57
0.00850000 0.00846663 100047.64476607 0 -12364.24367849 0 68669.45129276 0 -2185.00150739 0 22257.25518070 0 75
0.00950000 0.00948925 90251.95899901 0 22704.24493363 0 43186.82789239 0 38929.07610663 0 -31408.19947356 0 112
0.01050000 0.01054430 82641.72870466 0 7410.61842252 0 32124.24671959 0 20130.59375278 0 32645.75321854 0 105
0.01150000 0.01145670 73710.23788970 0 1606.36181236 0 13339.82621826 0 36898.96535113 0 27388.28122491 0 144
0.01250000 0.01249090 75742.78455666 0 -7345.41350166 0 3712.89375376 0 27280.10461143 0 9368.83657297 0 169
0.01350000 0.01339930 85036.56183969 0 -1696.22480059 0 2818.33848701 0 20438.40438274 0 255.64337158 0 180
0.01450000 0.01448870 77318.37637835 0 3268.35098462 0 -3124.61006382 0 -12539.74002686 0 29738.71433741 0 267
0.01550000 0.01550050 74913.24598125 0 7199.73492403 0 4651.04076332 0 -12383.06663068 0 40893.63869920 0 238
0.01650000 0.01653350 70052.49538586 0 3276.04625037 0 19522.39095049 0 1109.40265753 0 32026.25664494 0 315
0.01750000 0.01747870 74505.45225817 0 -2283.11337760 0 38559.70335068 0 -1324.70401363 0 13949.68986927 0 297
0.01850000 0.01844180 72045.95674621 0 3513.24866496 0 16994.80064089 0 1041.85704721 0 13028.58316760 0 388
0.01950000 0.01947590 68227.33336275 0 4140.14155154 0 35494.77311763 0 -6803.81073316 0 11059.30376466 0 399
0.02050000 0.02045430 69528.11008245 0 5771.51574567 0 32342.26079527 0 -684.90743970 0 23424.61038633 0 462
0.02150000 0.02154770 63164.84500917 0 1056.30421663 0 31064.29306470 0 7532.94546712 0 10558.28106662 0 571
0.02250000 0.02255340 68104.98417351 0 -2815.94686485 0 33049.56090468 0 10205.84896764 0 11021.32569053 0 510
0.02350000 0.02348930 68526.28613286 0 -1890.02370189 0 30164.77739643 0 12026.53777152 0 11133.33332840 0 555
0.02450000 0.02439640 68219.13984239 0 -771.55281034 0 31095.07412769 0 6721.79802323 0 15915.13824783 0 592
0.02550000 0.02547300 69193.61514968 0 540.91185544 0 28295.43679730 0 8677.03771830 0 19047.94183201 0 837
0.02650000 0.02652900 70254.34386730 0 1642.12542153 0 28190.24971152 0 10144.41970954 0 31564.20853026 0 723
0.02750000 0.02749970 68744.18948529 0 384.54073372 0 28188.36741630 0 5388.66797041 0 23588.48079364 0 826
0.02850000 0.02848090 71642.37050657 0 -854.24868271 0 25378.10065408 0 6031.56036636 0 30765.89391084 0 831
0.02950000 0.02946900 65913.77109190 0 1239.94536714 0 18393.67815848 0 3990.12262257 0 16864.03648478 0 996
0.03050000 0.03053250 67422.70751818 0 2142.33983986 0 17554.17449073 0 3123.18173392 0 10630.31761189 0 1041
0.03150000 0.03150510 63462.13693055 0 4026.53949890 0 18658.19599840 0 -4545.32220595 0 5356.52501147 0 1036
0.03250000 0.03246190 60350.37076352 0 3766.67203541 0 13521.41234528 0 -8129.58876230 0 -5080.22621794 0 1059
0.03350000 0.03345080 55125.67285135 0 4645.99178320 0 17185.13390452 0 -7486.58564310 0 346.28695870 0 1302
0.03450000 0.03451200 55351.76972414 0 2061.42329009 0 21239.15491362 0 -2620.71963365 0 -10841.38933990 0 1339
0.03550000 0.03553350 54311.30336093 0 -145.48149026 0 22801.12777579 0 -72.02370137 0 -8196.86420789 0 1365
0.03650000 0.03647120 54015.67228828 0 -388.91208756 0 24064.59076085 0 2876.36854139 0 -9944.15457055 0 1308
0.03750000 0.03744890 54811.21882650 0 -800.58666048 0 24917.71338812 0 3447.14688579 0 -3529.54712709 0 1579
0.03850000 0.03847530 55476.66554810 0 1187.90544049 0 24019.63712208 0 3954.92370197 0 -7969.22828195 0 1662
0.03950000 0.03950240 52471.74731556 0 3023.71904007 0 22907.08992430 0 -113.71941928 0 -1406.76101286 0 1683
0.04050000 0.04050350 51090.91768743 0 5237.89612336 0 25159.53296216 0 -981.28589429 0 775.59531613 0 1822
0.04150000 0.04152450 45297.54517257 0 4754.58914502 0 27303.91010979 0 3404.81738801 0 6013.75606805 0 1887
0.04250000 0.04250150 44097.41588548 0 2237.61719493 0 25862.84703464 0 4824.02369396 0 6899.08808822 0 1920
0.04350000 0.04349210 41290.36009745 0 -612.42689421 0 22919.26948161 0 7009.73383014 0 2692.18041803 0 2005
0.04450000 0.04448520 42291.85187730 0 -1630.32232327 0 17613.18998201 0 5231.52953659 0 591.87555211 0 2151
0.04550000 0.04548030 42927.51404514 0 -951.41054746 0 15912.92378286 0 4690.24786550 0 2246.60792268 0 2274
0.04650000 0.04648670 42437.23150217 0 -1324.09503576 0 12794.62494419 0 2371.03870899 0 1588.53536941 0 2311
0.04750000 0.04749250 43338.62946566 0 -661.20048503 0 10025.91261701 0 2116.78491418 0 1478.12214631 0 2568
0.04850000 0.04851840 43633.26402908 0 -212.17453157 0 10794.44268267 0 3050.85730820 0 -3433.19575652 0 2493
0.04950000 0.04949480 41105.12010324 0 2445.03505575 0 10880.09818747 0 1762.10513326 0 2154.23151672 0 2644
0.05050000 0.05050630 38897.40925765 0 4028.39964947 0 8443.33415836 0 1040.64019871 0 2424.01978325 0 2829
0.05150000 0.05149060 37755.96329209 0 1827.50935597 0 10302.37749541 0 817.21839959 0 2773.80559659 0 2784
0.05250000 0.05249300 37133.92008378 0 31.59864346 0 11774.31021215 0 -958.73046140 0 4498.26482547 0 3055
0.05350000 0.05348950 36039.08860572 0 1216.90385919 0 12419.05168634 0 -1837.45230365 0 2725.91779175 0 3009
0.05450000 0.05448610 35103.80932828 0 1619.21678148 0 14266.80125207 0 -2582.78584882 0 2478.80564645 0 3336
0.05550000 0.05550870 35411.50923499 0 1029.89340024 0 14520.57893692 0 -1571.97117148 0 2126.66142792 0 3349
0.05650000 0.05647670 34358.19897500 0 138.29222975 0 15294.97733473 0 -753.98878148 0 -34.64198266 0 3324
0.05750000 0.05747970 34170.63379257 0 273.36130575 0 13865.42947740 0 -184.75502639 0 -1727.33803333 0 3639
0.05850000 0.05849280 34248.25078955 0 531.47048406 0 14662.74758759 0 2043.70757038 0 -729.13473396 0 3846
0.05950000 0.05951020 34598.68987006 0 199.05271943 0 12510.73053584 0 2746.04727827 0 -1371.03062067 0 3787
0.06050000 0.06049470 34078.29060358 0 -169.69445017 0 12394.47112524 0 2335.62941422 0 -455.51101411 0 3930
0.06150000 0.06148310 33807.46153852 0 452.21367578 0 11729.79946638 0 1985.23462301 0 -3133.74473180 0 4083
0.06250000 0.06249100 32866.42465218 0 1662.18847410 0 12806.02943875 0 -424.48746720 0 -1447.86148259 0 4303
0.06350000 0.06350600 31745.57321079 0 1242.83524392 0 11903.74568928 0 -450.56500661 0 -2690.63029256 0 4470
0.06450000 0.06451750 30553.85889056 0 414.12598563 0 12549.37294945 0 -1715.83388785 0 -1223.66904966 0 4479
0.06550000 0.06550280 30428.96306660 0 449.76115583 0 11574.89764216 0 -621.61803104 0 -2582.23223258 0 4636
0.06650000 0.06648880 30959.88104166 0 -307.41977689 0 12102.82608952 0 2107.27378716 0 -2665.60683847 0 4653
0.06750000 0.06749660 30717.61857463 0 348.99192766 0 11121.37521759 0 1276.37331579 0 -3482.85513333 0 5220
0.06850000 0.06852730 29980.20174170 0 859.51246593 0 10564.01653087 0 1955.00717625 0 -2699.41064614 0 5029
0.06950000 0.06949320 28887.80617510 0 981.60034831 0 9639.25596202 0 597.43496640 0 -521.32602006 0 5040
0.07050000 0.07048030 28165.66915042 0 242.70757449 0 9389.34251854 0 1813.46964810 0 -2553.83171942 0 5475
0.07150000 0.07148790 27841.80364948 0 536.13414728 0 9368.60405415 0 1660.42797445 0 -2096.13502839 0 5509
0.07250000 0.07249820 26590.74166822 0 372.32795944 0 8418.68716331 0 902.58823840 0 -1633.65509304 0 5916
0.07350000 0.07351270 26926.12238698 0 497.80175875 0 7763.73700564 0 551.25894298 0 -3086.48804947 0 5721
0.07450000 0.07449140 26169.77187862 0 -80.76784845 0 5622.12793922 0 337.36487936 0 -943.18823905 0 6028
0.07550000 0.07549160 27106.04766528 0 201.28157841 0 6104.47162529 0 695.86682681 0 -3467.50889113 0 6183
0.07650000 0.07648840 26035.24313207 0 829.99254073 0 5432.71367854 0 -1755.42852140 0 -2643.92722647 0 6330
0.07750000 0.07749960 26193.02376073 0 528.12885643 0 5895.69186851 0 -496.71445646 0 -2485.28295647 0 6583
0.07850000 0.07848650 25297.60485265 0 270.01082026 0 6182.95226360 0 434.36398094 0 -2057.37081920 0 6549
0.07950000 0.07947320 25983.97826816 0 164.03759942 0 6818.66979307 0 628.59359567 0 -2259.03107112 0 6828
0.08050000 0.08048110 25417.85030018 0 -17.31888759 0 6487.54084704 0 1151.74322764 0 -1192.50045529 0 7147
0.08150000 0.08149960 25351.63779777 0 538.04744500 0 7169.26388612 0 524.08192171 0 -1084.17215096 0 7386
0.08250000 0.08250610 24872.53830286 0 657.65291216 0 6310.04040787 0 154.08911557 0 -62.21284652 0 7227
0.08350000 0.08350160 24195.24419371 0 447.70613234 0 6803.46749109 0 -28.56737309 0 154.09575897 0 7798
0.08450000 0.08449610 23323.40933749 0 780.70740850 0 6484.65097026 0 -112.51364311 0 -1118.44874691 0 7371
0.08550000 0.08548940 23127.65063469 0 748.51683855 0 6898.01407272 0 832.28561920 0 -209.01670453 0 8256
0.08650000 0.08650700 21904.04801898 0 760.49598677 0 6360.12053303 0 -15.65261343 0 -806.80266363 0 8037
0.08750000 0.08749060 21463.25876795 0 605.54765880 0 6874.17535738 0 683.32852618 0 -1176.99920055 0 8155
0.08850000 0.08849210 20957.69641673 0 476.63811710 0 6563.85130969 0 -57.57564616 0 -129.13984606 0 8718
0.08950000 0.08949900 20743.00403850 0 354.34871840 0 6354.81688944 0 656.79591422 0 -525.13600703 0 8571
0.09050000 0.09049190 20466.97098077 0 -153.74587350 0 6691.19411743 0 -100.39841602 0 -300.24048148 0 8932
0.09150000 0.09150830 20893.14476304 0 300.30359373 0 6873.40029465 0 143.15076588 0 -212.35722493 0 9285
0.09250000 0.09250820 20354.25471412 0 463.11659403 0 7706.47094168 0 352.26712134 0 1362.95889588 0 9204
0.09350000 0.09350330 20467.85676676 0 -28.87606951 0 7094.80250172 0 208.92480424 0 698.83088816 0 9349
0.09450000 0.09448040 20128.37928782 0 475.82319399 0 7744.20542466 0 892.29540525 0 1423.69059751 0 9564
0.09550000 0.09549270 19575.98100261 0 892.03963455 0 7209.92146286 0 415.44359229 0 1661.90059365 0 10155
0.09650000 0.09649430 18955.15575003 0 498.26679640 0 6755.13679326 0 925.11266878 0 2755.29266950 0 9913
0.09750000 0.09749140 18530.31064674 0 311.76234269 0 7538.04980886 0 466.69516941 0 2404.33318972 0 10476
0.09850000 0.09850240 18257.26711671 0 415.06934771 0 6876.51161792 0 231.34183306 0 2738.56238670 0 10575
0.09950000 0.09950330 17740.18954768 0 425.85600655 0 7266.72248918 0 116.56611399 0 2241.25998979 0 10882
0.10050000 0.10051200 17631.68076446 0 378.66354371 0 6963.34078915 0 267.78749744 0 2688.06151320 0 10875
0.10150000 0.10150300 17180.81569785 0 554.03145311 0 7344.99275332 0 -376.23316841 0 1124.18421116 0 11118
0.10250000 0.10250800 16698.39450550 0 496.59708981 0 6717.20300843 0 -5.96979894 0 982.85816441 0 11575
0.10350000 0.10349800 16599.85081461 0 59.11968186 0 6948.75853736 0 2.93528438 0 1214.46794773 0 11364
0.10450000 0.10450100 16479.16247409 0 -8.24854982 0 6185.99715293 0 237.47147208 0 348.50253090 0 12093
0.10550000 0.10551000 16713.00997426 0 -120.39049499 0 6300.97217385 0 651.79454510 0 473.94754216 0 12067
0.10650000 0.10649700 16289.16138020 0 440.79367996 0 5597.56952277 0 423.25733191 0 -91.05237736 0 12054
0.10750000 0.10749900 16100.15679555 0 378.79530437 0 5809.44953050 0 282.16601845 0 195.56050818 0 12807
0.10850000 0.10850100 15538.67920399 0 386.84820621 0 5227.38848711 0 974.87723268 0 604.32638137 0 12736
0.10950000 0.10950300 15448.10758698 0 428.80899558 0 5355.86067198 0 351.62492650 0 784.54064735 0 12933
0.11050000 0.11050200 15250.02369597 0 -8.96213901 0 5180.56362545 0 399.68988854 0 1733.51639058 0 13428
0.11150000 0.11150900 15010.75075664 0 -143.04668603 0 5099.23739965 0 297.37274935 0 1780.89486848 0 13453
0.11250000 0.11250000 15165.98475060 0 25.56079401 0 4887.29095798 0 855.97596538 0 2243.99485402 0 13668
0.11350000 0.11349100 15221.89999093 0 26.76025896 0 4777.27633858 0 423.46881332 0 1579.48928003 0 13791
0.11450000 0.11448600 15120.80966534 0 360.52818288 0 4759.52740189 0 -77.04931889 0 2267.66748448 0 14205
0.11550000 0.11549300 14805.58057775 0 429.57520045 0 5329.48639426 0 -428.70823742 0 2110.13044696 0 14776
0.11650000 0.11649800 14489.79787392 0 274.05332605 0 5184.27285426 0 -401.01524582 0 1973.90763472 0 14553
0.11750000 0.11747300 14495.11258983 0 185.67292212 0 5575.03734176 0 -112.57896983 0 1231.39753238 0 14568
0.11850000 0.11849100 14418.49210209 0 102.71219973 0 5540.21488021 0 -780.60554311 0 341.84142029 0 16015
0.11950000 0.11950300 14277.09851416 0 354.61334697 0 6062.57394818 0 -171.61882022 0 133.97291584 0 15270
0.12050000 0.12050700 14193.50246177 0 169.60697880 0 5351.06635533 0 -407.30321908 0 -372.42318144 0 15999
0.12150000 0.12150000 13851.69979462 0 62.03901102 0 5518.60170216 0 237.42939725 0 -774.28213841 0 15670
0.12250000 0.12250700 13976.37417208 0 -121.16666496 0 5265.53264611 0 270.55114971 0 -1621.37588482 0 16887
0.12350000 0.12352200 14048.45500665 0 100.00922380 0 4991.78048729 0 738.31258400 0 -1836.44472210 0 16407
0.12450000 0.12449800 13668.56354212 0 360.73855706 0 4818.15536181 0 166.53773036 0 -1333.99369415 0 16306
0.12550000 0.12549900 13709.42042070 0 113.41935928 0 4643.79946289 0 494.61403644 0 -1309.43527770 0 17523
0.12650000 0.12650100 13407.36739965 0 130.07102857 0 4766.96800417 0 367.06971239 0 -244.27763015 0 17154
0.12750000 0.12750600 13382.45466881 0 117.36553585 0 4527.55112462 0 851.95892594 0 -672.57951325 0 18007
0.12850000 0.12850300 13225.55982613 0 -48.54749395 0 4494.09055902 0 331.15773407 0 647.03233819 0 17496
0.12950000 0.12949900 13340.82272749 0 231.19678561 0 4507.60986762 0 750.73573245 0 -100.58487397 0 18405
0.13050000 0.13049000 13030.90835582 0 323.92750596 0 4405.71126231 0 -44.51683555 0 669.51026481 0 18100
0.13150000 0.13148800 12879.21750580 0 125.03090632 0 4200.89539782 0 230.43168796 0 696.08052268 0 19059
0.13250000 0.13249300 12542.50810807 0 73.66406630 0 4131.26154703 0 155.20963484 0 1131.92376621 0 18957
0.13350000 0.13349100 12651.23833779 0 89.51742097 0 4062.31418039 0 157.49274822 0 226.45007996 0 19468
0.13450000 0.13450700 12450.49708882 0 158.60440963 0 4068.07178929 0 178.36186604 0 268.57031080 0 19953
0.13550000 0.13551000 12356.05015812 0 234.91044335 0 3682.56665608 0 106.47368992 0 180.33938325 0 19956
0.13650000 0.13649900 12048.90386765 0 311.76566438 0 3002.84770779 0 347.62892447 0 -279.58505953 0 19723
0.13750000 0.13749600 11974.16567513 0 100.11086774 0 3308.53245138 0 -169.63798131 0 -49.73278633 0 20946
0.13850000 0.13851100 11744.08276539 0 161.65483512 0 3052.86139900 0 -70.14218122 0 -280.74765364 0 20955
0.13950000 0.13949800 11771.20996120 0 198.16914791 0 3136.82283810 0 -9.53599546 0 -427.01970789 0 20506
0.14050000 0.14048300 11551.86720654 0 20.68409927 0 3088.21533214 0 52.00903486 0 18.62132516 0 21447
0.14150000 0.14148400 11671.33759134 0 19.54785730 0 3183.03872189 0 262.08414292 0 394.33974118 0 21771
0.14250000 0.14249400 11642.77099330 0 -20.89137319 0 3412.09190541 0 494.58635563 0 251.21554888 0 22470
0.14350000 0.14350900 11610.66125133 0 244.84674764 0 3357.54963336 0 365.24056433 0 357.21091437 0 22519
0.14450000 0.14449900 11495.17690347 0 262.12511052 0 3348.73606280 0 -294.73864328 0 429.53312562 0 22218
0.14550000 0.14550500 10975.60806136 0 553.75575223 0 3519.33844361 0 -200.17988209 0 789.94394186 0 23559
0.14650000 0.14650700 10739.38001135 0 357.67927371 0 3714.47709621 0 -424.75873916 0 834.09262261 0 23044
0.14750000 0.14750500 10521.63167147 0 124.40199827 0 3657.54320199 0 15.35587512 0 887.17777672 0 23649
0.14850000 0.14849900 10427.76050165 0 19.92918816 0 3465.58230661 0 338.36803199 0 440.22124077 0 23640
0.14950000 0.14949500 10469.29279205 0 136.80743099 0 3518.77375504 0 231.52674089 0 209.05102874 0 24457
0.15050000 0.15050000 10316.37291398 0 127.38488257 0 3218.22657016 0 -299.07013675 0 101.53155774 0 24591
0.15150000 0.15149900 10174.33713120 0 194.43666721 0 3627.86937148 0 -191.59993759 0 86.03639277 0 25020
0.15250000 0.15250500 10069.89189119 0 231.27982804 0 3598.78237418 0 -75.27852198 0 228.33791134 0 25297
0.15350000 0.15350100 9901.53719232 0 148.15988563 0 3624.20443196 0 367.77723394 0 5.13088210 0 25452
0.15450000 0.15450400 9686.04760670 0 26.67865593 0 3293.02012431 0 399.64781370 0 192.43700535 0 26061
0.15550000 0.15549900 9720.06178855 0 35.87477531 0 3027.07395449 0 779.23368206 0 -8.43341336 0 26128
0.15650000 0.15649500 9517.51575064 0 81.53637852 0 2867.59926013 0 478.47280132 0 -197.38744177 0 26331
0.15750000 0.15749700 9397.13743521 0 189.08319816 0 2559.93257040 0 73.05453481 0 -47.18803391 0 27345
0.15850000 0.15849900 9220.95460269 0 230.91665579 0 2267.51247194 0 148.80318770 0 -79.68054616 0 26980
0.15950000 0.15949700 9085.30755134 0 70.62836700 0 2308.19219332 0 -99.78146608 0 266.07571602 0 27777
0.16050000 0.16050000 9091.46376394 0 124.57915546 0 2404.54356389 0 153.17897047 0 -174.46108601 0 28224
0.16150000 0.16150500 8847.31900169 0 171.21025144 0 2365.05965359 0 185.59430861 0 303.25215383 0 28075
0.16250000 0.16249700 8851.79222092 0 291.54870650 0 2363.90813181 0 172.24883551 0 129.64031514 0 28590
0.16350000 0.16349900 8533.73969050 0 143.82064153 0 2248.55665185 0 160.91188212 0 586.58187361 0 29163
0.16450000 0.16449100 8542.99615405 0 24.54756557 0 2287.43158428 0 194.80648286 0 496.57715963 0 28996
0.16550000 0.16550500 8538.20183740 0 -59.52736486 0 2212.94805523 0 148.90948202 0 591.82129772 0 30777
0.16650000 0.16650700 8666.17576766 0 -61.99516462 0 2359.89995022 0 -9.69602377 0 640.84512309 0 29211
0.16750000 0.16749900 8667.00619202 0 81.30972803 0 2262.72922761 0 -299.80312465 0 418.49512501 0 30922
0.16850000 0.16850800 8596.97373754 0 269.68640114 0 2603.57967483 0 -402.17341099 0 738.70011537 0 30867
0.16950000 0.16949900 8368.35237468 0 249.94223153 0 2612.18287122 0 -172.27540909 0 604.54782787 0 30852
0.17050000 0.17049200 8313.32292034 0 128.50761631 0 2888.84705146 0 -50.54870594 0 699.67238485 0 31257
0.17150000 0.17149500 8196.03378353 0 0.45145190 0 2716.00806104 0 128.21087801 0 420.78045285 0 32608
0.17250000 0.17250900 8250.05565632 0 -8.38091946 0 2770.12958475 0 451.65895230 0 231.10267085 0 32361
0.17350000 0.17350400 8246.54572935 0 59.71083328 0 2501.71428650 0 224.93649316 0 223.07523535 0 32508
0.17450000 0.17449800 8204.98022199 0 -39.37008680 0 2396.89258744 0 149.42877406 0 52.93124880 0 32791
0.17550000 0.17549800 8232.25135801 0 -7.84406672 0 2270.41342104 0 102.47702355 0 129.62149219 0 33633
0.17650000 0.17650100 8129.38946045 0 189.61024082 0 2117.80356806 0 -15.28113693 0 34.89387805 0 33984
0.17750000 0.17750300 8128.85798886 0 146.29309167 0 2059.95067089 0 -70.39573746 0 -112.79266570 0 34069
0.17850000 0.17849800 7836.98043431 0 121.51655042 0 2218.51743461 0 127.14572036 0 -3.65993482 0 34536
