### header ###
fiducial parameters:
Omega_m = 0.31
Omega_nu = 0
Omega_de = 0.69
Omega_k = 0
H_0 = 100
w_de = -1
zeff = 0
beta = 0
fgrowth = 0
b_1 = 2
gamma = 0.55
Lx = 3500 Ly = 3500 Lz = 3500
nx = 700 ny = 700 nz = 700
xoffset = -685.467585 yoffset = -31.7331281 zoffset = 572.489161
bins = 400 dk = 0.001
kx_ny = 0.628318531 ky_ny = 0.628318531 kz_ny = 0.628318531
############################
A(data) = 8.00938168 (not used)
A(ran) = 8.00305862 (used)
Ngal = 475504
weighted Ngal = 0
Nran = 23820508
weighted Nran = 0
SN(data) = 3498.13043
SN(ran) = 69.709543
SN(data+ran) = 3567.83997
############################
13 columns: k_central k_mean P_0(k) sigma^{lin}_{P_0(k)} P^img_1(k) sigma^{lin}_{P_1(k)} P_2(k) sigma^{lin}_{P_2(k)} P^img_3(k) sigma^{lin}_{P_3(k)} P_4(k) sigma^{lin}_{P_4(k)} N_modes
### header ###
0.00050000 0 0 0 0 0 0 0 0 0 0 0 0
0.00150000 0.00179520 18069.59121104 0 -20178.42619600 0 15935.28987900 0 10268.16401172 0 -55623.48457519 0 3
0.00250000 0.00253879 33659.86744868 0 -24449.79694129 0 17175.27953544 0 1099.16407877 0 44148.45930289 0 6
0.00350000 0.00331552 42494.25397499 0 -12269.02168505 0 7690.24998582 0 47300.08583927 0 5183.37599595 0 7
0.00450000 0.00420575 57370.47598508 0 1396.66305262 0 29125.41826570 0 3224.21669789 0 10232.77686160 0 24
0.00550000 0.00557378 61647.27216953 0 -3052.65102483 0 37159.27570762 0 13976.59561858 0 19844.92777246 0 45
0.00650000 0.00659388 69611.59541158 0 8173.88913389 0 44148.68074939 0 51655.93842293 0 52445.94879874 0 40
0.00750000 0.00754703 63279.88646404 0 -575.08437152 0 49323.44247663 0 43873.20130790 0 -1394.69217881 0 57
0.00850000 0.00846663 78521.82736289 0 4007.05220722 0 47145.18401506 0 65428.02820210 0 30918.47054684 0 75
0.00950000 0.00948925 79106.88900631 0 -778.22831497 0 42572.75675795 0 7988.23946366 0 2228.88113064 0 112
0.01050000 0.01054430 70198.65007347 0 5512.65586373 0 36771.41216922 0 3245.20982575 0 14252.18578331 0 105
0.01150000 0.01145670 77864.57416166 0 9869.99213891 0 46578.05953785 0 -5206.43964855 0 10116.36243845 0 144
0.01250000 0.01249090 63212.78817564 0 4471.56945034 0 38226.09420389 0 9155.74968184 0 20877.75423154 0 169
0.01350000 0.01339930 73939.10284370 0 -6218.90410229 0 34555.39708002 0 33786.09195162 0 581.50189099 0 180
0.01450000 0.01448870 73197.47852735 0 -6065.74063307 0 24501.94759118 0 22533.62040817 0 -19326.30007795 0 267
0.01550000 0.01550050 79102.12790664 0 -1060.19946050 0 8830.19011520 0 4148.46793980 0 -14553.24229513 0 238
0.01650000 0.01653350 72614.85279539 0 4266.01174008 0 21766.08685174 0 -1065.52081981 0 2407.89847831 0 315
0.01750000 0.01747870 78696.32720203 0 4386.56721270 0 34063.23224183 0 -9173.60934177 0 12133.60715251 0 297
0.01850000 0.01844180 74575.54007428 0 3460.79906229 0 32623.38712241 0 -13.11018620 0 7322.82595903 0 388
0.01950000 0.01947590 75972.64601989 0 -2632.50058726 0 31411.29972451 0 9420.32288338 0 -8645.90234091 0 399
0.02050000 0.02045430 75323.58633902 0 1032.94271849 0 43557.86149707 0 -9573.61922049 0 -1317.62879807 0 462
0.02150000 0.02154770 77781.19955577 0 6993.81182705 0 42315.87882216 0 -5522.52130515 0 -21470.23433259 0 571
0.02250000 0.02255340 65997.81003727 0 6704.91272788 0 43810.75339592 0 -322.68740558 0 -3883.35219434 0 510
0.02350000 0.02348930 65767.72712754 0 3576.73737547 0 37103.80336028 0 -1403.70505121 0 -28213.50159364 0 555
0.02450000 0.02439640 63903.81196757 0 -48.55413735 0 35275.87325597 0 6406.76823749 0 -17240.05263563 0 592
0.02550000 0.02547300 65044.59359363 0 279.87626167 0 36886.89651708 0 5855.58790802 0 -27464.23737316 0 837
0.02650000 0.02652900 63981.53968780 0 938.08168284 0 30852.81166066 0 1297.72075804 0 -13325.65364249 0 723
0.02750000 0.02749970 63797.62837256 0 2920.99001041 0 35491.45142019 0 2468.13192532 0 -13839.07734433 0 826
0.02850000 0.02848090 62516.78183754 0 3934.48419036 0 32964.08255708 0 3142.24827726 0 -9025.82702242 0 831
0.02950000 0.02946900 57743.05971523 0 2510.32855521 0 35226.04779428 0 11000.75331102 0 3190.24680535 0 996
0.03050000 0.03053250 59207.15322600 0 -1262.55505442 0 34312.13810375 0 12744.02441977 0 2527.14741661 0 1041
0.03150000 0.03150510 59260.96472461 0 -631.87321829 0 31177.89511734 0 14511.27818407 0 4403.36392945 0 1036
0.03250000 0.03246190 59964.27879709 0 -317.77461506 0 25442.87375427 0 4703.21355787 0 -3591.69608630 0 1059
0.03350000 0.03345080 56991.80247628 0 3580.49089358 0 18054.53284928 0 3528.88278760 0 972.13793952 0 1302
0.03450000 0.03451200 55361.95626298 0 447.05840134 0 17891.54822795 0 -351.21857218 0 -2333.66961273 0 1339
0.03550000 0.03553350 51278.03997687 0 1538.35559333 0 15026.47345788 0 -727.01216929 0 612.15562225 0 1365
0.03650000 0.03647120 53952.56003681 0 2465.80673711 0 21407.34352762 0 -133.80350927 0 -7373.01680744 0 1308
0.03750000 0.03744890 50435.32533492 0 792.76738469 0 15252.57033068 0 688.09184032 0 -3064.44305076 0 1579
0.03850000 0.03847530 50984.51264592 0 -93.18025674 0 16710.57406280 0 3939.46673653 0 -276.69296829 0 1662
0.03950000 0.03950240 50041.81491086 0 542.27818032 0 15436.26019942 0 2200.63563003 0 -4829.89202612 0 1683
0.04050000 0.04050350 51904.06922211 0 1200.87113286 0 19796.87388275 0 -7.54031964 0 684.12019741 0 1822
0.04150000 0.04152450 47527.40066780 0 3745.47960570 0 19204.17233520 0 -3337.44229149 0 -2408.93927684 0 1887
0.04250000 0.04250150 45777.86262320 0 4301.58711972 0 19671.97805879 0 2771.10394934 0 4398.17100911 0 1920
0.04350000 0.04349210 43433.74073585 0 78.99970890 0 16536.51711665 0 2175.86683941 0 1138.71110132 0 2005
0.04450000 0.04448520 43493.42056662 0 -131.13175729 0 15746.17457109 0 3615.71195883 0 -574.95261086 0 2151
0.04550000 0.04548030 42940.35794193 0 964.76044949 0 15312.69305444 0 2975.64300571 0 -1206.11941482 0 2274
0.04650000 0.04648670 39940.09008582 0 1023.42273361 0 12654.67075848 0 835.82654868 0 -1220.36949686 0 2311
0.04750000 0.04749250 39841.10350194 0 2023.83274733 0 12568.86024113 0 391.79421371 0 583.23803152 0 2568
0.04850000 0.04851840 38114.70661622 0 1989.35352784 0 10359.27817265 0 409.61844220 0 -1205.49936463 0 2493
0.04950000 0.04949480 36783.48100327 0 906.77579165 0 13190.46055645 0 2559.03571209 0 1298.67297798 0 2644
0.05050000 0.05050630 36135.97144788 0 -5.78104902 0 10710.07156755 0 1814.45508501 0 -664.43692558 0 2829
0.05150000 0.05149060 35057.19484080 0 498.66982902 0 10087.50795998 0 1864.23625739 0 2447.83635393 0 2784
0.05250000 0.05249300 35256.60741078 0 751.46650588 0 9817.47610230 0 871.34767393 0 1933.69295098 0 3055
0.05350000 0.05348950 36381.22344261 0 -85.28391758 0 10205.64966579 0 -1332.08925428 0 2278.07546981 0 3009
0.05450000 0.05448610 34670.32781163 0 490.08545559 0 10273.94376527 0 -575.48961861 0 3073.05731947 0 3336
0.05550000 0.05550870 36453.41500043 0 -327.80724858 0 13288.22918460 0 327.61348290 0 4052.06120761 0 3349
0.05650000 0.05647670 36043.51753564 0 -927.81320881 0 11325.99178024 0 1539.51818743 0 4842.44804246 0 3324
0.05750000 0.05747970 37360.68129607 0 218.45696867 0 14123.52536892 0 920.60512535 0 4717.15361481 0 3639
0.05850000 0.05849280 36669.54678089 0 453.90995594 0 13787.14814093 0 1070.30184966 0 4128.52668280 0 3846
0.05950000 0.05951020 36231.41488782 0 1119.71099194 0 14028.63554522 0 1606.70505443 0 4618.79815345 0 3787
0.06050000 0.06049470 34740.19418124 0 723.23318483 0 12604.29168055 0 1880.78938299 0 5233.30110856 0 3930
0.06150000 0.06148310 34580.53125736 0 1281.93162285 0 14047.79066716 0 2646.48493350 0 6895.88818635 0 4083
0.06250000 0.06249100 32978.03368635 0 1032.66480314 0 11513.11406968 0 1219.43942158 0 5064.06062371 0 4303
0.06350000 0.06350600 32353.22239684 0 1375.79172034 0 13294.76185625 0 217.63872387 0 5282.77225585 0 4470
0.06450000 0.06451750 31642.26842023 0 729.68945743 0 11401.28358901 0 -762.87985831 0 6735.30625951 0 4479
0.06550000 0.06550280 31728.30038407 0 -242.12295574 0 12401.77885962 0 1179.32438876 0 6519.83881854 0 4636
0.06650000 0.06648880 32399.17254483 0 -620.81085856 0 13664.79895168 0 281.36438213 0 7187.18998001 0 4653
0.06750000 0.06749660 31797.39169094 0 810.70233643 0 13505.57892079 0 1765.61506023 0 6422.14769666 0 5220
0.06850000 0.06852730 31960.04414253 0 966.73021608 0 12691.32015363 0 491.51267826 0 6065.25345078 0 5029
0.06950000 0.06949320 31017.90002371 0 640.69896840 0 13898.42500536 0 840.90653130 0 9526.57291234 0 5040
0.07050000 0.07048030 30569.47086855 0 215.17291713 0 12645.92362187 0 1050.52224861 0 6932.30506268 0 5475
0.07150000 0.07148790 29894.50194761 0 692.64810198 0 11964.20058279 0 106.16410772 0 6870.67650274 0 5509
0.07250000 0.07249820 29340.88570668 0 1139.89584008 0 11702.67227057 0 227.68796587 0 3321.75280722 0 5916
0.07350000 0.07351270 28156.58984407 0 1270.61570689 0 11740.53962145 0 -1603.89268393 0 3815.06916719 0 5721
0.07450000 0.07449140 27478.63139543 0 253.48758993 0 11922.45791822 0 -228.70772699 0 3276.43378174 0 6028
0.07550000 0.07549160 27032.74887498 0 -228.06331768 0 11461.84920577 0 161.09568272 0 -388.35847132 0 6183
0.07650000 0.07648840 27842.80015871 0 -97.09985973 0 11576.11559789 0 1254.94836727 0 -1044.06486877 0 6330
0.07750000 0.07749960 27100.40077962 0 493.49573163 0 11119.93581537 0 1668.36683135 0 -1958.74962204 0 6583
0.07850000 0.07848650 25817.22905639 0 1483.32613898 0 9698.26038098 0 997.83901989 0 -280.99567371 0 6549
0.07950000 0.07947320 25238.36791487 0 698.99918750 0 8587.77263562 0 2132.33045822 0 -553.02608602 0 6828
0.08050000 0.08048110 24327.00485905 0 -106.35687689 0 8087.58036193 0 2121.88925592 0 370.39805323 0 7147
0.08150000 0.08149960 24559.85584998 0 179.79019594 0 8030.66861237 0 699.21509783 0 -410.94490671 0 7386
0.08250000 0.08250610 23842.70137148 0 1114.92774761 0 8712.73489352 0 -476.89056610 0 1466.62907315 0 7227
0.08350000 0.08350160 23331.27068811 0 1086.62799261 0 8224.36786274 0 -1487.73292426 0 1225.37418768 0 7798
0.08450000 0.08449610 22474.38347039 0 702.15147837 0 9833.27630982 0 -943.10851831 0 908.73780761 0 7371
0.08550000 0.08548940 22803.01007101 0 253.55291665 0 11092.14428007 0 -1108.45043759 0 257.20235491 0 8256
0.08650000 0.08650700 22113.64712780 0 308.81821152 0 9812.43819451 0 -126.40719629 0 -99.10151461 0 8037
0.08750000 0.08749060 22152.17881817 0 463.67463920 0 9811.60777015 0 767.96316263 0 -875.99583589 0 8155
0.08850000 0.08849210 21747.70679254 0 -46.02012509 0 9274.74395666 0 580.80987069 0 -1246.82128085 0 8718
0.08950000 0.08949900 21391.84227287 0 774.93983450 0 9131.56772443 0 1092.20733709 0 -1813.45857577 0 8571
0.09050000 0.09049190 20705.91175036 0 323.87325157 0 8123.83115339 0 595.00348387 0 -2603.32501136 0 8932
0.09150000 0.09150830 20273.53746619 0 333.19282737 0 8395.09203912 0 639.44225953 0 -1963.62144496 0 9285
0.09250000 0.09250820 19724.12870869 0 648.41194987 0 7650.46712274 0 376.95619122 0 -947.09344801 0 9204
0.09350000 0.09350330 19604.76904714 0 279.79432647 0 7739.16751687 0 887.72585680 0 -491.43738645 0 9349
0.09450000 0.09448040 18947.62656916 0 386.39424089 0 7231.93324460 0 980.07236748 0 17.40458738 0 9564
0.09550000 0.09549270 18572.82837405 0 956.59018101 0 6997.03387357 0 1126.94122004 0 206.24640886 0 10155
0.09650000 0.09649430 17920.44699573 0 53.43769693 0 6072.78263166 0 1721.74650930 0 961.54393913 0 9913
0.09750000 0.09749140 17963.73978577 0 -375.23776641 0 5446.69802479 0 1452.16861694 0 252.20430749 0 10476
0.09850000 0.09850240 18138.79324115 0 -285.48328696 0 4285.73155058 0 492.04082815 0 -489.56837802 0 10575
0.09950000 0.09950330 18325.14046785 0 210.33874011 0 4970.31124947 0 -191.59440143 0 -522.72777639 0 10882
0.10050000 0.10051200 17936.28042022 0 576.06205780 0 4498.23160850 0 -1198.98883764 0 -580.78883327 0 10875
0.10150000 0.10150300 17621.16205588 0 431.56600446 0 5395.02348486 0 -534.66484977 0 -107.01844830 0 11118
0.10250000 0.10250800 17116.37476740 0 764.05352474 0 5288.10911641 0 -766.37539125 0 -828.28518824 0 11575
0.10350000 0.10349800 16535.63133066 0 595.64900041 0 5350.26914794 0 -128.86857410 0 -399.70538979 0 11364
0.10450000 0.10450100 16131.71292128 0 244.37285214 0 5777.93769406 0 721.22466511 0 -298.35929349 0 12093
0.10550000 0.10551000 15959.20610060 0 241.15412732 0 5257.73772943 0 811.80846168 0 -380.99094638 0 12067
0.10650000 0.10649700 16143.89247858 0 -55.00830621 0 5071.26870716 0 548.31481181 0 -1155.54103505 0 12054
0.10750000 0.10749900 15642.31616429 0 445.04877439 0 4954.11243826 0 -387.21248570 0 -615.36216752 0 12807
0.10850000 0.10850100 15503.02631808 0 622.44291924 0 5172.44761136 0 -535.16753332 0 -1176.96598357 0 12736
0.10950000 0.10950300 15133.21066913 0 78.12898128 0 5475.50821397 0 -459.00986875 0 -623.84024663 0 12933
0.11050000 0.11050200 15133.87500862 0 -249.05201661 0 5095.92677453 0 303.77587479 0 -1262.71006697 0 13428
0.11150000 0.11150900 15718.82592879 0 -439.83924556 0 5022.68334586 0 754.06075159 0 -1361.37555343 0 13453
0.11250000 0.11250000 15762.11871883 0 -233.14108585 0 5049.02440660 0 514.17440546 0 -971.30862239 0 13668
0.11350000 0.11349100 16025.08643328 0 47.80454096 0 4690.27001015 0 484.02889391 0 -1523.31937622 0 13791
0.11450000 0.11448600 15671.98999481 0 500.78242860 0 4567.24540909 0 82.04880571 0 -402.22655815 0 14205
0.11550000 0.11549300 15546.76200111 0 420.83138554 0 4966.33628486 0 131.01660511 0 -917.12952259 0 14776
0.11650000 0.11649800 15088.25703037 0 200.97376778 0 4828.27546669 0 -552.07165162 0 -368.78481550 0 14553
0.11750000 0.11747300 14911.54272626 0 586.80221288 0 5106.17974732 0 -146.83120665 0 -724.07468152 0 14568
0.11850000 0.11849100 14313.19429306 0 468.60957437 0 4942.96260716 0 76.83850182 0 -556.92686605 0 16015
0.11950000 0.11950300 14242.22069098 0 136.69006435 0 4904.76308654 0 579.74028411 0 -444.04230006 0 15270
0.12050000 0.12050700 13988.88589913 0 -36.51929533 0 4196.73220369 0 476.54732403 0 -921.19970919 0 15999
0.12150000 0.12150000 14190.84510382 0 81.33674450 0 4329.98763288 0 993.47652391 0 -591.66185624 0 15670
0.12250000 0.12250700 13908.16865120 0 -22.84508491 0 3738.92478941 0 214.95700680 0 -263.75495674 0 16887
0.12350000 0.12352200 13816.37907845 0 276.60660415 0 3835.69690833 0 210.53250580 0 -414.18799065 0 16407
0.12450000 0.12449800 13871.07636306 0 462.13447882 0 4303.54692121 0 -201.06898978 0 461.86431409 0 16306
0.12550000 0.12549900 13312.58829920 0 252.77231775 0 4365.13119185 0 -237.91547231 0 460.57217378 0 17523
0.12650000 0.12650100 13383.34045479 0 96.02462627 0 4601.83535183 0 15.34225616 0 1508.93642629 0 17154
0.12750000 0.12750600 13292.65811453 0 -17.23639877 0 4779.25828472 0 583.46501418 0 894.84868336 0 18007
0.12850000 0.12850300 13197.32539784 0 -18.17356034 0 4867.48256888 0 755.70831352 0 1035.34098405 0 17496
0.12950000 0.12949900 13216.03762678 0 209.11635545 0 3936.64329370 0 513.84998635 0 876.51623515 0 18405
0.13050000 0.13049000 13004.99911574 0 299.18861062 0 3898.98631699 0 114.98830771 0 1261.61390681 0 18100
0.13150000 0.13148800 12618.02136333 0 265.91627454 0 3774.68839857 0 6.35073120 0 432.09083265 0 19059
0.13250000 0.13249300 12587.46174683 0 118.27457371 0 4042.58329756 0 -263.43718102 0 706.05668734 0 18957
0.13350000 0.13349100 12391.26015104 0 149.42988129 0 3763.41677191 0 -167.01051863 0 153.60525498 0 19468
0.13450000 0.13450700 12213.32789121 0 307.67776206 0 4072.98790151 0 -125.77385931 0 163.95898591 0 19953
0.13550000 0.13551000 11952.57464173 0 257.78586643 0 3948.98893587 0 -71.90832775 0 -158.89229008 0 19956
0.13650000 0.13649900 11820.26036015 0 301.50494097 0 4219.98408581 0 146.91757079 0 -305.79435961 0 19723
0.13750000 0.13749600 11508.35297000 0 279.95155348 0 3946.42015651 0 149.98792646 0 -168.00481340 0 20946
0.13850000 0.13851100 11333.85313086 0 64.57258039 0 3833.47137104 0 117.66670308 0 -389.51774373 0 20955
0.13950000 0.13949800 11309.16184652 0 16.52079442 0 3710.57963787 0 32.95101721 0 -512.05516249 0 20506
0.14050000 0.14048300 11293.66059177 0 80.61781845 0 3779.75952334 0 -31.14977141 0 -372.14305162 0 21447
0.14150000 0.14148400 11336.51048882 0 -12.13504655 0 3785.65000014 0 553.10359229 0 53.64641026 0 21771
0.14250000 0.14249400 11162.23209617 0 159.67731791 0 3524.42064070 0 401.82573999 0 -12.48526419 0 22470
0.14350000 0.14350900 11124.25402205 0 287.93691414 0 3788.84990202 0 17.32387013 0 238.23989143 0 22519
0.14450000 0.14449900 10978.71938463 0 320.05329951 0 3388.51892587 0 306.23946707 0 553.25306868 0 22218
0.14550000 0.14550500 10673.88721005 0 176.12082750 0 3602.40302440 0 156.95131154 0 716.48460285 0 23559
0.14650000 0.14650700 10512.15376142 0 158.32538705 0 3391.66346612 0 150.68437569 0 761.81359343 0 23044
0.14750000 0.14750500 10510.09430901 0 69.14135378 0 3490.45074815 0 -226.28842402 0 510.33341598 0 23649
0.14850000 0.14849900 10297.31744297 0 227.01476852 0 3453.29202606 0 61.72378193 0 894.39693250 0 23640
0.14950000 0.14949500 10181.06910469 0 248.91582702 0 3396.10346838 0 -199.33617094 0 592.31069448 0 24457
0.15050000 0.15050000 10034.96977871 0 -12.33888805 0 3617.72712195 0 -2.02387704 0 356.01621052 0 24591
0.15150000 0.15149900 10020.54253947 0 5.94875045 0 3676.24435861 0 305.21306256 0 422.65167574 0 25020
0.15250000 0.15250500 10088.30516736 0 125.36418329 0 3551.25995606 0 129.19410045 0 161.67808700 0 25297
0.15350000 0.15350100 9956.65522527 0 61.07970480 0 3231.93410829 0 137.01669793 0 285.68148158 0 25452
0.15450000 0.15450400 9834.36139765 0 126.66407423 0 3132.29425725 0 307.80841549 0 280.92923976 0 26061
0.15550000 0.15549900 9753.45592020 0 91.27847423 0 2846.87186807 0 139.74159707 0 -101.91587813 0 26128
0.15650000 0.15649500 9503.76392321 0 199.91082460 0 2861.83057890 0 75.30564917 0 -238.88319350 0 26331
0.15750000 0.15749700 9453.04160322 0 219.27964241 0 2766.20998177 0 105.07957350 0 -258.71483448 0 27345
0.15850000 0.15849900 9321.84562644 0 75.32901178 0 2627.20801599 0 -257.96745255 0 -399.49169392 0 26980
0.15950000 0.15949700 9102.10426809 0 329.78587303 0 2847.79087103 0 -21.30879984 0 -171.57785262 0 27777
0.16050000 0.16050000 9061.77886110 0 167.71361126 0 2924.73245620 0 89.06843820 0 64.27706004 0 28224
0.16150000 0.16150500 8893.28022201 0 -9.75400954 0 2639.12183750 0 390.52089635 0 -13.35864917 0 28075
0.16250000 0.16249700 8932.97450649 0 2.31950811 0 2723.61474819 0 292.50535536 0 10.03598843 0 28590
0.16350000 0.16349900 8864.95721513 0 121.60623625 0 2561.80379329 0 382.28308669 0 -104.16223139 0 29163
0.16450000 0.16449100 8803.89334375 0 148.35475855 0 2509.33204597 0 -29.48526882 0 -32.70067195 0 28996
0.16550000 0.16550500 8657.22932920 0 117.48622419 0 2385.76490100 0 106.30550131 0 242.79947479 0 30777
0.16650000 0.16650700 8576.64494917 0 67.02166791 0 2409.36002519 0 36.99164071 0 148.48319752 0 29211
0.16750000 0.16749900 8595.23538254 0 86.91221366 0 2326.69404809 0 337.10025080 0 540.54979041 0 30922
0.16850000 0.16850800 8635.63829581 0 -36.62636471 0 2082.58250281 0 507.97501080 0 659.97034975 0 30867
0.16950000 0.16949900 8536.06487871 0 99.70672788 0 2072.17451748 0 393.04206471 0 965.47350721 0 30852
0.17050000 0.17049200 8504.11014929 0 105.92837792 0 1968.18324279 0 271.47901053 0 1059.02247237 0 31257
0.17150000 0.17149500 8388.29363168 0 79.51468273 0 1964.51830327 0 137.44630414 0 1474.60114702 0 32608
0.17250000 0.17250900 8341.73450582 0 116.82299193 0 1927.53673838 0 74.17283962 0 1263.38547878 0 32361
0.17350000 0.17350400 8348.04573097 0 37.80025259 0 1982.68798830 0 -171.53134886 0 1260.56203595 0 32508
0.17450000 0.17449800 8299.44929734 0 81.74896715 0 2160.19949979 0 -167.92619990 0 773.96989885 0 32791
0.17550000 0.17549800 8143.76133806 0 163.29686089 0 2322.77444511 0 -500.74921162 0 793.28114056 0 33633
0.17650000 0.17650100 8130.12023389 0 225.25205441 0 2318.29015355 0 -422.00283751 0 555.24608715 0 33984
0.17750000 0.17750300 7902.77218839 0 228.83616596 0 2594.45607918 0 -159.36286388 0 381.81694181 0 34069
0.17850000 0.17849800 7832.75080623 0 55.65559432 0 2582.42046210 0 -92.52555018 0 460.99513659 0 34536
