### header ###
fiducial parameters:
Omega_m = 0.31
Omega_nu = 0
Omega_de = 0.69
Omega_k = 0
H_0 = 100
w_de = -1
zeff = 0
beta = 0
fgrowth = 0
b_1 = 2
gamma = 0.55
Lx = 3500 Ly = 3500 Lz = 3500
nx = 700 ny = 700 nz = 700
xoffset = -685.467585 yoffset = -31.7331281 zoffset = 572.489161
bins = 400 dk = 0.001
kx_ny = 0.628318531 ky_ny = 0.628318531 kz_ny = 0.628318531
############################
A(data) = 8.02435768 (not used)
A(ran) = 8.02377761 (used)
Ngal = 476580
weighted Ngal = 0
Nran = 23820508
weighted Nran = 0
SN(data) = 3484.0057
SN(ran) = 69.890013
SN(data+ran) = 3553.89572
############################
13 columns: k_central k_mean P_0(k) sigma^{lin}_{P_0(k)} P^img_1(k) sigma^{lin}_{P_1(k)} P_2(k) sigma^{lin}_{P_2(k)} P^img_3(k) sigma^{lin}_{P_3(k)} P_4(k) sigma^{lin}_{P_4(k)} N_modes
### header ###
0.00050000 0 0 0 0 0 0 0 0 0 0 0 0
0.00150000 0.00179520 64106.98912799 0 -57433.25606680 0 31424.47579105 0 99836.16336203 0 -84175.68858504 0 3
0.00250000 0.00253879 114227.63899156 0 -54940.87575012 0 14184.20170893 0 -49448.22757734 0 34869.40821187 0 6
0.00350000 0.00331552 106577.10543487 0 -7645.77245702 0 -7412.40106682 0 -55530.47704672 0 58661.95195193 0 7
0.00450000 0.00420575 94017.43522334 0 27084.01373889 0 -23970.03310689 0 -46430.02255502 0 47635.90945102 0 24
0.00550000 0.00557378 58341.62959492 0 18263.57834186 0 -25652.69430958 0 -26074.54988517 0 29517.04639454 0 45
0.00650000 0.00659388 53745.39683945 0 8336.53051316 0 -25290.18639502 0 -8850.06493824 0 29608.28235105 0 40
0.00750000 0.00754703 43153.94308768 0 -768.57103326 0 -22260.90904789 0 -1401.65667112 0 17201.52094526 0 57
0.00850000 0.00846663 49751.38783087 0 -1503.00166018 0 -11690.04982028 0 -10896.59595145 0 22783.96567232 0 75
0.00950000 0.00948925 45249.38055961 0 -866.74490850 0 -4867.54900282 0 -1957.68667886 0 3506.54990844 0 112
0.01050000 0.01054430 53730.33847770 0 -5040.48764417 0 8174.97422173 0 -14234.58078685 0 -12308.32843815 0 105
0.01150000 0.01145670 55489.95233788 0 -7790.31058520 0 23328.28116041 0 -21474.33109277 0 -16564.86226818 0 144
0.01250000 0.01249090 67579.04874462 0 -9672.96011877 0 34565.47289560 0 -9321.11485300 0 -23070.29599213 0 169
0.01350000 0.01339930 74505.23081168 0 -7802.47907018 0 39579.68591297 0 -35384.49276244 0 -32112.28860878 0 180
0.01450000 0.01448870 79601.60047920 0 8913.65329968 0 44565.00016257 0 -8356.57142108 0 -14117.32486702 0 267
0.01550000 0.01550050 76193.31745353 0 2804.75274446 0 47366.96268118 0 10840.24889045 0 -7868.78015119 0 238
0.01650000 0.01653350 72802.41797782 0 5618.14190228 0 25762.08887879 0 33480.60650987 0 12460.35145791 0 315
0.01750000 0.01747870 73984.38865221 0 1017.43703482 0 22237.21427278 0 19446.87769523 0 -7209.76645031 0 297
0.01850000 0.01844180 72129.66352184 0 -4537.71551880 0 19722.13569022 0 25445.86328197 0 1714.82630629 0 388
0.01950000 0.01947590 77398.42928679 0 4107.81036307 0 21365.82230955 0 5250.28605483 0 1510.06580342 0 399
0.02050000 0.02045430 69314.63565995 0 2495.70201412 0 19452.52458089 0 -18378.50907348 0 9786.96077510 0 462
0.02150000 0.02154770 71668.50119314 0 4717.29755504 0 31640.60757151 0 -3483.77413629 0 20648.77855429 0 571
0.02250000 0.02255340 65810.24485484 0 1889.28185613 0 27441.31766079 0 -2542.77046693 0 2157.49785254 0 510
0.02350000 0.02348930 68745.51816427 0 1461.30328492 0 35430.66435693 0 11543.78440942 0 5978.50178583 0 555
0.02450000 0.02439640 63881.11370169 0 2514.67997886 0 27722.77615768 0 10765.66571047 0 5269.34152584 0 592
0.02550000 0.02547300 62194.57718531 0 3235.86478360 0 23249.44620770 0 9748.20763823 0 -4607.38258656 0 837
0.02650000 0.02652900 58736.80086770 0 1671.13491255 0 16968.78067757 0 7590.63227942 0 -3222.33440267 0 723
0.02750000 0.02749970 56500.30197758 0 2421.62816109 0 13746.18053910 0 6446.94970426 0 -1634.28621556 0 826
0.02850000 0.02848090 54548.02966556 0 320.69881605 0 10239.78564321 0 -676.35406878 0 5841.68106804 0 831
0.02950000 0.02946900 53431.60715409 0 3248.47616157 0 11777.74263284 0 1470.26079569 0 958.22113446 0 996
0.03050000 0.03053250 51523.07052510 0 -232.10693071 0 15868.85593008 0 -836.55621488 0 778.73321298 0 1041
0.03150000 0.03150510 52347.73727760 0 1587.77137899 0 14171.80070513 0 -127.38598981 0 3136.32458348 0 1036
0.03250000 0.03246190 49338.72228488 0 2897.06271647 0 16428.78339616 0 -4975.74776095 0 -1386.02254847 0 1059
0.03350000 0.03345080 50274.33373206 0 1308.07338175 0 18251.06661482 0 -1309.47956700 0 6672.20508037 0 1302
0.03450000 0.03451200 51303.17415420 0 -1714.27269005 0 22477.59444459 0 -1433.40102637 0 6759.25569809 0 1339
0.03550000 0.03553350 52116.99002838 0 -757.95820993 0 21505.11215577 0 8441.18612734 0 8125.83524418 0 1365
0.03650000 0.03647120 52477.61564772 0 -978.41041153 0 18846.75769006 0 5536.29527722 0 -1228.33049841 0 1308
0.03750000 0.03744890 53470.13884446 0 1718.30301628 0 16487.46671770 0 7125.39533519 0 1904.59488135 0 1579
0.03850000 0.03847530 50885.74750854 0 1277.34768038 0 14779.78206092 0 -3235.77620500 0 6365.45739359 0 1662
0.03950000 0.03950240 49456.64254420 0 1966.99850403 0 15343.36339419 0 -1739.13005926 0 1030.29975456 0 1683
0.04050000 0.04050350 46113.90768145 0 2404.55463622 0 16527.32708705 0 -4911.01895006 0 2422.96791239 0 1822
0.04150000 0.04152450 45809.86164193 0 1600.54884183 0 16425.90459171 0 -768.53338736 0 -5832.33602590 0 1887
0.04250000 0.04250150 45020.51560561 0 1149.75020917 0 19513.53309064 0 -1050.04835311 0 -1604.54595109 0 1920
0.04350000 0.04349210 44172.15407800 0 804.02018840 0 16521.56947814 0 2186.26375242 0 -4313.21306078 0 2005
0.04450000 0.04448520 44184.00146556 0 25.34156198 0 18525.99244006 0 811.70106013 0 -2472.91516965 0 2151
0.04550000 0.04548030 44922.74697746 0 1882.47237637 0 16623.76703622 0 733.63895569 0 -282.01100590 0 2274
0.04650000 0.04648670 42151.34407535 0 2173.70773607 0 19951.11136747 0 669.36300289 0 3893.23978041 0 2311
0.04750000 0.04749250 41058.61633900 0 2252.91914782 0 17655.70770932 0 3489.78640867 0 2476.23686709 0 2568
0.04850000 0.04851840 39000.27115521 0 961.44539544 0 17148.26306288 0 4219.23116772 0 -690.57204108 0 2493
0.04950000 0.04949480 37785.08350637 0 235.41312690 0 15204.40571772 0 3147.29725738 0 260.62923944 0 2644
0.05050000 0.05050630 37585.67093638 0 1295.92704142 0 13572.01286970 0 1453.96233356 0 -971.74487199 0 2829
0.05150000 0.05149060 35954.82821385 0 1054.44960222 0 13177.28448992 0 -325.54185092 0 179.86659498 0 2784
0.05250000 0.05249300 36254.33460019 0 1059.94590426 0 13796.55961703 0 -283.75600429 0 -771.35461572 0 3055
0.05350000 0.05348950 35954.05315111 0 603.12503413 0 13815.38256922 0 2540.22383222 0 915.01581578 0 3009
0.05450000 0.05448610 34275.37798535 0 1244.73968379 0 12913.76315924 0 964.71837466 0 -662.80707936 0 3336
0.05550000 0.05550870 34336.60794160 0 -12.00073925 0 15227.43615334 0 1406.14096267 0 2416.21379425 0 3349
0.05650000 0.05647670 35311.85831163 0 -597.87010877 0 15322.32597704 0 700.15845991 0 1333.31828234 0 3324
0.05750000 0.05747970 35556.33524362 0 -938.36070543 0 14956.60708828 0 -1285.40833285 0 1920.71618629 0 3639
0.05850000 0.05849280 35792.50793200 0 126.60428367 0 16899.02503121 0 -1198.43522140 0 2191.14664766 0 3846
0.05950000 0.05951020 35895.81272256 0 543.18721819 0 16578.14905797 0 193.02051687 0 1613.56989582 0 3787
0.06050000 0.06049470 36045.73200061 0 231.28425697 0 17331.51003863 0 982.14732116 0 90.07790205 0 3930
0.06150000 0.06148310 35834.69348956 0 58.14310281 0 15264.86061123 0 2232.86716758 0 -1472.14309091 0 4083
0.06250000 0.06249100 35232.46974268 0 368.57333410 0 14711.13364705 0 1979.60988200 0 -547.46002833 0 4303
0.06350000 0.06350600 34469.91873242 0 938.65522927 0 11442.47263733 0 2848.17840240 0 -159.81129304 0 4470
0.06450000 0.06451750 33502.41898976 0 873.23107638 0 10040.67202599 0 2632.64452748 0 -387.02979234 0 4479
0.06550000 0.06550280 31842.23460646 0 1080.08867757 0 8788.75747572 0 1178.92578507 0 -1172.23810087 0 4636
0.06650000 0.06648880 31827.72986094 0 1162.04048972 0 8920.60671966 0 1140.80377071 0 -1271.75615634 0 4653
0.06750000 0.06749660 30075.97735139 0 271.33839201 0 7956.42867446 0 -706.54386963 0 -1002.43735639 0 5220
0.06850000 0.06852730 30498.94015946 0 540.24197978 0 7116.44889674 0 2.47752126 0 -3262.67088199 0 5029
0.06950000 0.06949320 30662.36767378 0 -27.27656147 0 9217.72148385 0 -1614.01278881 0 -3808.24861510 0 5040
0.07050000 0.07048030 29880.55081834 0 430.45102135 0 7704.62186343 0 815.09472769 0 -3687.73743177 0 5475
0.07150000 0.07148790 29661.98312642 0 606.63828279 0 8406.56296763 0 466.08951324 0 -3547.39571470 0 5509
0.07250000 0.07249820 29805.14828632 0 -679.86842468 0 6955.01440088 0 2017.96441517 0 -3733.43291630 0 5916
0.07350000 0.07351270 29443.19398800 0 394.46375122 0 8261.00618557 0 1625.91553799 0 -3860.66500079 0 5721
0.07450000 0.07449140 28583.20651934 0 1802.09837051 0 7837.74442473 0 884.86698253 0 -2130.28207813 0 6028
0.07550000 0.07549160 27732.29835702 0 1109.42480218 0 8262.30164757 0 -1552.45066282 0 -2327.11479643 0 6183
0.07650000 0.07648840 26774.09936722 0 964.45042440 0 9810.40088674 0 -971.06724571 0 150.07650506 0 6330
0.07750000 0.07749960 26432.18597682 0 347.96884484 0 10623.34204725 0 -641.17840006 0 -354.48933693 0 6583
0.07850000 0.07848650 25869.93332253 0 608.50396952 0 10985.70602159 0 1322.03558335 0 2104.56106758 0 6549
0.07950000 0.07947320 25438.22337785 0 654.28028202 0 10528.05361986 0 563.01664470 0 -84.07537332 0 6828
0.08050000 0.08048110 25090.66310179 0 391.52847791 0 10540.79786573 0 602.57363235 0 495.22744323 0 7147
0.08150000 0.08149960 25001.42016375 0 93.33471568 0 10218.88109395 0 594.91047634 0 592.78791168 0 7386
0.08250000 0.08250610 24184.06114564 0 772.25368850 0 10016.08039257 0 625.82108554 0 804.94694199 0 7227
0.08350000 0.08350160 24383.14154588 0 599.33276288 0 10117.89041928 0 -290.58430701 0 544.88682005 0 7798
0.08450000 0.08449610 23942.02012510 0 500.77467797 0 10228.00468960 0 -137.95341661 0 1059.14648241 0 7371
0.08550000 0.08548940 23170.27908524 0 431.14304165 0 9853.99262955 0 653.08114924 0 1125.80077059 0 8256
0.08650000 0.08650700 23310.01182446 0 502.47870876 0 10736.74479804 0 259.50096954 0 -111.42412635 0 8037
0.08750000 0.08749060 22722.29282308 0 269.87795236 0 9477.61109199 0 551.54018003 0 -2.30098411 0 8155
0.08850000 0.08849210 22151.29303218 0 439.74955973 0 9376.10001805 0 935.53172644 0 -785.13966012 0 8718
0.08950000 0.08949900 21981.22212297 0 426.79826139 0 8493.55822373 0 1280.62508852 0 348.48481518 0 8571
0.09050000 0.09049190 21754.01801769 0 -159.30196610 0 7242.70661665 0 1003.52244422 0 -440.95422867 0 8932
0.09150000 0.09150830 21356.18938696 0 526.12365841 0 6900.27282698 0 1932.99539451 0 441.31297199 0 9285
0.09250000 0.09250820 20818.96018676 0 764.23621810 0 6509.16509741 0 141.14778232 0 706.81735605 0 9204
0.09350000 0.09350330 20142.66258683 0 499.30316600 0 6292.56827931 0 509.34908631 0 -46.72997183 0 9349
0.09450000 0.09448040 19513.53309064 0 960.48763935 0 7287.63811076 0 -824.80737102 0 127.28080272 0 9564
0.09550000 0.09549270 18866.57715148 0 860.90425716 0 7083.07690974 0 -471.01448332 0 601.33906813 0 10155
0.09650000 0.09649430 18402.75746483 0 296.80363186 0 7415.52346242 0 -1048.13284091 0 94.44825938 0 9913
0.09750000 0.09749140 18088.85705622 0 126.15142559 0 7527.32072611 0 -67.34221172 0 212.32511519 0 10476
0.09850000 0.09850240 18715.55064096 0 -217.52689339 0 7611.10500801 0 611.08382121 0 -821.62075594 0 10575
0.09950000 0.09950330 18058.40816297 0 379.30795301 0 7602.64575185 0 497.68771381 0 -118.42183563 0 10882
0.10050000 0.10051200 18275.86862241 0 326.56714820 0 6803.16853832 0 1199.03312694 0 637.62639826 0 10875
0.10150000 0.10150300 17665.22990866 0 -230.83804228 0 6987.42309563 0 1156.83649705 0 745.90598436 0 11118
0.10250000 0.10250800 17959.08940935 0 330.84549451 0 6064.81055779 0 1301.46320383 0 189.00458465 0 11575
0.10350000 0.10349800 17836.07588061 0 -208.47305338 0 5893.83171794 0 461.17561549 0 1529.88526484 0 11364
0.10450000 0.10450100 17452.86271864 0 449.26290121 0 5099.07131478 0 312.64148528 0 1290.57910854 0 12093
0.10550000 0.10551000 17240.05263563 0 133.53002285 0 5167.29898031 0 539.73708177 0 747.40406991 0 12067
0.10650000 0.10649700 16860.38261759 0 347.69978735 0 4948.54305887 0 -134.80001850 0 59.78136399 0 12054
0.10750000 0.10749900 16638.60395148 0 659.61935705 0 4633.74579195 0 -134.78119555 0 -374.79265895 0 12807
0.10850000 0.10850100 16066.27548160 0 303.06835324 0 4517.76318948 0 -164.87023825 0 -79.07710445 0 12736
0.10950000 0.10950300 15773.85538314 0 337.98603679 0 4475.41154705 0 91.49471674 0 -281.61240220 0 12933
0.11050000 0.11050200 15700.44586959 0 269.65207694 0 4766.91264255 0 638.48782513 0 226.51540667 0 13428
0.11150000 0.11150900 15215.92093553 0 432.89136174 0 4318.67171691 0 506.89988806 0 73.10480317 0 13453
0.11250000 0.11250000 14912.76068199 0 468.83766426 0 4112.17285905 0 483.58821538 0 424.74877407 0 13668
0.11350000 0.11349100 14478.39337936 0 395.59423559 0 4183.96581317 0 413.19480312 0 519.28428337 0 13791
0.11450000 0.11448600 14341.65016785 0 89.77906001 0 3797.99564232 0 -65.07736768 0 655.58570912 0 14205
0.11550000 0.11549300 14184.20170893 0 38.16132110 0 3813.33081219 0 139.21123271 0 115.08795863 0 14776
0.11650000 0.11649800 14198.92790094 0 -135.19862220 0 3727.77495832 0 2.28873812 0 708.95210028 0 14553
0.11750000 0.11747300 14351.28309044 0 -126.06395422 0 3759.99542354 0 780.87238614 0 -181.10558813 0 14568
0.11850000 0.11849100 14486.69762297 0 -93.20594454 0 3929.73416301 0 70.68007476 0 86.41052663 0 16015
0.11950000 0.11950300 14302.67558449 0 275.23031418 0 3747.60549207 0 63.46656586 0 142.39452610 0 15270
0.12050000 0.12050700 14187.30195988 0 436.27949313 0 4298.79689386 0 -639.12559104 0 200.45779745 0 15999
0.12150000 0.12150000 14005.16221661 0 384.52523246 0 4795.18028781 0 -422.58524180 0 757.07685287 0 15670
0.12250000 0.12250700 13720.04985253 0 188.97468938 0 4869.81882941 0 -506.07832156 0 358.98248634 0 16887
0.12350000 0.12352200 13754.15261297 0 -23.82587144 0 5179.51175459 0 -92.45302645 0 937.44391693 0 16407
0.12450000 0.12449800 13744.29824388 0 28.45078151 0 5289.89176071 0 369.38161381 0 528.95153017 0 16306
0.12550000 0.12549900 13870.52274681 0 18.11410196 0 5074.69005553 0 573.23972221 0 559.04278733 0 17523
0.12650000 0.12650100 13715.17802961 0 130.09870939 0 4491.05674202 0 325.79208546 0 133.36393798 0 17154
0.12750000 0.12750600 13320.33892658 0 432.23366564 0 4334.63800930 0 370.85755471 0 124.51382875 0 18007
0.12850000 0.12850300 13263.64862350 0 302.81922593 0 4212.02308426 0 186.89973571 0 681.72082462 0 17496
0.12950000 0.12949900 12941.44397128 0 -34.96961275 0 3799.23574270 0 606.39912058 0 422.04491234 0 18405
0.13050000 0.13049000 13095.57073276 0 -70.27803864 0 3725.18403431 0 536.51503525 0 164.12949972 0 18100
0.13150000 0.13148800 12968.68189034 0 125.72957001 0 3509.69444869 0 46.44729538 0 -0.02741862 0 19059
0.13250000 0.13249300 12739.26332009 0 405.22715818 0 3628.60014492 0 -232.05378355 0 206.00503218 0 18957
0.13350000 0.13349100 12622.33957001 0 454.12475904 0 3815.65600040 0 -295.00437907 0 601.88050482 0 19468
0.13450000 0.13450700 12234.36530836 0 252.70366934 0 3644.13461664 0 -60.45245760 0 511.83260876 0 19953
0.13550000 0.13551000 12265.58926435 0 62.10943101 0 3958.53327986 0 -6.36618817 0 545.92983304 0 19956
0.13650000 0.13649900 12139.69693116 0 14.16604310 0 3670.18779694 0 194.69575961 0 411.96909676 0 19723
0.13750000 0.13749600 12160.84507157 0 -31.13105918 0 3729.48009634 0 525.12493471 0 296.22012034 0 20946
0.13850000 0.13851100 12092.19665769 0 -25.94677526 0 3028.31405487 0 406.81382232 0 -193.11684609 0 20955
0.13950000 0.13949800 11858.68132727 0 200.14555789 0 3013.61000752 0 689.54674380 0 -36.02336590 0 20506
0.14050000 0.14048300 11876.95066322 0 233.67145021 0 2513.97135007 0 505.40290974 0 -301.32224761 0 21447
0.14150000 0.14148400 11386.44667375 0 137.78511728 0 2589.35173744 0 680.49954719 0 135.84081704 0 21771
0.14250000 0.14249400 11317.68753663 0 212.95623770 0 2074.56613965 0 121.75128371 0 -6.40621462 0 22470
0.14350000 0.14350900 11086.82956416 0 291.12906539 0 2510.63858030 0 126.32193939 0 423.94492328 0 22519
0.14450000 0.14449900 10877.51833579 0 419.07088590 0 2744.95111812 0 -296.60543724 0 620.63037966 0 22218
0.14550000 0.14550500 10695.84363016 0 265.87862864 0 2907.86930550 0 -57.22277117 0 1130.46221933 0 23559
0.14650000 0.14650700 10652.09687480 0 28.15548261 0 2843.52802598 0 20.49033359 0 1189.52199992 0 23044
0.14750000 0.14750500 10600.85415554 0 71.67558748 0 3111.72187773 0 51.93795054 0 1261.46996659 0 23649
0.14850000 0.14849900 10601.21954226 0 135.63930073 0 2877.13253180 0 56.18773025 0 1044.62402118 0 23640
0.14950000 0.14949500 10482.43564161 0 11.22589796 0 3003.60062588 0 166.73038882 0 1263.80622713 0 24457
0.15050000 0.15050000 10423.98483889 0 185.18352536 0 2860.70120177 0 -57.51851297 0 1198.39093210 0 24591
0.15150000 0.15149900 10253.50425366 0 145.55235314 0 2768.76768880 0 370.79333522 0 1078.89508096 0 25020
0.15250000 0.15250500 10228.50294422 0 20.95791786 0 2612.50396863 0 60.88007078 0 890.99662155 0 25297
0.15350000 0.15350100 10112.08852107 0 3.23441431 0 2738.60667599 0 243.96760505 0 818.35774181 0 25452
0.15450000 0.15450400 10043.26295000 0 197.16931698 0 2649.45231655 0 -113.59873094 0 476.39674041 0 26061
0.15550000 0.15549900 9959.76654854 0 322.54567983 0 2736.76867007 0 -414.95087383 0 563.01000131 0 26128
0.15650000 0.15649500 9686.18047460 0 290.52230199 0 3023.30936406 0 -346.74424572 0 755.45918621 0 26331
0.15750000 0.15749700 9520.59385694 0 133.59645680 0 2887.76196363 0 -93.93439279 0 501.73464853 0 27345
0.15850000 0.15849900 9479.96949718 0 110.08869325 0 3172.49786866 0 113.69506017 0 258.26308363 0 26980
0.15950000 0.15949700 9425.88119044 0 70.61452659 0 2830.06407900 0 93.73254431 0 102.17142739 0 27777
0.16050000 0.16050000 9290.93169555 0 146.65737115 0 3119.41714348 0 226.29285295 0 21.60874912 0 28224
0.16150000 0.16150500 9217.68826687 0 163.27693071 0 2784.77827049 0 83.66591875 0 104.94371608 0 28075
0.16250000 0.16249700 9162.73631880 0 44.80759480 0 2716.38452008 0 389.17339442 0 -55.94790369 0 28590
0.16350000 0.16349900 8966.74509718 0 138.51589071 0 2512.03369323 0 123.57600284 0 212.09923976 0 29163
0.16450000 0.16449100 8946.92563576 0 103.19982492 0 2406.78017350 0 199.87539316 0 231.56881572 0 28996
0.16550000 0.16550500 8846.24498618 0 -4.76264980 0 2298.00565449 0 162.57605254 0 122.52191751 0 30777
0.16650000 0.16650700 8784.36176277 0 150.69544801 0 2295.58081535 0 20.10025558 0 489.58055758 0 29211
0.16750000 0.16749900 8866.70664245 0 2.31036237 0 2424.11943417 0 143.86825253 0 390.90732049 0 30922
0.16850000 0.16850800 8795.68875106 0 71.80768032 0 2289.00385441 0 -4.32700918 0 545.00418669 0 30867
0.16950000 0.16949900 8804.46910464 0 137.96116724 0 2416.54596399 0 -288.74630109 0 52.48204458 0 30852
0.17050000 0.17049200 8661.22643846 0 183.98549981 0 2635.85550168 0 -229.46728847 0 384.26614006 0 31257
0.17150000 0.17149500 8504.32052346 0 267.19955699 0 2901.28127223 0 -32.73765351 0 175.65357539 0 32608
0.17250000 0.17250900 8325.26995882 0 201.77318964 0 2743.01346127 0 78.81247589 0 277.12811065 0 32361
0.17350000 0.17350400 8142.24442956 0 47.23885588 0 2814.76212610 0 383.13233400 0 89.51509578 0 32508
0.17450000 0.17449800 8136.08821696 0 112.14382746 0 2509.48705852 0 412.05213920 0 -49.56581567 0 32791
0.17550000 0.17549800 8000.89513093 0 128.68477351 0 2266.43845643 0 407.93987776 0 180.16665498 0 33633
0.17650000 0.17650100 7845.66113697 0 157.39752623 0 2096.17931769 0 -126.24554035 0 -12.20269846 0 33984
0.17750000 0.17750300 7844.88607423 0 72.52195599 0 2129.82811282 0 48.18044639 0 278.61623111 0 34069
0.17850000 0.17849800 7779.64793640 0 42.74725660 0 2045.65629954 0 -100.11186425 0 88.83304057 0 34536
