### header ###
fiducial parameters:
Omega_m = 0.31
Omega_nu = 0
Omega_de = 0.69
Omega_k = 0
H_0 = 100
w_de = -1
zeff = 0
beta = 0
fgrowth = 0
b_1 = 2
gamma = 0.55
Lx = 3500 Ly = 3500 Lz = 3500
nx = 700 ny = 700 nz = 700
xoffset = -685.467585 yoffset = -31.7331281 zoffset = 572.489161
bins = 400 dk = 0.001
kx_ny = 0.628318531 ky_ny = 0.628318531 kz_ny = 0.628318531
############################
A(data) = 8.01885897 (not used)
A(ran) = 8.00966493 (used)
Ngal = 476239
weighted Ngal = 0
Nran = 23820508
weighted Nran = 0
SN(data) = 3499.17766
SN(ran) = 69.7670864
SN(data+ran) = 3568.94475
############################
13 columns: k_central k_mean P_0(k) sigma^{lin}_{P_0(k)} P^img_1(k) sigma^{lin}_{P_1(k)} P_2(k) sigma^{lin}_{P_2(k)} P^img_3(k) sigma^{lin}_{P_3(k)} P_4(k) sigma^{lin}_{P_4(k)} N_modes
### header ###
0.00050000 0 0 0 0 0 0 0 0 0 0 0 0
0.00150000 0.00179520 42308.90325752 0 -46197.94662682 0 8421.31130429 0 -12868.69879722 0 -97663.66250937 0 3
0.00250000 0.00253879 74813.81650437 0 -50406.20512065 0 -12514.82729602 0 -9186.54181716 0 55135.63794368 0 6
0.00350000 0.00331552 93532.46739628 0 -23018.03461899 0 -5279.86023442 0 -62405.39424986 0 -7103.29497486 0 7
0.00450000 0.00420575 104409.80857487 0 13449.22078747 0 -3906.91410156 0 -42393.71726563 0 34282.46427324 0 24
0.00550000 0.00557378 97774.71792730 0 -926.32841005 0 10485.83484533 0 -21096.21120022 0 -867.71041523 0 45
0.00650000 0.00659388 71650.01041069 0 9437.97216914 0 23574.86183412 0 -25685.13622130 0 -3900.42571921 0 40
0.00750000 0.00754703 111366.55025843 0 1869.73920283 0 35295.69271739 0 5888.47271273 0 -38665.66549919 0 57
0.00850000 0.00846663 98878.18581872 0 -5074.19180091 0 50188.52321471 0 -31369.11416696 0 -22673.24242413 0 75
0.00950000 0.00948925 97588.81359359 0 -147.82550142 0 46216.43740927 0 -2916.87110557 0 -471.26139616 0 112
0.01050000 0.01054430 107840.01480369 0 -17126.89347598 0 46438.54824513 0 8534.52582556 0 -20816.52427530 0 105
0.01150000 0.01145670 108127.89524897 0 6032.16934422 0 41108.88469368 0 31609.16216902 0 -33315.40742358 0 144
0.01250000 0.01249090 105316.52125427 0 12246.43414242 0 25358.83480890 0 6727.03523287 0 -22901.11086890 0 169
0.01350000 0.01339930 82555.36457108 0 18537.72910437 0 26200.33149511 0 -4852.70101524 0 535.94813222 0 180
0.01450000 0.01448870 77050.53684099 0 14067.49940534 0 34044.74145938 0 -2204.82096881 0 3917.42173781 0 267
0.01550000 0.01550050 67567.97641980 0 2842.47615512 0 37770.80020735 0 -3005.66007830 0 10986.10462528 0 238
0.01650000 0.01653350 75312.84618395 0 -2076.42629022 0 42596.00864007 0 1910.11997144 0 9828.86952454 0 315
0.01750000 0.01747870 69405.09655371 0 -1904.21842231 0 54582.24314925 0 1736.60556921 0 17468.03180364 0 297
0.01850000 0.01844180 84198.16540442 0 -1660.12902168 0 50798.60831222 0 8383.03427739 0 4966.76810552 0 388
0.01950000 0.01947590 80070.62415852 0 -1989.41996179 0 54460.66902274 0 8844.15231679 0 11027.95801310 0 399
0.02050000 0.02045430 81106.32942206 0 4583.80960702 0 45122.82388693 0 17792.56164408 0 -7055.76148441 0 462
0.02150000 0.02154770 76819.45742202 0 2472.73801245 0 36858.88353529 0 16438.08414901 0 -8724.84801687 0 571
0.02250000 0.02255340 70358.97733684 0 4468.70171821 0 24236.43324203 0 8153.09530789 0 -18806.23298122 0 510
0.02350000 0.02348930 71918.84645729 0 -671.75683951 0 10445.98554831 0 5160.56700683 0 -28339.83681982 0 555
0.02450000 0.02439640 66527.06716360 0 -2334.79898986 0 7676.49815839 0 10556.07767398 0 -16428.67267291 0 592
0.02550000 0.02547300 68877.27882961 0 1643.54267911 0 6496.63122572 0 1751.48677376 0 -22969.31638979 0 837
0.02650000 0.02652900 65617.69712625 0 3012.46955806 0 4114.16587751 0 761.69179785 0 -12743.24935703 0 723
0.02750000 0.02749970 61883.88775090 0 5693.89874869 0 11143.85203697 0 -4734.82504522 0 -13357.65266121 0 826
0.02850000 0.02848090 59825.32112062 0 5902.35740805 0 13488.97043356 0 -1504.10889266 0 4961.80770401 0 831
0.02950000 0.02946900 56785.96795790 0 -195.44314154 0 23318.53751457 0 -1844.82647198 0 4679.67379530 0 996
0.03050000 0.03053250 58306.19815550 0 1459.07774763 0 20584.11617735 0 859.61211685 0 3024.39445189 0 1041
0.03150000 0.03150510 58938.76007239 0 -874.68044370 0 28197.55744590 0 496.44650620 0 8456.10054887 0 1036
0.03250000 0.03246190 60239.42606884 0 -91.74439766 0 19819.35070213 0 -562.02567163 0 1067.54262632 0 1059
0.03350000 0.03345080 59455.72691817 0 2572.77646719 0 25996.15782546 0 3768.18894391 0 7337.85110381 0 1302
0.03450000 0.03451200 57749.03877063 0 1961.06373793 0 22177.75588850 0 589.87589025 0 1902.09253595 0 1339
0.03550000 0.03553350 54674.25416849 0 2475.86040805 0 23580.95161277 0 1681.99686320 0 3179.60630120 0 1365
0.03650000 0.03647120 52532.42365557 0 2216.13688478 0 22221.60229478 0 8023.08406986 0 8556.95835565 0 1308
0.03750000 0.03744890 50392.14326813 0 216.42519707 0 21151.68354756 0 7672.40139821 0 8502.70396403 0 1579
0.03850000 0.03847530 49855.91057716 0 1863.92623230 0 23064.53838323 0 10135.80544084 0 12861.16961635 0 1662
0.03950000 0.03950240 47658.27554715 0 2107.78311410 0 21693.78457068 0 6675.70393501 0 17109.73137251 0 1683
0.04050000 0.04050350 45221.03540807 0 3272.02699646 0 17407.90907988 0 1335.23379453 0 17789.68283962 0 1822
0.04150000 0.04152450 43183.61691820 0 1858.66687801 0 16592.87524998 0 354.71631959 0 16188.84611734 0 1887
0.04250000 0.04250150 42538.21110452 0 978.76140423 0 16709.90972331 0 -126.44594943 0 12662.31066260 0 1920
0.04350000 0.04349210 41589.86648380 0 -1152.47400107 0 16087.86651500 0 -3367.31542385 0 4690.52467362 0 2005
0.04450000 0.04448520 42733.19474457 0 1006.99915421 0 14201.80670539 0 -5103.07949637 0 236.06307237 0 2151
0.04550000 0.04548030 43199.22889619 0 493.78693377 0 21121.45610080 0 -7090.92718803 0 -3044.39107051 0 2274
0.04650000 0.04648670 42903.04420729 0 2424.77270133 0 21235.94393943 0 -2393.47123907 0 -4605.54458064 0 2311
0.04750000 0.04749250 41076.66422846 0 1396.22015963 0 21702.42098404 0 799.81602667 0 -2853.10558694 0 2568
0.04850000 0.04851840 40506.66094679 0 732.50072070 0 21970.59269114 0 5011.64423801 0 -3329.01625230 0 2493
0.04950000 0.04949480 39585.11135214 0 1328.70112289 0 24192.47611250 0 5747.96491078 0 -2258.03456189 0 2644
0.05050000 0.05050630 38148.14503717 0 2095.23817008 0 21876.92082318 0 5946.91244312 0 1229.82526226 0 2829
0.05150000 0.05149060 36569.12079478 0 1689.24923596 0 18995.45901237 0 2695.29174130 0 4054.71856556 0 2784
0.05250000 0.05249300 35949.40277468 0 53.88845128 0 17910.14973365 0 2442.55485499 0 3656.03736582 0 3055
0.05350000 0.05348950 35340.42490966 0 -1080.59468282 0 16501.86073997 0 1643.43195586 0 4440.21262645 0 3009
0.05450000 0.05448610 36801.97178572 0 -646.33478173 0 16623.87775947 0 1401.50165857 0 3560.27282846 0 3336
0.05550000 0.05550870 37508.60755565 0 119.86788125 0 15615.07824524 0 831.70985831 0 2236.47674547 0 3349
0.05650000 0.05647670 36281.01890300 0 995.94122341 0 16080.55878062 0 1545.48617051 0 4146.84030805 0 3324
0.05750000 0.05747970 36146.82232620 0 1268.79984562 0 15625.70767707 0 1671.97640924 0 7419.66451190 0 3639
0.05850000 0.05849280 34309.92363879 0 1079.24828812 0 16009.03156229 0 1131.14870347 0 5777.09619738 0 3846
0.05950000 0.05951020 34305.71615536 0 529.37560021 0 17366.60930830 0 1507.00984177 0 5062.02331594 0 3787
0.06050000 0.06049470 33029.96288975 0 1025.56079954 0 16452.69961777 0 2144.00068858 0 7992.91198473 0 3930
0.06150000 0.06148310 32737.21062155 0 -33.21099540 0 14425.02477373 0 1553.55789530 0 6206.54738779 0 4083
0.06250000 0.06249100 32498.93419145 0 104.75271847 0 13664.35605869 0 202.03338927 0 4594.56083442 0 4303
0.06350000 0.06350600 32335.50667713 0 506.34405735 0 12600.08419712 0 1026.55509431 0 2254.80144304 0 4470
0.06450000 0.06451750 32092.91204035 0 824.75422386 0 12177.78572854 0 289.91332412 0 3488.19199389 0 4479
0.06550000 0.06550280 31566.09082548 0 -21.97790043 0 12133.49642927 0 1366.41346122 0 1329.17723285 0 4636
0.06650000 0.06648880 30718.06146762 0 258.68383197 0 10576.24037747 0 913.15455798 0 2817.13160361 0 4653
0.06750000 0.06749660 31564.87286975 0 587.76439791 0 11724.92764346 0 1210.68121265 0 1961.53984790 0 5220
0.06850000 0.06852730 29806.25551880 0 989.69421775 0 10623.37526422 0 1114.28555277 0 3016.96492194 0 5029
0.06950000 0.06949320 29985.40573437 0 490.06995433 0 9970.04166598 0 2898.51319103 0 4036.63745913 0 5040
0.07050000 0.07048030 29083.12198490 0 -300.87160399 0 8973.28884115 0 700.66446515 0 1861.73391198 0 5475
0.07150000 0.07148790 29602.63546539 0 -36.84227505 0 9389.10999972 0 1420.03673032 0 623.53686493 0 5509
0.07250000 0.07249820 29025.21372610 0 830.82407232 0 7363.58318669 0 -499.37513611 0 1144.83409695 0 5916
0.07350000 0.07351270 28292.22582310 0 916.12304826 0 7805.80076762 0 -1720.61713217 0 2568.17038006 0 5721
0.07450000 0.07449140 27828.62758294 0 679.36131220 0 7923.35564022 0 -27.61028134 0 1167.25555471 0 6028
0.07550000 0.07549160 27274.78989552 0 825.19711685 0 8985.30231358 0 -74.93306544 0 -317.56202643 0 6183
0.07650000 0.07648840 26056.50199572 0 1472.67456250 0 9226.78971787 0 -622.87695437 0 -371.93378468 0 6330
0.07750000 0.07749960 25599.10425746 0 1054.84820592 0 9389.19857831 0 -1147.40287631 0 -1363.27999330 0 6583
0.07850000 0.07848650 24139.55039987 0 824.02787935 0 10287.23055506 0 -99.21555956 0 57.07860950 0 6549
0.07950000 0.07947320 24046.98576438 0 756.99048874 0 10103.79534978 0 962.98998475 0 -1430.93189794 0 6828
0.08050000 0.08048110 23721.34869147 0 -586.75460188 0 9421.19759704 0 395.84779182 0 -1871.40005155 0 7147
0.08150000 0.08149960 24061.49050990 0 -119.57225018 0 8830.98732258 0 1351.77584781 0 -2798.31972374 0 7386
0.08250000 0.08250610 23742.93972486 0 391.01582927 0 8801.24705812 0 -843.40112609 0 -3764.11432837 0 7227
0.08350000 0.08350160 23215.89706350 0 758.81410063 0 8881.43283446 0 105.17080946 0 -1494.85242912 0 7798
0.08450000 0.08449610 22647.66535380 0 789.99044563 0 9373.69732357 0 -4.66771568 0 -1881.37621621 0 7371
0.08550000 0.08548940 22833.79113401 0 67.91907984 0 9407.93295191 0 830.83514465 0 -1606.73827141 0 8256
0.08650000 0.08650700 22429.98344787 0 35.08066817 0 9531.10149319 0 1162.18442994 0 -1298.87227983 0 8037
0.08750000 0.08749060 22293.68312935 0 911.24126025 0 9551.56314945 0 -360.88692621 0 120.43146259 0 8155
0.08850000 0.08849210 21404.68616966 0 460.35072729 0 8614.02511776 0 1186.76499104 0 -798.59142754 0 8718
0.08950000 0.08949900 21247.79132698 0 15.15380519 0 8628.99490092 0 985.93073455 0 931.60658729 0 8571
0.09050000 0.09049190 20907.20661556 0 532.17025499 0 8329.01240460 0 1764.20887498 0 30.81239768 0 8932
0.09150000 0.09150830 20261.13646239 0 540.32280776 0 7821.65633676 0 1501.05293101 0 690.94074950 0 9285
0.09250000 0.09250820 19704.53069376 0 715.36629805 0 7272.73476155 0 831.27914487 0 216.65882312 0 9204
0.09350000 0.09350330 19011.40316011 0 588.99231873 0 6778.96443627 0 -353.16951581 0 193.60070669 0 9349
0.09450000 0.09448040 18700.82444895 0 887.33389650 0 7606.58749949 0 -746.93792503 0 1097.40136466 0 9564
0.09550000 0.09549270 17816.25641919 0 549.66231374 0 7556.55166363 0 -630.62204558 0 970.80372438 0 10155
0.09650000 0.09649430 17884.90483306 0 64.31160569 0 7776.39267291 0 486.39283526 0 1281.33371731 0 9913
0.09750000 0.09749140 17908.26743843 0 -247.31919778 0 6871.38513153 0 1213.63752337 0 57.49282517 0 10476
0.09850000 0.09850240 17744.28630787 0 84.61625639 0 6971.02498257 0 953.42238888 0 -482.21856880 0 10575
0.09950000 0.09950330 17935.83752723 0 180.28402163 0 6385.28792734 0 159.82790152 0 -599.02163055 0 10882
0.10050000 0.10051200 17235.62370570 0 668.67984045 0 6581.83276520 0 84.69387339 0 -537.89021799 0 10875
0.10150000 0.10150300 16867.69035197 0 436.88736376 0 5729.68450250 0 -21.95741662 0 261.30354402 0 11118
0.10250000 0.10250800 16564.53009844 0 68.70598996 0 6490.40857917 0 597.65862736 0 952.89866791 0 11575
0.10350000 0.10349800 16763.72122193 0 -47.62129398 0 5905.54623760 0 672.44221642 0 563.88250050 0 11364
0.10450000 0.10450100 16869.12975420 0 291.22982354 0 6099.46693447 0 471.12188487 0 1257.00781969 0 12093
0.10550000 0.10551000 16376.52202302 0 344.41573581 0 5629.76784334 0 181.91608231 0 1773.69785735 0 12067
0.10650000 0.10649700 16493.88866610 0 101.08932909 0 5817.14479625 0 952.93077766 0 1606.25108912 0 12054
0.10750000 0.10749900 15986.77618940 0 29.28984229 0 4983.62018390 0 571.14040942 0 1734.42432122 0 12807
0.10850000 0.10850100 16192.16781479 0 224.59989448 0 5420.23516847 0 407.76604226 0 1258.87904258 0 12736
0.10950000 0.10950300 15763.55812106 0 355.27547199 0 4865.60027366 0 542.57270416 0 1848.59106242 0 12933
0.11050000 0.11050200 15518.30612633 0 426.19149799 0 5059.69812773 0 -212.00069607 0 1591.67990965 0 13428
0.11150000 0.11150900 15137.52887581 0 262.36316551 0 5010.92453690 0 350.08365888 0 2570.21876015 0 13453
0.11250000 0.11250000 14968.56519908 0 160.01059488 0 5341.27842019 0 476.72448123 0 2654.98847896 0 13668
0.11350000 0.11349100 15029.46298558 0 -16.50640039 0 5273.50471998 0 347.30339812 0 2324.90033147 0 13791
0.11450000 0.11448600 14855.73820918 0 104.98579091 0 5376.47734079 0 -145.61546539 0 2419.35833450 0 14205
0.11550000 0.11549300 15065.22659475 0 136.88715173 0 5458.25753190 0 -228.03010071 0 2061.73331518 0 14776
0.11650000 0.11649800 14831.37909458 0 66.74297750 0 5304.49615714 0 -308.81156812 0 2276.09352367 0 14553
0.11750000 0.11747300 14963.80409941 0 63.57108861 0 6025.50380468 0 2.39052600 0 1533.73843388 0 14568
0.11850000 0.11849100 14782.99303512 0 45.68485509 0 4946.49467878 0 300.28477078 0 1380.91820673 0 16015
0.11950000 0.11950300 14761.06983198 0 310.98395825 0 5186.24372808 0 165.58218873 0 488.66819801 0 15270
0.12050000 0.12050700 14450.49112082 0 271.25092064 0 4366.12770109 0 138.21693794 0 594.39450601 0 15999
0.12150000 0.12150000 14462.89212461 0 -51.72901577 0 4853.97433260 0 260.91379819 0 536.23711990 0 15670
0.12250000 0.12250700 14138.25156093 0 215.85718680 0 4447.44285456 0 -92.70746847 0 -237.69402581 0 16887
0.12350000 0.12352200 14227.49449897 0 282.77278185 0 4986.51006068 0 140.43583184 0 135.20305113 0 16407
0.12450000 0.12449800 13835.09130739 0 272.36922545 0 4424.71137170 0 303.64743583 0 -167.69700277 0 16306
0.12550000 0.12549900 13586.40689197 0 284.97728172 0 4103.35928849 0 868.10569722 0 438.71540459 0 17523
0.12650000 0.12650100 13289.22569384 0 209.74747797 0 3883.03109692 0 834.49344077 0 583.19374222 0 17154
0.12750000 0.12750600 13083.94479170 0 206.10468310 0 3480.00954585 0 995.77403131 0 246.03148640 0 18007
0.12850000 0.12850300 12666.96103903 0 206.74244901 0 2840.00702668 0 438.34669618 0 648.03549082 0 17496
0.12950000 0.12949900 12656.66377695 0 262.84259717 0 2898.28067220 0 -40.76652841 0 953.33159582 0 18405
0.13050000 0.13049000 12486.81431423 0 -27.56887084 0 2805.43922860 0 -326.84284909 0 550.34436895 0 18100
0.13150000 0.13148800 12627.76500917 0 33.40055360 0 3128.03141219 0 -526.49679575 0 -56.58024416 0 19059
0.13250000 0.13249300 12537.30411540 0 121.27295927 0 3329.59201319 0 -413.80710268 0 381.64642801 0 18957
0.13350000 0.13349100 12547.82282398 0 306.37897836 0 3639.15207047 0 -794.16581931 0 -34.41610723 0 19468
0.13450000 0.13450700 12451.49359806 0 254.90152581 0 4013.66238514 0 -248.71763240 0 182.73764881 0 19953
0.13550000 0.13551000 12230.26854818 0 143.49179349 0 4258.09502783 0 242.71532512 0 72.03709889 0 19956
0.13650000 0.13649900 12253.74187680 0 -58.60825118 0 4025.41012177 0 690.07489369 0 624.24992265 0 19723
0.13750000 0.13749600 12128.62460635 0 128.64048421 0 4066.63238707 0 487.66725985 0 392.56595475 0 20946
0.13850000 0.13851100 12036.28141736 0 184.39296137 0 3783.60162005 0 201.77208240 0 552.30749214 0 20955
0.13950000 0.13949800 11803.31970317 0 288.94449570 0 3970.33637812 0 -46.94532855 0 469.26616323 0 20506
0.14050000 0.14048300 11471.37140511 0 528.22740012 0 4175.79443745 0 -410.58394893 0 437.76429189 0 21447
0.14150000 0.14148400 11161.34631019 0 497.05991299 0 4205.82258236 0 -263.31317098 0 982.21818403 0 21771
0.14250000 0.14249400 10871.36212319 0 48.83094547 0 3975.25249034 0 435.97057527 0 673.80854130 0 22470
0.14350000 0.14350900 10825.98773608 0 -184.58119089 0 3639.48424021 0 615.43745932 0 694.62229750 0 22519
0.14450000 0.14449900 11068.96990423 0 -122.49091500 0 3459.29322612 0 981.45972978 0 -141.97931392 0 22218
0.14550000 0.14550500 11014.54942774 0 -85.87905504 0 2711.44626321 0 461.31734124 0 -4.61722588 0 23559
0.14650000 0.14650700 10819.54364304 0 255.16393991 0 2730.86712095 0 25.04260921 0 -143.79074626 0 23044
0.14750000 0.14750500 10739.93362759 0 391.26717105 0 2717.34781234 0 -228.41431038 0 -112.98532415 0 23649
0.14850000 0.14849900 10330.18010303 0 419.08417269 0 2728.12118439 0 -324.24085276 0 188.78313816 0 23640
0.14950000 0.14949500 10002.66073489 0 223.94441285 0 2879.91168533 0 -39.81873741 0 69.70338498 0 24457
0.15050000 0.15050000 10014.31989293 0 78.75434618 0 2934.05535369 0 101.26737207 0 227.57170646 0 24591
0.15150000 0.15149900 9929.72733131 0 82.65922298 0 3005.68222294 0 359.67339941 0 222.01782833 0 25020
0.15250000 0.15250500 9818.06293551 0 34.42729028 0 2520.70332356 0 454.34399107 0 311.92953479 0 25297
0.15350000 0.15350100 9814.18762183 0 -23.06475983 0 2412.93638610 0 698.16654867 0 435.34388168 0 25452
0.15450000 0.15450400 9863.68091377 0 -19.87006195 0 2113.85074810 0 225.59197479 0 420.38627809 0 26061
0.15550000 0.15549900 9679.31563321 0 273.69901166 0 2174.06205047 0 65.41784166 0 -131.67651567 0 26128
0.15650000 0.15649500 9478.92869864 0 305.65927725 0 2059.50777789 0 -272.37365438 0 95.23118347 0 26331
0.15750000 0.15749700 9222.63759607 0 339.84618736 0 2335.19759355 0 -369.79128983 0 321.87912587 0 27345
0.15850000 0.15849900 9186.90720388 0 100.58354529 0 2339.41614931 0 -53.72269857 0 278.40696417 0 26980
0.15950000 0.15949700 9061.84529505 0 -58.50406060 0 2642.27745007 0 1.46780274 0 216.25357603 0 27777
0.16050000 0.16050000 9114.23953609 0 53.56170697 0 2523.37175384 0 63.72167222 0 149.41991620 0 28224
0.16150000 0.16150500 9121.09330516 0 110.31047192 0 2448.92144176 0 99.07029065 0 531.70521735 0 28075
0.16250000 0.16249700 8960.74389713 0 99.67218223 0 2460.96813117 0 186.07927644 0 597.70291666 0 28590
0.16350000 0.16349900 8913.16611739 0 65.86981396 0 2463.17152381 0 244.67512661 0 714.16495080 0 29163
0.16450000 0.16449100 8884.69917028 0 16.49366722 0 2469.41631500 0 380.08855191 0 604.77259606 0 28996
0.16550000 0.16550500 8855.85576412 0 89.16897491 0 2277.64364914 0 238.18010087 0 408.62746913 0 30777
0.16650000 0.16650700 8763.81152791 0 201.26607716 0 2333.90213155 0 -178.14041954 0 997.53785265 0 29211
0.16750000 0.16749900 8680.75801944 0 164.03759942 0 2397.16939556 0 -193.04598321 0 787.23232951 0 30922
0.16850000 0.16850800 8552.95017406 0 124.39867657 0 2683.58829397 0 -41.45865943 0 1074.49383184 0 30867
0.16950000 0.16949900 8520.95115534 0 129.61152709 0 2638.69001683 0 -25.80516022 0 693.27368833 0 30852
0.17050000 0.17049200 8382.23707001 0 92.19028018 0 2798.85119533 0 -257.43819543 0 637.98846328 0 31257
0.17150000 0.17149500 8460.24159835 0 137.48727174 0 2890.09822416 0 -98.32789128 0 212.25203784 0 32608
0.17250000 0.17250900 8243.67799723 0 142.74551879 0 2960.09746167 0 -149.09881878 0 422.09805950 0 32361
0.17350000 0.17350400 8114.29788172 0 252.90407842 0 2768.44659138 0 -17.22100824 0 400.35533526 0 32508
0.17450000 0.17449800 7941.44781898 0 38.09422282 0 2643.76114160 0 410.86186428 0 438.53603293 0 32791
0.17550000 0.17549800 7966.38269447 0 -42.63963360 0 2503.75159427 0 538.48369460 0 351.57620827 0 33633
0.17650000 0.17650100 7989.13632197 0 67.45304569 0 2283.26839015 0 339.38668588 0 287.79075945 0 33984
0.17750000 0.17750300 7939.05619682 0 83.14861973 0 2221.48481766 0 178.26885851 0 370.00609293 0 34069
0.17850000 0.17849800 7834.01305126 0 124.50829259 0 2072.47347025 0 -95.37501297 0 427.79255616 0 34536
