### header ###
fiducial parameters:
Omega_m = 0.31
Omega_nu = 0
Omega_de = 0.69
Omega_k = 0
H_0 = 100
w_de = -1
zeff = 0
beta = 0
fgrowth = 0
b_1 = 2
gamma = 0.55
Lx = 3500 Ly = 3500 Lz = 3500
nx = 700 ny = 700 nz = 700
xoffset = -685.467585 yoffset = -31.7331281 zoffset = 572.489161
bins = 400 dk = 0.001
kx_ny = 0.628318531 ky_ny = 0.628318531 kz_ny = 0.628318531
############################
A(data) = 8.04310821 (not used)
A(ran) = 8.04375857 (used)
Ngal = 477895
weighted Ngal = 0
Nran = 23820508
weighted Nran = 0
SN(data) = 3487.82292
SN(ran) = 70.0640544
SN(data+ran) = 3557.88698
############################
13 columns: k_central k_mean P_0(k) sigma^{lin}_{P_0(k)} P^img_1(k) sigma^{lin}_{P_1(k)} P_2(k) sigma^{lin}_{P_2(k)} P^img_3(k) sigma^{lin}_{P_3(k)} P_4(k) sigma^{lin}_{P_4(k)} N_modes
### header ###
0.00050000 0 0 0 0 0 0 0 0 0 0 0 0
0.00150000 0.00179520 45859.35493387 0 -12330.80525753 0 54763.05421354 0 -15585.07224498 0 -91836.74085031 0 3
0.00250000 0.00253879 83737.00307572 0 -1229.43773089 0 45655.95632695 0 -48770.82274493 0 75275.31100282 0 6
0.00350000 0.00331552 82613.27282988 0 -3177.50255948 0 -18621.98949624 0 57768.41533906 0 100485.11231965 0 7
0.00450000 0.00420575 72906.05493812 0 3528.41774996 0 24158.92696830 0 -50840.01880704 0 1588.42464616 0 24
0.00550000 0.00557378 100858.13894279 0 -9707.09609618 0 61606.30456770 0 -18699.16360023 0 -41348.60052600 0 45
0.00650000 0.00659388 100945.16741587 0 -6993.53501893 0 115216.39759787 0 -29774.92083957 0 -13455.42128936 0 40
0.00750000 0.00754703 88421.26081350 0 33413.28677497 0 47410.14474797 0 -27943.22614482 0 -5146.38335873 0 57
0.00850000 0.00846663 79143.31695496 0 17051.60166721 0 63413.52942460 0 7231.04745861 0 -24663.38208704 0 75
0.00950000 0.00948925 71996.79562401 0 -5506.84289320 0 55474.22963664 0 19152.13240856 0 -55820.79340346 0 112
0.01050000 0.01054430 76418.74998684 0 -6007.95416985 0 41571.04353161 0 22185.94940887 0 -42597.89093529 0 105
0.01150000 0.01145670 72928.31031101 0 -6417.23158444 0 9121.85729557 0 16879.75918603 0 -60190.04350015 0 144
0.01250000 0.01249090 77650.54612291 0 714.74403339 0 8967.86340199 0 3186.42685328 0 -45253.25587330 0 169
0.01350000 0.01339930 89713.17967334 0 -3492.14481385 0 4658.04954493 0 -14793.73319019 0 -59902.49522461 0 180
0.01450000 0.01448870 76315.99881252 0 3550.73955679 0 5.38588882 0 -15471.35946909 0 -35428.44989197 0 267
0.01550000 0.01550050 85466.05731940 0 -3233.28493192 0 1519.62121974 0 -18605.04883927 0 -38599.01010379 0 238
0.01650000 0.01653350 84769.16519532 0 -8387.02031433 0 8542.97400940 0 -2981.82136296 0 -40185.67425030 0 315
0.01750000 0.01747870 99481.73824459 0 -10626.70803400 0 8128.59225306 0 4531.81396967 0 -44822.54243785 0 297
0.01850000 0.01844180 95202.94904167 0 -3792.91344523 0 2638.84502938 0 -11874.51475176 0 -48700.84565208 0 388
0.01950000 0.01947590 99981.65371015 0 6845.37624053 0 1836.66616859 0 -10277.19902877 0 -43563.84055247 0 399
0.02050000 0.02045430 92230.36199761 0 10679.09120271 0 6867.74233666 0 -11282.69899020 0 -35739.13932638 0 462
0.02150000 0.02154770 81636.36161113 0 11901.64194756 0 10903.85939653 0 -14836.58308724 0 -24932.43958013 0 571
0.02250000 0.02255340 75297.34492920 0 7986.96614631 0 26685.63149192 0 3428.71146497 0 -27526.35311540 0 510
0.02350000 0.02348930 71232.14087204 0 3754.56998438 0 20320.70556992 0 -2933.26921863 0 -31363.79945104 0 555
0.02450000 0.02439640 64863.67180610 0 4544.64679414 0 24995.88400134 0 8764.76374784 0 -13936.51380273 0 592
0.02550000 0.02547300 65763.18747436 0 528.99471223 0 23124.32893725 0 -355.51241974 0 -10051.24609620 0 837
0.02650000 0.02652900 62670.90859901 0 -2967.73736579 0 17984.55575643 0 13996.85797300 0 -1993.51672197 0 723
0.02750000 0.02749970 71381.28508735 0 -1580.14254719 0 22532.51317569 0 10205.69395509 0 -6616.68844373 0 826
0.02850000 0.02848090 66795.79248695 0 -3326.56926851 0 12273.11844523 0 16050.22061061 0 531.20142657 0 831
0.02950000 0.02946900 68654.06076126 0 1586.04409632 0 11637.12410765 0 4891.00018679 0 -4657.48485637 0 996
0.03050000 0.03053250 65536.75843182 0 6885.22553755 0 13396.29507483 0 4705.91520512 0 2002.16420766 0 1041
0.03150000 0.03150510 58517.23666655 0 4339.68698942 0 11796.34413854 0 -5764.71733823 0 7600.77452896 0 1036
0.03250000 0.03246190 56744.22529334 0 5740.11463248 0 12901.69432518 0 1469.28643111 0 11341.16086524 0 1059
0.03350000 0.03345080 52826.06170976 0 1143.83758772 0 11024.56988170 0 -1088.29437749 0 17552.95653500 0 1302
0.03450000 0.03451200 57211.03450769 0 -1477.82319354 0 14716.78053270 0 5791.70059381 0 4048.63985924 0 1339
0.03550000 0.03553350 54439.74232883 0 1151.00138187 0 10933.95397539 0 6807.18779223 0 10123.69231748 0 1365
0.03650000 0.03647120 54742.90258237 0 1335.45524103 0 9980.21713248 0 1656.03226150 0 4615.19964788 0 1308
0.03750000 0.03744890 51921.34204883 0 314.92238419 0 11968.40806622 0 -220.09456551 0 6166.34377638 0 1579
0.03850000 0.03847530 53457.84856391 0 2024.37529124 0 13096.45651874 0 -2522.18701509 0 -4639.75806433 0 1662
0.03950000 0.03950240 49377.91831474 0 3252.57292175 0 14342.75740033 0 -5240.79707246 0 -401.87113653 0 1683
0.04050000 0.04050350 46852.76391660 0 3965.08809616 0 16315.07062028 0 -3519.24986501 0 -2311.66890331 0 1822
0.04150000 0.04152450 45632.48299834 0 476.80641643 0 19297.62275667 0 -1486.60354713 0 -972.26748572 0 1887
0.04250000 0.04250150 45578.67149972 0 1351.51011201 0 21412.87969003 0 3014.93868649 0 -2913.66013138 0 1920
0.04350000 0.04349210 44299.04292043 0 1920.90441581 0 18907.98764631 0 2900.66122204 0 -449.22193361 0 2005
0.04450000 0.04448520 42129.86376520 0 474.60855996 0 17795.66189502 0 8569.78010779 0 -430.47427323 0 2151
0.04550000 0.04548030 41163.91414803 0 491.20708209 0 14075.25003271 0 2717.93464556 0 620.38789575 0 2274
0.04650000 0.04648670 41219.49721862 0 -627.05122083 0 13564.70513532 0 3209.36871031 0 -444.02126264 0 2311
0.04750000 0.04749250 40465.80406821 0 145.48038302 0 9878.73927552 0 -1503.68814432 0 988.80843177 0 2568
0.04850000 0.04851840 40022.35745922 0 2093.84305715 0 9033.46692654 0 -178.63424523 0 -3321.61993932 0 2493
0.04950000 0.04949480 39435.74569033 0 2214.07743236 0 11111.07795551 0 -3870.77403335 0 2287.23228244 0 2644
0.05050000 0.05050630 36214.58495409 0 2076.23806069 0 10225.15910212 0 310.93966895 0 1322.48954866 0 2829
0.05150000 0.05149060 36816.91942423 0 169.99561741 0 10811.19511012 0 1336.95000488 0 608.91475277 0 2784
0.05250000 0.05249300 34405.14563223 0 499.55782947 0 13283.68953143 0 2550.43251570 0 -488.69587882 0 3055
0.05350000 0.05348950 35102.92354230 0 596.95553474 0 12155.97324865 0 3470.19946606 0 2900.90481319 0 3009
0.05450000 0.05448610 36185.79690956 0 -697.89859841 0 11844.95164449 0 415.10588638 0 564.93547859 0 3336
0.05550000 0.05550870 34182.25973363 0 711.97484495 0 12338.00226867 0 877.26583154 0 2877.13253180 0 3349
0.05650000 0.05647670 35571.94722162 0 361.62323581 0 12445.29309616 0 -1848.22567570 0 400.72957984 0 3324
0.05750000 0.05747970 34187.79589604 0 1435.84801016 0 12990.27292373 0 1482.38499137 0 4167.62306174 0 3639
0.05850000 0.05849280 33082.33498614 0 847.43588125 0 11946.48486308 0 1333.50651186 0 3784.38775512 0 3846
0.05950000 0.05951020 32525.17560127 0 -11.26730846 0 11926.55467840 0 3060.49023080 0 3024.71554931 0 3787
0.06050000 0.06049470 33858.83712568 0 -1042.26007983 0 11649.08221845 0 716.32626861 0 4275.34570990 0 3930
0.06150000 0.06148310 33352.72115822 0 338.93050609 0 11112.07446475 0 2080.24624228 0 4072.09104320 0 4083
0.06250000 0.06249100 33859.16929542 0 389.13574852 0 11433.17188449 0 -904.82484802 0 5803.34867952 0 4303
0.06350000 0.06350600 33959.26311178 0 474.84882940 0 12608.83133373 0 -1366.24737635 0 1935.59739085 0 4470
0.06450000 0.06451750 32411.46282538 0 1158.34233323 0 13835.75564688 0 -1427.77628536 0 4080.01882777 0 4479
0.06550000 0.06550280 31878.21966212 0 1966.98743171 0 13985.67492493 0 -908.31263034 0 1651.39295740 0 4636
0.06650000 0.06648880 30698.46345269 0 245.78678802 0 12876.89231759 0 1509.02500488 0 3511.31100811 0 4653
0.06750000 0.06749660 31183.87417274 0 -528.21854226 0 12719.55458192 0 2621.73828753 0 2062.06548493 0 5220
0.06850000 0.06852730 30795.45701810 0 84.53465336 0 11444.57637905 0 2472.25083016 0 2067.10339272 0 5029
0.06950000 0.06949320 30991.10499765 0 313.36893702 0 9867.01368354 0 3314.22362634 0 2025.34965583 0 5040
0.07050000 0.07048030 29615.92225517 0 1263.56263598 0 8598.28027187 0 -56.23545197 0 2512.29942903 0 5475
0.07150000 0.07148790 29855.41664100 0 534.37807656 0 10125.70748060 0 562.80294883 0 4082.75369200 0 5509
0.07250000 0.07249820 28766.12132534 0 692.22846087 0 9598.76447016 0 -660.77309329 0 3099.94092413 0 5916
0.07350000 0.07351270 28703.89485986 0 741.18695952 0 10859.60331423 0 -1447.80612096 0 3388.59643215 0 5721
0.07450000 0.07449140 27513.39849536 0 833.21680172 0 11172.52935826 0 -1245.53689117 0 855.22636899 0 6028
0.07550000 0.07549160 27531.22493832 0 869.21514417 0 12075.58817046 0 -359.98563897 0 -1106.68661625 0 6183
0.07650000 0.07648840 26355.12259608 0 700.01562692 0 10552.55667468 0 -863.65351541 0 -2247.92552933 0 6330
0.07750000 0.07749960 25683.80754232 0 1005.71697900 0 11087.27245715 0 737.98595042 0 -2647.55894901 0 6583
0.07850000 0.07848650 25568.54464096 0 259.86414180 0 11379.80327886 0 1369.42513357 0 -1525.16845447 0 6549
0.07950000 0.07947320 24075.10946942 0 788.04614539 0 10504.02667500 0 1568.45017219 0 -266.61604547 0 6828
0.08050000 0.08048110 24460.31564986 0 958.38611210 0 10647.03682236 0 3030.59495379 0 1498.09662029 0 7147
0.08150000 0.08149960 23323.74150723 0 171.22243100 0 10285.85758678 0 2401.22186645 0 3778.40869971 0 7386
0.08250000 0.08250610 23296.61431142 0 143.72320508 0 10830.75990808 0 994.79080887 0 4634.73122886 0 7227
0.08350000 0.08350160 23210.36090109 0 374.20914743 0 10570.41633462 0 192.86550432 0 4352.30943971 0 7798
0.08450000 0.08449610 23262.06865799 0 -30.60899907 0 10057.87841876 0 -119.57667911 0 5356.40321589 0 7371
0.08550000 0.08548940 22736.24395235 0 296.40945709 0 10282.00441774 0 368.70066583 0 6080.32288486 0 8256
0.08650000 0.08650700 22811.64648437 0 357.57187216 0 9612.80417803 0 704.69257692 0 5105.86972222 0 8037
0.08750000 0.08749060 22002.92387961 0 316.67734767 0 8746.53870119 0 1996.68340687 0 4022.54238964 0 8155
0.08850000 0.08849210 21818.56967138 0 907.96717380 0 7695.96330542 0 516.06555854 0 2778.35632209 0 8718
0.08950000 0.08949900 21256.64918684 0 954.36796542 0 8220.17145164 0 -109.21652623 0 3256.78040518 0 8571
0.09050000 0.09049190 20094.83014362 0 536.54382329 0 7660.55401065 0 -198.97299869 0 3263.24664288 0 8932
0.09150000 0.09150830 20216.51499337 0 -277.42374173 0 7483.92828515 0 1124.93712925 0 2949.92199516 0 9285
0.09250000 0.09250820 19899.95722681 0 -401.81577490 0 7212.92206288 0 639.38689791 0 2702.47768011 0 9204
0.09350000 0.09350330 20412.27369617 0 516.72104017 0 7420.99319088 0 1067.92129983 0 1510.84086615 0 9349
0.09450000 0.09448040 19683.82544635 0 735.73494678 0 6431.81383623 0 126.09384950 0 2138.19879038 0 9564
0.09550000 0.09549270 19086.47352238 0 485.19370248 0 6275.88228581 0 242.96555966 0 1530.82641245 0 10155
0.09650000 0.09649430 18791.06389622 0 454.58204606 0 6622.33532938 0 -144.01329999 0 2158.33934922 0 9913
0.09750000 0.09749140 18372.53001808 0 559.23101685 0 6620.89592716 0 31.69962306 0 1819.83623487 0 10476
0.09850000 0.09850240 17726.45986491 0 646.73670712 0 6587.02568554 0 -100.16124682 0 2434.27275603 0 10575
0.09950000 0.09950330 17434.15048970 0 692.69460575 0 6716.01826967 0 388.80800770 0 2329.14103188 0 10882
0.10050000 0.10051200 16684.44337623 0 168.36355673 0 6467.20098635 0 1006.60387222 0 2708.46780784 0 10875
0.10150000 0.10150300 16914.41556271 0 -210.95879030 0 6542.71424161 0 1389.37746289 0 2319.18701186 0 11118
0.10250000 0.10250800 16431.21930762 0 52.88208767 0 5679.79260687 0 1126.24366358 0 1636.62247609 0 11575
0.10350000 0.10349800 16652.33363425 0 99.10151461 0 5191.12662332 0 624.02404722 0 2062.68553512 0 11364
0.10450000 0.10450100 16579.80990669 0 16.82273671 0 4586.81020705 0 -377.29943329 0 1359.91400655 0 12093
0.10550000 0.10551000 16601.29021684 0 319.83406748 0 5595.48792570 0 -838.67877955 0 2043.96223385 0 12067
0.10650000 0.10649700 16509.72209059 0 504.64888442 0 5692.84687783 0 -1029.47154466 0 1402.24350433 0 12054
0.10750000 0.10749900 16247.75088538 0 199.97393685 0 6419.35747081 0 -627.91043323 0 1698.79357995 0 12807
0.10850000 0.10850100 16165.48351198 0 120.79020591 0 6350.31045324 0 85.07553642 0 1069.91542553 0 12736
0.10950000 0.10950300 16266.68456082 0 55.76908565 0 6696.90743704 0 818.03221546 0 1198.86704206 0 12933
0.11050000 0.11050200 16207.11545329 0 -4.72859133 0 6722.49557969 0 866.89659935 0 907.19986169 0 13428
0.11150000 0.11150900 15489.85025154 0 361.48040282 0 5595.73151685 0 692.57059571 0 641.80730811 0 13453
0.11250000 0.11250000 15592.93359560 0 520.97945630 0 5686.48029106 0 246.28836434 0 820.06841600 0 13668
0.11350000 0.11349100 15014.07245408 0 570.99979090 0 5042.66889216 0 169.52504360 0 532.43266909 0 13791
0.11450000 0.11448600 14674.81642164 0 227.06237952 0 5627.01083446 0 -70.91879408 0 548.17862221 0 14205
0.11550000 0.11549300 14361.58035252 0 136.95358568 0 5095.29565202 0 64.47658333 0 -94.74311539 0 14776
0.11650000 0.11649800 14336.88906818 0 -150.61462004 0 4891.68667093 0 572.61967202 0 -252.90850735 0 14553
0.11750000 0.11747300 14277.98430014 0 2.68024445 0 4239.31636494 0 82.73495768 0 -1283.98000294 0 14568
0.11850000 0.11849100 14351.61526018 0 219.26635562 0 4363.30425826 0 -408.70497540 0 -1420.72321445 0 16015
0.11950000 0.11950300 14038.48991431 0 502.57725245 0 4179.31543675 0 -508.73125058 0 -1149.24088223 0 15270
0.12050000 0.12050700 13495.28165871 0 740.57576719 0 4174.01179316 0 -487.68386833 0 -618.98392496 0 15999
0.12150000 0.12150000 13248.59026175 0 146.05946561 0 4430.79007803 0 248.99776222 0 -636.77936541 0 15670
0.12250000 0.12250700 13461.28962152 0 -399.78953946 0 4620.35935125 0 770.49540332 0 -1440.19943381 0 16887
0.12350000 0.12352200 13327.97883070 0 -45.72571197 0 4543.30704284 0 329.38726933 0 -734.11395843 0 16407
0.12450000 0.12449800 13579.20988084 0 297.03504344 0 4938.51153259 0 628.40315169 0 381.01973443 0 16306
0.12550000 0.12549900 13279.81421774 0 109.99812163 0 4404.73689773 0 523.54602119 0 956.91460013 0 17523
0.12650000 0.12650100 13313.25263869 0 43.98403528 0 4444.23188036 0 584.05738356 0 1440.01120429 0 17154
0.12750000 0.12750600 13389.87312644 0 26.62451226 0 4570.29029842 0 446.07628613 0 1072.82855419 0 18007
0.12850000 0.12850300 13100.22110918 0 317.45905381 0 4171.38765218 0 483.55389118 0 2202.20790016 0 17496
0.12950000 0.12949900 12998.46644410 0 244.13147546 0 4306.51430426 0 238.22328294 0 2276.33711482 0 18405
0.13050000 0.13049000 12794.29277444 0 -35.75774083 0 3853.01402434 0 315.33648914 0 2497.90540676 0 18100
0.13150000 0.13148800 12798.94315087 0 149.47306335 0 4169.46106766 0 268.76739818 0 2169.99850726 0 19059
0.13250000 0.13249300 12548.59788672 0 451.92025917 0 3745.11421898 0 -175.32472734 0 1667.24852654 0 18957
0.13350000 0.13349100 12391.48159754 0 287.25707340 0 4408.78936861 0 -369.20224215 0 1151.89824018 0 19468
0.13450000 0.13450700 11930.98360833 0 175.11324594 0 3894.57953171 0 -409.86978397 0 1106.60135935 0 19953
0.13550000 0.13551000 12060.86197846 0 231.50127454 0 4642.94689388 0 -515.65588252 0 664.10807753 0 19956
0.13650000 0.13649900 11639.44929586 0 375.21562176 0 4001.18387506 0 -86.17280381 0 631.28306337 0 19723
0.13750000 0.13749600 11751.16905328 0 -80.92164304 0 4271.31538367 0 472.60114747 0 477.61912507 0 20946
0.13850000 0.13851100 11578.44078611 0 -138.68197559 0 3518.98412921 0 504.72196177 0 -232.76462680 0 20955
0.13950000 0.13949800 11699.35057313 0 69.50884424 0 3500.43798514 0 618.34726629 0 -50.62001171 0 20506
0.14050000 0.14048300 11497.61281493 0 69.61679940 0 3429.54188933 0 606.83979910 0 -236.59454396 0 21447
0.14150000 0.14148400 11544.11657917 0 14.53796249 0 2636.61949209 0 765.13418364 0 457.48963855 0 21771
0.14250000 0.14249400 11249.26056925 0 114.20660157 0 2574.92449820 0 754.77713101 0 228.91035053 0 22470
0.14350000 0.14350900 11326.10250349 0 143.69441703 0 2283.92165732 0 164.96435301 0 486.99074080 0 22519
0.14450000 0.14449900 11069.54566512 0 320.52719501 0 2209.20560944 0 -99.66775330 0 278.03161236 0 22218
0.14550000 0.14550500 10782.58422279 0 403.34375573 0 2564.52758520 0 -481.27077780 0 846.14706264 0 23559
0.14650000 0.14650700 10503.47305876 0 263.10390404 0 2443.72852142 0 -472.22136673 0 817.95470919 0 23044
0.14750000 0.14750500 10423.50872892 0 142.30484027 0 2875.11736868 0 25.28786121 0 942.42535587 0 23649
0.14850000 0.14849900 10383.51549168 0 187.33377084 0 3077.09871803 0 100.27230224 0 583.39525853 0 23640
0.14950000 0.14949500 10162.83298572 0 122.05577264 0 3060.81132822 0 284.81784024 0 666.20074692 0 24457
0.15050000 0.15050000 10111.60133878 0 208.99455988 0 3017.80641862 0 36.48441751 0 556.18169859 0 24591
0.15150000 0.15149900 9912.36592600 0 5.63736346 0 2893.35348766 0 59.88300793 0 504.72417623 0 25020
0.15250000 0.15250500 10034.65975362 0 98.05285473 0 3037.99126677 0 -180.42685462 0 376.85432583 0 25297
0.15350000 0.15350100 9825.13815107 0 267.59594622 0 2916.20676609 0 -253.21963967 0 382.77026898 0 25452
0.15450000 0.15450400 9713.39624900 0 224.33637315 0 2946.79959956 0 -298.29728847 0 399.55812787 0 26061
0.15550000 0.15549900 9679.93568340 0 -55.32109938 0 2864.90868520 0 172.98293064 0 31.62853874 0 26128
0.15650000 0.15649500 9738.23147357 0 -215.03119137 0 2898.86750542 0 21.32275097 0 -511.40189533 0 26331
0.15750000 0.15749700 9793.21663862 0 41.03713603 0 2964.13886023 0 78.28476889 0 -828.07813577 0 27345
0.15850000 0.15849900 9767.66171294 0 146.82124156 0 2950.51990070 0 15.18181818 0 -725.66688182 0 26980
0.15950000 0.15949700 9684.04351591 0 189.43972702 0 2749.41326502 0 -81.90110090 0 -460.03627326 0 27777
0.16050000 0.16050000 9440.27521270 0 292.32819816 0 2793.84650451 0 267.80299869 0 -165.56779471 0 28224
0.16150000 0.16150500 9407.93295191 0 124.72420292 0 3004.92930486 0 69.13249592 0 -361.06519064 0 28075
0.16250000 0.16249700 9200.33793388 0 223.98316599 0 2714.77903298 0 350.65277638 0 -195.81184995 0 28590
0.16350000 0.16349900 9077.30226050 0 129.09112783 0 2781.41228374 0 41.07599989 0 -235.43637878 0 29163
0.16450000 0.16449100 8889.47134227 0 97.50156367 0 2405.09718013 0 325.56067388 0 238.18785150 0 28996
0.16550000 0.16550500 8772.51437521 0 141.63828631 0 2435.52392873 0 437.42769322 0 248.42421579 0 30777
0.16650000 0.16650700 8697.46615759 0 98.07809963 0 2137.26871509 0 408.05613717 0 63.53200330 0 29211
0.16750000 0.16749900 8500.52271604 0 37.12816247 0 2048.94478002 0 204.31428818 0 6.31723742 0 30922
0.16850000 0.16850800 8438.67270961 0 119.56228509 0 1981.12679050 0 114.02501545 0 -157.36984541 0 30867
0.16950000 0.16949900 8419.01933305 0 88.72065648 0 1874.16813275 0 -223.98205876 0 -248.57037048 0 30852
0.17050000 0.17049200 8535.59984107 0 37.50639309 0 2300.30869805 0 -353.88589523 0 184.95322100 0 31257
0.17150000 0.17149500 8362.39546393 0 159.16466927 0 2305.20266562 0 -252.58187376 0 52.65643369 0 32608
0.17250000 0.17250900 8250.59820024 0 216.79944165 0 2373.96180274 0 65.01846291 0 147.75906747 0 32361
0.17350000 0.17350400 8119.36900649 0 138.71962149 0 2404.49927459 0 354.87908276 0 279.06355303 0 32508
0.17450000 0.17449800 7996.62121355 0 106.83453699 0 2108.52495986 0 602.91687442 0 184.66534056 0 32791
0.17550000 0.17549800 7904.86485778 0 54.12595264 0 1949.86961754 0 462.07579549 0 200.00936829 0 33633
0.17650000 0.17650100 7789.45801619 0 68.65771463 0 1641.71574551 0 137.09198974 0 366.04330788 0 33984
0.17750000 0.17750300 7782.10599251 0 54.96778150 0 1743.51469989 0 -53.33405997 0 434.55442492 0 34069
