### header ###
fiducial parameters:
Omega_m = 0.31
Omega_nu = 0
Omega_de = 0.69
Omega_k = 0
H_0 = 100
w_de = -1
zeff = 0
beta = 0
fgrowth = 0
b_1 = 2
gamma = 0.55
Lx = 3500 Ly = 3500 Lz = 3500
nx = 700 ny = 700 nz = 700
xoffset = -685.467585 yoffset = -31.7331281 zoffset = 572.489161
bins = 400 dk = 0.001
kx_ny = 0.628318531 ky_ny = 0.628318531 kz_ny = 0.628318531
############################
A(data) = 8.10987912 (not used)
A(ran) = 8.11228787 (used)
Ngal = 481985
weighted Ngal = 0
Nran = 23820508
weighted Nran = 0
SN(data) = 3484.39798
SN(ran) = 70.6609694
SN(data+ran) = 3555.05895
############################
13 columns: k_central k_mean P_0(k) sigma^{lin}_{P_0(k)} P^img_1(k) sigma^{lin}_{P_1(k)} P_2(k) sigma^{lin}_{P_2(k)} P^img_3(k) sigma^{lin}_{P_3(k)} P_4(k) sigma^{lin}_{P_4(k)} N_modes
### header ###
0.00050000 0 0 0 0 0 0 0 0 0 0 0 0
0.00150000 0.00179520 14528.44028754 0 -12082.01011886 0 35689.53531119 0 -26794.02955189 0 10303.80582531 0 3
0.00250000 0.00253879 28072.77234520 0 -18940.76172777 0 4211.13729828 0 23144.92346141 0 20185.73393038 0 6
0.00350000 0.00331552 35363.89823827 0 -16079.11937839 0 21499.79743985 0 46817.99681667 0 -12944.32277573 0 7
0.00450000 0.00420575 60304.86350852 0 -16974.75973297 0 19241.26462335 0 32058.25566367 0 -39066.92655062 0 24
0.00550000 0.00557378 86678.36616379 0 -14822.41051147 0 27993.82666924 0 9144.25660868 0 -22449.36001630 0 45
0.00650000 0.00659388 103151.77102898 0 27536.53965423 0 14682.78849551 0 -31947.86458523 0 -47494.29441659 0 40
0.00750000 0.00754703 70535.35947120 0 30483.66035121 0 23580.28727328 0 -15859.11228424 0 3095.27947538 0 57
0.00850000 0.00846663 59612.73248410 0 26454.10917996 0 40884.55939285 0 5426.44674270 0 2085.10699287 0 75
0.00950000 0.00948925 44310.55813824 0 2167.55152347 0 42906.91952098 0 24154.60876162 0 -15474.45972004 0 112
0.01050000 0.01054430 49078.41192839 0 -7358.97709957 0 38931.29057159 0 36374.58004772 0 -17013.18070009 0 105
0.01150000 0.01145670 52111.45386597 0 -7699.55073866 0 23691.67486095 0 26753.83701280 0 -31077.91202422 0 144
0.01250000 0.01249090 57128.76713429 0 1546.77056019 0 27786.22057889 0 10825.44519216 0 633.54735380 0 169
0.01350000 0.01339930 55318.66347294 0 3159.94185232 0 26327.66323053 0 11799.99800573 0 7687.03901162 0 180
0.01450000 0.01448870 56045.00798104 0 -6094.71690712 0 13606.44779989 0 25083.90898365 0 17835.41154112 0 267
0.01550000 0.01550050 61488.16286188 0 -5220.35756085 0 10505.04532889 0 17044.18320958 0 12833.93169729 0 238
0.01650000 0.01653350 61162.63651222 0 -2408.28600968 0 2910.46022950 0 7821.32416702 0 12485.26418875 0 315
0.01750000 0.01747870 67888.74166980 0 963.20700232 0 1313.47667626 0 2934.90792270 0 19640.75410280 0 297
0.01850000 0.01844180 65576.28663143 0 -2530.97844100 0 2505.41244299 0 -6933.19084867 0 22046.54883940 0 388
0.01950000 0.01947590 72805.07533578 0 -3083.76425757 0 7790.65382727 0 -19344.12652091 0 10745.22619885 0 399
0.02050000 0.02045430 72689.70171116 0 3084.11857196 0 16433.21232609 0 -15682.73014988 0 2369.16748610 0 462
0.02150000 0.02154770 71980.63002978 0 4450.94170920 0 28697.58363471 0 -13761.23890085 0 5879.09445361 0 571
0.02250000 0.02255340 74533.57596321 0 -2729.54951429 0 25987.41068885 0 -2314.06052547 0 -12372.10502911 0 510
0.02350000 0.02348930 72597.24779893 0 -8307.21099704 0 24330.99089598 0 18124.62066539 0 -18418.70161257 0 555
0.02450000 0.02439640 82432.35104234 0 -6295.56887933 0 11719.17003455 0 4293.64826282 0 -36900.29403011 0 592
0.02550000 0.02547300 81665.26037890 0 1169.00498203 0 6566.26507650 0 2089.22589771 0 -32166.65372364 0 837
0.02650000 0.02652900 77211.52844385 0 6935.12850551 0 -2452.46458571 0 -262.49824787 0 -16524.22683610 0 723
0.02750000 0.02749970 72426.51255023 0 6920.19193933 0 218.91314845 0 -504.19381187 0 -18222.94290978 0 826
0.02850000 0.02848090 66648.53056686 0 5706.78693478 0 737.63606495 0 2787.29168822 0 -14087.54031326 0 831
0.02950000 0.02946900 60126.15618594 0 6756.78656966 0 7893.27213369 0 -446.77494983 0 -9958.10569982 0 996
0.03050000 0.03053250 54508.83363570 0 5376.12302639 0 8542.24323596 0 -1277.53590990 0 232.66276141 0 1041
0.03150000 0.03150510 54290.59811352 0 2003.02784899 0 17810.27736379 0 -2586.42864369 0 7385.76105330 0 1036
0.03250000 0.03246190 50649.24265042 0 489.71010378 0 13610.21239033 0 6236.60874968 0 13671.77451632 0 1059
0.03350000 0.03345080 50972.55453512 0 3166.76240441 0 20520.45030965 0 4122.61406135 0 8021.53394439 0 1302
0.03450000 0.03451200 49422.98267675 0 -304.81999502 0 18861.81605181 0 496.24498988 0 12528.77842529 0 1339
0.03550000 0.03553350 49603.12940155 0 -386.64336820 0 14602.62486382 0 6683.05595869 0 10966.98272032 0 1365
0.03650000 0.03647120 52318.17417033 0 -1048.33767892 0 18162.59873951 0 317.62624591 0 8384.18579918 0 1308
0.03750000 0.03744890 49425.30786496 0 396.43905397 0 16377.07563926 0 2093.85412948 0 5435.76964019 0 1579
0.03850000 0.03847530 48765.72947552 0 2826.91953875 0 19593.69672232 0 -3315.65195624 0 6242.51029880 0 1662
0.03950000 0.03950240 47181.61196371 0 5080.70232791 0 17808.17362207 0 -1814.98655660 0 9577.85992090 0 1683
0.04050000 0.04050350 45540.80414884 0 1153.61445053 0 23954.86402189 0 -462.35371085 0 12825.51673043 0 1822
0.04150000 0.04152450 43695.15832482 0 3011.69449532 0 24815.84799979 0 1291.40953290 0 11032.74125742 0 1887
0.04250000 0.04250150 42612.06351106 0 1495.80464905 0 26362.54105371 0 1572.19261797 0 10856.74665443 0 1920
0.04350000 0.04349210 41766.13789491 0 292.61607861 0 24973.07501222 0 1806.21727534 0 11872.52173329 0 2005
0.04450000 0.04448520 41884.83321697 0 881.13007291 0 23428.70714651 0 4161.51113844 0 10624.83681110 0 2151
0.04550000 0.04548030 40025.67915667 0 576.45291087 0 21513.85929237 0 2539.81415620 0 6493.76349359 0 2274
0.04650000 0.04648670 40069.52556295 0 -855.48989032 0 19219.89503645 0 3476.59926981 0 1851.82418127 0 2311
0.04750000 0.04749250 40262.84835428 0 -308.48272007 0 18117.20220776 0 1327.58281808 0 -1283.19386788 0 2568
0.04850000 0.04851840 41385.36064440 0 154.99483174 0 14575.82983776 0 -20.74588284 0 -4259.93303375 0 2493
0.04950000 0.04949480 39535.61806020 0 676.33413859 0 14957.60359751 0 -1520.92775406 0 -4423.90309199 0 2644
0.05050000 0.05050630 39936.43621863 0 -814.88103182 0 11544.44874891 0 2528.76397603 0 -5752.21668351 0 2829
0.05150000 0.05149060 39744.22065978 0 -746.45406444 0 11988.89186713 0 2125.02272384 0 -6775.42129233 0 2784
0.05250000 0.05249300 40105.17844887 0 1220.23662896 0 10795.20667309 0 2170.67391907 0 -8809.72845893 0 3055
0.05350000 0.05348950 38210.03933291 0 2035.95694300 0 11072.76771164 0 2474.81960951 0 -2654.71167084 0 3009
0.05450000 0.05448610 36575.32129668 0 1450.75135936 0 8864.01606752 0 821.66615247 0 -2140.31360442 0 3336
0.05550000 0.05550870 35852.40920927 0 1318.56994568 0 11759.14112715 0 2055.32243911 0 -307.75637557 0 3349
0.05650000 0.05647670 34870.95833735 0 905.81360662 0 9109.99883569 0 634.04560841 0 1517.72785219 0 3324
0.05750000 0.05747970 33888.51095619 0 32.17861183 0 8665.73287466 0 1668.71007342 0 981.90483724 0 3639
0.05850000 0.05849280 34583.29933856 0 -93.75668197 0 8870.98055983 0 -276.96313301 0 2392.23113869 0 3846
0.05950000 0.05951020 34326.75357251 0 -374.51142190 0 8473.63911139 0 1592.00100707 0 878.16158262 0 3787
0.06050000 0.06049470 34458.84640760 0 558.70951035 0 8632.73734670 0 -171.87016200 0 122.01037611 0 3930
0.06150000 0.06148310 33700.72432727 0 689.45041457 0 8972.20375332 0 -1161.34293325 0 -645.11239707 0 4083
0.06250000 0.06249100 32937.28753102 0 1349.60567214 0 10777.16985596 0 -786.09963068 0 -949.16065106 0 4303
0.06350000 0.06350600 32136.09410714 0 1432.99135035 0 10134.83107625 0 -2001.44450654 0 -1576.72119882 0 4470
0.06450000 0.06451750 31132.49858558 0 679.15868866 0 10587.94382480 0 -401.47696176 0 15.36318286 0 4479
0.06550000 0.06550280 30589.95466947 0 44.56311787 0 10075.26196873 0 1944.10093631 0 -1106.24704496 0 4636
0.06650000 0.06648880 30869.86304088 0 -388.04401729 0 8622.32936137 0 1923.87179886 0 -2752.79032409 0 4653
0.06750000 0.06749660 31031.18681349 0 -461.04496205 0 8370.78828614 0 1859.89590606 0 -3949.56469676 0 5220
0.06850000 0.06852730 30746.51734240 0 912.73380964 0 8781.98121293 0 209.39094911 0 -1029.48483145 0 5029
0.06950000 0.06949320 30402.38948704 0 512.89112302 0 7395.59327774 0 215.76971544 0 160.62400168 0 5040
0.07050000 0.07048030 30095.57536631 0 835.95166595 0 9216.66961299 0 1264.23804779 0 1617.01338884 0 5475
0.07150000 0.07148790 29768.38816792 0 501.90959126 0 8656.47641112 0 388.13038143 0 3217.16362698 0 5509
0.07250000 0.07249820 28690.49734683 0 196.72088782 0 8561.83017857 0 1512.59029348 0 2686.37851982 0 5916
0.07350000 0.07351270 28879.83410123 0 612.98493938 0 8953.28115020 0 1518.56934888 0 4509.68039236 0 5721
0.07450000 0.07449140 28891.68148878 0 156.44641353 0 8312.94646129 0 -510.97228913 0 1454.79275792 0 6028
0.07550000 0.07549160 28178.84521696 0 596.49824772 0 9807.22312952 0 -311.57079147 0 2637.97031572 0 6183
0.07650000 0.07648840 27745.36370031 0 1079.78418864 0 9371.25033978 0 -2290.14430386 0 2621.47255174 0 6330
0.07750000 0.07749960 27113.35539966 0 761.24669040 0 10170.83827656 0 -1533.43948111 0 2612.89150000 0 6583
0.07850000 0.07848650 26177.41178274 0 853.66849289 0 10837.01577160 0 -513.49456472 0 1111.88285829 0 6549
0.07950000 0.07947320 25998.04012068 0 714.85364941 0 10566.79568440 0 691.87082478 0 1295.43985913 0 6828
0.08050000 0.08048110 25308.34500772 0 333.49399461 0 10648.05547625 0 1692.73701827 0 719.37447963 0 7147
0.08150000 0.08149960 24924.24605977 0 550.99542165 0 9826.69934887 0 1097.40800805 0 271.70710042 0 7386
0.08250000 0.08250610 25469.22588734 0 -134.76126537 0 9609.62642080 0 1783.79581758 0 714.79718055 0 7227
0.08350000 0.08350160 24408.16499997 0 46.04913458 0 8250.63141721 0 1144.72337370 0 1211.76630048 0 7798
0.08450000 0.08449610 24221.37488028 0 931.40174928 0 8493.44750049 0 156.01459286 0 1437.13239984 0 7371
0.08550000 0.08548940 23876.91485517 0 729.07051447 0 8287.36939096 0 -388.60316970 0 1302.50400237 0 8256
0.08650000 0.08650700 23106.28104779 0 658.10909194 0 9628.17256488 0 -368.12490494 0 -154.91178931 0 8037
0.08750000 0.08749060 22251.27612530 0 706.28809893 0 9095.26157135 0 -627.81742570 0 327.28352762 0 8155
0.08850000 0.08849210 21642.96259976 0 566.56532481 0 9198.48885564 0 -1046.07338850 0 -1713.47548266 0 8718
0.08950000 0.08949900 21939.25801191 0 442.68483304 0 9122.89809410 0 289.29105947 0 -1099.10760991 0 8571
0.09050000 0.09049190 20916.72881490 0 455.21538304 0 8279.24230454 0 461.03167526 0 -1159.41634873 0 8932
0.09150000 0.09150830 20372.52405007 0 722.51901988 0 8333.89529985 0 1313.08914489 0 -638.66830403 0 9285
0.09250000 0.09250820 19570.00194721 0 674.77183356 0 7219.17792641 0 1824.23194782 0 -1234.60850658 0 9204
0.09350000 0.09350330 19123.12291753 0 262.55693119 0 6346.44621188 0 2248.50129022 0 -193.48112558 0 9349
0.09450000 0.09448040 18715.66136421 0 46.27888532 0 5815.81611727 0 906.94851992 0 502.08674846 0 9564
0.09550000 0.09549270 18491.22534013 0 416.60729363 0 5801.55496290 0 642.57019129 0 488.00385852 0 10155
0.09650000 0.09649430 18500.19392324 0 404.63146710 0 6283.14573089 0 -158.88121775 0 726.49841342 0 9913
0.09750000 0.09749140 17999.39267169 0 226.01161590 0 6434.03937352 0 -1516.01164184 0 1337.88008016 0 10476
0.09850000 0.09850240 17703.54015253 0 507.33392319 0 6434.51548348 0 207.22188068 0 884.57135146 0 10575
0.09950000 0.09950330 17619.94410015 0 400.77497637 0 6618.65931754 0 -37.69107947 0 877.01116807 0 10882
0.10050000 0.10051200 17095.22662700 0 67.92683047 0 6827.46121897 0 662.45387220 0 1036.26109424 0 10875
0.10150000 0.10150300 16871.12277267 0 -22.36543179 0 6159.81110473 0 1394.78075740 0 1525.15738214 0 11118
0.10250000 0.10250800 17211.81820734 0 -189.27032045 0 5675.21973672 0 624.34514464 0 881.19982855 0 11575
0.10350000 0.10349800 17400.26917575 0 -44.52757570 0 5443.81922034 0 357.55637090 0 389.32729974 0 11364
0.10450000 0.10450100 17167.52890806 0 536.53385820 0 6321.47811941 0 -861.52541458 0 738.44988083 0 12093
0.10550000 0.10551000 16778.11524419 0 554.71350832 0 6509.92908782 0 -888.50202677 0 1296.56923626 0 12067
0.10650000 0.10649700 16425.68314521 0 444.22277896 0 7096.35262719 0 -528.03695614 0 855.93499778 0 12054
0.10750000 0.10749900 16196.81819121 0 422.75021944 0 6517.17038826 0 42.95829511 0 189.16845506 0 12807
0.10850000 0.10850100 16054.87098704 0 103.68822517 0 7196.49073285 0 371.61933066 0 918.99188762 0 12736
0.10950000 0.10950300 15882.69633611 0 -141.66928882 0 6482.62473482 0 552.54443989 0 173.58858681 0 12933
0.11050000 0.11050200 16238.45013253 0 -163.37879609 0 6164.58327673 0 579.07373016 0 -180.37592192 0 13428
0.11150000 0.11150900 15953.44849170 0 262.30005326 0 5940.88909842 0 -114.99162940 0 -668.45728672 0 13453
0.11250000 0.11250000 15779.72371529 0 479.10503107 0 5649.54301547 0 -208.14309810 0 -390.91064219 0 13668
0.11350000 0.11349100 15675.64386200 0 250.40837640 0 6212.86968526 0 94.87000423 0 -986.24740304 0 13791
0.11450000 0.11448600 15061.68345080 0 415.46905864 0 5812.46120285 0 -10.86516162 0 -218.75149251 0 14205
0.11550000 0.11549300 15036.43855022 0 310.28308009 0 5639.09074084 0 572.87765719 0 -694.75405816 0 14776
0.11650000 0.11649800 14718.55210467 0 36.77196579 0 5611.46529041 0 920.70145457 0 850.22167817 0 14553
0.11750000 0.11747300 14612.03633992 0 -20.12693989 0 4948.93059024 0 1432.24950459 0 393.79830450 0 14568
0.11850000 0.11849100 14410.63075147 0 216.79722718 0 4658.54779955 0 762.82892561 0 -42.78966360 0 16015
0.11950000 0.11950300 14225.83365024 0 315.90560663 0 4220.32732788 0 626.76666208 0 836.96699813 0 15270
0.12050000 0.12050700 13811.28580903 0 572.09373659 0 4383.71055290 0 -142.89720964 0 1206.03083622 0 15999
0.12150000 0.12150000 13638.22537212 0 288.89245577 0 4191.41748777 0 -86.03373541 0 1593.35183070 0 15670
0.12250000 0.12250700 13182.59920583 0 308.48382731 0 4489.17444680 0 131.81491973 0 1881.26549296 0 16887
0.12350000 0.12352200 13177.06304342 0 -29.11135641 0 4646.06928948 0 366.78626087 0 1998.87572719 0 16407
0.12450000 0.12449800 13316.13144314 0 -228.38330787 0 4698.99500211 0 49.32831430 0 1411.14565349 0 16306
0.12550000 0.12549900 13481.66269918 0 157.19047375 0 4902.63720017 0 508.38357958 0 1972.64538969 0 17523
0.12650000 0.12650100 13359.20278669 0 157.59682807 0 4888.70821555 0 -288.60125363 0 1773.22174738 0 17154
0.12750000 0.12750600 13269.18478591 0 129.92376665 0 4476.02052491 0 483.14975132 0 2642.25530542 0 18007
0.12850000 0.12850300 13328.86461669 0 -100.74852293 0 4373.51294174 0 525.80698992 0 1966.30094757 0 17496
0.12950000 0.12949900 13182.59920583 0 -35.39645087 0 3877.11847547 0 731.46213663 0 1879.53821029 0 18405
0.13050000 0.13049000 13313.69553168 0 42.30403143 0 3684.40466200 0 211.05290507 0 1334.74661224 0 18100
0.13150000 0.13148800 12961.04198621 0 394.48811034 0 3536.50054708 0 4.39967685 0 1222.63932345 0 19059
0.13250000 0.13249300 12818.76261229 0 479.27443763 0 3577.26884706 0 -250.85569832 0 1350.28108396 0 18957
0.13350000 0.13349100 12200.92688741 0 200.76339361 0 3231.86767434 0 8.36530749 0 1102.91095349 0 19468
0.13450000 0.13450700 12377.86263801 0 50.75044370 0 3651.30948312 0 112.96317950 0 891.55355949 0 19953
0.13550000 0.13551000 12271.67904300 0 -4.36692491 0 3416.41011209 0 135.42892655 0 140.09037530 0 19956
0.13650000 0.13649900 12212.77427497 0 186.76908227 0 3670.61961760 0 -292.77219839 0 220.09013658 0 19723
0.13750000 0.13749600 11883.59405811 0 430.17089153 0 3446.00643633 0 -388.05508962 0 273.25833313 0 20946
0.13850000 0.13851100 11599.81037301 0 362.39497685 0 3446.57112490 0 239.70476000 0 421.33074739 0 20955
0.13950000 0.13949800 11488.53350858 0 -128.91175617 0 3210.77489556 0 570.32437908 0 536.76526979 0 20506
0.14050000 0.14048300 11539.57692599 0 -210.96875540 0 2960.10853399 0 729.11480377 0 -194.38684175 0 21447
0.14150000 0.14148400 11643.54605604 0 201.96363362 0 2772.72050876 0 584.16146341 0 -42.75711097 0 21771
0.14250000 0.14249400 11394.52947087 0 239.07695918 0 2326.17364882 0 57.88843934 0 134.80555467 0 22470
0.14350000 0.14350900 11105.98468610 0 181.43332894 0 2050.53919479 0 -184.56679687 0 537.41632249 0 22519
0.14450000 0.14449900 11042.70634976 0 318.95271042 0 2672.43846288 0 -245.38154093 0 179.21222058 0 22218
0.14550000 0.14550500 10727.07865848 0 210.26787724 0 2678.72754338 0 -225.60526157 0 7.48599881 0 23559
0.14650000 0.14650700 10640.20519795 0 245.50776544 0 2844.57989683 0 -231.39608745 0 171.29218664 0 23044
0.14750000 0.14750500 10389.08487106 0 272.19871164 0 2892.09124263 0 98.76834836 0 457.48410239 0 23649
0.14850000 0.14849900 10334.81940713 0 -40.33791872 0 2819.12462208 0 197.97206052 0 578.57104661 0 23640
0.14950000 0.14949500 10500.81570081 0 -64.87419051 0 2906.00915493 0 244.65741089 0 476.50414197 0 24457
0.15050000 0.15050000 10516.39446183 0 79.72815715 0 3320.49056219 0 -332.69125106 0 609.15280776 0 24591
0.15150000 0.15149900 10307.79186224 0 452.62335180 0 3253.46978006 0 154.41464192 0 846.17806515 0 25020
0.15250000 0.15250500 10191.54352397 0 139.07725758 0 3237.42598140 0 -12.68821990 0 1278.86458888 0 25297
0.15350000 0.15350100 9982.77483952 0 82.11579328 0 3286.95249031 0 291.42137476 0 1262.51076512 0 25452
0.15450000 0.15450400 10016.10253722 0 286.00036453 0 3306.09653992 0 178.75271910 0 752.41983305 0 26061
0.15550000 0.15549900 9557.37611998 0 406.09190675 0 3296.19788154 0 -163.37990333 0 897.17719327 0 26128
0.15650000 0.15649500 9279.73757516 0 254.45088219 0 3263.61202960 0 59.13916915 0 1007.58155850 0 26331
0.15750000 0.15749700 9168.28355353 0 -130.29026061 0 3378.73099073 0 170.26024597 0 1118.61483178 0 27345
0.15850000 0.15849900 9403.93584265 0 -106.75160527 0 3312.73993482 0 328.49705442 0 632.10462987 0 26980
0.15950000 0.15949700 9377.18510589 0 12.49312554 0 3170.29447602 0 211.42604241 0 348.89559843 0 27777
0.16050000 0.16050000 9306.16721450 0 221.98682582 0 3015.89090643 0 -12.60484530 0 514.84871004 0 28224
0.16150000 0.16150500 9084.23353583 0 246.00602005 0 3052.93890527 0 -183.09639213 0 720.34995145 0 28075
0.16250000 0.16249700 8969.04814075 0 141.98927901 0 2831.50348122 0 242.27021766 0 722.48026674 0 28590
0.16350000 0.16349900 8928.08053892 0 -32.32343784 0 2966.85157981 0 187.57071859 0 204.82915129 0 29163
0.16450000 0.16449100 8827.01235797 0 82.73584347 0 2871.76245426 0 71.45181580 0 193.89965946 0 28996
0.16550000 0.16550500 8756.81381862 0 286.82525273 0 2723.50402494 0 100.24905035 0 412.21379514 0 30777
0.16650000 0.16650700 8450.27650602 0 226.61505760 0 2594.06854781 0 201.01252092 0 644.84333958 0 29211
0.16750000 0.16749900 8485.78545171 0 59.44133290 0 2664.95357130 0 -88.27078792 0 406.54919376 0 30922
0.16850000 0.16850800 8399.88635577 0 116.32363008 0 2480.20075938 0 37.23578547 0 342.88886222 0 30867
0.16950000 0.16949900 8415.81943118 0 69.30046308 0 2665.65112776 0 32.47003542 0 129.15645454 0 30852
0.17050000 0.17049200 8200.14161604 0 22.10445710 0 2547.85266402 0 30.59161552 0 372.28367014 0 31257
0.17150000 0.17149500 8297.30126632 0 -112.57896983 0 2368.76888240 0 275.41079307 0 70.16786901 0 32608
0.17250000 0.17250900 8308.21857859 0 -48.23824392 0 2251.76762604 0 547.26294095 0 -111.74411653 0 32361
0.17350000 0.17350400 8337.70417959 0 29.44031518 0 1952.20587807 0 138.22579580 0 -323.93082766 0 32508
0.17450000 0.17449800 8245.75959429 0 108.46515826 0 2116.98421603 0 43.69803713 0 -107.39202854 0 32791
0.17550000 0.17549800 8156.40593301 0 248.86157262 0 2229.27973434 0 -365.05344204 0 39.08563878 0 33633
0.17650000 0.17650100 7990.97432789 0 182.20174829 0 2417.99643855 0 -327.16505374 0 308.75620650 0 33984
0.17750000 0.17750300 7897.81178687 0 199.89643058 0 2525.32048301 0 -156.39548083 0 439.95329051 0 34069
0.17850000 0.17849800 7852.86922043 0 89.09777986 0 2684.73981575 0 131.80938357 0 412.82609470 0 34536
