### header ###
fiducial parameters:
Omega_m = 0.31
Omega_nu = 0
Omega_de = 0.69
Omega_k = 0
H_0 = 100
w_de = -1
zeff = 0
beta = 0
fgrowth = 0
b_1 = 2
gamma = 0.55
Lx = 3500 Ly = 3500 Lz = 3500
nx = 700 ny = 700 nz = 700
xoffset = -685.467585 yoffset = -31.7331281 zoffset = 572.489161
bins = 400 dk = 0.001
kx_ny = 0.628318531 ky_ny = 0.628318531 kz_ny = 0.628318531
############################
A(data) = 8.07496122 (not used)
A(ran) = 8.06654767 (used)
Ngal = 479548
weighted Ngal = 0
Nran = 23820508
weighted Nran = 0
SN(data) = 3493.8625
SN(ran) = 70.2625557
SN(data+ran) = 3564.12505
############################
13 columns: k_central k_mean P_0(k) sigma^{lin}_{P_0(k)} P^img_1(k) sigma^{lin}_{P_1(k)} P_2(k) sigma^{lin}_{P_2(k)} P^img_3(k) sigma^{lin}_{P_3(k)} P_4(k) sigma^{lin}_{P_4(k)} N_modes
### header ###
0.00050000 0 0 0 0 0 0 0 0 0 0 0 0
0.00150000 0.00179520 33925.16035134 0 -40159.32211723 0 655.09741959 0 -62117.84597432 0 73643.58249429 0 3
0.00250000 0.00253879 44747.25062908 0 -15489.96097479 0 -11608.33606312 0 45936.63976110 0 -1199.05527159 0 6
0.00350000 0.00331552 54600.18031545 0 -12430.56690415 0 12134.38221525 0 -54495.54684592 0 -14662.96903409 0 7
0.00450000 0.00420575 54645.13395422 0 -13062.02158856 0 -15846.48983395 0 13665.57401442 0 32361.96953344 0 24
0.00550000 0.00557378 66965.08833343 0 -10252.58525070 0 -21932.06100077 0 6534.42107032 0 1853.82827206 0 45
0.00650000 0.00659388 78969.48145531 0 -551.73062402 0 -23925.52236112 0 6664.12228325 0 -8568.56215206 0 40
0.00750000 0.00754703 70544.21733106 0 8305.30655717 0 -16081.99818284 0 -20416.59190285 0 3792.22696109 0 57
0.00850000 0.00846663 63141.03951081 0 17786.13969568 0 4638.71726580 0 -37639.92532800 0 36829.87404426 0 75
0.00950000 0.00948925 57623.03571419 0 2936.41375888 0 5112.21416434 0 -4973.58865761 0 11177.29045793 0 112
0.01050000 0.01054430 58231.45996298 0 -18204.45212733 0 21281.00830144 0 -6394.01291930 0 -5374.90507066 0 105
0.01150000 0.01145670 81455.99343983 0 -14894.60206929 0 21686.03394330 0 227.82415547 0 -23115.80324714 0 144
0.01250000 0.01249090 80946.00215868 0 5049.26799775 0 36328.85134622 0 -24807.21158643 0 -22155.94340861 0 169
0.01350000 0.01339930 73409.73499412 0 17530.14754587 0 24160.69854027 0 -33193.72257382 0 -14662.63686434 0 180
0.01450000 0.01448870 70170.19419868 0 11466.49958219 0 41665.93335530 0 -15742.52070390 0 -22999.43311329 0 267
0.01550000 0.01550050 61809.59245137 0 1732.75240017 0 45912.28064650 0 -6903.74953697 0 -24083.74588278 0 238
0.01650000 0.01653350 60116.63398660 0 4582.33698782 0 44459.25946055 0 6711.55612277 0 -45731.35885897 0 315
0.01750000 0.01747870 60101.79707134 0 -4455.35956680 0 40542.75672570 0 14527.00088531 0 -32352.66878060 0 297
0.01850000 0.01844180 67671.61338011 0 -11333.85313086 0 29185.31954297 0 16259.48754969 0 -26923.02213603 0 388
0.01950000 0.01947590 77678.66982795 0 -12693.20244885 0 27200.60531923 0 16821.40803423 0 -19702.42695204 0 399
0.02050000 0.02045430 80125.54288962 0 214.66026849 0 15837.63197410 0 18112.99472433 0 -26006.89798053 0 462
0.02150000 0.02154770 83123.81772726 0 3580.59054450 0 7496.96041146 0 8499.00580754 0 -7347.16292899 0 571
0.02250000 0.02255340 76491.05226790 0 3093.67398828 0 5094.16627489 0 -145.08288656 0 -20101.03064552 0 510
0.02350000 0.02348930 78229.73943417 0 2074.66579057 0 9155.24035490 0 -1114.07517860 0 -20889.82306560 0 555
0.02450000 0.02439640 76841.04845542 0 -121.51433595 0 5816.44723978 0 -7187.94289809 0 -22452.68171375 0 592
0.02550000 0.02547300 76182.24512871 0 -259.03039574 0 7350.15245669 0 -9296.96611257 0 -20510.81738705 0 837
0.02650000 0.02652900 75943.85797537 0 3908.85175840 0 6387.05949931 0 -5481.27689520 0 -5147.43522959 0 723
0.02750000 0.02749970 73448.37740774 0 3762.64170917 0 16594.31465220 0 5700.12139524 0 -16489.12756642 0 826
0.02850000 0.02848090 68838.08279975 0 3978.37488594 0 16715.44588572 0 -2147.78742367 0 -552.47911317 0 831
0.02950000 0.02946900 67418.05714176 0 5517.89307337 0 21188.55438920 0 3272.71348060 0 -5771.23893755 0 996
0.03050000 0.03053250 61431.58328206 0 2947.13176930 0 22706.90229158 0 2578.76659491 0 12224.40021603 0 1041
0.03150000 0.03150510 61747.58743239 0 283.77704171 0 22861.02905306 0 3783.46875216 0 11911.49631665 0 1036
0.03250000 0.03246190 64639.01433553 0 -1991.35761863 0 19226.98132433 0 7766.12862780 0 4086.98332008 0 1059
0.03350000 0.03345080 62999.53519963 0 -110.96573210 0 22118.74039722 0 1362.10632687 0 8658.22583844 0 1302
0.03450000 0.03451200 61804.94207495 0 5720.12908618 0 19863.08638516 0 -5568.67075499 0 -5695.14992139 0 1339
0.03550000 0.03553350 54597.96585049 0 7311.21109030 0 22211.63720245 0 -4349.91781755 0 1717.22900077 0 1365
0.03650000 0.03647120 50606.17130687 0 6263.06053367 0 24121.94540341 0 -2539.21625066 0 -3022.61180759 0 1308
0.03750000 0.03744890 47510.01711783 0 1919.48715824 0 26459.09172613 0 2552.42553417 0 -322.91549548 0 1579
0.03850000 0.03847530 45206.97355555 0 359.04670582 0 24971.30344024 0 3169.91801698 0 -2179.66464682 0 1662
0.03950000 0.03950240 45996.65176162 0 584.67411205 0 21700.64941206 0 6482.38114368 0 -2977.44779466 0 1683
0.04050000 0.04050350 45288.79803596 0 -395.08712311 0 23822.21757057 0 3480.10919677 0 -3516.48178380 0 1822
0.04150000 0.04152450 43253.70473430 0 2794.74336282 0 23416.30614271 0 2253.89351241 0 3982.52700775 0 1887
0.04250000 0.04250150 43873.86564739 0 1423.13698127 0 22707.23446133 0 -604.04182262 0 -1897.51966580 0 1920
0.04350000 0.04349210 41455.00556751 0 -829.60943829 0 19826.99060625 0 3208.53828595 0 2596.69268879 0 2005
0.04450000 0.04448520 41504.60958270 0 437.13538384 0 19037.31240019 0 3707.31330205 0 -9.38555578 0 2151
0.04550000 0.04548030 42669.41815362 0 -804.21506132 0 15926.65346564 0 5078.76467106 0 1943.52517542 0 2274
0.04650000 0.04648670 42243.46581784 0 -159.03512307 0 15846.71128045 0 3913.66821970 0 2498.63618020 0 2311
0.04750000 0.04749250 40859.42521551 0 2041.90278143 0 12638.06227125 0 1734.98900978 0 3373.60450434 0 2568
0.04850000 0.04851840 40358.18107097 0 2024.87354586 0 12837.14267149 0 896.05003060 0 4083.34052522 0 2493
0.04950000 0.04949480 37429.21898670 0 2275.86100485 0 12321.50450469 0 -1058.97707584 0 6447.78012862 0 2644
0.05050000 0.05050630 38083.15049049 0 967.78208694 0 14794.72969943 0 -696.62749552 0 8756.76952932 0 2829
0.05150000 0.05149060 37215.85528744 0 -1154.48916419 0 12294.82020187 0 3419.77609884 0 6528.24271307 0 2784
0.05250000 0.05249300 37351.93415946 0 -209.75855029 0 12065.84452462 0 1586.12160260 0 3545.67950435 0 3055
0.05350000 0.05348950 37729.50043578 0 146.68948089 0 11040.94585011 0 2027.17658942 0 4167.50126617 0 3009
0.05450000 0.05448610 36784.92040550 0 315.06964611 0 8576.39028570 0 1117.31936977 0 3466.01412728 0 3336
0.05550000 0.05550870 36467.36612970 0 134.63836256 0 7134.93967919 0 3238.27855041 0 2417.03314629 0 3349
0.05650000 0.05647670 35232.35901943 0 528.81423334 0 8340.16223570 0 1390.16359796 0 1604.68989132 0 3324
0.05750000 0.05747970 35390.47181784 0 1853.36323442 0 8605.64336787 0 -114.52327006 0 2852.98379137 0 3639
0.05850000 0.05849280 33468.31622932 0 2283.12444993 0 8511.53967924 0 -2230.48661774 0 3323.57974081 0 3846
0.05950000 0.05951020 32054.15890348 0 1938.56477390 0 10749.11258487 0 -1058.59618787 0 5699.03630741 0 3787
0.06050000 0.06049470 31968.90200238 0 190.94999212 0 12518.37043996 0 -1851.73560267 0 6225.04924256 0 3930
0.06150000 0.06148310 32144.28762751 0 -775.74700698 0 13327.86810745 0 1610.32570465 0 4507.41056577 0 4083
0.06250000 0.06249100 32779.28545586 0 -599.96167093 0 13757.69575691 0 612.45346779 0 3765.55373060 0 4303
0.06350000 0.06350600 32329.74906822 0 1215.02156397 0 12363.80078549 0 806.83809507 0 4418.26727866 0 4470
0.06450000 0.06451750 31189.18888865 0 1208.00171004 0 12439.42476400 0 998.48121473 0 6334.62096897 0 4479
0.06550000 0.06550280 30438.81743569 0 835.23971546 0 12046.91084918 0 1403.37288146 0 4057.32056190 0 4636
0.06650000 0.06648880 30190.35446676 0 -186.20550094 0 12524.79238836 0 3655.71626840 0 4732.40020609 0 4653
0.06750000 0.06749660 29330.92061434 0 -58.10047436 0 11885.80852307 0 235.74086771 0 2255.38827626 0 5220
0.06850000 0.06852730 29555.68880816 0 1253.50896504 0 11497.72353818 0 -888.39794692 0 3000.79932770 0 5029
0.06950000 0.06949320 29049.24067095 0 760.79826124 0 10854.85328688 0 -1777.24100129 0 2002.47423275 0 5040
0.07050000 0.07048030 28662.70581153 0 64.36486357 0 12628.31862541 0 165.45485700 0 2149.27111520 0 5475
0.07150000 0.07148790 28823.25452140 0 467.52559377 0 11179.50492289 0 -24.69748485 0 2198.14435695 0 5509
0.07250000 0.07249820 27682.25144884 0 643.76046621 0 10661.48620625 0 1565.01775149 0 1202.02265464 0 5916
0.07350000 0.07351270 28378.36851019 0 -540.46453351 0 10030.34154694 0 2342.09565191 0 435.38927822 0 5721
0.07450000 0.07449140 27219.20682493 0 633.50860066 0 9961.13951682 0 1111.21851880 0 -1562.31610424 0 6028
0.07550000 0.07549160 27119.77734805 0 1054.72751757 0 8283.25048613 0 -671.07256984 0 -583.82154304 0 6183
0.07650000 0.07648840 26228.34447691 0 1001.08763999 0 10238.98843582 0 -1818.91723191 0 -1231.24251983 0 6330
0.07750000 0.07749960 25532.89175505 0 1049.35522557 0 10277.37618597 0 -1173.30104406 0 -660.57600591 0 6583
0.07850000 0.07848650 25281.77142816 0 696.90098195 0 11561.61085238 0 -733.39979348 0 -1559.14941934 0 6549
0.07950000 0.07947320 24280.72254131 0 511.37864345 0 10431.44758582 0 970.79929545 0 -1236.98905641 0 6828
0.08050000 0.08048110 24362.43629847 0 -249.72299949 0 9682.85877715 0 1868.20014968 0 -474.96841051 0 7147
0.08150000 0.08149960 24277.06867412 0 -478.75071667 0 9125.86547715 0 3075.07248258 0 -1648.06018763 0 7386
0.08250000 0.08250610 24268.76443050 0 425.44411606 0 7773.50279613 0 2830.85021406 0 -1136.55199798 0 7227
0.08350000 0.08350160 23636.09179036 0 653.12100961 0 6849.04118004 0 1152.00896343 0 78.29340530 0 7798
0.08450000 0.08449610 23015.59870753 0 538.87676213 0 7198.61661922 0 822.98597359 0 -200.14445065 0 7371
0.08550000 0.08548940 22808.87840316 0 -94.95980079 0 7118.50834916 0 -221.02796249 0 300.55825720 0 8256
0.08650000 0.08650700 22402.96697531 0 1033.48083348 0 6918.37607806 0 -721.15933839 0 -1580.25327044 0 8037
0.08750000 0.08749060 22182.95988117 0 599.93620458 0 7142.32491984 0 -1903.75338467 0 -1459.96353361 0 8155
0.08850000 0.08849210 21581.51119702 0 234.57716638 0 7800.81822146 0 -1406.77208518 0 -1618.67423756 0 8718
0.08950000 0.08949900 21571.43538143 0 312.69241797 0 7623.80496458 0 -1521.17134521 0 -2210.11354008 0 8571
0.09050000 0.09049190 21343.56693666 0 594.13762807 0 8163.74688436 0 650.05508287 0 -3155.07002940 0 8932
0.09150000 0.09150830 20872.88240862 0 398.69005760 0 8146.81729971 0 -110.44267548 0 -1753.57944315 0 9285
0.09250000 0.09250820 20486.12610271 0 602.12963213 0 7624.02641108 0 1200.41716754 0 -1770.36508758 0 9204
0.09350000 0.09350330 20062.49895515 0 43.73036832 0 8115.25010166 0 1839.84392582 0 -312.04800867 0 9349
0.09450000 0.09448040 19709.62396318 0 230.11059054 0 7462.99051891 0 2080.41232715 0 426.58567275 0 9564
0.09550000 0.09549270 19701.31971956 0 243.03752977 0 6858.10941407 0 1245.60332512 0 1085.28491961 0 10155
0.09650000 0.09649430 19038.97324891 0 534.84200697 0 6448.36696183 0 1482.27426812 0 1307.38689761 0 9913
0.09750000 0.09749140 18842.21803688 0 538.37518582 0 5853.83848069 0 -37.67956425 0 1187.89436817 0 10476
0.09850000 0.09850240 17785.69680269 0 378.68568836 0 6139.98057098 0 404.16089330 0 1272.92982278 0 10575
0.09950000 0.09950330 17637.99198961 0 493.10155687 0 5291.14293341 0 -650.08829984 0 -73.45767816 0 10882
0.10050000 0.10051200 17233.96285697 0 334.43624945 0 5222.43915791 0 28.43018699 0 -88.09263421 0 10875
0.10150000 0.10150300 16967.67344509 0 283.74382473 0 5448.61353698 0 -477.67227223 0 -597.43939533 0 11118
0.10250000 0.10250800 16610.25879994 0 512.47148191 0 5151.62056837 0 -144.57245239 0 -152.02634146 0 11575
0.10350000 0.10349800 16366.33548419 0 205.19896693 0 5457.21673337 0 782.03276578 0 -107.85850559 0 11364
0.10450000 0.10450100 16339.42973488 0 221.95471608 0 5193.35216061 0 659.46213004 0 559.47792969 0 12093
0.10550000 0.10551000 16111.89345985 0 196.84711232 0 5292.41625077 0 1107.93003833 0 -344.25740156 0 12067
0.10650000 0.10649700 15805.07933913 0 557.37086628 0 5213.29341761 0 -164.33987389 0 -303.65740092 0 12054
0.10750000 0.10749900 15548.64429633 0 275.08194503 0 4901.21994260 0 -434.85337770 0 -101.10394455 0 12807
0.10850000 0.10850100 15376.24819890 0 100.74597629 0 5233.29003623 0 -474.96841051 0 -274.66119668 0 12736
0.10950000 0.10950300 15535.13606005 0 -145.07513594 0 5420.61162752 0 -837.14636980 0 -754.10725535 0 12933
0.11050000 0.11050200 15516.53455435 0 -224.16807381 0 5312.55680961 0 369.00294030 0 -1294.97482149 0 13428
0.11150000 0.11150900 15899.85843958 0 233.04918555 0 5053.03258819 0 -84.92594931 0 -1740.10442385 0 13453
0.11250000 0.11250000 15589.27972841 0 38.48751179 0 4632.95965689 0 232.24754923 0 -1813.58037135 0 13668
0.11350000 0.11349100 15783.82047548 0 24.71608635 0 5031.49691641 0 660.40549211 0 -1585.52369706 0 13791
0.11450000 0.11448600 15302.28506911 0 283.05180443 0 3938.02733430 0 620.82968151 0 -824.98895715 0 14205
0.11550000 0.11549300 15309.92497324 0 318.33044577 0 4257.62999019 0 452.35983047 0 -1919.11069919 0 14776
0.11650000 0.11649800 14838.35465921 0 344.58514238 0 4116.90074174 0 49.91880138 0 -991.83339091 0 14553
0.11750000 0.11747300 14349.51151847 0 606.47884131 0 4265.73493196 0 124.04436218 0 -1387.92698834 0 14568
0.11850000 0.11849100 14283.74190905 0 141.66596712 0 4060.90799514 0 -171.63875041 0 -868.00161737 0 16015
0.11950000 0.11950300 14113.78172308 0 -84.86449791 0 4417.54757754 0 418.26371342 0 -210.44724890 0 15270
0.12050000 0.12050700 14274.21970970 0 -69.76727230 0 4414.00443360 0 476.26830145 0 -138.10621470 0 15999
0.12150000 0.12150000 14358.03720858 0 18.66284637 0 4507.49914437 0 646.10226291 0 -57.74184176 0 15670
0.12250000 0.12250700 14179.99422550 0 221.24498006 0 4084.61384257 0 489.54401890 0 329.17025177 0 16887
0.12350000 0.12352200 14036.16472610 0 150.80727849 0 4295.65235362 0 79.18450600 0 800.76160321 0 16407
0.12450000 0.12449800 13900.08585408 0 196.89804502 0 4077.23967424 0 79.78517962 0 726.59031371 0 16306
0.12550000 0.12549900 13722.48576399 0 375.83345748 0 4304.01195885 0 -1.02293334 0 1005.39920328 0 17523
0.12650000 0.12650100 13545.32856689 0 353.43857330 0 3648.27566612 0 -267.36896356 0 487.30962376 0 17154
0.12750000 0.12750600 13287.67556836 0 15.00399664 0 4415.86458417 0 -221.11986279 0 754.43499617 0 18007
0.12850000 0.12850300 13309.70949475 0 12.98706195 0 3918.82792306 0 -48.40156071 0 -79.25304369 0 17496
0.12950000 0.12949900 13226.33488887 0 215.03672754 0 4227.23645856 0 -30.06568009 0 -138.01874333 0 18405
0.13050000 0.13049000 13239.17878566 0 160.52435076 0 4402.97639808 0 114.60299080 0 492.69188085 0 18100
0.13150000 0.13148800 13223.89897741 0 -119.67079387 0 4056.96624750 0 556.91468650 0 -79.31095195 0 19059
0.13250000 0.13249300 12966.46742537 0 169.49736279 0 3907.17983735 0 545.10273038 0 514.41578214 0 18957
0.13350000 0.13349100 13068.33281370 0 356.96953769 0 3948.92250192 0 209.58803649 0 -69.49921131 0 19468
0.13450000 0.13450700 12758.63988853 0 352.43431344 0 3904.99858937 0 292.46770946 0 604.46921436 0 19953
0.13550000 0.13551000 12362.69355301 0 163.76411300 0 3744.23950532 0 200.32935848 0 836.27829953 0 19956
0.13650000 0.13649900 12303.89950822 0 224.98521138 0 3817.32792145 0 9.55771936 0 613.01926358 0 19723
0.13750000 0.13749600 12193.17626004 0 93.05248212 0 3694.14830784 0 -145.88120118 0 461.90528169 0 20946
0.13850000 0.13851100 12124.41712291 0 359.65125476 0 3968.22156408 0 -305.55519739 0 12.40753647 0 20955
0.13950000 0.13949800 11712.30519316 0 406.98433613 0 3892.92975531 0 -156.88155589 0 781.52454607 0 20506
0.14050000 0.14048300 11430.84669627 0 178.66192604 0 4160.14924249 0 393.93227963 0 919.30191272 0 21447
0.14150000 0.14148400 11463.51005449 0 -81.91571637 0 3913.44677320 0 518.34867192 0 775.84112174 0 21771
0.14250000 0.14249400 11462.84571500 0 53.47412488 0 4031.49990042 0 540.57304230 0 655.80715561 0 22470
0.14350000 0.14350900 11381.79629733 0 207.13773101 0 3694.17045249 0 212.60081608 0 1029.09508562 0 22519
0.14450000 0.14449900 11272.40172812 0 223.39633277 0 3904.44497312 0 -18.08675331 0 1250.87375174 0 22218
0.14550000 0.14550500 11192.12737318 0 -5.44213623 0 3937.26334389 0 9.69518227 0 1309.20275888 0 23559
0.14650000 0.14650700 11077.52881131 0 206.05042871 0 3991.92741152 0 -7.46497247 0 1378.09476390 0 23044
0.14750000 0.14750500 10910.74638257 0 273.82080723 0 3933.56518740 0 355.07395568 0 1139.09863269 0 23649
0.14850000 0.14849900 10640.78095884 0 144.12513047 0 3971.12251318 0 12.87589581 0 1164.19959306 0 23640
0.14950000 0.14949500 10594.06682043 0 211.29096005 0 3622.15605187 0 233.98701146 0 756.08698703 0 24457
0.15050000 0.15050000 10485.74626673 0 -13.89377463 0 3558.20230372 0 54.60018032 0 823.45986909 0 24591
0.15150000 0.15149900 10340.22270164 0 68.79766881 0 3317.89963818 0 249.67538850 0 749.37051480 0 25020
0.15250000 0.15250500 10311.95505638 0 101.71613339 0 3215.15953619 0 143.20169858 0 680.65123804 0 25297
0.15350000 0.15350100 10144.45292652 0 193.29843222 0 3323.19220944 0 -75.12450594 0 382.33623385 0 25452
0.15450000 0.15450400 10036.49775954 0 339.92369363 0 3330.20099105 0 -90.00493543 0 447.93975840 0 26061
0.15550000 0.15549900 9783.94910275 0 173.86650216 0 3192.23982381 0 -203.20927016 0 396.47669987 0 26128
0.15650000 0.15649500 9701.03953451 0 108.38720910 0 3302.18800926 0 137.01005454 0 961.35238791 0 26331
0.15750000 0.15749700 9766.45482954 0 -126.71168522 0 3033.86128961 0 314.44073806 0 306.05234478 0 27345
0.15850000 0.15849900 9685.21718234 0 31.38705133 0 3037.02797451 0 548.49971963 0 420.36524067 0 26980
0.15950000 0.15949700 9765.13722288 0 136.65906184 0 2741.79550554 0 272.35815312 0 351.53081174 0 27777
0.16050000 0.16050000 9566.44435401 0 120.43478428 0 2682.24854267 0 172.46474584 0 464.99556755 0 28224
0.16150000 0.16150500 9529.26348727 0 28.81816125 0 2527.04776568 0 -1.03867375 0 570.67869348 0 28075
0.16250000 0.16249700 9357.44315073 0 164.90124076 0 2713.68287283 0 184.75945532 0 634.55493536 0 28590
0.16350000 0.16349900 9301.09608973 0 347.21039059 0 2825.01509888 0 -129.88390629 0 202.96678625 0 29163
0.16450000 0.16449100 8952.51715979 0 163.94127019 0 2495.10410858 0 250.40173301 0 523.36443506 0 28996
0.16550000 0.16550500 8913.98546942 0 110.45286201 0 2570.87202732 0 80.25741428 0 163.12856155 0 30777
0.16650000 0.16650700 8750.61331672 0 158.43943199 0 2448.40104250 0 216.02437891 0 353.20605448 0 29211
0.16750000 0.16749900 8814.17953351 0 97.30868378 0 2695.51318780 0 18.26457485 0 36.16564528 0 30922
0.16850000 0.16850800 8585.58031530 0 182.76754408 0 2468.01012975 0 -112.75280533 0 617.89772990 0 30867
0.16950000 0.16949900 8514.51813462 0 236.38527702 0 2651.63356454 0 -250.99853131 0 169.66455489 0 30852
0.17050000 0.17049200 8374.20963451 0 120.73927322 0 2787.03702475 0 -212.49673622 0 540.02828391 0 31257
0.17150000 0.17149500 8263.59710958 0 122.47209205 0 2862.93781138 0 52.96623734 0 388.32857604 0 32608
0.17250000 0.17250900 8247.84119136 0 2.37375143 0 2779.20889110 0 163.83497588 0 206.58190030 0 32361
0.17350000 0.17350400 8223.71459558 0 -59.57951551 0 2519.66252503 0 257.79472429 0 48.51881663 0 32508
0.17450000 0.17449800 8244.63021716 0 -30.59814819 0 2484.13143469 0 362.33850799 0 -21.86285897 0 32791
0.17550000 0.17549800 8292.07512901 0 69.60495202 0 2072.45132561 0 337.53317870 0 -171.19475018 0 33633
0.17650000 0.17650100 8117.25419245 0 66.52429908 0 2061.03575872 0 318.83755825 0 29.66873724 0 33984
0.17750000 0.17750300 8036.84696961 0 115.41348498 0 1765.18323956 0 243.83252269 0 162.69784812 0 34069
