### header ###
fiducial parameters:
Omega_m = 0.31
Omega_nu = 0
Omega_de = 0.69
Omega_k = 0
H_0 = 100
w_de = -1
zeff = 0
beta = 0
fgrowth = 0
b_1 = 2
gamma = 0.55
Lx = 3500 Ly = 3500 Lz = 3500
nx = 700 ny = 700 nz = 700
xoffset = -685.467585 yoffset = -31.7331281 zoffset = 572.489161
bins = 400 dk = 0.001
kx_ny = 0.628318531 ky_ny = 0.628318531 kz_ny = 0.628318531
############################
A(data) = 8.06802653 (not used)
A(ran) = 8.06678168 (used)
Ngal = 480098
weighted Ngal = 0
Nran = 23820508
weighted Nran = 0
SN(data) = 3488.23231
SN(ran) = 70.264594
SN(data+ran) = 3558.4969
############################
13 columns: k_central k_mean P_0(k) sigma^{lin}_{P_0(k)} P^img_1(k) sigma^{lin}_{P_1(k)} P_2(k) sigma^{lin}_{P_2(k)} P^img_3(k) sigma^{lin}_{P_3(k)} P_4(k) sigma^{lin}_{P_4(k)} N_modes
### header ###
0.00050000 0 0 0 0 0 0 0 0 0 0 0 0
0.00150000 0.00179520 16607.26927224 0 -20165.47157596 0 -6841.35698662 0 -5234.56335359 0 -15003.88591525 0 3
0.00250000 0.00253879 24906.75178655 0 -14566.08619192 0 3807.27425052 0 7574.45561286 0 31322.72112596 0 6
0.00350000 0.00331552 38896.41274842 0 -10719.85950269 0 10089.29060427 0 -27598.87684296 0 -9826.98722932 0 7
0.00450000 0.00420575 48126.19199399 0 -6288.56009772 0 18924.70685678 0 -5750.10186947 0 13067.00413473 0 24
0.00550000 0.00557378 57691.90557456 0 -7128.79453891 0 14523.56846462 0 13259.55186332 0 7262.28248693 0 45
0.00650000 0.00659388 68833.76459307 0 -4131.79301863 0 22318.48513695 0 13610.21239033 0 21697.43843787 0 40
0.00750000 0.00754703 72518.30212297 0 -5410.48045031 0 31969.12344888 0 -5938.72999508 0 -12218.53188387 0 57
0.00850000 0.00846663 80370.46271461 0 5557.19982648 0 16490.45624540 0 13618.18446420 0 579.40811436 0 75
0.00950000 0.00948925 62599.27065744 0 13054.38168443 0 10473.23453968 0 9168.72644653 0 -4098.11100653 0 112
0.01050000 0.01054430 66417.78331764 0 1426.86835473 0 25690.11876747 0 4717.54114618 0 2536.78033920 0 105
0.01150000 0.01145670 63909.79102297 0 -3334.35311286 0 14149.65605549 0 -6813.77582550 0 -29442.19747877 0 144
0.01250000 0.01249090 62589.08411860 0 3499.14252314 0 20247.73894936 0 -6984.87646092 0 -16781.21549514 0 169
0.01350000 0.01339930 62188.93029966 0 -3079.50141251 0 7665.50333985 0 -13060.47146308 0 -23534.89074152 0 180
0.01450000 0.01448870 63740.71662299 0 -5231.30809009 0 22701.14468268 0 1531.93364493 0 -21091.00720755 0 267
0.01550000 0.01550050 73244.75735432 0 -3503.12856007 0 19049.93485048 0 -3875.90051974 0 -28151.60729790 0 238
0.01650000 0.01653350 65464.56687401 0 6848.31040661 0 14479.61133509 0 317.22874945 0 -24316.37542722 0 315
0.01750000 0.01747870 65371.11645254 0 10958.22451139 0 14488.57991819 0 -5072.94062821 0 -30335.51264513 0 297
0.01850000 0.01844180 54013.01493032 0 4122.87979715 0 15068.76973869 0 -1949.12777178 0 -15073.97373135 0 388
0.01950000 0.01947590 55129.99105803 0 1604.55702342 0 10938.53791786 0 1414.68879743 0 -15992.31235181 0 399
0.02050000 0.02045430 51552.85507887 0 646.51193893 0 12509.62330335 0 -7050.71250429 0 -27315.09315786 0 462
0.02150000 0.02154770 49872.18689464 0 3399.66875697 0 12988.50135176 0 -1567.11042088 0 -16528.54504278 0 571
0.02250000 0.02255340 52497.21366265 0 -441.89869798 0 14060.96673370 0 1811.73129310 0 -19711.50625840 0 510
0.02350000 0.02348930 54259.37415754 0 -3825.95326248 0 14409.41279574 0 537.95000855 0 -4889.15110855 0 555
0.02450000 0.02439640 59237.04850301 0 -5405.52004879 0 12189.63311610 0 11609.22184910 0 -4927.88210076 0 592
0.02550000 0.02547300 62145.63750962 0 -7375.54129750 0 12862.94118832 0 2764.92559209 0 -19958.52982510 0 837
0.02650000 0.02652900 72090.46749198 0 -1657.07306003 0 15074.85951734 0 -7091.24828545 0 -16060.29642620 0 723
0.02750000 0.02749970 65467.55640171 0 5025.99397098 0 18576.70368773 0 -9840.97157556 0 -16015.23206419 0 826
0.02850000 0.02848090 67238.13186346 0 3919.00508026 0 13966.18763325 0 -3232.84203892 0 -286.03579597 0 831
0.02950000 0.02946900 62669.46919679 0 -1899.14729754 0 15951.45547323 0 3596.90007896 0 -8339.25430506 0 996
0.03050000 0.03053250 66369.95087443 0 613.14105916 0 19598.45782200 0 13286.56833588 0 -19988.86799510 0 1041
0.03150000 0.03150510 60463.41919992 0 3193.43563489 0 10588.90711706 0 -61.78224381 0 -6271.29834333 0 1036
0.03250000 0.03246190 57833.07771600 0 5963.78666614 0 9304.26277463 0 2891.21652897 0 -4938.20150749 0 1059
0.03350000 0.03345080 55929.52363318 0 1648.86846734 0 7804.25064215 0 1247.50776499 0 -127.21658324 0 1302
0.03450000 0.03451200 54074.35560982 0 2203.18226474 0 10240.39462107 0 3186.91403558 0 -1999.79473015 0 1339
0.03550000 0.03553350 50941.55202563 0 2198.73119016 0 7057.13445269 0 -301.62009315 0 4049.97961054 0 1365
0.03650000 0.03647120 49444.79515664 0 1755.47281070 0 12704.71766666 0 3854.67487306 0 4735.06863637 0 1308
0.03750000 0.03744890 49402.60959908 0 1385.45785991 0 8027.66801234 0 674.25807769 0 6628.87907335 0 1579
0.03850000 0.03847530 47646.53888285 0 -997.33522911 0 10473.32311828 0 2297.67348474 0 6299.76529044 0 1662
0.03950000 0.03950240 47952.91011058 0 2115.97663447 0 14565.31112918 0 -622.04431554 0 9379.03418413 0 1683
0.04050000 0.04050350 47828.78934936 0 1466.69550710 0 14497.54850129 0 903.31347568 0 15330.51949740 0 1822
0.04150000 0.04152450 46439.43403112 0 536.18175827 0 15427.29161632 0 2076.37092859 0 11042.34096304 0 1887
0.04250000 0.04250150 46232.71372675 0 1452.58936528 0 13484.98439663 0 3025.49061205 0 18112.21966159 0 1920
0.04350000 0.04349210 45332.42299575 0 190.19485957 0 15980.46496426 0 4325.12688228 0 12555.24128161 0 2005
0.04450000 0.04448520 44323.29131178 0 1843.97390297 0 15343.80628718 0 4826.52603937 0 17989.09540961 0 2151
0.04550000 0.04548030 41886.93695868 0 1386.89726213 0 11657.38646206 0 1947.65515257 0 10228.80189699 0 2274
0.04650000 0.04648670 40754.68102273 0 1225.36311535 0 11658.05080155 0 2409.92471375 0 15958.54176111 0 2311
0.04750000 0.04749250 40401.25241452 0 1550.82303107 0 7440.95659252 0 1547.46811665 0 13415.89308976 0 2568
0.04850000 0.04851840 37589.21408033 0 823.06015816 0 9672.17398370 0 1031.98164070 0 12997.80210461 0 2493
0.04950000 0.04949480 37844.76333714 0 1371.11919927 0 7439.57255192 0 -556.27802782 0 10164.67099164 0 2644
0.05050000 0.05050630 37453.02448506 0 134.07699569 0 10066.43732585 0 -1413.82515609 0 3823.42877243 0 2829
0.05150000 0.05149060 36441.23544313 0 1005.86424092 0 9075.59712248 0 -3683.31957417 0 3844.34439401 0 2784
0.05250000 0.05249300 35657.42556922 0 880.81783335 0 9677.71014611 0 -1403.28430287 0 1503.23417900 0 3055
0.05350000 0.05348950 35560.54272705 0 360.67987373 0 9967.26251245 0 1547.97744360 0 2819.62287669 0 3009
0.05450000 0.05448610 36103.41881291 0 -142.79977319 0 8425.55200470 0 929.11642144 0 213.42016811 0 3336
0.05550000 0.05550870 35304.43985400 0 -86.96657878 0 7932.42387425 0 3731.26274064 0 -1029.89782917 0 3349
0.05650000 0.05647670 34667.89190017 0 731.64261553 0 6733.61219381 0 625.76683115 0 1869.45132238 0 3324
0.05750000 0.05747970 35262.25429644 0 332.06455747 0 6478.93765066 0 756.27853825 0 -58.19281755 0 3639
0.05850000 0.05849280 35170.35400044 0 -471.55370554 0 8074.53716330 0 240.60161831 0 1584.02893321 0 3846
0.05950000 0.05951020 35525.55418063 0 -558.29761987 0 7401.70520104 0 -1585.15831034 0 1186.17815782 0 3787
0.06050000 0.06049470 36327.74411374 0 822.02600302 0 8676.43981276 0 -1527.56007663 0 1721.51399048 0 3930
0.06150000 0.06148310 35521.78959019 0 856.60155173 0 11402.05865175 0 -1497.99696936 0 3300.06212290 0 4083
0.06250000 0.06249100 33943.20824079 0 2897.71598364 0 12425.91652773 0 -1.03400345 0 3328.36298513 0 4303
0.06350000 0.06350600 31895.38176559 0 1848.65749637 0 12684.01241925 0 -146.28976997 0 2497.88326211 0 4470
0.06450000 0.06451750 30482.88528847 0 642.63994694 0 12694.86329757 0 1929.90621589 0 5707.86095029 0 4479
0.06550000 0.06550280 30121.15243665 0 -114.94734010 0 12003.28588940 0 2187.54814210 0 2976.90525074 0 4636
0.06650000 0.06648880 31221.07718413 0 -568.14977449 0 11822.80699485 0 2886.23398280 0 3574.47862120 0 4653
0.06750000 0.06749660 31153.86817248 0 -620.82525258 0 9815.05126316 0 1507.45273476 0 2356.34573396 0 5220
0.06850000 0.06852730 30962.20622987 0 561.74332735 0 9524.94528059 0 841.50886577 0 3210.98526973 0 5029
0.06950000 0.06949320 30566.48134085 0 860.98619236 0 9338.88593434 0 -232.34720016 0 2986.95892168 0 5040
0.07050000 0.07048030 29385.72862219 0 1162.04048972 0 8669.36459720 0 1120.71857349 0 1767.16518571 0 5475
0.07150000 0.07148790 28537.03492484 0 846.23785570 0 8765.23985781 0 1544.01355131 0 3157.98205083 0 5509
0.07250000 0.07249820 28126.91601356 0 446.56568289 0 7776.44803453 0 598.84890228 0 1755.17385793 0 5916
0.07350000 0.07351270 27459.47627349 0 283.88555049 0 8202.22321311 0 514.20430074 0 2085.57203052 0 5721
0.07450000 0.07449140 27907.57325890 0 299.55953350 0 8015.35558714 0 -683.36617209 0 2029.60142856 0 6028
0.07550000 0.07549160 26904.97424657 0 222.06876103 0 8391.52675053 0 -398.06004232 0 373.98548647 0 6183
0.07650000 0.07648840 26464.40644204 0 1356.73624933 0 8266.69736052 0 -1280.24862948 0 1563.47869834 0 6330
0.07750000 0.07749960 26040.22567824 0 992.92180044 0 9546.90170071 0 -1405.72021433 0 2358.84807936 0 6583
0.07850000 0.07848650 25787.33377938 0 -93.31899297 0 10703.40602801 0 552.90539768 0 1973.33187383 0 6549
0.07950000 0.07947320 25634.64642013 0 -44.29417110 0 10727.00115220 0 769.72144781 0 1346.47220422 0 6828
0.08050000 0.08048110 25782.12978671 0 292.55518082 0 10585.68507054 0 1595.45557242 0 1904.84954483 0 7147
0.08150000 0.08149960 25534.77405027 0 296.41388602 0 9959.66689762 0 1523.15329135 0 3600.28821036 0 7386
0.08250000 0.08250610 25224.97040184 0 204.34086176 0 9805.89445054 0 1759.09346091 0 4469.04496028 0 7227
0.08350000 0.08350160 24274.96493240 0 650.44482870 0 8997.69224505 0 1173.97645587 0 3759.49716892 0 7798
0.08450000 0.08449610 23541.09124342 0 1300.28953740 0 8877.28071265 0 572.83668959 0 5366.05828313 0 7371
0.08550000 0.08548940 22537.38499861 0 1021.15622872 0 8741.20184063 0 1175.24977323 0 5989.38588112 0 8256
0.08650000 0.08650700 21763.09732404 0 309.20906458 0 6668.31869435 0 1228.28620911 0 4268.69124268 0 8037
0.08750000 0.08749060 21835.95322135 0 -379.97229250 0 7734.35105557 0 1391.13796254 0 3906.15011115 0 8155
0.08850000 0.08849210 21834.40309587 0 335.09062385 0 6835.42222052 0 -418.72764383 0 1820.52271901 0 8718
0.08950000 0.08949900 21654.47781757 0 593.92282497 0 6924.70944786 0 -1851.34807130 0 1854.82478129 0 8571
0.09050000 0.09049190 20840.66194340 0 597.66194906 0 7180.15905375 0 -1568.21765336 0 1799.14205978 0 8932
0.09150000 0.09150830 20964.67198137 0 653.01692976 0 7750.99275977 0 -1002.28234384 0 311.46006822 0 9285
0.09250000 0.09250820 20127.16133209 0 609.69202998 0 7814.97972490 0 793.80929046 0 1131.84625994 0 9204
0.09350000 0.09350330 19782.70130698 0 456.92052106 0 7130.14536254 0 892.26218828 0 -628.14738098 0 9349
0.09450000 0.09448040 19421.07917840 0 20.62231570 0 6108.11442016 0 1788.68978515 0 -32.45763442 0 9564
0.09550000 0.09549270 19353.31655051 0 -139.09054437 0 6168.31465019 0 1585.15831034 0 -49.09789922 0 10155
0.09650000 0.09649430 18716.76859669 0 134.64168426 0 4654.99358328 0 1441.12950910 0 616.54358457 0 9913
0.09750000 0.09749140 19012.73183909 0 380.49933516 0 4405.84413021 0 755.16909130 0 -223.43619314 0 10476
0.09850000 0.09850240 18407.51856450 0 88.82462561 0 4433.22598949 0 521.61722221 0 1235.45000326 0 10575
0.09950000 0.09950330 17663.34761344 0 1156.78113543 0 3918.97186329 0 -306.09441961 0 787.48920745 0 10882
0.10050000 0.10051200 17398.05471079 0 608.45635853 0 4499.48278120 0 -456.32482998 0 517.85927516 0 10875
0.10150000 0.10150300 16626.64584067 0 96.12018043 0 4295.72985989 0 391.04904625 0 945.05835471 0 11118
0.10250000 0.10250800 16636.16804002 0 181.45879529 0 3960.96919132 0 250.48145374 0 130.84498408 0 11575
0.10350000 0.10349800 17003.76922400 0 -424.11543709 0 4243.96674136 0 106.19455661 0 -205.80130140 0 11364
0.10450000 0.10450100 16824.50828518 0 175.40001915 0 4390.28751384 0 -477.05665097 0 66.38467707 0 12093
0.10550000 0.10551000 16627.42090341 0 731.47320896 0 4336.37636430 0 -159.90983673 0 355.99738757 0 12067
0.10650000 0.10649700 16016.89291291 0 504.83711394 0 4398.30387701 0 503.68448493 0 927.71909404 0 12054
0.10750000 0.10749900 15688.04486580 0 266.26283831 0 4562.97149171 0 641.35555726 0 1257.43964035 0 12807
0.10850000 0.10850100 15808.51175982 0 -16.15673638 0 4586.78806240 0 477.90146936 0 324.26631910 0 12736
0.10950000 0.10950300 15581.08620805 0 473.49689854 0 4946.11821974 0 -66.30739224 0 82.45659943 0 12933
0.11050000 0.11050200 15259.43517207 0 505.89230650 0 4570.02456262 0 -829.44335342 0 1099.56157523 0 13428
0.11150000 0.11150900 14976.86944269 0 324.79446900 0 5010.30448671 0 -505.60664052 0 1315.15966963 0 13453
0.11250000 0.11250000 14929.92278546 0 -105.94299339 0 4945.38744630 0 381.78151037 0 1456.87435499 0 13668
0.11350000 0.11349100 14736.37854763 0 429.71249728 0 5537.55752225 0 451.18062787 0 -19.94723605 0 13791
0.11450000 0.11448600 14378.41028625 0 550.75736666 0 4827.43397001 0 -84.56200200 0 445.88362768 0 14205
0.11550000 0.11549300 14079.12534640 0 348.74501481 0 5080.79090651 0 244.76481244 0 1226.94645780 0 14776
0.11650000 0.11649800 13886.68834105 0 8.16338150 0 5240.34310714 0 82.59267831 0 1484.65481796 0 14553
0.11750000 0.11747300 14200.81019615 0 -33.51681301 0 5525.88729189 0 373.71200005 0 1032.87739178 0 14568
0.11850000 0.11849100 14322.27359942 0 -207.16762629 0 5340.28191096 0 92.02032000 0 1411.53318486 0 16015
0.11950000 0.11950300 14002.83702840 0 -20.11420671 0 4858.24824998 0 285.33048888 0 1235.05139957 0 15270
0.12050000 0.12050700 14369.99531938 0 -52.41992884 0 4835.11816343 0 520.23318160 0 667.59032369 0 15999
0.12150000 0.12150000 14141.35181188 0 56.86137049 0 4189.95594090 0 395.20006082 0 49.40449189 0 15670
0.12250000 0.12250700 14064.50987764 0 138.51810518 0 4145.95452207 0 371.76327088 0 -208.48634017 0 16887
0.12350000 0.12352200 13798.77408199 0 367.74069527 0 3797.46417073 0 308.21587705 0 282.47604354 0 16407
0.12450000 0.12449800 13569.02334200 0 306.42216043 0 3241.71097110 0 335.89558186 0 -88.30278694 0 16306
0.12550000 0.12549900 13392.97337739 0 -34.57798462 0 3581.95244046 0 -39.79304961 0 245.35607459 0 17523
0.12650000 0.12650100 13493.51008674 0 164.33655219 0 3987.40990299 0 -57.97513564 0 201.53734912 0 17154
0.12750000 0.12750600 13317.23867563 0 -8.62019240 0 3826.57331267 0 -36.60200560 0 782.10473589 0 18007
0.12850000 0.12850300 13288.45063110 0 183.45956439 0 4158.06764542 0 325.53631476 0 813.94874207 0 17496
0.12950000 0.12949900 13260.88054230 0 206.77566599 0 4019.28712614 0 -224.76155042 0 1068.26011297 0 18405
0.13050000 0.13049000 13003.55971351 0 489.95037323 0 4008.36981387 0 503.75202611 0 920.63502063 0 18100
0.13150000 0.13148800 12487.81082346 0 373.88583555 0 3532.50343782 0 456.03584231 0 1234.49778333 0 19059
0.13250000 0.13249300 12248.09499114 0 184.94768484 0 3562.56479970 0 284.48234880 0 1275.34358959 0 18957
0.13350000 0.13349100 12247.43065165 0 145.42502140 0 3712.89375376 0 106.26320503 0 1096.36831675 0 19468
0.13450000 0.13450700 11917.69681855 0 212.61521010 0 3601.42865981 0 -72.64762688 0 1082.97633988 0 19953
0.13550000 0.13551000 11848.49478843 0 203.38974906 0 3922.64787513 0 -70.05891733 0 1566.52358767 0 19956
0.13650000 0.13649900 11811.51322354 0 224.08503138 0 3895.47639002 0 -225.03503685 0 1375.60349082 0 19723
0.13750000 0.13749600 11509.12803274 0 155.48533573 0 3878.51358840 0 232.82220289 0 1834.86137965 0 20946
0.13850000 0.13851100 11545.00236515 0 258.69047537 0 4007.53938951 0 464.58699876 0 1705.11587742 0 20955
0.13950000 0.13949800 11448.45169274 0 -34.16055798 0 3715.38502685 0 484.07429044 0 1527.29434083 0 20506
0.14050000 0.14048300 11219.91890848 0 34.63722156 0 3507.67928557 0 766.84596506 0 1465.34468347 0 21447
0.14150000 0.14148400 11178.84058340 0 104.38954622 0 2860.26938110 0 154.34045734 0 1432.14985367 0 21771
0.14250000 0.14249400 11222.46554319 0 -55.17638410 0 2913.38332326 0 431.18733095 0 960.17761425 0 22470
0.14350000 0.14350900 11143.85203697 0 -57.25886695 0 2424.21908509 0 -1.26534528 0 699.54837481 0 22519
0.14450000 0.14449900 11183.93385282 0 149.94695886 0 2476.49153056 0 -109.39733729 0 875.54187057 0 22218
0.14550000 0.14550500 11011.46024912 0 270.84235185 0 2321.51220008 0 -107.77900629 0 305.23077828 0 23559
0.14650000 0.14650700 10818.17067476 0 11.50791008 0 2409.37109751 0 39.65741363 0 333.89481277 0 23044
0.14750000 0.14750500 10902.15425851 0 1.00802556 0 2609.07154794 0 46.28641450 0 368.43825174 0 23649
0.14850000 0.14849900 10916.55935310 0 240.59054598 0 2632.77739538 0 54.30809239 0 309.10498473 0 23640
0.14950000 0.14949500 10606.58961980 0 387.49261552 0 2849.04204374 0 -53.63124117 0 658.43904722 0 24457
0.15050000 0.15050000 10298.88971309 0 302.91001899 0 2970.32828980 0 -139.86117818 0 899.50570317 0 24591
0.15150000 0.15149900 10036.42025326 0 363.58968070 0 3342.02623396 0 4.18601419 0 612.10579679 0 25020
0.15250000 0.15250500 9849.04330036 0 288.41413134 0 3353.47501782 0 31.28629318 0 786.63220951 0 25297
0.15350000 0.15350100 9577.39488326 0 169.33349238 0 3168.55612103 0 59.06155215 0 586.56747959 0 25452
0.15450000 0.15450400 9462.98455091 0 150.60465495 0 2951.11780624 0 2.53226283 0 961.43985928 0 26061
0.15550000 0.15549900 9518.62298312 0 5.84882272 0 2952.44648522 0 187.52421483 0 323.05832847 0 26128
0.15650000 0.15649500 9335.45351364 0 39.00359285 0 2798.92870161 0 27.98729400 0 821.22547394 0 26331
0.15750000 0.15749700 9184.55987102 0 216.49716718 0 2605.24052355 0 169.03896854 0 313.67010425 0 27345
0.15850000 0.15849900 9078.14375718 0 225.33620408 0 2675.94838985 0 33.29492362 0 375.69394619 0 26980
0.15950000 0.15949700 8897.95274309 0 136.59262789 0 2507.94800537 0 -202.49621245 0 102.97007418 0 27777
0.16050000 0.16050000 8745.87436170 0 126.27543563 0 2576.69607017 0 179.78465978 0 265.36708723 0 28224
0.16150000 0.16150500 8665.22354772 0 30.12912451 0 2340.46802017 0 0.85981585 0 336.97624076 0 28075
0.16250000 0.16249700 8677.63562384 0 -101.39581104 0 2278.82838790 0 602.03773183 0 151.04976241 0 28590
0.16350000 0.16349900 8688.99582911 0 10.38853125 0 2189.22006314 0 268.07316342 0 -169.38885401 0 29163
0.16450000 0.16449100 8734.32592692 0 50.52777925 0 1918.05882833 0 192.06497523 0 -44.81235590 0 28996
0.16550000 0.16550500 8670.08429832 0 32.61751879 0 2021.28611262 0 135.69244788 0 -2.85165511 0 30777
0.16650000 0.16650700 8725.52342868 0 83.73534223 0 1963.27820289 0 -52.15518955 0 169.23494869 0 29211
0.16750000 0.16749900 8610.57055242 0 34.32930021 0 1962.08239181 0 218.61198122 0 181.55512452 0 30922
0.16850000 0.16850800 8623.07120714 0 83.08273940 0 2086.77891392 0 -103.96381533 0 302.34200873 0 30867
0.16950000 0.16949900 8502.83683193 0 255.50828921 0 2050.81600291 0 292.52860724 0 555.13093497 0 30852
0.17050000 0.17049200 8425.88417444 0 155.59605898 0 2135.16497338 0 -132.24452594 0 490.16960526 0 31257
0.17150000 0.17149500 8266.73057750 0 111.67436089 0 2125.47668916 0 -31.30611264 0 462.17655365 0 32608
0.17250000 0.17250900 8267.89317161 0 101.00462580 0 2301.75917260 0 -257.15363668 0 471.97777558 0 32361
0.17350000 0.17350400 8204.07229135 0 97.13374104 0 2146.18193657 0 -74.09411539 0 617.29650266 0 32508
0.17450000 0.17449800 8181.62868894 0 92.60881406 0 2438.65739666 0 -136.33242826 0 518.08293612 0 32791
0.17550000 0.17549800 8047.46532912 0 178.10941703 0 2341.65275892 0 -18.18352543 0 200.30499936 0 33633
0.17650000 0.17650100 8058.27191814 0 99.03076245 0 2444.35964394 0 -3.77614995 0 325.39237454 0 33984
0.17750000 0.17750300 7887.45916316 0 140.82447044 0 2287.58659683 0 137.97556126 0 519.62531097 0 34069
0.17850000 0.17849800 7759.78418568 0 166.75253347 0 2345.87131468 0 86.23923776 0 320.67113524 0 34536
