### header ###
fiducial parameters:
Omega_m = 0.31
Omega_nu = 0
Omega_de = 0.69
Omega_k = 0
H_0 = 100
w_de = -1
zeff = 0
beta = 0
fgrowth = 0
b_1 = 2
gamma = 0.55
Lx = 3500 Ly = 3500 Lz = 3500
nx = 700 ny = 700 nz = 700
xoffset = -685.467585 yoffset = -31.7331281 zoffset = 572.489161
bins = 400 dk = 0.001
kx_ny = 0.628318531 ky_ny = 0.628318531 kz_ny = 0.628318531
############################
A(data) = 8.01192558 (not used)
A(ran) = 8.01036697 (used)
Ngal = 476364
weighted Ngal = 0
Nran = 23820508
weighted Nran = 0
SN(data) = 3489.45002
SN(ran) = 69.7732014
SN(data+ran) = 3559.22322
############################
13 columns: k_central k_mean P_0(k) sigma^{lin}_{P_0(k)} P^img_1(k) sigma^{lin}_{P_1(k)} P_2(k) sigma^{lin}_{P_2(k)} P^img_3(k) sigma^{lin}_{P_3(k)} P_4(k) sigma^{lin}_{P_4(k)} N_modes
### header ###
0.00050000 0 0 0 0 0 0 0 0 0 0 0 0
0.00150000 0.00179520 48755.76438318 0 -37802.68850283 0 86469.32067122 0 -74459.72355667 0 -42175.14957371 0 3
0.00250000 0.00253879 99709.93885910 0 -48528.44955465 0 19881.46644436 0 11403.94094696 0 48744.24916537 0 6
0.00350000 0.00331552 105644.26206890 0 -23567.66482299 0 9719.27565348 0 -11976.49086334 0 25695.87637638 0 7
0.00450000 0.00420575 116696.76742612 0 4110.82203542 0 -7539.78816386 0 -23544.41294087 0 36167.63829686 0 24
0.00550000 0.00557378 100585.31685926 0 16666.72765652 0 28426.31167666 0 -15481.87817767 0 12640.27673621 0 45
0.00650000 0.00659388 79807.43499758 0 27556.91273190 0 4904.75201422 0 20482.91512851 0 54539.72542194 0 40
0.00750000 0.00754703 68512.00283384 0 9520.05131302 0 38475.33223556 0 -2742.07231366 0 -9998.97365073 0 57
0.00850000 0.00846663 61600.54695879 0 7692.26514893 0 20506.16701063 0 10974.34581633 0 7760.03884915 0 75
0.00950000 0.00948925 67411.96736311 0 -3186.37149166 0 37666.49890756 0 -7372.17531075 0 -27511.84836988 0 112
0.01050000 0.01054430 69399.56039130 0 -4407.34996639 0 18022.86600030 0 -12795.17856043 0 -8270.73875908 0 105
0.01150000 0.01145670 68153.25950972 0 5504.52877732 0 23674.06986449 0 -4858.13752673 0 -14823.40702071 0 144
0.01250000 0.01249090 73803.68831117 0 719.43759188 0 22366.42830341 0 -15315.35041240 0 -30032.68456134 0 169
0.01350000 0.01339930 70783.60099363 0 -2460.29271935 0 26655.62549166 0 5269.37474282 0 -20151.29900019 0 180
0.01450000 0.01448870 74534.79391894 0 1243.06776274 0 27957.50944383 0 -6480.00059384 0 -34149.04275917 0 267
0.01550000 0.01550050 69973.32826341 0 4994.48213455 0 29682.68837383 0 -13633.90716544 0 -5170.00062757 0 238
0.01650000 0.01653350 78481.30265405 0 2652.75186935 0 39124.61336293 0 6572.15555330 0 -14379.07462574 0 315
0.01750000 0.01747870 69703.27426108 0 1700.53193495 0 50146.22693390 0 -2133.42661838 0 -8125.11554307 0 297
0.01850000 0.01844180 78378.66220299 0 3484.77064552 0 53500.69846096 0 11574.89764216 0 -9072.23113573 0 388
0.01950000 0.01947590 76513.97198028 0 -53.31047592 0 54075.46284230 0 18419.80884505 0 2362.43551261 0 399
0.02050000 0.02045430 76543.20291780 0 5319.74274842 0 52734.93647650 0 16645.13662312 0 14823.62846720 0 462
0.02150000 0.02154770 72731.88726872 0 3865.92435508 0 46223.96659015 0 18114.43412655 0 12210.89197975 0 571
0.02250000 0.02255340 70908.05392460 0 1695.61582273 0 48855.41530655 0 29968.90797039 0 18223.49652602 0 510
0.02350000 0.02348930 69069.93728145 0 -2112.62172005 0 36312.35358224 0 22558.97603201 0 19461.60388724 0 555
0.02450000 0.02439640 70139.63458218 0 513.91752753 0 32786.92535998 0 24954.69495302 0 23141.82321046 0 592
0.02550000 0.02547300 69949.85493479 0 1817.85428873 0 20782.86440785 0 9858.18904066 0 18635.05483953 0 837
0.02650000 0.02652900 66174.96723437 0 3572.30844554 0 21390.29214740 0 6862.01794473 0 16752.98106685 0 723
0.02750000 0.02749970 61399.91643308 0 3863.04555063 0 15328.30503244 0 -7735.11504598 0 15758.35412839 0 826
0.02850000 0.02848090 59266.50088702 0 4469.90860161 0 21512.30916690 0 -2556.77695782 0 5113.34354147 0 831
0.02950000 0.02946900 57227.64299492 0 1396.71841425 0 22278.84621409 0 -5839.12336101 0 3349.28967904 0 996
0.03050000 0.03053250 58061.83194675 0 -741.64646100 0 17691.36059523 0 532.43045462 0 -10590.46831486 0 1041
0.03150000 0.03150510 58680.88562737 0 -2324.85604217 0 19023.69344066 0 -2223.04601546 0 -9859.48450266 0 1036
0.03250000 0.03246190 60303.20265979 0 1250.79624546 0 24001.25706288 0 3519.37166058 0 -15466.48764617 0 1059
0.03350000 0.03345080 57621.70703521 0 1924.51399370 0 19583.06729050 0 4010.03066259 0 -11855.47035307 0 1302
0.03450000 0.03451200 54032.17005226 0 5841.14959645 0 13980.02803927 0 8508.80481501 0 -7506.61547870 0 1339
0.03550000 0.03553350 51212.15964420 0 2292.34769650 0 16788.96612251 0 1762.75840043 0 -4250.51048533 0 1365
0.03650000 0.03647120 49572.90195480 0 3662.12714447 0 22718.86040239 0 1892.13851593 0 979.23308526 0 1308
0.03750000 0.03744890 46929.49512759 0 3880.94949986 0 20195.03468323 0 468.96942493 0 7951.05859692 0 1579
0.03850000 0.03847530 40815.02519299 0 1417.35722771 0 16560.98695450 0 6647.24806022 0 9527.81301272 0 1662
0.03950000 0.03950240 43113.30765560 0 -79.79448038 0 17219.12594172 0 4279.77463983 0 7780.31227589 0 1683
0.04050000 0.04050350 43160.69720582 0 -2736.32577708 0 13716.94960158 0 9518.89979124 0 3330.27849733 0 1822
0.04150000 0.04152450 42537.87893477 0 -1220.94525775 0 11073.32132788 0 2976.03053708 0 1791.50215566 0 1887
0.04250000 0.04250150 42982.98639248 0 544.08075480 0 8247.38722604 0 -591.26657425 0 -1823.87763343 0 1920
0.04350000 0.04349210 42559.46996817 0 991.90093209 0 9777.22820158 0 -3317.89963818 0 -2670.05791304 0 2005
0.04450000 0.04448520 41912.40330577 0 2198.44330972 0 10750.02051550 0 -4596.69779311 0 -2602.32850213 0 2151
0.04550000 0.04548030 40869.72247759 0 2242.42258390 0 9250.32948044 0 -3928.38333938 0 -1597.78076063 0 2274
0.04650000 0.04648670 40011.39585765 0 509.17525081 0 12067.06248035 0 -1455.22457859 0 -469.02367932 0 2311
0.04750000 0.04749250 39106.56547347 0 518.82256742 0 13674.32115103 0 327.58690932 0 -1672.14249411 0 2568
0.04850000 0.04851840 40221.88075246 0 -639.92944182 0 15664.79298368 0 1969.23511365 0 216.14728171 0 2493
0.04950000 0.04949480 39189.82935611 0 1801.22365685 0 14586.34854634 0 3340.24358967 0 -43.91383674 0 2644
0.05050000 0.05050630 39183.85030071 0 1998.01208585 0 13061.24652582 0 -164.32880156 0 -2818.71494606 0 2829
0.05150000 0.05149060 36124.56695332 0 2423.90906000 0 13576.10962989 0 1897.57502742 0 3247.90040068 0 2784
0.05250000 0.05249300 34129.33402100 0 1740.90163124 0 12287.84463724 0 -72.44854648 0 2235.12592184 0 3055
0.05350000 0.05348950 34337.93662058 0 643.33971787 0 12298.36334582 0 2943.01286447 0 1597.92470085 0 3009
0.05450000 0.05448610 32671.21956563 0 -505.95874045 0 11138.86949081 0 2610.07912950 0 -520.09920647 0 3336
0.05550000 0.05550870 32210.61085317 0 70.70443387 0 9614.02213376 0 3453.62419581 0 -125.78382440 0 3349
0.05650000 0.05647670 32581.86590434 0 598.96183999 0 8453.84179461 0 3066.26998435 0 833.64751515 0 3324
0.05750000 0.05747970 32278.92709730 0 -69.24897677 0 8158.09999870 0 520.90970065 0 -1792.49866489 0 3639
0.05850000 0.05849280 31763.73182349 0 -56.38836077 0 8652.51251883 0 -163.80840230 0 -1349.77175702 0 3846
0.05950000 0.05951020 33313.52512836 0 969.96222769 0 9450.83821058 0 -2566.62025459 0 -1493.02549552 0 3787
0.06050000 0.06049470 32636.45246570 0 -40.74538027 0 8439.37026607 0 -2630.96153411 0 2190.95841814 0 3930
0.06150000 0.06148310 32920.01470430 0 -448.50112527 0 10919.78139962 0 -644.53885065 0 2077.68853524 0 4083
0.06250000 0.06249100 33658.53876971 0 290.11041150 0 10523.48074971 0 912.98847311 0 2264.29042541 0 4303
0.06350000 0.06350600 32577.10480467 0 112.81259588 0 10120.62528351 0 3536.38982383 0 1738.37714118 0 4470
0.06450000 0.06451750 33565.64196448 0 -513.12917800 0 9343.20414102 0 3063.47975850 0 3517.30113584 0 4479
0.06550000 0.06550280 32974.93343540 0 -238.01844493 0 10262.84929580 0 1298.52903776 0 451.86157585 0 4636
0.06650000 0.06648880 31916.52990599 0 1651.84692272 0 9051.73626249 0 -557.09959432 0 1294.99696614 0 4653
0.06750000 0.06749660 31122.86566299 0 1837.96163060 0 9952.21522302 0 -1658.03635229 0 2134.20168112 0 5220
0.06850000 0.06852730 29670.50881653 0 1712.77792620 0 9298.33908085 0 -1806.48301114 0 3264.04385026 0 5029
0.06950000 0.06949320 29378.97450405 0 119.68518789 0 11317.35536688 0 -1354.49963971 0 2706.85124841 0 5040
0.07050000 0.07048030 28773.98267596 0 434.71386640 0 12218.42116062 0 426.95881010 0 1381.29466578 0 5475
0.07150000 0.07148790 28804.32084596 0 1341.57823665 0 11526.62230596 0 162.90600782 0 594.22842113 0 5509
0.07250000 0.07249820 27596.66237799 0 507.56090585 0 11753.27279499 0 317.98720370 0 1397.49347699 0 5916
0.07350000 0.07351270 27141.14693495 0 94.07545421 0 11756.81593894 0 412.25697721 0 1752.31719812 0 5721
0.07450000 0.07449140 27289.40536428 0 155.94926614 0 13323.77134727 0 674.02666610 0 116.05014366 0 6028
0.07550000 0.07549160 26990.89548717 0 228.59036035 0 11188.80567574 0 718.56952162 0 -281.73530501 0 6183
0.07650000 0.07648840 27312.76796964 0 -129.62592112 0 11854.03095084 0 782.22874593 0 -573.20539800 0 6330
0.07750000 0.07749960 26495.63039803 0 826.53686815 0 11246.04959505 0 -612.57415613 0 -1291.90778751 0 6583
0.07850000 0.07848650 26188.04121457 0 1229.00591022 0 11819.92819040 0 288.30119363 0 -2171.54863273 0 6549
0.07950000 0.07947320 25198.28609903 0 532.42048953 0 10918.77381806 0 -321.73518565 0 -1952.78163897 0 6828
0.08050000 0.08048110 25178.35591435 0 250.34194245 0 10971.94312184 0 855.04810456 0 -1579.06853169 0 7147
0.08150000 0.08149960 24910.07348400 0 216.77508253 0 10848.37597686 0 991.89761039 0 -1552.90462814 0 7386
0.08250000 0.08250610 24630.27583583 0 360.90242746 0 9947.91916099 0 999.18209289 0 -2314.17124872 0 7227
0.08350000 0.08350160 24222.37138951 0 779.70757757 0 10383.98052932 0 228.98564234 0 -2121.34671200 0 7798
0.08450000 0.08449610 23212.79681255 0 1056.46144364 0 10105.00223319 0 974.71225504 0 -2391.20141248 0 7371
0.08550000 0.08548940 22662.50226906 0 406.97658550 0 9680.01318968 0 875.65702275 0 -805.56145602 0 8256
0.08650000 0.08650700 22321.47466465 0 -126.48691703 0 8373.84424779 0 1714.97024651 0 -2188.73288085 0 8037
0.08750000 0.08749060 22018.86802735 0 367.98096472 0 8653.70832991 0 1717.70511074 0 -94.93101274 0 8155
0.08850000 0.08849210 22014.10692768 0 359.12864103 0 7635.96237723 0 1092.89935739 0 -113.38060614 0 8718
0.08950000 0.08949900 21443.55002978 0 238.37054486 0 7482.13456853 0 826.25009494 0 714.07526497 0 8571
0.09050000 0.09049190 21031.10593028 0 416.89295961 0 7759.19735246 0 470.15527091 0 1069.71058752 0 8932
0.09150000 0.09150830 20980.39468261 0 461.78237889 0 7727.78516695 0 -379.40871117 0 1535.78681397 0 9285
0.09250000 0.09250820 20483.80091450 0 417.41225164 0 7610.78391059 0 -263.33863732 0 1506.62231040 0 9204
0.09350000 0.09350330 20260.58284615 0 452.20703238 0 8281.95502412 0 -185.49244322 0 1414.75523138 0 9349
0.09450000 0.09448040 19868.51182432 0 627.99790460 0 7148.75794056 0 487.27087062 0 762.32402760 0 9564
0.09550000 0.09549270 19376.01481639 0 446.18368768 0 7097.09447296 0 855.92946162 0 308.88021654 0 10155
0.09650000 0.09649430 18849.85794101 0 463.84183130 0 6585.44234309 0 991.40267747 0 342.27324096 0 9913
0.09750000 0.09749140 18253.72397277 0 469.61051253 0 5706.82015175 0 1681.11107722 0 285.25298261 0 10476
0.09850000 0.09850240 17886.01206554 0 318.27619138 0 5192.72103810 0 1119.50061776 0 517.77512549 0 10575
0.09950000 0.09950330 17486.52258609 0 -4.14179133 0 4472.38880237 0 668.09743616 0 -51.13077806 0 10882
0.10050000 0.10051200 17718.37706779 0 -50.90014153 0 4958.46386191 0 -358.05130382 0 681.60124351 0 10875
0.10150000 0.10150300 17426.84275532 0 497.25257144 0 4898.58472929 0 -115.31272682 0 288.88913408 0 11118
0.10250000 0.10250800 17133.86904061 0 453.73501321 0 5288.67380498 0 -639.52087304 0 501.15999487 0 11575
0.10350000 0.10349800 16804.57810051 0 433.64538706 0 5425.30629324 0 -45.22258553 0 508.32711073 0 11364
0.10450000 0.10450100 16409.51755098 0 479.84355513 0 5642.29064271 0 -311.79666689 0 531.96763145 0 12093
0.10550000 0.10551000 16267.90251655 0 371.13879176 0 6347.34307019 0 397.48317420 0 551.32980586 0 12067
0.10650000 0.10649700 16018.88593138 0 138.71408533 0 6145.40601014 0 91.70929839 0 1210.63692335 0 12054
0.10750000 0.10749900 15892.66142844 0 53.58983068 0 6104.82593968 0 788.36502834 0 1541.13474686 0 12807
0.10850000 0.10850100 15797.55015825 0 51.76699384 0 5825.13901477 0 711.64046074 0 1135.03508948 0 12736
0.10950000 0.10950300 15696.79200240 0 157.32555612 0 5771.54896264 0 574.72452097 0 446.87792245 0 12933
0.11050000 0.11050200 15481.10311493 0 397.94046121 0 5643.32036892 0 -313.35454300 0 293.54283220 0 13428
0.11150000 0.11150900 15120.80966534 0 350.34939468 0 5440.36465499 0 -481.20434385 0 74.31611550 0 13453
0.11250000 0.11250000 14799.38007585 0 151.40739850 0 4453.97552620 0 -170.50715881 0 -701.97432118 0 13668
0.11350000 0.11349100 14653.55755799 0 47.80996640 0 4846.75517681 0 -202.70215769 0 -1088.44496111 0 13791
0.11450000 0.11448600 14883.86191422 0 163.05216251 0 4687.24726548 0 91.78381514 0 -2082.52714119 0 14205
0.11550000 0.11549300 14430.00731990 0 159.11816550 0 4523.04468842 0 97.52780508 0 -1822.74825630 0 14776
0.11650000 0.11649800 14563.31811072 0 424.66130270 0 4887.29095798 0 100.86987561 0 -1271.55685450 0 14553
0.11750000 0.11747300 13976.04200234 0 291.31950937 0 5106.64478496 0 71.88651527 0 -205.93970546 0 14568
0.11850000 0.11849100 14055.54129453 0 334.52372082 0 5786.31944395 0 977.56005698 0 805.38540605 0 16015
0.11950000 0.11950300 14096.84106611 0 -185.23888698 0 5345.72949477 0 700.36883408 0 1418.61947274 0 15270
0.12050000 0.12050700 13855.57510831 0 17.49992010 0 5300.13366116 0 1120.86251372 0 1637.71863625 0 15999
0.12150000 0.12150000 14061.52034994 0 210.78274034 0 5148.55353440 0 340.16174861 0 1892.61462590 0 15670
0.12250000 0.12250700 13691.04036150 0 118.29561113 0 4924.66005424 0 83.72382701 0 2043.98437850 0 16887
0.12350000 0.12352200 13749.50223655 0 57.78480238 0 4790.28632024 0 91.30006527 0 1973.02184873 0 16407
0.12450000 0.12449800 13680.74309942 0 -0.02430364 0 4473.45174555 0 -329.95417236 0 1527.81474010 0 16306
0.12550000 0.12549900 13822.13668736 0 132.09172785 0 5045.40375639 0 -414.14591582 0 968.40213713 0 17523
0.12650000 0.12650100 13587.95701744 0 349.32631187 0 5137.83552397 0 -127.96617963 0 721.95876024 0 17154
0.12750000 0.12750600 13363.96388636 0 191.59107973 0 4940.72599755 0 -313.26042823 0 965.64402101 0 18007
0.12850000 0.12850300 12986.72977979 0 277.86220579 0 5380.23085890 0 597.92657762 0 823.04244244 0 17496
0.12950000 0.12949900 12927.16067227 0 336.46691382 0 5001.81201358 0 954.26942173 0 631.76470950 0 18405
0.13050000 0.13049000 12717.45084020 0 212.14131460 0 4360.25936893 0 579.62291747 0 594.58384276 0 18100
0.13150000 0.13148800 12293.71296939 0 233.76224327 0 4086.67329499 0 484.56147274 0 1025.38696404 0 19059
0.13250000 0.13249300 12198.26952945 0 205.06720627 0 3924.44159175 0 217.01867368 0 1106.95345928 0 18957
0.13350000 0.13349100 12150.32636299 0 -200.69806690 0 3643.95745944 0 330.91414292 0 763.23195824 0 19468
0.13450000 0.13450700 12132.38919678 0 -144.59348981 0 3319.98123525 0 395.36393123 0 1213.39393223 0 19953
0.13550000 0.13551000 12406.31851280 0 81.88294228 0 3456.70230211 0 80.02722065 0 953.38142128 0 19956
0.13650000 0.13649900 12337.22720593 0 77.26711151 0 3645.72903141 0 45.26333169 0 1352.97165889 0 19723
0.13750000 0.13749600 12058.86895999 0 186.85987534 0 3156.80838439 0 305.13002012 0 1428.10845511 0 20946
0.13850000 0.13851100 11989.55620662 0 312.54626328 0 3268.10739347 0 -33.71688992 0 1248.05030891 0 20955
0.13950000 0.13949800 11816.93866270 0 425.64673961 0 3502.36456966 0 -32.75260115 0 879.94422692 0 20506
0.14050000 0.14048300 11378.80676963 0 260.90051140 0 3665.05023822 0 -271.95622773 0 1115.71388268 0 21447
0.14150000 0.14148400 11185.70542479 0 416.82652566 0 3447.80015295 0 -158.75388602 0 932.15909630 0 21771
0.14250000 0.14249400 11065.98037653 0 94.25460442 0 3603.24452108 0 -275.59016474 0 435.09364714 0 22470
0.14350000 0.14350900 10962.62022434 0 -96.54502553 0 3346.36658529 0 89.43615011 0 137.13406458 0 22519
0.14450000 0.14449900 10996.22473017 0 107.99724182 0 3511.23350184 0 351.53524067 0 37.85948953 0 22218
0.14550000 0.14550500 10966.38481478 0 69.19239719 0 3216.79824026 0 259.30277493 0 -54.86635900 0 23559
0.14650000 0.14650700 10728.34090351 0 177.04204492 0 3081.54979260 0 557.66428289 0 531.85801543 0 23044
0.14750000 0.14750500 10720.66778241 0 190.70750821 0 2944.26403718 0 281.39981357 0 -50.21044642 0 23649
0.14850000 0.14849900 10297.97071013 0 234.90490719 0 2722.15320131 0 6.31184520 0 384.61491830 0 23640
0.14950000 0.14949500 10276.95543762 0 229.06757755 0 2886.82081602 0 74.35752600 0 468.60735990 0 24457
0.15050000 0.15050000 9992.86172743 0 77.63305185 0 2814.64033052 0 -84.07725562 0 679.77430992 0 24591
0.15150000 0.15149900 10141.20873535 0 44.05534105 0 2893.28705371 0 237.67741732 0 349.20119460 0 25020
0.15250000 0.15250500 10069.82545724 0 -31.39579847 0 2630.57400274 0 77.44836547 0 276.56563655 0 25297
0.15350000 0.15350100 10129.61601126 0 173.27634725 0 2804.09947730 0 -312.52965480 0 -99.31997158 0 25452
0.15450000 0.15450400 9975.77713023 0 132.92436668 0 2939.12647846 0 -222.29685092 0 96.69538770 0 26061
0.15550000 0.15549900 9868.84061713 0 305.19091791 0 2934.24358322 0 -377.26068015 0 -157.91460380 0 26128
0.15650000 0.15649500 9648.21347280 0 268.61127840 0 3295.85463947 0 -67.18332386 0 -115.50427804 0 26331
0.15750000 0.15749700 9555.71527126 0 124.81610322 0 3177.21467904 0 211.77039171 0 -28.90696130 0 27345
0.15850000 0.15849900 9316.09908986 0 114.62734992 0 3033.90557891 0 326.49628532 0 -201.00366306 0 26980
0.15950000 0.15949700 9358.59467252 0 34.54421403 0 2860.43546597 0 303.99067790 0 -192.88100557 0 27777
0.16050000 0.16050000 9139.87196805 0 175.00030822 0 2726.33854010 0 290.03069076 0 -514.04485926 0 28224
0.16150000 0.16150500 9006.66082815 0 229.82935349 0 2561.29446635 0 -14.34430753 0 95.11868865 0 28075
0.16250000 0.16249700 8737.24902067 0 212.62074626 0 2559.34573718 0 -35.20689267 0 -299.82526930 0 28590
0.16350000 0.16349900 8554.93212020 0 216.61231936 0 2643.50647813 0 57.63244719 0 -117.03668780 0 29163
0.16450000 0.16449100 8462.77716074 0 125.68085178 0 2508.37982604 0 -124.08200808 0 -448.14681087 0 28996
0.16550000 0.16550500 8363.17052667 0 120.33402613 0 2690.24276119 0 -35.46908532 0 34.57898113 0 30777
0.16650000 0.16650700 8385.41482723 0 69.19494383 0 2828.33679632 0 89.52351075 0 4.38344482 0 29211
0.16750000 0.16749900 8300.22436008 0 -60.96787432 0 2453.28393774 0 570.56021960 0 159.84340278 0 30922
0.16850000 0.16850800 8373.54529502 0 -134.41137990 0 2414.69688575 0 512.05959142 0 105.26248831 0 30867
0.16950000 0.16949900 8550.02708031 0 -50.85452355 0 2230.39803914 0 252.43350461 0 135.47653755 0 30852
0.17050000 0.17049200 8390.14270993 0 45.88626068 0 1963.74324054 0 303.58543081 0 46.76496038 0 31257
0.17150000 0.17149500 8391.83677563 0 184.63212358 0 1801.57797124 0 -156.24378998 0 -14.97598366 0 32608
0.17250000 0.17250900 8158.08892638 0 181.98583795 0 1644.77170716 0 -34.67110287 0 61.35374484 0 32361
0.17350000 0.17350400 8215.76466636 0 73.58932810 0 1805.16540448 0 20.44537995 0 -42.68049048 0 32508
0.17450000 0.17449800 8023.59339681 0 52.87201186 0 1636.77748864 0 154.64826797 0 -102.02781934 0 32791
0.17550000 0.17549800 7961.35585900 0 181.54848112 0 1691.12045885 0 135.24069703 0 -256.55130221 0 33633
0.17650000 0.17650100 7785.69342575 0 294.32786003 0 1682.31796062 0 231.48909498 0 -215.85054341 0 33984
0.17750000 0.17750300 7663.86463577 0 97.10517445 0 1711.58211512 0 -63.52181676 0 87.80065701 0 34069
0.17850000 0.17849800 7543.12093363 0 65.62179389 0 1845.61260705 0 -93.50379008 0 252.25966911 0 34536
