### header ###
fiducial parameters:
Omega_m = 0.31
Omega_nu = 0
Omega_de = 0.69
Omega_k = 0
H_0 = 100
w_de = -1
zeff = 0
beta = 0
fgrowth = 0
b_1 = 2
gamma = 0.55
Lx = 3500 Ly = 3500 Lz = 3500
nx = 700 ny = 700 nz = 700
xoffset = -685.467585 yoffset = -31.7331281 zoffset = 572.489161
bins = 400 dk = 0.001
kx_ny = 0.628318531 ky_ny = 0.628318531 kz_ny = 0.628318531
############################
A(data) = 8.04238235 (not used)
A(ran) = 8.03711625 (used)
Ngal = 476949
weighted Ngal = 0
Nran = 23820508
weighted Nran = 0
SN(data) = 3493.52051
SN(ran) = 70.0061974
SN(data+ran) = 3563.5267
############################
13 columns: k_central k_mean P_0(k) sigma^{lin}_{P_0(k)} P^img_1(k) sigma^{lin}_{P_1(k)} P_2(k) sigma^{lin}_{P_2(k)} P^img_3(k) sigma^{lin}_{P_3(k)} P_4(k) sigma^{lin}_{P_4(k)} N_modes
### header ###
0.00050000 0 0 0 0 0 0 0 0 0 0 0 0
0.00150000 0.00179520 33037.71351713 0 -43283.37856481 0 -33160.72704586 0 1979.01197646 0 17023.14579243 0 3
0.00250000 0.00253879 66420.99429184 0 -54701.60281079 0 -27270.02879584 0 -63988.29380594 0 -43321.13519244 0 6
0.00350000 0.00331552 86362.36201347 0 -37244.31116223 0 -22617.43790705 0 -51780.94497013 0 -2952.43541289 0 7
0.00450000 0.00420575 104347.02849315 0 -7846.49156133 0 -6902.75302774 0 -35145.88416260 0 42638.30492088 0 24
0.00550000 0.00557378 87028.69452106 0 21956.75228512 0 -4811.40124367 0 -20141.22318461 0 28462.51817881 0 45
0.00650000 0.00659388 66547.32951802 0 28743.64450596 0 25181.01327231 0 13625.38147533 0 45788.38133178 0 40
0.00750000 0.00754703 52884.63430805 0 8740.41570557 0 7456.84537864 0 29925.06156411 0 20687.19952141 0 57
0.00850000 0.00846663 51728.12998074 0 -4212.45490493 0 -2724.84377624 0 39319.15410999 0 34666.34177470 0 75
0.00950000 0.00948925 58279.07095970 0 -13209.83712489 0 -8288.96380574 0 12946.20507095 0 -4479.07648656 0 112
0.01050000 0.01054430 63586.58986151 0 -9338.17730555 0 -18323.36889588 0 7416.22101888 0 12671.61141545 0 105
0.01150000 0.01145670 69916.97013008 0 -3106.32965555 0 -16740.80150955 0 -24477.47775333 0 5545.09777545 0 144
0.01250000 0.01249090 74863.30979631 0 -6978.60952507 0 -10402.70383059 0 -23764.08786527 0 -4806.72872260 0 169
0.01350000 0.01339930 86636.40205273 0 -11718.83786481 0 -898.53133859 0 -16098.60667007 0 -31025.09703484 0 180
0.01450000 0.01448870 84528.34213051 0 -2276.97930966 0 -8119.51294671 0 -13089.03806111 0 -26211.84671293 0 267
0.01550000 0.01550050 92592.98063542 0 -4606.56323452 0 -11257.34336637 0 -14852.52723498 0 -37912.30451853 0 238
0.01650000 0.01653350 85289.01084555 0 7404.81652432 0 -7028.66750558 0 -7278.16020072 0 -36245.69818683 0 315
0.01750000 0.01747870 83789.59661861 0 6949.85469752 0 -4768.76172079 0 -10862.41568473 0 -27920.19570919 0 297
0.01850000 0.01844180 65888.74763781 0 8600.59438776 0 -3729.82333841 0 -5502.31431235 0 -26292.67468410 0 388
0.01950000 0.01947590 64202.65401442 0 -403.56741669 0 1861.32423596 0 -6096.78743187 0 -8853.41985266 0 399
0.02050000 0.02045430 63529.78883520 0 296.84792116 0 9975.47817746 0 580.81097792 0 -10452.54036460 0 462
0.02150000 0.02154770 73246.86109604 0 -1230.61139732 0 11848.60551168 0 -9272.72879355 0 -7942.75435331 0 571
0.02250000 0.02255340 61154.77516160 0 2199.48410825 0 14696.85034803 0 -8269.97476867 0 3989.03753474 0 510
0.02350000 0.02348930 77947.61659780 0 -313.30028860 0 28799.00613005 0 -10546.64405323 0 -5862.70741287 0 555
0.02450000 0.02439640 71784.31771074 0 -1142.35389619 0 36847.14687098 0 2114.72546176 0 5729.66235785 0 592
0.02550000 0.02547300 72186.79671790 0 9159.50319995 0 40609.96573735 0 900.01281565 0 -7374.27905247 0 837
0.02650000 0.02652900 66127.13479115 0 9172.03707165 0 34568.13025356 0 10492.75504834 0 6543.63324457 0 723
0.02750000 0.02749970 62502.16636878 0 1012.50763581 0 34987.99281068 0 11126.35776376 0 -1610.55822347 0 826
0.02850000 0.02848090 58485.79126406 0 1593.17467351 0 27392.26726184 0 13987.88938989 0 8185.57043658 0 831
0.02950000 0.02946900 58922.26230841 0 402.28745594 0 23483.95804736 0 -457.23608232 0 1623.33568631 0 996
0.03050000 0.03053250 58210.53326907 0 718.83304295 0 23835.28291385 0 -595.09981310 0 -2595.67403491 0 1041
0.03150000 0.03150510 59975.46184516 0 -3010.97479421 0 28997.31146755 0 -7488.49008297 0 -7468.84777874 0 1036
0.03250000 0.03246190 59833.40391774 0 2175.83362244 0 24741.33125376 0 -9103.35544080 0 -15809.84043880 0 1059
0.03350000 0.03345080 57434.03112954 0 4408.00323355 0 30556.07335552 0 -3283.95189029 0 -15267.07507619 0 1302
0.03450000 0.03451200 53415.88445285 0 5313.53117419 0 26764.79861437 0 -608.55158052 0 -19286.10753886 0 1339
0.03550000 0.03553350 48886.74998578 0 4026.29590775 0 24869.88094491 0 6955.52372783 0 -17493.94104372 0 1365
0.03650000 0.03647120 48118.55208987 0 13.77862245 0 21330.72303987 0 12188.30443712 0 -12946.64796395 0 1308
0.03750000 0.03744890 46532.77372934 0 -1658.18029252 0 17398.60832703 0 13007.54575045 0 -10630.60549233 0 1579
0.03850000 0.03847530 48750.44966727 0 -1319.59967189 0 13752.38104100 0 8464.12798437 0 -9466.12909115 0 1662
0.03950000 0.03950240 49103.21393599 0 -955.03230491 0 14696.62890153 0 4442.37172979 0 -2176.78584237 0 1683
0.04050000 0.04050350 47545.44855725 0 3220.96143439 0 14248.08902313 0 -1170.85406027 0 6563.24233183 0 1822
0.04150000 0.04152450 47578.22263872 0 3384.85398636 0 13329.41823293 0 2169.44489102 0 12537.41483865 0 1887
0.04250000 0.04250150 44982.53753148 0 743.87531999 0 13506.46470678 0 1680.61282260 0 14136.03709597 0 1920
0.04350000 0.04349210 43933.76692466 0 -837.91589637 0 13451.10308268 0 3034.66956932 0 10333.88933184 0 2005
0.04450000 0.04448520 44306.90427105 0 1158.39769485 0 12298.36334582 0 -114.23649685 0 5359.94635983 0 2151
0.04550000 0.04548030 43018.86072489 0 2146.81305909 0 12497.99736230 0 -1047.30573825 0 2453.94827723 0 2274
0.04650000 0.04648670 41612.12185668 0 1025.75899415 0 12217.97826763 0 -990.46817326 0 7550.62796985 0 2311
0.04750000 0.04749250 41046.54750495 0 -1045.96709418 0 12307.55337541 0 1179.97765592 0 380.66874173 0 2568
0.04850000 0.04851840 42245.45883631 0 155.41779455 0 12746.12816148 0 699.46865407 0 -1305.47138542 0 2493
0.04950000 0.04949480 41804.89103178 0 761.36737874 0 16560.76550800 0 -888.77440596 0 -2557.13127222 0 2644
0.05050000 0.05050630 40694.22612922 0 2382.77537330 0 16674.25683739 0 -3156.57586557 0 29.19539536 0 2829
0.05150000 0.05149060 38906.26711750 0 1491.92933536 0 17385.43226049 0 561.47648432 0 6150.33319469 0 2784
0.05250000 0.05249300 38632.22707824 0 1331.63528896 0 17353.10107202 0 2166.88718398 0 3684.86969965 0 3055
0.05350000 0.05348950 37246.63635044 0 1377.79581113 0 17490.06573003 0 2318.41194913 0 4118.18513142 0 3009
0.05450000 0.05448610 36616.39962176 0 1289.05112771 0 17466.26023167 0 1143.28397147 0 1704.90550325 0 3336
0.05550000 0.05550870 35945.08456801 0 346.51283413 0 16457.46071744 0 804.92922627 0 2087.87507408 0 3349
0.05650000 0.05647670 35925.92944607 0 -75.46951958 0 16590.43933852 0 2036.88701829 0 2620.13280043 0 3324
0.05750000 0.05747970 35863.81370384 0 -813.15707084 0 16925.15571778 0 3061.17671494 0 2257.31486078 0 3639
0.05850000 0.05849280 37243.75754598 0 -880.74918493 0 16099.16028631 0 2101.49403360 0 2737.99769813 0 3846
0.05950000 0.05951020 37507.16815342 0 1689.47068245 0 17121.91092981 0 -1052.33368095 0 4924.26145055 0 3787
0.06050000 0.06049470 35665.28691984 0 2244.83635071 0 17776.39604984 0 892.06510090 0 7361.67874682 0 3930
0.06150000 0.06148310 34187.02083330 0 1388.12629019 0 19156.78278498 0 312.90611384 0 8609.75120038 0 4083
0.06250000 0.06249100 32929.97979664 0 787.32422981 0 18668.93615347 0 3599.91175131 0 7643.27011161 0 4303
0.06350000 0.06350600 32332.18497968 0 480.65847824 0 17351.55094655 0 1715.24705463 0 4955.77328698 0 4470
0.06450000 0.06451750 31992.70750074 0 532.57550208 0 16292.81524739 0 1973.65297125 0 4734.17177806 0 4479
0.06550000 0.06550280 31454.48179131 0 676.51683195 0 14349.17934872 0 781.92979316 0 5202.16573117 0 4636
0.06650000 0.06648880 31366.89970199 0 324.71806996 0 13452.65320816 0 669.96755182 0 3970.30316115 0 4653
0.06750000 0.06749660 30912.82366118 0 -69.55811608 0 10986.78003710 0 972.05711155 0 48.14601146 0 5220
0.06850000 0.06852730 30629.59359232 0 -340.92795349 0 11793.57605733 0 521.39023955 0 641.88592162 0 5029
0.06950000 0.06949320 30857.35131384 0 581.89274405 0 10557.81602897 0 -841.72477611 0 -1443.15574454 0 5040
0.07050000 0.07048030 30193.23327121 0 774.63423833 0 12423.92350926 0 -303.69947575 0 -579.27413923 0 5475
0.07150000 0.07148790 30476.79550982 0 -25.08424115 0 11688.38897156 0 -305.06580064 0 -495.67476516 0 5509
0.07250000 0.07249820 30654.72776966 0 349.41267600 0 11374.37783970 0 1859.08762635 0 679.70123257 0 5916
0.07350000 0.07351270 29848.21962987 0 135.67030324 0 11449.11603222 0 1160.36856867 0 -1729.49713667 0 5721
0.07450000 0.07449140 29791.52932679 0 114.80229265 0 10328.64104988 0 1703.17822058 0 -1701.01911724 0 6028
0.07550000 0.07549160 28857.57872834 0 1244.60681589 0 9437.47391452 0 271.66391836 0 -1055.44721869 0 6183
0.07650000 0.07648840 27835.27097784 0 1264.79166403 0 8741.96583104 0 473.11601057 0 -342.55226354 0 6330
0.07750000 0.07749960 26968.19722129 0 763.84647226 0 9510.32981183 0 1340.03918350 0 -850.03898481 0 6583
0.07850000 0.07848650 26016.42017988 0 1033.01911754 0 8912.56821185 0 497.52052170 0 959.22871601 0 6549
0.07950000 0.07947320 24826.47743162 0 1050.76583975 0 8638.38423236 0 707.08087738 0 285.28730681 0 6828
0.08050000 0.08048110 24055.73290099 0 382.73926647 0 8604.65793096 0 1390.40718910 0 1940.56886469 0 7147
0.08150000 0.08149960 24087.39974997 0 436.80542856 0 8735.80961844 0 1211.32340748 0 1782.63322348 0 7386
0.08250000 0.08250610 22918.05152588 0 525.62429656 0 8219.99429444 0 421.49351057 0 2201.53248834 0 7227
0.08350000 0.08350160 23073.72841283 0 718.49312257 0 8780.44215979 0 572.95073453 0 1456.32073875 0 7798
0.08450000 0.08449610 22016.09994615 0 1038.75347456 0 8913.91903547 0 -445.61014126 0 2260.09401431 0 7371
0.08550000 0.08548940 21558.70220789 0 723.89641709 0 8526.49839007 0 -690.35723798 0 1712.47897343 0 8256
0.08650000 0.08650700 21599.11619348 0 -420.07625299 0 9118.44701952 0 -555.44981792 0 1878.16524201 0 8037
0.08750000 0.08749060 22032.59771013 0 -303.87220402 0 8860.41756195 0 426.30997186 0 781.77920954 0 8155
0.08850000 0.08849210 22175.43070029 0 142.21404720 0 9508.64681846 0 -163.79622274 0 787.23011505 0 8718
0.08950000 0.08949900 22054.29946677 0 501.11902727 0 8874.11402775 0 -331.02375894 0 198.44706326 0 8571
0.09050000 0.09049190 21528.91765413 0 705.16868689 0 8723.76292904 0 10.88395136 0 -816.13109729 0 8932
0.09150000 0.09150830 20999.54980455 0 206.12904222 0 8181.56225499 0 587.50530550 0 -677.28082237 0 9285
0.09250000 0.09250820 20333.77091320 0 472.36530695 0 7956.98229070 0 1633.98726279 0 -992.85315202 0 9204
0.09350000 0.09350330 19993.51837153 0 324.93287306 0 7005.61492530 0 859.81695486 0 -1727.96915585 0 9349
0.09450000 0.09448040 19648.06183718 0 -71.76471970 0 6086.67839931 0 1265.84353489 0 -2780.23861731 0 9564
0.09550000 0.09549270 19344.68013715 0 675.46496110 0 5891.53974670 0 236.25905252 0 -2165.38134781 0 10155
0.09650000 0.09649430 18717.54365943 0 443.62155172 0 5744.58785171 0 4.62283955 0 -1078.52747977 0 9913
0.09750000 0.09749140 18257.48856321 0 378.29372806 0 5582.09041267 0 670.93305855 0 -1789.11053350 0 10476
0.09850000 0.09850240 18073.02363173 0 337.58300416 0 5830.25442883 0 148.60499309 0 -1325.15797895 0 10575
0.09950000 0.09950330 17881.58313562 0 908.95150348 0 6643.31738491 0 -177.86361142 0 -1141.96636482 0 10882
0.10050000 0.10051200 17383.10707228 0 444.44090376 0 6592.87187304 0 31.58956415 0 285.18544142 0 10875
0.10150000 0.10150300 17059.57374108 0 35.27233011 0 6829.46530977 0 -73.58478845 0 1263.19724926 0 11118
0.10250000 0.10250800 17261.31149928 0 -42.48960360 0 7179.90439028 0 980.10669169 0 351.20749985 0 11575
0.10350000 0.10349800 17084.04357893 0 125.15713082 0 6688.21566205 0 474.61852505 0 786.62778058 0 11364
0.10450000 0.10450100 16906.88638183 0 535.90495015 0 6224.08595031 0 213.39802346 0 1031.24643833 0 12093
0.10550000 0.10551000 16296.91200757 0 457.03235154 0 6103.12080166 0 180.66490960 0 841.22984319 0 12067
0.10650000 0.10649700 16045.68095744 0 241.53944422 0 6116.40759144 0 564.47486988 0 712.88277559 0 12054
0.10750000 0.10749900 16010.13879477 0 120.14247491 0 5640.54121539 0 123.67011760 0 -242.57470659 0 12807
0.10850000 0.10850100 15661.80345598 0 170.01333313 0 5810.02529139 0 -228.33016071 0 -59.52083219 0 12736
0.10950000 0.10950300 16064.17173988 0 0.33246538 0 5966.57689200 0 -830.73327926 0 -1101.94766123 0 12933
0.11050000 0.11050200 15608.87774334 0 104.98147271 0 6130.33657607 0 -333.46188487 0 -25.78821957 0 13428
0.11150000 0.11150900 15869.29882308 0 510.29244838 0 6458.36527114 0 -167.70918233 0 -1012.21532643 0 13453
0.11250000 0.11250000 15502.69414833 0 -52.24155368 0 5955.78137530 0 1069.50796398 0 -138.82702304 0 13668
0.11350000 0.11349100 15466.15547643 0 -18.59818400 0 5646.57563241 0 1458.19196164 0 -1259.97520274 0 13791
0.11450000 0.11448600 15074.08445460 0 396.05373707 0 5242.73472930 0 1011.78239853 0 -1044.67052494 0 14205
0.11550000 0.11549300 14911.32127977 0 247.21179623 0 4388.57130349 0 1004.70275404 0 -681.23364233 0 14776
0.11650000 0.11649800 14457.79885520 0 301.32003315 0 4146.92888665 0 19.49814256 0 -21.89530088 0 14553
0.11750000 0.11747300 14490.24076691 0 40.99506119 0 4408.74507931 0 -112.61107957 0 -781.61201744 0 14568
0.11850000 0.11849100 14358.14793183 0 127.96507239 0 4327.51850444 0 -334.97436444 0 -213.68701114 0 16015
0.11950000 0.11950300 14198.15283820 0 597.12604854 0 4522.19211941 0 -523.80732806 0 -68.93551926 0 15270
0.12050000 0.12050700 13999.18316121 0 89.14528013 0 4591.91454879 0 -259.27952305 0 -443.81531740 0 15999
0.12150000 0.12150000 13932.85993554 0 -8.42122273 0 5062.15618384 0 211.50576315 0 80.59667031 0 15670
0.12250000 0.12250700 14017.00960417 0 177.71524227 0 4618.26668186 0 360.26244709 0 -51.07032316 0 16887
0.12350000 0.12352200 13769.54314447 0 45.59417275 0 4691.68726773 0 998.43692543 0 14.97786595 0 16407
0.12450000 0.12449800 13672.66030231 0 139.17247958 0 4372.05139487 0 565.37726435 0 16.32248908 0 16306
0.12550000 0.12549900 13456.19635210 0 403.70914245 0 4095.22112975 0 475.79994211 0 -238.16017069 0 17523
0.12650000 0.12650100 13030.24401633 0 397.72676535 0 4006.31036146 0 -163.54155927 0 576.01555404 0 17154
0.12750000 0.12750600 12680.13710556 0 431.70330128 0 3939.71032767 0 168.65365164 0 238.18231534 0 18007
0.12850000 0.12850300 12445.62526590 0 243.12057221 0 4249.71327794 0 -61.02832921 0 698.43228447 0 17496
0.12950000 0.12949900 12428.24171594 0 29.10039481 0 4086.07538945 0 -77.83268587 0 19.39339837 0 18405
0.13050000 0.13049000 12403.21826185 0 75.99944105 0 4294.03579419 0 -147.61512725 0 403.90069366 0 18100
0.13150000 0.13148800 12476.51705215 0 108.27980755 0 4253.10140934 0 -420.99747042 0 362.13809891 0 19059
0.13250000 0.13249300 12244.66257044 0 25.70506641 0 4253.05712004 0 -51.64475537 0 -188.04682856 0 18957
0.13350000 0.13349100 12407.75791502 0 51.15546934 0 4615.36573275 0 -121.73910415 0 -26.80222307 0 19468
0.13450000 0.13450700 12216.31741891 0 252.43461184 0 4383.35623850 0 168.96256950 0 -480.11150539 0 19953
0.13550000 0.13551000 12160.73434832 0 259.01600172 0 4673.76117385 0 229.23809135 0 -172.14697012 0 19956
0.13650000 0.13649900 11801.43740795 0 358.43883519 0 4176.75772971 0 242.68321538 0 -3.16386146 0 19723
0.13750000 0.13749600 11575.89415140 0 337.69926357 0 4322.64668152 0 408.03842145 0 551.35084327 0 20946
0.13850000 0.13851100 11394.52947087 0 54.68654445 0 4202.55624654 0 516.15192268 0 1064.75904386 0 20955
0.13950000 0.13949800 11256.67902688 0 41.33044191 0 4284.91219854 0 420.43721078 0 1192.02434533 0 20506
0.14050000 0.14048300 11269.96581666 0 144.08084117 0 3982.47164612 0 506.45810230 0 901.29277640 0 21447
0.14150000 0.14148400 11046.34914462 0 177.04758108 0 3941.34903174 0 140.48787176 0 1672.46359153 0 21771
0.14250000 0.14249400 10830.16200254 0 208.85615582 0 3755.72150616 0 206.91074835 0 1397.65956186 0 22470
0.14350000 0.14350900 10772.92915555 0 95.64772433 0 3905.48577166 0 250.55674555 0 1522.24536072 0 22519
0.14450000 0.14449900 10816.59840463 0 114.94291117 0 3581.99672976 0 338.07240092 0 1172.48169202 0 22218
0.14550000 0.14550500 10635.26694108 0 35.37663141 0 3515.34133435 0 -107.83193201 0 1033.28042440 0 23559
0.14650000 0.14650700 10634.46973369 0 10.63000759 0 3289.97523499 0 16.43454101 0 1135.63299502 0 23044
0.14750000 0.14750500 10640.42664445 0 -21.62668628 0 3305.93045505 0 76.30304419 0 1072.48641935 0 23649
0.14850000 0.14849900 10786.09414976 0 -27.47564187 0 3242.95107148 0 335.00647418 0 957.53243585 0 23640
0.14950000 0.14949500 10831.06993317 0 -105.68722269 0 2879.84525138 0 153.54214273 0 514.46339314 0 24457
0.15050000 0.15050000 10705.31046788 0 257.18021026 0 3102.11109979 0 223.65099624 0 496.86393284 0 24591
0.15150000 0.15149900 10552.98849535 0 367.66761793 0 2814.29708845 0 -342.25109631 0 391.64916625 0 25020
0.15250000 0.15250500 10273.93269295 0 234.09219855 0 3069.44774158 0 -113.84121486 0 457.09103486 0 25297
0.15350000 0.15350100 10006.62462718 0 235.46627406 0 3166.36380071 0 -217.37630977 0 383.06368559 0 25452
0.15450000 0.15450400 9867.23513003 0 169.72323822 0 3094.18331522 0 206.53428931 0 167.54752639 0 26061
0.15550000 0.15549900 9673.38086711 0 130.65786179 0 3223.45270748 0 282.06858199 0 -97.67130241 0 26128
0.15650000 0.15649500 9717.03904387 0 19.23318183 0 2909.40835865 0 296.19022506 0 167.18767583 0 26331
0.15750000 0.15749700 9582.06740433 0 124.59908565 0 3036.61829849 0 72.34823121 0 5.20913022 0 27345
0.15850000 0.15849900 9544.48793390 0 258.06156732 0 2882.87906838 0 -81.60502693 0 78.81147938 0 26980
0.15950000 0.15949700 9280.02545560 0 162.20955859 0 3046.11835318 0 0.09384903 0 227.75550705 0 27777
0.16050000 0.16050000 9249.36618818 0 124.84710573 0 2853.64813086 0 78.12366656 0 349.64187312 0 28224
0.16150000 0.16150500 9186.86291458 0 6.89471452 0 2739.40388338 0 317.39704879 0 459.54023311 0 28075
0.16250000 0.16249700 9104.08621423 0 83.40848720 0 2417.80820902 0 560.25631413 0 328.08737840 0 28590
0.16350000 0.16349900 9080.53537934 0 -9.95080904 0 2336.40447696 0 349.05836161 0 37.09217742 0 29163
0.16450000 0.16449100 8780.04355609 0 227.14652919 0 1980.73925913 0 -38.48341503 0 -187.33155637 0 28996
0.16550000 0.16550500 8626.21574739 0 326.64797617 0 2141.03330553 0 -228.15853968 0 -232.21654672 0 30777
0.16650000 0.16650700 8546.40643009 0 33.55202300 0 1900.53133815 0 -302.45605368 0 -232.84988370 0 29211
0.16750000 0.16749900 8504.96271830 0 -56.06427383 0 2228.74826275 0 -176.53825414 0 -486.11934884 0 30922
0.16850000 0.16850800 8603.03029922 0 -4.84725343 0 1993.08490131 0 41.81186660 0 -563.84374737 0 30867
0.16950000 0.16949900 8601.70162024 0 17.31645168 0 2230.66377494 0 55.70741280 0 -542.83401102 0 30852
0.17050000 0.17049200 8486.39442958 0 134.86866692 0 2067.76773221 0 278.16226579 0 -450.05235797 0 31257
0.17150000 0.17149500 8413.08456695 0 260.90383310 0 2170.74035302 0 538.37850752 0 -357.97158308 0 32608
0.17250000 0.17250900 8162.94967697 0 265.38369572 0 2041.78098586 0 -28.65982701 0 -329.26658099 0 32361
0.17350000 0.17350400 8025.47569203 0 246.11674330 0 2106.28835025 0 93.71527148 0 -96.33376558 0 32508
0.17450000 0.17449800 7716.25887682 0 171.13828133 0 1887.99746645 0 -43.69560122 0 89.10840929 0 32791
0.17550000 0.17549800 7679.88628979 0 169.53168700 0 2001.09019215 0 95.96483571 0 154.77227801 0 33633
0.17650000 0.17650100 7601.22849427 0 -8.61310611 0 1806.53837276 0 372.89154078 0 -57.25122705 0 33984
0.17750000 0.17750300 7782.12813716 0 -183.09749936 0 1762.13835024 0 163.42087093 0 -94.14875300 0 34069
