### header ###
fiducial parameters:
Omega_m = 0.31
Omega_nu = 0
Omega_de = 0.69
Omega_k = 0
H_0 = 100
w_de = -1
zeff = 0
beta = 0
fgrowth = 0
b_1 = 2
gamma = 0.55
Lx = 3500 Ly = 3500 Lz = 3500
nx = 700 ny = 700 nz = 700
xoffset = -685.467585 yoffset = -31.7331281 zoffset = 572.489161
bins = 400 dk = 0.001
kx_ny = 0.628318531 ky_ny = 0.628318531 kz_ny = 0.628318531
############################
A(data) = 8.03927666 (not used)
A(ran) = 8.04082443 (used)
Ngal = 478005
weighted Ngal = 0
Nran = 23820508
weighted Nran = 0
SN(data) = 3483.38223
SN(ran) = 70.0384969
SN(data+ran) = 3553.42073
############################
13 columns: k_central k_mean P_0(k) sigma^{lin}_{P_0(k)} P^img_1(k) sigma^{lin}_{P_1(k)} P_2(k) sigma^{lin}_{P_2(k)} P^img_3(k) sigma^{lin}_{P_3(k)} P_4(k) sigma^{lin}_{P_4(k)} N_modes
### header ###
0.00050000 0 0 0 0 0 0 0 0 0 0 0 0
0.00150000 0.00179520 10909.25161872 0 -20322.69858838 0 5818.29631803 0 28233.21033182 0 -6028.31617519 0 3
0.00250000 0.00253879 30043.42471642 0 -26251.59635902 0 8684.76620103 0 -1084.08689406 0 33403.32168264 0 6
0.00350000 0.00331552 41960.78936522 0 -22740.89432878 0 13855.68583156 0 -37820.29349929 0 4956.91373644 0 7
0.00450000 0.00420575 51956.21987201 0 -5236.34599788 0 9644.20529121 0 -24868.55226593 0 21215.79230826 0 24
0.00550000 0.00557378 59315.44056272 0 8429.67090953 0 14403.76591008 0 -27316.97545308 0 18102.25456925 0 45
0.00650000 0.00659388 51501.70093820 0 6005.15287167 0 44501.00212512 0 -5024.16703738 0 23035.41816895 0 40
0.00750000 0.00754703 48788.42774139 0 11906.07087749 0 35596.30633622 0 14092.96575242 0 25095.97781770 0 57
0.00850000 0.00846663 48396.57816606 0 6666.17066334 0 37706.80216990 0 17257.43618559 0 6691.84738459 0 75
0.00950000 0.00948925 45061.48320744 0 -3010.39903332 0 25774.60060584 0 40606.75476315 0 -1336.89464325 0 112
0.01050000 0.01054430 50332.90633035 0 -6764.68113725 0 9039.82244099 0 13137.31339732 0 -10594.33255623 0 105
0.01150000 0.01145670 52084.65883991 0 -2235.67953808 0 11577.22283038 0 -9107.00930799 0 -24979.27551411 0 144
0.01250000 0.01249090 57957.19847722 0 -2986.79283680 0 2119.42012749 0 -13057.03904239 0 -11793.13316434 0 169
0.01350000 0.01339930 57065.98705257 0 -7151.43744317 0 609.46615455 0 -11819.92819040 0 -20657.96858389 0 180
0.01450000 0.01448870 65394.03616491 0 -9320.04083750 0 4683.67090456 0 -10357.83877042 0 -41772.00622707 0 267
0.01550000 0.01550050 80082.91443907 0 -8219.31888263 0 8887.42296218 0 -15447.22180099 0 -40977.01330509 0 238
0.01650000 0.01653350 76028.67198348 0 5340.33727258 0 22515.90468846 0 -20796.70481387 0 -28571.02696203 0 315
0.01750000 0.01747870 79884.83054807 0 5759.65728579 0 29674.93774645 0 -970.09066666 0 -12735.27728316 0 297
0.01850000 0.01844180 77604.59597491 0 264.50898206 0 38784.02865151 0 1800.24929226 0 6111.66863642 0 388
0.01950000 0.01947590 77693.83891295 0 6231.01722564 0 50052.55506594 0 15075.52385683 0 -325.50088332 0 399
0.02050000 0.02045430 74152.24509646 0 9707.57220615 0 49378.13976124 0 17241.04914486 0 9283.48002095 0 462
0.02150000 0.02154770 66951.91226689 0 4494.00198042 0 45615.65306461 0 19563.46927557 0 28880.60916396 0 571
0.02250000 0.02255340 65112.02405178 0 -963.46830919 0 39432.97760913 0 23062.76681125 0 27945.10844004 0 510
0.02350000 0.02348930 65503.98435036 0 1115.00525389 0 39860.48007037 0 13286.45761263 0 28553.86485857 0 555
0.02450000 0.02439640 64304.63012600 0 2023.68880710 0 40851.45314164 0 10895.83196104 0 31658.98763071 0 592
0.02550000 0.02547300 58744.44077182 0 266.57286340 0 26985.13787826 0 9109.63344897 0 36462.71575328 0 837
0.02650000 0.02652900 63589.57938922 0 -1639.04731523 0 27922.74234390 0 10185.75269809 0 24498.07227750 0 723
0.02750000 0.02749970 62214.50736999 0 -3938.22663615 0 23232.94844372 0 6834.49214523 0 17632.89872019 0 826
0.02850000 0.02848090 65793.52564437 0 4086.92795846 0 23396.04378830 0 -2717.09314887 0 10440.33866265 0 831
0.02950000 0.02946900 57702.42428314 0 11200.09944705 0 28075.31897990 0 -11807.41646336 0 11860.12072949 0 996
0.03050000 0.03053250 52642.59328752 0 5338.28889249 0 33361.57901807 0 -5729.54056228 0 8433.77874204 0 1041
0.03150000 0.03150510 51752.93198834 0 -1056.06394718 0 34142.73153403 0 592.51774695 0 8985.18051801 0 1036
0.03250000 0.03246190 54697.72749711 0 -6689.66613660 0 33395.79250176 0 11924.45093669 0 -1190.45207520 0 1059
0.03350000 0.03345080 58151.51777779 0 -4645.94749390 0 28419.88972826 0 9783.34012488 0 -9065.41058364 0 1302
0.03450000 0.03451200 57632.00429730 0 2195.57557759 0 20849.96269625 0 6338.78416310 0 -5981.20343308 0 1339
0.03550000 0.03553350 56659.30056198 0 5572.82287680 0 16934.67791713 0 5360.52212072 0 2918.50980965 0 1365
0.03650000 0.03647120 49925.77694677 0 4784.81659178 0 15807.07235760 0 2540.24597687 0 1745.34163349 0 1308
0.03750000 0.03744890 48354.28188525 0 1595.47771707 0 14316.40526726 0 1327.60496273 0 -2566.97456898 0 1579
0.03850000 0.03847530 46571.85903595 0 1111.50639924 0 10640.33806585 0 892.00420311 0 -7307.50186149 0 1662
0.03950000 0.03950240 46681.25360516 0 1455.00313209 0 15735.65586252 0 -6936.41289519 0 -7505.60789714 0 1683
0.04050000 0.04050350 46962.37993230 0 -798.36112319 0 14891.50181834 0 -8274.94624251 0 -5834.50620156 0 1822
0.04150000 0.04152450 48722.32596223 0 -1002.50821926 0 23171.49704097 0 -6083.96567973 0 -10823.13107628 0 1887
0.04250000 0.04250150 47176.96158729 0 2834.96911889 0 23921.31487769 0 -803.65147999 0 -7451.14313136 0 1920
0.04350000 0.04349210 45738.22370035 0 3204.26436857 0 23425.49617231 0 5424.52015818 0 -9005.99648867 0 2005
0.04450000 0.04448520 42058.55799337 0 2307.82680660 0 21189.44017519 0 5660.34960449 0 -1502.33732069 0 2151
0.04550000 0.04548030 41021.52405086 0 -51.06080096 0 16598.96502863 0 13386.88359874 0 -5023.03766025 0 2274
0.04650000 0.04648670 40891.42423424 0 -1350.28108396 0 13570.90563722 0 8795.45623224 0 -266.69355174 0 2311
0.04750000 0.04749250 39492.21454691 0 642.13947786 0 9931.16673354 0 5848.59019873 0 1670.81381513 0 2568
0.04850000 0.04851840 40135.51661887 0 747.41292777 0 9440.21985108 0 262.93892640 0 449.52863701 0 2493
0.04950000 0.04949480 38187.56251353 0 2980.75841978 0 10019.74533209 0 -4503.64597533 0 3021.72602161 0 2644
0.05050000 0.05050630 36252.34158172 0 1871.92045081 0 13327.20376796 0 -5329.74105773 0 2862.37312282 0 2829
0.05150000 0.05149060 35867.46757103 0 1579.83252210 0 16031.39765842 0 -1609.27383379 0 5408.96354181 0 2784
0.05250000 0.05249300 35526.32924336 0 -99.88776040 0 16055.53532653 0 1534.31419477 0 5927.42515144 0 3055
0.05350000 0.05348950 36308.14609881 0 -554.79433629 0 16827.38708963 0 4610.94787515 0 3698.15648943 0 3009
0.05450000 0.05448610 37326.46781238 0 -686.23168975 0 14174.90095608 0 4798.52412990 0 4636.09312482 0 3336
0.05550000 0.05550870 35483.36862307 0 1572.72408957 0 12679.02987308 0 2695.15887341 0 5518.03701360 0 3349
0.05650000 0.05647670 35119.53202953 0 777.87178611 0 8587.67298469 0 2220.26686193 0 6811.25133544 0 3324
0.05750000 0.05747970 34616.73775951 0 -505.91555838 0 11153.59568282 0 -126.04402404 0 4774.25359390 0 3639
0.05850000 0.05849280 34185.47070783 0 955.10870395 0 9448.98913233 0 -154.71138023 0 3124.41076198 0 3846
0.05950000 0.05951020 33264.36400616 0 2082.87038326 0 9142.45181973 0 -197.25457388 0 1622.09558593 0 3787
0.06050000 0.06049470 31890.28849617 0 523.68996141 0 8670.22823854 0 -1002.67430414 0 3674.10739992 0 3930
0.06150000 0.06148310 31898.26057004 0 25.81257868 0 9821.90503223 0 694.32888089 0 1382.21366874 0 4083
0.06250000 0.06249100 32300.73957720 0 -437.43212215 0 9546.74668816 0 1545.85155723 0 1304.87347988 0 4303
0.06350000 0.06350600 32693.36421527 0 677.75582510 0 11193.23460567 0 -51.59050098 0 882.26166450 0 4470
0.06450000 0.06451750 30775.30538693 0 1539.58462138 0 10721.91895511 0 -1883.24743910 0 1421.45398789 0 4479
0.06550000 0.06550280 30906.73388253 0 897.95668493 0 10983.61335220 0 19.02247548 0 729.40268422 0 4636
0.06650000 0.06648880 30041.09952821 0 73.43863376 0 12142.79718211 0 1343.57125512 0 4261.72675037 0 4653
0.06750000 0.06749660 30321.67223911 0 -762.10590280 0 9802.47310217 0 2364.22922923 0 2993.02655568 0 5220
0.06850000 0.06852730 30491.74314833 0 -405.14079404 0 8552.65122129 0 3913.91181084 0 1537.18192690 0 5029
0.06950000 0.06949320 31241.67170829 0 -418.29693039 0 7861.05166847 0 1014.63795110 0 459.26342499 0 5040
0.07050000 0.07048030 29968.35435415 0 370.43127020 0 6414.24205674 0 238.80236553 0 -308.45393203 0 5475
0.07150000 0.07148790 29572.40801863 0 1755.53924465 0 7629.73973068 0 -1121.38291298 0 1752.94832064 0 5509
0.07250000 0.07249820 28006.55984278 0 1919.68646008 0 6752.45729065 0 -263.46486183 0 1552.42851817 0 5916
0.07350000 0.07351270 26631.93071655 0 971.85780970 0 8167.12394343 0 -166.10923139 0 1130.25184516 0 5721
0.07450000 0.07449140 26313.60137801 0 1144.07010654 0 8974.72824338 0 262.48606831 0 443.91053940 0 6028
0.07550000 0.07549160 25399.80241073 0 769.10693379 0 8939.78398625 0 -568.22395907 0 -467.30746897 0 6183
0.07650000 0.07648840 24599.27332634 0 422.75907730 0 8272.10065504 0 -168.35912780 0 1312.42480540 0 6330
0.07750000 0.07749960 25117.01523486 0 -389.46127487 0 8763.26898399 0 472.22358119 0 857.39875912 0 6583
0.07850000 0.07848650 24905.31238433 0 -162.80635690 0 7835.04277747 0 37.47539058 0 -352.74212407 0 6549
0.07950000 0.07947320 24997.43412682 0 223.85472702 0 8633.46812014 0 -122.94820202 0 -2130.54781393 0 6828
0.08050000 0.08048110 24378.82333920 0 863.88160530 0 7970.78947975 0 58.53683468 0 -1419.32810153 0 7147
0.08150000 0.08149960 23638.74914832 0 520.39151585 0 7321.81837748 0 -110.97569719 0 -1606.74934373 0 7386
0.08250000 0.08250610 23502.00593681 0 418.58702530 0 6611.97163335 0 673.92701518 0 -2570.35162805 0 7227
0.08350000 0.08350160 23193.86313711 0 267.05893846 0 7137.19843345 0 1216.16201343 0 -1499.43637159 0 7798
0.08450000 0.08449610 22829.47292733 0 477.59476596 0 6804.60794055 0 888.72347327 0 -1420.59034656 0 7371
0.08550000 0.08548940 21988.52985735 0 606.86194375 0 5715.97696438 0 727.78501756 0 -1412.95044243 0 8256
0.08650000 0.08650700 21979.78272074 0 715.07288144 0 6573.55066623 0 584.56338880 0 -812.37647194 0 8037
0.08750000 0.08749060 21253.65965914 0 226.57851893 0 5741.18864799 0 15.93883302 0 -539.83451823 0 8155
0.08850000 0.08849210 21429.04528426 0 -161.60722412 0 6606.66798976 0 9.91356174 0 71.12352137 0 8718
0.08950000 0.08949900 21732.20553780 0 18.55411615 0 7489.15442246 0 -7.98326799 0 -488.22530502 0 8571
0.09050000 0.09049190 21533.12513756 0 394.49143203 0 8021.29035324 0 -415.93188181 0 367.67869025 0 8932
0.09150000 0.09150830 21286.21229410 0 836.59386079 0 7555.15655070 0 -748.06287323 0 852.54797362 0 9285
0.09250000 0.09250820 20223.93345100 0 760.36311888 0 8595.12465930 0 -418.89705040 0 1128.28097134 0 9204
0.09350000 0.09350330 20343.84672879 0 453.32201549 0 8969.55746769 0 28.80664603 0 1407.68001582 0 9349
0.09450000 0.09448040 19570.00194721 0 467.32297023 0 9474.71014289 0 544.80156314 0 1732.12127765 0 9564
0.09550000 0.09549270 19261.30553127 0 695.30435271 0 8220.57005533 0 623.05964773 0 1343.34980862 0 10155
0.09650000 0.09649430 18473.62034367 0 57.78568817 0 8003.36425936 0 1215.40909534 0 1942.97155918 0 9913
0.09750000 0.09749140 18564.63485368 0 359.52503026 0 7703.56999257 0 1306.54540093 0 938.24444602 0 10476
0.09850000 0.09850240 18285.39082175 0 344.94388570 0 7409.71049189 0 424.07557672 0 832.93002850 0 10575
0.09950000 0.09950330 17826.88585101 0 286.68463420 0 6452.55230061 0 1112.40325755 0 355.61317790 0 10882
0.10050000 0.10051200 17160.66406668 0 329.22450616 0 5989.13121765 0 283.63642318 0 1105.69453595 0 10875
0.10150000 0.10150300 17276.25913778 0 -36.55494822 0 5652.00107158 0 1508.77034141 0 485.29556787 0 11118
0.10250000 0.10250800 16936.78165884 0 -102.62041016 0 5434.48525051 0 237.74938744 0 542.86944246 0 11575
0.10350000 0.10349800 16971.65948202 0 678.68257869 0 5415.38549020 0 381.37847775 0 420.66530067 0 11364
0.10450000 0.10450100 16490.12407566 0 468.65054197 0 5792.12134216 0 -776.21979525 0 1874.99855711 0 12093
0.10550000 0.10551000 15968.61757670 0 583.61559780 0 5973.44173339 0 -405.85828069 0 1161.76368160 0 12067
0.10650000 0.10649700 16078.67648540 0 -6.91141159 0 5918.04689232 0 -123.50292549 0 919.72266106 0 12054
0.10750000 0.10749900 15736.32020200 0 142.51853614 0 6353.59893371 0 -38.05635546 0 953.56743633 0 12807
0.10850000 0.10850100 16133.37377000 0 288.76512404 0 6331.40999477 0 -98.80964813 0 1246.23444764 0 12736
0.10950000 0.10950300 15422.19834690 0 162.84732450 0 6032.02540400 0 480.88324643 0 1034.72204109 0 12933
0.11050000 0.11050200 15485.86421461 0 220.14439097 0 5494.63011893 0 888.57067518 0 1291.04414618 0 13428
0.11150000 0.11150900 14933.02303641 0 323.91864810 0 5464.35838287 0 785.91804456 0 632.64163763 0 13453
0.11250000 0.11250000 15169.86006428 0 130.18175182 0 4848.95856945 0 448.98941479 0 777.10336677 0 13668
0.11350000 0.11349100 14696.85034803 0 109.16193966 0 5397.37081772 0 -203.58130028 0 226.72688808 0 13791
0.11450000 0.11448600 14819.97460001 0 315.07518227 0 5110.92977466 0 -537.74959947 0 615.80506051 0 14205
0.11550000 0.11549300 14516.26073024 0 162.29481549 0 5345.47483130 0 -116.74880735 0 102.64953038 0 14776
0.11650000 0.11649800 14516.48217673 0 263.72173976 0 5312.54573729 0 -554.08902920 0 -140.37714852 0 14553
0.11750000 0.11747300 14367.55940792 0 235.75636897 0 5642.71139105 0 -252.42132505 0 -842.96930542 0 14568
0.11850000 0.11849100 14059.08443848 0 617.18135048 0 5983.32931945 0 -333.70215431 0 -998.95178853 0 16015
0.11950000 0.11950300 13606.33707664 0 205.09599431 0 5249.23418397 0 439.47053714 0 -648.04767038 0 15270
0.12050000 0.12050700 13553.52208726 0 -135.97589940 0 4970.31124947 0 1134.35967767 0 -1012.02045352 0 15999
0.12150000 0.12150000 13630.14257500 0 -332.14538544 0 4521.18453785 0 1105.66685514 0 -1266.41929578 0 15670
0.12250000 0.12250700 13685.17202935 0 -202.86270640 0 4137.93815890 0 842.50537501 0 -1403.64968958 0 16887
0.12350000 0.12352200 13765.44638429 0 121.32499920 0 3558.10265280 0 229.00335806 0 -1149.52876267 0 16407
0.12450000 0.12449800 13629.92112851 0 116.65912152 0 3354.77047983 0 469.39460220 0 -836.78651924 0 16306
0.12550000 0.12549900 13584.96748974 0 174.39022313 0 3231.72373412 0 412.07871278 0 -37.48336266 0 17523
0.12650000 0.12650100 13307.60575303 0 284.64843367 0 3161.24838665 0 -195.06114633 0 202.93689097 0 17154
0.12750000 0.12750600 13248.25809201 0 323.86107202 0 3246.36134753 0 127.52107217 0 -320.59695066 0 18007
0.12850000 0.12850300 12914.87039172 0 50.76129458 0 3185.54106730 0 -28.11684020 0 -90.62288188 0 17496
0.12950000 0.12949900 12782.00249389 0 164.63439773 0 3323.33614967 0 -239.05813623 0 19.72656462 0 18405
0.13050000 0.13049000 12876.33870135 0 246.30386559 0 3336.08039553 0 232.36823757 0 452.50930685 0 18100
0.13150000 0.13148800 12534.31458770 0 217.66529745 0 3342.43590998 0 -9.86225258 0 67.85319951 0 19059
0.13250000 0.13249300 12514.16295653 0 354.76171612 0 3669.87777184 0 -112.34645100 0 493.80575673 0 18957
0.13350000 0.13349100 12237.46555931 0 333.88706214 0 3807.20781657 0 -221.38670582 0 656.34859230 0 19468
0.13450000 0.13450700 12156.08397190 0 125.44058234 0 3976.57009699 0 -1.11659967 0 539.49349063 0 19953
0.13550000 0.13551000 11995.86743177 0 -134.73579902 0 3883.57364084 0 454.88432052 0 694.25580355 0 19956
0.13650000 0.13649900 12243.00172172 0 -122.53963323 0 3770.74665094 0 119.71286871 0 1.56872698 0 19723
0.13750000 0.13749600 12259.05659271 0 33.22096049 0 3687.67099782 0 70.48608763 0 -374.35862382 0 20946
0.13850000 0.13851100 12024.54475305 0 327.70981212 0 3617.26208430 0 -332.00365969 0 -468.17111031 0 20955
0.13950000 0.13949800 11714.74110462 0 436.27063527 0 3685.79977493 0 -481.89968585 0 87.28070063 0 20506
0.14050000 0.14048300 11634.35602644 0 126.92870279 0 4130.79650939 0 228.46856477 0 -269.52585243 0 21447
0.14150000 0.14148400 11449.22675547 0 71.85606638 0 4110.40128708 0 370.36151456 0 -152.69400264 0 21771
0.14250000 0.14249400 11404.82673295 0 237.51576138 0 4195.81320073 0 223.40076170 0 -160.39812625 0 22470
0.14350000 0.14350900 11203.75331424 0 269.03202675 0 3898.73165352 0 122.83747877 0 16.63173911 0 22519
0.14450000 0.14449900 10925.56115318 0 179.91642044 0 4036.58209751 0 99.80139626 0 224.95753057 0 22218
0.14550000 0.14550500 10777.09234968 0 243.01317065 0 3695.27768498 0 388.90433693 0 397.75887509 0 23559
0.14650000 0.14650700 10670.86446537 0 111.36212133 0 3875.09224003 0 348.71511954 0 557.74732532 0 23044
0.14750000 0.14750500 10482.12561651 0 38.51917864 0 3174.72340595 0 566.59632732 0 407.89891016 0 23649
0.14850000 0.14849900 10645.23203342 0 -146.13918635 0 3143.37765439 0 398.53615229 0 349.95521992 0 23640
0.14950000 0.14949500 10458.22046723 0 82.67616363 0 2984.08011722 0 -137.04770044 0 144.46062191 0 24457
0.15050000 0.15050000 10470.79862822 0 238.48680427 0 3041.04722842 0 -85.75582006 0 139.91653980 0 24591
0.15150000 0.15149900 10099.59893868 0 304.92628934 0 2882.25901819 0 -303.50460284 0 97.88699130 0 25020
0.15250000 0.15250500 9980.10640924 0 386.58800658 0 3158.59102869 0 78.57187427 0 -39.55344450 0 25297
0.15350000 0.15350100 9673.54695198 0 136.05119121 0 2876.24674581 0 418.99227239 0 101.36890529 0 25452
0.15450000 0.15450400 9388.08027351 0 247.49635497 0 2540.06881967 0 435.02610596 0 -138.71297810 0 26061
0.15550000 0.15549900 9311.83624481 0 245.49115695 0 2466.10568988 0 221.43542405 0 -91.77451438 0 26128
0.15650000 0.15649500 9155.19606560 0 111.86591211 0 2446.33051776 0 327.63009138 0 75.21695985 0 26331
0.15750000 0.15749700 9021.36487551 0 164.25683145 0 2389.95023978 0 -14.56807921 0 271.61852182 0 27345
0.15850000 0.15849900 8989.35478446 0 5.17797270 0 2554.67321611 0 -318.81541360 0 273.62593431 0 26980
0.15950000 0.15949700 8967.71946177 0 -26.87751488 0 2674.22110717 0 -45.73113741 0 594.81193265 0 27777
0.16050000 0.16050000 9230.95291201 0 -13.48509512 0 2757.90573815 0 -19.14659625 0 159.42486890 0 28224
0.16150000 0.16150500 8988.24755198 0 24.22403224 0 2509.49813085 0 162.23059601 0 241.76421242 0 28075
0.16250000 0.16249700 9154.59816006 0 79.35280534 0 2797.47822706 0 -20.73403546 0 -142.15425665 0 28590
0.16350000 0.16349900 8841.72747766 0 183.69208321 0 2521.51160328 0 123.13753877 0 -115.84862735 0 29163
0.16450000 0.16449100 8884.34485588 0 203.22366419 0 2448.63356132 0 280.29479555 0 -269.55574771 0 28996
0.16550000 0.16550500 8588.24874558 0 47.75449405 0 2087.13322831 0 320.53605287 0 138.56460894 0 30777
0.16650000 0.16650700 8751.23336691 0 78.13219225 0 2202.87223964 0 424.02907295 0 -105.99691561 0 29211
0.16750000 0.16749900 8486.52729747 0 126.62975002 0 2108.85712961 0 113.88439692 0 50.31042951 0 30922
0.16850000 0.16850800 8444.80677756 0 224.79587463 0 2166.47750797 0 -78.77571577 0 144.56470176 0 30867
0.16950000 0.16949900 8234.97514992 0 119.44713291 0 2104.78251408 0 -82.45194906 0 315.04860869 0 30852
0.17050000 0.17049200 8174.49811176 0 43.28238206 0 2122.25464264 0 154.50986391 0 280.95027718 0 31257
0.17150000 0.17149500 8191.38340711 0 6.63816875 0 2064.47925174 0 131.11404157 0 110.61418579 0 32608
0.17250000 0.17250900 8195.23657615 0 21.56235608 0 1724.76925397 0 212.76690095 0 -11.05205139 0 32361
0.17350000 0.17350400 8075.50045556 0 126.72275755 0 1718.59089673 0 104.63823064 0 -55.72047814 0 32508
0.17450000 0.17449800 8053.34473359 0 183.49499582 0 1671.55566090 0 58.58599580 0 137.40312207 0 32791
0.17550000 0.17549800 7875.36818446 0 128.91397063 0 1723.81703404 0 48.59344410 0 509.74547554 0 33633
0.17650000 0.17650100 7757.22647864 0 103.56122560 0 1663.77181655 0 120.42703366 0 406.00111368 0 33984
0.17750000 0.17750300 7771.34369279 0 98.21694658 0 1867.82369063 0 218.87771702 0 578.67844816 0 34069
0.17850000 0.17849800 7724.56312043 0 47.45731285 0 1624.50935274 0 220.10785230 0 479.27775933 0 34536
