### header ###
fiducial parameters:
Omega_m = 0.31
Omega_nu = 0
Omega_de = 0.69
Omega_k = 0
H_0 = 100
w_de = -1
zeff = 0
beta = 0
fgrowth = 0
b_1 = 2
gamma = 0.55
Lx = 3500 Ly = 3500 Lz = 3500
nx = 700 ny = 700 nz = 700
xoffset = -685.467585 yoffset = -31.7331281 zoffset = 572.489161
bins = 400 dk = 0.001
kx_ny = 0.628318531 ky_ny = 0.628318531 kz_ny = 0.628318531
############################
A(data) = 8.0652912 (not used)
A(ran) = 8.06955381 (used)
Ngal = 479698
weighted Ngal = 0
Nran = 23820508
weighted Nran = 0
SN(data) = 3483.16774
SN(ran) = 70.2887403
SN(data+ran) = 3553.45648
############################
13 columns: k_central k_mean P_0(k) sigma^{lin}_{P_0(k)} P^img_1(k) sigma^{lin}_{P_1(k)} P_2(k) sigma^{lin}_{P_2(k)} P^img_3(k) sigma^{lin}_{P_3(k)} P_4(k) sigma^{lin}_{P_4(k)} N_modes
### header ###
0.00050000 0 0 0 0 0 0 0 0 0 0 0 0
0.00150000 0.00179520 14052.44104358 0 -21497.25080515 0 21839.27491879 0 -40398.37361006 0 -33104.36891253 0 3
0.00250000 0.00253879 26976.61218815 0 -22279.06766059 0 -19731.32571982 0 4782.92322424 0 -1916.29832869 0 6
0.00350000 0.00331552 45090.27125197 0 -28357.44181628 0 -8105.86077021 0 -18977.52184617 0 -84624.78207968 0 7
0.00450000 0.00420575 60873.20594146 0 -20263.24020411 0 -23230.51253226 0 -12195.61217150 0 7628.03459266 0 24
0.00550000 0.00557378 69095.29290529 0 5467.94581612 0 2523.57105569 0 -35870.56782198 0 15890.00407049 0 45
0.00650000 0.00659388 70134.98420576 0 18511.15552481 0 -10053.05088514 0 -49055.93510901 0 31301.79443206 0 40
0.00750000 0.00754703 54772.79785938 0 7861.10703009 0 15913.69884560 0 -10838.45517383 0 -13184.59222430 0 57
0.00850000 0.00846663 51473.79867966 0 8509.82346889 0 17056.69493663 0 -5901.54912834 0 1945.14173484 0 75
0.00950000 0.00948925 45970.52107505 0 6061.24526920 0 18696.83841201 0 -13176.39870393 0 -17619.94410015 0 112
0.01050000 0.01054430 46898.49261810 0 -5736.42754832 0 26552.54214760 0 16106.13585095 0 2982.52999175 0 105
0.01150000 0.01145670 53526.82914753 0 -14453.03775552 0 22166.68356368 0 11284.13839243 0 -11919.35766727 0 144
0.01250000 0.01249090 64578.67016527 0 -6495.56828253 0 21908.47694891 0 3882.34461279 0 -19680.94664190 0 169
0.01350000 0.01339930 72149.04009027 0 -10174.18211866 0 9524.93420827 0 -3027.37290726 0 -27525.35660616 0 180
0.01450000 0.01448870 84830.83804456 0 -7516.22625664 0 2069.30678536 0 -14343.53246307 0 -18756.29679629 0 267
0.01550000 0.01550050 85983.13488843 0 -7777.09022937 0 7114.11263620 0 -10792.28357933 0 -14409.52351899 0 238
0.01650000 0.01653350 100572.69440897 0 1258.48043889 0 20687.64241441 0 -32982.90550927 0 -47482.55775228 0 315
0.01750000 0.01747870 87682.40457835 0 10132.87127476 0 14967.90085959 0 -16803.47086803 0 -35752.97973240 0 297
0.01850000 0.01844180 88399.00544061 0 8677.39203270 0 31970.45212786 0 -12466.77340631 0 -58382.81864325 0 388
0.01950000 0.01947590 79583.10969676 0 -2817.08731431 0 23339.57493172 0 13582.19940854 0 -43257.91221773 0 399
0.02050000 0.02045430 87110.40827822 0 -8018.50012739 0 22668.70277096 0 13908.94371394 0 -56350.27197629 0 462
0.02150000 0.02154770 91716.82757252 0 1236.94476712 0 20054.08398828 0 2500.58490937 0 -64182.17021351 0 571
0.02250000 0.02255340 86288.17743719 0 5306.69954978 0 18712.45039001 0 -18295.35591409 0 -42889.86814076 0 510
0.02350000 0.02348930 79789.16566163 0 12518.92405620 0 19293.74744299 0 -20149.30598172 0 -46920.08365150 0 555
0.02450000 0.02439640 73952.05746374 0 10866.26885377 0 20108.22765665 0 -8681.13447849 0 -28956.45458897 0 592
0.02550000 0.02547300 65688.67072833 0 3812.75505130 0 22658.07333913 0 2403.86815208 0 -38813.14886578 0 837
0.02650000 0.02652900 62865.44934608 0 1917.42770582 0 17340.92151472 0 5353.52441144 0 -39615.89241513 0 723
0.02750000 0.02749970 65486.60080039 0 -2406.95733070 0 20116.64262351 0 8047.99680071 0 -37875.87656988 0 826
0.02850000 0.02848090 59395.71491766 0 421.21559522 0 10660.03573170 0 5361.77329343 0 -25231.83524323 0 831
0.02950000 0.02946900 62962.00001849 0 3286.62032057 0 12953.73425183 0 4704.88547891 0 -29679.80956937 0 996
0.03050000 0.03053250 57320.76124664 0 4398.72462535 0 13953.12228996 0 -5016.07316794 0 -18265.68208358 0 1041
0.03150000 0.03150510 56511.92791864 0 2900.32905230 0 14284.73841828 0 -384.50862398 0 -11620.40489717 0 1036
0.03250000 0.03246190 56282.62007165 0 -169.57154737 0 17819.35667014 0 3215.69100778 0 -292.28280163 0 1059
0.03350000 0.03345080 56250.51032967 0 -4410.43914501 0 17941.48441289 0 5050.70739997 0 -8029.87140498 0 1302
0.03450000 0.03451200 61377.88250669 0 -901.98368947 0 22061.60720115 0 519.24995916 0 -12580.15401245 0 1339
0.03550000 0.03553350 59254.32132972 0 6482.83510899 0 22082.64461831 0 -5249.65493232 0 -8381.58380284 0 1365
0.03650000 0.03647120 53438.91488847 0 7416.45353770 0 19815.14321870 0 -1582.13556566 0 -506.39499005 0 1308
0.03750000 0.03744890 47943.94152748 0 1137.78102604 0 20965.44704411 0 1891.60704434 0 -6440.73813003 0 1579
0.03850000 0.03847530 48334.13025408 0 -680.71545753 0 22712.32773074 0 4234.76563944 0 -13832.65539593 0 1662
0.03950000 0.03950240 45876.95993033 0 1559.81375883 0 19484.30215312 0 2538.75121302 0 -18117.31293101 0 1683
0.04050000 0.04050350 44977.99787831 0 3789.73568800 0 13653.72662687 0 -433.17038432 0 -11748.40097207 0 1822
0.04150000 0.04152450 43563.50838272 0 453.91770657 0 14654.66479047 0 -2061.66688123 0 -5462.52037695 0 1887
0.04250000 0.04250150 43386.68335537 0 390.53086145 0 15316.56836813 0 1307.50869318 0 -8336.87375523 0 1920
0.04350000 0.04349210 42529.79613765 0 1212.93996691 0 16854.18211570 0 1368.94902360 0 -7029.90760596 0 2005
0.04450000 0.04448520 41420.34919083 0 2263.80324312 0 18037.14929932 0 2638.64572753 0 -6041.04934873 0 2151
0.04550000 0.04548030 39308.52467817 0 1521.63638285 0 18116.64859152 0 2307.89324055 0 -169.22719806 0 2274
0.04650000 0.04648670 37380.83292724 0 1590.76090669 0 17274.04467282 0 5864.02501953 0 2505.04705627 0 2311
0.04750000 0.04749250 37093.28465170 0 933.84873306 0 17138.51941704 0 3811.38208302 0 4602.47754667 0 2568
0.04850000 0.04851840 36800.42166025 0 693.12864088 0 15503.46921107 0 2838.96622815 0 3985.82656054 0 2493
0.04950000 0.04949480 35411.39851175 0 442.49771075 0 14744.57206800 0 23.65690776 0 7858.87042048 0 2644
0.05050000 0.05050630 35008.69805809 0 178.02969629 0 14675.25931463 0 1336.34102701 0 8216.26292098 0 2829
0.05150000 0.05149060 34827.55482406 0 -1060.67889216 0 15006.32182671 0 1513.86361083 0 5239.30230861 0 2784
0.05250000 0.05249300 35940.43419158 0 -385.96242023 0 13007.54575045 0 3272.69133595 0 7709.02864871 0 3055
0.05350000 0.05348950 36859.10498178 0 539.45584472 0 11857.35264829 0 1385.52429386 0 3347.66204729 0 3009
0.05450000 0.05448610 36635.55474370 0 111.99767277 0 10594.87510014 0 320.88261664 0 4738.50105706 0 3336
0.05550000 0.05550870 35523.56116216 0 372.29252800 0 12036.72431035 0 -799.71748298 0 1405.36589993 0 3349
0.05650000 0.05647670 36385.76309579 0 1163.34702405 0 10193.38152989 0 -1159.23919154 0 179.60085919 0 3324
0.05750000 0.05747970 34861.87903100 0 852.20140985 0 12247.54137490 0 -2136.89225605 0 -882.36795882 0 3639
0.05850000 0.05849280 35159.50312212 0 346.14412571 0 12500.43327376 0 -1570.44319065 0 -3567.63592447 0 3846
0.05950000 0.05951020 34817.14683873 0 -534.58512903 0 13006.88141096 0 -1253.11036135 0 -4287.37025465 0 3787
0.06050000 0.06049470 34827.55482406 0 68.08527544 0 13888.45991302 0 1721.94581115 0 -6158.43813646 0 3930
0.06150000 0.06148310 34636.44649769 0 1492.32793906 0 13592.71811711 0 1463.13021851 0 -5499.07012118 0 4083
0.06250000 0.06249100 33729.95526479 0 790.73118416 0 9909.01101158 0 1941.73145880 0 -5205.36563304 0 4303
0.06350000 0.06350600 33287.50516503 0 150.32563237 0 11173.41514424 0 2223.87643983 0 -1071.58623934 0 4470
0.06450000 0.06451750 33903.90148769 0 -395.74260474 0 9852.27641920 0 401.88553055 0 -1604.85597619 0 4479
0.06550000 0.06550280 32622.50133643 0 484.18169199 0 10876.03464426 0 2534.58801889 0 -58.77976149 0 4636
0.06650000 0.06648880 32713.07295344 0 823.81861241 0 9736.08344256 0 -8.64765177 0 238.10370183 0 4653
0.06750000 0.06749660 32124.35744283 0 481.71256356 0 10294.27255364 0 54.79250660 0 2454.66797834 0 5220
0.06850000 0.06852730 31074.70105003 0 1114.77273507 0 11535.59088906 0 -350.06040700 0 -191.29987759 0 5029
0.06950000 0.06949320 30436.38152423 0 1231.48611098 0 11784.82892073 0 -220.75336884 0 527.59406314 0 5040
0.07050000 0.07048030 29309.44030419 0 417.50525917 0 10689.12272900 0 3040.06179151 0 2204.34485885 0 5475
0.07150000 0.07148790 29166.82876053 0 480.43703174 0 9413.86771801 0 1278.02309219 0 262.33216300 0 5509
0.07250000 0.07249820 29442.97254150 0 -187.65818996 0 9773.59647904 0 773.10072135 0 -252.94283155 0 5916
0.07350000 0.07351270 29512.17457162 0 127.85767084 0 10537.08863691 0 -969.51490577 0 895.46762631 0 5721
0.07450000 0.07449140 29008.05162263 0 1273.46129437 0 9550.35626605 0 -181.88286533 0 1119.44525614 0 6028
0.07550000 0.07549160 28440.26280593 0 1012.21864813 0 10325.00932734 0 -352.84509669 0 1491.42000842 0 6183
0.07650000 0.07648840 27846.67547240 0 86.97975485 0 10954.61493350 0 1112.01572619 0 1367.76428485 0 6330
0.07750000 0.07749960 28205.30807328 0 -189.87929831 0 10755.29094211 0 784.36349015 0 -254.92699216 0 6583
0.07850000 0.07848650 27576.62147007 0 1285.36404355 0 11393.75440813 0 584.11274518 0 -582.88482436 0 6549
0.07950000 0.07947320 26175.08659453 0 1507.02091409 0 9789.71778398 0 -792.13958387 0 165.18690674 0 6828
0.08050000 0.08048110 25025.89000160 0 852.16487118 0 9843.71751212 0 589.28241364 0 171.30325897 0 7147
0.08150000 0.08149960 24802.56121001 0 213.59953977 0 9530.74717880 0 790.83304954 0 -924.45718715 0 7386
0.08250000 0.08250610 24313.16445302 0 284.22879256 0 8831.03161188 0 1025.33824581 0 -1240.27753689 0 7227
0.08350000 0.08350160 23940.13782988 0 606.23635740 0 8622.13005953 0 840.56218200 0 -605.59859149 0 7798
0.08450000 0.08449610 23526.91866765 0 363.02942106 0 7679.16658867 0 1081.13279780 0 -122.68246622 0 7371
0.08550000 0.08548940 23524.48275619 0 -117.35889245 0 8392.63398301 0 930.46060167 0 -631.70270448 0 8256
0.08650000 0.08650700 22946.06450767 0 460.08609872 0 7147.92751620 0 701.34762759 0 -101.51317768 0 8037
0.08750000 0.08749060 22307.85570512 0 1074.62891420 0 7052.29584674 0 369.74700053 0 -628.15956054 0 8155
0.08850000 0.08849210 21220.44268468 0 843.15089155 0 5899.07999990 0 1425.73897760 0 -597.91771976 0 8718
0.08950000 0.08949900 20771.12774354 0 -82.66531276 0 4968.32930332 0 1743.96866521 0 -51.37392631 0 8571
0.09050000 0.09049190 20643.68528488 0 62.98635913 0 4153.97088524 0 555.02353342 0 -1728.98780973 0 8932
0.09150000 0.09150830 20446.48717986 0 360.34991846 0 3329.70273644 0 690.42477916 0 -2158.38363852 0 9285
0.09250000 0.09250820 20097.37677832 0 452.23139150 0 2945.07231689 0 -913.10694698 0 -1840.60791623 0 9204
0.09350000 0.09350330 19653.15510660 0 625.88309056 0 3702.30861123 0 -759.03443990 0 -2482.16056087 0 9349
0.09450000 0.09448040 19187.01023174 0 709.53007563 0 4489.27409772 0 -238.64735298 0 -853.98848308 0 9564
0.09550000 0.09549270 18842.55020663 0 484.26584166 0 5285.79500052 0 -587.99691673 0 -1171.11979607 0 10155
0.09650000 0.09649430 18189.50448882 0 921.77325562 0 5440.80754798 0 -746.02999440 0 -904.52921694 0 9913
0.09750000 0.09749140 18079.11341038 0 224.71061773 0 5874.06761814 0 93.44023493 0 -998.51996787 0 10476
0.09850000 0.09850240 17784.14667721 0 -171.93548871 0 5653.37403985 0 164.11953462 0 -380.62998859 0 10575
0.09950000 0.09950330 18035.04555760 0 -272.73129047 0 5900.46404051 0 1013.89278364 0 -630.10607524 0 10882
0.10050000 0.10051200 17842.82999875 0 355.07506291 0 5759.71264741 0 630.63201067 0 -1152.97225569 0 10875
0.10150000 0.10150300 17328.18834118 0 864.42193475 0 4792.12432616 0 233.06136511 0 -1114.44056532 0 11118
0.10250000 0.10250800 17085.48298116 0 390.84863717 0 5793.40573183 0 -654.53715996 0 -530.02886737 0 11575
0.10350000 0.10349800 16695.84787079 0 401.39834826 0 5684.62014049 0 -200.72796217 0 -494.04824064 0 11364
0.10450000 0.10450100 16466.42930055 0 416.11568240 0 6697.27282376 0 -698.85192558 0 327.20159241 0 12093
0.10550000 0.10551000 15911.48438064 0 389.73254683 0 6230.53004335 0 -203.91679172 0 697.77680284 0 12067
0.10650000 0.10649700 16108.79320890 0 -109.43863706 0 7290.33975802 0 863.10543533 0 414.71503331 0 12054
0.10750000 0.10749900 15879.37463866 0 230.29882007 0 6584.56762943 0 909.49183293 0 232.54318031 0 12807
0.10850000 0.10850100 15726.13366317 0 337.57082461 0 6131.98635246 0 567.64819817 0 474.48122822 0 12736
0.10950000 0.10950300 15356.42873748 0 -12.62931513 0 5656.59608638 0 239.08249534 0 198.79473426 0 12933
0.11050000 0.11050200 15530.81785337 0 21.68625539 0 5995.17670700 0 -274.22494709 0 126.43044817 0 13428
0.11150000 0.11150900 15363.07213237 0 355.41941221 0 5860.48187559 0 -398.66459126 0 -102.56139467 0 13453
0.11250000 0.11250000 15194.55134863 0 272.27843238 0 6415.57073572 0 -484.45960735 0 469.11336515 0 13668
0.11350000 0.11349100 15051.38618872 0 172.24883551 0 6355.64731380 0 519.03072713 0 1078.05358427 0 13791
0.11450000 0.11448600 15086.15328865 0 73.81309979 0 6092.77925028 0 1034.80840523 0 1358.21994085 0 14205
0.11550000 0.11549300 14903.68137564 0 -9.69325569 0 5884.54203742 0 1311.60545337 0 1611.30006923 0 14776
0.11650000 0.11649800 15258.10649309 0 -77.90465598 0 5716.60808689 0 1019.97481167 0 2002.61817297 0 14553
0.11750000 0.11747300 14764.28080618 0 333.49288738 0 5434.70669701 0 265.05263321 0 1845.91155982 0 14568
0.11850000 0.11849100 14838.35465921 0 309.93098016 0 5266.40735977 0 -524.10295913 0 1651.21580020 0 16015
0.11950000 0.11950300 14203.68900061 0 247.00695822 0 5266.90561438 0 -368.87450133 0 2025.26107723 0 15270
0.12050000 0.12050700 14500.20585925 0 7.41771578 0 5314.77127457 0 111.08974214 0 890.79953417 0 15999
0.12150000 0.12150000 14446.28363738 0 -140.28414099 0 5163.43473895 0 194.63596906 0 1026.70346346 0 15670
0.12250000 0.12250700 14561.76798524 0 201.95034683 0 5110.28757982 0 195.03235829 0 -183.58689612 0 16887
0.12350000 0.12352200 14376.86016077 0 117.87597002 0 4672.17783140 0 374.27115245 0 576.14510024 0 16407
0.12450000 0.12449800 14080.12185563 0 405.57150748 0 5158.91723043 0 -251.84556416 0 218.21227029 0 16306
0.12550000 0.12549900 13803.64590491 0 344.47441913 0 4896.83530197 0 436.11562272 0 757.28390534 0 17523
0.12650000 0.12650100 13552.96847102 0 292.39795381 0 4966.85668412 0 740.12512357 0 731.84523907 0 17154
0.12750000 0.12750600 13061.13580257 0 449.58067694 0 4221.52313896 0 895.85405045 0 937.24240062 0 18007
0.12850000 0.12850300 12772.59101780 0 363.83991524 0 4249.81292887 0 773.97322054 0 532.67736747 0 17496
0.12950000 0.12949900 12306.44614293 0 130.80069478 0 3547.62823352 0 314.18718182 0 584.88891515 0 18405
0.13050000 0.13049000 12043.47842849 0 160.41252028 0 3270.66510050 0 400.32876168 0 454.98175698 0 18100
0.13150000 0.13148800 12010.48290053 0 267.98790652 0 3029.65380618 0 40.94667514 0 76.10186005 0 19059
0.13250000 0.13249300 11894.44493643 0 171.73507963 0 2797.66645658 0 -8.99726042 0 518.48043259 0 18957
0.13350000 0.13349100 11864.54965942 0 15.48066022 0 2971.54624553 0 -548.74773971 0 395.67284909 0 19468
0.13450000 0.13450700 11836.53667763 0 139.73606091 0 3250.64633723 0 -113.85339441 0 720.62122340 0 19953
0.13550000 0.13551000 11817.82444869 0 61.48140874 0 3627.10538107 0 29.36912013 0 877.61793147 0 19956
0.13650000 0.13649900 11906.07087749 0 -11.03990505 0 3989.55793401 0 287.37554727 0 697.01502689 0 19723
0.13750000 0.13749600 11837.09029387 0 -130.00348739 0 3998.99155475 0 507.51329485 0 892.85677212 0 20946
0.13850000 0.13851100 11872.74317979 0 196.81721705 0 3854.13232915 0 488.68812820 0 985.55538274 0 20955
0.13950000 0.13949800 11639.89218885 0 302.66421338 0 3545.91202317 0 -249.08080466 0 902.44429818 0 20506
0.14050000 0.14048300 11510.45671172 0 225.65397980 0 3679.61034536 0 -37.50251778 0 691.90736345 0 21447
0.14150000 0.14148400 11247.59972053 0 140.57645036 0 3314.37863889 0 -375.89767697 0 596.80938005 0 21771
0.14250000 0.14249400 11146.95228792 0 190.44730858 0 3706.48287769 0 -191.32645117 0 354.59230955 0 22470
0.14350000 0.14350900 10988.69554929 0 150.80063510 0 3556.25357455 0 76.66311620 0 303.63636350 0 22519
0.14450000 0.14449900 10741.27337889 0 151.38636108 0 3515.85066129 0 323.95629401 0 441.66396469 0 22218
0.14550000 0.14550500 10686.97469798 0 298.54087962 0 3483.38660492 0 456.12995707 0 215.17956053 0 23559
0.14650000 0.14650700 10632.42135360 0 80.98752338 0 3364.69128286 0 258.17671949 0 933.58410450 0 23044
0.14750000 0.14750500 10544.65103476 0 44.65634684 0 3189.50495958 0 405.95128822 0 857.53494872 0 23649
0.14850000 0.14849900 10333.16963073 0 159.96962728 0 3094.31618312 0 390.94607363 0 992.14784493 0 23640
0.14950000 0.14949500 10319.27386308 0 139.19905316 0 2881.68325730 0 -6.89763761 0 686.08774953 0 24457
0.15050000 0.15050000 10221.30593309 0 169.44089393 0 2946.65565934 0 -211.01968809 0 347.07309377 0 24591
0.15150000 0.15149900 9959.53402972 0 211.01415193 0 3029.33270876 0 -196.11633889 0 16.20434737 0 25020
0.15250000 0.15250500 9673.29228851 0 215.27478252 0 2904.23758296 0 -102.14917202 0 131.81824143 0 25297
0.15350000 0.15350100 9612.70452710 0 266.89396082 0 2879.20305654 0 87.47291619 0 -69.28894787 0 25452
0.15450000 0.15450400 9472.41817165 0 216.30340149 0 2913.41654023 0 226.84646919 0 -112.75612702 0 26061
0.15550000 0.15549900 9185.95498394 0 228.57264463 0 2904.27079993 0 161.61386752 0 64.05594571 0 26128
0.15650000 0.15649500 9148.29800723 0 74.34645367 0 2867.31137969 0 63.82132315 0 333.06771010 0 26331
0.15750000 0.15749700 9118.17021140 0 9.28627025 0 2812.24870836 0 265.73247395 0 358.75771815 0 27345
0.15850000 0.15849900 9106.98716334 0 13.10166051 0 2789.08540484 0 315.35199039 0 530.28574531 0 26980
0.15950000 0.15949700 9122.96452805 0 49.34049386 0 2454.22508535 0 222.38210782 0 486.88333925 0 27777
0.16050000 0.16050000 9086.35942220 0 103.75554490 0 2348.71690216 0 10.91974818 0 332.66357025 0 28224
0.16150000 0.16150500 8927.84802010 0 6.18601930 0 2212.38336666 0 9.81965735 0 150.01560727 0 28075
0.16250000 0.16249700 8905.70337046 0 71.13370790 0 2371.49267431 0 9.53543077 0 -147.92072341 0 28590
0.16350000 0.16349900 8862.01197672 0 76.46481086 0 2297.83956961 0 -152.54452626 0 -150.89364263 0 29163
0.16450000 0.16449100 8862.48808669 0 48.01768321 0 2284.90709423 0 94.97485915 0 -285.46335678 0 28996
0.16550000 0.16550500 8693.54655461 0 95.96671801 0 2257.27057148 0 8.70666726 0 -49.01541040 0 30777
0.16650000 0.16650700 8798.43468762 0 138.25458385 0 2346.73495601 0 214.05571956 0 87.56703095 0 29211
0.16750000 0.16749900 8575.99168201 0 183.75298099 0 2285.29462559 0 297.35281917 0 -98.53195422 0 30922
0.16850000 0.16850800 8533.73969050 0 208.30032512 0 2132.91729144 0 42.86606264 0 187.63825977 0 30867
0.16950000 0.16949900 8269.76439450 0 162.58269594 0 2205.00919833 0 99.19529720 0 -39.19403684 0 30852
0.17050000 0.17049200 8205.50062125 0 153.04942427 0 2313.51798156 0 228.11867931 0 406.87139841 0 31257
0.17150000 0.17149500 7996.79837075 0 114.21988836 0 2082.49392422 0 236.41517230 0 235.77962085 0 32608
0.17250000 0.17250900 7989.44634707 0 62.70445774 0 1999.73936852 0 179.22218568 0 292.02592370 0 32361
0.17350000 0.17350400 7923.11204908 0 56.85007672 0 1863.81550905 0 82.13206959 0 188.07229490 0 32508
0.17450000 0.17449800 7950.01779839 0 -11.87075016 0 1895.26091153 0 48.52944606 0 39.45567588 0 32791
0.17550000 0.17549800 7812.98670643 0 157.05428416 0 1868.84234452 0 -332.20406877 0 106.45287395 0 33633
0.17650000 0.17650100 7870.57386781 0 161.75227158 0 1819.80301789 0 -153.86766907 0 -57.58428258 0 33984
0.17750000 0.17750300 7685.00170385 0 30.21626371 0 1850.06368162 0 -130.16071441 0 53.60422470 0 34069
