### header ###
fiducial parameters:
Omega_m = 0.31
Omega_nu = 0
Omega_de = 0.69
Omega_k = 0
H_0 = 100
w_de = -1
zeff = 0
beta = 0
fgrowth = 0
b_1 = 2
gamma = 0.55
Lx = 3500 Ly = 3500 Lz = 3500
nx = 700 ny = 700 nz = 700
xoffset = -685.467585 yoffset = -31.7331281 zoffset = 572.489161
bins = 400 dk = 0.001
kx_ny = 0.628318531 ky_ny = 0.628318531 kz_ny = 0.628318531
############################
A(data) = 8.02174413 (not used)
A(ran) = 8.01796333 (used)
Ngal = 476225
weighted Ngal = 0
Nran = 23820508
weighted Nran = 0
SN(data) = 3494.20263
SN(ran) = 69.8393685
SN(data+ran) = 3564.04199
############################
13 columns: k_central k_mean P_0(k) sigma^{lin}_{P_0(k)} P^img_1(k) sigma^{lin}_{P_1(k)} P_2(k) sigma^{lin}_{P_2(k)} P^img_3(k) sigma^{lin}_{P_3(k)} P_4(k) sigma^{lin}_{P_4(k)} N_modes
### header ###
0.00050000 0 0 0 0 0 0 0 0 0 0 0 0
0.00150000 0.00179520 21722.01899896 0 -14760.29476924 0 59294.73531531 0 -73891.93473997 0 -25348.86971656 0 3
0.00250000 0.00253879 44411.75918708 0 -23464.36003243 0 -13181.15980361 0 46627.77427628 0 51554.18375784 0 6
0.00350000 0.00331552 42943.01529989 0 -22091.50247816 0 -29926.39024309 0 -1720.14102220 0 -44490.48341654 0 7
0.00450000 0.00420575 56414.82362998 0 -28079.85863308 0 -63194.96173268 0 -4285.29972991 0 -27694.87389914 0 24
0.00550000 0.00557378 84461.68673510 0 -29865.27101009 0 -39461.54420716 0 -54625.53593929 0 -36444.11424758 0 45
0.00650000 0.00659388 105231.59652291 0 8266.65307123 0 -14773.13866603 0 -90917.29499737 0 10633.26285029 0 40
0.00750000 0.00754703 91589.60656035 0 27486.27129955 0 21309.35345297 0 -64380.14338127 0 39944.62973900 0 57
0.00850000 0.00846663 93487.73520401 0 16954.71882505 0 63103.94722267 0 -35201.68867968 0 45177.85334128 0 75
0.00950000 0.00948925 80420.17745305 0 3721.70732432 0 67724.20692299 0 26488.65483339 0 15622.27525637 0 112
0.01050000 0.01054430 92312.62937101 0 -4471.13762967 0 115396.87649241 0 46706.83067549 0 11123.70040580 0 105
0.01150000 0.01145670 91435.70124537 0 11862.44591770 0 92755.96525675 0 53549.74885991 0 4752.28610146 0 144
0.01250000 0.01249090 84636.18657424 0 14675.14859139 0 83914.49244256 0 49542.78523129 0 20869.67143443 0 169
0.01350000 0.01339930 69365.56835411 0 8937.15984527 0 52016.23187253 0 25497.68176212 0 35442.73319098 0 180
0.01450000 0.01448870 61745.81586041 0 1959.27002131 0 43892.35642984 0 35496.43396635 0 740.30670970 0 267
0.01550000 0.01550050 60281.61162640 0 -4612.49800063 0 34945.80725312 0 13579.43132733 0 9978.48984981 0 238
0.01650000 0.01653350 57760.99688143 0 7794.41841771 0 16469.08665850 0 -2032.19235256 0 -14793.17957395 0 315
0.01750000 0.01747870 53782.04623460 0 4402.87674716 0 7453.67869374 0 -7857.10992083 0 -3484.92565807 0 297
0.01850000 0.01844180 52842.33802724 0 1435.83693783 0 8663.86165177 0 -5939.32790062 0 -11513.22479292 0 388
0.01950000 0.01947590 52409.07795709 0 -6089.15860007 0 2484.61861698 0 11260.66506381 0 -9669.98166339 0 399
0.02050000 0.02045430 62640.90259875 0 -6691.99132482 0 5322.09008128 0 3641.38868008 0 -17081.38622097 0 462
0.02150000 0.02154770 62625.51206726 0 -1124.67139345 0 3423.57390625 0 -2230.91843841 0 -14989.93478598 0 571
0.02250000 0.02255340 65225.18321143 0 4708.68328633 0 13379.24369461 0 -10083.57728467 0 -16196.48602147 0 510
0.02350000 0.02348930 63248.99467779 0 -2119.22082564 0 6747.20900869 0 -2642.75356004 0 -5263.29603649 0 555
0.02450000 0.02439640 64218.81960866 0 -2448.33460855 0 21985.54032965 0 -6673.29016820 0 -5848.39089688 0 592
0.02550000 0.02547300 69052.66445474 0 -4553.58216027 0 18660.63190986 0 2618.19514359 0 -18354.37140537 0 837
0.02650000 0.02652900 68116.05649833 0 260.01804711 0 23797.41556297 0 7331.80561446 0 -10554.68256105 0 723
0.02750000 0.02749970 70946.69633821 0 6758.08203166 0 16135.69895821 0 -1681.49860858 0 -20834.68288800 0 826
0.02850000 0.02848090 63605.85570670 0 4712.65825094 0 26539.47680431 0 -3443.26049978 0 -7342.43504629 0 831
0.02950000 0.02946900 60855.37949850 0 4201.11684431 0 24910.51637699 0 -3170.10624650 0 -7991.71617365 0 996
0.03050000 0.03053250 58815.41437391 0 -131.92785745 0 23441.99393629 0 -5611.15526532 0 -5175.03853536 0 1041
0.03150000 0.03150510 59882.01142369 0 412.33226901 0 26520.32168237 0 -1377.71830486 0 -9445.03631237 0 1036
0.03250000 0.03246190 61270.14878621 0 -553.73028588 0 27184.88261799 0 -2654.25770553 0 -14153.86353892 0 1059
0.03350000 0.03345080 59096.98359405 0 3279.10221202 0 25911.45454060 0 6891.92429407 0 -14453.92354151 0 1302
0.03450000 0.03451200 55669.21327669 0 4115.02951885 0 23543.74860138 0 3798.27245044 0 -9571.63727435 0 1339
0.03550000 0.03553350 52156.85039772 0 575.34900009 0 17110.83860499 0 10037.73785992 0 -8658.11511519 0 1365
0.03650000 0.03647120 53865.42084049 0 740.28235058 0 17743.17907538 0 10507.48124035 0 -4677.58112591 0 1308
0.03750000 0.03744890 52950.29319423 0 -1560.57774924 0 13811.61797878 0 1388.54703853 0 -2550.03391201 0 1579
0.03850000 0.03847530 53490.29047563 0 1188.76908183 0 14801.81598731 0 667.71322649 0 -1244.28571847 0 1662
0.03950000 0.03950240 53033.11418387 0 2733.63520215 0 17177.60472365 0 -5625.36105806 0 -4191.53928335 0 1683
0.04050000 0.04050350 49487.53433044 0 3866.52226062 0 20115.86756077 0 -2607.28890365 0 1543.82532179 0 1822
0.04150000 0.04152450 46803.27062466 0 2574.01656757 0 20472.83931293 0 -1911.28256555 0 -2444.40393324 0 1887
0.04250000 0.04250150 45499.94727026 0 48.96480988 0 18856.83350564 0 4898.14183630 0 -1543.01704208 0 1920
0.04350000 0.04349210 45370.40106988 0 -873.61860775 0 17093.89794802 0 4872.90800804 0 -7881.71262658 0 2005
0.04450000 0.04448520 45600.92687260 0 2105.34720264 0 15627.03635604 0 3212.36931033 0 -9423.36777270 0 2151
0.04550000 0.04548030 41686.19570972 0 2970.97048464 0 15049.50389350 0 -1905.09313597 0 -5788.72213844 0 2274
0.04650000 0.04648670 39159.26973961 0 2564.59401914 0 12252.30247457 0 -1500.10071108 0 -5799.57301676 0 2311
0.04750000 0.04749250 38387.08580676 0 1621.13229367 0 14283.74190905 0 649.51475342 0 -648.75962087 0 2568
0.04850000 0.04851840 38056.02329468 0 -1135.44476550 0 14221.29399707 0 1294.02260156 0 -3787.34406584 0 2493
0.04950000 0.04949480 38642.63506357 0 -1227.55543567 0 14093.63009191 0 4347.96908838 0 -4649.05881718 0 2644
0.05050000 0.05050630 38482.63996994 0 282.25791874 0 12998.90933709 0 966.88522863 0 -5745.57328862 0 2829
0.05150000 0.05149060 38832.19326447 0 873.07606383 0 13230.09947930 0 3142.46972375 0 -1943.37016287 0 2784
0.05250000 0.05249300 36526.49234423 0 1172.92458501 0 10251.81018796 0 2946.64458701 0 -2579.26484953 0 3055
0.05350000 0.05348950 36468.03046919 0 1757.42153987 0 9541.78628664 0 1842.31305425 0 -5110.06613333 0 3009
0.05450000 0.05448610 34676.86048328 0 1222.97149319 0 8203.95049578 0 -645.72580387 0 -4972.38177421 0 3336
0.05550000 0.05550870 33433.21695965 0 1906.27787473 0 9932.61720809 0 -1576.41117373 0 -5153.10425990 0 3349
0.05650000 0.05647670 32367.94858885 0 1214.53438168 0 9775.68914843 0 -3364.06016035 0 -3946.49766279 0 3324
0.05750000 0.05747970 31623.33474479 0 1373.52189375 0 11979.59111429 0 -881.49103069 0 -3971.35503200 0 3639
0.05850000 0.05849280 31348.07674980 0 -8.52229091 0 12289.72693246 0 -840.00081513 0 -990.87120588 0 3846
0.05950000 0.05951020 31706.04501119 0 -659.06906251 0 12209.00968453 0 1504.41891776 0 -4524.80518806 0 3787
0.06050000 0.06049470 32564.48235438 0 -566.72365905 0 13113.95079196 0 462.15219454 0 -595.07434675 0 3930
0.06150000 0.06148310 33459.79053921 0 794.84566006 0 13549.53605032 0 1236.54616342 0 -2975.45477619 0 4083
0.06250000 0.06249100 31339.66178294 0 555.61701003 0 12776.79850123 0 1097.17216753 0 -416.41684964 0 4303
0.06350000 0.06350600 31319.51015177 0 866.46920761 0 11614.86873476 0 1107.44285604 0 -158.62212535 0 4470
0.06450000 0.06451750 30599.36614556 0 595.64124978 0 11980.69834677 0 3122.00806749 0 754.53464709 0 4479
0.06550000 0.06550280 30240.51209819 0 32.70443654 0 9869.73747544 0 1075.51802189 0 650.02850929 0 4636
0.06650000 0.06648880 30941.39025921 0 69.19306153 0 11227.22664286 0 212.87319527 0 2551.41795261 0 4653
0.06750000 0.06749660 30575.11775421 0 -378.17525418 0 11476.90756752 0 -179.08045992 0 2406.06047239 0 5220
0.06850000 0.06852730 30596.04444812 0 961.45757500 0 11658.38297130 0 186.57642382 0 2265.48623649 0 5029
0.06950000 0.06949320 30062.46911511 0 1026.76546848 0 13475.01930429 0 260.84072085 0 3325.25166186 0 5040
0.07050000 0.07048030 29246.99239221 0 -33.12828513 0 11447.89807649 0 2033.74247804 0 2917.57973436 0 5475
0.07150000 0.07148790 29078.69305497 0 -547.85198863 0 10727.25581567 0 2444.96862180 0 3539.40149618 0 5509
0.07250000 0.07249820 29608.06090455 0 140.64177708 0 8752.96064959 0 2639.53151352 0 1568.76019728 0 5916
0.07350000 0.07351270 28318.35650967 0 1004.12145699 0 8639.75720064 0 554.53413666 0 807.73384615 0 5721
0.07450000 0.07449140 27531.55710806 0 1482.11925557 0 6529.13957138 0 -30.36518648 0 769.96946789 0 6028
0.07550000 0.07549160 26442.81540864 0 1593.75043440 0 7649.45954118 0 253.61159997 0 1132.59917802 0 6183
0.07650000 0.07648840 24878.51735826 0 1031.04935095 0 7684.20449647 0 -539.15357025 0 1552.02991448 0 6330
0.07750000 0.07749960 24153.05863615 0 350.75464177 0 7432.79628913 0 1418.75234064 0 861.29621746 0 6583
0.07850000 0.07848650 24690.62000609 0 135.52193408 0 7901.68710055 0 245.06155075 0 1033.23281340 0 6549
0.07950000 0.07947320 24403.51462354 0 -140.75582202 0 7841.83011258 0 493.44479894 0 144.27792855 0 6828
0.08050000 0.08048110 24338.29863036 0 60.92723889 0 8497.64391159 0 -537.38421275 0 1481.23346959 0 7147
0.08150000 0.08149960 24538.81843283 0 295.31440417 0 7956.92692907 0 87.50336509 0 845.58569577 0 7386
0.08250000 0.08250610 24201.11252586 0 551.89892335 0 7818.67788139 0 -181.87511470 0 1064.60735301 0 7227
0.08350000 0.08350160 23411.21287330 0 743.31506035 0 7207.07587538 0 -28.20973700 0 560.68259863 0 7798
0.08450000 0.08449610 23010.28399161 0 440.15812852 0 7870.33027667 0 461.02392464 0 1243.51065573 0 7371
0.08550000 0.08548940 23289.30657704 0 -432.25913199 0 7610.04206483 0 882.51411351 0 779.96888443 0 8256
0.08650000 0.08650700 23073.83913607 0 145.86348546 0 7744.55973905 0 332.68350043 0 -331.20866677 0 8037
0.08750000 0.08749060 22778.20806342 0 790.61492475 0 7495.38814133 0 38.43303595 0 -573.15335807 0 8155
0.08850000 0.08849210 22271.87064946 0 880.30075578 0 7139.90008071 0 58.89978549 0 -54.69019832 0 8718
0.08950000 0.08949900 21679.16910192 0 367.93778265 0 7157.31684765 0 -676.92982967 0 174.47326556 0 8571
0.09050000 0.09049190 21577.63588333 0 379.55708032 0 7620.38361621 0 -220.59724906 0 -154.19873159 0 8932
0.09150000 0.09150830 21486.51065007 0 135.99140066 0 7620.58291806 0 -324.25746124 0 -1079.39887174 0 9285
0.09250000 0.09250820 20820.73175873 0 688.53584054 0 8584.24056400 0 14.68411717 0 -1671.55566090 0 9204
0.09350000 0.09350330 20279.07362860 0 800.41725391 0 8312.02745833 0 -633.29822649 0 -2262.24204532 0 9349
0.09450000 0.09448040 19601.66879619 0 971.55110630 0 8930.30607621 0 -82.45194906 0 -1657.40522978 0 9564
0.09550000 0.09549270 19237.50003291 0 722.91873080 0 9048.60279457 0 -480.53336097 0 -1500.75397824 0 10155
0.09650000 0.09649430 18439.96047622 0 505.30436605 0 9275.57438103 0 423.62714756 0 -582.50725808 0 9913
0.09750000 0.09749140 18479.93156882 0 166.20334616 0 8767.35467185 0 1256.94138574 0 -1114.90560296 0 10476
0.09850000 0.09850240 17826.22151152 0 198.01745706 0 8003.37533169 0 1313.54311021 0 -782.84325996 0 10575
0.09950000 0.09950330 17901.51332029 0 270.11490011 0 7542.46766646 0 1455.86677343 0 -781.85893028 0 10882
0.10050000 0.10051200 17282.34891643 0 255.31120183 0 7172.57451125 0 932.14027334 0 -222.00786324 0 10875
0.10150000 0.10150300 17003.32633100 0 479.81476709 0 6135.42984548 0 1116.36714984 0 455.71142319 0 11118
0.10250000 0.10250800 16778.00452094 0 -222.82942974 0 5766.44462090 0 1257.81609940 0 129.06344702 0 11575
0.10350000 0.10349800 16792.61998970 0 -177.11844396 0 5872.35140779 0 682.01867016 0 441.93634388 0 11364
0.10450000 0.10450100 17007.42309119 0 12.22705757 0 5373.87534446 0 363.28297730 0 209.72865502 0 12093
0.10550000 0.10551000 16749.54864616 0 449.60503605 0 5825.91407750 0 -88.24820038 0 990.26333525 0 12067
0.10650000 0.10649700 16396.34148444 0 577.45495627 0 4907.12149173 0 655.29007804 0 1573.27770581 0 12054
0.10750000 0.10749900 16270.00625826 0 101.94444473 0 5154.92012117 0 218.67066454 0 1102.13921245 0 12807
0.10850000 0.10850100 15984.89389418 0 333.85163070 0 4785.72452241 0 -0.20060174 0 1035.02985172 0 12736
0.10950000 0.10950300 15528.60338841 0 575.26817212 0 5285.71749425 0 -320.42311516 0 675.97207357 0 12933
0.11050000 0.11050200 15157.90195348 0 498.34651714 0 4939.18694440 0 79.08175483 0 1134.97972786 0 13428
0.11150000 0.11150900 14952.95322109 0 222.30349431 0 5060.50640744 0 -46.02942584 0 671.12903870 0 13453
0.11250000 0.11250000 14586.01637660 0 101.37942400 0 4898.02004073 0 441.81344108 0 505.61660561 0 13668
0.11350000 0.11349100 14640.49221470 0 69.11743755 0 4764.42136946 0 585.03285537 0 421.25102666 0 13791
0.11450000 0.11448600 14503.74900319 0 -106.47856174 0 4323.60997378 0 843.53842291 0 265.12460332 0 14205
0.11550000 0.11549300 14467.09960804 0 42.34654916 0 4273.34161911 0 734.05416787 0 203.97104611 0 14776
0.11650000 0.11649800 14474.73951217 0 -169.15079902 0 3572.43024111 0 487.76691077 0 703.07048133 0 14553
0.11750000 0.11747300 14507.73504013 0 135.95375475 0 3748.25875923 0 1031.10471257 0 846.40504781 0 14568
0.11850000 0.11849100 14371.10255187 0 225.40706696 0 3315.62981159 0 260.41443634 0 843.32472704 0 16015
0.11950000 0.11950300 14017.34177391 0 414.10605545 0 3590.38955197 0 121.14452031 0 1702.51388109 0 15270
0.12050000 0.12050700 14039.48642355 0 310.39933950 0 3454.07816113 0 -175.88055805 0 2525.85195460 0 15999
0.12150000 0.12150000 13842.06687203 0 69.99259411 0 4175.38476144 0 -148.70796571 0 2680.35517512 0 15670
0.12250000 0.12250700 13831.43744020 0 118.50930700 0 4410.36163874 0 -95.31787977 0 2369.97576581 0 16887
0.12350000 0.12352200 13836.75215612 0 149.03902822 0 4799.85280888 0 3.15970933 0 2457.30319165 0 16407
0.12450000 0.12449800 13617.52012471 0 260.30039139 0 4303.67978911 0 252.46893605 0 2257.68024750 0 16306
0.12550000 0.12549900 13492.62430075 0 240.98914968 0 4322.83491105 0 61.64040733 0 2516.61763571 0 17523
0.12650000 0.12650100 13263.20573051 0 127.51442877 0 4198.04981034 0 410.81536051 0 1973.03292106 0 17154
0.12750000 0.12750600 13009.20659917 0 257.07834487 0 4058.01811836 0 212.27528973 0 1784.29407220 0 18007
0.12850000 0.12850300 12664.74657406 0 394.69073388 0 3453.55776186 0 250.45045124 0 1642.95584589 0 17496
0.12950000 0.12949900 12586.02234460 0 120.16461956 0 3489.44316660 0 112.53357329 0 1536.35150254 0 18405
0.13050000 0.13049000 12506.96594540 0 -5.09052348 0 3209.66766308 0 -213.03152951 0 1202.46554763 0 18100
0.13150000 0.13148800 12472.75246171 0 64.70389816 0 3619.74228506 0 -464.12085389 0 248.70102391 0 19059
0.13250000 0.13249300 12377.41974502 0 289.69298486 0 3676.62081766 0 -796.33045882 0 201.31147369 0 18957
0.13350000 0.13349100 12271.23615001 0 128.03593527 0 3843.43646337 0 -388.63195774 0 -142.79312979 0 19468
0.13450000 0.13450700 12345.08855655 0 32.46981398 0 4017.37161395 0 -68.56647867 0 -299.01034619 0 19953
0.13550000 0.13551000 12169.59220817 0 178.58995593 0 4093.93674007 0 37.09893154 0 -48.58812939 0 19956
0.13650000 0.13649900 12215.21018643 0 74.15711692 0 4282.96346937 0 340.54374382 0 109.09295908 0 19723
0.13750000 0.13749600 11933.64096629 0 164.62886157 0 4159.49597532 0 845.65212972 0 78.50400092 0 20946
0.13850000 0.13851100 11820.37108339 0 398.54279568 0 3929.15840212 0 307.44635047 0 959.90744953 0 20955
0.13950000 0.13949800 11444.57637905 0 391.99019386 0 3952.77567096 0 481.46232902 0 846.79036471 0 20506
0.14050000 0.14048300 11144.62709971 0 278.48336321 0 4260.85203671 0 -28.44247727 0 1602.48649868 0 21447
0.14150000 0.14148400 10980.86741564 0 274.64680266 0 4045.46210201 0 -59.88167925 0 1567.24328878 0 21771
0.14250000 0.14249400 10737.23198033 0 167.67928705 0 4280.02930330 0 -77.70945089 0 1768.13955029 0 22470
0.14350000 0.14350900 10867.19892906 0 -102.33197610 0 4125.60358905 0 146.66733625 0 1431.98376880 0 22519
0.14450000 0.14449900 10916.93581214 0 -114.60963420 0 3992.19314731 0 269.45941848 0 1009.90563948 0 22218
0.14550000 0.14550500 10827.72609108 0 61.93437755 0 3628.25690285 0 337.05485427 0 940.72686124 0 23559
0.14650000 0.14650700 10850.10325954 0 177.46279326 0 3351.51521633 0 411.73989964 0 629.11510217 0 23044
0.14750000 0.14750500 10706.06338597 0 -36.65238468 0 3045.08862697 0 348.18254071 0 687.48175522 0 23649
0.14850000 0.14849900 10562.12316333 0 -34.07541180 0 2483.03527453 0 228.12089377 0 347.15613620 0 23640
0.14950000 0.14949500 10563.68436113 0 138.38413005 0 2420.11125259 0 378.94035183 0 107.37885247 0 24457
0.15050000 0.15050000 10440.65976007 0 173.92850718 0 1898.32794551 0 280.46088042 0 -102.05273207 0 24591
0.15150000 0.15149900 10134.78678695 0 189.63017101 0 1886.72414910 0 115.76447768 0 -105.28684742 0 25020
0.15250000 0.15250500 9971.40356193 0 177.52258382 0 1826.53499138 0 116.74880735 0 -138.58564636 0 25297
0.15350000 0.15350100 9878.22994858 0 188.83074915 0 1749.41624902 0 98.24185931 0 72.50014351 0 25452
0.15450000 0.15450400 9747.95297476 0 221.55389792 0 1972.13606275 0 237.38621518 0 -207.67141707 0 26061
0.15550000 0.15549900 9615.46153598 0 201.22732402 0 1821.78496404 0 -52.00327725 0 715.44601878 0 26128
0.15650000 0.15649500 9440.46344222 0 36.12069164 0 2040.05370319 0 257.65299853 0 852.48707583 0 26331
0.15750000 0.15749700 9366.32315524 0 131.93117914 0 1943.83520051 0 73.37729308 0 865.19146133 0 27345
0.15850000 0.15849900 9382.87628084 0 77.15849201 0 2001.99812278 0 41.17841889 0 730.43794659 0 26980
0.15950000 0.15949700 9388.75568532 0 42.75478578 0 2080.42339947 0 -69.71578599 0 671.39366726 0 27777
0.16050000 0.16050000 9322.69819545 0 125.38411348 0 2389.26375564 0 -492.93436476 0 859.99854099 0 28224
0.16150000 0.16150500 9285.71663056 0 172.07610724 0 2574.08300151 0 -168.65697334 0 443.74445452 0 28075
0.16250000 0.16249700 9122.57699668 0 65.04204696 0 2684.61802018 0 -115.04145487 0 290.49129948 0 28590
0.16350000 0.16349900 9076.87043983 0 186.00287740 0 2753.27750638 0 -283.81911654 0 119.26665402 0 29163
0.16450000 0.16449100 8976.65482790 0 269.37969775 0 2476.00434827 0 -33.45868331 0 -178.82358198 0 28996
0.16550000 0.16550500 8676.17407697 0 212.10920485 0 2606.51384091 0 -87.67720059 0 -258.41366724 0 30777
0.16650000 0.16650700 8765.97063125 0 116.89496204 0 2415.64910568 0 36.58207541 0 -426.82483497 0 29211
0.16750000 0.16749900 8466.79641465 0 27.44973263 0 2335.93943931 0 109.00116951 0 -486.90769836 0 30922
0.16850000 0.16850800 8501.36421273 0 190.69200696 0 2160.70882673 0 297.36278426 0 -609.03544111 0 30867
0.16950000 0.16949900 8357.78937681 0 -6.12552011 0 1896.91068793 0 348.82141385 0 -505.64539366 0 30852
0.17050000 0.17049200 8406.89513738 0 -14.57051512 0 1832.58048073 0 504.82714885 0 -442.91181570 0 31257
0.17150000 0.17149500 8397.67189080 0 85.21017589 0 1717.47259192 0 274.98340134 0 -192.75478107 0 32608
0.17250000 0.17250900 8261.17227044 0 94.58965297 0 1574.72818036 0 287.30468439 0 -194.02920566 0 32361
0.17350000 0.17350400 8226.30551959 0 95.67064404 0 1557.65465549 0 -144.07641224 0 106.09368773 0 32508
0.17450000 0.17449800 8083.51681873 0 70.57533056 0 1561.21994408 0 -58.77643979 0 32.74662210 0 32791
0.17550000 0.17549800 8140.46178527 0 83.37383082 0 1737.73494634 0 59.26118617 0 -158.95761679 0 33633
0.17650000 0.17650100 8010.57234282 0 139.92539766 0 1750.61206010 0 -191.24230150 0 -196.89915225 0 33984
0.17750000 0.17750300 7934.43903737 0 179.52335291 0 1839.67784094 0 -212.33508028 0 -349.50789799 0 34069
