### header ###
fiducial parameters:
Omega_m = 0.31
Omega_nu = 0
Omega_de = 0.69
Omega_k = 0
H_0 = 100
w_de = -1
zeff = 0
beta = 0
fgrowth = 0
b_1 = 2
gamma = 0.55
Lx = 3500 Ly = 3500 Lz = 3500
nx = 700 ny = 700 nz = 700
xoffset = -685.467585 yoffset = -31.7331281 zoffset = 572.489161
bins = 400 dk = 0.001
kx_ny = 0.628318531 ky_ny = 0.628318531 kz_ny = 0.628318531
############################
A(data) = 8.09221521 (not used)
A(ran) = 8.09569107 (used)
Ngal = 480884
weighted Ngal = 0
Nran = 23820508
weighted Nran = 0
SN(data) = 3482.61722
SN(ran) = 70.5164053
SN(data+ran) = 3553.13362
############################
13 columns: k_central k_mean P_0(k) sigma^{lin}_{P_0(k)} P^img_1(k) sigma^{lin}_{P_1(k)} P_2(k) sigma^{lin}_{P_2(k)} P^img_3(k) sigma^{lin}_{P_3(k)} P_4(k) sigma^{lin}_{P_4(k)} N_modes
### header ###
0.00050000 0 0 0 0 0 0 0 0 0 0 0 0
0.00150000 0.00179520 15446.00384526 0 -20706.68681310 0 -362.17242312 0 -10287.13090413 0 56918.28223949 0 3
0.00250000 0.00253879 27061.97981250 0 -17214.14339555 0 -4444.76335195 0 -30926.33189746 0 -39101.91509705 0 6
0.00350000 0.00331552 42139.16451805 0 -13524.73404273 0 11452.10555993 0 8696.63573323 0 4345.25636880 0 7
0.00450000 0.00420575 60582.55741497 0 -16306.32348367 0 15594.92661407 0 -14611.70417017 0 -962.49505184 0 24
0.00550000 0.00557378 74059.12684474 0 -8054.60697862 0 17285.78133713 0 -2341.44238475 0 3271.20764442 0 45
0.00650000 0.00659388 91518.19006527 0 -2297.78420799 0 2781.74445349 0 3842.11885672 0 -26997.53888206 0 40
0.00750000 0.00754703 82188.09555684 0 8155.21012193 0 20512.47823578 0 -18100.59372053 0 624.20341888 0 57
0.00850000 0.00846663 94605.59711770 0 -3776.20530707 0 4017.16123978 0 -20475.05377789 0 -48801.82525442 0 75
0.00950000 0.00948925 79371.96046247 0 13947.91829730 0 3238.35605668 0 -14764.05935968 0 -13090.03457035 0 112
0.01050000 0.01054430 60883.06031055 0 12108.58369842 0 10781.02302499 0 -17839.50830131 0 -20593.85982319 0 105
0.01150000 0.01145670 59066.86687054 0 5576.97499860 0 4732.58843561 0 479.04634774 0 -27295.49514293 0 144
0.01250000 0.01249090 49038.77300554 0 1213.03961783 0 8132.45649442 0 1711.83677859 0 -13469.92603488 0 169
0.01350000 0.01339930 55748.93401539 0 -525.93210719 0 -8384.82799401 0 9003.12875654 0 -16516.25476223 0 180
0.01450000 0.01448870 61274.68843938 0 -16255.28006625 0 2891.27189059 0 10229.32229625 0 -9316.92951422 0 267
0.01550000 0.01550050 59953.76008852 0 -5004.32543131 0 -5167.68651168 0 9198.30062612 0 15017.83704452 0 238
0.01650000 0.01653350 73329.46063919 0 3374.31313313 0 3683.69603321 0 -113.12594267 0 -3491.83478876 0 315
0.01750000 0.01747870 66534.81779098 0 2156.60099423 0 4874.09274679 0 -4600.29629868 0 27520.70622974 0 297
0.01850000 0.01844180 65805.92664816 0 2710.99229790 0 10263.92331131 0 -3197.15593603 0 18782.31675961 0 388
0.01950000 0.01947590 68717.94807547 0 1614.45568181 0 17105.08099609 0 -12009.04349830 0 15132.65705289 0 399
0.02050000 0.02045430 66577.33551828 0 5634.03068840 0 12347.74591451 0 -3785.67214479 0 13989.99313161 0 462
0.02150000 0.02154770 62923.46832813 0 2857.45701060 0 19414.10361377 0 -4629.90369524 0 1524.44875336 0 571
0.02250000 0.02255340 61747.14453939 0 -1776.68738505 0 17611.97202628 0 -661.99326349 0 -5994.91097121 0 510
0.02350000 0.02348930 64176.52332785 0 2578.37906354 0 24972.41067273 0 3850.10200291 0 -19213.03019506 0 555
0.02450000 0.02439640 62230.23007123 0 573.25300900 0 13846.38507871 0 -151.71853083 0 -7113.42615206 0 592
0.02550000 0.02547300 62333.75630829 0 -974.39337209 0 11665.13708944 0 4822.65072568 0 -10062.10804684 0 837
0.02650000 0.02652900 62287.80616029 0 -981.20617355 0 10312.40902169 0 5354.33269115 0 -5847.44974927 0 723
0.02750000 0.02749970 62474.59627998 0 -1478.63147326 0 14278.42719313 0 8563.72354611 0 -15848.37212917 0 826
0.02850000 0.02848090 60250.71984015 0 4968.50646052 0 10286.98696391 0 144.39197350 0 -2956.62075167 0 831
0.02950000 0.02946900 56441.39720955 0 1697.83028769 0 10378.21184809 0 -1637.97329972 0 -1506.29014065 0 996
0.03050000 0.03053250 56154.18110375 0 1631.17489228 0 14620.11913704 0 -2518.48885860 0 4104.73225677 0 1041
0.03150000 0.03150510 56737.58189844 0 3411.54936150 0 18729.39104698 0 -1464.70248863 0 5344.62226229 0 1036
0.03250000 0.03246190 58665.05220287 0 1976.50963105 0 26339.73206458 0 -3135.75989491 0 6962.61001571 0 1059
0.03350000 0.03345080 52945.97498755 0 2939.20398473 0 21588.15459191 0 -5152.53957133 0 13612.75902504 0 1302
0.03450000 0.03451200 53370.48792109 0 3928.29476078 0 28781.06896384 0 2959.33347125 0 14398.11902442 0 1339
0.03550000 0.03553350 50819.53500613 0 -617.45151521 0 28424.54010468 0 5714.11681381 0 12419.27313283 0 1365
0.03650000 0.03647120 53930.74755692 0 -446.07074997 0 32533.47984488 0 3485.93323963 0 7748.93330736 0 1308
0.03750000 0.03744890 50244.88134804 0 404.23950680 0 26250.15695680 0 3841.11127516 0 1233.80022687 0 1579
0.03850000 0.03847530 52014.68174705 0 1119.67777496 0 25121.99778103 0 1431.90626252 0 5544.15662784 0 1662
0.03950000 0.03950240 50202.80651373 0 522.56390598 0 20644.79251736 0 2841.83396028 0 -2109.92007279 0 1683
0.04050000 0.04050350 49717.94940992 0 210.69084004 0 22709.22747980 0 -1090.02166017 0 -3939.64389372 0 1822
0.04150000 0.04152450 47603.02464631 0 2663.45880745 0 16520.68369216 0 4060.69762096 0 -4911.99331465 0 1887
0.04250000 0.04250150 46812.57137751 0 2080.41232715 0 19505.00740053 0 4159.07522698 0 -1708.84725089 0 1920
0.04350000 0.04349210 43439.71979125 0 1630.54376977 0 13814.49678323 0 5436.07966529 0 -4810.40473444 0 2005
0.04450000 0.04448520 42698.20619815 0 931.37628293 0 13956.77615715 0 7119.87024511 0 -1061.14171534 0 2151
0.04550000 0.04548030 40300.82642841 0 1411.90964390 0 9785.35528800 0 3203.13499144 0 1570.43211833 0 2274
0.04650000 0.04648670 39710.78223883 0 2822.24701767 0 12439.09259426 0 2510.09603639 0 5647.93752837 0 2311
0.04750000 0.04749250 37240.43584854 0 2725.20916296 0 11369.28457028 0 990.08728528 0 9830.14284189 0 2568
0.04850000 0.04851840 35495.10528738 0 1636.46746355 0 13710.63837643 0 3090.29692921 0 8820.00357636 0 2493
0.04950000 0.04949480 34996.40777754 0 -305.61055902 0 11680.63834418 0 1244.05319965 0 12793.84988145 0 2644
0.05050000 0.05050630 36447.10377528 0 -1965.58124646 0 14173.24010736 0 -162.23281048 0 7260.44448101 0 2829
0.05150000 0.05149060 37941.64617930 0 -1128.35847762 0 10408.28428230 0 -417.68241637 0 2941.11949693 0 2784
0.05250000 0.05249300 38314.45135595 0 -738.44323743 0 12774.47331302 0 -3305.06681372 0 -837.42317792 0 3055
0.05350000 0.05348950 37861.59327086 0 1612.05298732 0 11570.02581924 0 -4829.44913312 0 -409.77899091 0 3009
0.05450000 0.05448610 37856.05710846 0 1332.73144912 0 12418.49807010 0 -1927.03848376 0 -3957.11602229 0 3336
0.05550000 0.05550870 37179.42733879 0 162.81632199 0 13339.27260202 0 335.09062385 0 -2973.41746842 0 3349
0.05650000 0.05647670 36991.30854012 0 27.78467045 0 12042.03902626 0 2390.04989070 0 -4447.75287965 0 3324
0.05750000 0.05747970 36672.53630859 0 -21.72035815 0 12713.57552651 0 268.46180202 0 -4537.41656603 0 3639
0.05850000 0.05849280 37398.54864695 0 1170.46652890 0 13315.35638041 0 1371.28528414 0 -4253.67717023 0 3846
0.05950000 0.05951020 35371.98103539 0 1804.78894544 0 13983.01756697 0 -2248.36842232 0 -1733.21743781 0 3787
0.06050000 0.06049470 34516.20105016 0 1328.34680849 0 14370.32748913 0 -424.85285392 0 207.56955168 0 3930
0.06150000 0.06148310 33880.76032882 0 158.65866402 0 14029.63205446 0 1314.90500616 0 -1485.93920764 0 4083
0.06250000 0.06249100 33933.46459495 0 371.21408357 0 14307.65813065 0 1943.52517542 0 -3008.64960600 0 4303
0.06350000 0.06350600 33975.53942926 0 -363.33058830 0 12634.96202030 0 2205.67353782 0 -3368.36729470 0 4470
0.06450000 0.06451750 33972.21773182 0 126.28650795 0 12840.68581543 0 980.82085664 0 -2221.79484276 0 4479
0.06550000 0.06550280 33618.23550737 0 283.56556030 0 12044.25349123 0 -1202.05587161 0 -3494.49214671 0 4636
0.06650000 0.06648880 33523.34568367 0 1294.31048200 0 13194.33587014 0 777.54736699 0 -1617.53378811 0 4653
0.06750000 0.06749660 32445.78703232 0 918.37958806 0 13563.48717959 0 -211.97522972 0 -1004.31743714 0 5220
0.06850000 0.06852730 32278.15203457 0 312.59830321 0 12213.54933770 0 2147.79849600 0 17.99230638 0 5029
0.06950000 0.06949320 31731.40063502 0 -15.17506406 0 13641.54706957 0 2129.18591798 0 -1469.56323923 0 5040
0.07050000 0.07048030 30340.82736105 0 1178.08428838 0 11106.87047208 0 1628.27394318 0 -2208.28660648 0 5475
0.07150000 0.07148790 30050.06811131 0 1558.00896988 0 11210.95032538 0 413.41182068 0 -1725.38930416 0 5509
0.07250000 0.07249820 28574.23793623 0 939.36496529 0 10643.57118469 0 142.92821215 0 -1736.70522013 0 5916
0.07350000 0.07351270 28355.00590482 0 35.56253575 0 11197.44208910 0 -697.30401457 0 -1166.34762407 0 5721
0.07450000 0.07449140 28139.31701736 0 351.99142045 0 11204.52837698 0 -524.81380238 0 -3215.01559597 0 6028
0.07550000 0.07549160 27832.61361988 0 323.80238869 0 11602.13556122 0 -488.36703078 0 -3014.05290051 0 6183
0.07650000 0.07648840 27341.33456768 0 642.46500421 0 12058.31534375 0 2061.64473658 0 -1611.86475780 0 6330
0.07750000 0.07749960 26812.18816459 0 477.23380817 0 10642.90684520 0 1988.58953743 0 -429.30946466 0 6583
0.07850000 0.07848650 26229.11953964 0 353.81392511 0 9050.66224698 0 3952.60958609 0 -1242.91275019 0 6549
0.07950000 0.07947320 25384.96549547 0 871.90129017 0 7963.53710699 0 2337.22382899 0 -874.16668783 0 6828
0.08050000 0.08048110 24329.77294025 0 1145.87489548 0 6550.19913319 0 1201.60190629 0 362.40272748 0 7147
0.08150000 0.08149960 23127.42918820 0 846.68960656 0 6668.27440506 0 -51.39573879 0 -776.36594994 0 7386
0.08250000 0.08250610 22647.22246081 0 683.53557866 0 5035.32794080 0 -290.09048132 0 680.98783672 0 7227
0.08350000 0.08350160 22467.40790576 0 102.58054979 0 6343.43453953 0 -316.06836981 0 376.62734317 0 7798
0.08450000 0.08449610 23092.10847202 0 -615.11746914 0 6335.36281473 0 -521.89403033 0 643.31314429 0 7371
0.08550000 0.08548940 23560.35708860 0 -433.91776625 0 6966.27495522 0 -122.31043611 0 1096.58976325 0 8256
0.08650000 0.08650700 23329.38839289 0 418.86826235 0 7826.46172574 0 -581.97025033 0 1393.86175444 0 8037
0.08750000 0.08749060 23525.70071192 0 943.60788016 0 7903.74655297 0 357.68480987 0 1255.60163443 0 8155
0.08850000 0.08849210 21979.67199749 0 725.07783414 0 7953.74917185 0 614.18075046 0 1875.97292170 0 8718
0.08950000 0.08949900 21789.67090361 0 702.08282996 0 6802.90280253 0 678.75011987 0 1118.68126573 0 8571
0.09050000 0.09049190 21113.81619668 0 100.38302548 0 6750.75215263 0 1311.78261056 0 -1010.72609875 0 8932
0.09150000 0.09150830 20828.81455584 0 350.68820782 0 5422.34998251 0 -457.76644667 0 -1271.96653052 0 9285
0.09250000 0.09250820 19543.64981414 0 1097.41354422 0 5744.08959709 0 -237.58994596 0 -2881.08535176 0 9204
0.09350000 0.09350330 19082.81965519 0 1267.95834893 0 5152.34026948 0 -1187.63970470 0 -2591.57727473 0 9349
0.09450000 0.09448040 18178.76433375 0 339.36786292 0 5698.92558416 0 -738.39009027 0 -1638.75943478 0 9564
0.09550000 0.09549270 18132.26056951 0 131.85145841 0 5894.47391278 0 1034.02337740 0 -1953.58991868 0 10155
0.09650000 0.09649430 18340.08810636 0 -46.22219502 0 6212.68145574 0 632.08580692 0 -1352.15230685 0 9913
0.09750000 0.09749140 18225.26809799 0 395.98841035 0 6228.18271049 0 -8.23303749 0 0.43886710 0 10476
0.09850000 0.09850240 18292.36638639 0 207.88954186 0 6840.06152462 0 756.58413442 0 890.13630191 0 10575
0.09950000 0.09950330 17728.34216013 0 169.28809585 0 6559.33380116 0 373.72307237 0 1711.60425977 0 10882
0.10050000 0.10051200 17837.29383634 0 227.95370167 0 6953.32033519 0 248.34338782 0 1552.31779492 0 10875
0.10150000 0.10150300 17688.26034428 0 427.40059586 0 7340.90706546 0 -916.55819063 0 811.35228190 0 11118
0.10250000 0.10250800 17061.23458980 0 513.96070959 0 7752.90827197 0 76.41941433 0 834.95404948 0 11575
0.10350000 0.10349800 17063.00616177 0 377.56184739 0 7284.81466793 0 -144.76621807 0 1418.70805134 0 11364
0.10450000 0.10450100 16575.82386975 0 128.75563639 0 7377.34608644 0 473.94754216 0 752.84943925 0 12093
0.10550000 0.10551000 16620.00244578 0 223.02540989 0 7543.60811592 0 1132.27808060 0 512.28103792 0 12067
0.10650000 0.10649700 16094.17774014 0 276.96977641 0 6960.38447842 0 736.73699218 0 286.06458401 0 12054
0.10750000 0.10749900 16146.66055978 0 301.35546459 0 6923.65757700 0 639.82204027 0 421.22445308 0 12807
0.10850000 0.10850100 15642.53761079 0 249.43954798 0 6516.77178456 0 378.22950857 0 1117.97263694 0 12736
0.10950000 0.10950300 15321.44019105 0 129.57388119 0 5742.45089302 0 751.01696950 0 1226.11603344 0 12933
0.11050000 0.11050200 15538.01486450 0 1.03388497 0 6008.68494328 0 592.39816584 0 920.65716528 0 13428
0.11150000 0.11150900 15691.36656324 0 -176.15736617 0 5565.62586567 0 414.73717796 0 1505.61472884 0 13453
0.11250000 0.11250000 15417.32652398 0 261.04666609 0 5226.97881109 0 712.63254105 0 1401.67881577 0 13668
0.11350000 0.11349100 15059.80115559 0 561.88948204 0 5232.70320302 0 -294.85268822 0 1651.80263342 0 13791
0.11450000 0.11448600 15162.10943691 0 503.43425039 0 5495.23909679 0 185.04179960 0 2734.17774607 0 14205
0.11550000 0.11549300 14521.46472290 0 137.63564089 0 5775.16961286 0 175.31808395 0 2480.43327820 0 14776
0.11650000 0.11649800 14399.00481041 0 142.60932920 0 5594.85680319 0 297.14687393 0 2394.82206270 0 14553
0.11750000 0.11747300 14364.90204997 0 60.13346392 0 5635.01612530 0 284.33287241 0 1398.05816555 0 14568
0.11850000 0.11849100 14233.03066138 0 53.62160825 0 5901.11730767 0 48.92129564 0 1551.60916614 0 16015
0.11950000 0.11950300 14033.83953789 0 155.36686186 0 5258.77852797 0 215.92251352 0 1541.58871218 0 15270
0.12050000 0.12050700 14066.94578910 0 -48.21045239 0 4847.81812000 0 674.65557415 0 1174.71830163 0 15999
0.12150000 0.12150000 14027.86048249 0 60.60902027 0 4550.09437795 0 917.77061020 0 1440.44302496 0 15670
0.12250000 0.12250700 13766.55361677 0 150.11636543 0 3727.61994577 0 904.44063835 0 405.05442991 0 16887
0.12350000 0.12352200 13570.57346748 0 18.50130116 0 3279.33473084 0 555.44538899 0 1130.80546140 0 16407
0.12450000 0.12449800 13540.89963696 0 140.07376682 0 3346.21157274 0 -110.43979667 0 338.22962793 0 16306
0.12550000 0.12549900 13316.46361289 0 395.10594606 0 3350.74015359 0 -722.84786793 0 -98.72461267 0 17523
0.12650000 0.12650100 13212.71592934 0 316.25992103 0 4018.61171433 0 -1229.08341649 0 -559.01289205 0 17154
0.12750000 0.12750600 13093.46699104 0 83.04686507 0 3891.96646305 0 -782.51551914 0 229.11629577 0 18007
0.12850000 0.12850300 13054.82457742 0 -47.85713450 0 4373.82296684 0 -167.41465849 0 -174.28835774 0 17496
0.12950000 0.12949900 13462.72902374 0 2.23456123 0 4244.48714063 0 385.97792148 0 -929.66007259 0 18405
0.13050000 0.13049000 13163.66553039 0 126.59099688 0 4368.37538303 0 575.98565876 0 -531.95434466 0 18100
0.13150000 0.13148800 13231.31743503 0 267.89932792 0 3940.80648783 0 642.41296428 0 -174.80654254 0 19059
0.13250000 0.13249300 12730.95907648 0 375.95525305 0 3933.08907743 0 794.26768470 0 638.88089266 0 18957
0.13350000 0.13349100 12450.93998182 0 197.19921225 0 3482.78869938 0 870.12086034 0 1000.34025807 0 19468
0.13450000 0.13450700 12248.53788413 0 53.77407416 0 3460.69941137 0 660.95467942 0 910.88473139 0 19953
0.13550000 0.13551000 12138.81114518 0 330.23319495 0 3394.64192150 0 -63.47797036 0 475.92173768 0 19956
0.13650000 0.13649900 11951.68885574 0 349.75148914 0 3209.29120403 0 -541.03365101 0 744.00929512 0 19723
0.13750000 0.13749600 11575.34053516 0 242.21596327 0 3340.13286642 0 -549.10648303 0 876.40661914 0 20946
0.13850000 0.13851100 11574.56547242 0 29.07293545 0 3775.15343622 0 -389.75469148 0 147.46454363 0 20955
0.13950000 0.13949800 11498.38787767 0 166.63627406 0 3742.68937985 0 136.03901165 0 57.64241228 0 20506
0.14050000 0.14048300 11360.42671043 0 238.10259460 0 3705.45315148 0 84.15343321 0 -612.85982211 0 21447
0.14150000 0.14148400 11198.54932158 0 188.26827505 0 3352.96569088 0 340.11635208 0 -29.82064954 0 21771
0.14250000 0.14249400 11164.22511464 0 29.90756729 0 3374.03632501 0 379.07321972 0 76.35242676 0 22470
0.14350000 0.14350900 11163.89294490 0 -148.30714755 0 3203.09070214 0 241.92254666 0 166.41039863 0 22519
0.14450000 0.14449900 11098.01261223 0 80.62866933 0 3000.42286866 0 287.07438004 0 155.85625861 0 22218
0.14550000 0.14550500 11130.34380070 0 154.03596841 0 3070.35567221 0 113.25659610 0 193.46894602 0 23559
0.14650000 0.14650700 10816.99700833 0 302.24235781 0 2866.55846160 0 221.58490043 0 238.31296877 0 23044
0.14750000 0.14750500 10803.10124068 0 187.78884339 0 3093.81792850 0 74.29441375 0 470.55830354 0 23649
0.14850000 0.14849900 10480.97409473 0 156.53388489 0 2946.10204310 0 46.23503891 0 442.06256838 0 23640
0.14950000 0.14949500 10428.88987879 0 221.39002752 0 3151.49366848 0 131.20151294 0 321.29893605 0 24457
0.15050000 0.15050000 10244.34744103 0 127.86763594 0 2809.17060206 0 -80.54684485 0 542.70889375 0 24591
0.15150000 0.15149900 10220.94054637 0 133.85887090 0 3087.60635428 0 132.78153369 0 515.08455056 0 25020
0.15250000 0.15250500 10058.96350659 0 186.88312722 0 2823.24352691 0 14.12319320 0 -85.80531335 0 25297
0.15350000 0.15350100 9867.99912045 0 245.63177547 0 2768.81197810 0 58.03935513 0 235.68439886 0 25452
0.15450000 0.15450400 9796.08437075 0 52.17091225 0 2711.96666248 0 -12.85541201 0 155.19191912 0 26061
0.15550000 0.15549900 9623.62183937 0 78.92740662 0 2817.60771358 0 39.71443611 0 85.14673147 0 26128
0.15650000 0.15649500 9636.46573616 0 129.94591130 0 2929.42712192 0 126.42491201 0 96.67490390 0 26331
0.15750000 0.15749700 9444.61556403 0 226.50544158 0 2793.41468385 0 239.34158774 0 340.29240205 0 27345
0.15850000 0.15849900 9305.68003221 0 224.78701677 0 2816.69978294 0 132.07179767 0 336.93305870 0 26980
0.15950000 0.15949700 9230.05605370 0 84.75045297 0 2907.93573945 0 286.25613523 0 765.75976999 0 27777
0.16050000 0.16050000 9090.19044659 0 52.26868088 0 2833.72901851 0 -82.04515184 0 366.74197157 0 28224
0.16150000 0.16150500 9124.50358120 0 172.21118960 0 2835.16842074 0 -41.96300383 0 630.91435496 0 28075
0.16250000 0.16249700 8941.56663055 0 102.12270916 0 2800.22416361 0 39.22681092 0 522.08115262 0 28590
0.16350000 0.16349900 8823.85674540 0 74.35641877 0 2570.22983248 0 -64.48056937 0 383.57079806 0 29163
0.16450000 0.16449100 8841.17386142 0 53.50158425 0 2536.86891780 0 232.13904045 0 282.04422287 0 28996
0.16550000 0.16550500 8835.08408277 0 0.01415674 0 2194.21368164 0 292.64154496 0 -127.36827409 0 30777
0.16650000 0.16650700 8651.92568562 0 136.68342096 0 1867.02648324 0 295.34651391 0 -148.10895294 0 29211
0.16750000 0.16749900 8639.36966927 0 109.48646950 0 1917.98132206 0 48.12187379 0 -312.25395391 0 30922
0.16850000 0.16850800 8513.57698701 0 161.56736375 0 1973.28758453 0 134.62729024 0 -301.46065167 0 30867
0.16950000 0.16949900 8347.17101731 0 113.96965382 0 1763.38952294 0 65.95418508 0 -139.09940223 0 30852
0.17050000 0.17049200 8298.12061836 0 57.83972111 0 1835.14926009 0 201.96916978 0 176.24040860 0 31257
0.17150000 0.17149500 8321.49429605 0 13.06910788 0 1938.09973626 0 158.68080867 0 107.76350504 0 32608
0.17250000 0.17250900 8322.28043111 0 114.52437730 0 1853.70647649 0 88.80281313 0 143.22384323 0 32361
0.17350000 0.17350400 8210.07349140 0 126.81355061 0 2043.30896668 0 -96.42212273 0 644.14467588 0 32508
0.17450000 0.17449800 8181.65083359 0 101.63740916 0 2045.14697260 0 -57.49825061 0 416.93060551 0 32791
0.17550000 0.17549800 8124.27404638 0 212.78240220 0 2264.89940328 0 -82.71458460 0 588.09546042 0 33633
0.17650000 0.17650100 7975.22948200 0 174.67146018 0 2028.97030604 0 -191.84352874 0 548.21405365 0 33984
0.17750000 0.17750300 7788.17362651 0 94.56485096 0 2184.68040997 0 149.98128306 0 404.39009042 0 34069
0.17850000 0.17849800 7844.24387939 0 -39.64301961 0 2082.21711610 0 115.65043273 0 119.77155203 0 34536
