### header ###
fiducial parameters:
Omega_m = 0.31
Omega_nu = 0
Omega_de = 0.69
Omega_k = 0
H_0 = 100
w_de = -1
zeff = 0
beta = 0
fgrowth = 0
b_1 = 2
gamma = 0.55
Lx = 3500 Ly = 3500 Lz = 3500
nx = 700 ny = 700 nz = 700
xoffset = -685.467585 yoffset = -31.7331281 zoffset = 572.489161
bins = 400 dk = 0.001
kx_ny = 0.628318531 ky_ny = 0.628318531 kz_ny = 0.628318531
############################
A(data) = 8.04913681 (not used)
A(ran) = 8.0505269 (used)
Ngal = 478629
weighted Ngal = 0
Nran = 23820508
weighted Nran = 0
SN(data) = 3485.85155
SN(ran) = 70.1230089
SN(data+ran) = 3555.97456
############################
13 columns: k_central k_mean P_0(k) sigma^{lin}_{P_0(k)} P^img_1(k) sigma^{lin}_{P_1(k)} P_2(k) sigma^{lin}_{P_2(k)} P^img_3(k) sigma^{lin}_{P_3(k)} P_4(k) sigma^{lin}_{P_4(k)} N_modes
### header ###
0.00050000 0 0 0 0 0 0 0 0 0 0 0 0
0.00150000 0.00179520 6700.52808725 0 -15906.83400421 0 2021.91723513 0 -32454.20199918 0 7798.10550187 0 3
0.00250000 0.00253879 16176.88800654 0 -15564.92061381 0 -17873.38961525 0 1800.09427972 0 14568.41138013 0 6
0.00350000 0.00331552 43892.13498334 0 -32904.84561930 0 -15194.21917888 0 18459.22632141 0 -14368.33447066 0 7
0.00450000 0.00420575 56861.48121317 0 -25926.18073260 0 -1341.99898499 0 -56360.79068487 0 -9101.36242233 0 24
0.00550000 0.00557378 74301.94292801 0 19683.71472310 0 23754.34421943 0 -61950.32169982 0 7155.77779450 0 45
0.00650000 0.00659388 58454.34586158 0 3738.18294365 0 27382.85578575 0 -42813.91199250 0 29624.89083827 0 40
0.00750000 0.00754703 58167.46192552 0 -3855.90390112 0 36681.50489169 0 21284.88361512 0 34940.82470695 0 57
0.00850000 0.00846663 60751.29964520 0 -7792.27038670 0 37038.25519735 0 34657.81608459 0 -1317.75059364 0 75
0.00950000 0.00948925 76622.37004025 0 -6984.02389191 0 31434.55160663 0 42059.66522585 0 -8636.36906924 0 112
0.01050000 0.01054430 74628.79795665 0 -4607.16114006 0 -749.98945775 0 29056.65912858 0 24609.23841868 0 105
0.01150000 0.01145670 85450.11317166 0 -12163.50242952 0 3058.40863373 0 15197.09798334 0 14693.97154358 0 144
0.01250000 0.01249090 93844.04261668 0 -19533.79544506 0 -9643.56309637 0 28665.36316949 0 18159.94138156 0 169
0.01350000 0.01339930 103382.40755495 0 -5846.25393819 0 -7132.45947843 0 -13055.48891691 0 -30811.84405883 0 180
0.01450000 0.01448870 102051.84628149 0 10393.05983567 0 -6597.40045389 0 -13308.93443201 0 -1837.37479738 0 267
0.01550000 0.01550050 87314.80339437 0 15174.17827096 0 7211.16156324 0 -18679.78703179 0 11234.31293074 0 238
0.01650000 0.01653350 81761.25743508 0 13408.14246239 0 -9195.25573679 0 -2419.11474335 0 21355.63577072 0 315
0.01750000 0.01747870 78372.46170109 0 1305.21672195 0 -119.60878885 0 11989.33476013 0 -5220.53471804 0 297
0.01850000 0.01844180 72559.60189455 0 -1100.02218394 0 -11513.22479292 0 6082.96917049 0 -14839.68333819 0 388
0.01950000 0.01947590 81810.86145027 0 -4596.21061082 0 -7763.22767870 0 -590.06633424 0 3006.14726059 0 399
0.02050000 0.02045430 78983.98620082 0 -1385.34713666 0 -7965.16473874 0 2872.30499818 0 -11333.52096112 0 462
0.02150000 0.02154770 78401.02829912 0 1123.75239049 0 -4462.56765026 0 -10600.58841975 0 -422.90080305 0 571
0.02250000 0.02255340 73378.84320788 0 7279.17885460 0 -393.48274324 0 -8327.59514703 0 -10359.10101545 0 510
0.02350000 0.02348930 68546.43776403 0 9040.15461073 0 1685.89432154 0 3753.25237773 0 5058.29194248 0 555
0.02450000 0.02439640 65076.59261236 0 1151.52178114 0 4612.79695340 0 -3444.15735809 0 5006.04164166 0 592
0.02550000 0.02547300 60813.52611068 0 3329.53665157 0 12194.06204602 0 -1767.88488682 0 -2026.66726248 0 837
0.02650000 0.02652900 64684.63231378 0 1140.78162607 0 9840.86085232 0 809.18874963 0 215.09983979 0 723
0.02750000 0.02749970 61309.45553931 0 -3088.25962144 0 13241.94686686 0 -2931.85196105 0 7486.00988221 0 826
0.02850000 0.02848090 67497.99932695 0 -880.85880095 0 16736.92619587 0 -4856.78670310 0 523.46630045 0 831
0.02950000 0.02946900 67027.20407566 0 -73.57714855 0 22015.76777640 0 -523.26589137 0 -3800.81908515 0 996
0.03050000 0.03053250 64493.96688040 0 3284.84874860 0 16057.52834499 0 1372.02712990 0 -2676.25841494 0 1041
0.03150000 0.03150510 64117.50783657 0 895.52520240 0 20326.79534857 0 690.66172691 0 -887.16227547 0 1036
0.03250000 0.03246190 60868.66628828 0 3316.16128318 0 21022.02662393 0 1397.40489839 0 -1636.77748864 0 1059
0.03350000 0.03345080 57990.30472843 0 4723.42055066 0 20536.39445738 0 834.06604903 0 -2475.27357483 0 1302
0.03450000 0.03451200 53793.11855942 0 4362.79493132 0 24450.46128078 0 -3022.84432641 0 5348.87403502 0 1339
0.03550000 0.03553350 51786.48113254 0 2562.72279625 0 24144.42222279 0 242.87365936 0 7630.83589084 0 1365
0.03650000 0.03647120 49624.72043495 0 960.02592340 0 31556.90079588 0 1243.18955831 0 4265.52455778 0 1308
0.03750000 0.03744890 51083.05633681 0 2223.09030476 0 33444.84290071 0 -2481.31906418 0 4869.51987664 0 1579
0.03850000 0.03847530 49450.33131905 0 3001.05399117 0 38702.09344785 0 97.90880378 0 11609.00040261 0 1662
0.03950000 0.03950240 47640.78127394 0 1069.57771962 0 39566.06695345 0 3591.15354238 0 7569.92703201 0 1683
0.04050000 0.04050350 48436.99215165 0 -175.58381974 0 36618.83553322 0 3438.58797870 0 6967.57041723 0 1822
0.04150000 0.04152450 46674.16731727 0 873.34955026 0 32966.73991504 0 6292.84508743 0 1026.11220131 0 1887
0.04250000 0.04250150 45605.90941877 0 1387.59481860 0 29333.24580255 0 7617.31658224 0 4124.61815214 0 1920
0.04350000 0.04349210 43954.80434181 0 760.43287452 0 22551.33612788 0 9878.97179434 0 -21.00408946 0 2005
0.04450000 0.04448520 43113.30765560 0 735.24222833 0 19239.93594437 0 5211.49970099 0 263.19137540 0 2151
0.04550000 0.04548030 41624.96575347 0 620.93708306 0 16131.15930504 0 4591.32771557 0 -2976.73916587 0 2274
0.04650000 0.04648670 39607.25600177 0 978.02509463 0 14207.45359105 0 1292.73821188 0 -214.57944052 0 2311
0.04750000 0.04749250 40364.04940313 0 22.13811697 0 12395.68908097 0 2487.72994025 0 -3805.70198039 0 2568
0.04850000 0.04851840 40032.10110506 0 1068.04752433 0 15393.18885587 0 -3291.13782909 0 -2654.09162065 0 2493
0.04950000 0.04949480 38163.53556867 0 2807.23294522 0 13858.12174302 0 385.77861963 0 -1025.05811599 0 2644
0.05050000 0.05050630 36800.53238349 0 2306.33204275 0 12527.33902306 0 -2490.15477939 0 645.90628276 0 2829
0.05150000 0.05149060 33451.92918859 0 1615.43004639 0 13996.41508000 0 -201.70454122 0 -1960.12259032 0 2784
0.05250000 0.05249300 35371.42741915 0 726.45523135 0 15252.57033068 0 344.55303264 0 -4779.75653934 0 3055
0.05350000 0.05348950 32291.54954760 0 52.85252457 0 11440.81178861 0 1790.64958665 0 -5064.04955138 0 3009
0.05450000 0.05448610 33208.67021232 0 367.21918877 0 12885.52873095 0 990.65751001 0 -4221.37919873 0 3336
0.05550000 0.05550870 33207.12008685 0 -404.26497315 0 12663.97151133 0 723.98388845 0 -4145.11302538 0 3349
0.05650000 0.05647670 33182.31807926 0 626.97814348 0 13202.19722076 0 1485.26379582 0 -2766.54215151 0 3324
0.05750000 0.05747970 33126.95645516 0 206.55421949 0 13578.98843434 0 1093.45850979 0 1102.44148692 0 3639
0.05850000 0.05849280 33434.21346888 0 426.25128854 0 12874.45640613 0 2475.87148037 0 2211.08790466 0 3846
0.05950000 0.05951020 32835.86503568 0 -254.38112655 0 14198.04211495 0 1476.68274409 0 5740.75682732 0 3787
0.06050000 0.06049470 33494.88980889 0 -408.40823710 0 12893.27935832 0 4441.75167960 0 5980.04083898 0 3930
0.06150000 0.06148310 33827.05955345 0 -1050.45470743 0 10523.71326853 0 2130.97963460 0 5529.20898934 0 4083
0.06250000 0.06249100 34229.98145360 0 -541.57840939 0 10475.69259579 0 1693.24634522 0 4088.32307139 0 4303
0.06350000 0.06350600 34254.67273794 0 963.22139634 0 8939.67326300 0 -2153.32358608 0 182.19289043 0 4470
0.06450000 0.06451750 33509.83744739 0 2205.09777693 0 9867.36799793 0 -2220.51045308 0 2775.00140767 0 4479
0.06550000 0.06550280 31727.96821433 0 951.57663233 0 9592.47538966 0 -1127.55019791 0 228.77083924 0 4636
0.06650000 0.06648880 30891.01118129 0 515.53851588 0 9031.45176342 0 604.68069576 0 -310.77579854 0 4653
0.06750000 0.06749660 31377.41841057 0 441.25207421 0 10103.16422727 0 2182.27771548 0 -3347.47381777 0 5220
0.06850000 0.06852730 30171.97440756 0 477.19948396 0 8364.08952963 0 802.93620780 0 -4406.06557671 0 5029
0.06950000 0.06949320 29553.25289670 0 877.51495885 0 9222.70403002 0 -1588.69038195 0 -3453.88993160 0 5040
0.07050000 0.07048030 29479.40049016 0 994.96353713 0 10637.50355069 0 -1838.42666824 0 -4801.76832108 0 5475
0.07150000 0.07148790 28668.02052745 0 241.44311500 0 10739.76754272 0 -423.20529199 0 -3928.27261613 0 5509
0.07250000 0.07249820 28472.59399440 0 365.59709319 0 9175.49163699 0 807.52236474 0 -3426.85131440 0 5916
0.07350000 0.07351270 27963.48849924 0 -601.67234511 0 10084.97239759 0 1459.76423177 0 -5436.93223430 0 5721
0.07450000 0.07449140 29189.30557991 0 495.72901955 0 10384.23519279 0 769.08036021 0 -4125.33785326 0 6028
0.07550000 0.07549160 27874.68845419 0 1561.79570497 0 10242.45407349 0 59.89474460 0 -3701.47818687 0 6183
0.07650000 0.07648840 26621.74417771 0 852.70409340 0 9460.18325273 0 278.26966734 0 -722.58877552 0 6330
0.07750000 0.07749960 26547.33815493 0 297.25206101 0 10547.48554992 0 903.74086742 0 -1165.77186318 0 6583
0.07850000 0.07848650 26413.03085488 0 -124.15729989 0 9550.14589188 0 2220.02327079 0 -1230.82177149 0 6549
0.07950000 0.07947320 26086.17582623 0 399.37543451 0 10171.95658137 0 1181.84887882 0 -152.85122966 0 6828
0.08050000 0.08048110 25743.15520335 0 612.61623096 0 9130.27226243 0 1045.18760251 0 1702.96784641 0 7147
0.08150000 0.08149960 25034.74786146 0 799.40524342 0 8645.47052025 0 1739.46222901 0 892.96749537 0 7386
0.08250000 0.08250610 24024.06605201 0 342.24445291 0 7625.20007751 0 280.56938921 0 2496.69852336 0 7227
0.08350000 0.08350160 24162.24866575 0 703.85108023 0 8455.94553633 0 657.31631349 0 1599.07622263 0 7798
0.08450000 0.08449610 22889.81709759 0 1266.02069209 0 7889.72898975 0 -138.17929204 0 1550.23619786 0 7371
0.08550000 0.08548940 22434.96599404 0 750.75123370 0 7282.71092622 0 150.06653996 0 1423.67952518 0 8256
0.08650000 0.08650700 21664.11074016 0 317.63731823 0 7599.98839389 0 385.66014576 0 2103.99637901 0 8037
0.08750000 0.08749060 21125.55286098 0 402.94293757 0 7338.52651563 0 1310.25462974 0 1277.50269293 0 8155
0.08850000 0.08849210 20962.78968615 0 354.35314733 0 6738.82725880 0 1673.91406608 0 1207.35951520 0 8718
0.08950000 0.08949900 20365.88065518 0 696.78361530 0 6298.39232216 0 173.65280629 0 1907.94979577 0 8571
0.09050000 0.09049190 19737.41549847 0 319.79309988 0 5900.12079844 0 693.67450649 0 954.72338705 0 8932
0.09150000 0.09150830 19316.44570887 0 49.36274923 0 5372.08162784 0 -47.62937678 0 1364.12148998 0 9285
0.09250000 0.09250820 19902.17169177 0 -190.51706422 0 5967.19694219 0 312.63152018 0 940.52866663 0 9204
0.09350000 0.09350330 19557.60094342 0 19.92575574 0 5315.67920521 0 -788.44807078 0 -798.29247477 0 9349
0.09450000 0.09448040 19900.06795006 0 353.68659338 0 5294.18782274 0 -640.30257917 0 -1172.09416065 0 9564
0.09550000 0.09549270 18986.04753628 0 602.05766201 0 5453.23069643 0 -1107.20812275 0 -1692.81452455 0 10155
0.09650000 0.09649430 18808.22599969 0 861.53316521 0 5904.19541397 0 -318.84530887 0 -1397.57098326 0 9913
0.09750000 0.09749140 17918.34325402 0 532.75708821 0 5538.66475473 0 741.48812676 0 -1630.78736091 0 10476
0.09850000 0.09850240 18299.89556727 0 -114.81779390 0 5436.22360551 0 953.88964099 0 -1251.39415100 0 10575
0.09950000 0.09950330 17987.10239114 0 -325.68468391 0 5680.16906591 0 841.61073116 0 -967.59607188 0 10882
0.10050000 0.10051200 18454.02232874 0 136.14309151 0 5492.20527979 0 590.65538192 0 -445.26468472 0 10875
0.10150000 0.10150300 18206.99876204 0 179.61414598 0 5253.98421132 0 469.05136013 0 1361.09874531 0 11118
0.10250000 0.10250800 18447.71110359 0 101.12963235 0 5761.73888285 0 66.64221934 0 662.47490962 0 11575
0.10350000 0.10349800 17929.74774858 0 490.79629884 0 5906.40987893 0 -479.58446273 0 390.85195887 0 11364
0.10450000 0.10450100 17448.21234222 0 1029.87347005 0 6340.14605905 0 -550.39862334 0 865.97206023 0 12093
0.10550000 0.10551000 16559.32610577 0 870.66340425 0 6410.68784047 0 -515.34364296 0 625.54095572 0 12067
0.10650000 0.10649700 16080.89095036 0 213.35262693 0 5972.48951345 0 860.58094527 0 297.67170212 0 12054
0.10750000 0.10749900 16099.71390255 0 -124.93014816 0 5919.15412480 0 381.49805886 0 -733.09309008 0 12807
0.10850000 0.10850100 15861.88036545 0 219.81332846 0 5449.93114364 0 593.57847567 0 -1543.72567087 0 12736
0.10950000 0.10950300 15649.07028243 0 322.07732049 0 5298.94892241 0 -332.55284700 0 -1267.68154081 0 12933
0.11050000 0.11050200 15229.76134155 0 467.96848676 0 5620.77711559 0 -531.79711764 0 -1022.18706217 0 13428
0.11150000 0.11150900 15153.91591654 0 146.64519160 0 5584.93600015 0 111.08863491 0 -1251.09519823 0 13453
0.11250000 0.11250000 14913.75719123 0 -79.75262699 0 5658.74411739 0 270.24887524 0 -592.71483433 0 13668
0.11350000 0.11349100 15129.11390895 0 172.11375314 0 5157.24530938 0 727.93117225 0 -808.88758239 0 13791
0.11450000 0.11448600 15080.06351000 0 -158.18587575 0 5173.95344753 0 885.15154128 0 -378.43766828 0 14205
0.11550000 0.11549300 14985.06296306 0 2.27769901 0 4413.29580481 0 469.10007836 0 -842.15881124 0 14776
0.11650000 0.11649800 14899.36316896 0 354.64102778 0 4674.27050079 0 27.48638202 0 -708.07074322 0 14553
0.11750000 0.11747300 14532.64777097 0 395.08823034 0 4754.41198783 0 121.37150296 0 -323.53333120 0 14568
0.11850000 0.11849100 14388.70754833 0 222.99994354 0 4277.37194534 0 389.34501546 0 -505.44941351 0 16015
0.11950000 0.11950300 14075.58220246 0 71.64148472 0 4358.00061467 0 540.19990495 0 -154.18876649 0 15270
0.12050000 0.12050700 14237.12742156 0 -167.21757111 0 4072.17962180 0 475.16881959 0 -534.63606173 0 15999
0.12150000 0.12150000 14266.35835908 0 192.06497523 0 4606.27535408 0 -448.92298084 0 -34.71816025 0 15670
0.12250000 0.12250700 13955.22603168 0 599.26079276 0 4931.20379821 0 -407.32536373 0 447.64080563 0 16887
0.12350000 0.12352200 13765.88927728 0 411.68010908 0 4647.22081126 0 50.60805360 0 793.80929046 0 16407
0.12450000 0.12449800 13192.34285167 0 113.73049161 0 4662.01343722 0 384.08012501 0 937.86355804 0 16306
0.12550000 0.12549900 13463.61480973 0 13.82379754 0 4569.33807848 0 542.59484881 0 811.60473090 0 17523
0.12650000 0.12650100 13825.01549181 0 -247.83073918 0 4731.50334778 0 556.49061646 0 454.04725277 0 17154
0.12750000 0.12750600 13435.15893495 0 -50.66950500 0 4318.33954717 0 -174.27728541 0 630.07285827 0 18007
0.12850000 0.12850300 13753.26682699 0 268.88808652 0 4610.68213936 0 -118.07637910 0 380.92894136 0 17496
0.12950000 0.12949900 13342.81574596 0 375.65187135 0 4437.74349801 0 -561.30154159 0 763.79996850 0 18405
0.13050000 0.13049000 13150.15729411 0 323.31963533 0 4486.45065489 0 -22.61201247 0 390.46774919 0 18100
0.13150000 0.13148800 13097.56375122 0 148.70353678 0 4768.96102264 0 305.25513739 0 657.17348050 0 19059
0.13250000 0.13249300 12841.12870843 0 143.65455666 0 4624.88793210 0 351.74672207 0 527.37040218 0 18957
0.13350000 0.13349100 12769.15859710 0 270.22894506 0 5038.27317920 0 506.97739433 0 1168.57316136 0 19468
0.13450000 0.13450700 12599.97347387 0 310.38383825 0 4617.25910030 0 526.44254136 0 1348.81953708 0 19953
0.13550000 0.13551000 12106.03706372 0 245.09255326 0 4511.65126618 0 459.68306610 0 1202.74235575 0 19956
0.13650000 0.13649900 12090.53580897 0 283.03741041 0 4513.02423446 0 301.12183854 0 1622.07344128 0 19723
0.13750000 0.13749600 11865.65689190 0 85.20851504 0 4322.95670662 0 90.61745644 0 1488.06509400 0 20946
0.13850000 0.13851100 11891.45540873 0 -100.95491106 0 4327.03132215 0 -165.96086224 0 986.14553765 0 20955
0.13950000 0.13949800 11968.40806622 0 9.16430859 0 4405.92163649 0 -94.52011877 0 1301.17532339 0 20506
0.14050000 0.14048300 11831.77557796 0 45.19545834 0 4216.45201419 0 159.32743244 0 774.34414342 0 21447
0.14150000 0.14148400 11778.96058857 0 294.83275804 0 4226.56104675 0 196.15619925 0 683.20230168 0 21771
0.14250000 0.14249400 11642.21737706 0 98.21606079 0 4043.74589167 0 374.43613009 0 617.39726082 0 22470
0.14350000 0.14350900 11386.44667375 0 99.98242877 0 3839.07396739 0 561.43440949 0 1039.17200844 0 22519
0.14450000 0.14449900 11227.33736611 0 144.87251239 0 3397.64252152 0 400.47159467 0 833.87781951 0 22218
0.14550000 0.14550500 11229.99472406 0 86.68113424 0 3133.09146463 0 592.68715352 0 640.97466929 0 23559
0.14650000 0.14650700 10965.25543765 0 355.19242955 0 3260.37891075 0 24.39133507 0 773.60119043 0 23044
0.14750000 0.14750500 10555.32475589 0 528.44995385 0 2848.63236772 0 -87.35853908 0 859.15040091 0 23649
0.14850000 0.14849900 10291.79235288 0 237.55340729 0 3082.45772324 0 -38.52194672 0 1146.66103054 0 23640
0.14950000 0.14949500 10106.39734612 0 209.91024114 0 2947.50822835 0 75.33665168 0 830.35460575 0 24457
0.15050000 0.15050000 10048.32300244 0 100.83975888 0 3272.35916620 0 47.90662779 0 820.91766331 0 24591
0.15150000 0.15149900 10030.71800598 0 188.72334760 0 3186.16111749 0 89.14439435 0 968.88267602 0 25020
0.15250000 0.15250500 9825.83570754 0 83.15072348 0 3170.84809226 0 214.48421853 0 1387.58374627 0 25297
0.15350000 0.15350100 9759.04744423 0 -2.66113362 0 3022.21320390 0 317.54320347 0 1373.59940003 0 25452
0.15450000 0.15450400 9875.07433601 0 -6.04184656 0 3225.64502779 0 415.22878919 0 1325.56765496 0 26061
0.15550000 0.15549900 9685.35005024 0 282.91782930 0 3157.56130248 0 295.45834439 0 1610.12640280 0 26128
0.15650000 0.15649500 9435.13765399 0 287.34343753 0 2976.42914077 0 171.59224664 0 1829.34736189 0 26331
0.15750000 0.15749700 9251.94603986 0 140.18891899 0 3111.06861057 0 -8.00374072 0 2151.40807389 0 27345
0.15850000 0.15849900 9158.96065604 0 60.20200161 0 2831.25989008 0 165.73166512 0 1760.89824986 0 26980
0.15950000 0.15949700 9230.88647806 0 -4.34754834 0 2942.02742756 0 141.23968262 0 1807.76740082 0 27777
0.16050000 0.16050000 9142.99436365 0 -1.70574700 0 2618.08442034 0 -12.86260902 0 1450.68492541 0 28224
0.16150000 0.16150500 9283.63503349 0 111.91352310 0 2787.23632660 0 -418.73207276 0 1395.41187992 0 28075
0.16250000 0.16249700 9066.32958660 0 310.26093544 0 3008.88212482 0 -153.37162892 0 1125.02570785 0 28590
0.16350000 0.16349900 8912.00352328 0 257.99734783 0 3097.82611009 0 -248.26698878 0 1060.50948559 0 29163
0.16450000 0.16449100 8638.43959399 0 60.12471678 0 3070.64355266 0 -21.21368857 0 997.48249103 0 28996
0.16550000 0.16550500 8860.62793612 0 -8.83836149 0 3245.56414014 0 -40.25100097 0 540.19658325 0 30777
0.16650000 0.16650700 8730.78278297 0 -83.31470461 0 3083.40994317 0 73.63804633 0 675.09182375 0 29211
0.16750000 0.16749900 8835.83700085 0 -34.63246046 0 3096.85174550 0 187.11675327 0 361.11833780 0 30922
0.16850000 0.16850800 8771.08604531 0 10.66634696 0 2755.24838020 0 279.66145857 0 169.32795622 0 30867
0.16950000 0.16949900 8711.38406989 0 137.43191011 0 2560.72977778 0 158.66420019 0 -106.64054986 0 30852
0.17050000 0.17049200 8664.73636543 0 175.44984461 0 2469.07307293 0 168.51524758 0 -206.17222429 0 31257
0.17150000 0.17149500 8542.36503153 0 96.12483081 0 2196.19562778 0 117.02893717 0 -109.27332725 0 32608
0.17250000 0.17250900 8555.75147224 0 30.64199460 0 2309.27728115 0 10.03017546 0 -345.52850445 0 32361
0.17350000 0.17350400 8401.64685541 0 131.45064025 0 2167.14184745 0 5.62637971 0 215.67117175 0 32508
0.17450000 0.17449800 8365.80573998 0 168.75883872 0 2389.72879328 0 271.12580337 0 337.67158276 0 32791
0.17550000 0.17549800 8212.33224567 0 109.14289527 0 2167.67331905 0 341.54800368 0 564.89561823 0 33633
0.17650000 0.17650100 8222.05374686 0 46.66785609 0 2227.35314982 0 314.36544625 0 295.48048904 0 33984
0.17750000 0.17750300 8039.02821760 0 154.13672657 0 2116.46381676 0 234.88054808 0 576.36433227 0 34069
0.17850000 0.17849800 7820.06192199 0 206.25637395 0 1947.32298283 0 92.70005002 0 463.89719293 0 34536
