### header ###
fiducial parameters:
Omega_m = 0.31
Omega_nu = 0
Omega_de = 0.69
Omega_k = 0
H_0 = 100
w_de = -1
zeff = 0
beta = 0
fgrowth = 0
b_1 = 2
gamma = 0.55
Lx = 3500 Ly = 3500 Lz = 3500
nx = 700 ny = 700 nz = 700
xoffset = -685.467585 yoffset = -31.7331281 zoffset = 572.489161
bins = 400 dk = 0.001
kx_ny = 0.628318531 ky_ny = 0.628318531 kz_ny = 0.628318531
############################
A(data) = 8.08098662 (not used)
A(ran) = 8.07360401 (used)
Ngal = 479142
weighted Ngal = 0
Nran = 23820508
weighted Nran = 0
SN(data) = 3498.10393
SN(ran) = 70.3240189
SN(data+ran) = 3568.42795
############################
13 columns: k_central k_mean P_0(k) sigma^{lin}_{P_0(k)} P^img_1(k) sigma^{lin}_{P_1(k)} P_2(k) sigma^{lin}_{P_2(k)} P^img_3(k) sigma^{lin}_{P_3(k)} P_4(k) sigma^{lin}_{P_4(k)} N_modes
### header ###
0.00050000 0 0 0 0 0 0 0 0 0 0 0 0
0.00150000 0.00179520 41041.67568203 0 -39903.10852093 0 -23514.62838710 0 61124.87988459 0 -31322.27823297 0 3
0.00250000 0.00253879 79575.69123913 0 -43743.98727727 0 573.36373225 0 -3039.75176641 0 25286.86469758 0 6
0.00350000 0.00331552 89853.57675204 0 -31325.15703743 0 -280.79305017 0 -69317.95735739 0 75500.30064313 0 7
0.00450000 0.00420575 101938.35495210 0 -6761.33729516 0 -2681.16345484 0 -38799.30845976 0 7969.38329449 0 24
0.00550000 0.00557378 92074.13149442 0 3594.03234683 0 -12275.66507994 0 -32363.85182866 0 2657.23616090 0 45
0.00650000 0.00659388 79208.42222489 0 15207.17379892 0 11118.60713639 0 -22931.67048540 0 -33488.13569075 0 40
0.00750000 0.00754703 80244.90255117 0 6061.13454595 0 713.38324467 0 -20120.29649070 0 7453.55689817 0 57
0.00850000 0.00846663 80984.97674205 0 -2877.84116059 0 1974.99272255 0 -23575.63689685 0 -22375.39688651 0 75
0.00950000 0.00948925 68499.38038355 0 10572.25434054 0 -713.94461154 0 -18462.88018860 0 -21612.95659950 0 112
0.01050000 0.01054430 75463.20835499 0 -331.77335533 0 8586.65433081 0 -20651.43591225 0 -46549.60366306 0 105
0.01150000 0.01145670 68340.49252240 0 6973.50518333 0 9975.10171842 0 -27794.63554575 0 -30827.12386708 0 144
0.01250000 0.01249090 60141.65744069 0 15156.46255125 0 23137.28355728 0 -14542.16997031 0 -25054.23515314 0 169
0.01350000 0.01339930 52271.00606660 0 4384.07593962 0 21394.05673784 0 -5652.11179482 0 -10323.61421441 0 180
0.01450000 0.01448870 57379.44456818 0 -2027.70806101 0 29204.69611141 0 11229.66255432 0 -8383.53253201 0 267
0.01550000 0.01550050 64286.91440629 0 -7279.76568781 0 42642.51240431 0 18357.91454932 0 -4204.19495061 0 238
0.01650000 0.01653350 69661.64231976 0 -5891.92727807 0 33539.51127791 0 14889.39807663 0 4496.15001143 0 315
0.01750000 0.01747870 76218.45163087 0 -5295.81545448 0 46928.94151135 0 18448.59688958 0 20436.96498051 0 297
0.01850000 0.01844180 73867.57562537 0 2165.06025039 0 35470.96761927 0 12039.04949856 0 4550.93587464 0 388
0.01950000 0.01947590 78217.11698388 0 5704.92678421 0 38634.22009671 0 10635.42195363 0 27073.49503031 0 399
0.02050000 0.02045430 70287.56084176 0 5518.07023057 0 23466.68522064 0 4571.88471319 0 16396.56293094 0 462
0.02150000 0.02154770 66581.21083197 0 1788.98873792 0 29655.78262452 0 2457.48034885 0 18244.09105018 0 571
0.02250000 0.02255340 64762.13858751 0 7860.78593267 0 18942.53329974 0 6947.62916023 0 6193.45989986 0 510
0.02350000 0.02348930 61485.28405743 0 3067.34399986 0 22820.72579072 0 -2548.35091864 0 -4589.54507128 0 555
0.02450000 0.02439640 53175.72572753 0 -667.07988951 0 11943.93822837 0 2111.23767945 0 -9834.78214599 0 592
0.02550000 0.02547300 60217.17069595 0 -4020.33899700 0 21562.35607508 0 -3023.59724450 0 -16360.46715203 0 837
0.02650000 0.02652900 59506.21671935 0 -1099.37334571 0 22574.25584026 0 -1849.13360634 0 -18434.53503706 0 723
0.02750000 0.02749970 60257.47395829 0 5338.80929176 0 25661.21999969 0 -6159.17998222 0 -11339.38929327 0 826
0.02850000 0.02848090 58997.00050094 0 3623.58438177 0 30079.96338832 0 5463.91548988 0 3545.65735970 0 831
0.02950000 0.02946900 57667.76790646 0 10.48811574 0 24875.74927706 0 9046.21117241 0 9364.75088511 0 996
0.03050000 0.03053250 60586.32200541 0 -1504.17532661 0 27732.85197326 0 10640.38235515 0 7781.02090468 0 1041
0.03150000 0.03150510 61148.13176670 0 1260.92742267 0 24405.61836526 0 8983.53074161 0 10900.74807326 0 1036
0.03250000 0.03246190 58786.18343639 0 2420.08910794 0 29016.90948248 0 -145.22239786 0 11870.08582183 0 1059
0.03350000 0.03345080 55252.22952402 0 3164.30434830 0 24038.46007427 0 20.29568212 0 15574.11064341 0 1302
0.03450000 0.03451200 55823.89365441 0 524.36537323 0 24501.06180520 0 1817.28960016 0 7570.17062316 0 1339
0.03550000 0.03553350 55359.96324451 0 -1574.22992574 0 23724.78111216 0 89.89454435 0 3364.32589615 0 1365
0.03650000 0.03647120 56435.75032389 0 2742.03909669 0 24728.37663372 0 3305.11110302 0 -2016.90147199 0 1308
0.03750000 0.03744890 51656.71348566 0 1408.84260992 0 22983.15679581 0 166.69495738 0 4478.62252124 0 1579
0.03850000 0.03847530 51968.17798281 0 1218.77508209 0 19852.89984633 0 5259.90790510 0 3972.20760101 0 1662
0.03950000 0.03950240 51231.20404288 0 -1651.64762087 0 20610.68975692 0 8865.21187860 0 5560.25578813 0 1683
0.04050000 0.04050350 51303.94921694 0 168.93045976 0 16265.57732834 0 10730.53322382 0 6308.49028240 0 1822
0.04150000 0.04152450 52439.19468060 0 1518.93473560 0 14337.55340767 0 5148.43173882 0 2889.36745073 0 1887
0.04250000 0.04250150 46012.37446286 0 3449.58279725 0 12158.74132985 0 -1013.57279346 0 12900.80853920 0 1920
0.04350000 0.04349210 46048.24879528 0 2282.60405066 0 11177.29045793 0 -1054.28905351 0 7211.40515438 0 2005
0.04450000 0.04448520 42519.94176857 0 1901.60535365 0 11586.52358322 0 85.11827560 0 8788.67996945 0 2151
0.04550000 0.04548030 43906.52900560 0 934.03806982 0 11226.67302662 0 -612.54204638 0 4468.08166802 0 2274
0.04650000 0.04648670 40729.43612214 0 596.93892625 0 7787.06639403 0 3670.50889436 0 3321.96318139 0 2311
0.04750000 0.04749250 41798.02619039 0 -626.82091647 0 9920.14977034 0 204.01201371 0 3066.62429875 0 2568
0.04850000 0.04851840 42093.76798630 0 -464.37441013 0 9021.87420246 0 726.01676729 0 -490.80737117 0 2493
0.04950000 0.04949480 42001.09262756 0 1317.17483275 0 10791.28707010 0 -198.61868429 0 1239.61319740 0 2644
0.05050000 0.05050630 42235.49374397 0 854.99827910 0 9245.07012615 0 -1872.38548846 0 394.82360178 0 2829
0.05150000 0.05149060 39741.34185533 0 928.85954350 0 10908.35476041 0 -144.41522538 0 4297.61215511 0 2784
0.05250000 0.05249300 39901.00477921 0 1947.78802047 0 12767.27630188 0 -1704.67298443 0 1236.29149995 0 3055
0.05350000 0.05348950 39204.77699461 0 1571.26254269 0 14862.49232732 0 -65.58636245 0 2182.33307711 0 3009
0.05450000 0.05448610 36425.95563488 0 2207.02436145 0 15151.25855859 0 -106.15458552 0 1928.78791108 0 3336
0.05550000 0.05550870 35929.14042027 0 870.39988292 0 15056.03656515 0 -1144.40227628 0 425.23595636 0 3349
0.05650000 0.05647670 35204.78893063 0 169.93250515 0 16037.37671382 0 -978.26425684 0 123.15857619 0 3324
0.05750000 0.05747970 34576.21305068 0 694.66990849 0 16060.96076569 0 -462.01489771 0 -2002.98355969 0 3639
0.05850000 0.05849280 34692.36173802 0 -124.72531015 0 15249.47007973 0 1958.22922278 0 -2547.19939685 0 3846
0.05950000 0.05951020 34797.21665406 0 -1292.88215210 0 13033.34426728 0 198.17136237 0 -3680.68436086 0 3787
0.06050000 0.06049470 34897.97480991 0 -162.28263594 0 11186.81265727 0 1916.50870286 0 -5789.56363512 0 3930
0.06150000 0.06148310 36054.25769072 0 735.25994405 0 12774.91620601 0 336.68393139 0 -8308.90506273 0 4083
0.06250000 0.06249100 34193.44278170 0 1322.82171841 0 10449.69477712 0 -198.26547713 0 -5780.75006457 0 4303
0.06350000 0.06350600 33036.49556140 0 1892.20494988 0 10316.59436047 0 -221.95028715 0 -5334.04819208 0 4470
0.06450000 0.06451750 32384.44635282 0 580.67035939 0 10793.99978968 0 1024.60636514 0 -1824.94057661 0 4479
0.06550000 0.06550280 32449.66234601 0 122.03473522 0 11209.28947665 0 3105.49923119 0 -1672.19785574 0 4636
0.06650000 0.06648880 31057.87111630 0 -68.92511127 0 9371.92575160 0 3135.49415912 0 197.69635964 0 4653
0.06750000 0.06749660 31784.32634765 0 208.98570202 0 9408.94053347 0 4280.43897932 0 171.72068561 0 5220
0.06850000 0.06852730 30610.88136337 0 1026.16756294 0 8841.15171677 0 1616.83623164 0 2673.15816399 0 5029
0.06950000 0.06949320 28882.49145918 0 1985.88789017 0 8029.99320055 0 1637.92901042 0 3165.05726638 0 5040
0.07050000 0.07048030 28529.06285097 0 510.22047827 0 8108.47383887 0 608.34563528 0 6164.84901253 0 5475
0.07150000 0.07148790 28196.45021342 0 -48.71512895 0 7471.88159574 0 -417.09115422 0 5457.22780569 0 5509
0.07250000 0.07249820 28063.69303884 0 92.58999111 0 9040.60857605 0 -1225.35204303 0 4386.89938245 0 5916
0.07350000 0.07351270 29166.05369779 0 866.76483869 0 10760.76067057 0 -2836.49709972 0 3363.04150647 0 5721
0.07450000 0.07449140 27339.89516545 0 1585.41297381 0 10371.53523622 0 -3155.47970542 0 3205.88092799 0 6028
0.07550000 0.07549160 26441.59745291 0 1906.11178985 0 12618.79642607 0 -696.89433855 0 3225.37929200 0 6183
0.07650000 0.07648840 25229.51005502 0 739.72319818 0 12883.64643573 0 984.09937202 0 3615.61230790 0 6330
0.07750000 0.07749960 24842.97519560 0 -342.33303151 0 12572.95700132 0 3211.42816272 0 904.31552108 0 6583
0.07850000 0.07848650 24676.00453733 0 156.69000467 0 11712.96953265 0 2853.01700835 0 270.86338927 0 6549
0.07950000 0.07947320 24714.86839745 0 -48.47497023 0 9529.24134262 0 1711.24994537 0 130.34783670 0 6828
0.08050000 0.08048110 23873.70388097 0 -266.78877374 0 8507.39862976 0 -129.11880864 0 512.39397563 0 7147
0.08150000 0.08149960 24685.96962967 0 549.02897676 0 8869.43043435 0 -938.79252610 0 -617.69842805 0 7386
0.08250000 0.08250610 24173.21026732 0 -92.80235830 0 8720.00941092 0 -845.56576559 0 1117.86191369 0 7227
0.08350000 0.08350160 24632.82247054 0 196.35882280 0 10040.05197580 0 -52.73526865 0 276.83247958 0 7798
0.08450000 0.08449610 23984.09495941 0 273.55950036 0 8663.44090343 0 928.14427132 0 807.84678386 0 7371
0.08550000 0.08548940 24065.58727008 0 671.77455523 0 10220.19870060 0 1287.76673803 0 1998.39961722 0 8256
0.08650000 0.08650700 23371.02033421 0 705.45546010 0 9483.93338946 0 957.39846072 0 1647.40692047 0 8037
0.08750000 0.08749060 23045.16181479 0 588.60478736 0 8791.48126763 0 1649.77639798 0 2233.56472404 0 8155
0.08850000 0.08849210 22365.43179418 0 240.88506982 0 8632.49375556 0 577.91113605 0 1405.70914200 0 8718
0.08950000 0.08949900 22194.25365248 0 261.55267133 0 7953.92632905 0 121.98048083 0 944.79483338 0 8571
0.09050000 0.09049190 21526.26029617 0 476.47978285 0 7125.80501121 0 -398.38556867 0 -593.15883456 0 8932
0.09150000 0.09150830 21098.31494193 0 809.48327347 0 7473.43172122 0 -880.47016235 0 -872.82140036 0 9285
0.09250000 0.09250820 20737.57859934 0 644.45359374 0 7064.51969334 0 2.63623196 0 -1918.35778110 0 9204
0.09350000 0.09350330 20305.09359192 0 470.58819881 0 6812.69073766 0 598.68060294 0 -1838.03913687 0 9349
0.09450000 0.09448040 19942.25350762 0 193.65053215 0 6408.73911131 0 856.16751660 0 -1919.31000104 0 9564
0.09550000 0.09549270 19613.95907674 0 409.31727497 0 5917.12788936 0 1036.22012664 0 -2028.08452006 0 10155
0.09650000 0.09649430 19206.38680017 0 43.97872056 0 5600.69191837 0 1186.47711059 0 -1193.02085456 0 9913
0.09750000 0.09749140 18830.92426557 0 216.93009508 0 4751.32280920 0 1248.77001002 0 -1394.64788951 0 10476
0.09850000 0.09850240 18363.56143497 0 637.48688697 0 4457.15328342 0 790.86515929 0 -590.28003010 0 10575
0.09950000 0.09950330 17806.84494309 0 706.28256276 0 4282.77523985 0 548.26830804 0 -810.96585776 0 10882
0.10050000 0.10051200 17318.66614184 0 760.19703400 0 4353.59382939 0 -167.92177097 0 250.69514961 0 10875
0.10150000 0.10150300 16558.44031979 0 361.38407359 0 4196.85399926 0 82.73805793 0 229.17497910 0 11118
0.10250000 0.10250800 16320.60678268 0 169.67341275 0 4430.52434223 0 39.66306052 0 -536.51835695 0 11575
0.10350000 0.10349800 16619.44882954 0 -105.75576038 0 5067.60376765 0 -730.93398674 0 542.35679382 0 11364
0.10450000 0.10450100 16449.82081332 0 238.87101394 0 5254.39388734 0 -256.50479845 0 -270.43489030 0 12093
0.10550000 0.10551000 16300.45515151 0 459.75614344 0 5593.47276258 0 -701.16936316 0 654.15184305 0 12067
0.10650000 0.10649700 15954.33427768 0 279.04251561 0 5578.60263035 0 696.35843803 0 551.39623981 0 12054
0.10750000 0.10749900 15842.50379702 0 -52.81897542 0 5223.91177711 0 606.10348950 0 1078.16430752 0 12807
0.10850000 0.10850100 15687.71269605 0 445.99767263 0 5515.82254863 0 985.36826045 0 579.11469776 0 12736
0.10950000 0.10950300 15560.15951414 0 363.41363073 0 5440.42001662 0 848.65051528 0 1766.74443736 0 12933
0.11050000 0.11050200 14832.04343407 0 359.55714000 0 4945.85248394 0 694.30120008 0 2191.92171040 0 13428
0.11150000 0.11150900 14839.57261494 0 128.86746687 0 5190.24083734 0 357.35817629 0 1843.40921441 0 13453
0.11250000 0.11250000 14745.67930048 0 104.46849190 0 5136.55113429 0 -59.97889427 0 2094.31916712 0 13668
0.11350000 0.11349100 14754.20499059 0 143.15076588 0 4878.53274904 0 -114.11248681 0 2057.32652990 0 13791
0.11450000 0.11448600 14629.30916664 0 38.83031097 0 5296.25834748 0 -639.27617466 0 2540.45635104 0 14205
0.11550000 0.11549300 14751.76907913 0 -102.36021053 0 5104.92857461 0 -58.33941513 0 1470.98049681 0 14776
0.11650000 0.11649800 14703.05084993 0 205.04616885 0 5061.09324065 0 63.50465466 0 1384.74923112 0 14553
0.11750000 0.11747300 14513.04975604 0 287.45858971 0 4491.57714128 0 566.82441721 0 1544.32357641 0 14568
0.11850000 0.11849100 14250.52493459 0 32.43139301 0 4070.25303728 0 703.00072569 0 1139.76297218 0 16015
0.11950000 0.11950300 14403.76591008 0 22.51656903 0 4408.26896935 0 777.20855386 0 691.50765253 0 15270
0.12050000 0.12050700 14012.24850449 0 217.55014527 0 4113.06971736 0 8.72567844 0 144.61784892 0 15999
0.12150000 0.12150000 13739.64786746 0 512.86233497 0 4108.05395421 0 14.45392354 0 1305.24993892 0 15670
0.12250000 0.12250700 13469.70458838 0 134.05706551 0 4012.38906778 0 -62.60547116 0 887.22428049 0 16887
0.12350000 0.12352200 13454.42478013 0 113.85671611 0 4084.28167283 0 246.02705747 0 738.61042954 0 16407
0.12450000 0.12449800 13457.96792407 0 41.30110025 0 4127.75162007 0 -83.74552877 0 762.15240657 0 16306
0.12550000 0.12549900 13468.59735590 0 100.36996014 0 3925.57096888 0 367.42181232 0 748.92872904 0 17523
0.12650000 0.12650100 13264.86657923 0 174.42233287 0 4007.52831719 0 210.85249599 0 1045.84751307 0 17154
0.12750000 0.12750600 13122.91937506 0 266.31487824 0 3783.05907614 0 126.50573998 0 1341.32357318 0 18007
0.12850000 0.12850300 13027.14376538 0 109.63661023 0 3865.00535212 0 392.07877246 0 1112.32575128 0 17496
0.12950000 0.12949900 12906.01253186 0 -9.35124265 0 3300.97005353 0 289.65644619 0 984.95969166 0 18405
0.13050000 0.13049000 13077.41212005 0 86.69109934 0 3858.42839118 0 -349.71605770 0 559.25316150 0 18100
0.13150000 0.13148800 12757.86482579 0 283.68403418 0 3870.80725033 0 -457.89488564 0 359.18068095 0 19059
0.13250000 0.13249300 12665.52163680 0 326.39995610 0 4067.39637748 0 -581.20515268 0 602.87147789 0 18957
0.13350000 0.13349100 12423.25916977 0 227.81529761 0 3918.00857103 0 -163.56702562 0 485.88793725 0 19468
0.13450000 0.13450700 12239.45857778 0 219.52323355 0 3928.87052167 0 455.94283478 0 -182.14527943 0 19953
0.13550000 0.13551000 12054.66147656 0 80.40146522 0 3742.24648686 0 313.87937119 0 -427.78702000 0 19956
0.13650000 0.13649900 11904.18858227 0 -15.44777542 0 3255.24135203 0 668.29673801 0 -215.51173027 0 19723
0.13750000 0.13749600 12076.25250995 0 -132.99855126 0 3047.95635910 0 549.11312643 0 49.03312612 0 20946
0.13850000 0.13851100 12112.68045861 0 -39.84641822 0 3142.42543446 0 413.85249921 0 478.87029778 0 20955
0.13950000 0.13949800 12037.16720334 0 257.84787145 0 2933.85605185 0 528.97035312 0 792.53486587 0 20506
0.14050000 0.14048300 11921.35068574 0 234.42436829 0 3039.13171622 0 105.90014350 0 1095.74605210 0 21447
0.14150000 0.14148400 11683.51714864 0 260.25942379 0 3291.49214349 0 59.22807992 0 1309.49063933 0 21771
0.14250000 0.14249400 11560.83578964 0 142.68019208 0 3348.90214767 0 -45.92501382 0 1614.37817553 0 22470
0.14350000 0.14350900 11327.09901272 0 216.84483818 0 3436.52852629 0 31.74579466 0 1679.98170008 0 22519
0.14450000 0.14449900 11290.56034082 0 303.09714128 0 3488.40236806 0 87.81604754 0 1304.26450201 0 22218
0.14550000 0.14550500 11006.43341365 0 65.58470160 0 3094.89194401 0 289.45160818 0 1527.52685966 0 23559
0.14650000 0.14650700 10992.42692275 0 -56.61822224 0 2925.51859126 0 399.48947946 0 1029.57894621 0 23044
0.14750000 0.14750500 10917.75516418 0 2.72936128 0 2855.14289471 0 109.95427523 0 671.11685914 0 23649
0.14850000 0.14849900 10970.01653732 0 261.56817259 0 2842.13291305 0 24.28182977 0 754.55789897 0 23640
0.14950000 0.14949500 10619.40029961 0 294.61241877 0 2557.81775636 0 -228.42538271 0 588.44313142 0 24457
0.15050000 0.15050000 10413.17824987 0 310.31740430 0 2626.55474883 0 -424.30698831 0 662.61663538 0 24591
0.15150000 0.15149900 10171.72406255 0 201.73443650 0 2735.28497855 0 -40.00995646 0 204.95205409 0 25020
0.15250000 0.15250500 10030.34154694 0 248.56926325 0 2892.15767658 0 -202.92360418 0 225.29855818 0 25297
0.15350000 0.15350100 9860.91283256 0 234.62920630 0 2808.38446700 0 -33.67392930 0 409.64058685 0 25452
0.15450000 0.15450400 9760.91866713 0 -20.14620573 0 2755.39232042 0 352.65133101 0 365.41439983 0 26061
0.15550000 0.15549900 9795.01035524 0 78.82399111 0 2440.60612583 0 426.79383246 0 519.31085695 0 26128
0.15650000 0.15649500 9866.02824663 0 96.38093368 0 2487.37562586 0 286.10444438 0 388.04291006 0 26331
0.15750000 0.15749700 9546.72454351 0 271.56205297 0 2690.75208813 0 -2.55548150 0 634.74205765 0 27345
0.15850000 0.15849900 9459.87322763 0 286.23066889 0 2642.29959472 0 -32.06268459 0 739.16736748 0 26980
0.15950000 0.15949700 9198.86531468 0 153.21108021 0 2825.62407674 0 8.05214892 0 579.91079791 0 27777
0.16050000 0.16050000 9129.66328457 0 86.63197312 0 3045.63117089 0 50.92272907 0 882.97915115 0 28224
0.16150000 0.16150500 9165.69262953 0 -43.10566775 0 2801.13209425 0 210.34538351 0 931.22348485 0 28075
0.16250000 0.16249700 9205.50870957 0 -49.25700853 0 2846.97151899 0 196.99880317 0 883.23935078 0 28590
0.16350000 0.16349900 9175.73522814 0 132.37628660 0 2812.99055413 0 -104.86543474 0 391.19187924 0 29163
0.16450000 0.16449100 9107.09788658 0 269.58785745 0 3024.73769396 0 -358.20299467 0 695.76828312 0 28996
0.16550000 0.16550500 8758.81790941 0 267.39442991 0 3095.41234328 0 -254.73876264 0 575.97680090 0 30777
0.16650000 0.16650700 8698.09728011 0 212.67278619 0 3238.53321388 0 -88.17689460 0 852.21137494 0 29211
0.16750000 0.16749900 8565.39546716 0 97.44144095 0 3099.76376693 0 539.32962022 0 280.67900522 0 30922
0.16850000 0.16850800 8459.12329355 0 9.81424298 0 2785.19901883 0 455.88858039 0 467.01515960 0 30867
0.16950000 0.16949900 8393.85193874 0 28.00235236 0 2536.06063809 0 433.60774115 0 21.36382929 0 30852
0.17050000 0.17049200 8464.82554083 0 -5.54621608 0 2375.01367360 0 208.73768195 0 59.21169288 0 31257
0.17150000 0.17149500 8334.16103564 0 73.02707545 0 2313.50690923 0 126.19239319 0 300.35563366 0 32608
0.17250000 0.17250900 8131.43784054 0 271.50779858 0 2371.21586619 0 -72.97780360 0 213.73351490 0 32361
0.17350000 0.17350400 8033.25953637 0 216.42630430 0 2167.46294487 0 -0.30720276 0 326.29476901 0 32508
0.17450000 0.17449800 7867.72828033 0 155.70678223 0 2153.31251376 0 -23.21744719 0 311.96164453 0 32791
0.17550000 0.17549800 7854.09824848 0 20.73182099 0 2065.78578606 0 43.41912527 0 426.61113910 0 33633
0.17650000 0.17650100 7919.23673539 0 -101.24024487 0 1948.19769649 0 170.73081977 0 189.75085935 0 33984
0.17750000 0.17750300 7969.20613730 0 74.28533444 0 1963.25605824 0 -26.15980679 0 10.03386255 0 34069
0.17850000 0.17849800 7851.35231193 0 79.80477764 0 1893.34539934 0 63.63154350 0 -207.44775610 0 34536
