### header ###
fiducial parameters:
Omega_m = 0.31
Omega_nu = 0
Omega_de = 0.69
Omega_k = 0
H_0 = 100
w_de = -1
zeff = 0
beta = 0
fgrowth = 0
b_1 = 2
gamma = 0.55
Lx = 3500 Ly = 3500 Lz = 3500
nx = 700 ny = 700 nz = 700
xoffset = -685.467585 yoffset = -31.7331281 zoffset = 572.489161
bins = 400 dk = 0.001
kx_ny = 0.628318531 ky_ny = 0.628318531 kz_ny = 0.628318531
############################
A(data) = 8.02675199 (not used)
A(ran) = 8.02588371 (used)
Ngal = 477161
weighted Ngal = 0
Nran = 23820508
weighted Nran = 0
SN(data) = 3486.38208
SN(ran) = 69.9083579
SN(data+ran) = 3556.29044
############################
13 columns: k_central k_mean P_0(k) sigma^{lin}_{P_0(k)} P^img_1(k) sigma^{lin}_{P_1(k)} P_2(k) sigma^{lin}_{P_2(k)} P^img_3(k) sigma^{lin}_{P_3(k)} P_4(k) sigma^{lin}_{P_4(k)} N_modes
### header ###
0.00050000 0 0 0 0 0 0 0 0 0 0 0 0
0.00150000 0.00179520 12205.35581734 0 -17616.84384920 0 -9105.79135226 0 24663.60353353 0 3058.46399536 0 3
0.00250000 0.00253879 23088.56532808 0 -22433.63731506 0 -3401.50676289 0 -15975.15024834 0 -4663.09852505 0 6
0.00350000 0.00331552 27224.52154084 0 -6015.56085700 0 -4809.88433517 0 -16073.47249273 0 -8440.49964320 0 7
0.00450000 0.00420575 42337.58057880 0 -8438.01944244 0 -13283.91097792 0 -10732.96913528 0 6823.07657834 0 24
0.00550000 0.00557378 49036.22637084 0 -6950.91764070 0 -10520.91197035 0 -9969.18909696 0 12006.38614035 0 45
0.00650000 0.00659388 57293.30188109 0 10388.98522014 0 12552.25175391 0 -5706.11152296 0 8943.71466156 0 40
0.00750000 0.00754703 45206.75210906 0 -1955.88188991 0 -3850.42310033 0 3485.70072081 0 2713.47249866 0 57
0.00850000 0.00846663 44718.35186131 0 1891.67347829 0 5774.83744311 0 18541.38297156 0 -4007.36223231 0 75
0.00950000 0.00948925 58018.98204971 0 -9941.22040447 0 -3149.92139836 0 926.67275935 0 -21857.65497799 0 112
0.01050000 0.01054430 56810.99141199 0 -5212.98339252 0 24568.16009360 0 -34868.85459563 0 -20099.36979679 0 105
0.01150000 0.01145670 68757.91916806 0 8009.39867639 0 17124.12539477 0 -18422.35547976 0 -18816.86241305 0 144
0.01250000 0.01249090 67924.06238597 0 -4885.29793951 0 41282.83091658 0 -19691.24390398 0 3834.88862861 0 169
0.01350000 0.01339930 73646.57202199 0 -5467.79080357 0 29569.97210717 0 -2784.96650001 0 -18686.09825694 0 180
0.01450000 0.01448870 80865.06346426 0 -5769.47843790 0 32966.96136153 0 11620.07272742 0 -30697.79911320 0 267
0.01550000 0.01550050 84206.69109453 0 1489.31626671 0 32898.20222441 0 14193.28101528 0 -26552.65287084 0 238
0.01650000 0.01653350 79496.96700967 0 2881.30679826 0 21378.66620634 0 -2710.36117538 0 -24800.01457530 0 315
0.01750000 0.01747870 73150.19970037 0 10857.93139318 0 17016.39167429 0 -1606.11822122 0 -28812.40364308 0 297
0.01850000 0.01844180 71725.85583570 0 7284.92539118 0 36308.58899180 0 -11734.67128930 0 -5315.78992846 0 388
0.01950000 0.01947590 66528.50656583 0 1585.75621588 0 29164.94646531 0 11417.00629025 0 -5994.76703099 0 399
0.02050000 0.02045430 65374.77031973 0 -3265.41681854 0 32849.70544170 0 7859.57904927 0 -4303.28118542 0 462
0.02150000 0.02154770 72836.52073826 0 -3046.25122108 0 27994.60173198 0 13605.45129066 0 -3766.09627452 0 571
0.02250000 0.02255340 71297.68903496 0 1574.68389106 0 42408.44345764 0 1452.66687156 0 -874.77012953 0 510
0.02350000 0.02348930 76936.27044886 0 -540.11907698 0 27782.67743495 0 5358.10835391 0 -5151.77558092 0 555
0.02450000 0.02439640 67119.76871114 0 2044.80373053 0 34614.96618754 0 -3548.34793463 0 8519.76641658 0 592
0.02550000 0.02547300 69366.67558659 0 7143.55394790 0 31196.27517654 0 4065.63587783 0 -37.12140836 0 837
0.02650000 0.02652900 62363.65158530 0 2790.01548013 0 33993.36587222 0 3813.69619891 0 -261.92359421 0 723
0.02750000 0.02749970 62237.20563587 0 2159.30264148 0 34024.03621197 0 8031.70941090 0 5399.67386128 0 826
0.02850000 0.02848090 59712.71557722 0 846.93762663 0 25403.01338492 0 12031.52031769 0 9384.74750374 0 831
0.02950000 0.02946900 62944.61646853 0 -3338.44987304 0 26162.46414423 0 13760.13166837 0 12338.77733140 0 996
0.03050000 0.03053250 62755.39043738 0 -2692.41293685 0 28214.27665638 0 9206.27269999 0 16784.86936233 0 1041
0.03150000 0.03150510 61246.23256460 0 4041.04424441 0 22303.42677519 0 4877.33693796 0 14091.63707344 0 1036
0.03250000 0.03246190 58894.02788012 0 6450.18282310 0 18857.60856838 0 6383.56064467 0 22333.21132895 0 1059
0.03350000 0.03345080 56379.50291381 0 2677.80854042 0 18256.93494697 0 -6307.12838645 0 19927.85948535 0 1302
0.03450000 0.03451200 53414.22360413 0 1457.26188636 0 22742.55517750 0 -1079.71554023 0 12431.67413663 0 1339
0.03550000 0.03553350 54008.91817014 0 1698.53891648 0 26539.14463457 0 -5438.00624981 0 12115.44853981 0 1365
0.03650000 0.03647120 50548.92738756 0 3424.24931806 0 26174.97587128 0 -3299.69673618 0 5890.49894817 0 1308
0.03750000 0.03744890 51108.19051415 0 2724.24587070 0 31872.68349971 0 1524.95808030 0 4438.31925890 0 1579
0.03850000 0.03847530 48473.53082355 0 1141.41274858 0 28692.71181179 0 -588.44977481 0 4549.29717056 0 1662
0.03950000 0.03950240 48544.06153265 0 -1733.08456991 0 26997.76032855 0 8582.42470273 0 2941.07520763 0 1683
0.04050000 0.04050350 50445.51187375 0 -2771.83472278 0 24630.60800558 0 7548.72352998 0 776.30394492 0 1822
0.04150000 0.04152450 51016.06877166 0 1548.02173289 0 23591.69176784 0 7509.94824847 0 -5514.52708663 0 1887
0.04250000 0.04250150 47465.94926505 0 5556.56870396 0 17460.50262276 0 3818.12512884 0 3118.23240473 0 1920
0.04350000 0.04349210 42564.67396083 0 3258.17551811 0 14547.48468623 0 -574.90499986 0 1331.53563804 0 2005
0.04450000 0.04448520 40958.19035290 0 944.71400541 0 15569.46026699 0 3855.05133211 0 6238.05922423 0 2151
0.04550000 0.04548030 40252.88326195 0 -190.00109389 0 15768.42994398 0 2078.87327400 0 849.67913426 0 2274
0.04650000 0.04648670 39458.11178647 0 431.37223877 0 15789.68880763 0 560.66820461 0 2320.51569084 0 2311
0.04750000 0.04749250 40596.90039406 0 168.02252912 0 16383.38686441 0 -840.26101477 0 5295.23969359 0 2568
0.04850000 0.04851840 38878.80775195 0 1703.70969217 0 16966.34476611 0 -192.55990815 0 7923.51065277 0 2493
0.04950000 0.04949480 38760.77676939 0 1644.95993668 0 15018.27993752 0 1350.70183230 0 5862.58561730 0 2644
0.05050000 0.05050630 37354.70224067 0 444.75867948 0 15908.60557618 0 1909.69922310 0 5050.14271141 0 2829
0.05150000 0.05149060 37373.74663936 0 728.45932214 0 13680.18948318 0 1596.86175767 0 543.61571716 0 2784
0.05250000 0.05249300 36321.65433509 0 467.73596794 0 14902.46341991 0 542.73878903 0 829.49982228 0 3055
0.05350000 0.05348950 34667.22756069 0 1074.43514852 0 12194.17276927 0 -233.15769433 0 -450.52182455 0 3009
0.05450000 0.05448610 35799.37277339 0 816.01705234 0 14498.98790352 0 998.24648144 0 -3.72413216 0 3336
0.05550000 0.05550870 34059.91054438 0 -200.38250564 0 14756.97307180 0 -503.38663939 0 3545.23661136 0 3349
0.05650000 0.05647670 36562.58812314 0 -414.07616017 0 14126.95778961 0 1238.48382026 0 4453.64335645 0 3324
0.05750000 0.05747970 35621.44051356 0 -815.47229396 0 15059.91187883 0 2154.97336248 0 4226.32852793 0 3639
0.05850000 0.05849280 37053.53500560 0 31.28540739 0 15521.84927027 0 1468.55565767 0 6013.96644222 0 3846
0.05950000 0.05951020 34707.75226952 0 2044.92552611 0 15615.18896849 0 298.22753283 0 3847.77681470 0 3787
0.06050000 0.06049470 34409.46383891 0 2665.18609012 0 15591.16202363 0 626.94935544 0 7841.91869118 0 3930
0.06150000 0.06148310 32772.30989122 0 -15.89908338 0 15044.29990084 0 3197.20022533 0 5083.26003494 0 4083
0.06250000 0.06249100 33344.63836110 0 -1243.27813691 0 13110.85054101 0 3294.09413982 0 8064.69386653 0 4303
0.06350000 0.06350600 34064.33947431 0 -843.25275693 0 11426.97138259 0 1671.02418931 0 4067.27458191 0 4470
0.06450000 0.06451750 33790.18871180 0 923.45514176 0 11393.97585463 0 -86.04868305 0 2831.68063842 0 4479
0.06550000 0.06550280 33286.06576281 0 1541.42262730 0 8721.33808990 0 -657.92529135 0 3027.38397959 0 4636
0.06650000 0.06648880 31075.03321977 0 1602.94046400 0 9379.26670295 0 -685.27504089 0 3378.56490586 0 4653
0.06750000 0.06749660 31054.10652586 0 430.82637316 0 8135.57889002 0 822.38031742 0 209.03109855 0 5220
0.06850000 0.06852730 30058.92597116 0 620.60491332 0 8788.12635321 0 1308.38340684 0 -1790.98175639 0 5029
0.06950000 0.06949320 29242.34201579 0 1224.92022236 0 9690.69798313 0 -1396.66305262 0 -2128.33334897 0 5040
0.07050000 0.07048030 28178.84521696 0 1107.44285604 0 9646.24259898 0 -1999.99403199 0 -3610.20901339 0 5475
0.07150000 0.07148790 28021.06458829 0 776.61729171 0 11721.82739251 0 -1518.43648098 0 -2420.74237510 0 5509
0.07250000 0.07249820 26766.12729335 0 393.73297778 0 13008.65298293 0 -790.94045110 0 58.29457221 0 5916
0.07350000 0.07351270 27414.52263473 0 756.97941641 0 13526.28416820 0 1128.87887689 0 862.04581385 0 5721
0.07450000 0.07449140 26901.54182588 0 622.08528315 0 13950.68637850 0 2473.20305009 0 1792.91941323 0 6028
0.07550000 0.07549160 26686.18510816 0 -126.79472766 0 11793.13316434 0 3081.93732397 0 3060.18020570 0 6183
0.07650000 0.07648840 27004.29300020 0 -1024.72151732 0 10846.74834512 0 2863.14818555 0 2629.83215698 0 6330
0.07750000 0.07749960 27115.68058787 0 -328.35975759 0 9992.35240049 0 2538.49654955 0 958.30749859 0 6583
0.07850000 0.07848650 27290.40187351 0 282.89014849 0 9393.87109939 0 1220.92311310 0 2115.43409055 0 6549
0.07950000 0.07947320 25988.73936783 0 922.70554537 0 8137.98158451 0 63.22685003 0 1713.32047011 0 6828
0.08050000 0.08048110 26099.90550901 0 881.60618287 0 8664.22703849 0 -58.80644579 0 2012.98186900 0 7147
0.08150000 0.08149960 24416.80141333 0 922.04895651 0 8049.75730035 0 570.71966108 0 1051.22534123 0 7386
0.08250000 0.08250610 23717.80554753 0 1355.37435338 0 8536.51884403 0 -52.08333016 0 1502.47018859 0 7227
0.08350000 0.08350160 23398.36897651 0 590.71960140 0 8021.64466764 0 0.98283602 0 1880.59008115 0 7798
0.08450000 0.08449610 22869.44401992 0 -90.94685810 0 8497.55533299 0 45.55132286 0 995.51161721 0 7371
0.08550000 0.08548940 22959.01912770 0 268.13295397 0 8134.68203171 0 82.28021730 0 2097.72944317 0 8256
0.08650000 0.08650700 22270.32052398 0 995.15398112 0 8069.74284665 0 -109.16249328 0 738.19411012 0 8037
0.08750000 0.08749060 21857.65497799 0 742.48352876 0 8737.03864650 0 -143.06993791 0 1713.63049521 0 8155
0.08850000 0.08849210 21412.54752028 0 578.56551045 0 8083.98185637 0 582.20387638 0 747.75063368 0 8718
0.08950000 0.08949900 20760.71975821 0 119.26333232 0 8573.40075800 0 1518.40326401 0 1650.03106145 0 8571
0.09050000 0.09049190 20356.24773258 0 -146.77695226 0 7183.09321982 0 1413.55942030 0 1735.97444669 0 8932
0.09150000 0.09150830 20583.89473086 0 435.38927822 0 7053.95669546 0 1187.71721097 0 289.62987261 0 9285
0.09250000 0.09250820 19876.48389819 0 696.89987471 0 7198.45053435 0 347.76843576 0 1604.01447950 0 9204
0.09350000 0.09350330 19195.86809159 0 955.90923303 0 6480.28847428 0 516.01573308 0 2264.76653538 0 9349
0.09450000 0.09448040 18819.74121750 0 295.34983561 0 6832.00087215 0 -408.55660625 0 2359.80029930 0 9564
0.09550000 0.09549270 18732.15912819 0 -6.93592571 0 6482.62473482 0 171.53134886 0 1878.59706268 0 10155
0.09650000 0.09649430 18848.08636904 0 44.34554668 0 7120.78924807 0 496.75874576 0 2480.15647008 0 9913
0.09750000 0.09749140 18689.30923114 0 108.76344669 0 6750.28711499 0 80.95530291 0 1630.86486719 0 10476
0.09850000 0.09850240 18800.25392582 0 366.04884404 0 7250.85584771 0 -320.27253154 0 1796.51791880 0 10575
0.09950000 0.09950330 18207.44165503 0 789.14341278 0 7746.82956564 0 -232.03828229 0 2773.72809032 0 10882
0.10050000 0.10051200 17451.64476291 0 657.60530116 0 7756.55106683 0 106.02271413 0 3091.78062073 0 10875
0.10150000 0.10150300 17395.95096907 0 -176.08096713 0 7335.13838423 0 584.43052090 0 2730.90033792 0 11118
0.10250000 0.10250800 17814.81701696 0 -326.94471448 0 7384.04484296 0 1116.18999264 0 2229.26866201 0 11575
0.10350000 0.10349800 17659.58302300 0 -5.79746928 0 7315.86146672 0 514.40470982 0 2134.44527226 0 11364
0.10450000 0.10450100 17524.05776722 0 434.37726773 0 6443.35119869 0 70.48608763 0 1541.15689151 0 12093
0.10550000 0.10551000 17129.99372693 0 603.89123900 0 7023.17563247 0 -556.69877616 0 2030.37649129 0 12067
0.10650000 0.10649700 16329.46464254 0 879.50244116 0 7123.07014698 0 -480.44588960 0 1041.40418912 0 12054
0.10750000 0.10749900 15990.20861010 0 722.95305501 0 7381.90788427 0 -40.69112588 0 1060.32679224 0 12807
0.10850000 0.10850100 15275.15787331 0 546.18781821 0 6912.37487801 0 -300.02124945 0 741.56674026 0 12736
0.10950000 0.10950300 15230.53640429 0 47.04210067 0 6977.81231769 0 327.85818128 0 1123.89633072 0 12933
0.11050000 0.11050200 15007.09688945 0 -89.19621283 0 6930.47812909 0 418.73428722 0 -108.83408813 0 13428
0.11150000 0.11150900 15158.23412322 0 -115.88405878 0 6657.89963670 0 360.91571425 0 -811.99890567 0 13453
0.11250000 0.11250000 14977.86595193 0 276.01644924 0 6136.12740195 0 2.72332687 0 -1060.01898161 0 13668
0.11350000 0.11349100 14868.91427571 0 364.46882329 0 6105.32419430 0 115.71797391 0 -938.59322425 0 13791
0.11450000 0.11448600 14678.80245858 0 -75.44737493 0 5859.52965565 0 532.82684385 0 -658.21649349 0 14205
0.11550000 0.11549300 15003.33229901 0 -242.99213324 0 5887.02223818 0 647.17960011 0 -1269.05450909 0 14776
0.11650000 0.11649800 14888.95518363 0 -13.26132344 0 5232.86928789 0 956.33108861 0 -497.65892576 0 14553
0.11750000 0.11747300 14921.17564886 0 70.77208578 0 5091.71929110 0 791.55607236 0 -72.00122455 0 14568
0.11850000 0.11849100 14795.72620866 0 350.63727512 0 4909.05914857 0 1045.69471499 0 -199.70820106 0 16015
0.11950000 0.11950300 14545.38094451 0 390.28948476 0 4544.81287901 0 67.65611213 0 -23.22918385 0 15270
0.12050000 0.12050700 14033.50736815 0 442.97824965 0 4532.82155123 0 333.93024421 0 437.61370827 0 15999
0.12150000 0.12150000 13733.44736556 0 148.78215029 0 4287.64706277 0 92.47351025 0 696.94970017 0 15670
0.12250000 0.12250700 13651.84433165 0 0.13665685 0 4182.63713419 0 185.97519658 0 321.09963421 0 16887
0.12350000 0.12352200 13870.30130032 0 -99.68270094 0 4429.07386768 0 116.47532093 0 -343.82890259 0 16407
0.12450000 0.12449800 13674.32115103 0 125.05637266 0 4094.70073048 0 -195.88603453 0 -499.95532593 0 16306
0.12550000 0.12549900 13383.89407104 0 483.65132764 0 4095.04397255 0 -381.42055259 0 -495.82977770 0 17523
0.12650000 0.12650100 13139.86003203 0 220.68472043 0 4313.11340986 0 -52.86370761 0 -621.53609583 0 17154
0.12750000 0.12750600 13120.37274035 0 80.82143850 0 4276.68546120 0 141.81987244 0 -753.99210318 0 18007
0.12850000 0.12850300 12960.26692347 0 190.74183242 0 4033.14967682 0 43.80765314 0 -414.20238468 0 17496
0.12950000 0.12949900 12770.04438309 0 372.02236328 0 4482.08815891 0 71.01456969 0 -426.41848065 0 18405
0.13050000 0.13049000 12686.78050045 0 296.47921274 0 4306.44787031 0 -100.29090374 0 590.90783092 0 18100
0.13150000 0.13148800 12512.94500080 0 75.82881652 0 5013.98049855 0 42.61715678 0 676.28431313 0 19059
0.13250000 0.13249300 12553.80187938 0 123.10432180 0 4953.90206409 0 417.34471046 0 982.97885275 0 18957
0.13350000 0.13349100 12609.60639647 0 -29.11501028 0 4822.34070059 0 348.37741363 0 614.12206714 0 19468
0.13450000 0.13450700 12468.43425503 0 -95.08912554 0 4712.23750259 0 495.92610693 0 1010.54119092 0 19953
0.13550000 0.13551000 12469.65221076 0 252.94172432 0 4358.18884419 0 225.55765058 0 696.30418364 0 19956
0.13650000 0.13649900 12270.68253377 0 310.76694068 0 4342.30005808 0 -47.59826355 0 442.04042373 0 19723
0.13750000 0.13749600 11850.59853015 0 328.89897981 0 4004.18447509 0 337.01388667 0 485.23024115 0 20946
0.13850000 0.13851100 11611.43631407 0 386.01446015 0 3846.79137779 0 93.54641853 0 -20.48424381 0 20955
0.13950000 0.13949800 11260.66506381 0 267.85503862 0 3679.62141768 0 312.12440771 0 -162.72220723 0 20506
0.14050000 0.14048300 11120.48943161 0 56.28073778 0 3493.31848028 0 319.48418201 0 33.75830042 0 21447
0.14150000 0.14148400 11055.87134397 0 -63.18233928 0 3314.02432449 0 577.07406829 0 562.14968167 0 21771
0.14250000 0.14249400 11098.12333547 0 136.82403948 0 3285.23627997 0 318.02484960 0 140.29964224 0 22470
0.14350000 0.14350900 11128.24005898 0 -108.28766890 0 3168.16858966 0 382.55435865 0 565.72714982 0 22519
0.14450000 0.14449900 10873.25549073 0 259.82317419 0 3364.06016035 0 -81.44547473 0 451.87596987 0 22218
0.14550000 0.14550500 10873.51015420 0 238.70935800 0 3310.00507059 0 -353.44300223 0 574.59718923 0 23559
0.14650000 0.14650700 10738.69352721 0 103.80060926 0 3775.48560596 0 -203.40746478 0 1103.07814559 0 23044
0.14750000 0.14750500 10746.85383060 0 110.18446886 0 3611.01729311 0 -29.52413268 0 934.67472850 0 23649
0.14850000 0.14849900 10693.85061170 0 -2.78049328 0 3941.18294687 0 38.71216926 0 914.04809459 0 23640
0.14950000 0.14949500 10738.10669400 0 86.57218257 0 3845.99417041 0 239.46449055 0 767.47155141 0 24457
0.15050000 0.15050000 10645.19881644 0 88.46366782 0 3636.29541067 0 72.18845757 0 905.77817518 0 24591
0.15150000 0.15149900 10402.27200992 0 208.61367191 0 3504.72297485 0 191.74498505 0 698.70909259 0 25020
0.15250000 0.15250500 10371.32486205 0 138.63657905 0 3532.78024594 0 429.48772909 0 355.62092853 0 25297
0.15350000 0.15350100 10161.55966836 0 103.41318862 0 3207.16531767 0 274.53940111 0 388.46255117 0 25452
0.15450000 0.15450400 9986.36227276 0 198.01081366 0 2791.24450818 0 233.64155493 0 64.07211130 0 26061
0.15550000 0.15549900 9942.00653953 0 113.32856622 0 2806.90077548 0 276.44162651 0 369.06715979 0 26128
0.15650000 0.15649500 9782.77543632 0 175.55835339 0 2571.37028193 0 379.92468150 0 -64.44524865 0 26331
0.15750000 0.15749700 9468.45427937 0 291.85098096 0 2297.18630245 0 359.39769852 0 432.44293258 0 27345
0.15850000 0.15849900 9332.03216528 0 178.54898833 0 2097.49692435 0 146.38277750 0 338.91832654 0 26980
0.15950000 0.15949700 9193.18521205 0 66.50580830 0 2263.93611102 0 182.93473619 0 650.28760169 0 27777
0.16050000 0.16050000 9119.15564831 0 169.06332766 0 2281.33073331 0 -68.05205846 0 494.67493423 0 28224
0.16150000 0.16150500 9040.58643140 0 160.58857024 0 2459.91626031 0 -154.69920067 0 664.23983820 0 28075
0.16250000 0.16249700 8959.33771188 0 15.42762379 0 2473.55736449 0 -115.29501110 0 848.91957278 0 28590
0.16350000 0.16349900 8968.43916288 0 97.81336034 0 2600.67872573 0 -232.82884629 0 453.93652952 0 29163
0.16450000 0.16449100 9117.35085937 0 -14.82462498 0 2712.13274735 0 -11.66591215 0 -29.63197713 0 28996
0.16550000 0.16550500 8994.63628340 0 -23.29296044 0 2450.25012074 0 114.10362895 0 203.75956471 0 30777
0.16650000 0.16650700 8975.83547586 0 57.51807007 0 2284.19846544 0 53.62736586 0 -130.28250998 0 29211
0.16750000 0.16749900 8866.76200407 0 43.10278895 0 2050.57241176 0 268.68989191 0 -303.77919649 0 30922
0.16850000 0.16850800 8878.33258351 0 91.48552671 0 2009.58266529 0 238.98727335 0 -429.41354451 0 30867
0.16950000 0.16949900 8717.25240205 0 116.36127598 0 1800.93577640 0 -19.39827019 0 -703.39490045 0 30852
0.17050000 0.17049200 8624.77634516 0 256.96429993 0 1748.03220842 0 -43.50748242 0 -504.32335807 0 31257
0.17150000 0.17149500 8497.04600605 0 155.17309617 0 1837.97270292 0 -156.05223876 0 -561.89944713 0 32608
0.17250000 0.17250900 8352.18678045 0 113.18462599 0 1997.22595079 0 77.75374019 0 -442.73798020 0 32361
0.17350000 0.17350400 8434.99669777 0 67.33180373 0 1967.21995053 0 -6.89085028 0 -441.24210912 0 32508
0.17450000 0.17449800 8340.04044012 0 53.54111245 0 2448.91036944 0 62.35224709 0 -169.41542759 0 32791
0.17550000 0.17549800 8302.07343832 0 200.88408195 0 2283.83307872 0 -39.19503335 0 148.42340696 0 33633
0.17650000 0.17650100 8152.85171674 0 184.02425295 0 2505.73354041 0 259.92393235 0 469.92607379 0 33984
0.17750000 0.17750300 8108.68421304 0 55.95355058 0 2478.98280365 0 122.15653079 0 631.32956714 0 34069
0.17850000 0.17849800 8021.89933111 0 137.42526672 0 2741.44119115 0 53.05116207 0 852.41178402 0 34536
