### header ###
fiducial parameters:
Omega_m = 0.31
Omega_nu = 0
Omega_de = 0.69
Omega_k = 0
H_0 = 100
w_de = -1
zeff = 0
beta = 0
fgrowth = 0
b_1 = 2
gamma = 0.55
Lx = 3500 Ly = 3500 Lz = 3500
nx = 700 ny = 700 nz = 700
xoffset = -685.467585 yoffset = -31.7331281 zoffset = 572.489161
bins = 400 dk = 0.001
kx_ny = 0.628318531 ky_ny = 0.628318531 kz_ny = 0.628318531
############################
A(data) = 8.0523758 (not used)
A(ran) = 8.05563914 (used)
Ngal = 478941
weighted Ngal = 0
Nran = 23820508
weighted Nran = 0
SN(data) = 3483.56853
SN(ran) = 70.1675385
SN(data+ran) = 3553.73607
############################
13 columns: k_central k_mean P_0(k) sigma^{lin}_{P_0(k)} P^img_1(k) sigma^{lin}_{P_1(k)} P_2(k) sigma^{lin}_{P_2(k)} P^img_3(k) sigma^{lin}_{P_3(k)} P_4(k) sigma^{lin}_{P_4(k)} N_modes
### header ###
0.00050000 0 0 0 0 0 0 0 0 0 0 0 0
0.00150000 0.00179520 871.90571910 0 -6381.52333690 0 2166.55501424 0 -30377.25530970 0 -70749.60895644 0 3
0.00250000 0.00253879 14475.84674465 0 -28869.31539265 0 -45303.74567447 0 26307.51159936 0 -8049.18153946 0 6
0.00350000 0.00331552 28343.37996376 0 -36951.44817077 0 -26026.71744196 0 -20863.80310227 0 -6434.12795212 0 7
0.00450000 0.00420575 55106.51772941 0 -38258.42539236 0 -42376.33371567 0 -13988.33228289 0 -8069.52140015 0 24
0.00550000 0.00557378 92307.31465510 0 -16824.95117817 0 -29788.42907585 0 -39806.11495552 0 -8327.80552120 0 45
0.00650000 0.00659388 89570.56812967 0 1734.25823634 0 -54855.84029552 0 -53715.05866945 0 20278.85218210 0 40
0.00750000 0.00754703 105948.86172466 0 8485.04360595 0 11786.37904620 0 -56131.59356112 0 9627.37535749 0 57
0.00850000 0.00846663 84105.49004569 0 9337.07007307 0 -17758.56960688 0 -21762.76515430 0 4190.58706341 0 75
0.00950000 0.00948925 91584.95618393 0 -1920.18471470 0 23050.58725395 0 -2610.11234647 0 -6961.29240906 0 112
0.01050000 0.01054430 86544.94464973 0 -1386.25506729 0 6870.42183927 0 15695.68476992 0 -16284.95389677 0 105
0.01150000 0.01145670 105614.80968488 0 -13766.77506326 0 18115.43063579 0 -6193.14987476 0 -44431.13575551 0 144
0.01250000 0.01249090 98343.06036024 0 3504.88905972 0 9427.18772477 0 -4097.61275191 0 -39931.45367246 0 169
0.01350000 0.01339930 95095.99038392 0 19242.37185583 0 21472.22735106 0 -29426.14260778 0 -38617.16871649 0 180
0.01450000 0.01448870 74225.87605650 0 13325.87508899 0 24429.53458687 0 -16602.39744932 0 -33814.76927290 0 267
0.01550000 0.01550050 76469.90412750 0 3931.21785454 0 36570.33875051 0 -4784.55085598 0 -8515.92431987 0 238
0.01650000 0.01653350 67860.61796476 0 -3304.00387053 0 25846.68144041 0 20698.71473923 0 -16013.23904572 0 315
0.01750000 0.01747870 71596.75252832 0 1160.80038934 0 25894.51388362 0 32490.62994784 0 -10203.94452777 0 297
0.01850000 0.01844180 73885.29134508 0 -848.52318355 0 18469.74502998 0 19122.23713155 0 6019.84584670 0 388
0.01950000 0.01947590 73875.21552950 0 1489.18339881 0 8589.27847179 0 20364.44125295 0 17921.00061197 0 399
0.02050000 0.02045430 63311.22114328 0 2258.80962463 0 889.35791748 0 680.98119332 0 19284.88958313 0 462
0.02150000 0.02154770 67271.12739142 0 4713.90942364 0 17056.91638312 0 -7939.91983815 0 18459.33704465 0 571
0.02250000 0.02255340 62820.82787706 0 2183.62853911 0 22740.78360553 0 -8378.83786629 0 17870.62153405 0 510
0.02350000 0.02348930 61163.30085171 0 -2344.31011688 0 23268.04771339 0 -4745.77557447 0 13890.89582448 0 555
0.02450000 0.02439640 66498.05767258 0 -2166.79860538 0 23066.97429469 0 -6562.42297979 0 2620.47604250 0 592
0.02550000 0.02547300 65101.28389671 0 2593.02774928 0 27404.00392615 0 4203.57490042 0 808.63070446 0 837
0.02650000 0.02652900 64015.97461798 0 4773.81070091 0 22354.80236235 0 8221.21225017 0 -2184.13786605 0 723
0.02750000 0.02749970 55226.98462344 0 2162.40289243 0 16441.84873945 0 2751.94882740 0 -8688.48650217 0 826
0.02850000 0.02848090 59259.96821538 0 2441.39226089 0 18170.23864364 0 4944.67881751 0 -13180.93835711 0 831
0.02950000 0.02946900 51197.32272894 0 1852.75425655 0 16351.60929218 0 -3340.73077196 0 -7664.91650663 0 996
0.03050000 0.03053250 54869.90214804 0 -2337.38991387 0 17323.64868801 0 -4459.26809746 0 -7353.51844343 0 1041
0.03150000 0.03150510 56067.59552367 0 -2168.55910503 0 21339.35945323 0 -6094.14114623 0 -6581.17949803 0 1036
0.03250000 0.03246190 56544.81272335 0 4939.89557319 0 24597.16958462 0 -4609.03236296 0 -1155.52996272 0 1059
0.03350000 0.03345080 55834.08019324 0 2949.85556121 0 30165.66318242 0 -338.13440594 0 127.00842353 0 1302
0.03450000 0.03451200 54750.54248649 0 1895.85881707 0 29840.02610950 0 1213.43822153 0 3023.09898988 0 1339
0.03550000 0.03553350 54058.85435507 0 36.20827373 0 28862.89344425 0 5015.66349192 0 8837.92967024 0 1365
0.03650000 0.03647120 54121.08082055 0 1589.35472144 0 33722.75825365 0 6180.90388351 0 3421.89091288 0 1308
0.03750000 0.03744890 52331.01806712 0 1724.54780748 0 31296.81188589 0 4571.61897740 0 5490.36727387 0 1579
0.03850000 0.03847530 50645.36733673 0 1214.24650124 0 28210.62278919 0 7310.11493014 0 9409.94811502 0 1662
0.03950000 0.03950240 49781.06166139 0 1490.74459661 0 25832.06597165 0 5649.05583317 0 9266.90475069 0 1683
0.04050000 0.04050350 48316.96815062 0 2042.11315560 0 24672.68283989 0 7084.53845661 0 6365.45739359 0 1822
0.04150000 0.04152450 46315.86688614 0 1171.49625511 0 20063.27401788 0 893.48235847 0 -451.32678256 0 1887
0.04250000 0.04250150 45122.04882420 0 2947.38643277 0 22218.72349033 0 -1869.88314305 0 6450.61464377 0 1920
0.04350000 0.04349210 43112.97548585 0 1745.50771836 0 18512.92709678 0 -4062.14809552 0 -2843.79376177 0 2005
0.04450000 0.04448520 43277.39950941 0 -1089.75813884 0 20048.99071887 0 942.54382974 0 -508.71685656 0 2151
0.04550000 0.04548030 41747.20421947 0 631.19337754 0 16636.72165626 0 2301.89204050 0 -8590.82859727 0 2274
0.04650000 0.04648670 42071.73405991 0 1481.31097586 0 14523.90063436 0 2160.01127027 0 -8141.02647383 0 2311
0.04750000 0.04749250 39537.83252516 0 896.58593112 0 11587.85226220 0 3202.97997889 0 -10483.69788664 0 2568
0.04850000 0.04851840 39257.48126075 0 1824.75234709 0 13711.41343917 0 -129.19631491 0 -11361.09104992 0 2493
0.04950000 0.04949480 37354.03790118 0 1026.44104936 0 11630.70215925 0 998.01064092 0 -9436.34453739 0 2644
0.05050000 0.05050630 36475.78109656 0 1554.73156174 0 12925.94271654 0 1724.14920379 0 -6546.48990437 0 2829
0.05150000 0.05149060 36824.78077485 0 58.03370824 0 14472.41432396 0 -183.96556963 0 -2316.80646203 0 2784
0.05250000 0.05249300 36428.39154634 0 -1940.44706912 0 12315.96834228 0 3652.54958350 0 -3056.36025364 0 3055
0.05350000 0.05348950 37825.38676871 0 179.38384162 0 11796.89775478 0 841.70927485 0 -2600.19154344 0 3009
0.05450000 0.05448610 37287.82539876 0 512.96087866 0 10419.73306616 0 1629.15972917 0 -1463.03056759 0 3336
0.05550000 0.05550870 36554.06243303 0 38.96472899 0 11091.47994058 0 618.44027382 0 -1881.05511879 0 3349
0.05650000 0.05647670 37427.77958447 0 438.84605802 0 8289.84959172 0 1975.33596462 0 -1479.00793230 0 3324
0.05750000 0.05747970 35644.02805619 0 588.09988935 0 10374.12616023 0 -304.86096263 0 -1364.74154017 0 3639
0.05850000 0.05849280 36255.33110942 0 1314.79428291 0 6884.78264456 0 120.21555225 0 -1353.21525004 0 3846
0.05950000 0.05951020 34452.53518245 0 874.81109713 0 7399.33572353 0 -441.30743583 0 -1230.65568662 0 3787
0.06050000 0.06049470 34261.75902583 0 700.98666980 0 8228.36497200 0 152.42715962 0 -2427.21968512 0 3930
0.06150000 0.06148310 33789.19220257 0 441.15020882 0 8120.49838362 0 647.98455813 0 -2831.48133657 0 4083
0.06250000 0.06249100 32266.85826325 0 1529.71917997 0 10370.85982441 0 -1095.64861564 0 -2487.71886793 0 4303
0.06350000 0.06350600 32356.10120129 0 419.51045719 0 11210.61815563 0 -2804.05518800 0 -3605.21539490 0 4470
0.06450000 0.06451750 31251.85824713 0 850.27150364 0 13857.34668028 0 -1151.01245420 0 -3476.13423216 0 4479
0.06550000 0.06550280 31437.65185758 0 1244.69539449 0 13529.16297266 0 -1270.64892386 0 -3203.36751026 0 4636
0.06650000 0.06648880 30122.59183887 0 783.95492137 0 13187.36030550 0 1004.09488341 0 -626.37580901 0 4653
0.06750000 0.06749660 30743.85998445 0 -434.31969164 0 12085.66398605 0 2310.37344131 0 -4387.71873448 0 5220
0.06850000 0.06852730 30149.94048117 0 179.65511358 0 11549.09912534 0 1948.58522786 0 -5202.37610534 0 5029
0.06950000 0.06949320 29761.19115679 0 853.56330580 0 10628.18065320 0 846.58441947 0 -5796.49491046 0 5040
0.07050000 0.07048030 28983.36033828 0 785.98669297 0 9608.30881415 0 -1270.34997109 0 -5920.64888865 0 5475
0.07150000 0.07148790 28238.08215474 0 638.62512196 0 11193.34532891 0 -165.53347050 0 -3481.98041967 0 5509
0.07250000 0.07249820 28776.97220366 0 205.24989963 0 10860.48910022 0 -769.41585165 0 -5090.35739515 0 5916
0.07350000 0.07351270 28230.44225061 0 11.92876914 0 11256.34685713 0 727.14282272 0 -4133.25456550 0 5721
0.07450000 0.07449140 27934.25756171 0 310.42037692 0 12203.36279887 0 186.18003459 0 -2946.15740472 0 6028
0.07550000 0.07549160 27577.39653281 0 906.71267940 0 12699.51367399 0 703.56762872 0 -1988.11342746 0 6183
0.07650000 0.07648840 26801.33728627 0 1952.88128989 0 12283.19426081 0 1685.80574294 0 -102.02228317 0 6330
0.07750000 0.07749960 24714.31478120 0 1357.71061391 0 11738.65732623 0 1930.55948305 0 1179.52369061 0 6583
0.07850000 0.07848650 24466.84832151 0 287.83283429 0 10363.74031955 0 2866.77990809 0 1877.92165087 0 6549
0.07950000 0.07947320 23699.09331858 0 -236.54028957 0 8988.36934755 0 2901.64665895 0 2654.74488782 0 6828
0.08050000 0.08048110 24255.69908722 0 -690.01621037 0 8786.65373401 0 2128.23369804 0 2010.47952360 0 7147
0.08150000 0.08149960 24661.16762207 0 -452.61449394 0 7238.83130296 0 1783.62973271 0 1770.32079828 0 7386
0.08250000 0.08250610 24521.32415962 0 522.02911269 0 7401.76056267 0 -681.70643060 0 1069.28873194 0 7227
0.08350000 0.08350160 23843.25498772 0 1180.90773121 0 8316.10207387 0 -1586.52020629 0 2627.16372669 0 7798
0.08450000 0.08449610 22923.36624179 0 1296.71317649 0 8621.58751561 0 -1680.45781005 0 2095.49283355 0 7371
0.08550000 0.08548940 22306.52702614 0 253.31596890 0 9320.48373049 0 889.60372309 0 3522.99231080 0 8256
0.08650000 0.08650700 22127.81970357 0 154.63276672 0 9293.77728303 0 2004.94336119 0 2530.51340335 0 8037
0.08750000 0.08749060 22080.31943010 0 62.88681893 0 7809.43249016 0 2135.70751729 0 2338.14283195 0 8155
0.08850000 0.08849210 21612.07081352 0 241.43536437 0 7003.33402639 0 1068.87794869 0 1199.43173063 0 8718
0.08950000 0.08949900 21323.63675199 0 890.25809749 0 7500.21567495 0 -265.75461860 0 2479.19317782 0 8571
0.09050000 0.09049190 20676.79153608 0 630.55561163 0 7179.15147219 0 -781.53894009 0 2298.50390910 0 8932
0.09150000 0.09150830 20584.89124009 0 564.84468553 0 8101.12181519 0 -811.27920455 0 1562.72578025 0 9285
0.09250000 0.09250820 19862.64349217 0 475.49323871 0 8384.76156007 0 -246.01487791 0 2092.08255751 0 9204
0.09350000 0.09350330 19755.46338793 0 225.43253331 0 8592.15727624 0 163.94016296 0 1197.71552028 0 9349
0.09450000 0.09448040 19885.00958830 0 384.76882361 0 7972.14030337 0 362.82569028 0 1215.24301047 0 9564
0.09550000 0.09549270 19220.78082243 0 641.68219084 0 8469.81915932 0 249.84590230 0 622.98214146 0 10155
0.09650000 0.09649430 18901.45497466 0 760.26346795 0 7887.97956243 0 323.93414936 0 2036.25589577 0 9913
0.09750000 0.09749140 17915.02155657 0 413.21362607 0 7573.03835529 0 1029.80149994 0 798.87045013 0 10476
0.09850000 0.09850240 17852.02002835 0 223.64103115 0 6978.99705644 0 788.79352731 0 1561.12029316 0 10575
0.09950000 0.09950330 17763.77359955 0 16.93556370 0 7648.30801940 0 783.97152985 0 507.66830740 0 10882
0.10050000 0.10051200 17516.86075609 0 250.50802732 0 6869.17066656 0 799.80495434 0 981.37336565 0 10875
0.10150000 0.10150300 17102.09146838 0 351.74561484 0 6965.21201204 0 166.86325671 0 1818.98366586 0 11118
0.10250000 0.10250800 17001.00114279 0 471.42858827 0 6716.14006525 0 217.39070379 0 785.45300692 0 11575
0.10350000 0.10349800 16496.76747055 0 471.16174524 0 6647.61344694 0 39.84464665 0 1810.23652925 0 11364
0.10450000 0.10450100 16492.11709413 0 77.21440725 0 6495.52399323 0 663.43488018 0 892.07174429 0 12093
0.10550000 0.10551000 16175.89149730 0 78.19032196 0 5909.52120221 0 371.86292180 0 1390.56220165 0 12067
0.10650000 0.10649700 16263.69503312 0 -172.60979330 0 5670.32576915 0 151.44282994 0 160.23314861 0 12054
0.10750000 0.10749900 15930.41805608 0 293.75431360 0 5277.67898643 0 259.48657552 0 118.67207017 0 12807
0.10850000 0.10850100 16043.46649247 0 356.11807591 0 5580.18597280 0 -17.79776564 0 285.47885803 0 12736
0.10950000 0.10950300 15292.65214652 0 347.67099931 0 5282.94941305 0 113.90543434 0 -15.33638783 0 12933
0.11050000 0.11050200 15536.57546228 0 90.69064451 0 5388.22507742 0 204.75828841 0 659.56953159 0 13428
0.11150000 0.11150900 15288.44466309 0 -57.65182376 0 5422.83716480 0 -90.68234026 0 -238.55655992 0 13453
0.11250000 0.11250000 15311.91799171 0 315.71184095 0 5801.73212010 0 109.13071571 0 66.64786623 0 13668
0.11350000 0.11349100 15255.33841188 0 173.21877116 0 5794.56832594 0 -424.25384115 0 180.92400200 0 13791
0.11450000 0.11448600 15144.72588694 0 194.09674684 0 5362.14975247 0 82.45460642 0 239.07031579 0 14205
0.11550000 0.11549300 14990.59912547 0 -38.22963735 0 5986.68423387 0 275.21592016 0 166.74146114 0 14776
0.11650000 0.11649800 14971.55472678 0 261.42423236 0 5989.36373648 0 394.09504281 0 -67.70361240 0 14553
0.11750000 0.11747300 14845.55167034 0 400.49152485 0 6216.92215615 0 268.33225582 0 522.69234495 0 14568
0.11850000 0.11849100 14308.76536314 0 321.26904078 0 5641.86989437 0 729.42150717 0 1008.58471113 0 16015
0.11950000 0.11950300 14073.58918399 0 60.28139018 0 5331.65656992 0 976.46611129 0 1830.89748736 0 15270
0.12050000 0.12050700 14066.17072636 0 36.81082965 0 5092.88188521 0 1291.35417127 0 1137.01703563 0 15999
0.12150000 0.12150000 14070.04604005 0 80.98608397 0 4656.80944455 0 1148.57654274 0 1140.30551610 0 15670
0.12250000 0.12250700 13678.52863446 0 249.90901455 0 3992.50317241 0 180.08361255 0 1356.83590025 0 16887
0.12350000 0.12352200 13521.08017554 0 313.46415901 0 3725.56049335 0 85.11672547 0 1776.02304556 0 16407
0.12450000 0.12449800 13439.58786487 0 -34.20008618 0 3701.12387248 0 -466.32646099 0 810.19633119 0 16306
0.12550000 0.12549900 13493.17791700 0 35.73327099 0 3865.68076393 0 -335.71178127 0 782.02280069 0 17523
0.12650000 0.12650100 13430.17638878 0 270.29537901 0 4180.67733270 0 -639.97040943 0 129.57277396 0 17154
0.12750000 0.12750600 13333.62571636 0 275.98101780 0 4652.56874415 0 -734.25568419 0 490.44198445 0 18007
0.12850000 0.12850300 13280.92145022 0 276.15374607 0 4803.77241187 0 171.78379786 0 765.71548069 0 17496
0.12950000 0.12949900 12861.39106284 0 209.89806159 0 5104.29745210 0 449.89291650 0 872.92326575 0 18405
0.13050000 0.13049000 12831.60650908 0 333.34783992 0 4590.82946096 0 1058.84974410 0 768.50902825 0 18100
0.13150000 0.13148800 12230.71144117 0 358.95701999 0 4512.86922191 0 491.66326187 0 389.77240720 0 19059
0.13250000 0.13249300 12020.00509987 0 369.32846665 0 3981.51942619 0 424.85285392 0 570.90235444 0 18957
0.13350000 0.13349100 11765.00945930 0 30.58674370 0 3666.55607440 0 211.24002736 0 862.59610839 0 19468
0.13450000 0.13450700 11674.21639579 0 -32.50214517 0 3418.55814311 0 98.73048101 0 295.96213517 0 19953
0.13550000 0.13551000 11695.80742918 0 -6.05164556 0 3445.62997729 0 -14.69541095 0 186.77461844 0 19956
0.13650000 0.13649900 11664.25130345 0 120.80792163 0 3536.42304080 0 225.83667316 0 -30.72016521 0 19723
0.13750000 0.13749600 11536.91956804 0 308.52811661 0 3309.29644180 0 54.30521358 0 392.53384501 0 20946
0.13850000 0.13851100 11321.45212707 0 162.94697543 0 3520.70033956 0 209.19607619 0 658.52319689 0 20955
0.13950000 0.13949800 11310.93341849 0 348.59553843 0 3655.10729053 0 -75.20179077 0 950.02318516 0 20506
0.14050000 0.14048300 11040.89048849 0 286.87286373 0 3867.67378240 0 -173.80449714 0 856.15865874 0 21447
0.14150000 0.14148400 10978.09933444 0 -15.35665018 0 3864.88355655 0 40.90271801 0 1727.10551451 0 21771
0.14250000 0.14249400 10962.68665829 0 -70.39728758 0 3750.51751350 0 161.41678014 0 840.15914938 0 22470
0.14350000 0.14350900 11239.40620016 0 -30.11229458 0 4169.73787578 0 73.61523734 0 201.02137878 0 22519
0.14450000 0.14449900 10866.30207075 0 129.03798067 0 3479.27877241 0 -9.96855797 0 373.13291746 0 22218
0.14550000 0.14550500 10844.55602480 0 234.14534571 0 3489.31029870 0 112.98864584 0 262.65768935 0 23559
0.14650000 0.14650700 10738.25063422 0 49.73223271 0 3268.35098462 0 120.58647513 0 549.65456311 0 23044
0.14750000 0.14750500 10702.68632690 0 -7.45310293 0 3369.93956483 0 536.28140920 0 -7.24871889 0 23649
0.14850000 0.14849900 10678.88082854 0 228.11535761 0 3082.75667601 0 95.42339903 0 203.31777895 0 23640
0.14950000 0.14949500 10524.64334382 0 217.99414549 0 3205.22766083 0 54.49598974 0 14.85839557 0 24457
0.15050000 0.15050000 10240.07352365 0 324.10134146 0 3448.76344521 0 -89.83929345 0 139.66519803 0 24591
0.15150000 0.15149900 10036.42025326 0 393.05313704 0 3284.80445930 0 -247.94146243 0 687.37103197 0 25020
0.15250000 0.15250500 9788.96486589 0 36.04927514 0 3544.97087556 0 142.07785761 0 725.84846795 0 25297
0.15350000 0.15350100 9667.60111355 0 18.28937686 0 3317.41245589 0 551.28662379 0 365.21399075 0 25452
0.15450000 0.15450400 9639.25596202 0 167.53202513 0 3095.94381487 0 266.23072857 0 442.72690787 0 26061
0.15550000 0.15549900 9432.19241559 0 135.84967490 0 2884.46241083 0 382.09817886 0 424.27155687 0 26128
0.15650000 0.15649500 9320.87126186 0 33.00792896 0 2597.23523271 0 292.86409869 0 718.41340184 0 26331
0.15750000 0.15749700 9348.02060231 0 45.85260082 0 2737.12298447 0 159.40604595 0 15.57577149 0 27345
0.15850000 0.15849900 9305.63574291 0 142.44213709 0 2610.55523947 0 -369.63517005 0 276.76826010 0 26980
0.15950000 0.15949700 9137.29211637 0 169.81735298 0 2839.44233812 0 -314.58024935 0 659.43444922 0 27777
0.16050000 0.16050000 9264.64599643 0 81.52541692 0 2976.92739539 0 -93.87604164 0 781.30752850 0 28224
0.16150000 0.16150500 9035.22742619 0 72.09711089 0 3024.83734488 0 230.29882007 0 484.92021606 0 28075
0.16250000 0.16249700 9081.37687603 0 244.28427354 0 3086.79807457 0 209.93017133 0 441.96734639 0 28590
0.16350000 0.16349900 8807.48077699 0 133.56877598 0 2830.99415428 0 205.26540088 0 587.85408374 0 29163
0.16450000 0.16449100 8778.55986457 0 60.27042858 0 2929.74821934 0 104.33429532 0 694.24251676 0 28996
0.16550000 0.16550500 8725.11375267 0 58.35225903 0 2817.36412243 0 203.16940979 0 406.47611642 0 30777
0.16650000 0.16650700 8654.22872918 0 0.86252967 0 2810.74287219 0 133.86108536 0 513.95074450 0 29211
0.16750000 0.16749900 8631.77405445 0 231.00744885 0 2685.53702314 0 -234.50851796 0 490.98895729 0 30922
0.16850000 0.16850800 8514.85030436 0 192.72820749 0 2874.12085945 0 153.51999808 0 513.85884421 0 30867
0.16950000 0.16949900 8261.69266971 0 132.07733383 0 2606.75743205 0 193.51102086 0 267.99344268 0 30852
0.17050000 0.17049200 8201.53672897 0 67.26924510 0 2438.05949112 0 254.77862301 0 540.78673816 0 31257
0.17150000 0.17149500 8210.01812978 0 2.11065085 0 2440.07465423 0 324.11130656 0 164.42845249 0 32608
0.17250000 0.17250900 8125.30377259 0 146.25323130 0 2324.42422150 0 44.87247862 0 408.65072101 0 32361
0.17350000 0.17350400 8101.06645356 0 164.77723072 0 2354.82882546 0 123.30583811 0 477.48293548 0 32508
0.17450000 0.17449800 7827.53574124 0 125.64763481 0 2261.74379070 0 -171.65757336 0 640.61481873 0 32791
0.17550000 0.17549800 7917.91912874 0 171.56567306 0 2257.03805266 0 77.20333492 0 717.16001467 0 33633
0.17650000 0.17650100 7817.92496330 0 17.14582715 0 2330.99011012 0 -18.99833782 0 620.33807029 0 33984
0.17750000 0.17750300 7817.42670868 0 30.98545811 0 2310.01912691 0 310.67836209 0 729.87879419 0 34069
0.17850000 0.17849800 7725.40461712 0 92.23036200 0 2202.56221455 0 140.94515878 0 587.92937555 0 34536
