### header ###
fiducial parameters:
Omega_m = 0.31
Omega_nu = 0
Omega_de = 0.69
Omega_k = 0
H_0 = 100
w_de = -1
zeff = 0
beta = 0
fgrowth = 0
b_1 = 2
gamma = 0.55
Lx = 3500 Ly = 3500 Lz = 3500
nx = 700 ny = 700 nz = 700
xoffset = -685.467585 yoffset = -31.7331281 zoffset = 572.489161
bins = 400 dk = 0.001
kx_ny = 0.628318531 ky_ny = 0.628318531 kz_ny = 0.628318531
############################
A(data) = 8.06472279 (not used)
A(ran) = 8.06138142 (used)
Ngal = 479142
weighted Ngal = 0
Nran = 23820508
weighted Nran = 0
SN(data) = 3489.24866
SN(ran) = 70.2175558
SN(data+ran) = 3559.46622
############################
13 columns: k_central k_mean P_0(k) sigma^{lin}_{P_0(k)} P^img_1(k) sigma^{lin}_{P_1(k)} P_2(k) sigma^{lin}_{P_2(k)} P^img_3(k) sigma^{lin}_{P_3(k)} P_4(k) sigma^{lin}_{P_4(k)} N_modes
### header ###
0.00050000 0 0 0 0 0 0 0 0 0 0 0 0
0.00150000 0.00179520 12677.92264060 0 -7228.91049992 0 3359.93018319 0 22839.88091266 0 6414.49672021 0 3
0.00250000 0.00253879 14840.45840093 0 6021.82779284 0 15537.90414125 0 -6745.68102786 0 18900.90135842 0 6
0.00350000 0.00331552 10009.32627443 0 6573.31814741 0 -6365.10307920 0 8187.46380412 0 7749.34298337 0 7
0.00450000 0.00420575 6968.11296114 0 -6592.76114979 0 -13542.00686945 0 22736.79756859 0 5263.35139812 0 24
0.00550000 0.00557378 25836.38417833 0 -24954.69495302 0 -13818.92571316 0 821.96510524 0 -27820.87695557 0 45
0.00650000 0.00659388 59442.32940514 0 -17024.91736440 0 -16922.38763658 0 -25938.69245965 0 -18029.06650220 0 40
0.00750000 0.00754703 53394.40414270 0 3089.06790115 0 -11258.56132210 0 -38782.92141902 0 23287.53500507 0 57
0.00850000 0.00846663 65431.46062280 0 -6438.04755510 0 -13709.86331370 0 -32635.67740296 0 19782.03696749 0 75
0.00950000 0.00948925 68991.10232874 0 -12088.76423700 0 13703.77353505 0 -8465.53416962 0 13478.11955524 0 112
0.01050000 0.01054430 82793.30883143 0 -4056.43477591 0 15952.11981272 0 5948.63972579 0 -13329.63967942 0 105
0.01150000 0.01145670 78481.96699354 0 7707.69996973 0 10602.88039099 0 -3345.77975207 0 -12240.34436377 0 144
0.01250000 0.01249090 77601.05283097 0 5767.27504526 0 19634.88577065 0 -12767.60847163 0 -15771.97308792 0 169
0.01350000 0.01339930 70796.99850667 0 -35.46343844 0 22357.01682731 0 -8748.86388940 0 -22644.45437961 0 180
0.01450000 0.01448870 68900.53071173 0 5460.05124852 0 33780.22361946 0 -13732.22940983 0 -45043.10314824 0 267
0.01550000 0.01550050 63028.65541390 0 2333.62532343 0 17510.43880770 0 -4330.05406683 0 -37587.55323160 0 238
0.01650000 0.01653350 69657.65628283 0 -8033.23739172 0 28143.19233104 0 -12221.41068833 0 -47111.96704060 0 315
0.01750000 0.01747870 74182.14037347 0 -1716.78610778 0 20152.51695592 0 -14562.98594097 0 -45352.13173393 0 297
0.01850000 0.01844180 81546.12216386 0 -4102.97175712 0 34597.02902134 0 -3367.33756850 0 -50122.97505179 0 388
0.01950000 0.01947590 79694.71873093 0 2166.20069984 0 30069.66612624 0 -319.83628194 0 -20259.69706017 0 399
0.02050000 0.02045430 82599.10025411 0 6099.76588724 0 29034.51447894 0 3698.01254921 0 -28211.50857517 0 462
0.02150000 0.02154770 78727.77260452 0 -393.81823468 0 31819.86851032 0 10477.57489101 0 -16433.98738883 0 571
0.02250000 0.02255340 83494.29771570 0 -3221.12751927 0 37478.82300188 0 11152.59917358 0 -11693.70368747 0 510
0.02350000 0.02348930 80722.00902760 0 -2800.91064775 0 24641.90177689 0 6196.91446520 0 -14150.09894849 0 555
0.02450000 0.02439640 81949.70840350 0 -295.52145664 0 27444.86080473 0 10566.18670654 0 5221.07726196 0 592
0.02550000 0.02547300 84007.72141754 0 -2729.43879104 0 22357.79189005 0 4812.07665548 0 -12716.56505422 0 837
0.02650000 0.02652900 81057.72191611 0 4444.78549660 0 21709.39654867 0 -34.68317171 0 -1828.57229915 0 723
0.02750000 0.02749970 80394.37893622 0 11275.50197907 0 27953.63413015 0 -8850.70713308 0 -18782.53820611 0 826
0.02850000 0.02848090 70274.49549847 0 8838.15111674 0 27608.84193529 0 -5061.46969970 0 274.94464820 0 831
0.02950000 0.02946900 62921.25386316 0 5250.71787550 0 26163.90354646 0 2273.95656498 0 3898.32197750 0 996
0.03050000 0.03053250 64652.74401830 0 -380.56687634 0 25457.48922303 0 11864.99255241 0 -2330.15968576 0 1041
0.03150000 0.03150510 61871.81891685 0 -2436.19934055 0 23427.26774428 0 6495.75651206 0 -6164.19574536 0 1036
0.03250000 0.03246190 62491.09404396 0 5456.50810458 0 22045.55233017 0 1613.65847442 0 -9001.43469084 0 1059
0.03350000 0.03345080 59695.55347375 0 4343.39621823 0 17618.17252818 0 -2924.51100970 0 -634.64462119 0 1302
0.03450000 0.03451200 56168.02150977 0 70.84173070 0 22293.79385260 0 -1240.49898338 0 -1570.79750505 0 1339
0.03550000 0.03553350 56307.75424898 0 3159.80898442 0 23883.66897331 0 -2147.03450558 0 -2650.70348926 0 1365
0.03650000 0.03647120 55320.43504491 0 2461.22279464 0 26939.96279300 0 -484.16619074 0 -1516.07807579 0 1308
0.03750000 0.03744890 53871.39989589 0 603.17707405 0 26550.77057562 0 2223.58855938 0 -2008.30934793 0 1579
0.03850000 0.03847530 52331.90385311 0 3384.45538267 0 30012.20076043 0 2650.33810254 0 -4242.90379818 0 1662
0.03950000 0.03950240 48864.82678264 0 5800.99027434 0 29897.04858232 0 3599.81210039 0 -1181.89316812 0 1683
0.04050000 0.04050350 42606.30590215 0 4782.07065522 0 28987.34637522 0 3291.43678186 0 616.85028797 0 1822
0.04150000 0.04152450 42741.94188118 0 121.70035101 0 24054.07205227 0 6264.13454917 0 468.93952965 0 1887
0.04250000 0.04250150 42148.02237791 0 -2823.44282875 0 22027.94733370 0 6934.06556233 0 1829.76811023 0 1920
0.04350000 0.04349210 41792.60075123 0 270.85563864 0 19725.01449467 0 5057.38401184 0 -1193.30873500 0 2005
0.04450000 0.04448520 42550.94427806 0 680.26038498 0 14552.91012539 0 1612.10834895 0 6166.15554685 0 2151
0.04550000 0.04548030 41278.40198665 0 432.19159081 0 16133.48449325 0 3254.72095277 0 3941.07222362 0 2274
0.04650000 0.04648670 41737.90346662 0 873.55106657 0 17481.54003992 0 -189.67888924 0 5229.11576978 0 2311
0.04750000 0.04749250 41218.50070938 0 1488.12045563 0 17699.11122261 0 1352.60627217 0 5048.13862062 0 2568
0.04850000 0.04851840 38879.80426119 0 1499.49173321 0 15493.94701172 0 1476.33950202 0 6427.83887162 0 2493
0.04950000 0.04949480 38087.02580417 0 838.85150782 0 15593.26576535 0 1165.41754879 0 6520.37029013 0 2644
0.05050000 0.05050630 38398.60102457 0 198.05178126 0 13446.34198301 0 1034.28136256 0 839.36526369 0 2829
0.05150000 0.05149060 36513.64844744 0 768.19568145 0 13324.10351701 0 1238.19593982 0 -5337.10415373 0 2784
0.05250000 0.05249300 35614.02205593 0 900.52324983 0 13336.61524406 0 -2539.30482926 0 -2999.85818009 0 3055
0.05350000 0.05348950 35532.19757552 0 1535.68716305 0 13133.21663714 0 -158.95318786 0 -6652.61813776 0 3009
0.05450000 0.05448610 35115.76743909 0 -22.52088723 0 13726.02890793 0 28.93641368 0 -5282.30721821 0 3336
0.05550000 0.05550870 35555.33873439 0 180.23973233 0 14425.68911322 0 -101.53476871 0 -4729.14494259 0 3349
0.05650000 0.05647670 35356.81195039 0 737.64381558 0 14432.66467786 0 801.37279554 0 -3646.89162552 0 3324
0.05750000 0.05747970 34323.76404481 0 850.17738887 0 13702.11268632 0 1895.18340526 0 -297.49011599 0 3639
0.05850000 0.05849280 34569.56965578 0 21.91279516 0 13461.40034477 0 3816.22068897 0 83.62007933 0 3846
0.05950000 0.05951020 33442.73915899 0 -463.69789108 0 13782.49776451 0 2849.82817880 0 -874.98050370 0 3787
0.06050000 0.06049470 34486.08432665 0 -439.77281161 0 12989.83003074 0 1569.95600836 0 -74.64186330 0 3930
0.06150000 0.06148310 34461.06087256 0 655.85255215 0 12601.96649234 0 -1001.22936575 0 408.75037194 0 4083
0.06250000 0.06249100 33562.20954378 0 1761.42972145 0 13146.17125718 0 -736.43471771 0 2540.98782263 0 4303
0.06350000 0.06350600 32666.34774271 0 884.33993987 0 13090.25601684 0 989.23471627 0 6851.11170479 0 4470
0.06450000 0.06451750 32070.21377447 0 -196.35328664 0 12608.83133373 0 2654.64523689 0 5512.45656189 0 4479
0.06550000 0.06550280 32018.94891056 0 -206.54536163 0 12985.51182406 0 3731.79421223 0 3596.49040294 0 4636
0.06650000 0.06648880 31262.15550921 0 838.63781195 0 9832.22443896 0 1745.16447629 0 3781.96291598 0 4653
0.06750000 0.06749660 30384.12015109 0 1255.53520049 0 10009.82452905 0 430.96920615 0 4122.87979715 0 5220
0.06850000 0.06852730 29148.55942458 0 1274.86747962 0 7939.48801748 0 1339.14232519 0 2320.11708715 0 5029
0.06950000 0.06949320 28375.60042899 0 741.63981761 0 6029.71128811 0 258.76576717 0 3410.01030835 0 5040
0.07050000 0.07048030 27851.65801857 0 201.20296491 0 6424.94899484 0 497.48730473 0 1604.37986622 0 5475
0.07150000 0.07148790 27556.46983890 0 174.15106091 0 5825.96943913 0 13.24847954 0 274.67448347 0 5509
0.07250000 0.07249820 27442.20344677 0 374.03199023 0 8502.84790426 0 -2338.90682237 0 618.57424895 0 5916
0.07350000 0.07351270 26847.84105051 0 1247.16452292 0 9295.60421662 0 -1333.28506536 0 402.87982532 0 5721
0.07450000 0.07449140 26717.40906415 0 787.67300804 0 11264.09748451 0 -911.06853198 0 2949.93306748 0 6028
0.07550000 0.07549160 26985.02715501 0 -78.89363603 0 10978.29863629 0 310.42923478 0 3088.71358676 0 6183
0.07650000 0.07648840 26746.86144816 0 -242.98659708 0 11319.79127834 0 1673.72583656 0 3065.12953490 0 6330
0.07750000 0.07749960 26714.64098294 0 731.44552815 0 11009.66653250 0 2423.01220169 0 3682.40057121 0 6583
0.07850000 0.07848650 25835.94128533 0 664.80784846 0 9002.79658679 0 2493.39897056 0 3315.24228022 0 6549
0.07950000 0.07947320 24945.94781641 0 833.41942526 0 7824.38012867 0 1376.87680817 0 3042.87416201 0 6828
0.08050000 0.08048110 24459.09769413 0 372.64462793 0 7331.73918051 0 831.28135934 0 2341.76348217 0 7147
0.08150000 0.08149960 24084.96383851 0 301.51933500 0 7939.82018723 0 -1056.41383264 0 1933.78152958 0 7386
0.08250000 0.08250610 23379.76747081 0 267.80078423 0 7628.11209893 0 -1385.69037873 0 1256.64243297 0 7227
0.08350000 0.08350160 23632.21647668 0 711.33375735 0 8803.37294448 0 -387.54576267 0 78.43147719 0 7798
0.08450000 0.08449610 23344.55747789 0 -95.97347213 0 8656.85287016 0 -882.37792391 0 507.27413264 0 7371
0.08550000 0.08548940 22881.29140748 0 642.93004185 0 8942.96174347 0 881.97267682 0 302.65535552 0 8256
0.08650000 0.08650700 22479.03384682 0 672.00707406 0 8575.99168201 0 1283.74748412 0 407.67192750 0 8037
0.08750000 0.08749060 21752.46789222 0 361.58226821 0 8025.07708833 0 1834.59564385 0 599.70922192 0 8155
0.08850000 0.08849210 21433.47421419 0 495.42342338 0 7110.28161182 0 1789.25447372 0 1403.43931541 0 8718
0.08950000 0.08949900 20674.90924087 0 96.72373286 0 5941.99633090 0 1007.22281517 0 1837.50766528 0 8571
0.09050000 0.09049190 20986.81663101 0 -0.92999556 0 5964.72781375 0 901.91725552 0 1204.51392772 0 8932
0.09150000 0.09150830 20673.24839214 0 476.05349835 0 5142.07622438 0 -777.08786551 0 1123.49772702 0 9285
0.09250000 0.09250820 20316.94097948 0 492.07515236 0 5411.17800677 0 -15.54399392 0 808.14462940 0 9204
0.09350000 0.09350330 19947.56822353 0 137.83383550 0 4931.71312515 0 -431.05224858 0 584.54124415 0 9349
0.09450000 0.09448040 19881.68789086 0 89.36440144 0 5436.41183503 0 117.46629400 0 128.45446915 0 9564
0.09550000 0.09549270 19809.82850278 0 269.77830144 0 5465.23309653 0 248.21051992 0 -594.88279553 0 10155
0.09650000 0.09649430 19571.88424243 0 652.75340843 0 5712.66633926 0 -384.69463903 0 -252.71917059 0 9913
0.09750000 0.09749140 18858.05146137 0 1081.87464356 0 6094.55082225 0 -450.63697672 0 209.11303376 0 10476
0.09850000 0.09850240 18174.99974331 0 874.49442864 0 6926.33707960 0 -374.56899799 0 919.50453626 0 10575
0.09950000 0.09950330 17735.31772476 0 241.33128451 0 7008.69303160 0 816.50091294 0 792.43632218 0 10882
0.10050000 0.10051200 17227.31946208 0 81.23786864 0 6492.36838066 0 835.04705701 0 1001.25704656 0 10875
0.10150000 0.10150300 17386.09659998 0 414.46036984 0 5862.44167708 0 376.74028088 0 401.25883696 0 11118
0.10250000 0.10250800 16673.37105141 0 449.59285649 0 6324.22405597 0 169.25487888 0 1344.67848760 0 11575
0.10350000 0.10349800 16568.84830512 0 430.42887670 0 6258.04477052 0 -505.23682487 0 1069.35959482 0 11364
0.10450000 0.10450100 15783.70975223 0 657.79685238 0 5620.86569419 0 213.76119572 0 955.86494373 0 12093
0.10550000 0.10551000 15740.85985518 0 60.99699453 0 5767.37469619 0 755.46915131 0 344.89848917 0 12067
0.10650000 0.10649700 15665.01443017 0 -465.33438069 0 5184.09569706 0 885.01092275 0 447.25881042 0 12054
0.10750000 0.10749900 16028.07596098 0 -185.93533621 0 5290.83290832 0 665.92726050 0 -156.90923670 0 12807
0.10850000 0.10850100 15845.71477121 0 122.11888489 0 4866.96216961 0 700.48066456 0 -307.39873948 0 12736
0.10950000 0.10950300 15909.49136217 0 344.88963131 0 4727.67232339 0 -375.61090375 0 -373.78064846 0 12933
0.11050000 0.11050200 15541.55800844 0 233.31492135 0 4488.20008221 0 -296.83352713 0 -345.25058910 0 13428
0.11150000 0.11150900 15333.73047160 0 517.84931007 0 5105.33825063 0 -107.66385412 0 -226.58184062 0 13453
0.11250000 0.11250000 14839.79406144 0 206.65276318 0 4727.87162524 0 123.95689081 0 -479.02752479 0 13668
0.11350000 0.11349100 14749.00099793 0 154.12122531 0 4999.91864603 0 908.53296960 0 -749.95070462 0 13791
0.11450000 0.11448600 14865.14968527 0 26.53980897 0 4487.39180250 0 406.16276962 0 -183.01445693 0 14205
0.11550000 0.11549300 14771.03492432 0 -116.60486713 0 4383.79913150 0 502.75883858 0 -825.67987021 0 14776
0.11650000 0.11649800 14987.05598153 0 75.08353834 0 4214.76902082 0 -182.95355914 0 -345.75991604 0 14553
0.11750000 0.11747300 14609.26825871 0 336.10263433 0 4043.22549240 0 -534.81321893 0 -288.57025112 0 14568
0.11850000 0.11849100 14367.00579168 0 624.64963357 0 4423.43805435 0 -401.49799918 0 -33.64580560 0 16015
0.11950000 0.11950300 14050.44802512 0 254.91370537 0 4661.68126747 0 -172.69283573 0 -213.17768420 0 15270
0.12050000 0.12050700 13929.87040784 0 341.38634774 0 4997.21699878 0 -17.86663550 0 -173.26638216 0 15999
0.12150000 0.12150000 13407.81029264 0 221.64911992 0 5077.79030648 0 503.00575142 0 -93.80063910 0 15670
0.12250000 0.12250700 13553.30064076 0 203.37646227 0 5234.81801706 0 263.28438293 0 635.40307544 0 16887
0.12350000 0.12352200 13442.24522283 0 -85.92721965 0 5398.50019485 0 291.10581350 0 1229.09448882 0 16407
0.12450000 0.12449800 13699.01243537 0 -191.47371309 0 5816.02649144 0 338.48207694 0 1299.17123260 0 16306
0.12550000 0.12549900 13572.67720919 0 85.70145495 0 5528.63322845 0 355.71725775 0 1784.89197774 0 17523
0.12650000 0.12650100 13678.97152745 0 156.07106171 0 5403.25022220 0 531.07077314 0 1397.62634488 0 17154
0.12750000 0.12750600 13357.20976822 0 179.16682405 0 4880.72506936 0 316.39389616 0 1483.22648806 0 18007
0.12850000 0.12850300 13282.13940595 0 176.24926646 0 4701.61914309 0 419.61121535 0 816.34147146 0 17496
0.12950000 0.12949900 12990.27292373 0 271.90972397 0 4521.40598434 0 178.91105335 0 998.70266122 0 18405
0.13050000 0.13049000 12798.83242762 0 298.29064508 0 4215.94268725 0 285.69476837 0 989.18599804 0 18100
0.13150000 0.13148800 12413.95841692 0 252.26963420 0 4192.82367303 0 -68.25623213 0 862.56732035 0 19059
0.13250000 0.13249300 12401.11452013 0 90.62808587 0 4070.05373544 0 424.05011037 0 616.65873675 0 18957
0.13350000 0.13349100 12412.85118444 0 -24.90509094 0 4163.88061595 0 101.05810513 0 887.09584152 0 19468
0.13450000 0.13450700 12344.53494031 0 116.05678705 0 4165.78505582 0 31.81411090 0 573.75679978 0 19953
0.13550000 0.13551000 12200.59471767 0 355.33415531 0 4209.67575140 0 -5.25431638 0 440.75381959 0 19956
0.13650000 0.13649900 11978.70532830 0 303.60757546 0 4419.72882553 0 -368.48475550 0 933.66714694 0 19723
0.13750000 0.13749600 11798.55860350 0 254.44423880 0 4173.26994740 0 429.80771928 0 852.79931539 0 20946
0.13850000 0.13851100 11615.75452075 0 29.66995520 0 4013.89490396 0 156.44419906 0 869.56392240 0 20955
0.13950000 0.13949800 11678.97749546 0 -56.93776953 0 3940.83970480 0 628.67885258 0 849.88729396 0 20506
0.14050000 0.14048300 11754.93364372 0 106.51853284 0 3851.38639259 0 205.26097195 0 1013.19965611 0 21447
0.14150000 0.14148400 11642.66027005 0 296.65969163 0 3678.50311287 0 205.26982981 0 1409.57338336 0 21771
0.14250000 0.14249400 11399.17984729 0 302.21578423 0 3821.23645211 0 -204.66860258 0 1342.33115474 0 22470
0.14350000 0.14350900 11141.30540227 0 218.96186668 0 3683.29742952 0 -110.15645588 0 1149.57305197 0 22519
0.14450000 0.14449900 10916.36005125 0 103.36834570 0 3882.38890209 0 110.34114226 0 783.42123531 0 22218
0.14550000 0.14550500 10758.96695395 0 122.93491523 0 3711.26612201 0 74.24946011 0 586.97715561 0 23559
0.14650000 0.14650700 10729.65851016 0 22.10755735 0 3628.61121724 0 266.93935736 0 423.48099287 0 23044
0.14750000 0.14750500 10762.99728019 0 77.70158954 0 3765.12190993 0 -106.09778449 0 241.16409241 0 23649
0.14850000 0.14849900 10505.94218720 0 225.12915161 0 3545.74593830 0 127.00510183 0 570.12950617 0 23640
0.14950000 0.14949500 10387.44616699 0 279.93162330 0 3596.61219852 0 229.76402678 0 878.78606174 0 24457
0.15050000 0.15050000 10254.20181012 0 66.01829384 0 3676.42151581 0 469.76109615 0 738.96474393 0 24591
0.15150000 0.15149900 10230.94992800 0 81.09747156 0 3467.80784390 0 589.98772073 0 452.44508737 0 25020
0.15250000 0.15250500 9909.24353040 0 315.90117770 0 3132.69286094 0 225.10589973 0 425.76521348 0 25297
0.15350000 0.15350100 9584.75797926 0 419.97438760 0 2953.19940330 0 105.21221995 0 491.42299243 0 25452
0.15450000 0.15450400 9428.17316168 0 104.58674433 0 2784.00320775 0 -101.02344875 0 40.84813144 0 26061
0.15550000 0.15549900 9242.72279329 0 65.83847928 0 2705.34541224 0 -88.49223442 0 81.44691413 0 26128
0.15650000 0.15649500 9375.16994277 0 -43.11574357 0 2731.27679696 0 -211.36846632 0 -242.35215286 0 26331
0.15750000 0.15749700 9413.96736893 0 -46.29527236 0 2749.71221779 0 -20.97264406 0 -187.45778088 0 27345
0.15850000 0.15849900 9363.75437588 0 148.89840970 0 2960.20818491 0 -279.58505953 0 -258.55428577 0 26980
0.15950000 0.15949700 9270.60290718 0 208.72660962 0 2920.00457350 0 239.57964273 0 -44.15222389 0 27777
0.16050000 0.16050000 9157.76484495 0 35.16980038 0 2944.72907482 0 450.68015879 0 395.87436540 0 28224
0.16150000 0.16150500 9302.24761151 0 76.85411380 0 2933.12527841 0 622.34659001 0 559.63515670 0 28075
0.16250000 0.16249700 8969.61282931 0 22.06526107 0 2557.65167148 0 561.34693812 0 572.53441512 0 28590
0.16350000 0.16349900 8979.85472977 0 186.89973571 0 2355.72568377 0 267.33021042 0 747.84031951 0 29163
0.16450000 0.16449100 8743.17271445 0 209.61793177 0 2096.62221068 0 -139.94754231 0 725.38785924 0 28996
0.16550000 0.16550500 8626.19360274 0 195.22723120 0 2140.56826789 0 -161.73123416 0 765.48517634 0 30777
0.16650000 0.16650700 8475.21138151 0 174.62495641 0 2272.45072880 0 -173.77349463 0 956.36652005 0 29211
0.16750000 0.16749900 8262.01376713 0 117.11751577 0 2078.41930868 0 34.14284226 0 533.74031065 0 30922
0.16850000 0.16850800 8367.02369571 0 65.85852019 0 2448.63356132 0 247.26605062 0 412.90913714 0 30867
0.16950000 0.16949900 8301.33159256 0 64.07443649 0 2293.06739762 0 5.19709461 0 128.78110273 0 30852
0.17050000 0.17049200 8177.43227784 0 162.30699505 0 2276.82429711 0 -12.00948639 0 317.50445034 0 31257
0.17150000 0.17149500 8107.55483591 0 116.37677724 0 2171.93616410 0 -25.84347047 0 561.17974602 0 32608
0.17250000 0.17250900 8195.25872079 0 -29.15199185 0 2214.74177185 0 47.64354936 0 454.90425071 0 32361
0.17350000 0.17350400 8130.35275271 0 -116.17636816 0 1941.06711931 0 143.10758382 0 271.58751931 0 32508
0.17450000 0.17449800 8297.20161540 0 14.47783976 0 1914.37174417 0 319.93593287 0 208.07002076 0 32791
0.17550000 0.17549800 8156.32842673 0 77.11763513 0 1726.76227244 0 28.82081861 0 16.60195456 0 33633
0.17650000 0.17650100 8199.59907212 0 197.28779085 0 2003.08321062 0 -222.69656184 0 103.04215501 0 33984
0.17750000 0.17750300 8006.49772729 0 212.41922995 0 2111.80236801 0 -312.04247250 0 213.93613845 0 34069
0.17850000 0.17849800 7788.70509810 0 312.21520077 0 2298.70321095 0 -190.02766747 0 189.98780710 0 34536
