### header ###
fiducial parameters:
Omega_m = 0.31
Omega_nu = 0
Omega_de = 0.69
Omega_k = 0
H_0 = 100
w_de = -1
zeff = 0
beta = 0
fgrowth = 0
b_1 = 2
gamma = 0.55
Lx = 3500 Ly = 3500 Lz = 3500
nx = 700 ny = 700 nz = 700
xoffset = -685.467585 yoffset = -31.7331281 zoffset = 572.489161
bins = 400 dk = 0.001
kx_ny = 0.628318531 ky_ny = 0.628318531 kz_ny = 0.628318531
############################
A(data) = 8.02712986 (not used)
A(ran) = 8.02600972 (used)
Ngal = 476967
weighted Ngal = 0
Nran = 23820508
weighted Nran = 0
SN(data) = 3486.69185
SN(ran) = 69.9094554
SN(data+ran) = 3556.6013
############################
13 columns: k_central k_mean P_0(k) sigma^{lin}_{P_0(k)} P^img_1(k) sigma^{lin}_{P_1(k)} P_2(k) sigma^{lin}_{P_2(k)} P^img_3(k) sigma^{lin}_{P_3(k)} P_4(k) sigma^{lin}_{P_4(k)} N_modes
### header ###
0.00050000 0 0 0 0 0 0 0 0 0 0 0 0
0.00150000 0.00179520 1352.22981313 0 -5787.60383363 0 4571.00999953 0 -8538.75545364 0 7978.93871081 0 3
0.00250000 0.00253879 5629.34709500 0 -5363.71095027 0 2116.84027580 0 -3185.10924663 0 2153.01356099 0 6
0.00350000 0.00331552 10976.77065546 0 -9574.42750021 0 -13719.60695954 0 19814.36815596 0 17704.97955476 0 7
0.00450000 0.00420575 14962.03252744 0 -10563.58471020 0 -14142.68049086 0 8383.11178367 0 11294.32493126 0 24
0.00550000 0.00557378 42322.19004730 0 -24660.28183609 0 -27398.46776374 0 7296.63991084 0 -17889.44448624 0 45
0.00650000 0.00659388 45177.07827854 0 -22464.97199430 0 -22485.78796496 0 5759.62406881 0 13867.42249587 0 40
0.00750000 0.00754703 78299.38435728 0 -13519.64077331 0 -22368.42132188 0 -37106.79288798 0 -35376.40996532 0 57
0.00850000 0.00846663 64741.54406335 0 5945.18516045 0 -18509.60539933 0 -15512.99141041 0 18917.06695266 0 75
0.00950000 0.00948925 79163.57930938 0 183.63561435 0 13233.08900701 0 -27547.94414879 0 -4499.63779375 0 112
0.01050000 0.01054430 73176.88400319 0 6949.99863774 0 23930.94780028 0 8384.29652242 0 11171.75429552 0 105
0.01150000 0.01145670 70515.09711678 0 1402.90784382 0 23843.36571097 0 6440.72705771 0 10707.35884797 0 144
0.01250000 0.01249090 71058.96971187 0 4310.56677515 0 32155.91356857 0 20178.86908899 0 15772.85887391 0 169
0.01350000 0.01339930 75672.69674056 0 8328.55843929 0 42494.80759123 0 4145.84379882 0 28624.61701416 0 180
0.01450000 0.01448870 67491.13448556 0 2030.33220200 0 29119.10704056 0 20719.86287963 0 28259.89463463 0 267
0.01550000 0.01550050 72350.44567872 0 -6359.64442306 0 31409.74959904 0 16222.39526154 0 33916.96683097 0 238
0.01650000 0.01653350 80703.07535216 0 -8121.78277330 0 21227.86114231 0 20781.64645212 0 6351.07444365 0 315
0.01750000 0.01747870 85652.62599260 0 -3058.23147653 0 32654.72180165 0 379.38324482 0 15797.99305124 0 297
0.01850000 0.01844180 88721.32081608 0 -211.50354869 0 27889.63609270 0 886.24548697 0 88.60816166 0 388
0.01950000 0.01947590 80622.13665774 0 4292.61853662 0 24611.23143714 0 2418.95973080 0 8169.34948072 0 399
0.02050000 0.02045430 77321.69807580 0 7720.30027537 0 18070.36627378 0 -31.11234695 0 -4840.36644539 0 462
0.02150000 0.02154770 76336.15044369 0 3703.58192859 0 19211.81223933 0 9418.76168558 0 2568.25895866 0 571
0.02250000 0.02255340 70935.84545989 0 3538.38284229 0 16489.57045942 0 6583.16144417 0 6571.59086474 0 510
0.02350000 0.02348930 70163.55080379 0 5.15825289 0 26274.84824114 0 4600.37380495 0 17072.19619137 0 555
0.02450000 0.02439640 68737.98898339 0 1560.57774924 0 15629.80443725 0 6919.08470685 0 18887.39312214 0 592
0.02550000 0.02547300 70197.43211774 0 1261.45889426 0 33625.10034875 0 3790.58825701 0 26868.76774442 0 837
0.02650000 0.02652900 68556.51357961 0 4311.89545413 0 30610.10630064 0 6700.17377286 0 29204.80683465 0 723
0.02750000 0.02749970 68754.92964036 0 1366.72348631 0 40142.16001376 0 1799.28600000 0 42104.17597163 0 826
0.02850000 0.02848090 68560.05672355 0 -257.90544754 0 35880.64363756 0 9387.52665727 0 37097.60285838 0 831
0.02950000 0.02946900 67169.15127984 0 -84.92705655 0 42596.56225631 0 6774.46907239 0 30346.03135371 0 996
0.03050000 0.03053250 70329.96784581 0 2011.40959888 0 39490.77514468 0 8153.47176693 0 32593.71329190 0 1041
0.03150000 0.03150510 63844.57502979 0 4221.83316405 0 39214.18847071 0 7604.09622640 0 33674.70436394 0 1036
0.03250000 0.03246190 60411.15782678 0 3731.00807716 0 31661.53426542 0 1309.57921793 0 21775.83049758 0 1059
0.03350000 0.03345080 57225.76069970 0 3771.80959412 0 33594.98362525 0 4393.88601941 0 22269.65618450 0 1302
0.03450000 0.03451200 55406.13483900 0 1835.99075678 0 31745.46248754 0 1156.90293100 0 15573.11413418 0 1339
0.03550000 0.03553350 54983.94709367 0 -772.49063625 0 25917.43359600 0 5190.62836871 0 14340.76438186 0 1365
0.03650000 0.03647120 53029.12814694 0 949.07207246 0 22306.74847264 0 2004.00221358 0 4790.69599626 0 1308
0.03750000 0.03744890 55266.95571603 0 2640.79375855 0 20097.81967132 0 3691.74561336 0 4737.80350060 0 1579
0.03850000 0.03847530 50881.31857861 0 3414.95963754 0 17054.92336466 0 3504.01434606 0 3685.06900149 0 1662
0.03950000 0.03950240 46839.69857331 0 1420.20281519 0 15933.40758378 0 3568.76530160 0 4965.48371585 0 1683
0.04050000 0.04050350 46552.59319076 0 -22.30043725 0 16095.72786562 0 5770.97320175 0 2831.74707237 0 1822
0.04150000 0.04152450 45189.47928234 0 2309.67588484 0 15590.94057714 0 2876.44604766 0 4581.34047859 0 1887
0.04250000 0.04250150 44122.21789307 0 1398.21317810 0 14468.87118001 0 780.76166289 0 5291.14293341 0 1920
0.04350000 0.04349210 44678.04859897 0 -101.45039760 0 15379.79134284 0 1302.16076030 0 5355.09668156 0 2005
0.04450000 0.04448520 43301.42645427 0 1407.76859442 0 15308.15340127 0 -2880.93033921 0 2040.97270615 0 2151
0.04550000 0.04548030 44518.27495183 0 -189.37993647 0 13715.17802961 0 -92.28096252 0 -70.64375753 0 2274
0.04650000 0.04648670 42659.34233803 0 744.69799372 0 14562.54304798 0 -1654.57071462 0 -678.03706215 0 2311
0.04750000 0.04749250 42937.81130722 0 -210.50703945 0 10044.55841201 0 1939.92666985 0 -4936.48529715 0 2568
0.04850000 0.04851840 42386.07736151 0 -1136.27518986 0 10655.64001875 0 4708.93794980 0 -6606.30260305 0 2493
0.04950000 0.04949480 41912.51402901 0 1435.95873341 0 6925.15234085 0 720.77512872 0 -8655.50204653 0 2644
0.05050000 0.05050630 41415.92026090 0 2835.74418163 0 8718.22676663 0 312.91940063 0 -5854.79070063 0 2829
0.05150000 0.05149060 37654.76224325 0 1682.04115250 0 8698.38516055 0 -285.35374076 0 -4630.68983030 0 2784
0.05250000 0.05249300 36855.89400759 0 1399.11003641 0 9903.68522334 0 -599.12792487 0 -1238.72741141 0 3055
0.05350000 0.05348950 36561.92378365 0 1152.96118337 0 12509.84474985 0 -1622.71563612 0 -1494.88564609 0 3009
0.05450000 0.05448610 36122.24176510 0 871.47611290 0 13640.55056033 0 -1797.71372988 0 -2614.06516643 0 3336
0.05550000 0.05550870 35664.95475009 0 1251.06198126 0 13012.30685012 0 -1833.46626672 0 -2302.83318811 0 3349
0.05650000 0.05647670 35350.61144849 0 541.68248924 0 13014.18914534 0 -1218.22146585 0 -3867.95059052 0 3324
0.05750000 0.05747970 34179.71309892 0 936.46623065 0 15270.39677364 0 -1348.01125737 0 -5975.10258211 0 3639
0.05850000 0.05849280 32315.68721570 0 2438.80133688 0 13836.97360261 0 36.03997439 0 -5292.42732309 0 3846
0.05950000 0.05951020 30150.16192767 0 1496.22539739 0 14868.02848973 0 2010.62346382 0 -5688.36258628 0 3787
0.06050000 0.06049470 30108.41926310 0 -385.42430524 0 12412.85118444 0 3905.77365210 0 -3301.24686165 0 3930
0.06150000 0.06148310 30789.58868595 0 -1166.17046687 0 11936.63049399 0 4099.62791503 0 -2034.79434890 0 4083
0.06250000 0.06249100 31447.39550342 0 -1023.03852394 0 11154.81363855 0 3440.50349090 0 1163.94492959 0 4303
0.06350000 0.06350600 32197.54550989 0 241.86164887 0 10110.51625095 0 736.25534605 0 1586.69736349 0 4470
0.06450000 0.06451750 32170.86120707 0 629.42069834 0 11292.11046630 0 233.59837286 0 3744.13985440 0 4479
0.06550000 0.06550280 31465.11122313 0 1025.81878471 0 11852.70227186 0 -633.52299468 0 2764.83701349 0 4636
0.06650000 0.06648880 30615.75318629 0 862.79651747 0 11907.62100296 0 370.10574385 0 4147.06175455 0 4653
0.06750000 0.06749660 29934.58376345 0 371.33255744 0 11131.22958668 0 1004.16242459 0 2507.18401496 0 5220
0.06850000 0.06852730 30215.04575111 0 67.95971527 0 11305.84014907 0 1526.02102348 0 1030.42930076 0 5029
0.06950000 0.06949320 29911.33188133 0 132.60216203 0 11823.69278084 0 705.65808364 0 1631.87244875 0 5040
0.07050000 0.07048030 29192.73800060 0 1504.47427938 0 10476.32371831 0 -546.02284057 0 -602.84822601 0 5475
0.07150000 0.07148790 28632.81053452 0 870.35337916 0 10810.66363853 0 -146.10375491 0 1993.93747032 0 5509
0.07250000 0.07249820 27761.30784805 0 290.72381830 0 10945.48026552 0 -816.96595058 0 1508.75926909 0 5916
0.07350000 0.07351270 27697.97415008 0 518.51807849 0 12513.72006354 0 1403.04071172 0 3117.97774126 0 5721
0.07450000 0.07449140 27900.92986401 0 105.46356173 0 11645.09618151 0 1936.53853846 0 2049.16622651 0 6028
0.07550000 0.07549160 27990.17280205 0 -425.66888426 0 10451.46634909 0 1610.44750022 0 2762.77756107 0 6183
0.07650000 0.07648840 27604.74517511 0 34.99629705 0 10254.96580053 0 1239.92322249 0 2346.62423276 0 6330
0.07750000 0.07749960 27419.50518090 0 484.46625074 0 10290.04292556 0 625.89084119 0 1442.13709065 0 6583
0.07850000 0.07848650 26911.39619497 0 1101.82475842 0 8908.52681329 0 -857.28692864 0 293.71556046 0 6549
0.07950000 0.07947320 25826.19763949 0 1242.25948303 0 9048.39242040 0 -891.96877167 0 -1014.88597118 0 6828
0.08050000 0.08048110 25031.97978025 0 455.69924363 0 9035.14991991 0 -23.18976638 0 -1034.65449991 0 7147
0.08150000 0.08149960 24776.43052344 0 259.35260039 0 8592.85483271 0 894.90293775 0 -2437.63874277 0 7386
0.08250000 0.08250610 24458.98697089 0 478.30450198 0 8764.46479507 0 553.16891901 0 -2049.00014164 0 7227
0.08350000 0.08350160 23679.27385716 0 669.98748201 0 7937.46178204 0 394.31870377 0 -1687.43337469 0 7798
0.08450000 0.08449610 23708.83696442 0 957.62544338 0 9120.24073614 0 326.39552717 0 -907.76455026 0 7371
0.08550000 0.08548940 22527.19845978 0 595.11863605 0 8525.52402549 0 167.52538174 0 647.67453303 0 8256
0.08650000 0.08650700 22097.26008707 0 425.09201613 0 9392.95209643 0 430.59385434 0 1091.42673819 0 8037
0.08750000 0.08749060 22476.04431911 0 -51.00521789 0 9269.27422820 0 1627.59853137 0 1502.04944025 0 8155
0.08850000 0.08849210 22043.44858845 0 255.30898737 0 8600.84905123 0 646.25948992 0 703.25871086 0 8718
0.08950000 0.08949900 21664.77507965 0 383.00610950 0 7840.32427641 0 1151.04567117 0 1115.37064061 0 8571
0.09050000 0.09049190 21492.04681248 0 430.45434304 0 7933.09928606 0 169.58926308 0 -59.68514549 0 8932
0.09150000 0.09150830 20629.06981612 0 679.48642947 0 7662.89027119 0 -103.48438367 0 233.30606349 0 9285
0.09250000 0.09250820 20351.04373992 0 484.44632056 0 7458.31799784 0 125.17595377 0 -1147.32537003 0 9204
0.09350000 0.09350330 19817.24696041 0 137.77958111 0 7635.03230195 0 840.86667093 0 -148.68139213 0 9349
0.09450000 0.09448040 19948.01111652 0 36.56236668 0 7295.69876323 0 -20.10379873 0 -401.55225357 0 9564
0.09550000 0.09549270 19571.33062619 0 661.30567212 0 7474.43930278 0 846.15038434 0 643.01972768 0 10155
0.09650000 0.09649430 19159.66158943 0 562.89927806 0 6551.36172730 0 299.69572310 0 1503.45562550 0 9913
0.09750000 0.09749140 18657.86382865 0 317.58527831 0 7688.83272824 0 611.22886866 0 1939.51699383 0 10476
0.09850000 0.09850240 18450.25773830 0 139.94089892 0 6739.43623666 0 701.74844575 0 451.19059296 0 10575
0.09950000 0.09950330 18439.29613673 0 348.49145857 0 7397.39806669 0 -379.66226740 0 490.05556031 0 10882
0.10050000 0.10051200 18134.58575772 0 646.48425812 0 6921.69777550 0 -687.76299227 0 694.14729476 0 10875
0.10150000 0.10150300 17561.92511810 0 195.61033364 0 7019.38889738 0 -149.37894859 0 433.02644410 0 11118
0.10250000 0.10250800 17391.52203914 0 93.86142617 0 7116.28281187 0 584.56338880 0 -355.24336225 0 11575
0.10350000 0.10349800 17204.06757996 0 397.19640099 0 7141.17339806 0 30.25147370 0 -1297.27786505 0 11364
0.10450000 0.10450100 16879.64846278 0 647.75868270 0 6748.20551792 0 409.54868655 0 -747.42953626 0 12093
0.10550000 0.10551000 16157.95433110 0 410.87958000 0 6732.59353993 0 463.45208547 0 386.77291440 0 12067
0.10650000 0.10649700 16213.09450870 0 250.27440127 0 6643.99279673 0 234.54505663 0 -367.74180250 0 12054
0.10750000 0.10749900 15564.03482783 0 234.67792453 0 7014.01881984 0 558.43713116 0 827.55441481 0 12807
0.10850000 0.10850100 15513.65574990 0 398.79856639 0 6249.02082580 0 362.39719131 0 524.58681972 0 12736
0.10950000 0.10950300 15220.12841896 0 17.41554898 0 6536.53588436 0 1551.22163477 0 1751.51999074 0 12933
0.11050000 0.11050200 15479.88515920 0 -142.69680057 0 5162.10605997 0 955.88708838 0 1185.66883088 0 13428
0.11150000 0.11150900 15414.66916602 0 -119.31537225 0 4873.24017778 0 873.65736089 0 1251.56023588 0 13453
0.11250000 0.11250000 15401.71454599 0 0.13349016 0 4698.71819399 0 652.99478511 0 1280.52543760 0 13668
0.11350000 0.11349100 15154.69097928 0 396.13235057 0 4223.22827698 0 292.38245256 0 1544.04676829 0 13791
0.11450000 0.11448600 14971.77617328 0 82.87347246 0 3934.88279405 0 75.82206240 0 1538.37773798 0 14205
0.11550000 0.11549300 14838.24393596 0 -99.65856327 0 3540.78553678 0 321.08745465 0 992.49330147 0 14776
0.11650000 0.11649800 14831.48981782 0 111.82937344 0 3853.43477268 0 -291.18664148 0 315.17815489 0 14553
0.11750000 0.11747300 15025.36622540 0 331.38803843 0 4092.23160205 0 -455.27849529 0 261.18839184 0 14568
0.11850000 0.11849100 14351.50453694 0 368.53458096 0 3903.51489784 0 -231.29975823 0 243.26119073 0 16015
0.11950000 0.11950300 14373.53846333 0 219.07591163 0 3834.33501237 0 -310.21664614 0 733.55148433 0 15270
0.12050000 0.12050700 14375.86365154 0 88.60550430 0 4551.50056320 0 271.33949924 0 -4.46193653 0 15999
0.12150000 0.12150000 14130.94382655 0 163.79068658 0 3953.83861414 0 222.76742472 0 77.83733624 0 15670
0.12250000 0.12250700 13966.74124949 0 302.61881685 0 4293.28287611 0 377.66260554 0 183.06096069 0 16887
0.12350000 0.12352200 13810.28929980 0 208.79747250 0 4373.73438824 0 -46.99880788 0 259.76116918 0 16407
0.12450000 0.12449800 13746.51270885 0 181.72896002 0 4662.76635530 0 269.59671531 0 313.73653820 0 16306
0.12550000 0.12549900 13543.77844142 0 135.31377438 0 4240.40145277 0 105.41606145 0 374.29661880 0 17523
0.12650000 0.12650100 13309.82021800 0 9.37990890 0 4209.34358166 0 -69.64237647 0 67.82662593 0 17154
0.12750000 0.12750600 13505.68964404 0 319.20183773 0 4383.38945548 0 -361.19695130 0 -42.79176734 0 18007
0.12850000 0.12850300 13226.88850511 0 240.82417204 0 4334.41656281 0 -106.46981461 0 63.10007191 0 17496
0.12950000 0.12949900 12783.33117287 0 293.31363507 0 4476.97274485 0 -245.94290780 0 452.57241910 0 18405
0.13050000 0.13049000 12881.21052427 0 188.18855432 0 4481.70062754 0 278.33942299 0 237.77928271 0 18100
0.13150000 0.13148800 12797.17157890 0 -30.73345200 0 4977.05429528 0 884.21260813 0 70.99430733 0 19059
0.13250000 0.13249300 12662.31066260 0 104.15481293 0 4721.94793146 0 329.48802749 0 555.36013209 0 18957
0.13350000 0.13349100 12607.83482450 0 336.10927773 0 4543.17417494 0 289.14933371 0 479.91220354 0 19468
0.13450000 0.13450700 12448.39334711 0 323.22773504 0 4493.74731695 0 -104.28834517 0 722.89990785 0 19953
0.13550000 0.13551000 12052.00411860 0 256.17816486 0 4476.43020093 0 -103.20059998 0 1222.16321348 0 19956
0.13650000 0.13649900 11999.63202221 0 90.18009961 0 4402.10168442 0 331.57516072 0 675.90453239 0 19723
0.13750000 0.13749600 11873.29679603 0 -34.02060379 0 4146.06524532 0 320.96676631 0 953.47885774 0 20946
0.13850000 0.13851100 11878.50078869 0 -48.89527568 0 3799.46826152 0 794.35515607 0 144.21260183 0 20955
0.13950000 0.13949800 11713.19097915 0 171.66200229 0 3263.75596982 0 381.06734542 0 -46.22285936 0 20506
0.14050000 0.14048300 11622.50863888 0 275.32332171 0 3045.47615834 0 267.26709817 0 16.95372232 0 21447
0.14150000 0.14148400 11324.33093152 0 269.10288962 0 2965.73327500 0 38.34755761 0 299.12992730 0 21771
0.14250000 0.14249400 11124.14329880 0 222.94458192 0 2831.70278307 0 84.75288888 0 423.03920711 0 22470
0.14350000 0.14350900 10930.48833772 0 19.57598100 0 2796.17169273 0 227.63592595 0 617.44930074 0 22519
0.14450000 0.14449900 11039.10784419 0 118.73186073 0 2682.22639802 0 477.94354419 0 638.04493214 0 22218
0.14550000 0.14550500 10855.69478357 0 170.30342804 0 2670.00255142 0 203.57908581 0 506.19900990 0 23559
0.14650000 0.14650700 10696.58547593 0 221.51514479 0 2500.66241564 0 211.06287016 0 433.90226499 0 23044
0.14750000 0.14750500 10542.11547238 0 230.97533911 0 2563.07711064 0 -320.15959383 0 312.42889664 0 23649
0.14850000 0.14849900 10314.97780105 0 133.81901053 0 2682.15996407 0 -170.99655557 0 320.45743937 0 23640
0.14950000 0.14949500 10134.62070208 0 118.59234944 0 2768.04798769 0 -217.56564652 0 322.83134581 0 24457
0.15050000 0.15050000 10303.44043859 0 89.70044650 0 2830.34088712 0 53.53967304 0 204.69185446 0 24591
0.15150000 0.15149900 9968.97872279 0 24.27629361 0 2628.68063519 0 122.54738386 0 -19.37955796 0 25020
0.15250000 0.15250500 10239.47561811 0 97.74105806 0 2709.58611264 0 136.98348096 0 89.78061013 0 25297
0.15350000 0.15350100 10012.30472981 0 -3.69645135 0 2469.12843456 0 248.21494885 0 339.53062610 0 25452
0.15450000 0.15450400 10018.22842359 0 31.39768076 0 2287.32086104 0 470.93254812 0 248.27584664 0 26061
0.15550000 0.15549900 10006.59141020 0 -117.77410463 0 2029.59035623 0 509.27822343 0 427.44045623 0 26128
0.15650000 0.15649500 9874.89717881 0 99.18998249 0 1690.50040866 0 505.72843609 0 5.07000646 0 26331
0.15750000 0.15749700 9826.57755330 0 269.46384741 0 1882.53881032 0 166.66949103 0 48.64360173 0 27345
0.15850000 0.15849900 9585.12336598 0 328.49373272 0 1645.51355292 0 -232.28076621 0 -204.14377438 0 26980
0.15950000 0.15949700 9329.31944570 0 413.64433950 0 1887.12275279 0 -632.96052058 0 -203.51818803 0 27777
0.16050000 0.16050000 9008.98601637 0 382.97399976 0 2273.56903361 0 -885.95649929 0 -216.98434947 0 28224
0.16150000 0.16150500 8931.41330869 0 154.00607314 0 2568.48040516 0 -256.22023970 0 -63.50487610 0 28075
0.16250000 0.16249700 8827.69884211 0 14.07115327 0 2739.65854685 0 -119.83244981 0 -94.08752304 0 28590
0.16350000 0.16349900 8837.60857282 0 82.54163489 0 2788.18854653 0 373.52487776 0 -232.78234252 0 29163
0.16450000 0.16449100 8802.25463968 0 48.03938497 0 2850.17142087 0 238.03505342 0 -88.86459670 0 28996
0.16550000 0.16550500 8780.53073838 0 45.27385040 0 2755.99022596 0 258.91856526 0 82.01581018 0 30777
0.16650000 0.16650700 8700.86536131 0 123.99785841 0 2758.27112487 0 426.61667526 0 496.42325431 0 29211
0.16750000 0.16749900 8602.62062320 0 109.22660204 0 2573.40758970 0 175.99238853 0 531.06191528 0 30922
0.16850000 0.16850800 8527.35095908 0 69.79772119 0 2317.74760964 0 270.16915450 0 356.02506838 0 30867
0.16950000 0.16949900 8437.58762178 0 20.89967743 0 2264.95476490 0 229.34660013 0 403.06362591 0 30852
0.17050000 0.17049200 8421.18950872 0 66.01419708 0 1982.54404808 0 88.50009577 0 411.76536598 0 31257
0.17150000 0.17149500 8262.43451547 0 129.13209543 0 1843.48672068 0 176.59140130 0 215.22717152 0 32608
0.17250000 0.17250900 8208.46800430 0 123.51178335 0 1626.91204723 0 174.29167944 0 38.57919064 0 32361
0.17350000 0.17350400 8120.04441830 0 53.42153134 0 1706.41133943 0 -3.82301910 0 191.93764350 0 32508
0.17450000 0.17449800 8179.31457306 0 73.25239726 0 1629.49189891 0 172.29201757 0 161.69912442 0 32791
0.17550000 0.17549800 8102.29548162 0 85.92400867 0 1697.33203307 0 -163.14074111 0 244.01521605 0 33633
0.17650000 0.17650100 8021.87718646 0 141.99702964 0 1822.34965260 0 19.47677297 0 541.52083330 0 33984
0.17750000 0.17750300 7957.04872465 0 131.63111914 0 1940.29205657 0 -356.76912861 0 476.29266056 0 34069
0.17850000 0.17849800 7833.74731547 0 197.06966605 0 2147.12308418 0 190.19928850 0 702.42828649 0 34536
