### header ###
fiducial parameters:
Omega_m = 0.31
Omega_nu = 0
Omega_de = 0.69
Omega_k = 0
H_0 = 100
w_de = -1
zeff = 0
beta = 0
fgrowth = 0
b_1 = 2
gamma = 0.55
Lx = 3500 Ly = 3500 Lz = 3500
nx = 700 ny = 700 nz = 700
xoffset = -685.467585 yoffset = -31.7331281 zoffset = 572.489161
bins = 400 dk = 0.001
kx_ny = 0.628318531 ky_ny = 0.628318531 kz_ny = 0.628318531
############################
A(data) = 8.06416662 (not used)
A(ran) = 8.06215546 (used)
Ngal = 478907
weighted Ngal = 0
Nran = 23820508
weighted Nran = 0
SN(data) = 3490.17965
SN(ran) = 70.2242979
SN(data+ran) = 3560.40395
############################
13 columns: k_central k_mean P_0(k) sigma^{lin}_{P_0(k)} P^img_1(k) sigma^{lin}_{P_1(k)} P_2(k) sigma^{lin}_{P_2(k)} P^img_3(k) sigma^{lin}_{P_3(k)} P_4(k) sigma^{lin}_{P_4(k)} N_modes
### header ###
0.00050000 0 0 0 0 0 0 0 0 0 0 0 0
0.00150000 0.00179520 22519.66927890 0 -29441.20096953 0 -11934.19458253 0 6461.65375161 0 53345.35374376 0 3
0.00250000 0.00253879 30875.06703355 0 -21237.38334165 0 -17008.75177016 0 -14800.48730833 0 -10228.24828075 0 6
0.00350000 0.00331552 40273.03489312 0 -8019.59628755 0 -30269.74303571 0 7110.44769669 0 6083.19061699 0 7
0.00450000 0.00420575 61776.48620016 0 -22734.58310363 0 -34745.61962040 0 -20500.18795523 0 4601.04921676 0 24
0.00550000 0.00557378 76399.37341840 0 -18216.29951489 0 -14782.88231187 0 -16848.09233704 0 15459.51208154 0 45
0.00650000 0.00659388 93488.17809701 0 17134.42265686 0 18816.64096655 0 -34318.22788240 0 -6954.79295439 0 40
0.00750000 0.00754703 85636.34967511 0 6073.17016303 0 37090.18440075 0 -32768.43457754 0 16916.74075092 0 57
0.00850000 0.00846663 70500.92454101 0 8024.65633999 0 40963.39434556 0 22404.84927053 0 21822.11281533 0 75
0.00950000 0.00948925 82300.70110025 0 3225.88861894 0 69917.52374632 0 -11544.44874891 0 22928.01661821 0 112
0.01050000 0.01054430 87442.91019252 0 -879.72388765 0 71387.81775899 0 29348.63633405 0 -18526.32460981 0 105
0.01150000 0.01145670 79934.43456325 0 5454.83618353 0 71140.24057604 0 12898.81552073 0 30655.72427889 0 144
0.01250000 0.01249090 82403.67372106 0 2890.92864852 0 58210.64399232 0 26242.29560618 0 -7060.67759663 0 169
0.01350000 0.01339930 74324.97336363 0 -3266.55726800 0 54723.30456744 0 8597.67129400 0 8750.41401488 0 180
0.01450000 0.01448870 82996.70743835 0 722.77589781 0 29697.85745883 0 22866.34376897 0 -37797.37378692 0 267
0.01550000 0.01550050 78772.83696653 0 -2361.18433990 0 30972.83566170 0 -6779.05301487 0 -9416.61365457 0 238
0.01650000 0.01653350 77293.46364751 0 8517.06476932 0 19268.50254240 0 -17663.79050643 0 -45667.69299126 0 315
0.01750000 0.01747870 76793.99107494 0 1378.34942737 0 34801.64558398 0 -18788.73870801 0 -25567.65885498 0 297
0.01850000 0.01844180 72266.96034959 0 41.75163315 0 40833.29452894 0 -1917.38341652 0 -40270.04536542 0 388
0.01950000 0.01947590 74252.22818957 0 1019.21082125 0 38762.32689486 0 -589.97664840 0 -27840.25352400 0 399
0.02050000 0.02045430 71990.15222912 0 5567.35314834 0 41650.09993081 0 8218.93135126 0 -32644.53526281 0 462
0.02150000 0.02154770 65478.18583353 0 7468.78134479 0 37106.46071823 0 8959.44843513 0 -10868.53868036 0 571
0.02250000 0.02255340 62599.60282718 0 525.12272024 0 35033.16789594 0 16459.45373591 0 -5908.40289740 0 510
0.02350000 0.02348930 63242.90489914 0 -4331.73706020 0 23131.41522513 0 17772.52073615 0 -8649.45655718 0 555
0.02450000 0.02439640 64784.83685339 0 -3474.16335835 0 23636.31323686 0 12394.58184849 0 -7892.50814328 0 592
0.02550000 0.02547300 68309.93290590 0 -1740.32587035 0 10098.85709292 0 2829.06756976 0 -1452.68901621 0 837
0.02650000 0.02652900 66588.85073609 0 1395.31222900 0 10988.56268139 0 3073.37841689 0 3852.21681695 0 723
0.02750000 0.02749970 64661.82332465 0 2541.35320935 0 11458.97040131 0 -2853.85850503 0 3678.34810033 0 826
0.02850000 0.02848090 62296.77474339 0 3856.22499854 0 15173.07103848 0 -4033.70329306 0 1705.17123905 0 831
0.02950000 0.02946900 62368.52340822 0 4964.33219406 0 16625.76005469 0 -3545.24768368 0 -6349.64611375 0 996
0.03050000 0.03053250 58086.08033811 0 2883.75378204 0 15708.30722021 0 -5515.09177519 0 -5077.03738839 0 1041
0.03150000 0.03150510 59256.42507144 0 -1281.71017636 0 20873.87891786 0 -4608.58946997 0 -1453.84053799 0 1036
0.03250000 0.03246190 59397.70793612 0 -3292.94261804 0 23700.64344406 0 -931.25338013 0 -12616.69268435 0 1059
0.03350000 0.03345080 60739.89515064 0 253.95262758 0 15902.51579753 0 3389.85867718 0 -2180.22933539 0 1302
0.03450000 0.03451200 60512.02670587 0 3041.72264023 0 18196.03716047 0 303.42045317 0 -11284.91345516 0 1339
0.03550000 0.03553350 58876.42288366 0 1005.09914327 0 18876.09935083 0 1787.04000876 0 -4692.66163231 0 1365
0.03650000 0.03647120 57829.64529531 0 -295.26014978 0 19094.33487300 0 1681.37681301 0 -11149.05602964 0 1308
0.03750000 0.03744890 56646.34594194 0 2321.92187609 0 19750.48084176 0 -79.10456382 0 -9927.74538517 0 1579
0.03850000 0.03847530 52999.34359317 0 3667.46400503 0 17890.55171872 0 -3932.70154606 0 -9267.64659646 0 1662
0.03950000 0.03950240 50637.28453961 0 1333.13005281 0 23967.48647219 0 -1547.13594691 0 -7684.64738946 0 1683
0.04050000 0.04050350 47653.73589398 0 2506.88506219 0 20752.08334485 0 -912.08497140 0 -9662.82894156 0 1822
0.04150000 0.04152450 46721.55686750 0 4858.43647950 0 20996.78172334 0 878.60558285 0 -15332.73396237 0 1887
0.04250000 0.04250150 44323.29131178 0 1036.26330871 0 18301.99930898 0 777.09118721 0 -9483.46835182 0 1920
0.04350000 0.04349210 41637.14531077 0 1630.78736091 0 19663.12019894 0 -1300.43347763 0 -7263.53365963 0 2005
0.04450000 0.04448520 41776.43515699 0 1369.30333800 0 19759.22797836 0 5167.52042681 0 -12082.89590484 0 2151
0.04550000 0.04548030 39490.00008194 0 850.32354356 0 17618.72614442 0 2492.63498015 0 -8245.88138987 0 2274
0.04650000 0.04648670 38593.36321813 0 1087.47059653 0 13802.87084217 0 3876.75308875 0 -9018.84038546 0 2311
0.04750000 0.04749250 39558.53777257 0 -203.65548485 0 14381.51053720 0 1138.98790944 0 -6651.45554366 0 2568
0.04850000 0.04851840 38214.46826283 0 1067.32560875 0 15928.64648410 0 1891.72883992 0 -6785.05421492 0 2493
0.04950000 0.04949480 38040.18987019 0 2033.70926106 0 14193.17029203 0 -1554.97515288 0 -5817.43267669 0 2644
0.05050000 0.05050630 37291.03637296 0 -68.86676012 0 15062.56923679 0 760.57238582 0 -3986.18087494 0 2829
0.05150000 0.05149060 37584.01008766 0 269.87241620 0 15580.64331505 0 1101.30214469 0 -5197.28283592 0 2784
0.05250000 0.05249300 37396.33418199 0 40.32142095 0 14987.72032102 0 1497.52085940 0 -3642.82808231 0 3055
0.05350000 0.05348950 36801.63961598 0 686.15971964 0 15166.09547384 0 2441.71335831 0 -5112.47990014 0 3009
0.05450000 0.05448610 36774.51242017 0 1032.80320720 0 15167.97776906 0 1348.97454963 0 -4973.04611370 0 3336
0.05550000 0.05550870 35584.90184165 0 170.36543305 0 15161.77726717 0 1483.60294710 0 -1370.37735350 0 3349
0.05650000 0.05647670 34868.30097939 0 838.77178708 0 12399.01077842 0 1477.08134778 0 -4056.04724454 0 3324
0.05750000 0.05747970 35719.65203470 0 -331.76228301 0 15667.67178813 0 -273.86620376 0 494.99935334 0 3639
0.05850000 0.05849280 35125.51108493 0 -342.09497653 0 12078.02408192 0 168.01699296 0 -2701.28186903 0 3846
0.05950000 0.05951020 34711.84902970 0 1391.59192786 0 15486.41783085 0 1206.47372921 0 -1145.24377297 0 3787
0.06050000 0.06049470 34978.13844159 0 1680.90070304 0 13879.71277641 0 -1820.17947694 0 -2907.59249738 0 3930
0.06150000 0.06148310 33555.12325590 0 943.52040879 0 15451.87217741 0 -530.34775033 0 -85.86122859 0 4083
0.06250000 0.06249100 32647.08189752 0 11.26287953 0 13648.96552719 0 71.21265358 0 2098.53772288 0 4303
0.06350000 0.06350600 34204.07221352 0 -1143.49434565 0 14127.06851286 0 4321.62802764 0 -2181.19262765 0 4470
0.06450000 0.06451750 33810.34034297 0 -9.77036336 0 13527.83429368 0 2283.63377687 0 -457.06778298 0 4479
0.06550000 0.06550280 33169.25273597 0 1800.60360666 0 12460.35145791 0 2174.10633977 0 -1772.56848022 0 4636
0.06650000 0.06648880 31609.05144578 0 958.50790767 0 11474.58237931 0 1448.81370252 0 2095.10530218 0 4653
0.06750000 0.06749660 30882.26404468 0 569.20385981 0 11412.24519058 0 1450.33061102 0 334.62447897 0 5220
0.06850000 0.06852730 30596.48734111 0 912.55886690 0 10528.95047817 0 207.98587109 0 -77.84099011 0 5029
0.06950000 0.06949320 29995.81371970 0 664.26198285 0 10440.72619402 0 -92.06527363 0 -38.21502188 0 5040
0.07050000 0.07048030 29491.13715446 0 294.05658807 0 10474.21997659 0 -1205.83153437 0 -501.53313222 0 5475
0.07150000 0.07148790 28536.59203185 0 203.16719533 0 9794.56746225 0 1570.54284158 0 -1329.73084910 0 5509
0.07250000 0.07249820 28893.89595375 0 415.08263450 0 9865.68500456 0 2199.66126545 0 -1877.78878297 0 5916
0.07350000 0.07351270 28075.98331939 0 146.45474761 0 7241.02362327 0 2619.50167792 0 -2635.94408028 0 5721
0.07450000 0.07449140 27961.49548077 0 318.53639101 0 7574.04593684 0 1959.40288921 0 -1901.56106435 0 6028
0.07550000 0.07549160 27200.38387273 0 1111.08565090 0 7527.23214751 0 -950.59340989 0 -1385.08140086 0 6183
0.07650000 0.07648840 26670.57313016 0 1815.28550937 0 9455.62145490 0 -949.24812242 0 2518.38920768 0 6330
0.07750000 0.07749960 25270.25621035 0 898.07072988 0 9939.52633878 0 -1065.80205686 0 3502.20955711 0 6583
0.07850000 0.07848650 25436.11963613 0 611.35952209 0 11448.89458573 0 658.83432922 0 6067.19110763 0 6549
0.07950000 0.07947320 24951.04108583 0 -174.25956969 0 11032.87412532 0 1392.52200314 0 5211.65471354 0 6828
0.08050000 0.08048110 25257.41231356 0 -130.18618075 0 11616.08669049 0 924.24238405 0 5833.45433070 0 7147
0.08150000 0.08149960 25128.41972942 0 198.68179655 0 11907.06738672 0 368.23673542 0 4791.85859036 0 7386
0.08250000 0.08250610 24685.52673668 0 776.27737134 0 11376.26013492 0 435.06928803 0 4933.88330081 0 7227
0.08350000 0.08350160 23751.35469173 0 793.22135001 0 10985.20776697 0 636.27778910 0 4158.08979007 0 7798
0.08450000 0.08449610 22853.27842569 0 1088.39735012 0 9917.48134006 0 -643.45708451 0 2258.36673164 0 7371
0.08550000 0.08548940 22572.70571478 0 702.67409211 0 10029.74364140 0 141.76561805 0 771.60485026 0 8256
0.08650000 0.08650700 21431.81336547 0 567.76999375 0 9530.12712861 0 419.16057173 0 -240.90942894 0 8037
0.08750000 0.08749060 21359.84325415 0 155.83632843 0 8037.51130910 0 973.86743666 0 -0.95634438 0 8155
0.08850000 0.08849210 21043.72838057 0 -116.46535584 0 7084.12878059 0 1639.12482150 0 -573.81216140 0 8718
0.08950000 0.08949900 21224.20727512 0 -157.91792549 0 6264.97604586 0 1509.61183810 0 -1099.37223848 0 8571
0.09050000 0.09049190 20674.57707112 0 248.38656989 0 5598.45530875 0 1555.03051451 0 -941.98357011 0 8932
0.09150000 0.09150830 20472.72858968 0 827.34071894 0 5060.92715578 0 891.46276643 0 -1865.97461239 0 9285
0.09250000 0.09250820 19436.58043315 0 755.37725101 0 5121.30454302 0 -165.78924121 0 -493.08937731 0 9204
0.09350000 0.09350330 18717.32221293 0 1138.65573970 0 5396.41859779 0 -530.51604966 0 -700.75193652 0 9349
0.09450000 0.09448040 18336.76640891 0 457.92367369 0 6101.61496549 0 -935.18073374 0 818.12743745 0 9564
0.09550000 0.09549270 18077.23111516 0 155.78207404 0 6820.02061669 0 -508.67256726 0 453.05185077 0 10155
0.09650000 0.09649430 17934.50884825 0 204.62763497 0 6641.59010224 0 209.37434062 0 1273.61630691 0 9913
0.09750000 0.09749140 17796.21551127 0 307.74530324 0 7529.44661248 0 830.86836162 0 929.11642144 0 10476
0.09850000 0.09850240 17864.97464839 0 104.04110016 0 6701.34743929 0 898.94987247 0 994.50957182 0 10575
0.09950000 0.09950330 17658.80796027 0 -45.28403694 0 6463.82392728 0 579.84325673 0 843.98131591 0 10882
0.10050000 0.10051200 17649.28576092 0 132.13823162 0 6813.32186018 0 -82.50033512 0 1408.14505346 0 10875
0.10150000 0.10150300 17550.07773055 0 229.69980729 0 6422.32485386 0 727.21257837 0 1572.58014934 0 11118
0.10250000 0.10250800 17241.15986811 0 -75.49764329 0 6442.69793153 0 97.02113550 0 1662.95246451 0 11575
0.10350000 0.10349800 17421.19586966 0 135.66587431 0 6496.89696151 0 391.81635836 0 1467.58129309 0 11364
0.10450000 0.10450100 17212.15037708 0 261.06216734 0 6205.65052948 0 389.18889568 0 1706.82101544 0 12093
0.10550000 0.10551000 16935.01008687 0 489.87397418 0 6189.24134410 0 712.31365809 0 1940.21455030 0 12067
0.10650000 0.10649700 16746.33767196 0 299.43995240 0 5661.86651299 0 683.79467106 0 1816.91314112 0 12054
0.10750000 0.10749900 16251.84764556 0 439.14722526 0 5097.65405721 0 282.20477158 0 1402.73068662 0 12807
0.10850000 0.10850100 15802.86487416 0 607.33694649 0 5503.01186882 0 9.15842918 0 1866.56144560 0 12736
0.10950000 0.10950300 15498.48666490 0 29.58126588 0 4593.46467426 0 622.99764271 0 1750.97744682 0 12933
0.11050000 0.11050200 15199.86606454 0 22.52431966 0 4724.62743407 0 479.33312096 0 1372.10463618 0 13428
0.11150000 0.11150900 15353.43920978 0 210.44281997 0 4295.70771524 0 200.58070025 0 755.73820880 0 13453
0.11250000 0.11250000 15124.24208603 0 249.65878001 0 4456.93183692 0 99.51052629 0 629.44173576 0 13668
0.11350000 0.11349100 14540.17695185 0 546.73811275 0 4624.53361770 0 -476.52739385 0 922.78305164 0 13791
0.11450000 0.11448600 14355.15840413 0 465.74405671 0 4808.66637944 0 -210.70634130 0 574.61158325 0 14205
0.11550000 0.11549300 14286.28854375 0 263.60658758 0 5591.54617807 0 -173.39592836 0 1376.47820448 0 14776
0.11650000 0.11649800 14026.53180351 0 182.36561869 0 5497.20997061 0 -11.68019545 0 1208.95392997 0 14553
0.11750000 0.11747300 14051.00164136 0 -18.15960921 0 5507.86154709 0 397.03031611 0 1658.75605341 0 14568
0.11850000 0.11849100 13987.77866664 0 -170.50383711 0 5302.19311358 0 773.88574918 0 1661.73450878 0 16015
0.11950000 0.11950300 13924.66641518 0 81.78904897 0 4756.74824836 0 741.15927871 0 1338.86551707 0 15270
0.12050000 0.12050700 14002.83702840 0 110.80850509 0 4586.43374800 0 372.56712166 0 1379.15770709 0 15999
0.12150000 0.12150000 13849.04243667 0 298.73243084 0 4369.99194245 0 103.80315590 0 1024.00624513 0 15670
0.12250000 0.12250700 13592.60739387 0 204.43165482 0 4097.16985892 0 -365.02686846 0 928.00033110 0 16887
0.12350000 0.12352200 13490.63128229 0 140.02283412 0 4063.62071472 0 268.71425102 0 992.40804457 0 16407
0.12450000 0.12449800 13345.69455041 0 132.55455103 0 3930.43171947 0 -177.42625459 0 844.17065266 0 16306
0.12550000 0.12549900 13398.50953980 0 42.80328256 0 4067.87248745 0 244.28205908 0 607.18636287 0 17523
0.12650000 0.12650100 13159.45804696 0 287.52280919 0 3827.92413630 0 -67.63241735 0 65.40876236 0 17154
0.12750000 0.12750600 12924.06042132 0 378.36569817 0 4281.88945387 0 3.58497519 0 584.87119943 0 18007
0.12850000 0.12850300 12890.17910737 0 171.02423638 0 4692.99380206 0 -338.68912941 0 1144.31369768 0 17496
0.12950000 0.12949900 12820.31273777 0 29.11888559 0 4780.09978141 0 205.82787498 0 931.80588914 0 18405
0.13050000 0.13049000 12736.93813188 0 -5.75222776 0 4926.17696274 0 508.98702129 0 977.35632621 0 18100
0.13150000 0.13148800 12659.21041165 0 91.22499490 0 5054.79308783 0 224.10385433 0 708.71958146 0 19059
0.13250000 0.13249300 12681.24433804 0 211.79475083 0 4845.44864249 0 740.82932343 0 1413.62585425 0 18957
0.13350000 0.13349100 12268.46806880 0 230.61991749 0 4479.70760908 0 -31.58823548 0 1215.12121490 0 19468
0.13450000 0.13450700 12217.75682114 0 299.83744886 0 4381.68431746 0 -6.31243203 0 1374.85057273 0 19953
0.13550000 0.13551000 12141.57922638 0 40.85244965 0 4472.20057285 0 119.44824014 0 778.60034508 0 19956
0.13650000 0.13649900 11717.61990908 0 -7.87220150 0 3535.40438692 0 405.95128822 0 602.89030084 0 19723
0.13750000 0.13749600 11889.13022052 0 61.26228744 0 3386.86914948 0 268.26692910 0 360.74852215 0 20946
0.13850000 0.13851100 11842.18356329 0 -24.53051419 0 2842.44293814 0 198.27987115 0 -249.89683499 0 20955
0.13950000 0.13949800 11727.69572466 0 102.12060542 0 3074.67387889 0 247.83073918 0 -45.69825261 0 20506
0.14050000 0.14048300 11486.65121336 0 415.26754232 0 2541.29784773 0 189.51391160 0 -349.98843689 0 21447
0.14150000 0.14148400 11130.56524719 0 312.99912137 0 2534.99769490 0 185.48469259 0 -369.18009750 0 21771
0.14250000 0.14249400 11019.81985436 0 256.19034442 0 2775.41108369 0 -25.85697870 0 -464.46409596 0 22470
0.14350000 0.14350900 10776.95948178 0 120.21333779 0 2627.57340271 0 -3.00753130 0 -376.99715882 0 22519
0.14450000 0.14449900 10655.20819808 0 222.32785343 0 2946.45635749 0 -300.24380318 0 -360.16833233 0 22218
0.14550000 0.14550500 10493.26437528 0 281.08093061 0 2978.77647364 0 -183.00338460 0 -414.60984623 0 23559
0.14650000 0.14650700 10341.66210386 0 142.08339377 0 3026.34318106 0 121.89965286 0 -382.52224890 0 23044
0.14750000 0.14750500 10290.60761413 0 -25.13783121 0 3011.01908351 0 146.18458288 0 -540.50660835 0 23649
0.14850000 0.14849900 10242.28798862 0 14.91287141 0 2629.72143373 0 253.33700632 0 -409.82881637 0 23640
0.14950000 0.14949500 10434.12708842 0 24.05407205 0 2949.02513685 0 262.25354949 0 -479.96092177 0 24457
0.15050000 0.15050000 10284.69499267 0 18.35758238 0 2596.30515743 0 21.81192628 0 -265.69925698 0 24591
0.15150000 0.15149900 10253.73677248 0 105.43643453 0 2686.41173680 0 240.16979764 0 -161.15547327 0 25020
0.15250000 0.15250500 10157.44076353 0 59.77173107 0 2562.63421765 0 115.44780919 0 -104.54112635 0 25297
0.15350000 0.15350100 10081.44032598 0 243.50035295 0 2598.55283936 0 22.47759444 0 -114.38818770 0 25452
0.15450000 0.15450400 9895.92352364 0 303.98292727 0 2463.07187288 0 324.34382538 0 -125.48376440 0 26061
0.15550000 0.15549900 9628.42722835 0 253.61602890 0 2246.89580312 0 275.87472348 0 1.40328430 0 26128
0.15650000 0.15649500 9396.72775919 0 249.18377728 0 2208.13159393 0 56.64767462 0 -57.18102851 0 26331
0.15750000 0.15749700 9294.79593691 0 193.99931038 0 2394.86635200 0 -153.05717490 0 -273.38012870 0 27345
0.15850000 0.15849900 9001.51219711 0 287.04005583 0 2405.51792848 0 -152.52459607 0 300.04450133 0 26980
0.15950000 0.15949700 8840.18842451 0 206.12904222 0 2391.82146267 0 -193.04487598 0 420.89892673 0 27777
0.16050000 0.16050000 8920.07524807 0 -73.87200456 0 2673.58998466 0 166.90865325 0 438.53160400 0 28224
0.16150000 0.16150500 8942.06488516 0 -51.22134967 0 2879.19198422 0 239.01495416 0 703.01844141 0 28075
0.16250000 0.16249700 9106.61070429 0 -30.16134498 0 2546.45755109 0 382.33291215 0 676.56112125 0 28590
0.16350000 0.16349900 9036.29036937 0 -78.39383129 0 2550.14463526 0 131.64994209 0 652.20532835 0 29163
0.16450000 0.16449100 9069.45198220 0 142.13654093 0 2419.96731236 0 107.40885848 0 610.29325721 0 28996
0.16550000 0.16550500 8973.27776883 0 134.15228750 0 2386.91642278 0 73.59630367 0 369.98726998 0 30777
0.16650000 0.16650700 8845.52528507 0 52.05731020 0 2079.37152862 0 82.04614835 0 237.36739223 0 29211
0.16750000 0.16749900 8757.61102601 0 97.10672457 0 2346.54672649 0 -280.30918957 0 -282.83700133 0 30922
0.16850000 0.16850800 8655.73456535 0 172.99178850 0 2274.87556794 0 -277.52007095 0 -549.78521655 0 30867
0.16950000 0.16949900 8511.56182389 0 288.23918861 0 2255.41042091 0 -141.61835613 0 -511.57905253 0 30852
0.17050000 0.17049200 8328.10447397 0 181.00925890 0 2379.56439910 0 -75.07545554 0 -557.15163425 0 31257
0.17150000 0.17149500 8201.94640499 0 121.27074481 0 2437.07405421 0 95.50610930 0 -307.19611593 0 32608
0.17250000 0.17250900 8231.52058458 0 -19.20749403 0 2292.82380647 0 489.56616355 0 -302.02534024 0 32361
0.17350000 0.17350400 8219.69534167 0 53.34336073 0 2203.87982120 0 160.77347806 0 91.12224373 0 32508
0.17450000 0.17449800 8174.58669036 0 26.60181399 0 2150.58872185 0 357.63941334 0 -48.18144289 0 32791
0.17550000 0.17549800 8098.27622771 0 87.24615498 0 2121.33563968 0 144.53702095 0 474.89201147 0 33633
0.17650000 0.17650100 8104.84211633 0 12.57694304 0 2090.99746968 0 258.50335308 0 473.57661928 0 33984
0.17750000 0.17750300 8099.22844764 0 -14.26912644 0 2198.43223739 0 81.48456004 0 814.82567019 0 34069
