### header ###
fiducial parameters:
Omega_m = 0.31
Omega_nu = 0
Omega_de = 0.69
Omega_k = 0
H_0 = 100
w_de = -1
zeff = 0
beta = 0
fgrowth = 0
b_1 = 2
gamma = 0.55
Lx = 3500 Ly = 3500 Lz = 3500
nx = 700 ny = 700 nz = 700
xoffset = -685.467585 yoffset = -31.7331281 zoffset = 572.489161
bins = 400 dk = 0.001
kx_ny = 0.628318531 ky_ny = 0.628318531 kz_ny = 0.628318531
############################
A(data) = 8.02451809 (not used)
A(ran) = 8.02390362 (used)
Ngal = 477248
weighted Ngal = 0
Nran = 23820508
weighted Nran = 0
SN(data) = 3483.61462
SN(ran) = 69.8911105
SN(data+ran) = 3553.50573
############################
13 columns: k_central k_mean P_0(k) sigma^{lin}_{P_0(k)} P^img_1(k) sigma^{lin}_{P_1(k)} P_2(k) sigma^{lin}_{P_2(k)} P^img_3(k) sigma^{lin}_{P_3(k)} P_4(k) sigma^{lin}_{P_4(k)} N_modes
### header ###
0.00050000 0 0 0 0 0 0 0 0 0 0 0 0
0.00150000 0.00179520 43667.25606627 0 -24854.60113666 0 65863.61346047 0 -27419.94807389 0 -31003.06310845 0 3
0.00250000 0.00253879 79959.90091034 0 -24179.96438546 0 -5137.63622213 0 14895.04496228 0 24076.65959490 0 6
0.00350000 0.00331552 84214.22027540 0 -4048.17482159 0 52698.06563486 0 -61971.91273321 0 59870.16403614 0 7
0.00450000 0.00420575 82266.15544681 0 12137.03957321 0 33387.70970464 0 -13756.47780118 0 26865.55677022 0 24
0.00550000 0.00557378 90653.55222018 0 8624.75420051 0 76445.76645939 0 20703.14366915 0 15964.18864677 0 45
0.00650000 0.00659388 79475.48669952 0 -804.62141564 0 24297.33102853 0 25096.19926420 0 -14663.19048058 0 40
0.00750000 0.00754703 86370.22336409 0 -3839.30648622 0 70534.14151547 0 48904.68715199 0 -11657.82935506 0 57
0.00850000 0.00846663 99961.94497197 0 -5636.80984192 0 34375.36107847 0 8981.84774824 0 -5620.11277610 0 75
0.00950000 0.00948925 101527.79314783 0 -952.04277721 0 51684.28357446 0 33966.12795317 0 -9863.39303332 0 112
0.01050000 0.01054430 96964.44519707 0 -2926.68118536 0 22597.50772238 0 5509.01306887 0 -25081.91596518 0 105
0.01150000 0.01145670 93667.32831257 0 6023.09003787 0 33755.42161187 0 -2480.64365237 0 -27516.94163930 0 144
0.01250000 0.01249090 94586.10982602 0 11266.42267272 0 28705.77715508 0 -7520.99842864 0 -25004.29896820 0 169
0.01350000 0.01339930 88474.74014237 0 12257.72791373 0 31303.23383428 0 -808.01176150 0 -28921.68748904 0 180
0.01450000 0.01448870 70298.85461307 0 11389.10403171 0 26388.45029378 0 -13298.30500019 0 -12595.76599044 0 267
0.01550000 0.01550050 72270.72494003 0 2007.48999589 0 37671.48145373 0 -5635.37043970 0 -14837.91176622 0 238
0.01650000 0.01653350 71105.03058312 0 1412.68470664 0 36987.76539618 0 -2658.36553803 0 -24627.17558488 0 315
0.01750000 0.01747870 68307.71844094 0 8650.45306641 0 39137.01436672 0 7812.32236694 0 -25613.38755648 0 297
0.01850000 0.01844180 64131.23751934 0 5991.97680513 0 27495.35060590 0 5300.25545674 0 -19317.55294135 0 388
0.01950000 0.01947590 62990.12372353 0 -2639.44293492 0 36909.70550621 0 10776.53873344 0 -6319.99442788 0 399
0.02050000 0.02045430 66092.25696797 0 -7352.55515117 0 27810.02607725 0 9911.09260864 0 -9485.64959981 0 462
0.02150000 0.02154770 68435.16089960 0 518.48043259 0 31005.49901991 0 15602.01290195 0 -4992.45589910 0 571
0.02250000 0.02255340 68596.26322571 0 2804.15483892 0 27411.86527677 0 4905.18383488 0 1247.85100706 0 510
0.02350000 0.02348930 65189.86249525 0 6717.43552725 0 30906.73388253 0 3133.52328530 0 16535.63133066 0 555
0.02450000 0.02439640 65232.49094581 0 4625.98409226 0 41918.82525416 0 -5532.17637239 0 17751.37259575 0 592
0.02550000 0.02547300 60790.16350532 0 444.61916819 0 37141.67071116 0 2201.37747579 0 17471.02133134 0 837
0.02650000 0.02652900 64306.18025148 0 -298.92066036 0 46801.16688294 0 14139.58023991 0 23994.17077500 0 723
0.02750000 0.02749970 64557.18985512 0 1331.60207199 0 35844.10496566 0 11384.34293204 0 27697.97415008 0 826
0.02850000 0.02848090 63513.73396421 0 309.19577779 0 42400.02849078 0 11254.02166892 0 21565.67777253 0 831
0.02950000 0.02946900 61960.95113164 0 1736.17374854 0 31560.33321657 0 8418.65394634 0 18531.97149546 0 996
0.03050000 0.03053250 58591.08907309 0 3951.09267759 0 35652.11085330 0 5809.40524120 0 19138.51344903 0 1041
0.03150000 0.03150510 57354.42111409 0 1533.86022945 0 34650.95124320 0 -927.37474474 0 28346.81238446 0 1036
0.03250000 0.03246190 54690.97337897 0 1279.65072394 0 30308.38544933 0 7804.27278680 0 20669.26235521 0 1059
0.03350000 0.03345080 56211.97863930 0 -220.45773777 0 27736.94873345 0 1727.92486655 0 18292.03421664 0 1302
0.03450000 0.03451200 55979.23837162 0 -1918.81174642 0 21614.39600173 0 8083.94863939 0 11137.43008858 0 1339
0.03550000 0.03553350 57044.50674242 0 -769.92628582 0 23034.31093647 0 1795.67642211 0 8039.98043754 0 1365
0.03650000 0.03647120 54374.08344266 0 4737.62634340 0 18865.69136550 0 1986.22005992 0 4045.99357361 0 1308
0.03750000 0.03744890 51314.46792552 0 4345.01277766 0 19059.67849632 0 1670.95775536 0 2533.31470153 0 1579
0.03850000 0.03847530 46179.67729087 0 3126.45914207 0 17644.41393800 0 1089.82900171 0 1618.91782871 0 1662
0.03950000 0.03950240 46226.62394810 0 1772.41346767 0 17261.53294577 0 2838.83336025 0 3917.93106475 0 1683
0.04050000 0.04050350 43651.86553478 0 961.54172467 0 19913.79763283 0 209.67993679 0 449.52310085 0 1822
0.04150000 0.04152450 44121.33210709 0 2546.45755109 0 19825.32975753 0 329.82241170 0 -149.92481421 0 1887
0.04250000 0.04250150 41657.85055819 0 2179.65357450 0 19566.79097302 0 -1635.07235062 0 3163.89467228 0 1920
0.04350000 0.04349210 40031.99038182 0 1232.11723349 0 19051.70642245 0 2663.79097719 0 1453.54158522 0 2005
0.04450000 0.04448520 39171.44929691 0 183.88031273 0 19933.72781751 0 4668.31359004 0 -630.62979621 0 2151
0.04550000 0.04548030 38352.76159982 0 955.34675893 0 14406.97688428 0 3330.22313570 0 -3166.02055864 0 2274
0.04650000 0.04648670 38342.24289124 0 629.38083797 0 12943.65843625 0 2976.96061237 0 -2607.07852947 0 2311
0.04750000 0.04749250 37121.96197298 0 -706.42096682 0 10845.07642407 0 465.06310873 0 -3553.13117895 0 2568
0.04850000 0.04851840 37237.44632084 0 1540.82472176 0 12154.75529292 0 603.89345347 0 -1422.02974878 0 2493
0.04950000 0.04949480 37250.84383387 0 976.64991188 0 14265.36184985 0 -2550.38822640 0 236.31662860 0 2644
0.05050000 0.05050630 35338.09972145 0 972.16451310 0 16359.02774981 0 668.87360613 0 3869.82181342 0 2829
0.05150000 0.05149060 36325.52964877 0 656.74719599 0 18060.17973494 0 1329.64227050 0 3785.69428944 0 2784
0.05250000 0.05249300 36111.72305653 0 116.46535584 0 20308.30456612 0 2112.02381451 0 7223.03109544 0 3055
0.05350000 0.05348950 36555.05894226 0 316.42379143 0 19992.30041580 0 812.95776900 0 6712.86265710 0 3009
0.05450000 0.05448610 36457.62248386 0 45.18482891 0 20514.69270074 0 957.94432633 0 7835.02063282 0 3336
0.05550000 0.05550870 36485.52474240 0 -415.72925827 0 18323.59034238 0 1543.05025905 0 5957.78546609 0 3349
0.05650000 0.05647670 36441.23544313 0 -520.71150604 0 18078.67051739 0 2198.00041672 0 4624.21252028 0 3324
0.05750000 0.05747970 36632.45449275 0 506.67401263 0 13931.42053332 0 2477.12265308 0 2154.77406063 0 3639
0.05850000 0.05849280 35063.39534270 0 1431.34157396 0 13491.51706827 0 1851.46986687 0 1883.24743910 0 3846
0.05950000 0.05951020 34746.61612963 0 1385.24748574 0 11793.57605733 0 707.93455363 0 -986.51867499 0 3787
0.06050000 0.06049470 32496.83044973 0 865.53913233 0 12959.93475373 0 1131.65803041 0 355.34744210 0 3930
0.06150000 0.06148310 32464.38853802 0 1494.92993539 0 11624.72310385 0 393.25243889 0 -469.58504619 0 4083
0.06250000 0.06249100 31124.52651171 0 106.56581166 0 11874.73619825 0 467.23439163 0 317.27193152 0 4303
0.06350000 0.06350600 31332.13260206 0 -277.66954734 0 10923.51277308 0 624.05394250 0 -2331.27799057 0 4470
0.06450000 0.06451750 31150.32502854 0 159.23553215 0 11983.68787447 0 -254.68893718 0 -1724.44815656 0 4479
0.06550000 0.06550280 31452.82094258 0 947.22077975 0 12806.58305499 0 -525.89667575 0 -1314.63927037 0 4636
0.06650000 0.06648880 30691.82005780 0 833.52682681 0 12972.00358778 0 -407.70071554 0 855.90510250 0 4653
0.06750000 0.06749660 29938.68052363 0 402.99940642 0 12224.17876953 0 2222.38167597 0 1159.25026386 0 5220
0.06850000 0.06852730 30641.88387287 0 215.64349094 0 12605.73108278 0 1801.84370704 0 1395.01327623 0 5029
0.06950000 0.06949320 29544.72720659 0 -408.05392270 0 11575.11908866 0 3095.62271745 0 1461.24792329 0 5040
0.07050000 0.07048030 30107.20130737 0 275.02879787 0 10368.40176830 0 1665.95306454 0 2130.42601836 0 5475
0.07150000 0.07148790 29750.56172497 0 310.24432695 0 9525.53211381 0 -22.44969219 0 2826.90846642 0 5509
0.07250000 0.07249820 29175.35445064 0 47.17995111 0 8703.76631042 0 341.64544014 0 1768.81496210 0 5916
0.07350000 0.07351270 28717.62454263 0 526.75810262 0 9402.25284928 0 -1791.77896378 0 1331.92316941 0 5721
0.07450000 0.07449140 28404.16702702 0 1319.12356192 0 7950.21710023 0 728.22348162 0 106.37226743 0 6028
0.07550000 0.07549160 27290.73404325 0 1159.40527641 0 8540.82597838 0 290.33075077 0 -887.69042536 0 6183
0.07650000 0.07648840 25529.23788786 0 1111.83856899 0 8477.12689370 0 111.05431070 0 -1510.73014291 0 6330
0.07750000 0.07749960 25694.65842065 0 445.49831078 0 8235.99380380 0 25.64926189 0 -2039.47794230 0 6583
0.07850000 0.07848650 24958.01665046 0 148.13995545 0 8731.34747154 0 517.61679125 0 -1579.01317006 0 6549
0.07950000 0.07947320 24972.41067273 0 67.17955927 0 7686.06464703 0 713.52497043 0 -1537.38122874 0 6828
0.08050000 0.08048110 24782.63102534 0 123.62139937 0 7598.00644775 0 1308.26161127 0 -907.56857011 0 7147
0.08150000 0.08149960 24968.42463579 0 335.57337721 0 6806.03627045 0 524.97213663 0 -1307.94051385 0 7386
0.08250000 0.08250610 23889.53730546 0 1009.96875173 0 7259.45904410 0 55.87438346 0 -273.61043306 0 7227
0.08350000 0.08350160 23298.82877639 0 1086.96791298 0 6823.36445879 0 440.97083716 0 -1453.53051289 0 7798
0.08450000 0.08449610 22311.17740257 0 568.43544047 0 7449.95839260 0 -145.96756532 0 -275.55141160 0 7371
0.08550000 0.08548940 22080.31943010 0 444.99119830 0 7096.64050764 0 60.51734142 0 88.85529595 0 8256
0.08650000 0.08650700 21699.76362608 0 30.39519248 0 7056.65834272 0 501.67153628 0 -562.17957695 0 8037
0.08750000 0.08749060 21820.56268985 0 -109.29192876 0 8042.83709734 0 1080.80062806 0 -928.90383280 0 8155
0.08850000 0.08849210 21886.11085278 0 287.69332300 0 6929.02765453 0 -758.73770159 0 -1836.58866232 0 8718
0.08950000 0.08949900 21640.19451856 0 976.00328811 0 7807.56126727 0 -989.55027753 0 -1450.93958889 0 8571
0.09050000 0.09049190 20868.89637169 0 939.62848662 0 8825.58402807 0 -1467.28234032 0 473.63308814 0 8932
0.09150000 0.09150830 20464.42434606 0 857.99334296 0 9438.52578538 0 -114.16563397 0 456.88287515 0 9285
0.09250000 0.09250820 19840.94173553 0 614.10988758 0 9767.16345832 0 197.48598547 0 -116.84513658 0 9204
0.09350000 0.09350330 19037.86601643 0 582.25370184 0 9262.90764143 0 1174.70722931 0 6.07341375 0 9349
0.09450000 0.09448040 18741.23843454 0 137.89584052 0 8996.11997493 0 1437.88531792 0 386.11078938 0 9564
0.09550000 0.09549270 18154.40521915 0 -9.09120910 0 8407.11658387 0 1348.04447435 0 -122.85298003 0 10155
0.09650000 0.09649430 18565.40991642 0 25.24777939 0 6957.51674629 0 1646.76472563 0 -20.33565321 0 9913
0.09750000 0.09749140 18133.47852524 0 -154.81656731 0 5849.30989984 0 1087.21925475 0 360.46949956 0 10476
0.09850000 0.09850240 18291.81277015 0 390.75009348 0 5610.35805793 0 243.63100638 0 621.11645472 0 10575
0.09950000 0.09950330 17710.29427067 0 637.52674734 0 5802.67326771 0 187.82095313 0 627.27156009 0 10882
0.10050000 0.10051200 17046.72984429 0 531.98423993 0 5554.28780505 0 143.22052153 0 994.42542215 0 10875
0.10150000 0.10150300 16741.46584904 0 436.78328391 0 5905.84519037 0 117.68884773 0 664.23430203 0 11118
0.10250000 0.10250800 16275.98531367 0 188.09111786 0 5415.96125109 0 -140.86654527 0 -9.00601863 0 11575
0.10350000 0.10349800 16392.90906375 0 145.30876199 0 6028.90300840 0 42.34688133 0 38.53711581 0 11364
0.10450000 0.10450100 16178.32740877 0 469.47875187 0 6195.39755670 0 -870.00238646 0 -395.16684385 0 12093
0.10550000 0.10551000 16041.03058101 0 564.16705925 0 6784.41202008 0 -437.17302974 0 -450.50189436 0 12067
0.10650000 0.10649700 15647.96304995 0 134.31615791 0 6753.26557036 0 -1131.49194554 0 -524.76840585 0 12054
0.10750000 0.10749900 15896.86891188 0 -24.43462786 0 6862.44976540 0 544.59893960 0 -410.56401874 0 12807
0.10850000 0.10850100 15787.80651241 0 -358.74000243 0 6592.77222212 0 630.80806064 0 -1299.89093371 0 12736
0.10950000 0.10950300 15936.17566498 0 329.43709479 0 6628.90121800 0 606.48880641 0 -1057.30183309 0 12933
0.11050000 0.11050200 15622.60742612 0 491.85149140 0 6205.40693834 0 1021.45850319 0 -275.50822953 0 13428
0.11150000 0.11150900 15268.29303192 0 112.75612702 0 5710.10863222 0 764.07456216 0 201.64807236 0 13453
0.11250000 0.11250000 14986.17019554 0 26.65551477 0 5102.03869783 0 1292.50569306 0 92.14709811 0 13668
0.11350000 0.11349100 15090.58221858 0 80.79940458 0 5123.20898289 0 4.91997646 0 -955.51062934 0 13791
0.11450000 0.11448600 14633.84881981 0 370.58185382 0 4819.49511311 0 -237.32531740 0 97.36758854 0 14205
0.11550000 0.11549300 14588.45228806 0 315.33870360 0 4816.46129611 0 -265.90520222 0 527.37704558 0 14776
0.11650000 0.11649800 14241.55635149 0 -0.15485753 0 4677.58112591 0 820.09498958 0 -88.13681279 0 14553
0.11750000 0.11747300 14875.66839385 0 -351.45441270 0 4578.70526528 0 456.72343368 0 -571.85235991 0 14568
0.11850000 0.11849100 14413.84172567 0 -2.81755235 0 4368.06535793 0 407.71510956 0 -553.93844558 0 16015
0.11950000 0.11950300 14456.80234596 0 452.30114714 0 4390.75255148 0 -89.07541376 0 -643.59770304 0 15270
0.12050000 0.12050700 14097.72685209 0 468.57967909 0 4286.08586497 0 37.43508732 0 -84.45415755 0 15999
0.12150000 0.12150000 13761.23890085 0 374.98974633 0 4591.15055838 0 99.88809257 0 246.54302781 0 15670
0.12250000 0.12250700 13450.43874320 0 326.14307816 0 4400.04223201 0 200.78110933 0 711.66149816 0 16887
0.12350000 0.12352200 13438.59135564 0 32.54831676 0 4518.77077104 0 355.39726756 0 895.38901281 0 16407
0.12450000 0.12449800 13443.24173206 0 -178.32089844 0 4406.19844461 0 673.05340875 0 761.35962811 0 16306
0.12550000 0.12549900 13485.87018261 0 218.25102343 0 4260.53093929 0 44.15942090 0 446.52582252 0 17523
0.12650000 0.12650100 13032.34775804 0 540.50660835 0 4243.94459671 0 23.43468620 0 586.78449716 0 17154
0.12750000 0.12750600 12751.55360064 0 185.73935607 0 4005.36921385 0 304.65723185 0 892.96417367 0 18007
0.12850000 0.12850300 12809.79402919 0 -134.41470160 0 4073.09862476 0 362.36508157 0 766.81717701 0 17496
0.12950000 0.12949900 12874.23495963 0 -103.20270372 0 3770.63592769 0 277.56436025 0 571.72170648 0 18405
0.13050000 0.13049000 13122.69792856 0 51.31690384 0 4234.06808298 0 -270.84013739 0 -65.00705841 0 18100
0.13150000 0.13148800 12824.74166769 0 439.37642238 0 3820.16243660 0 -576.02219744 0 340.17724987 0 19059
0.13250000 0.13249300 12549.15150296 0 291.33611786 0 4563.83513305 0 -529.74763032 0 786.17824419 0 18957
0.13350000 0.13349100 12463.00881587 0 138.92224503 0 4173.54675552 0 240.16979764 0 753.58685609 0 19468
0.13450000 0.13450700 12404.87911057 0 161.56293482 0 4532.13506709 0 529.94250324 0 512.86897837 0 19953
0.13550000 0.13551000 12145.34381682 0 92.12993601 0 3779.51593220 0 1070.85214421 0 -18.23866561 0 19956
0.13650000 0.13649900 12149.21913051 0 116.53289702 0 3832.12054741 0 307.20829549 0 339.94030212 0 19723
0.13750000 0.13749600 11982.91281173 0 91.01140976 0 3378.90814793 0 -118.36647401 0 364.82978108 0 20946
0.13850000 0.13851100 11681.96702316 0 348.52024662 0 3493.53992678 0 -195.78416914 0 124.76849222 0 20955
0.13950000 0.13949800 11548.54550910 0 372.28588461 0 3426.72951882 0 -340.09310020 0 419.03877616 0 20506
0.14050000 0.14048300 11325.54888725 0 225.64290748 0 3760.83692023 0 -503.04561179 0 306.92705844 0 21447
0.14150000 0.14148400 11269.08003067 0 36.93539330 0 4254.88405363 0 3.66913593 0 263.37849769 0 21771
0.14250000 0.14249400 11194.45256140 0 63.92374215 0 4055.53791760 0 200.52423140 0 135.16872692 0 22470
0.14350000 0.14350900 11121.37521759 0 194.12885658 0 3983.58995093 0 307.68551269 0 497.19831705 0 22519
0.14450000 0.14449900 11031.62295261 0 -36.67397571 0 3942.14623913 0 363.98606993 0 239.09467490 0 22218
0.14550000 0.14550500 10932.50350084 0 31.18232405 0 3716.22652353 0 121.03711876 0 4.20917750 0 23559
0.14650000 0.14650700 10923.57920703 0 225.84663826 0 3575.72979391 0 168.31594573 0 215.34453817 0 23044
0.14750000 0.14750500 10628.53496759 0 169.46525305 0 3416.49869069 0 346.62245015 0 169.89818095 0 23649
0.14850000 0.14849900 10784.45544569 0 -80.85786645 0 3262.20584434 0 169.29916817 0 -5.27098023 0 23640
0.14950000 0.14949500 10580.89075390 0 132.43054099 0 3170.12839115 0 152.79365357 0 114.41586851 0 24457
0.15050000 0.15050000 10572.86331840 0 343.24760554 0 3446.00643633 0 -91.18203428 0 -6.68880250 0 24591
0.15150000 0.15149900 10412.73535687 0 194.48317097 0 3326.44747294 0 -128.86635963 0 38.04185072 0 25020
0.15250000 0.15250500 10083.51085072 0 248.58144281 0 3585.13019768 0 -195.42210412 0 44.13129720 0 25297
0.15350000 0.15350100 10018.54952101 0 350.81996848 0 3888.71119956 0 -139.64083892 0 37.43110128 0 25452
0.15450000 0.15450400 9838.57995340 0 220.89620183 0 3753.20808843 0 40.03265472 0 -20.21418981 0 26061
0.15550000 0.15549900 9547.02349628 0 202.69219260 0 3891.29105124 0 232.71701581 0 180.05593174 0 26128
0.15650000 0.15649500 9456.58474716 0 120.14247491 0 3845.54020509 0 183.47617287 0 -225.61301220 0 26331
0.15750000 0.15749700 9262.70833959 0 169.09875910 0 3555.98783876 0 472.10178562 0 -78.30038087 0 27345
0.15850000 0.15849900 9118.79026159 0 26.20321030 0 3020.66307842 0 659.32594044 0 -12.24599125 0 26980
0.15950000 0.15949700 9067.97936300 0 -189.51169713 0 2892.13553193 0 348.23125894 0 -199.30406120 0 27777
0.16050000 0.16050000 9189.54241718 0 -38.20284232 0 2729.32806780 0 18.45169714 0 -729.83671935 0 28224
0.16150000 0.16150500 9031.91680107 0 247.50632007 0 2663.81312184 0 -145.75719115 0 -204.91994435 0 28075
0.16250000 0.16249700 9104.94985557 0 111.55256532 0 2477.69841397 0 -234.46090696 0 -267.69448991 0 28590
0.16350000 0.16349900 8927.65979057 0 -28.55065388 0 2616.40142697 0 125.02426292 0 -524.25022105 0 29163
0.16450000 0.16449100 8973.38849207 0 160.04159739 0 2523.15030735 0 169.57486906 0 -374.82144699 0 28996
0.16550000 0.16550500 8837.28747540 0 164.25461699 0 2598.74106889 0 214.68684207 0 -470.58376988 0 30777
0.16650000 0.16650700 8673.48350204 0 162.00361335 0 2401.25508342 0 308.54140340 0 -163.96784377 0 29211
0.16750000 0.16749900 8597.28376264 0 163.02780340 0 2384.90125966 0 120.54993646 0 -301.24474134 0 30922
0.16850000 0.16850800 8568.19676534 0 91.28445329 0 2297.69562939 0 28.19888612 0 -275.54033927 0 30867
0.16950000 0.16949900 8371.04294962 0 92.94209104 0 2411.37518830 0 -66.46716589 0 -167.03044882 0 30852
0.17050000 0.17049200 8477.22654463 0 53.81548466 0 2387.74684714 0 -22.54247827 0 -101.65058523 0 31257
0.17150000 0.17149500 8469.71950840 0 -20.47660390 0 2415.54945476 0 67.16427946 0 48.50674780 0 32608
0.17250000 0.17250900 8444.36388456 0 137.51495255 0 2467.20185004 0 -67.92074069 0 -255.81056368 0 32361
0.17350000 0.17350400 8333.48562383 0 96.20410865 0 2628.16023593 0 -47.79369008 0 130.77079950 0 32508
0.17450000 0.17449800 8265.45726015 0 133.35840181 0 2522.25344904 0 154.17437247 0 128.48768613 0 32791
0.17550000 0.17549800 8221.48905829 0 131.60122386 0 2565.33586491 0 167.34047391 0 272.75011342 0 33633
0.17650000 0.17650100 8122.61319766 0 79.54435656 0 2537.27859382 0 225.38492231 0 85.39840541 0 33984
0.17750000 0.17750300 8014.19299304 0 174.47215833 0 2452.74139383 0 191.22347855 0 233.54965463 0 34069
0.17850000 0.17849800 7851.54054145 0 73.04268743 0 2394.93278595 0 114.47344460 0 348.91995755 0 34536
