### header ###
fiducial parameters:
Omega_m = 0.31
Omega_nu = 0
Omega_de = 0.69
Omega_k = 0
H_0 = 100
w_de = -1
zeff = 0
beta = 0
fgrowth = 0
b_1 = 2
gamma = 0.55
Lx = 3500 Ly = 3500 Lz = 3500
nx = 700 ny = 700 nz = 700
xoffset = -685.467585 yoffset = -31.7331281 zoffset = 572.489161
bins = 400 dk = 0.001
kx_ny = 0.628318531 ky_ny = 0.628318531 kz_ny = 0.628318531
############################
A(data) = 8.04328266 (not used)
A(ran) = 8.04206649 (used)
Ngal = 478277
weighted Ngal = 0
Nran = 23820508
weighted Nran = 0
SN(data) = 3488.6046
SN(ran) = 70.0493157
SN(data+ran) = 3558.65391
############################
13 columns: k_central k_mean P_0(k) sigma^{lin}_{P_0(k)} P^img_1(k) sigma^{lin}_{P_1(k)} P_2(k) sigma^{lin}_{P_2(k)} P^img_3(k) sigma^{lin}_{P_3(k)} P_4(k) sigma^{lin}_{P_4(k)} N_modes
### header ###
0.00050000 0 0 0 0 0 0 0 0 0 0 0 0
0.00150000 0.00179520 11938.29134271 0 -20056.63062299 0 9841.82414458 0 -71859.72024276 0 -21740.73122791 0 3
0.00250000 0.00253879 17728.34216013 0 -9867.48979351 0 -13846.49580196 0 10484.58367262 0 12970.89635530 0 6
0.00350000 0.00331552 39649.10938959 0 -25050.80273244 0 -21170.83866949 0 -11538.58041676 0 -29873.13236071 0 7
0.00450000 0.00420575 43588.53183681 0 -18411.28315494 0 -29708.04399766 0 -10055.83003867 0 5338.17816924 0 24
0.00550000 0.00557378 57323.52932785 0 -1744.94302979 0 -12739.37404334 0 -30720.38665583 0 -25094.09552248 0 45
0.00650000 0.00659388 41611.01462420 0 1600.92530088 0 -24497.74010775 0 -35121.30360150 0 6194.42319212 0 40
0.00750000 0.00754703 50871.13203978 0 3161.38125454 0 -9186.36465996 0 -19143.16382545 0 -20320.04123043 0 57
0.00850000 0.00846663 44549.05601483 0 1663.80503352 0 -622.73855031 0 -27993.16232975 0 -6427.81672697 0 75
0.00950000 0.00948925 51886.57494890 0 -6634.74740550 0 -5299.32538145 0 -8735.85390774 0 -25427.37249952 0 112
0.01050000 0.01054430 56364.44455206 0 -2765.85566737 0 17029.45701757 0 -16548.25378096 0 -7155.93280704 0 105
0.01150000 0.01145670 66897.99004503 0 -7769.62748244 0 15110.84457300 0 -10007.30003899 0 -20537.05879687 0 144
0.01250000 0.01249090 76357.40930734 0 -13092.91337480 0 29150.22027330 0 -7556.17520459 0 -12416.83722137 0 169
0.01350000 0.01339930 82701.62998193 0 -892.70397404 0 29347.97199456 0 3984.44251994 0 -25925.18422337 0 180
0.01450000 0.01448870 86197.93798991 0 2069.98219717 0 32744.96124892 0 -1701.87168625 0 -17635.22390840 0 267
0.01550000 0.01550050 82971.35181451 0 3872.66740089 0 26623.95864268 0 -1670.16054797 0 -39179.31064753 0 238
0.01650000 0.01653350 84504.09373916 0 -175.95917155 0 21847.80060890 0 -631.43253976 0 -35556.99958311 0 315
0.01750000 0.01747870 84815.89040605 0 -7150.61809113 0 14432.99684760 0 -695.17702097 0 -33176.67119360 0 297
0.01850000 0.01844180 89182.15097503 0 -1959.65755268 0 8902.17129884 0 4415.17810003 0 -40441.44495361 0 388
0.01950000 0.01947590 88312.30913728 0 4972.47035281 0 69.50895496 0 -510.00456794 0 -45201.65883964 0 399
0.02050000 0.02045430 81472.49120381 0 8535.04622483 0 2469.11736223 0 -9902.79943735 0 -22482.68771401 0 462
0.02150000 0.02154770 69438.42425142 0 8190.86300784 0 4844.93931554 0 -2181.77946086 0 -18162.15584652 0 571
0.02250000 0.02255340 69241.11542315 0 3007.16591447 0 7185.03087667 0 4110.46772102 0 -17950.78516573 0 510
0.02350000 0.02348930 67513.16841195 0 -1949.73674964 0 9360.89771608 0 1144.43549326 0 -21292.08062626 0 555
0.02450000 0.02439640 66109.08690170 0 -139.73716814 0 14852.74868148 0 -3022.02497438 0 -5910.72808561 0 592
0.02550000 0.02547300 64949.59304669 0 4042.89332266 0 12858.62298164 0 -10717.44573588 0 -13345.91599691 0 837
0.02650000 0.02652900 62680.76296810 0 3574.97687582 0 22890.03854408 0 -10254.15752082 0 -11342.71099072 0 723
0.02750000 0.02749970 59950.32766782 0 2998.06446347 0 24575.24638148 0 -3378.93029258 0 -10378.95369385 0 826
0.02850000 0.02848090 58795.70563573 0 3991.07484251 0 30343.04182601 0 -2607.39962689 0 -12464.22677160 0 831
0.02950000 0.02946900 59141.05144683 0 28.80542808 0 27217.65669945 0 6272.92597508 0 -12580.48618219 0 996
0.03050000 0.03053250 58005.80598317 0 -2740.65505609 0 22963.33733438 0 7386.40324814 0 -8666.67402227 0 1041
0.03150000 0.03150510 61744.37645819 0 -4.65062001 0 22443.04879116 0 7802.24655136 0 -8743.41630559 0 1036
0.03250000 0.03246190 62448.02270041 0 544.77831126 0 19427.16895705 0 4474.75827988 0 -5354.67593322 0 1059
0.03350000 0.03345080 60144.53624514 0 3016.79883706 0 20775.77811996 0 -485.37971754 0 -5443.34311037 0 1302
0.03450000 0.03451200 55084.04091003 0 3459.88005933 0 16338.21177915 0 330.43692573 0 -1387.88269904 0 1339
0.03550000 0.03553350 56971.87229161 0 112.69190754 0 17905.16718748 0 4870.95927887 0 -6750.79644193 0 1365
0.03650000 0.03647120 52046.23787278 0 562.06442477 0 12463.23026236 0 2253.27346222 0 -7484.78085416 0 1308
0.03750000 0.03744890 54147.10078387 0 3380.28111621 0 13020.16820074 0 2048.77869514 0 -10544.99427683 0 1579
0.03850000 0.03847530 48854.75096706 0 2476.20365012 0 12058.86895999 0 1640.67494698 0 -5196.78458131 0 1662
0.03950000 0.03950240 46793.63770207 0 2499.59947246 0 8981.46021687 0 2471.34289952 0 -7276.82044941 0 1683
0.04050000 0.04050350 45961.33104545 0 142.78205747 0 7968.03247087 0 3470.13303211 0 -10001.48706846 0 1822
0.04150000 0.04152450 43591.41064127 0 1950.00248544 0 7508.17667650 0 1072.71340201 0 -8742.23156684 0 1887
0.04250000 0.04250150 43758.71346928 0 435.01946257 0 7058.38562539 0 -1126.39867613 0 -10915.74000106 0 1920
0.04350000 0.04349210 41828.80725339 0 1439.19185225 0 9899.16771481 0 -3630.43815084 0 -3671.72685009 0 2005
0.04450000 0.04448520 42985.42230394 0 -106.36108438 0 9100.06696032 0 -730.12902873 0 -6885.85666007 0 2151
0.04550000 0.04548030 42078.15600830 0 -627.38560504 0 11407.59481415 0 -1044.70927808 0 -5777.76053687 0 2274
0.04650000 0.04648670 42242.58003186 0 1229.75882831 0 15890.44696348 0 -611.63079405 0 -9969.79807483 0 2311
0.04750000 0.04749250 40623.14180388 0 3482.48974661 0 17009.63755615 0 -1630.51055279 0 -5017.19147275 0 2568
0.04850000 0.04851840 38876.03967075 0 2156.46812633 0 15700.99948583 0 754.22905093 0 -1440.32122938 0 2493
0.04950000 0.04949480 37675.68893716 0 256.34757143 0 15438.47466438 0 2752.24778017 0 -1108.56116084 0 2644
0.05050000 0.05050630 37729.72188227 0 -523.68553248 0 17334.94245932 0 2111.62521081 0 -3089.56615577 0 2829
0.05150000 0.05149060 37438.63046279 0 1614.09029509 0 17161.54985266 0 309.93762356 0 -2436.13290660 0 2784
0.05250000 0.05249300 36796.76779306 0 1063.75810570 0 17286.44567662 0 -291.25971882 0 333.32126634 0 3055
0.05350000 0.05348950 35855.39873697 0 465.40192187 0 18173.56034109 0 -2604.89728148 0 425.13187650 0 3009
0.05450000 0.05448610 36344.02043122 0 1000.77318597 0 20222.93694177 0 1821.28670942 0 2473.12554382 0 3336
0.05550000 0.05550870 35865.03165957 0 -151.61998714 0 18629.62940037 0 1733.48317361 0 2985.87383384 0 3349
0.05650000 0.05647670 36085.81381645 0 457.05892512 0 18266.45714631 0 4396.82018548 0 205.66068288 0 3324
0.05750000 0.05747970 35788.63261832 0 -159.89101378 0 18319.38285895 0 1700.28834380 0 2389.81737188 0 3639
0.05850000 0.05849280 35781.76777693 0 -634.11204236 0 15568.79592750 0 1978.96768716 0 1770.28758130 0 3846
0.05950000 0.05951020 36214.47423084 0 418.46855143 0 15156.13038151 0 -583.12398657 0 -763.68813802 0 3787
0.06050000 0.06049470 35288.38498301 0 903.79622904 0 13437.59484641 0 1780.70663896 0 1706.12345898 0 3930
0.06150000 0.06148310 35002.27610970 0 683.42706987 0 13474.35496480 0 2455.73092153 0 799.88024615 0 4083
0.06250000 0.06249100 33590.11180233 0 122.96923944 0 10204.92996468 0 4180.09049948 0 1901.73822155 0 4303
0.06350000 0.06350600 34161.99737921 0 231.00966332 0 8613.06182550 0 4928.77895907 0 -890.76853166 0 4470
0.06450000 0.06451750 32797.88696155 0 -185.01965495 0 6088.13994618 0 2695.45782618 0 -1233.14695970 0 4479
0.06550000 0.06550280 32244.27072062 0 932.06387430 0 6123.37208376 0 99.61947797 0 -1010.01414826 0 4636
0.06650000 0.06648880 31689.76869370 0 1174.92867581 0 5964.03025729 0 -1880.61222580 0 253.01812336 0 4653
0.06750000 0.06749660 30592.16913443 0 1387.91591602 0 7239.94960777 0 -2231.93709229 0 2455.81950013 0 5220
0.06850000 0.06852730 30299.74903597 0 1197.69337563 0 10375.08945249 0 -2045.68951652 0 1948.90632528 0 5029
0.06950000 0.06949320 29619.68684561 0 645.42131493 0 11993.43152031 0 -652.44449057 0 2698.35877528 0 5040
0.07050000 0.07048030 28943.83213868 0 1021.33117146 0 12942.21903402 0 -656.79148529 0 2758.09396768 0 5475
0.07150000 0.07148790 28637.90380394 0 975.97228560 0 14128.17574534 0 858.53256518 0 3506.45025752 0 5509
0.07250000 0.07249820 28232.32454583 0 947.01040558 0 15736.09875551 0 14.48415099 0 2376.23162933 0 5916
0.07350000 0.07351270 27062.86559849 0 1118.07228786 0 14437.42577753 0 330.38931473 0 5338.02315669 0 5721
0.07450000 0.07449140 26489.31917288 0 290.09712471 0 14484.81532775 0 914.38690773 0 3889.58591322 0 6028
0.07550000 0.07549160 26743.87192046 0 -729.82232533 0 12302.12793625 0 2691.27248739 0 3120.85654571 0 6183
0.07650000 0.07648840 26713.31230396 0 -425.53048020 0 12866.26288576 0 1621.39802947 0 3063.13651643 0 6330
0.07750000 0.07749960 26982.81269005 0 516.95909516 0 9874.03353747 0 2573.19721553 0 1514.20685290 0 6583
0.07850000 0.07848650 26207.19633650 0 176.44192492 0 8897.63164567 0 1118.05014321 0 2513.40666151 0 6549
0.07950000 0.07947320 25693.99408116 0 985.26528782 0 9446.86324597 0 209.67993679 0 2095.80285865 0 6828
0.08050000 0.08048110 25441.32362880 0 261.17953398 0 8600.38401358 0 102.27141048 0 3012.70207688 0 7147
0.08150000 0.08149960 24930.55728491 0 394.39842451 0 8349.81730294 0 -40.98731057 0 1148.27758997 0 7386
0.08250000 0.08250610 24894.57222925 0 607.58607380 0 8368.14200051 0 -892.61982437 0 25.46989023 0 7227
0.08350000 0.08350160 24086.73541048 0 840.42045624 0 9663.73687219 0 120.74480938 0 -65.41850600 0 7798
0.08450000 0.08449610 23291.85321175 0 570.97875348 0 8452.09236729 0 221.07446626 0 -1074.01218571 0 7371
0.08550000 0.08548940 22567.94461511 0 774.46261730 0 8079.96260246 0 994.16522251 0 -1750.04737154 0 8256
0.08650000 0.08650700 22244.41128391 0 -41.35801200 0 7031.21414029 0 677.28968023 0 -2219.27035270 0 8037
0.08750000 0.08749060 22021.52538531 0 133.25985812 0 6693.25356985 0 1432.50416806 0 -1489.07267556 0 8155
0.08850000 0.08849210 21668.98256308 0 727.30226420 0 6439.02191969 0 132.22016682 0 -1928.62182621 0 8718
0.08950000 0.08949900 21302.93150458 0 4.06559159 0 6866.32507909 0 315.00874832 0 -1025.65048537 0 8571
0.09050000 0.09049190 21276.02575527 0 72.91513424 0 6314.77936290 0 -154.97047263 0 -545.10605208 0 8932
0.09150000 0.09150830 21014.49744305 0 432.34881782 0 6722.58415829 0 750.16661495 0 210.18815650 0 9285
0.09250000 0.09250820 21071.18774612 0 129.78868429 0 6973.51625566 0 776.28401473 0 544.18926358 0 9204
0.09350000 0.09350330 20814.19908708 0 468.75019289 0 6776.17421041 0 477.09761858 0 1620.67832835 0 9349
0.09450000 0.09448040 20334.65669919 0 696.57324113 0 6239.75328992 0 603.48267022 0 1046.11657056 0 9564
0.09550000 0.09549270 19684.04689284 0 642.00993166 0 6145.63852897 0 228.57596632 0 1121.72615505 0 10155
0.09650000 0.09649430 18911.86295999 0 866.92538740 0 6021.49562310 0 93.32751866 0 279.58616676 0 9913
0.09750000 0.09749140 18271.43969248 0 712.80748378 0 6217.03287940 0 -271.09369363 0 -47.24882098 0 10476
0.09850000 0.09850240 17948.12780778 0 455.52430090 0 5910.40698819 0 -201.68461104 0 225.21551574 0 10575
0.09950000 0.09950330 17075.51788882 0 642.95882989 0 5694.23091843 0 -69.84057109 0 -71.50773104 0 10882
0.10050000 0.10051200 17515.64280036 0 -117.31571038 0 5639.91009287 0 1083.38712314 0 -460.26768485 0 10875
0.10150000 0.10150300 16990.03954122 0 -152.43712471 0 6004.33351963 0 -286.74331753 0 -885.22572586 0 11118
0.10250000 0.10250800 16883.41305322 0 692.81640132 0 6046.93982553 0 144.13066663 0 -304.74802491 0 11575
0.10350000 0.10349800 16717.32818094 0 521.69251402 0 6807.57532360 0 -249.78832621 0 -141.18099930 0 11364
0.10450000 0.10450100 16289.49354994 0 276.78265412 0 6626.02241355 0 59.12244994 0 556.69766893 0 12093
0.10550000 0.10551000 16337.65816291 0 99.89938634 0 6997.64285144 0 -78.82974872 0 506.38281049 0 12067
0.10650000 0.10649700 16275.98531367 0 200.52201693 0 6893.13117747 0 371.85738564 0 326.68672931 0 12054
0.10750000 0.10749900 16025.75077276 0 69.97487839 0 6557.04182993 0 691.78003172 0 905.77263902 0 12807
0.10850000 0.10850100 16116.98672927 0 -93.22266375 0 6363.30936258 0 751.61376780 0 700.77408117 0 12736
0.10950000 0.10950300 15799.87534646 0 171.37744354 0 5517.72698850 0 1200.35073359 0 472.67311758 0 12933
0.11050000 0.11050200 15317.01126112 0 589.55700729 0 5168.72731022 0 779.11410096 0 -145.19582428 0 13428
0.11150000 0.11150900 15036.77071996 0 402.22766538 0 4120.08957129 0 712.27490496 0 534.40354291 0 13453
0.11250000 0.11250000 14491.79089239 0 269.40516409 0 3562.39871483 0 774.92101155 0 639.00047377 0 13668
0.11350000 0.11349100 14400.77638238 0 -85.27384176 0 3205.85878334 0 463.76432503 0 565.88105513 0 13791
0.11450000 0.11448600 14486.69762297 0 -324.68042405 0 3062.81541901 0 799.06089412 0 -93.81536530 0 14205
0.11550000 0.11549300 14491.23727615 0 51.54643313 0 3049.89401595 0 -0.92669712 0 76.08115480 0 14776
0.11650000 0.11649800 14599.19244313 0 240.23733882 0 2969.45357614 0 -717.56083282 0 -265.36487277 0 14553
0.11750000 0.11747300 14695.63239230 0 217.00760135 0 3381.16690219 0 -798.90920327 0 38.00940881 0 14568
0.11850000 0.11849100 14410.63075147 0 317.83108392 0 3743.22085144 0 -453.26776110 0 236.64104772 0 16015
0.11950000 0.11950300 14400.44421264 0 266.66365647 0 4335.36878274 0 -489.47204879 0 -244.93643348 0 15270
0.12050000 0.12050700 14158.18174560 0 136.03236826 0 4300.30273004 0 -346.07769176 0 -470.90708177 0 15999
0.12150000 0.12150000 13916.58361806 0 136.70888730 0 4565.24131830 0 239.34380221 0 -469.76441785 0 15670
0.12250000 0.12250700 13958.43700587 0 82.56831919 0 4480.05085115 0 170.91351313 0 -1164.50961815 0 16887
0.12350000 0.12352200 13846.93869495 0 59.90227378 0 4509.11570380 0 216.13510216 0 -686.02353004 0 16407
0.12450000 0.12449800 13863.87935192 0 35.84975185 0 4464.99248939 0 265.79669343 0 -1166.96767426 0 16306
0.12550000 0.12549900 13839.07734433 0 187.64268870 0 4571.10965045 0 121.82546828 0 -295.25461361 0 17523
0.12650000 0.12650100 13686.27926183 0 49.08317303 0 4287.74671370 0 288.30340809 0 -67.86294315 0 17154
0.12750000 0.12750600 13596.37198430 0 121.36264510 0 4611.45720209 0 786.56023940 0 544.70523392 0 18007
0.12850000 0.12850300 13599.25078876 0 11.19102014 0 4394.17389985 0 609.46504732 0 700.06766684 0 17496
0.12950000 0.12949900 13385.44419651 0 362.11595426 0 4439.27147884 0 430.19857234 0 1206.56230781 0 18405
0.13050000 0.13049000 13116.38670342 0 452.64438921 0 3995.02766247 0 41.94562028 0 1306.87757067 0 18100
0.13150000 0.13148800 12785.54563784 0 309.06955329 0 4385.50426952 0 25.14746413 0 1412.51862176 0 19059
0.13250000 0.13249300 12522.68864664 0 209.65447044 0 4331.28309488 0 54.97508923 0 1496.85651991 0 18957
0.13350000 0.13349100 12523.79587912 0 153.69051188 0 4195.25958449 0 60.18063202 0 1132.55488872 0 19468
0.13450000 0.13450700 12375.53744980 0 149.71001111 0 4072.27927273 0 -135.92275224 0 798.76083411 0 19953
0.13550000 0.13551000 11959.77165286 0 307.14075431 0 3942.92130187 0 284.51667300 0 382.05499680 0 19956
0.13650000 0.13649900 11720.49871353 0 408.43813238 0 3615.33549978 0 273.53624848 0 706.10983450 0 19723
0.13750000 0.13749600 11438.48660040 0 272.79108102 0 3494.92396738 0 213.40134516 0 527.51434240 0 20946
0.13850000 0.13851100 11243.06006735 0 162.10990767 0 3384.80969706 0 486.06287998 0 189.78296909 0 20955
0.13950000 0.13949800 11090.37270810 0 -23.33038490 0 3339.97785387 0 508.14441737 0 1038.14560393 0 20506
0.14050000 0.14048300 11296.76084272 0 -46.58647450 0 3042.11017160 0 284.02727625 0 501.97270351 0 21447
0.14150000 0.14148400 11267.64062845 0 -86.21133550 0 3064.04444706 0 122.46877035 0 432.57580048 0 21771
0.14250000 0.14249400 11337.17482831 0 110.65626062 0 3023.65260613 0 -320.33675103 0 426.13613637 0 22470
0.14350000 0.14350900 11187.91988975 0 330.15901037 0 3033.94986821 0 -560.91954638 0 220.31711924 0 22519
0.14450000 0.14449900 10963.63887823 0 251.03396275 0 3361.92320166 0 -326.38777654 0 179.73704878 0 22218
0.14550000 0.14550500 10680.41988169 0 198.10825012 0 3542.29137296 0 59.13695469 0 214.84517632 0 23559
0.14650000 0.14650700 10668.98217015 0 138.11175086 0 3430.82627901 0 351.58285166 0 203.12179880 0 23044
0.14750000 0.14750500 10616.51042284 0 83.08085711 0 3512.57325314 0 274.05554052 0 117.47183016 0 23649
0.14850000 0.14849900 10485.84591765 0 57.05270026 0 3371.98794492 0 259.50429124 0 464.12417559 0 23640
0.14950000 0.14949500 10543.70988715 0 26.06524913 0 3691.39129896 0 76.17925560 0 726.07545061 0 24457
0.15050000 0.15050000 10441.03621911 0 330.29962890 0 3603.63205245 0 141.25739834 0 1126.56476100 0 24591
0.15150000 0.15149900 10309.14268587 0 61.12233325 0 3612.17988721 0 172.99843190 0 1281.12334314 0 25020
0.15250000 0.15250500 10246.94943737 0 126.40941076 0 3345.85725835 0 544.29223620 0 1197.52729076 0 25297
0.15350000 0.15350100 9975.25673097 0 272.49655718 0 3216.37749192 0 400.04309570 0 1289.33900816 0 25452
0.15450000 0.15450400 9772.07957054 0 253.08012838 0 2893.74101903 0 292.20086643 0 1295.58379935 0 26061
0.15550000 0.15549900 9582.90890102 0 81.57037056 0 2545.72677765 0 290.35621711 0 1089.20341536 0 26128
0.15650000 0.15649500 9432.23670488 0 -22.67711774 0 2348.97156563 0 104.92743976 0 625.26525483 0 26331
0.15750000 0.15749700 9331.31246416 0 95.47267087 0 2211.07683233 0 -125.00322551 0 358.36686508 0 27345
0.15850000 0.15849900 9354.22110421 0 132.78374816 0 2058.13480961 0 -219.65942315 0 137.49834406 0 26980
0.15950000 0.15949700 9203.92536712 0 175.46534587 0 2178.23631692 0 -121.92069028 0 168.33698315 0 27777
0.16050000 0.16050000 9098.67184740 0 216.49716718 0 2261.20124679 0 -180.08139808 0 184.66976949 0 28224
0.16150000 0.16150500 8870.08370152 0 181.35028651 0 2179.49856195 0 420.47153499 0 209.72644055 0 28075
0.16250000 0.16249700 8709.21389423 0 304.10029391 0 2477.14479773 0 15.34712798 0 -8.34929690 0 28590
0.16350000 0.16349900 8513.82057815 0 268.59245545 0 2433.37589772 0 -124.75520543 0 -77.85483052 0 29163
0.16450000 0.16449100 8368.19736214 0 154.56079661 0 2508.45733231 0 -12.52158141 0 501.22753605 0 28996
0.16550000 0.16550500 8286.11821826 0 106.01540640 0 2599.00680468 0 -177.44064861 0 371.32369958 0 30777
0.16650000 0.16650700 8317.68541631 0 -58.63283174 0 2609.07154794 0 69.07868442 0 442.54864344 0 29211
0.16750000 0.16749900 8358.96304324 0 19.83396617 0 2613.03544023 0 265.19657343 0 138.89234976 0 30922
0.16850000 0.16850800 8252.52478476 0 113.48468600 0 2349.71341139 0 272.36701098 0 41.20078499 0 30867
0.16950000 0.16949900 8217.55838298 0 49.25889082 0 2327.26980898 0 141.62057059 0 140.10587656 0 30852
0.17050000 0.17049200 8184.18639598 0 -7.21873503 0 2230.30946054 0 170.73414147 0 123.03899508 0 31257
0.17150000 0.17149500 8166.88035228 0 102.07664829 0 2339.47151093 0 62.76269817 0 454.12365181 0 32608
0.17250000 0.17250900 8084.29188146 0 183.21818770 0 2240.47385473 0 -28.18028462 0 190.25686459 0 32361
0.17350000 0.17350400 7903.91263784 0 25.93149545 0 2180.84938558 0 1.84560153 0 612.18108860 0 32508
0.17450000 0.17449800 7965.19795571 0 118.30446899 0 2328.68706656 0 45.26344241 0 336.65735781 0 32791
0.17550000 0.17549800 7874.06165013 0 56.84620140 0 2261.59985048 0 13.51576546 0 335.82471898 0 33633
0.17650000 0.17650100 7841.67510004 0 97.04638040 0 2410.60012557 0 52.12009028 0 329.09274549 0 33984
0.17750000 0.17750300 7719.90167168 0 131.60343833 0 2235.34736834 0 -48.91420935 0 375.44371165 0 34069
0.17850000 0.17849800 7718.70586060 0 106.25844393 0 2290.64255848 0 116.01914115 0 105.97454952 0 34536
