### header ###
fiducial parameters:
Omega_m = 0.31
Omega_nu = 0
Omega_de = 0.69
Omega_k = 0
H_0 = 100
w_de = -1
zeff = 0
beta = 0
fgrowth = 0
b_1 = 2
gamma = 0.55
Lx = 3500 Ly = 3500 Lz = 3500
nx = 700 ny = 700 nz = 700
xoffset = -685.467585 yoffset = -31.7331281 zoffset = 572.489161
bins = 400 dk = 0.001
kx_ny = 0.628318531 ky_ny = 0.628318531 kz_ny = 0.628318531
############################
A(data) = 8.04234516 (not used)
A(ran) = 8.0340201 (used)
Ngal = 477258
weighted Ngal = 0
Nran = 23820508
weighted Nran = 0
SN(data) = 3499.57945
SN(ran) = 69.9792288
SN(data+ran) = 3569.55868
############################
13 columns: k_central k_mean P_0(k) sigma^{lin}_{P_0(k)} P^img_1(k) sigma^{lin}_{P_1(k)} P_2(k) sigma^{lin}_{P_2(k)} P^img_3(k) sigma^{lin}_{P_3(k)} P_4(k) sigma^{lin}_{P_4(k)} N_modes
### header ###
0.00050000 0 0 0 0 0 0 0 0 0 0 0 0
0.00150000 0.00179520 4517.75211715 0 -7175.09900130 0 3438.51047243 0 -2234.76053512 0 16086.98072901 0 3
0.00250000 0.00253879 9579.68685449 0 -13395.40928885 0 -2344.87480544 0 22091.50247816 0 12445.62526590 0 6
0.00350000 0.00331552 16851.52475774 0 -16947.74326041 0 17034.55028699 0 -24964.43859886 0 -6657.19100791 0 7
0.00450000 0.00420575 43772.11098231 0 -35418.70624613 0 -445.67103904 0 3551.65855975 0 -5526.67342695 0 24
0.00550000 0.00557378 79100.90995091 0 -23536.21942050 0 6281.00877220 0 -22146.86410226 0 -22900.66797591 0 45
0.00650000 0.00659388 101702.29298697 0 4016.22009217 0 26385.90365908 0 -38338.92119380 0 23106.83466403 0 40
0.00750000 0.00754703 95047.38287797 0 10892.80921636 0 39252.49871458 0 -26303.96845542 0 14256.39326674 0 57
0.00850000 0.00846663 84283.75447527 0 17974.92283384 0 42221.43189145 0 5321.39252482 0 10903.37221424 0 75
0.00950000 0.00948925 75528.75651791 0 13550.97545255 0 36678.40464074 0 20512.36751253 0 -6023.31148437 0 112
0.01050000 0.01054430 77530.96501487 0 7757.63615466 0 57370.58670833 0 34664.90237247 0 25590.68929060 0 105
0.01150000 0.01145670 68851.48031278 0 -5065.19000084 0 35922.60774862 0 25547.17505406 0 9263.79342742 0 144
0.01250000 0.01249090 71802.36560020 0 -2907.10531508 0 41334.09578049 0 18987.70838500 0 17981.56622873 0 169
0.01350000 0.01339930 74091.90092620 0 1290.86698898 0 35119.75347602 0 12000.29636170 0 8249.15879801 0 180
0.01450000 0.01448870 71277.86957354 0 7804.98141559 0 29208.68214834 0 -1094.87023120 0 23518.72514729 0 267
0.01550000 0.01550050 70012.74573976 0 3415.23644566 0 31395.57702327 0 11020.04130085 0 42866.17336564 0 238
0.01650000 0.01653350 73369.76390153 0 -9461.99911400 0 26905.19569307 0 8492.61707612 0 6606.64584511 0 315
0.01750000 0.01747870 72143.06103487 0 -8574.50799048 0 21778.15568580 0 16529.98444501 0 -11541.12705147 0 297
0.01850000 0.01844180 79916.05450405 0 -1394.74754043 0 30358.87525050 0 12278.32243789 0 -12349.07459348 0 388
0.01950000 0.01947590 80096.31195210 0 1752.40577672 0 9233.08987070 0 10615.38104571 0 16463.99338909 0 399
0.02050000 0.02045430 73338.87211528 0 8719.85439838 0 4179.54795557 0 4575.16212134 0 -4996.04333234 0 462
0.02150000 0.02154770 70040.31582856 0 6838.95429213 0 7702.48490474 0 1102.01963134 0 15811.50128752 0 571
0.02250000 0.02255340 66512.45169484 0 -1352.68377844 0 8047.50961841 0 -8476.69507304 0 -4607.99156443 0 510
0.02350000 0.02348930 68603.46023684 0 -669.11276835 0 13345.58382716 0 -8744.50139342 0 5414.72115071 0 555
0.02450000 0.02439640 67356.16284602 0 3442.95047468 0 25788.55173511 0 -6104.73736109 0 9682.06156977 0 592
0.02550000 0.02547300 70082.16921637 0 2909.48586492 0 27633.20104990 0 -8766.98928513 0 -5557.23304345 0 837
0.02650000 0.02652900 63037.40255051 0 5502.45825258 0 25215.55892574 0 -2434.41669625 0 -4808.33420969 0 723
0.02750000 0.02749970 64435.94789835 0 -921.43222801 0 32767.99168454 0 1645.02637063 0 -17201.52094526 0 826
0.02850000 0.02848090 64209.62957906 0 -368.76045639 0 31108.91453372 0 -948.13424655 0 -10565.62201797 0 831
0.02950000 0.02946900 63417.84763128 0 3680.27468485 0 29295.82134466 0 8189.75577536 0 -16633.28923556 0 996
0.03050000 0.03053250 60425.44112579 0 747.83810504 0 17759.45539287 0 12982.74374286 0 -11498.27715442 0 1041
0.03150000 0.03150510 62830.35007640 0 -1093.21824034 0 15939.94025542 0 11440.47961887 0 -15961.53128882 0 1036
0.03250000 0.03246190 57835.51362746 0 1913.84027258 0 9537.84453900 0 4178.86147143 0 -13344.91948767 0 1059
0.03350000 0.03345080 60171.66344095 0 5137.01617194 0 10578.39948081 0 -2544.08807358 0 -11341.27158849 0 1302
0.03450000 0.03451200 52299.90483438 0 1395.09078250 0 12318.62570023 0 -2659.05202217 0 789.16555743 0 1339
0.03550000 0.03553350 53629.58032185 0 2112.22311635 0 17773.51724539 0 -677.15791956 0 2546.97795036 0 1365
0.03650000 0.03647120 50243.88483881 0 -349.28755873 0 19363.28164285 0 1623.60142211 0 -1451.29390328 0 1308
0.03750000 0.03744890 52273.88487106 0 229.43407150 0 21574.75707888 0 3736.10134658 0 -3339.64568412 0 1579
0.03850000 0.03847530 49926.33056301 0 2514.51389399 0 18883.07491546 0 1037.46133425 0 1677.80045209 0 1662
0.03950000 0.03950240 50579.59772731 0 1546.85913879 0 21287.09808009 0 -2464.40055186 0 6485.18244185 0 1683
0.04050000 0.04050350 48836.14946136 0 2519.96147780 0 23389.84328640 0 1250.46407572 0 5963.64272592 0 1822
0.04150000 0.04152450 46696.42269016 0 588.06999407 0 22928.12734146 0 1594.92410083 0 2551.90513490 0 1887
0.04250000 0.04250150 45040.33506703 0 617.70839315 0 17869.51430157 0 4087.72516585 0 7433.71529209 0 1920
0.04350000 0.04349210 46220.31272296 0 303.02184947 0 18374.74448304 0 2350.00129183 0 -3583.36969803 0 2005
0.04450000 0.04448520 43939.52453356 0 746.05656798 0 14952.73177459 0 2400.23642954 0 -1184.57267072 0 2151
0.04550000 0.04548030 45283.48332005 0 556.79510539 0 15306.38182930 0 1410.78026677 0 -4559.97089169 0 2274
0.04650000 0.04648670 42854.87959433 0 262.53810824 0 10686.57609429 0 -1291.38738825 0 -4114.36517936 0 2311
0.04750000 0.04749250 43452.89585778 0 932.31410884 0 13708.20246497 0 883.65013403 0 -6124.62325646 0 2568
0.04850000 0.04851840 40629.78519877 0 2846.29610718 0 11396.63321258 0 2077.14599133 0 -3340.55361476 0 2493
0.04950000 0.04949480 39712.77525729 0 1086.04669556 0 10762.01184328 0 2777.10514939 0 -1108.93761989 0 2644
0.05050000 0.05050630 38847.80524246 0 327.99879980 0 10356.66510399 0 2368.46992963 0 -2283.82200639 0 2829
0.05150000 0.05149060 38140.72657954 0 -137.16949602 0 9371.77073905 0 3317.78891493 0 166.28749582 0 2784
0.05250000 0.05249300 38899.73444586 0 -1144.57943348 0 8775.08315457 0 2222.94636454 0 -700.17839009 0 3055
0.05350000 0.05348950 38810.71295432 0 0.12751554 0 8125.56950839 0 1742.42961206 0 3147.40798062 0 3009
0.05450000 0.05448610 39848.07906658 0 698.11783044 0 7875.99930697 0 390.91285665 0 2520.17185197 0 3336
0.05550000 0.05550870 37226.26327277 0 1008.93681105 0 6581.92134379 0 551.68522748 0 3864.48495285 0 3349
0.05650000 0.05647670 37273.20993000 0 1894.92874179 0 8497.72141787 0 1141.36845928 0 5193.48502851 0 3324
0.05750000 0.05747970 36871.06309259 0 839.40290959 0 8220.21574094 0 -1867.23685742 0 6492.00299394 0 3639
0.05850000 0.05849280 35308.31516768 0 1855.82129053 0 12533.42880171 0 -1735.70871090 0 8202.07927288 0 3846
0.05950000 0.05951020 33613.80657744 0 2347.80897152 0 12910.99507803 0 -1201.41367677 0 8870.11691849 0 3787
0.06050000 0.06049470 32893.99474098 0 1656.89590284 0 13535.36347455 0 -1096.32845638 0 6955.75624665 0 3930
0.06150000 0.06148310 31880.43412708 0 620.19413007 0 14811.00601691 0 -842.70467685 0 7241.38900999 0 4083
0.06250000 0.06249100 31756.97770535 0 760.43287452 0 15266.18929020 0 1439.07005668 0 6096.14523703 0 4303
0.06350000 0.06350600 31175.34848263 0 -724.20754941 0 14134.70841699 0 1795.82036234 0 2854.74429102 0 4470
0.06450000 0.06451750 31028.52945553 0 -53.98289821 0 13888.12774328 0 1911.22720392 0 1334.68017829 0 4479
0.06550000 0.06550280 30877.94583800 0 808.40925796 0 11590.73106666 0 393.10517697 0 9.06049447 0 4636
0.06650000 0.06648880 30660.81754831 0 245.00840359 0 11582.20537654 0 1975.90065319 0 482.41344172 0 4653
0.06750000 0.06749660 30419.33014401 0 -498.01545462 0 8918.28153145 0 1164.79749860 0 -470.81628871 0 5220
0.06850000 0.06852730 30512.00550274 0 -8.51885849 0 8276.39671707 0 1843.04382769 0 -1075.55123886 0 5029
0.06950000 0.06949320 30579.32523764 0 372.87382506 0 8658.94553955 0 34.97946712 0 -1512.25812373 0 5040
0.07050000 0.07048030 29966.13988918 0 1125.24715434 0 8565.00793579 0 -484.06653982 0 -1523.91728176 0 5475
0.07150000 0.07148790 28760.80660943 0 1648.90168432 0 10085.89140055 0 -2311.79069889 0 -61.33005006 0 5509
0.07250000 0.07249820 27865.71987109 0 972.39924639 0 10025.04897567 0 -206.13236392 0 -275.43072326 0 5916
0.07350000 0.07351270 27322.40089224 0 344.30833426 0 9899.28951038 0 288.07421097 0 -709.39056434 0 5721
0.07450000 0.07449140 26811.74527160 0 185.05508639 0 10098.43634457 0 1023.17692800 0 -490.86162556 0 6028
0.07550000 0.07549160 27164.28809383 0 -332.40558508 0 9646.71870895 0 1128.90102153 0 -1108.92654756 0 6183
0.07650000 0.07648840 27282.87269263 0 40.21988773 0 9166.67806643 0 1663.29570658 0 -1833.78736414 0 6330
0.07750000 0.07749960 26563.50374917 0 796.37364088 0 9205.89624094 0 -176.18615421 0 -1803.36061554 0 6583
0.07850000 0.07848650 25936.81016443 0 1533.78272318 0 9139.34049646 0 -1471.41231747 0 -778.49737246 0 6549
0.07950000 0.07947320 25436.45180588 0 353.52272297 0 9896.52142918 0 -1392.01267620 0 -1823.25758324 0 6828
0.08050000 0.08048110 25146.02472588 0 623.82253091 0 9675.37388558 0 214.56172480 0 -1165.65006761 0 7147
0.08150000 0.08149960 24302.42429795 0 603.82480505 0 9910.04073778 0 230.52248103 0 -2002.51852205 0 7386
0.08250000 0.08250610 24255.36691747 0 -112.62879529 0 9343.82419121 0 182.56270607 0 -2036.44412530 0 7227
0.08350000 0.08350160 24460.42637311 0 -338.24402195 0 8687.66715013 0 1510.29832224 0 -2540.61136359 0 7798
0.08450000 0.08449610 23978.33735051 0 470.98901697 0 7547.36163403 0 1350.33644558 0 -2815.48182721 0 7371
0.08550000 0.08548940 24180.85017144 0 -80.83538963 0 7256.19270828 0 526.38164358 0 -2844.11485919 0 8256
0.08650000 0.08650700 23681.04542913 0 -320.86157922 0 7247.73345211 0 1097.36039706 0 -3099.74162228 0 8037
0.08750000 0.08749060 24036.13488606 0 176.80731163 0 6412.21582130 0 338.93714949 0 -3312.76207947 0 8155
0.08850000 0.08849210 23613.50424773 0 786.65324693 0 6469.11649854 0 527.29068144 0 -3231.30298577 0 8718
0.08950000 0.08949900 22825.81906014 0 1078.43225778 0 5407.21411449 0 -595.12085052 0 -2059.14239117 0 8571
0.09050000 0.09049190 21856.76919201 0 1167.14483146 0 6672.89156450 0 -193.63170920 0 -2028.84851047 0 8932
0.09150000 0.09150830 21133.52493485 0 898.60220147 0 7279.99820664 0 60.86235506 0 -1125.22500969 0 9285
0.09250000 0.09250820 20137.23714767 0 680.46965191 0 6823.80735178 0 490.58260297 0 -652.62054053 0 9204
0.09350000 0.09350330 20045.00468193 0 -56.35215427 0 6741.21888096 0 1312.14799728 0 414.03740704 0 9349
0.09450000 0.09448040 19504.78595403 0 374.48152662 0 6446.99399355 0 1206.37407829 0 783.35258690 0 9564
0.09550000 0.09549270 19647.50822094 0 288.69426116 0 6286.81067040 0 1430.28970310 0 1241.40691402 0 10155
0.09650000 0.09649430 18876.65296707 0 478.88358457 0 6381.89979595 0 896.06331739 0 1499.95677086 0 9913
0.09750000 0.09749140 18667.38602800 0 630.81470403 0 5959.98885873 0 -110.43747148 0 1318.81353682 0 10476
0.09850000 0.09850240 18088.08199349 0 439.53918556 0 6345.06217127 0 -982.44184500 0 1379.83311890 0 10575
0.09950000 0.09950330 17704.75810826 0 430.19192895 0 6753.89669288 0 -350.19438213 0 808.63956232 0 10882
0.10050000 0.10051200 17511.43531693 0 365.80414566 0 6991.20983072 0 142.58939901 0 1216.36131528 0 10875
0.10150000 0.10150300 17445.66570751 0 205.48241845 0 7072.08209119 0 -199.67830578 0 449.27508077 0 11118
0.10250000 0.10250800 17146.15932116 0 398.85282078 0 7010.46460358 0 -120.45692893 0 -242.30343463 0 11575
0.10350000 0.10349800 16854.18211570 0 586.27738468 0 6986.12763362 0 333.62354081 0 481.47672304 0 11364
0.10450000 0.10450100 16281.07858308 0 471.88919698 0 6449.68456849 0 794.20346522 0 264.13252301 0 12093
0.10550000 0.10551000 16187.51743836 0 -183.57028763 0 6163.60891215 0 715.78151023 0 572.05609069 0 12067
0.10650000 0.10649700 16252.51198505 0 -117.95901246 0 5887.23261235 0 752.35007740 0 -350.98937505 0 12054
0.10750000 0.10749900 16568.07324238 0 -77.92015723 0 5881.40856949 0 642.49379225 0 -38.84957681 0 12807
0.10850000 0.10850100 16151.31093621 0 86.21753600 0 5359.59204544 0 183.99214321 0 692.19745836 0 12736
0.10950000 0.10950300 16111.56129011 0 438.25590311 0 5052.09144058 0 472.08517713 0 292.91724584 0 12933
0.11050000 0.11050200 15851.69382662 0 312.22848756 0 4925.51262325 0 -62.55420630 0 456.83083523 0 13428
0.11150000 0.11150900 15597.58397203 0 654.64345428 0 5073.99249907 0 119.40505808 0 485.58344832 0 13453
0.11250000 0.11250000 14811.11674016 0 391.47422352 0 5008.11216640 0 -131.51596696 0 1247.35275244 0 13668
0.11350000 0.11349100 14751.76907913 0 201.67575318 0 5452.11239162 0 637.22668734 0 1168.29635324 0 13791
0.11450000 0.11448600 14721.32018588 0 -138.63215012 0 5173.17838479 0 727.11735638 0 1014.27920778 0 14205
0.11550000 0.11549300 14503.63827994 0 312.06461715 0 5107.44199235 0 171.98752864 0 1412.74006826 0 14776
0.11650000 0.11649800 14535.19440568 0 270.45592772 0 5278.90801449 0 -96.19558296 0 842.63935014 0 14553
0.11750000 0.11747300 14240.89201200 0 112.28998215 0 5595.79795080 0 -647.79743584 0 1120.16495725 0 14568
0.11850000 0.11849100 14236.46308207 0 279.54409193 0 5937.43453308 0 -352.80191463 0 931.75938537 0 16015
0.11950000 0.11950300 14120.42511797 0 206.70148141 0 5850.22890280 0 -268.84933339 0 929.01455605 0 15270
0.12050000 0.12050700 13879.71277641 0 145.55567483 0 5556.42476374 0 189.55598643 0 271.51776367 0 15999
0.12150000 0.12150000 13842.73121152 0 -46.82054345 0 5052.46789962 0 383.77120714 0 -558.01084665 0 15670
0.12250000 0.12250700 13695.46929143 0 -59.62004022 0 4656.41084086 0 726.92580516 0 -82.06098527 0 16887
0.12350000 0.12352200 13674.43187428 0 25.98442116 0 3914.79759683 0 1160.23570077 0 -605.06822713 0 16407
0.12450000 0.12449800 13479.89112721 0 202.94796330 0 3370.05028808 0 1014.28585117 0 -271.88868655 0 16306
0.12550000 0.12549900 13568.91261875 0 294.59470305 0 3340.62004871 0 673.90376330 0 -665.29170905 0 17523
0.12650000 0.12650100 12839.46785970 0 439.24134002 0 3153.67491647 0 -103.38938312 0 96.88151348 0 17154
0.12750000 0.12750600 12774.80548276 0 389.74472638 0 3776.55962147 0 -713.44524969 0 803.71569947 0 18007
0.12850000 0.12850300 12504.75148043 0 28.82081861 0 4211.09300898 0 -378.82630688 0 797.16420488 0 17496
0.12950000 0.12949900 12752.43938663 0 -162.51958369 0 4622.19735717 0 -258.56978702 0 995.80946275 0 18405
0.13050000 0.13049000 12780.45236842 0 -150.71980713 0 4536.09895938 0 154.28952465 0 1068.82923046 0 18100
0.13150000 0.13148800 12828.39553488 0 52.57914887 0 4283.92676163 0 290.01961844 0 485.12616130 0 19059
0.13250000 0.13249300 12867.37011825 0 36.14073255 0 4007.43973859 0 858.30115359 0 1177.68568469 0 18957
0.13350000 0.13349100 12695.08474407 0 318.58621647 0 3909.36108534 0 514.81549307 0 747.60669345 0 19468
0.13450000 0.13450700 12384.83820265 0 395.78578680 0 3558.67841369 0 145.29547520 0 715.57002882 0 19953
0.13550000 0.13551000 11964.75419903 0 358.17974279 0 3103.69444224 0 407.77047119 0 1073.18176135 0 19956
0.13650000 0.13649900 11620.95851341 0 331.45890131 0 3182.36331008 0 -79.60846532 0 735.15807866 0 19723
0.13750000 0.13749600 11523.41133176 0 363.61514704 0 3122.65026233 0 -172.78030710 0 428.47128967 0 20946
0.13850000 0.13851100 11181.27649486 0 123.16300512 0 3179.00839566 0 -52.69662623 0 129.40890355 0 20955
0.13950000 0.13949800 11279.48801600 0 42.37290129 0 3226.01041451 0 17.06145604 0 345.90828519 0 20506
0.14050000 0.14048300 11119.16075263 0 6.25632856 0 3211.39494575 0 -29.35893360 0 272.59177918 0 21447
0.14150000 0.14148400 11437.15792142 0 -229.74852552 0 3357.87073078 0 394.31981100 0 -328.84583265 0 21771
0.14250000 0.14249400 11480.00781847 0 -230.00983239 0 3018.58148136 0 93.67563256 0 -455.86865020 0 22470
0.14350000 0.14350900 11585.30562749 0 174.10234268 0 3196.48052422 0 -85.22944174 0 -438.27694053 0 22519
0.14450000 0.14449900 11458.19533858 0 445.56917365 0 3263.24664288 0 -382.21665274 0 -68.02692428 0 22218
0.14550000 0.14550500 11156.58521052 0 266.96150200 0 3351.39342076 0 -70.80939951 0 -163.79954444 0 23559
0.14650000 0.14650700 10785.33015935 0 155.91162024 0 3274.23038910 0 234.57495191 0 150.72534329 0 23044
0.14750000 0.14750500 10939.52335477 0 34.31678848 0 3330.09026781 0 367.16161268 0 -518.60665709 0 23649
0.14850000 0.14849900 10677.81788536 0 192.70163391 0 3124.05644758 0 316.78585646 0 -95.56169237 0 23640
0.14950000 0.14949500 10611.37286412 0 341.17265187 0 3111.12397219 0 213.77226804 0 20.12882218 0 24457
0.15050000 0.15050000 10244.90105727 0 228.63132795 0 2769.73098106 0 -41.46917814 0 548.36020834 0 24591
0.15150000 0.15149900 10173.73922566 0 122.84633663 0 2974.82365368 0 32.56005342 0 193.13677628 0 25020
0.15250000 0.15250500 10076.83423885 0 159.84008108 0 3016.78776474 0 92.11388114 0 204.64202900 0 25297
0.15350000 0.15350100 9900.46317682 0 220.66811194 0 2716.43988171 0 54.70625319 0 200.66595715 0 25452
0.15450000 0.15450400 9813.31290817 0 -20.53993760 0 2922.09724289 0 -157.84927708 0 169.16630028 0 26061
0.15550000 0.15549900 9891.98177600 0 -128.88961152 0 2878.35048753 0 317.23650008 0 510.67001466 0 26128
0.15650000 0.15649500 10025.61366424 0 53.77385271 0 3062.60504484 0 256.45718745 0 178.99520302 0 26331
0.15750000 0.15749700 9849.17616826 0 220.64818175 0 3125.14153541 0 55.53833840 0 337.97164276 0 27345
0.15850000 0.15849900 9796.17294935 0 340.48616773 0 3134.16548014 0 -60.58056440 0 598.15798921 0 26980
0.15950000 0.15949700 9390.61583589 0 331.75010345 0 3204.36401949 0 90.91629849 0 1255.15874144 0 27777
0.16050000 0.16050000 9178.22650122 0 350.97387380 0 3439.58448794 0 66.32233988 0 1030.20563980 0 28224
0.16150000 0.16150500 9080.25857122 0 101.81667010 0 3303.12915687 0 210.68419665 0 1233.16910435 0 28075
0.16250000 0.16249700 8848.74733159 0 55.42451490 0 3297.59299446 0 247.38673896 0 1077.13901024 0 28590
0.16350000 0.16349900 8813.43768774 0 66.99465144 0 2901.18162131 0 190.24911396 0 927.67148305 0 29163
0.16450000 0.16449100 8814.05773793 0 82.74348337 0 2944.30832648 0 2.67026829 0 655.09409790 0 28996
0.16550000 0.16550500 8734.41450551 0 -48.99636600 0 2659.60563841 0 188.68680893 0 675.00324515 0 30777
0.16650000 0.16650700 8888.34196514 0 -173.45239721 0 2488.09532697 0 377.88848097 0 742.25654610 0 29211
0.16750000 0.16749900 8919.98666947 0 -49.98180291 0 2302.95498368 0 165.63312143 0 312.11001369 0 30922
0.16850000 0.16850800 9036.03570590 0 50.08676855 0 2271.90818489 0 180.17662008 0 430.57835308 0 30867
0.16950000 0.16949900 8807.25933050 0 297.55876441 0 2382.06674451 0 49.16986933 0 536.57150411 0 30852
0.17050000 0.17049200 8668.08020753 0 230.26228139 0 2158.93725476 0 -3.22859027 0 753.90352458 0 31257
0.17150000 0.17149500 8465.47880799 0 169.00464433 0 2240.26348056 0 62.39321469 0 850.06777286 0 32608
0.17250000 0.17250900 8408.67778167 0 65.63341983 0 2224.93938301 0 -17.75746237 0 491.70533671 0 32361
0.17350000 0.17350400 8305.39513577 0 148.69357169 0 2260.09401431 0 100.80310949 0 632.27957261 0 32508
0.17450000 0.17449800 8151.17979569 0 74.07263508 0 2207.25688027 0 -154.99151004 0 482.84415516 0 32791
0.17550000 0.17549800 8168.93980470 0 110.90483431 0 2326.24008277 0 26.15283122 0 475.79108425 0 33633
0.17650000 0.17650100 8072.58843413 0 55.28500361 0 2299.11288697 0 4.17026935 0 217.41727737 0 33984
0.17750000 0.17750300 8054.11979633 0 34.98267809 0 2361.02932735 0 30.78670988 0 131.56025626 0 34069
0.17850000 0.17849800 8026.26182709 0 44.80637684 0 2220.07863241 0 -144.67431778 0 -103.77935040 0 34536
