### header ###
fiducial parameters:
Omega_m = 0.31
Omega_nu = 0
Omega_de = 0.69
Omega_k = 0
H_0 = 100
w_de = -1
zeff = 0
beta = 0
fgrowth = 0
b_1 = 2
gamma = 0.55
Lx = 3500 Ly = 3500 Lz = 3500
nx = 700 ny = 700 nz = 700
xoffset = -685.467585 yoffset = -31.7331281 zoffset = 572.489161
bins = 400 dk = 0.001
kx_ny = 0.628318531 ky_ny = 0.628318531 kz_ny = 0.628318531
############################
A(data) = 8.07215711 (not used)
A(ran) = 8.06589964 (used)
Ngal = 478883
weighted Ngal = 0
Nran = 23820508
weighted Nran = 0
SN(data) = 3493.97476
SN(ran) = 70.2569111
SN(data+ran) = 3564.23167
############################
13 columns: k_central k_mean P_0(k) sigma^{lin}_{P_0(k)} P^img_1(k) sigma^{lin}_{P_1(k)} P_2(k) sigma^{lin}_{P_2(k)} P^img_3(k) sigma^{lin}_{P_3(k)} P_4(k) sigma^{lin}_{P_4(k)} N_modes
### header ###
0.00050000 0 0 0 0 0 0 0 0 0 0 0 0
0.00150000 0.00179520 36116.48415620 0 -52895.92807937 0 -33015.79031398 0 18587.99745905 0 65326.16281377 0 3
0.00250000 0.00253879 54718.54346776 0 -44019.02382576 0 -17887.89436076 0 -19936.05300572 0 3663.01293045 0 6
0.00350000 0.00331552 66629.48616818 0 -9510.38517345 0 4358.53208626 0 -81616.76359620 0 -37266.78798161 0 7
0.00450000 0.00420575 76214.90848693 0 2992.89368778 0 -17165.86805934 0 -22851.72830021 0 53883.46872994 0 24
0.00550000 0.00557378 67825.18652534 0 -8771.37392576 0 -33913.97730327 0 -30165.44173592 0 -6243.45144641 0 45
0.00650000 0.00659388 77061.83061230 0 -707.00669281 0 -6874.04248949 0 -8369.02778650 0 10181.50092536 0 40
0.00750000 0.00754703 77350.59684357 0 -12235.80471059 0 -5044.29652390 0 -38276.25183532 0 -58316.93831058 0 57
0.00850000 0.00846663 67004.28436329 0 9172.72355578 0 -25186.21726497 0 879.27878020 0 -14721.98452537 0 75
0.00950000 0.00948925 75047.66400454 0 7444.09006045 0 -15996.85200499 0 -40601.21860074 0 -17241.93493084 0 112
0.01050000 0.01054430 53193.66289374 0 2373.07601676 0 -11233.09497501 0 109.92172259 0 -1790.77138222 0 105
0.01150000 0.01145670 72552.18343692 0 -2492.64605247 0 -7825.99668809 0 -10516.12872603 0 -1956.16977036 0 144
0.01250000 0.01249090 68695.24980959 0 -10515.89620721 0 -3611.38267982 0 878.09182698 0 4248.76105801 0 169
0.01350000 0.01339930 85148.06015061 0 -11412.79880682 0 2496.48814919 0 10734.85143050 0 -1410.68061584 0 180
0.01450000 0.01448870 90384.82689684 0 -3985.49439080 0 12638.28371775 0 558.18136046 0 9047.42912814 0 267
0.01550000 0.01550050 92338.53861109 0 7707.60031881 0 18300.00629051 0 3581.42096886 0 20403.08366657 0 238
0.01650000 0.01653350 81949.04406401 0 4026.36234170 0 19475.11212352 0 5000.79335969 0 8766.11457147 0 315
0.01750000 0.01747870 86377.86326822 0 731.54185737 0 8692.97079372 0 7179.56114821 0 16366.44620743 0 297
0.01850000 0.01844180 72783.04140939 0 3795.34935669 0 11638.56350987 0 2648.27865012 0 -6099.74374259 0 388
0.01950000 0.01947590 79722.06737323 0 5493.40109087 0 13095.01711652 0 -13275.71745756 0 9683.79992476 0 399
0.02050000 0.02045430 69292.04811732 0 5723.04110761 0 6550.05519297 0 249.41740333 0 -237.80917799 0 462
0.02150000 0.02154770 68065.67742040 0 -2007.81109331 0 9641.71401813 0 -14303.11847748 0 -3027.21789472 0 571
0.02250000 0.02255340 71284.07007544 0 1003.41725713 0 9756.21292908 0 6398.75187432 0 -8083.19572131 0 510
0.02350000 0.02348930 74292.42072866 0 -2630.78437691 0 15102.87249913 0 -4206.61978975 0 -13219.91294047 0 555
0.02450000 0.02439640 71652.11415241 0 -235.71540137 0 10500.54996501 0 4927.02953175 0 3934.66134755 0 592
0.02550000 0.02547300 71555.45275674 0 2942.94643052 0 14837.80104297 0 -2911.11349667 0 -5404.83356465 0 837
0.02650000 0.02652900 73067.37871073 0 3853.78908708 0 13897.31777288 0 -4609.71884710 0 -12956.94522603 0 723
0.02750000 0.02749970 64354.89848068 0 5280.33634439 0 18083.54234031 0 -1192.38973204 0 -3314.05754147 0 826
0.02850000 0.02848090 62570.15044316 0 5290.37894300 0 18491.11461688 0 -8825.96048711 0 -3329.29306042 0 831
0.02950000 0.02946900 61878.35158849 0 -18.00016773 0 21198.18731179 0 755.21559507 0 -2772.97517223 0 996
0.03050000 0.03053250 60759.49316557 0 -286.91826026 0 24189.92947779 0 8534.82477833 0 -14647.57850259 0 1041
0.03150000 0.03150510 61570.87312828 0 3048.08922700 0 18999.99866555 0 1755.38423210 0 -6058.57683892 0 1036
0.03250000 0.03246190 58350.48745478 0 2747.70812700 0 22098.47804280 0 1681.90828460 0 -12029.74874571 0 1059
0.03350000 0.03345080 56220.72577591 0 3374.95532797 0 23148.46660535 0 207.68359662 0 -686.17964982 0 1302
0.03450000 0.03451200 52736.37587873 0 3104.83489170 0 27321.84727600 0 1068.82812323 0 -2503.44156917 0 1339
0.03550000 0.03553350 52801.70259516 0 3566.29617316 0 29239.57393458 0 1184.06334378 0 4888.80786648 0 1365
0.03650000 0.03647120 50726.85964739 0 504.77400169 0 28272.95997792 0 3796.22407035 0 -10.01751979 0 1308
0.03750000 0.03744890 49958.55102823 0 2787.57956867 0 28279.49264956 0 2913.77085463 0 7257.36637471 0 1579
0.03850000 0.03847530 47449.67294757 0 -198.94310341 0 27898.05105956 0 1716.56466128 0 3941.79192474 0 1662
0.03950000 0.03950240 48875.12404472 0 20.79205444 0 30758.69689970 0 4792.89938890 0 2144.75360667 0 1683
0.04050000 0.04050350 46561.34032737 0 1126.28795288 0 22526.09122730 0 5869.57225426 0 2826.03375276 0 1822
0.04150000 0.04152450 45914.60583471 0 135.76552523 0 21207.37734139 0 5810.35746113 0 -5348.24291250 0 1887
0.04250000 0.04250150 44522.59315851 0 1153.10512359 0 17294.19630399 0 1193.04299921 0 -748.40832977 0 1920
0.04350000 0.04349210 47366.96268118 0 -683.50679061 0 19617.94511368 0 2363.04449047 0 -1283.40424205 0 2005
0.04450000 0.04448520 43435.73375432 0 53.73521030 0 13208.84061565 0 2879.56844326 0 -1600.51562486 0 2151
0.04550000 0.04548030 44340.45341525 0 2520.75868519 0 14704.49025216 0 -412.17282754 0 -6377.69231251 0 2274
0.04650000 0.04648670 43935.87066637 0 562.41209577 0 14652.11815576 0 -366.44634050 0 -3599.18097787 0 2311
0.04750000 0.04749250 42528.79962842 0 1389.59890939 0 17565.13609230 0 -1086.24489017 0 -2054.21520663 0 2568
0.04850000 0.04851840 41452.90182579 0 2003.44859734 0 17263.52596424 0 -2568.64649003 0 718.08787549 0 2493
0.04950000 0.04949480 40615.39117651 0 937.60668011 0 20445.04777763 0 1650.67325629 0 214.76324111 0 2644
0.05050000 0.05050630 40526.70185471 0 2472.78230175 0 20492.43732785 0 4190.31025529 0 3214.78307715 0 2829
0.05150000 0.05149060 36922.99229599 0 476.94260603 0 17913.47143110 0 3460.24544605 0 1654.49320835 0 2784
0.05250000 0.05249300 38056.02329468 0 682.01977739 0 17739.74665469 0 4240.62289927 0 5386.63066265 0 3055
0.05350000 0.05348950 37244.86477847 0 -61.95408629 0 14798.93718286 0 3173.67153509 0 2156.20239053 0 3009
0.05450000 0.05448610 36045.17838437 0 -454.35727786 0 14508.17793312 0 200.97487502 0 1813.75752854 0 3336
0.05550000 0.05550870 38588.60211846 0 -238.71600139 0 13089.37023086 0 1653.78457956 0 -201.16642624 0 3349
0.05650000 0.05647670 36862.75884897 0 766.95115214 0 12108.91586817 0 -1490.15776339 0 -1669.38548523 0 3324
0.05750000 0.05747970 36314.67877045 0 2247.19475589 0 12843.45389664 0 -2417.21030348 0 -3767.41388117 0 3639
0.05850000 0.05849280 34424.19003092 0 2020.92072590 0 13142.29594349 0 -2402.99343842 0 -1776.44379390 0 3846
0.05950000 0.05951020 33419.59800012 0 1559.43729978 0 13740.64437669 0 382.41706182 0 -1001.47184966 0 3787
0.06050000 0.06049470 32568.13622157 0 -618.47570525 0 13244.05060858 0 2868.30788892 0 -2088.12973755 0 3930
0.06150000 0.06148310 32825.78922010 0 -855.47438907 0 12935.46491588 0 4533.88449441 0 -1105.85619189 0 4083
0.06250000 0.06249100 33201.69464769 0 160.79340825 0 10436.21975782 0 2469.39417035 0 -528.00041746 0 4303
0.06350000 0.06350600 32882.59024642 0 1267.22757549 0 11674.10567254 0 2398.18804945 0 -124.55701081 0 4470
0.06450000 0.06451750 30702.33876638 0 1704.58440583 0 9759.45712025 0 -1378.79232037 0 1262.66577767 0 4479
0.06550000 0.06550280 30382.34857912 0 728.58111772 0 11020.99352079 0 162.71224214 0 2245.12423115 0 4636
0.06650000 0.06648880 29977.32293725 0 -373.08973539 0 11529.50111041 0 471.57363572 0 3302.12157531 0 4653
0.06750000 0.06749660 30236.85823100 0 -87.06445813 0 11299.63964717 0 2163.91980093 0 3433.48363696 0 5220
0.06850000 0.06852730 30382.12713262 0 56.27320860 0 11067.88481639 0 1349.78282934 0 3759.40859032 0 5029
0.06950000 0.06949320 29436.99348610 0 1293.38040672 0 12061.41559470 0 1317.61772574 0 4277.23907744 0 5040
0.07050000 0.07048030 29450.28027588 0 599.10688745 0 10793.92228341 0 -555.44649622 0 5311.37207086 0 5475
0.07150000 0.07148790 28980.48153383 0 -111.67214642 0 11294.87854750 0 672.38906926 0 5070.30541490 0 5509
0.07250000 0.07249820 28973.83813894 0 186.76354611 0 11953.12825797 0 723.98610292 0 3246.59386635 0 5916
0.07350000 0.07351270 28708.65595953 0 562.85609599 0 11143.40914398 0 101.51705299 0 2724.77734230 0 5721
0.07450000 0.07449140 27857.85852047 0 951.58770466 0 11046.72560367 0 497.59692074 0 1774.34005219 0 6028
0.07550000 0.07549160 27788.76721360 0 463.75546717 0 9626.33455896 0 121.48554791 0 1334.73553991 0 6183
0.07650000 0.07648840 26671.45891615 0 390.42899606 0 9338.74199412 0 1176.21306548 0 -92.20079889 0 6330
0.07750000 0.07749960 26475.81093660 0 689.36183598 0 10034.43830712 0 -530.21377520 0 -33.16515598 0 6583
0.07850000 0.07848650 25806.48890132 0 693.65568354 0 10623.77386792 0 -437.06341373 0 -120.21887395 0 6549
0.07950000 0.07947320 25270.03476385 0 1097.30724990 0 10676.61100195 0 -292.19090134 0 1310.62001646 0 6828
0.08050000 0.08048110 24794.69985939 0 494.50552766 0 10010.07919252 0 674.06652647 0 2093.40016416 0 7147
0.08150000 0.08149960 24225.80381021 0 -41.57724403 0 10371.81204435 0 1574.45137224 0 1403.48360471 0 7386
0.08250000 0.08250610 23911.79267835 0 596.71969422 0 10042.66504446 0 1543.06133138 0 1748.89584975 0 7227
0.08350000 0.08350160 23557.03539116 0 726.57038353 0 9083.28131590 0 1285.06509078 0 1844.10677087 0 7798
0.08450000 0.08449610 22660.28780410 0 304.40146115 0 7052.56158254 0 1764.26423660 0 1744.28976263 0 7371
0.08550000 0.08548940 22565.95159664 0 -250.75936910 0 7631.85454472 0 480.12700665 0 2115.89912819 0 8256
0.08650000 0.08650700 22402.41335907 0 134.23200824 0 6632.99797818 0 699.55280374 0 1922.39917966 0 8037
0.08750000 0.08749060 22702.14119191 0 187.27065859 0 7389.18240167 0 -3.86873673 0 950.04311534 0 8155
0.08850000 0.08849210 21851.01158310 0 687.30791972 0 7252.93744478 0 -1131.25942672 0 1649.28921569 0 8718
0.08950000 0.08949900 21807.16517682 0 1461.92333511 0 8593.64096777 0 -120.63187167 0 1996.80520244 0 8571
0.09050000 0.09049190 20409.50561496 0 766.38646358 0 8201.80246476 0 -653.94811228 0 1693.63387658 0 8932
0.09150000 0.09150830 20382.04624941 0 464.99224585 0 9226.34682488 0 725.03797377 0 2149.47041704 0 9285
0.09250000 0.09250820 20133.91545023 0 133.56877598 0 9356.51307545 0 425.53712359 0 1783.95083013 0 9204
0.09350000 0.09350330 19614.40196974 0 516.08770319 0 8920.47385177 0 1053.44202066 0 1279.18568630 0 9349
0.09450000 0.09448040 19208.26909539 0 501.37922690 0 8534.70298276 0 675.62883150 0 1038.02491559 0 9564
0.09550000 0.09549270 18582.57201989 0 382.02067259 0 7819.74082457 0 340.66443216 0 1032.09014948 0 10155
0.09650000 0.09649430 18444.94302239 0 443.25173607 0 7686.89507140 0 262.71747990 0 1061.78833911 0 9913
0.09750000 0.09749140 18159.83065831 0 161.63158324 0 7310.80141428 0 685.49648738 0 1667.81321511 0 10476
0.09850000 0.09850240 18028.51288596 0 -189.62352761 0 7235.87499223 0 754.18365439 0 1233.15803203 0 10575
0.09950000 0.09950330 18010.24355001 0 173.25420260 0 6790.43536478 0 567.53304600 0 766.81717701 0 10882
0.10050000 0.10051200 17505.78843127 0 527.09137960 0 6360.30876255 0 513.50563704 0 1212.22026580 0 10875
0.10150000 0.10150300 17120.25008109 0 434.66293371 0 6225.21532744 0 764.08452725 0 891.42179882 0 11118
0.10250000 0.10250800 17059.24157134 0 -44.79231499 0 5698.89236718 0 290.94637203 0 497.72203802 0 11575
0.10350000 0.10349800 16692.85834309 0 304.94400506 0 5394.74667674 0 495.54189726 0 171.03973764 0 11364
0.10450000 0.10450100 16542.27472555 0 392.79183017 0 4879.75070477 0 -178.11606043 0 6.33840770 0 12093
0.10550000 0.10551000 16188.84611734 0 231.39830192 0 4607.82547955 0 163.77739979 0 -292.72901632 0 12067
0.10650000 0.10649700 15856.12275654 0 567.86521574 0 4778.19534154 0 -181.37353839 0 -184.70187923 0 12054
0.10750000 0.10749900 15663.24285820 0 369.38936444 0 4407.05101362 0 -9.89282327 0 111.29679461 0 12807
0.10850000 0.10850100 15463.94101147 0 29.43666132 0 5282.50652005 0 427.57000243 0 157.48499759 0 12736
0.10950000 0.10950300 15453.86519588 0 0.86243113 0 4601.94607507 0 741.59220661 0 -215.40211425 0 12933
0.11050000 0.11050200 15437.92104814 0 6.04954182 0 5130.12918590 0 273.63368494 0 682.56675024 0 13428
0.11150000 0.11150900 15369.93697376 0 404.61375138 0 5180.56362545 0 -745.51623853 0 903.24372003 0 13453
0.11250000 0.11250000 15356.09656773 0 401.55778973 0 6024.42978918 0 -282.68088155 0 1024.69605097 0 13668
0.11350000 0.11349100 14929.03699948 0 320.59695066 0 6185.19994554 0 -289.82363829 0 1293.52434694 0 13791
0.11450000 0.11448600 14846.99107257 0 264.23771010 0 6729.19433621 0 -41.80511248 0 1458.82308416 0 14205
0.11550000 0.11549300 14500.42730575 0 258.99496430 0 6735.08481301 0 -40.45960357 0 1586.54235094 0 14776
0.11650000 0.11649800 14502.30960097 0 439.79384903 0 7084.59381824 0 807.55226002 0 2277.12324988 0 14553
0.11750000 0.11747300 14170.47202615 0 41.19591317 0 6351.79414476 0 1056.37840121 0 2902.34421541 0 14568
0.11850000 0.11849100 14069.49242381 0 -228.81291407 0 5775.84502467 0 937.94770771 0 2667.44484438 0 16015
0.11950000 0.11950300 14378.74245599 0 -202.11753894 0 5752.84780602 0 1175.64837692 0 2325.68646653 0 15270
0.12050000 0.12050700 14386.27163687 0 72.75358903 0 5303.48857558 0 386.53485942 0 2387.74684714 0 15999
0.12150000 0.12150000 13982.79612048 0 470.41214885 0 4928.98933324 0 -59.70906171 0 2736.35899406 0 15670
0.12250000 0.12250700 13876.39107897 0 257.70836015 0 4612.12154158 0 380.73517568 0 2098.13911918 0 16887
0.12350000 0.12352200 13561.93705412 0 14.35726215 0 4458.80305982 0 127.07375025 0 2510.30641056 0 16407
0.12450000 0.12449800 13704.54859778 0 331.54305097 0 4639.89093223 0 133.95741459 0 911.70961959 0 16306
0.12550000 0.12549900 13419.87912670 0 171.91666576 0 4201.11684431 0 -280.70447157 0 1119.20166499 0 17523
0.12650000 0.12650100 13210.83363412 0 214.34027830 0 4178.44072309 0 -555.32248619 0 1070.12469247 0 17154
0.12750000 0.12750600 12938.67589008 0 154.66709093 0 4413.22937087 0 103.79463021 0 1698.30639766 0 18007
0.12850000 0.12850300 13190.68200295 0 -219.16670469 0 4549.44111078 0 477.65344928 0 556.33006775 0 17496
0.12950000 0.12949900 13176.50942718 0 -51.42862359 0 4477.85853083 0 448.66721014 0 1270.61570689 0 18405
0.13050000 0.13049000 13049.95275450 0 261.86269643 0 4124.93924956 0 536.60582831 0 841.90857670 0 18100
0.13150000 0.13148800 12920.07438438 0 90.39379548 0 4504.87500339 0 156.08656297 0 1459.86388269 0 19059
0.13250000 0.13249300 12965.69236263 0 225.75695242 0 4560.79024372 0 355.52792100 0 1283.34888043 0 18957
0.13350000 0.13349100 12726.97303954 0 308.56797698 0 4180.22336738 0 -42.33337310 0 1676.08424175 0 19468
0.13450000 0.13450700 12526.67468358 0 26.78915773 0 4302.81614777 0 157.42963597 0 1375.93566056 0 19953
0.13550000 0.13551000 12624.44331172 0 -0.50681685 0 3964.23552714 0 128.81099801 0 1049.50802366 0 19956
0.13650000 0.13649900 12767.49774838 0 56.08985090 0 4178.35214449 0 -227.83190610 0 748.23781597 0 19723
0.13750000 0.13749600 12353.94641640 0 410.19863202 0 3936.42184720 0 -180.83985233 0 516.61363862 0 20946
0.13850000 0.13851100 12130.50690156 0 395.92972703 0 3955.21158242 0 -236.93557156 0 700.27361209 0 20955
0.13950000 0.13949800 11795.45835255 0 225.28748585 0 3860.42140965 0 260.18634645 0 156.06663278 0 20506
0.14050000 0.14048300 11732.67827083 0 213.29172914 0 4021.55695273 0 164.12064186 0 -183.81055708 0 21447
0.14150000 0.14148400 11475.24671880 0 204.77268243 0 3744.54953042 0 274.47407439 0 -124.82163938 0 21771
0.14250000 0.14249400 11209.06803016 0 226.98819494 0 3762.16559920 0 8.24525027 0 -146.52671772 0 22470
0.14350000 0.14350900 11022.70973113 0 268.76629095 0 3491.82371643 0 -58.64434696 0 156.68779021 0 22519
0.14450000 0.14449900 10938.43826694 0 157.71308748 0 3792.03873157 0 -16.10691091 0 197.08073838 0 22218
0.14550000 0.14550500 10707.23705240 0 138.46495802 0 3680.21932322 0 284.89977544 0 267.18073404 0 23559
0.14650000 0.14650700 10716.37172038 0 27.08833195 0 3538.23890207 0 482.34036438 0 192.68723989 0 23044
0.14750000 0.14750500 10607.61934601 0 130.03006097 0 3321.18811865 0 327.96890452 0 228.08103340 0 23649
0.14850000 0.14849900 10446.26235643 0 161.81206213 0 2956.75361957 0 487.37273601 0 314.19825415 0 23640
0.14950000 0.14949500 10367.94780298 0 74.17483264 0 2668.81781266 0 282.66095137 0 445.73415129 0 24457
0.15050000 0.15050000 10251.21228242 0 29.76728094 0 2430.36422537 0 408.78691061 0 323.87325157 0 24591
0.15150000 0.15149900 10256.68201088 0 -86.75598316 0 2285.22819165 0 -127.11914678 0 4.74754715 0 25020
0.15250000 0.15250500 10253.68141085 0 108.35532080 0 2212.49408991 0 -92.06959184 0 -363.15232387 0 25297
0.15350000 0.15350100 10154.18550003 0 145.21796893 0 2484.49682141 0 -278.15008623 0 62.55907812 0 25452
0.15450000 0.15450400 10040.27342230 0 340.04106027 0 2701.93513619 0 -107.16128129 0 74.45972356 0 26061
0.15550000 0.15549900 9856.29567311 0 214.66137572 0 2660.51356905 0 153.91638730 0 369.17456134 0 26128
0.15650000 0.15649500 9589.80695938 0 177.50265363 0 2587.69088872 0 589.55922176 0 510.10200440 0 26331
0.15750000 0.15749700 9465.71941514 0 197.91005551 0 2598.08780172 0 545.95308493 0 563.13511858 0 27345
0.15850000 0.15849900 9300.33209932 0 216.42741153 0 2292.97881902 0 593.38249552 0 553.79561259 0 26980
0.15950000 0.15949700 9081.89727530 0 183.15175376 0 2157.83002228 0 114.48008800 0 865.31657860 0 27777
0.16050000 0.16050000 8829.19360596 0 137.24700229 0 2104.67179083 0 -263.39510618 0 575.08658599 0 28224
0.16150000 0.16150500 9072.53008850 0 43.24340747 0 2170.26424305 0 -154.98597388 0 525.31980763 0 28075
0.16250000 0.16249700 8711.22905734 0 -40.16142586 0 2226.86596753 0 -198.08942717 0 734.79712087 0 28590
0.16350000 0.16349900 8950.51306900 0 143.32349415 0 2316.71788343 0 -17.52306126 0 563.74631091 0 29163
0.16450000 0.16449100 8755.33012710 0 128.40796539 0 2342.33924306 0 131.96218165 0 619.84867353 0 28996
0.16550000 0.16550500 8817.02512099 0 95.46912773 0 2419.26975590 0 234.98573516 0 807.53232984 0 30777
0.16650000 0.16650700 8602.53204460 0 84.40101040 0 2356.55610813 0 132.93654624 0 801.67396277 0 29211
0.16750000 0.16749900 8731.74607523 0 65.25064956 0 2564.81546564 0 -14.99336721 0 749.05384631 0 30922
0.16850000 0.16850800 8469.25447076 0 253.71567982 0 2574.22694174 0 -56.99689575 0 910.35768873 0 30867
0.16950000 0.16949900 8400.91608198 0 197.39519240 0 2568.07072914 0 -70.18602762 0 868.82429110 0 30852
0.17050000 0.17049200 8298.60780065 0 -79.58764935 0 2375.33477102 0 304.30956085 0 815.65830902 0 31257
0.17150000 0.17149500 8279.55232964 0 63.38673440 0 2225.40442065 0 281.93349962 0 689.46259413 0 32608
0.17250000 0.17250900 8263.36459075 0 48.52114182 0 2050.57241176 0 265.77565602 0 279.43447591 0 32361
0.17350000 0.17350400 8112.73668392 0 188.00253926 0 2037.01988619 0 -77.55632064 0 245.81446883 0 32508
0.17450000 0.17449800 7970.46838233 0 232.46567403 0 1817.02386436 0 -169.86828567 0 327.81942814 0 32791
0.17550000 0.17549800 7852.13844699 0 83.77453826 0 1890.58839046 0 11.75637305 0 416.49657038 0 33633
0.17650000 0.17650100 7827.61324752 0 77.71952671 0 2017.66546240 0 -136.24606413 0 24.92347100 0 33984
0.17750000 0.17750300 7832.08646674 0 138.23243920 0 2208.16481091 0 -241.46747411 0 -88.22162680 0 34069
0.17850000 0.17849800 7717.27753070 0 148.18756644 0 2166.66573749 0 -262.59789879 0 -209.36880446 0 34536
