### header ###
fiducial parameters:
Omega_m = 0.31
Omega_nu = 0
Omega_de = 0.69
Omega_k = 0
H_0 = 100
w_de = -1
zeff = 0
beta = 0
fgrowth = 0
b_1 = 2
gamma = 0.55
Lx = 3500 Ly = 3500 Lz = 3500
nx = 700 ny = 700 nz = 700
xoffset = -685.467585 yoffset = -31.7331281 zoffset = 572.489161
bins = 400 dk = 0.001
kx_ny = 0.628318531 ky_ny = 0.628318531 kz_ny = 0.628318531
############################
A(data) = 8.00516936 (not used)
A(ran) = 7.99609228 (used)
Ngal = 475453
weighted Ngal = 0
Nran = 23820508
weighted Nran = 0
SN(data) = 3494.27253
SN(ran) = 69.6488637
SN(data+ran) = 3563.92139
############################
13 columns: k_central k_mean P_0(k) sigma^{lin}_{P_0(k)} P^img_1(k) sigma^{lin}_{P_1(k)} P_2(k) sigma^{lin}_{P_2(k)} P^img_3(k) sigma^{lin}_{P_3(k)} P_4(k) sigma^{lin}_{P_4(k)} N_modes
### header ###
0.00050000 0 0 0 0 0 0 0 0 0 0 0 0
0.00150000 0.00179520 26847.73032726 0 -20004.92286609 0 46101.06378466 0 -38084.70061596 0 -70758.57753954 0 3
0.00250000 0.00253879 45043.54604123 0 -16752.64889711 0 -9134.45760121 0 27915.10243978 0 24251.04871079 0 6
0.00350000 0.00331552 48022.33358719 0 -13246.37579679 0 143.94022264 0 -18783.97760834 0 9610.68936399 0 7
0.00450000 0.00420575 48297.37013569 0 -3487.21762931 0 -20283.28111203 0 -22895.02109025 0 -13201.08998828 0 24
0.00550000 0.00557378 65782.56404280 0 -10505.93111487 0 -19304.81976781 0 -31829.39070967 0 -4122.33725323 0 45
0.00650000 0.00659388 57422.62663497 0 -3158.21456965 0 -14006.60161884 0 -48342.21305120 0 -3154.48319618 0 40
0.00750000 0.00754703 72025.91583829 0 -7942.75435331 0 -36560.92727442 0 -15199.97678779 0 -4058.91497667 0 57
0.00850000 0.00846663 85014.41719005 0 -17433.59687346 0 -18871.67042090 0 -16681.45384852 0 -4705.01834681 0 75
0.00950000 0.00948925 86808.46598041 0 1264.13839687 0 -20951.38519159 0 -21018.59420324 0 -29742.47892785 0 112
0.01050000 0.01054430 83911.28146837 0 7676.48708607 0 -425.96230087 0 -10565.73274122 0 -9021.37594784 0 105
0.01150000 0.01145670 78200.17632691 0 13816.04690871 0 1794.97886565 0 -458.50718521 0 -10002.61644559 0 144
0.01250000 0.01249090 69879.32422570 0 3069.51417552 0 11364.85564035 0 -530.26692235 0 6605.90399935 0 169
0.01350000 0.01339930 70945.69982898 0 -2375.11332452 0 23681.48832212 0 21122.45261004 0 14970.22604780 0 180
0.01450000 0.01448870 75858.15818127 0 -3232.94168985 0 14401.21927537 0 12775.13765251 0 11330.42071017 0 267
0.01550000 0.01550050 76289.97884920 0 3070.33352756 0 9054.92509204 0 -1556.40348278 0 -7663.32209186 0 238
0.01650000 0.01653350 70378.46462852 0 6240.46191871 0 2075.76195073 0 3425.87694981 0 6584.19117038 0 315
0.01750000 0.01747870 65122.32131386 0 1103.49335777 0 1667.90179371 0 -4356.63871872 0 -14893.38411356 0 297
0.01850000 0.01844180 68660.70415616 0 -9884.95084974 0 -10130.72324374 0 9297.94047716 0 -11853.03444161 0 388
0.01950000 0.01947590 77918.93927652 0 -10309.44163864 0 -8472.24399846 0 2235.45809159 0 -23440.55453407 0 399
0.02050000 0.02045430 76731.43243972 0 -7058.97245861 0 -15878.15668293 0 -363.36269804 0 -32534.14418437 0 462
0.02150000 0.02154770 84598.09777687 0 4711.97176680 0 -13086.26997991 0 -13719.60695954 0 -26209.74297121 0 571
0.02250000 0.02255340 75691.40896950 0 7517.34456145 0 -6294.14054943 0 -16541.38893957 0 -25821.10437008 0 510
0.02350000 0.02348930 72490.06769468 0 12098.17571309 0 -354.57237936 0 -15231.53291352 0 -19922.43404619 0 555
0.02450000 0.02439640 64357.00222240 0 5185.42437604 0 6072.18472612 0 -25788.33028861 0 -8585.49173670 0 592
0.02550000 0.02547300 63008.17161299 0 6436.53064660 0 23992.62064952 0 -9353.41282450 0 -19312.90256492 0 837
0.02650000 0.02652900 60598.28011621 0 2641.75705081 0 24215.17437838 0 -9810.33445279 0 -14922.83649758 0 723
0.02750000 0.02749970 59713.93353295 0 123.21615228 0 36794.44260484 0 2860.14758553 0 -17208.71795639 0 826
0.02850000 0.02848090 57179.92127495 0 1251.89240562 0 34128.11606527 0 5961.20681446 0 -15756.02894018 0 831
0.02950000 0.02946900 58535.61672574 0 3052.87247132 0 31002.50949221 0 9869.72640312 0 -12795.40000692 0 996
0.03050000 0.03053250 55411.22810842 0 54.95460543 0 24626.62196864 0 8339.28752204 0 -14979.19463091 0 1041
0.03150000 0.03150510 54110.78355847 0 1637.14287536 0 24866.00563122 0 3993.69898349 0 -6110.93786298 0 1036
0.03250000 0.03246190 56881.07922809 0 -633.35137365 0 22141.54938634 0 -403.99370119 0 -13504.91458130 0 1059
0.03350000 0.03345080 55302.71932520 0 1009.84363446 0 18957.70238474 0 -3174.10335576 0 -4254.92834293 0 1302
0.03450000 0.03451200 53826.55698037 0 -41.49032628 0 22729.37911097 0 -1485.70668882 0 -4935.84310231 0 1339
0.03550000 0.03553350 55138.62747138 0 -1160.52358122 0 24521.54560611 0 5592.31016848 0 -362.80133117 0 1365
0.03650000 0.03647120 55422.96477273 0 933.26300708 0 26961.88599614 0 7054.84248145 0 -8705.93648608 0 1308
0.03750000 0.03744890 52335.33627380 0 2372.27880937 0 22330.11107800 0 5188.73500116 0 -720.87588688 0 1579
0.03850000 0.03847530 51590.39026000 0 3805.19265345 0 24853.60462742 0 5278.58691707 0 1732.99599132 0 1662
0.03950000 0.03950240 48074.04134409 0 2054.14877268 0 21708.06786969 0 1843.20991256 0 4112.39430554 0 1683
0.04050000 0.04050350 47639.00970197 0 3010.57619051 0 23162.86062762 0 1411.35602766 0 1136.43020241 0 1822
0.04150000 0.04152450 43701.24810347 0 2002.08670138 0 24415.80490409 0 -3544.58334419 0 5204.51306403 0 1887
0.04250000 0.04250150 42223.20346343 0 2959.78743657 0 24095.48254709 0 1528.08047590 0 6315.49906401 0 1920
0.04350000 0.04349210 41120.62135799 0 161.92499985 0 20581.90171239 0 2734.28846932 0 4171.11084406 0 2005
0.04450000 0.04448520 42090.88918184 0 -1994.88969025 0 23598.44588598 0 4860.68416144 0 6658.20966180 0 2151
0.04550000 0.04548030 43756.94189730 0 743.68709047 0 24494.97202655 0 4371.47563397 0 7433.92566626 0 2274
0.04650000 0.04648670 42290.30175183 0 793.24128019 0 23509.97801068 0 1384.18454255 0 9882.57029991 0 2311
0.04750000 0.04749250 42844.47160900 0 1383.81915583 0 23479.97201042 0 2919.14093216 0 10440.39402427 0 2568
0.04850000 0.04851840 41731.37079498 0 -114.57530999 0 20046.66553066 0 1825.77100097 0 9882.02775599 0 2493
0.04950000 0.04949480 41535.94426193 0 837.83285393 0 21306.69609502 0 3516.95789377 0 8986.63099256 0 2644
0.05050000 0.05050630 40063.21433780 0 455.82989706 0 17549.52411431 0 1115.52565315 0 3055.39696138 0 2829
0.05150000 0.05149060 40756.78476444 0 718.24178080 0 16797.60253587 0 2319.67419416 0 4082.37723296 0 2784
0.05250000 0.05249300 38749.59372132 0 765.24269242 0 13086.49142641 0 2424.60661646 0 -810.34137864 0 3055
0.05350000 0.05348950 38779.59972158 0 1809.37288791 0 14460.67765965 0 496.07779778 0 1416.24999523 0 3009
0.05450000 0.05448610 36698.55627191 0 1888.71716756 0 12469.76293401 0 -747.99976098 0 269.49042099 0 3336
0.05550000 0.05550870 35997.12449465 0 1609.90495631 0 15422.19834690 0 477.34785312 0 3974.97568222 0 3349
0.05650000 0.05647670 34730.11836566 0 195.47857298 0 15521.73854702 0 1564.97346219 0 3532.42593154 0 3324
0.05750000 0.05747970 34518.52623837 0 185.01301156 0 14599.19244313 0 2902.64316818 0 3008.12920673 0 3639
0.05850000 0.05849280 34493.39206103 0 499.62647788 0 14167.92539144 0 1430.68830679 0 986.97928371 0 3846
0.05950000 0.05951020 33925.60324433 0 666.22510604 0 13138.19918331 0 494.54760249 0 -962.16731102 0 3787
0.06050000 0.06049470 32283.13458073 0 512.70510796 0 10402.90313244 0 1244.69539449 0 204.45712117 0 3930
0.06150000 0.06148310 32162.66768671 0 809.94056048 0 9926.39456154 0 2215.64970248 0 -2265.48623649 0 4083
0.06250000 0.06249100 31829.94432591 0 -209.26583184 0 7374.65551151 0 998.64176344 0 -2208.26446183 0 4303
0.06350000 0.06350600 31793.84854700 0 328.57677516 0 10399.70323056 0 445.94895440 0 -4061.95986599 0 4470
0.06450000 0.06451750 31096.40280667 0 1936.70462333 0 10341.32993412 0 -2690.13203794 0 -1936.17315174 0 4479
0.06550000 0.06550280 30294.87721305 0 1323.15388815 0 11954.23549045 0 -3080.85223614 0 377.65374768 0 4636
0.06650000 0.06648880 29043.59378529 0 588.68007917 0 15013.29739135 0 -241.52726466 0 4156.22963950 0 4653
0.06750000 0.06749660 29778.90687650 0 -386.89249551 0 13963.53027529 0 1738.15569468 0 1759.86852365 0 5220
0.06850000 0.06852730 29843.12636045 0 -1259.65410532 0 14103.92735399 0 4069.96515684 0 1189.27840877 0 5029
0.06950000 0.06949320 31006.16335940 0 -984.32856915 0 12137.37174295 0 2757.81715955 0 363.39259332 0 5040
0.07050000 0.07048030 30767.66548281 0 315.43835453 0 10451.55492769 0 1589.68689119 0 -1018.93733483 0 5475
0.07150000 0.07148790 29901.03461925 0 1543.84746644 0 9275.31971755 0 796.79992539 0 839.81812177 0 5509
0.07250000 0.07249820 28555.41498404 0 1519.32226697 0 8355.46418860 0 119.58775144 0 1351.77584781 0 5916
0.07350000 0.07351270 27234.04374018 0 1034.41423046 0 8588.17123931 0 975.77630546 0 2647.73610621 0 5721
0.07450000 0.07449140 26603.47484176 0 610.28439935 0 8288.00051348 0 1161.88547717 0 3167.57068412 0 6028
0.07550000 0.07549160 26694.93224476 0 -12.45027564 0 8943.90289108 0 766.79060343 0 3621.21490426 0 6183
0.07650000 0.07648840 26917.04308063 0 -226.47001014 0 10505.56572815 0 -549.20281226 0 1645.42497432 0 6330
0.07750000 0.07749960 26599.59952807 0 753.40969889 0 10249.21926395 0 -972.98275790 0 3563.04090967 0 6583
0.07850000 0.07848650 26950.48150158 0 1295.63916098 0 12031.63104093 0 -1149.07479735 0 3361.26993450 0 6549
0.07950000 0.07947320 25279.22479345 0 729.15466414 0 10670.99733327 0 318.16546813 0 3139.74593185 0 6828
0.08050000 0.08048110 25641.95415451 0 393.33326686 0 12345.64217279 0 910.56031227 0 1555.42911820 0 7147
0.08150000 0.08149960 24034.80620708 0 588.13753525 0 10526.48134974 0 505.83915934 0 532.52014046 0 7386
0.08250000 0.08250610 24066.03016307 0 747.66537677 0 10469.66925109 0 1598.12400270 0 905.98633489 0 7227
0.08350000 0.08350160 23600.43890445 0 -400.70964965 0 10028.19351592 0 -527.60402824 0 1723.73952777 0 7798
0.08450000 0.08449610 23993.39571226 0 141.33047568 0 10694.74747001 0 1398.00280393 0 1406.51742171 0 7371
0.08550000 0.08548940 23476.65031298 0 822.46003816 0 11090.26198485 0 -460.10824337 0 2472.94838662 0 8256
0.08650000 0.08650700 22594.96108767 0 1151.57714276 0 11156.36376402 0 569.46516668 0 2867.14529481 0 8037
0.08750000 0.08749060 22193.47858974 0 534.95826638 0 11358.98730820 0 1470.46009754 0 4163.92490525 0 8155
0.08850000 0.08849210 21205.27359968 0 454.38274421 0 10431.95691276 0 1880.10289886 0 3516.30462661 0 8718
0.08950000 0.08949900 21113.59475018 0 488.56743986 0 10042.78684003 0 1371.80568341 0 4382.88012854 0 8571
0.09050000 0.09049190 20773.45293175 0 400.74951002 0 9494.58496594 0 -236.17047392 0 3801.69379881 0 8932
0.09150000 0.09150830 20248.95690509 0 20.65420399 0 8710.95224922 0 639.58841422 0 4823.40364377 0 9285
0.09250000 0.09250820 20575.36904075 0 -272.94941527 0 8185.93582330 0 754.66640776 0 2286.94440199 0 9204
0.09350000 0.09350330 20081.32190734 0 -65.64305275 0 7011.01821982 0 804.88272251 0 1676.15067570 0 9349
0.09450000 0.09448040 20263.57237385 0 566.86538481 0 6853.90193064 0 488.64716059 0 -419.67764930 0 9564
0.09550000 0.09549270 19171.95186998 0 593.82317405 0 5982.36602719 0 -173.19773374 0 -622.96774743 0 10155
0.09650000 0.09649430 18899.12978645 0 659.65257402 0 6137.37857465 0 -954.52076350 0 -1543.22741625 0 9913
0.09750000 0.09749140 18252.94891003 0 437.25939388 0 5674.19001051 0 -143.54161895 0 -1254.85978867 0 10476
0.09850000 0.09850240 17837.18311309 0 430.29933050 0 5950.00162174 0 245.62845378 0 -2351.11959664 0 10575
0.09950000 0.09950330 17902.50982952 0 -51.46195129 0 6241.08196890 0 -238.62853003 0 -1882.41701474 0 10882
0.10050000 0.10051200 18029.73084169 0 349.84892560 0 7299.09796695 0 -465.54475486 0 -1604.52380644 0 10875
0.10150000 0.10150300 17437.69363364 0 696.44590940 0 7201.30719415 0 -178.58774146 0 -632.16995659 0 11118
0.10250000 0.10250800 17169.30048003 0 432.73524196 0 7317.76590659 0 228.75865968 0 -679.34027478 0 11575
0.10350000 0.10349800 16722.75362010 0 173.52658179 0 6857.35649598 0 961.03018326 0 -31.64824748 0 11364
0.10450000 0.10450100 16915.74424169 0 -35.43221448 0 6528.55273817 0 1387.88269904 0 -355.04516763 0 12093
0.10550000 0.10551000 16639.71118396 0 -24.37395152 0 5959.76741223 0 1073.10868401 0 -168.57614536 0 12067
0.10650000 0.10649700 16550.57896917 0 271.59084101 0 5405.85221853 0 541.69466880 0 -1244.54038194 0 12054
0.10750000 0.10749900 16281.52147607 0 174.50094637 0 4921.72588816 0 239.44013144 0 -144.11184368 0 12807
0.10850000 0.10850100 16012.24253649 0 261.23821731 0 5319.20020450 0 -72.24581221 0 -409.89414309 0 12736
0.10950000 0.10950300 15963.08141429 0 365.50408566 0 5362.95803219 0 -1.82425409 0 -116.83517149 0 12933
0.11050000 0.11050200 15500.14751362 0 392.75972043 0 5124.36050467 0 167.36483303 0 188.94368687 0 13428
0.11150000 0.11150900 15607.65978761 0 167.79554646 0 5368.17309717 0 264.16906169 0 686.60371986 0 13453
0.11250000 0.11250000 15008.75773817 0 220.19975260 0 5455.45623372 0 735.83570494 0 1235.06247190 0 13668
0.11350000 0.11349100 15252.23816093 0 352.27376473 0 5669.09674110 0 491.53150121 0 601.80632024 0 13791
0.11450000 0.11448600 14617.24033258 0 500.47018904 0 5266.80596346 0 -93.02823372 0 1614.51104343 0 14205
0.11550000 0.11549300 14415.83474413 0 510.49175023 0 5197.59286102 0 182.43980327 0 1571.18503642 0 14776
0.11650000 0.11649800 13992.42904307 0 144.55584390 0 5531.81098567 0 65.39248604 0 2291.60585074 0 14553
0.11750000 0.11747300 14043.02956749 0 140.39043531 0 5650.81633282 0 431.13307656 0 1954.88538068 0 14568
0.11850000 0.11849100 14089.42260848 0 -215.71878274 0 5263.91608668 0 550.52263338 0 2238.62477648 0 16015
0.11950000 0.11950300 14204.57478659 0 -95.62945499 0 5088.64118480 0 501.51209480 0 2148.31889526 0 15270
0.12050000 0.12050700 14447.83376286 0 -117.82282286 0 5545.40780055 0 56.21895420 0 2314.20446570 0 15999
0.12150000 0.12150000 14289.16734821 0 205.63853823 0 5343.18286006 0 494.22207614 0 1904.77203855 0 15670
0.12250000 0.12250700 14070.04604005 0 517.84820284 0 5053.95159115 0 -161.57843608 0 1728.69992929 0 16887
0.12350000 0.12352200 13463.50408648 0 514.70698429 0 4896.00487761 0 -88.01999976 0 1604.66774667 0 16407
0.12450000 0.12449800 13289.55786358 0 328.94326911 0 5478.88527304 0 -359.33790797 0 1789.86345158 0 16306
0.12550000 0.12549900 12895.05093029 0 226.84646919 0 5004.93440917 0 125.94437311 0 1275.26608331 0 17523
0.12650000 0.12650100 13004.99911574 0 -72.74716708 0 5359.23773105 0 -100.76778877 0 903.55706683 0 17154
0.12750000 0.12750600 12992.81955844 0 -82.51417552 0 5043.47717187 0 293.44428851 0 435.16783172 0 18007
0.12850000 0.12850300 13048.07045929 0 34.39695211 0 4953.04949507 0 271.05936942 0 669.10612495 0 17496
0.12950000 0.12949900 12993.26245143 0 327.65223603 0 4908.05156701 0 252.28845716 0 158.30877856 0 18405
0.13050000 0.13049000 12665.96452979 0 348.79926920 0 4533.12050400 0 276.62321264 0 834.12473235 0 18100
0.13150000 0.13148800 12431.45269014 0 239.85977255 0 4590.28691704 0 34.45751773 0 553.22206617 0 19059
0.13250000 0.13249300 12361.14342754 0 -54.80778641 0 4463.80775064 0 493.00301318 0 836.15428949 0 18957
0.13350000 0.13349100 12301.90648976 0 -84.46999098 0 4243.78958417 0 509.52845797 0 891.85915565 0 19468
0.13450000 0.13450700 12280.09400986 0 -37.01998586 0 3802.46886154 0 592.84770223 0 837.87603600 0 19953
0.13550000 0.13551000 12593.88369522 0 -94.78507950 0 3990.86446833 0 339.77643171 0 775.33068757 0 19956
0.13650000 0.13649900 12147.89045153 0 219.72253540 0 3492.88665961 0 431.83949088 0 799.88135339 0 19723
0.13750000 0.13749600 12154.42312317 0 290.18238161 0 3240.98019767 0 88.55745041 0 730.26743279 0 20946
0.13850000 0.13851100 11740.98251444 0 383.89521718 0 3043.23954873 0 -115.16989383 0 630.39395569 0 20955
0.13950000 0.13949800 11451.99483668 0 393.17603985 0 3286.21064455 0 1.21467832 0 272.69475180 0 20506
0.14050000 0.14048300 11184.26602256 0 261.27032705 0 3363.56190573 0 -435.33834552 0 71.57150763 0 21447
0.14150000 0.14148400 11073.09988138 0 266.87292341 0 3308.66531928 0 -17.99363506 0 -172.77255647 0 21771
0.14250000 0.14249400 10856.82416070 0 82.50066729 0 3369.17557442 0 -7.74703994 0 90.20025124 0 22470
0.14350000 0.14350900 10935.30479902 0 25.71325993 0 3375.61966746 0 335.20577602 0 83.55154164 0 22519
0.14450000 0.14449900 10838.54375243 0 11.03215442 0 3317.85534888 0 360.62672658 0 -6.53851783 0 22218
0.14550000 0.14550500 10825.61127704 0 18.40231457 0 3062.57182786 0 627.33135064 0 295.02763096 0 23559
0.14650000 0.14650700 10600.89844484 0 292.29941012 0 2859.89292206 0 341.61443763 0 592.19886400 0 23044
0.14750000 0.14750500 10397.54412722 0 309.70621197 0 2813.22307295 0 435.82331335 0 496.41661092 0 23649
0.14850000 0.14849900 10184.51259771 0 -62.96211074 0 2199.31802338 0 639.51976581 0 1190.39671358 0 23640
0.14950000 0.14949500 10193.38152989 0 123.96353420 0 2200.79064258 0 375.14365165 0 839.34865520 0 24457
0.15050000 0.15050000 10132.94878103 0 53.45696278 0 1930.74771258 0 40.18235255 0 672.44885982 0 24591
0.15150000 0.15149900 10123.20513519 0 197.49262886 0 2209.19453712 0 -435.51771718 0 540.41581528 0 25020
0.15250000 0.15250500 9829.30134521 0 392.82615438 0 2417.36531603 0 -702.62426664 0 828.26525806 0 25297
0.15350000 0.15350100 9696.77668945 0 363.14125154 0 2769.94135523 0 -658.48997992 0 869.82301480 0 25452
0.15450000 0.15450400 9438.62543630 0 85.06081023 0 2932.70453007 0 -143.37442684 0 536.02231680 0 26061
0.15550000 0.15549900 9517.75934178 0 -94.47771177 0 3184.65528131 0 89.36517650 0 344.89184578 0 26128
0.15650000 0.15649500 9527.20403485 0 8.87030515 0 3180.40350858 0 379.15736939 0 123.29698025 0 26331
0.15750000 0.15749700 9570.48575257 0 139.72166689 0 3010.19973147 0 371.24951501 0 390.30055709 0 27345
0.15850000 0.15849900 9314.82577251 0 129.81525787 0 2800.08022339 0 400.30993873 0 647.91812418 0 26980
0.15950000 0.15949700 9294.23124834 0 250.71729426 0 2710.97015325 0 234.49744564 0 1029.79596378 0 27777
0.16050000 0.16050000 9041.14004764 0 159.14141739 0 2381.54634524 0 529.04010876 0 953.20758578 0 28224
0.16150000 0.16150500 9023.81185930 0 11.02164679 0 2286.34649645 0 416.95607186 0 1380.44209676 0 28075
0.16250000 0.16249700 8959.38200118 0 42.59611936 0 2314.27089964 0 235.26918668 0 1187.00858218 0 28590
0.16350000 0.16349900 8868.96539671 0 60.89712216 0 2169.71062681 0 126.03516618 0 900.83216769 0 29163
0.16450000 0.16449100 8787.63917092 0 200.69031627 0 2156.10273961 0 -323.47243341 0 1033.67902809 0 28996
0.16550000 0.16550500 8706.66725952 0 180.19433580 0 2147.74313437 0 -200.51426630 0 743.30288080 0 30777
0.16650000 0.16650700 8564.36574095 0 -2.77455851 0 2386.75033791 0 -265.75461860 0 535.84737406 0 29211
0.16750000 0.16749900 8602.44346600 0 -30.14207913 0 2174.00668884 0 -4.93121487 0 244.86557060 0 30922
0.16850000 0.16850800 8790.34081817 0 -63.48605315 0 2519.16427041 0 47.74541474 0 39.96655294 0 30867
0.16950000 0.16949900 8708.30596359 0 -67.39081922 0 2233.60901334 0 192.74370875 0 131.48939338 0 30852
0.17050000 0.17049200 8765.70489545 0 119.50249454 0 2036.08981090 0 320.53383841 0 416.61172256 0 31257
0.17150000 0.17149500 8663.49626505 0 179.41816583 0 2178.18095530 0 -16.27521025 0 309.38179285 0 32608
0.17250000 0.17250900 8555.25321762 0 246.05030935 0 1940.51350307 0 242.08973876 0 371.89724601 0 32361
0.17350000 0.17350400 8284.13627211 0 208.22724777 0 2074.26718688 0 77.33731005 0 837.05779120 0 32508
0.17450000 0.17449800 8073.81746218 0 184.01428786 0 1738.19998398 0 223.46387395 0 869.25721900 0 32791
0.17550000 0.17549800 8034.41105815 0 142.61597259 0 1817.51104666 0 298.28621615 0 692.60159822 0 33633
0.17650000 0.17650100 7869.68808183 0 81.22646415 0 1609.65029284 0 142.64476064 0 526.99062144 0 33984
0.17750000 0.17750300 7757.95725208 0 206.42910222 0 1649.24492639 0 -23.66798009 0 857.60913329 0 34069
