### header ###
fiducial parameters:
Omega_m = 0.31
Omega_nu = 0
Omega_de = 0.69
Omega_k = 0
H_0 = 100
w_de = -1
zeff = 0
beta = 0
fgrowth = 0
b_1 = 2
gamma = 0.55
Lx = 3500 Ly = 3500 Lz = 3500
nx = 700 ny = 700 nz = 700
xoffset = -685.467585 yoffset = -31.7331281 zoffset = 572.489161
bins = 400 dk = 0.001
kx_ny = 0.628318531 ky_ny = 0.628318531 kz_ny = 0.628318531
############################
A(data) = 8.05115461 (not used)
A(ran) = 8.0443166 (used)
Ngal = 478194
weighted Ngal = 0
Nran = 23820508
weighted Nran = 0
SN(data) = 3495.35697
SN(ran) = 70.068915
SN(data+ran) = 3565.42588
############################
13 columns: k_central k_mean P_0(k) sigma^{lin}_{P_0(k)} P^img_1(k) sigma^{lin}_{P_1(k)} P_2(k) sigma^{lin}_{P_2(k)} P^img_3(k) sigma^{lin}_{P_3(k)} P_4(k) sigma^{lin}_{P_4(k)} N_modes
### header ###
0.00050000 0 0 0 0 0 0 0 0 0 0 0 0
0.00150000 0.00179520 26752.61905707 0 -13585.41038273 0 41024.18140881 0 11007.93924983 0 -1037.43254621 0 3
0.00250000 0.00253879 41155.72062766 0 309.56005728 0 16451.59238529 0 30654.17415342 0 22359.45273877 0 6
0.00350000 0.00331552 50065.50968598 0 -12483.04972379 0 1960.04508405 0 1984.83601932 0 -17452.30910240 0 7
0.00450000 0.00420575 48318.40755284 0 -5537.44679900 0 4089.71818431 0 -24117.95936647 0 -3275.49263413 0 24
0.00550000 0.00557378 56576.81174208 0 7664.41825201 0 22410.82832593 0 -21138.39675777 0 -16772.68980503 0 45
0.00650000 0.00659388 57632.00429730 0 8616.23958272 0 19524.60541546 0 -15418.10158672 0 -2659.15167310 0 40
0.00750000 0.00754703 55878.03732277 0 -3176.09637423 0 27343.88120238 0 4939.18694440 0 -24593.84788718 0 57
0.00850000 0.00846663 57974.24985744 0 -7132.18267031 0 39499.63300454 0 9346.83586356 0 -6767.13919336 0 75
0.00950000 0.00948925 63826.41641709 0 1720.34032405 0 33056.31502282 0 42160.42338170 0 -6099.89875514 0 112
0.01050000 0.01054430 58208.20808086 0 -1426.42546174 0 1277.71306710 0 16107.46452993 0 -4497.52297971 0 105
0.01150000 0.01145670 61251.21511077 0 1816.63633300 0 17555.50316971 0 18098.04708582 0 6623.86331021 0 144
0.01250000 0.01249090 60531.95689055 0 -3293.91698262 0 -38.90349904 0 -1843.58637160 0 15856.89781928 0 169
0.01350000 0.01339930 58657.52302200 0 458.65223266 0 8839.36907247 0 -698.69248410 0 -2557.19770617 0 180
0.01450000 0.01448870 73360.68459517 0 -8684.92121357 0 15034.00263876 0 -24390.22783376 0 -10550.65223482 0 267
0.01550000 0.01550050 69473.30207460 0 -2347.66503130 0 34246.14704783 0 -12770.81944583 0 1404.42475232 0 238
0.01650000 0.01653350 76710.39502256 0 4060.03328148 0 18674.91520887 0 -22899.33929693 0 -23968.37225817 0 315
0.01750000 0.01747870 78278.56838662 0 130.50395647 0 38528.81156444 0 -3796.20192570 0 -28324.11411858 0 297
0.01850000 0.01844180 85447.56653695 0 -6861.17644805 0 46463.35025273 0 -10739.59038552 0 -54735.81629448 0 388
0.01950000 0.01947590 80204.04567259 0 1496.23646972 0 44316.98008663 0 4894.65405398 0 -35971.99031731 0 399
0.02050000 0.02045430 83256.90707158 0 4391.33938470 0 42777.37332060 0 2022.50406835 0 -24937.08995656 0 462
0.02150000 0.02154770 81905.64055072 0 1476.29521272 0 45463.96221460 0 9902.15724251 0 -23456.72012830 0 571
0.02250000 0.02255340 80882.22556773 0 1841.88123358 0 41414.92375166 0 7181.99705967 0 -7730.81898395 0 510
0.02350000 0.02348930 76936.27044886 0 4797.61619927 0 36491.06090481 0 14133.26901476 0 -11785.16109047 0 555
0.02450000 0.02439640 74615.62189012 0 3399.66875697 0 39765.14735369 0 15330.74094390 0 4766.12650749 0 592
0.02550000 0.02547300 70727.57503005 0 1997.10415521 0 30995.53392757 0 11470.04272613 0 8668.79990864 0 837
0.02650000 0.02652900 71313.96535245 0 4399.10108440 0 30208.51307946 0 14726.96707154 0 21207.93095764 0 723
0.02750000 0.02749970 65450.39429824 0 2600.59014713 0 25298.93353163 0 4410.53879593 0 16786.41948781 0 826
0.02850000 0.02848090 64492.41675493 0 2809.32561461 0 21389.18491492 0 3133.78902110 0 12692.75955586 0 831
0.02950000 0.02946900 61493.92047079 0 697.33390985 0 20328.56692054 0 -3178.52121336 0 7911.43074639 0 996
0.03050000 0.03053250 63249.99118703 0 796.99701277 0 20402.64077358 0 -3592.67045088 0 2562.89995345 0 1041
0.03150000 0.03150510 61945.56060014 0 1118.76984433 0 21589.37254764 0 -2435.83395383 0 6377.23834720 0 1036
0.03250000 0.03246190 63161.30186523 0 1008.72200795 0 19123.23364078 0 -832.18043211 0 -3154.56070246 0 1059
0.03350000 0.03345080 61292.18271259 0 291.64282126 0 21154.45162876 0 2868.35217822 0 3129.78083951 0 1302
0.03450000 0.03451200 58169.78711374 0 4560.17019353 0 18480.26373856 0 948.43652101 0 -11888.46588103 0 1339
0.03550000 0.03553350 55896.19593548 0 4576.15863057 0 17823.01053733 0 2502.92116990 0 -4961.53089589 0 1365
0.03650000 0.03647120 51193.89030824 0 2656.05142215 0 13977.14923482 0 -1395.21257807 0 1683.13731266 0 1308
0.03750000 0.03744890 50422.03854514 0 1715.35777788 0 17639.09922209 0 386.33002141 0 198.09939226 0 1579
0.03850000 0.03847530 49806.08511548 0 709.07500308 0 23941.79867861 0 2535.39629860 0 -102.28613667 0 1662
0.03950000 0.03950240 48956.94852513 0 3667.19826923 0 23744.04695735 0 1029.56233773 0 2687.03178699 0 1683
0.04050000 0.04050350 45625.83960344 0 2829.47724578 0 22843.20261010 0 5881.29784625 0 9101.79424300 0 1822
0.04150000 0.04152450 43943.06767751 0 -46.74093344 0 21747.37462280 0 8113.78855478 0 9439.02404000 0 1887
0.04250000 0.04250150 43460.97865490 0 -450.39670728 0 21073.62365758 0 8589.63278619 0 6838.66641169 0 1920
0.04350000 0.04349210 44318.30876561 0 110.06322690 0 19566.68024977 0 2356.13535978 0 7259.90193709 0 2005
0.04450000 0.04448520 41685.30992374 0 1188.68050323 0 15232.97231575 0 -1367.74214020 0 10860.97628251 0 2151
0.04550000 0.04548030 41087.40438353 0 1423.52451263 0 16102.26053726 0 826.35196033 0 13062.02158856 0 2274
0.04650000 0.04648670 41169.67175693 0 373.07201967 0 15636.33710889 0 -1280.74688410 0 9594.78950555 0 2311
0.04750000 0.04749250 41565.72881569 0 287.16295864 0 19204.06161196 0 482.64374608 0 8749.45072262 0 2568
0.04850000 0.04851840 41682.65256578 0 1384.77137577 0 19895.30685038 0 1029.75499618 0 6476.74533034 0 2493
0.04950000 0.04949480 40272.48127688 0 1282.17521400 0 19785.24794169 0 1632.62536683 0 8761.08773600 0 2644
0.05050000 0.05050630 39025.18388606 0 1429.23783224 0 19717.37459055 0 -4.80339595 0 9931.91965163 0 2829
0.05150000 0.05149060 38296.95708273 0 735.43156508 0 17247.58181650 0 4368.50825092 0 4796.05500147 0 2784
0.05250000 0.05249300 37668.27047953 0 -13.41888262 0 14463.44574085 0 3939.51102582 0 4914.51780471 0 3055
0.05350000 0.05348950 36055.69709294 0 307.23376184 0 12672.82937118 0 1002.01660804 0 160.71036581 0 3009
0.05450000 0.05448610 36801.41816948 0 381.79258270 0 10702.88562875 0 806.50924702 0 -2272.79397087 0 3336
0.05550000 0.05550870 35614.90784191 0 -360.67655204 0 11357.54790597 0 316.08497830 0 82.29261830 0 3349
0.05650000 0.05647670 35494.21950139 0 1189.05696227 0 9030.94243648 0 -213.28508575 0 -853.16580934 0 3324
0.05750000 0.05747970 35068.48861211 0 125.71517599 0 9621.45166371 0 1542.40806421 0 -1158.81844319 0 3639
0.05850000 0.05849280 34909.49002772 0 252.90075672 0 10416.06812665 0 459.12169923 0 -1190.44100288 0 3846
0.05950000 0.05951020 34255.89069367 0 1293.01502000 0 10630.67192628 0 350.91851217 0 -357.07583201 0 3787
0.06050000 0.06049470 33822.51990027 0 884.87141146 0 8954.01192364 0 -64.32024210 0 58.78109017 0 3930
0.06150000 0.06148310 32911.71046069 0 -82.44386626 0 10468.98276695 0 2102.20266239 0 3194.46536110 0 4083
0.06250000 0.06249100 33185.75049995 0 444.91369203 0 8917.55075801 0 898.10505408 0 374.87570138 0 4303
0.06350000 0.06350600 32626.81954311 0 585.71158888 0 7611.17144196 0 1781.48170170 0 1348.47629501 0 4470
0.06450000 0.06451750 32107.19533937 0 200.36921885 0 7254.26612376 0 -352.20733078 0 -1050.51339075 0 4479
0.06550000 0.06550280 32296.19992402 0 1391.03831162 0 8719.19005889 0 -491.96110741 0 -1081.53693766 0 4636
0.06650000 0.06648880 29856.85604322 0 2115.30122265 0 9043.49845283 0 -2569.27761254 0 -1432.55952969 0 4653
0.06750000 0.06749660 29288.18144054 0 1836.28970955 0 10957.71518445 0 -496.04568804 0 704.96495611 0 5220
0.06850000 0.06852730 28485.65933768 0 -668.93671838 0 11210.95032538 0 435.00063962 0 1816.40381417 0 5029
0.06950000 0.06949320 28933.20270685 0 -658.46672803 0 12380.29854947 0 1820.41199576 0 1460.17390778 0 5040
0.07050000 0.07048030 29511.17806239 0 278.90078986 0 12827.06685591 0 1867.87905226 0 1560.03520532 0 5475
0.07150000 0.07148790 29239.13104159 0 353.18833876 0 12056.87594152 0 1270.84822571 0 2866.10449628 0 5509
0.07250000 0.07249820 28081.85165155 0 1159.50492733 0 11158.02461274 0 961.88718120 0 5189.03395393 0 5916
0.07350000 0.07351270 27842.35726572 0 1230.72212057 0 13007.32430395 0 -142.25833650 0 4927.26205057 0 5721
0.07450000 0.07449140 26647.87486428 0 649.49814493 0 11749.06531156 0 502.91274389 0 3726.75630443 0 6028
0.07550000 0.07549160 26428.42138638 0 583.45062016 0 11579.76946508 0 485.82814670 0 3515.73993804 0 6183
0.07650000 0.07648840 25540.86382892 0 209.51717361 0 9986.74980413 0 1148.66512134 0 2515.14501650 0 6330
0.07750000 0.07749960 25592.68230907 0 132.78153369 0 10497.89260705 0 1332.96396794 0 2101.30580408 0 6583
0.07850000 0.07848650 25108.15737500 0 464.29247492 0 9440.76239499 0 438.46738452 0 547.31608811 0 6549
0.07950000 0.07947320 24972.29994948 0 310.93856172 0 9298.05120041 0 948.36344367 0 -757.76112254 0 6828
0.08050000 0.08048110 24701.69233091 0 275.95665869 0 8497.95393669 0 579.05490720 0 218.86443023 0 7147
0.08150000 0.08149960 24194.35840772 0 284.43363057 0 8450.64189274 0 -166.01511663 0 -256.22466863 0 7386
0.08250000 0.08250610 23898.28444207 0 756.68489257 0 8006.49772729 0 191.28326910 0 -122.64371309 0 7227
0.08350000 0.08350160 23646.83194544 0 386.78730842 0 8499.03902452 0 -271.14241186 0 564.67417173 0 7798
0.08450000 0.08449610 22696.71575275 0 780.36748813 0 8042.83709734 0 -219.27189178 0 767.01869332 0 7371
0.08550000 0.08548940 22448.36350707 0 813.08620796 0 9581.86810248 0 445.70757771 0 1702.93462943 0 8256
0.08650000 0.08650700 21837.72479332 0 239.21868494 0 8708.19524034 0 261.49288078 0 1373.99800372 0 8037
0.08750000 0.08749060 21359.95397740 0 403.46333683 0 8893.33558364 0 1145.68666596 0 1797.81338080 0 8155
0.08850000 0.08849210 21486.62137332 0 259.84199715 0 9471.13378197 0 253.43222831 0 1528.75588771 0 8718
0.08950000 0.08949900 21387.52406619 0 48.56487750 0 8661.20429381 0 1367.64248927 0 1921.67947855 0 8571
0.09050000 0.09049190 21130.53540715 0 -78.96416674 0 7692.32051056 0 1224.93129469 0 2136.41614608 0 8932
0.09150000 0.09150830 21291.52701002 0 65.61437543 0 7466.40079496 0 1045.83754798 0 1847.47275762 0 9285
0.09250000 0.09250820 21010.51140612 0 164.92559987 0 7276.16718225 0 320.06547907 0 615.84049195 0 9204
0.09350000 0.09350330 20272.09806396 0 1103.21876412 0 7026.13194319 0 -232.31730488 0 2328.18881194 0 9349
0.09450000 0.09448040 19773.95417037 0 658.01940611 0 6840.62621318 0 340.70318530 0 2369.13426912 0 9564
0.09550000 0.09549270 19346.78387887 0 -280.95359888 0 6981.03436421 0 996.27782209 0 2174.11741209 0 10155
0.09650000 0.09649430 19385.86918548 0 68.92378259 0 6332.70545678 0 742.82123467 0 1426.28152151 0 9913
0.09750000 0.09749140 19263.63071948 0 602.19274438 0 6378.78847267 0 -0.91268841 0 980.68577428 0 10476
0.09850000 0.09850240 18684.88030121 0 928.43879516 0 6243.48466339 0 -866.93756695 0 1874.00204788 0 10575
0.09950000 0.09950330 18085.09246578 0 765.43977981 0 7180.73481464 0 -825.24251338 0 1128.03738020 0 10882
0.10050000 0.10051200 17334.94245932 0 551.77712778 0 7353.76203458 0 -572.76029054 0 744.05801335 0 10875
0.10150000 0.10150300 16894.81754778 0 589.95671822 0 7496.17427640 0 -101.92850058 0 263.07622323 0 11118
0.10250000 0.10250800 16841.00604916 0 186.47012950 0 7690.51572161 0 181.48647610 0 -643.88336902 0 11575
0.10350000 0.10349800 16678.90721382 0 -173.81114054 0 7351.66936519 0 514.84871004 0 -725.07119075 0 11364
0.10450000 0.10450100 16800.14917058 0 39.65553134 0 6982.10837972 0 78.92375275 0 -1046.25276016 0 12093
0.10550000 0.10551000 16845.87787208 0 389.67275627 0 7158.97769637 0 101.73229899 0 -671.17332800 0 12067
0.10650000 0.10649700 16328.91102630 0 290.46804759 0 6647.33663882 0 -20.48667972 0 -709.49796589 0 12054
0.10750000 0.10749900 16150.64659672 0 280.25272072 0 6830.70541014 0 682.35416160 0 -480.36284716 0 12807
0.10850000 0.10850100 15983.45449196 0 160.08588669 0 6919.81548029 0 351.37579919 0 -418.94023247 0 12736
0.10950000 0.10950300 16003.05250689 0 169.12643991 0 6843.82611505 0 764.60381928 0 -157.48721206 0 12933
0.11050000 0.11050200 15482.87468691 0 181.67692009 0 5956.62287199 0 219.81665016 0 225.63847855 0 13428
0.11150000 0.11150900 15815.93021745 0 47.62417279 0 6433.80685470 0 359.26150893 0 84.13217435 0 13453
0.11250000 0.11250000 15456.96544683 0 52.31153078 0 6172.64392920 0 620.98469406 0 880.79125977 0 13668
0.11350000 0.11349100 15436.70309241 0 123.70887073 0 5460.26162269 0 839.49813159 0 188.16087350 0 13791
0.11450000 0.11448600 15308.59629426 0 -154.62944502 0 5031.77372453 0 732.65794771 0 729.31078392 0 14205
0.11550000 0.11549300 15384.10954952 0 360.21372886 0 4996.20941722 0 323.62412426 0 -27.36934755 0 14776
0.11650000 0.11649800 15006.87544295 0 102.35854968 0 3887.96935379 0 380.37753959 0 386.50385691 0 14553
0.11750000 0.11747300 14949.63152364 0 203.13397836 0 4420.93570894 0 67.77126430 0 473.26105803 0 14568
0.11850000 0.11849100 14699.06481299 0 361.68524083 0 4359.40679992 0 8.52094008 0 776.27183518 0 16015
0.11950000 0.11950300 14260.71147342 0 596.32773392 0 4422.27546024 0 436.80653579 0 830.01357815 0 15270
0.12050000 0.12050700 13809.73568356 0 425.73310374 0 4037.33501560 0 -188.36349705 0 752.28142899 0 15999
0.12150000 0.12150000 13451.87814542 0 353.00010924 0 4520.70842788 0 -153.29965881 0 837.62137253 0 15670
0.12250000 0.12250700 13331.30052815 0 290.25656619 0 4418.41121888 0 -82.32273503 0 815.27409935 0 16887
0.12350000 0.12352200 13149.49295462 0 -7.30953917 0 4800.62787162 0 106.83796941 0 952.57314157 0 16407
0.12450000 0.12449800 13183.48499182 0 -4.18992272 0 4798.40233433 0 -154.41574915 0 611.87217073 0 16306
0.12550000 0.12549900 13256.78378212 0 103.45648141 0 4829.34948220 0 104.80697287 0 415.78904882 0 17523
0.12650000 0.12650100 13178.28099915 0 164.22029278 0 4934.79123145 0 152.23671563 0 860.74038675 0 17154
0.12750000 0.12750600 13160.67600269 0 120.60197639 0 4933.58434804 0 175.16307140 0 1055.14162252 0 18007
0.12850000 0.12850300 12913.54171274 0 222.61130494 0 4958.49707888 0 717.15890743 0 684.76349948 0 17496
0.12950000 0.12949900 12767.16557864 0 173.75577891 0 4627.88853212 0 304.37488757 0 505.89341373 0 18405
0.13050000 0.13049000 12497.22229956 0 319.76099014 0 4177.57708175 0 150.15179687 0 855.31273313 0 18100
0.13150000 0.13148800 12193.50842978 0 263.29324079 0 3946.23192699 0 126.41051799 0 608.34120635 0 19059
0.13250000 0.13249300 12054.10786032 0 130.32679928 0 3681.03867526 0 92.73481712 0 -91.03355441 0 18957
0.13350000 0.13349100 11851.48431613 0 182.84062143 0 3933.06693278 0 -49.44911336 0 -347.84262034 0 19468
0.13450000 0.13450700 11810.62743755 0 255.94121711 0 3531.72837508 0 -126.66628869 0 -728.75938215 0 19953
0.13550000 0.13551000 11710.97651419 0 75.87421305 0 3777.47862443 0 -141.05698926 0 -725.22398883 0 19956
0.13650000 0.13649900 11799.66583598 0 -84.80149638 0 3465.25013687 0 229.03768227 0 -254.01906152 0 19723
0.13750000 0.13749600 11809.29875858 0 -47.01464131 0 4055.19467553 0 437.21289011 0 276.94763176 0 20946
0.13850000 0.13851100 11755.04436696 0 154.23305579 0 3548.81297227 0 463.99241492 0 -78.95198718 0 20955
0.13950000 0.13949800 11726.69921543 0 180.92068030 0 4157.42545058 0 -26.78052132 0 372.57487229 0 20506
0.14050000 0.14048300 11409.14493963 0 356.57868462 0 4190.18845972 0 -61.80505280 0 450.98686219 0 21447
0.14150000 0.14148400 11229.55183107 0 366.94570235 0 4185.59344492 0 -209.09642527 0 601.82625043 0 21771
0.14250000 0.14249400 11060.57708201 0 55.74151556 0 4222.70787771 0 -387.47822149 0 510.01342580 0 22470
0.14350000 0.14350900 10968.87608787 0 202.10535938 0 4247.87527202 0 -65.48870454 0 189.28028554 0 22519
0.14450000 0.14449900 10814.68289244 0 202.78077119 0 4474.69184593 0 112.76941381 0 -138.76058909 0 22218
0.14550000 0.14550500 10560.40695298 0 167.32718712 0 3949.54255211 0 783.83534026 0 133.03176823 0 23559
0.14650000 0.14650700 10281.52830777 0 242.23257175 0 3720.42293464 0 580.28393526 0 156.93581028 0 23044
0.14750000 0.14750500 10190.75738891 0 43.65053686 0 3214.98237899 0 1004.65735751 0 -22.47504781 0 23649
0.14850000 0.14849900 10051.40110874 0 -8.36345841 0 3168.26824058 0 402.51997476 0 -105.75731051 0 23640
0.14950000 0.14949500 10024.59501036 0 71.49898390 0 2658.14409154 0 -52.64890451 0 23.68215266 0 24457
0.15050000 0.15050000 9994.96546914 0 71.59763831 0 2801.43104702 0 -100.61443707 0 644.43034186 0 24591
0.15150000 0.15149900 10067.42276276 0 25.11956187 0 3039.37530737 0 -220.73786758 0 593.62497943 0 25020
0.15250000 0.15250500 9973.13084460 0 48.26459605 0 2586.67223483 0 112.57121920 0 434.00966654 0 25297
0.15350000 0.15350100 9978.48984981 0 130.50617094 0 3081.00724869 0 246.15771090 0 151.65431134 0 25452
0.15450000 0.15450400 9780.50560973 0 209.31676453 0 2570.41806200 0 117.93243888 0 190.80051574 0 26061
0.15550000 0.15549900 9893.49868450 0 83.87053531 0 2823.12173134 0 217.92771155 0 396.83322873 0 26128
0.15650000 0.15649500 9541.01122390 0 198.39723780 0 2632.95455257 0 20.37152754 0 721.31102924 0 26331
0.15750000 0.15749700 9569.97642563 0 172.66736938 0 2845.63176769 0 189.73978702 0 723.69600801 0 27345
0.15850000 0.15849900 9261.94434917 0 187.31716235 0 2641.07056667 0 93.59901207 0 810.60379274 0 26980
0.15950000 0.15949700 9215.09734287 0 239.26186701 0 3023.13220686 0 151.93554839 0 782.71260652 0 27777
0.16050000 0.16050000 9116.53150733 0 87.29321236 0 2827.43993801 0 126.92538109 0 791.18072054 0 28224
0.16150000 0.16150500 8887.96550610 0 70.86044293 0 2680.87557439 0 46.91189013 0 889.57050611 0 28075
0.16250000 0.16249700 8943.18318997 0 181.76549869 0 2730.42422795 0 45.46163703 0 1040.14415856 0 28590
0.16350000 0.16349900 8917.13000967 0 -72.90539060 0 2639.98547883 0 -58.97596308 0 526.26427693 0 29163
0.16450000 0.16449100 8760.52304744 0 79.13102667 0 2584.56849312 0 150.45739303 0 412.51385514 0 28996
0.16550000 0.16550500 8787.58380929 0 178.55673896 0 2497.48465842 0 145.42059247 0 219.45901407 0 30777
0.16650000 0.16650700 8504.09907696 0 207.35031965 0 2282.11686837 0 126.20235828 0 351.06466686 0 29211
0.16750000 0.16749900 8551.31146999 0 -9.33513242 0 2155.33874920 0 253.95041311 0 151.43065038 0 30922
0.16850000 0.16850800 8432.91510070 0 45.22933965 0 1947.51121235 0 225.64512194 0 435.36824080 0 30867
0.16950000 0.16949900 8441.13076572 0 44.19806332 0 1761.85046979 0 301.84818304 0 -61.28166400 0 30852
0.17050000 0.17049200 8282.80759314 0 252.57965930 0 1880.06968188 0 126.48138087 0 157.16168571 0 31257
0.17150000 0.17149500 8106.82406247 0 211.43268581 0 1724.82461560 0 54.63815839 0 459.77053747 0 32608
0.17250000 0.17250900 7888.05706870 0 144.97548501 0 1823.11364301 0 -4.72639901 0 255.41417445 0 32361
0.17350000 0.17350400 7959.76144423 0 28.61487337 0 1693.11347732 0 -149.56053472 0 342.90547070 0 32508
0.17450000 0.17449800 7873.76269736 0 73.88949883 0 1882.29521917 0 -159.67731791 0 104.72625562 0 32791
0.17550000 0.17549800 7944.18268321 0 110.92919343 0 2097.82909409 0 -295.06859856 0 227.54070395 0 33633
0.17650000 0.17650100 7779.24933271 0 70.24006057 0 2145.38472919 0 -195.95689741 0 121.29953285 0 33984
0.17750000 0.17750300 7839.69315389 0 62.99599206 0 2212.57159619 0 -102.30839205 0 -132.45490011 0 34069
0.17850000 0.17849800 7751.57959299 0 114.55980874 0 2366.64299604 0 105.65090546 0 112.50921418 0 34536
