### header ###
fiducial parameters:
Omega_m = 0.31
Omega_nu = 0
Omega_de = 0.69
Omega_k = 0
H_0 = 100
w_de = -1
zeff = 0
beta = 0
fgrowth = 0
b_1 = 2
gamma = 0.55
Lx = 3500 Ly = 3500 Lz = 3500
nx = 700 ny = 700 nz = 700
xoffset = -685.467585 yoffset = -31.7331281 zoffset = 572.489161
bins = 400 dk = 0.001
kx_ny = 0.628318531 ky_ny = 0.628318531 kz_ny = 0.628318531
############################
A(data) = 8.10112535 (not used)
A(ran) = 8.09754516 (used)
Ngal = 480890
weighted Ngal = 0
Nran = 23820508
weighted Nran = 0
SN(data) = 3490.40054
SN(ran) = 70.532555
SN(data+ran) = 3560.93309
############################
13 columns: k_central k_mean P_0(k) sigma^{lin}_{P_0(k)} P^img_1(k) sigma^{lin}_{P_1(k)} P_2(k) sigma^{lin}_{P_2(k)} P^img_3(k) sigma^{lin}_{P_3(k)} P_4(k) sigma^{lin}_{P_4(k)} N_modes
### header ###
0.00050000 0 0 0 0 0 0 0 0 0 0 0 0
0.00150000 0.00179520 48945.10113758 0 -39495.75769085 0 39457.55817022 0 2018.19693399 0 -60990.24041479 0 3
0.00250000 0.00253879 70488.30209072 0 -13026.47942589 0 26396.53309090 0 13054.38168443 0 78630.77903911 0 6
0.00350000 0.00331552 71854.62697334 0 9061.71242715 0 30775.30538693 0 -50973.55104435 0 72118.25902727 0 7
0.00450000 0.00420575 58001.59849974 0 24028.93787493 0 14206.89997481 0 -1108.04076158 0 32416.88826454 0 24
0.00550000 0.00557378 63250.65552652 0 -18189.28304233 0 34813.71441804 0 32074.19981141 0 12887.52174942 0 45
0.00650000 0.00659388 70119.48295101 0 -10656.27114126 0 66489.08908947 0 -1157.86622326 0 -33243.65875875 0 40
0.00750000 0.00754703 82457.48521968 0 13349.45914085 0 51805.08263823 0 26774.43153696 0 18887.06095240 0 57
0.00850000 0.00846663 89344.47125688 0 -2471.96294971 0 52429.34031151 0 12759.63639776 0 3578.80790021 0 75
0.00950000 0.00948925 89474.46035025 0 -5258.22491173 0 40046.05223434 0 10865.70416521 0 1365.71590476 0 112
0.01050000 0.01054430 106743.63320015 0 -4094.21354819 0 58578.13445305 0 14160.39621057 0 -22420.57197177 0 105
0.01150000 0.01145670 89459.51271174 0 13718.72117355 0 33016.34393023 0 -9505.97838818 0 -16057.63906824 0 144
0.01250000 0.01249090 92518.13171964 0 8645.12727818 0 45276.06486242 0 -8886.09428320 0 -25392.60539959 0 169
0.01350000 0.01339930 89594.70579778 0 928.35685995 0 30562.49530392 0 9760.71936528 0 -20550.89920290 0 180
0.01450000 0.01448870 73714.22392663 0 -473.28098821 0 23305.36144803 0 26818.16722000 0 -28801.22059501 0 267
0.01550000 0.01550050 75568.39544076 0 380.91786904 0 6752.82267737 0 21269.05019063 0 -25900.93583202 0 238
0.01650000 0.01653350 76925.86246353 0 862.79208854 0 7193.15796308 0 12194.17276927 0 -22477.81589109 0 315
0.01750000 0.01747870 82644.93967886 0 4137.76100170 0 14284.40624854 0 -9165.31617048 0 10051.34574712 0 297
0.01850000 0.01844180 69216.20269231 0 6367.32861648 0 11438.70804690 0 -680.03118785 0 19451.74951815 0 388
0.01950000 0.01947590 75626.63586931 0 1859.91805071 0 21772.84096988 0 -708.35640920 0 34513.10079921 0 399
0.02050000 0.02045430 74313.67959232 0 776.62061341 0 26722.94522655 0 6636.64077305 0 26091.26909565 0 462
0.02150000 0.02154770 73931.57366282 0 -893.80124143 0 32837.30443791 0 744.43336516 0 24314.93602500 0 571
0.02250000 0.02255340 76693.67581208 0 4634.33262517 0 40349.87682736 0 12705.49272940 0 30695.58464824 0 510
0.02350000 0.02348930 73485.69114238 0 -258.35498392 0 38268.27976145 0 7937.70537319 0 31641.38263425 0 555
0.02450000 0.02439640 76482.41585454 0 -3184.06844810 0 38778.60321235 0 10833.69407415 0 32587.95568299 0 592
0.02550000 0.02547300 73454.57790964 0 192.03175826 0 36852.57231014 0 11699.57201962 0 25164.51550833 0 837
0.02650000 0.02652900 74378.34196926 0 3097.38321709 0 36916.01673135 0 6481.59500861 0 31086.32699109 0 723
0.02750000 0.02749970 69720.87925754 0 3581.07772680 0 31352.28423323 0 11668.01589389 0 21361.28265637 0 826
0.02850000 0.02848090 66861.89426612 0 -1847.58348086 0 24039.78875325 0 10036.95172485 0 21774.61254185 0 831
0.02950000 0.02946900 69431.67013328 0 1036.91103971 0 13012.30685012 0 9225.84857026 0 11943.93822837 0 996
0.03050000 0.03053250 65689.55651432 0 4298.52008574 0 13189.90694021 0 -3333.60019477 0 8374.94040795 0 1041
0.03150000 0.03150510 60471.61272029 0 5710.05327060 0 1033.94144219 0 -706.81846329 0 3539.66723197 0 1036
0.03250000 0.03246190 56860.37398068 0 1187.60648772 0 -989.80936993 0 -289.58558331 0 1267.07256295 0 1059
0.03350000 0.03345080 55883.90565493 0 -103.81289954 0 3242.77391429 0 -3297.46012657 0 -5062.63229380 0 1302
0.03450000 0.03451200 57848.91114049 0 824.09209883 0 9005.21035360 0 -1508.16136355 0 -8799.94052379 0 1339
0.03550000 0.03553350 56489.56182251 0 1059.78203385 0 14509.61733535 0 -3682.52236678 0 -4216.40772489 0 1365
0.03650000 0.03647120 55623.59529844 0 5072.51987987 0 20869.56071118 0 -6166.75345239 0 6041.09363803 0 1308
0.03750000 0.03744890 52148.87832385 0 4128.38274258 0 23124.77183024 0 -811.60915983 0 5417.83247399 0 1579
0.03850000 0.03847530 50935.24080048 0 1241.11903357 0 23630.44490471 0 4484.71229989 0 13517.97992459 0 1662
0.03950000 0.03950240 50573.28650216 0 254.38666271 0 20908.75674104 0 11138.20515132 0 12073.26298225 0 1683
0.04050000 0.04050350 49348.02303773 0 -336.97291907 0 16717.10673444 0 9245.86733354 0 11729.24585014 0 1822
0.04150000 0.04152450 46600.97925022 0 1834.45170363 0 12619.57148880 0 4547.34844139 0 9823.27800050 0 1887
0.04250000 0.04250150 45535.48943292 0 3225.85540196 0 11654.28621111 0 1207.32629823 0 7660.49864903 0 1920
0.04350000 0.04349210 40613.28743479 0 2885.06031637 0 9652.34344995 0 -852.42064188 0 7340.84063151 0 2005
0.04450000 0.04448520 40539.32430501 0 2636.24303305 0 11184.37674581 0 -4496.21644538 0 6977.41371399 0 2151
0.04550000 0.04548030 39480.14571285 0 770.63491461 0 14945.09187046 0 -2120.04017768 0 6253.50511735 0 2274
0.04650000 0.04648670 37813.87155090 0 1047.24594769 0 14465.54948257 0 2004.17937077 0 7174.96613341 0 2311
0.04750000 0.04749250 38875.48605451 0 128.13890789 0 13895.10330791 0 1287.96603988 0 7711.15453507 0 2568
0.04850000 0.04851840 38155.34204830 0 -946.59297893 0 14045.57620220 0 3900.14891109 0 6988.88464250 0 2493
0.04950000 0.04949480 40207.81889994 0 -1979.94205175 0 14134.81914024 0 4456.48894393 0 7120.44600600 0 2644
0.05050000 0.05050630 40090.67370335 0 -15.11737724 0 12447.72900762 0 2136.89225605 0 3364.72449984 0 2829
0.05150000 0.05149060 40269.82391892 0 2085.35058402 0 13378.69007837 0 -1028.97550451 0 6344.15424064 0 2784
0.05250000 0.05249300 38064.54898479 0 1726.47439200 0 10367.64885021 0 -1921.64626158 0 3021.58208138 0 3055
0.05350000 0.05348950 36810.71892233 0 1727.61484145 0 12963.81006742 0 -660.00467395 0 4373.97797938 0 3009
0.05450000 0.05448610 35995.02075294 0 880.55099032 0 11440.70106536 0 61.02312522 0 1134.49254557 0 3336
0.05550000 0.05550870 35427.56410598 0 -652.31272990 0 10240.91502034 0 2169.13486592 0 -124.90357458 0 3349
0.05650000 0.05647670 34549.41802461 0 1251.46058495 0 10401.82911693 0 2689.89951912 0 -1010.47918590 0 3324
0.05750000 0.05747970 33525.56014863 0 1054.72308864 0 8080.47192940 0 1819.99124742 0 -1203.28489967 0 3639
0.05850000 0.05849280 32746.51137439 0 1299.62519791 0 7989.25811754 0 1818.71793006 0 -329.25993760 0 3846
0.05950000 0.05951020 31637.72876706 0 975.99332302 0 7465.19391155 0 -706.65348565 0 -595.03337915 0 3787
0.06050000 0.06049470 30319.01488115 0 871.08636706 0 9312.23484850 0 -490.03452289 0 1559.91340975 0 3930
0.06150000 0.06148310 31466.32917886 0 -200.36811162 0 9099.45798246 0 -1380.84070046 0 1851.00482923 0 4083
0.06250000 0.06249100 31225.28466756 0 -865.17928177 0 10266.52530764 0 571.36296315 0 3005.51613807 0 4303
0.06350000 0.06350600 32654.38963190 0 73.51868667 0 11096.01959376 0 -230.53244612 0 1822.75932862 0 4470
0.06450000 0.06451750 32504.24890736 0 538.98637815 0 10804.18632851 0 -399.00008270 0 2184.48110812 0 4479
0.06550000 0.06550280 31998.68655614 0 791.91149398 0 10633.80539420 0 -298.47998183 0 2108.72426171 0 4636
0.06650000 0.06648880 31644.81505494 0 905.29985075 0 12333.79478523 0 492.93879369 0 2749.08109527 0 4653
0.06750000 0.06749660 31334.78996002 0 -534.06251530 0 11976.71230983 0 1338.40047943 0 1190.49636450 0 5220
0.06850000 0.06852730 30686.06244889 0 -241.51729957 0 12571.07470610 0 833.36738534 0 960.59061197 0 5029
0.06950000 0.06949320 32735.10687983 0 104.96419988 0 11582.31609979 0 462.28284797 0 1147.31429771 0 5040
0.07050000 0.07048030 31350.73410776 0 170.73414147 0 12458.35843944 0 133.37501030 0 1593.30754140 0 5475
0.07150000 0.07148790 30959.65959516 0 1361.15410693 0 12026.98066451 0 -632.92730361 0 2189.96190891 0 5509
0.07250000 0.07249820 30425.86281565 0 1570.39890135 0 12718.89024243 0 -1372.22643175 0 820.93537903 0 5916
0.07350000 0.07351270 28314.92408898 0 1226.13817809 0 11660.04382002 0 612.88528845 0 2301.51558145 0 5721
0.07450000 0.07449140 28527.40200225 0 235.09645841 0 12642.49120118 0 1527.41613641 0 1237.54267266 0 6028
0.07550000 0.07549160 28130.12698776 0 -330.47014270 0 11818.15661843 0 1632.91324728 0 1493.77841361 0 6183
0.07650000 0.07648840 28045.20225640 0 215.64791987 0 10678.21648905 0 1706.12345898 0 1026.00037083 0 6330
0.07750000 0.07749960 27909.34483087 0 376.80450037 0 9678.44091955 0 1415.28670297 0 1049.96752514 0 6583
0.07850000 0.07848650 27063.08704498 0 613.33925377 0 9596.07389523 0 990.89445776 0 2157.04388722 0 6549
0.07950000 0.07947320 27341.66673742 0 694.74298584 0 9271.63263339 0 -0.19435916 0 1548.07709452 0 6828
0.08050000 0.08048110 26159.69606303 0 907.48552767 0 9347.12374400 0 -119.56007062 0 2555.08289213 0 7147
0.08150000 0.08149960 25590.57856735 0 430.61599899 0 9432.20348791 0 4.64341193 0 1237.39873243 0 7386
0.08250000 0.08250610 24846.96123253 0 865.43615971 0 9152.84873274 0 797.91712296 0 2122.87469283 0 7227
0.08350000 0.08350160 24449.79694129 0 861.57856174 0 9124.06068821 0 590.31213985 0 1770.17685806 0 7798
0.08450000 0.08449610 23956.08197762 0 303.97406941 0 8068.83491602 0 161.34259556 0 847.42480893 0 7371
0.08550000 0.08548940 23408.99840833 0 577.89784926 0 8626.42612156 0 1428.01987651 0 1797.59193431 0 8256
0.08650000 0.08650700 22676.67484483 0 976.12065476 0 9016.54841422 0 493.76811082 0 992.90297748 0 8037
0.08750000 0.08749060 21463.59093770 0 1532.05544051 0 8965.99217910 0 731.60496962 0 2897.78241759 0 8155
0.08850000 0.08849210 20564.73960892 0 712.81966334 0 8361.65361817 0 1044.30845992 0 2919.42881261 0 8718
0.08950000 0.08949900 20345.72902401 0 -121.34825108 0 8748.81960010 0 1474.26897728 0 4132.05875442 0 8571
0.09050000 0.09049190 20626.63390466 0 -396.26521847 0 8046.39131361 0 1282.56274537 0 3704.45664225 0 8932
0.09150000 0.09150830 20592.86331396 0 397.53853582 0 8074.80289909 0 32.44445835 0 2578.52300377 0 9285
0.09250000 0.09250820 20081.87552358 0 966.95609150 0 7203.55487609 0 -1021.13519131 0 4218.96543192 0 9204
0.09350000 0.09350330 19583.17801375 0 701.69529859 0 8591.74760023 0 -1052.84854405 0 3346.67661038 0 9349
0.09450000 0.09448040 19169.95885152 0 377.79436621 0 8322.70117946 0 164.49820813 0 3345.25935281 0 9564
0.09550000 0.09549270 18837.23549071 0 -23.36526273 0 8125.74666558 0 589.19272781 0 1811.64271450 0 10155
0.09650000 0.09649430 18719.42595464 0 339.35789783 0 7009.14699692 0 1045.18760251 0 576.27686091 0 9913
0.09750000 0.09749140 18192.93690952 0 301.46286614 0 7251.33195768 0 189.63902887 0 341.74176937 0 10476
0.09850000 0.09850240 17952.55673770 0 279.65592241 0 6596.20464281 0 534.84200697 0 -335.74721271 0 10575
0.09950000 0.09950330 17587.05929544 0 229.64887460 0 6245.54411580 0 167.04705731 0 -639.87186573 0 10882
0.10050000 0.10051200 17231.96983851 0 116.70341082 0 5966.03434808 0 -159.58652484 0 -796.35038900 0 10875
0.10150000 0.10150300 17524.38993697 0 179.86991668 0 5859.18641358 0 633.83412701 0 -113.85117995 0 11118
0.10250000 0.10250800 17092.56926904 0 164.70858230 0 6552.51324908 0 -139.81024549 0 108.19333269 0 11575
0.10350000 0.10349800 17259.76137380 0 321.51373915 0 5965.39215324 0 633.83412701 0 690.38713325 0 11364
0.10450000 0.10450100 17077.73235378 0 363.87313221 0 6739.60232154 0 146.70387492 0 872.15041748 0 12093
0.10550000 0.10551000 16596.86128691 0 539.51452804 0 6628.31438478 0 131.90128387 0 1724.54780748 0 12067
0.10650000 0.10649700 16388.14796408 0 448.17338445 0 7151.70317896 0 -369.72374865 0 1744.64407702 0 12054
0.10750000 0.10749900 15894.87589341 0 304.53211458 0 6797.24484454 0 149.28151213 0 1524.89164635 0 12807
0.10850000 0.10850100 16109.01465540 0 -29.50929577 0 6858.53016241 0 907.12235542 0 2716.81634075 0 12736
0.10950000 0.10950300 15915.58114082 0 -223.56352488 0 6649.10821079 0 1019.93273683 0 1960.20009659 0 12933
0.11050000 0.11050200 16131.71292128 0 153.21108021 0 6368.07046225 0 685.55627794 0 1323.64107045 0 13428
0.11150000 0.11150900 15803.52921365 0 244.64190964 0 6315.85337840 0 547.93170937 0 1440.31015706 0 13453
0.11250000 0.11250000 15337.71650853 0 608.81399462 0 5996.94827898 0 16.64624386 0 2333.08277951 0 13668
0.11350000 0.11349100 14929.70133897 0 523.07323292 0 5660.88107608 0 463.99352215 0 1442.79035782 0 13791
0.11450000 0.11448600 14530.43330601 0 207.97258430 0 5689.81306083 0 541.56290813 0 1327.36137158 0 14205
0.11550000 0.11549300 14215.75783466 0 193.79336514 0 5007.31495901 0 318.40463034 0 696.59870748 0 14776
0.11650000 0.11649800 14337.77485416 0 -38.23450917 0 4652.66839507 0 346.79185671 0 569.65782513 0 14553
0.11750000 0.11747300 14315.74092777 0 -351.51752495 0 3744.67132599 0 125.48708610 0 319.35574305 0 14568
0.11850000 0.11849100 14628.97699689 0 -212.59195822 0 3591.34177190 0 495.94271542 0 234.87058298 0 16015
0.11950000 0.11950300 14666.40145478 0 -102.74663466 0 3355.45696397 0 -148.47212519 0 86.24422031 0 15270
0.12050000 0.12050700 14708.69773559 0 191.04078519 0 3786.11503779 0 -226.66931199 0 -205.99395986 0 15999
0.12150000 0.12150000 14499.20935002 0 334.23473314 0 3827.52553261 0 -44.10937400 0 495.22412154 0 15670
0.12250000 0.12250700 14165.15731024 0 392.74643364 0 4102.37385158 0 -193.53427274 0 159.41601104 0 16887
0.12350000 0.12352200 14119.76077848 0 230.26117416 0 4346.90614520 0 146.73819912 0 658.89633424 0 16407
0.12450000 0.12449800 13858.56463601 0 94.06272103 0 4380.02346873 0 376.19995143 0 378.87502511 0 16306
0.12550000 0.12549900 13757.25286392 0 220.68472043 0 3979.01708078 0 619.14779537 0 657.88100205 0 17523
0.12650000 0.12650100 13497.16395393 0 237.03965142 0 3687.15059856 0 296.73609067 0 254.53613909 0 17154
0.12750000 0.12750600 13479.66968072 0 127.46681778 0 3537.78493675 0 417.46207710 0 726.09316633 0 18007
0.12850000 0.12850300 13467.82229316 0 -0.17751373 0 3377.33587781 0 306.06452433 0 352.32580466 0 17496
0.12950000 0.12949900 13097.78519772 0 221.93810759 0 3478.62550525 0 56.47062815 0 672.79653082 0 18405
0.13050000 0.13049000 13047.84901279 0 244.92314669 0 3569.01996507 0 -207.65148688 0 -107.62875485 0 18100
0.13150000 0.13148800 12886.74668668 0 89.03267459 0 3397.98576359 0 14.31197634 0 219.63063510 0 19059
0.13250000 0.13249300 12776.46633148 0 247.96803601 0 3844.59905748 0 -64.55453250 0 -370.01052186 0 18957
0.13350000 0.13349100 12460.24073466 0 220.79433644 0 3364.07123267 0 195.74984493 0 46.14834261 0 19468
0.13450000 0.13450700 12484.26767952 0 90.08609557 0 3365.20060981 0 333.29690723 0 251.05832187 0 19953
0.13550000 0.13551000 12415.39781915 0 -22.51457601 0 3067.14469801 0 581.72112302 0 606.21199829 0 19956
0.13650000 0.13649900 12429.68111816 0 -35.05752701 0 3023.66367845 0 569.62350092 0 792.74966897 0 19723
0.13750000 0.13749600 12373.32298484 0 271.01729459 0 3245.56414014 0 320.06105014 0 900.69487086 0 20946
0.13850000 0.13851100 11950.24945352 0 384.92605062 0 3196.64660909 0 -247.21954685 0 1221.94176699 0 20955
0.13950000 0.13949800 11849.15912792 0 384.21631460 0 3153.37596370 0 -467.80904529 0 1426.18187059 0 20506
0.14050000 0.14048300 11473.03225383 0 236.37641916 0 3392.32780561 0 -13.09269193 0 1449.59983758 0 21447
0.14150000 0.14148400 11449.89109496 0 58.46087853 0 3525.45036691 0 30.71285747 0 1388.77955735 0 21771
0.14250000 0.14249400 11298.97530768 0 -13.13321664 0 3204.19793462 0 354.41072342 0 924.92776096 0 22470
0.14350000 0.14350900 11393.42223839 0 226.14448379 0 3160.19651579 0 59.52681124 0 497.50944938 0 22519
0.14450000 0.14449900 11054.34336314 0 497.27471609 0 3049.20753181 0 -125.69192411 0 390.45889133 0 22218
0.14550000 0.14550500 10747.77283356 0 368.20462568 0 2928.59669756 0 -101.92241080 0 708.12278315 0 23559
0.14650000 0.14650700 10392.26262829 0 285.21755117 0 3010.06686357 0 -138.75948186 0 712.73883537 0 23044
0.14750000 0.14750500 10373.19608495 0 93.02070454 0 3152.34623749 0 94.90432844 0 436.14108907 0 23649
0.14850000 0.14849900 10404.56398116 0 -155.00811853 0 3103.57264667 0 172.94085581 0 353.44964563 0 23640
0.14950000 0.14949500 10296.68632045 0 135.53189918 0 3085.50261256 0 -221.44096021 0 154.98375942 0 24457
0.15050000 0.15050000 10257.31313340 0 258.63289928 0 3406.54467068 0 -374.00652389 0 107.61890048 0 24591
0.15150000 0.15149900 10151.18490001 0 121.00390178 0 3396.39134882 0 46.68900423 0 198.83902356 0 25020
0.15250000 0.15250500 10032.98783257 0 175.06120601 0 3599.76781109 0 23.18544817 0 233.88846777 0 25297
0.15350000 0.15350100 9977.40476198 0 32.08106465 0 3451.71975594 0 243.44388409 0 189.05883905 0 25452
0.15450000 0.15450400 9958.02819355 0 24.48987876 0 3394.68621080 0 391.82078729 0 -31.63263550 0 26061
0.15550000 0.15549900 9773.95079344 0 106.73665764 0 3166.00948632 0 401.31198412 0 338.70573790 0 26128
0.15650000 0.15649500 9729.18538420 0 145.87012886 0 2803.84481383 0 561.38126233 0 322.28105126 0 26331
0.15750000 0.15749700 9601.03429674 0 54.92913909 0 2456.66099681 0 435.02389150 0 389.16010763 0 27345
0.15850000 0.15849900 9448.97806001 0 92.70536473 0 2082.89252791 0 552.20562675 0 418.11534427 0 26980
0.15950000 0.15949700 9378.77952066 0 13.40769957 0 1999.66186225 0 132.42832653 0 5.73406914 0 27777
0.16050000 0.16050000 9348.51885693 0 153.33398302 0 1673.78119819 0 69.88541400 0 65.70206824 0 28224
0.16150000 0.16150500 9230.16677694 0 130.72540297 0 1818.92830423 0 -82.71436316 0 186.88312722 0 28075
0.16250000 0.16249700 9165.49332768 0 51.19865141 0 1631.69529155 0 43.36110629 0 126.00194920 0 28590
0.16350000 0.16349900 9094.26506212 0 46.43212630 0 1900.26560235 0 58.09925640 0 180.89632119 0 29163
0.16450000 0.16449100 9152.50549067 0 65.59732405 0 1896.06919124 0 28.80144204 0 309.42165322 0 28996
0.16550000 0.16550500 9105.13808509 0 204.25117593 0 2178.02594275 0 -171.82697993 0 361.83028828 0 30777
0.16650000 0.16650700 9045.04857830 0 113.63416238 0 2441.37011624 0 -147.38703736 0 769.05932279 0 29211
0.16750000 0.16749900 8852.33476483 0 154.03929011 0 2613.50047787 0 6.55719684 0 533.56204622 0 30922
0.16850000 0.16850800 8945.34229331 0 69.90611925 0 2629.27854074 0 -111.60681971 0 596.35209303 0 30867
0.16950000 0.16949900 8748.34349014 0 102.98336097 0 2705.40077386 0 -40.90050354 0 446.69190739 0 30852
0.17050000 0.17049200 8711.61658871 0 220.31379754 0 2770.62783937 0 -169.13640500 0 663.39280535 0 31257
0.17150000 0.17149500 8495.41837430 0 173.90193360 0 2477.60983537 0 311.10464659 0 467.01848129 0 32608
0.17250000 0.17250900 8406.95049900 0 61.23427445 0 2369.46643887 0 266.03585565 0 463.02137203 0 32361
0.17350000 0.17350400 8302.43882504 0 89.85612339 0 1922.90850660 0 281.41863652 0 239.15225099 0 32508
0.17450000 0.17449800 8319.57878386 0 17.06632786 0 2209.38276664 0 114.23760408 0 -12.94144397 0 32791
0.17550000 0.17549800 8149.04283700 0 260.88390291 0 2074.41112710 0 -190.88466541 0 -8.62833056 0 33633
0.17650000 0.17650100 7976.72424585 0 187.89403047 0 1920.92656046 0 -152.80140419 0 262.44510071 0 33984
0.17750000 0.17750300 7828.63190140 0 163.24260650 0 2139.42781843 0 -80.36858042 0 426.28450552 0 34069
0.17850000 0.17849800 7706.29378448 0 90.36755407 0 2264.91047560 0 286.15094815 0 340.40201806 0 34536
