### header ###
fiducial parameters:
Omega_m = 0.31
Omega_nu = 0
Omega_de = 0.69
Omega_k = 0
H_0 = 100
w_de = -1
zeff = 0
beta = 0
fgrowth = 0
b_1 = 2
gamma = 0.55
Lx = 3500 Ly = 3500 Lz = 3500
nx = 700 ny = 700 nz = 700
xoffset = -685.467585 yoffset = -31.7331281 zoffset = 572.489161
bins = 400 dk = 0.001
kx_ny = 0.628318531 ky_ny = 0.628318531 kz_ny = 0.628318531
############################
A(data) = 8.04371883 (not used)
A(ran) = 8.03970838 (used)
Ngal = 478189
weighted Ngal = 0
Nran = 23820508
weighted Nran = 0
SN(data) = 3488.24754
SN(ran) = 70.0287757
SN(data+ran) = 3558.27632
############################
13 columns: k_central k_mean P_0(k) sigma^{lin}_{P_0(k)} P^img_1(k) sigma^{lin}_{P_1(k)} P_2(k) sigma^{lin}_{P_2(k)} P^img_3(k) sigma^{lin}_{P_3(k)} P_4(k) sigma^{lin}_{P_4(k)} N_modes
### header ###
0.00050000 0 0 0 0 0 0 0 0 0 0 0 0
0.00150000 0.00179520 71378.95989913 0 -53213.03946217 0 -14593.98845046 0 76101.52788078 0 6768.71146349 0 3
0.00250000 0.00253879 115777.76446618 0 -39764.48301420 0 27363.92211031 0 -93031.00180524 0 16461.77892412 0 6
0.00350000 0.00331552 110807.39785508 0 9169.04754395 0 14629.19844339 0 -82554.81095483 0 44430.58213927 0 7
0.00450000 0.00420575 105973.66373226 0 28420.33262125 0 41331.32769928 0 -3686.19837862 0 108835.63825138 0 24
0.00550000 0.00557378 89169.74997124 0 -9003.30591373 0 25263.28064571 0 63709.27122051 0 36552.40158431 0 45
0.00650000 0.00659388 109162.71472652 0 -4955.82864860 0 57995.28727459 0 87409.47177157 0 -38890.43369301 0 40
0.00750000 0.00754703 107743.90702426 0 -14074.14280023 0 12490.24673492 0 28938.07452977 0 -38465.47786647 0 57
0.00850000 0.00846663 103632.53137260 0 13078.51935254 0 10536.90040739 0 -4763.93418717 0 -15480.88166844 0 75
0.00950000 0.00948925 85927.88398759 0 14366.34145219 0 2281.67397538 0 -57453.07552823 0 -14523.34701812 0 112
0.01050000 0.01054430 88302.23332170 0 4070.89523212 0 15823.57012158 0 -21695.77758914 0 -12877.88882682 0 105
0.01150000 0.01145670 88379.85031868 0 -9977.20546013 0 6315.18903891 0 -27020.01570144 0 -24106.77631840 0 144
0.01250000 0.01249090 94806.22764342 0 -10596.77954001 0 17821.34968860 0 -13217.91992200 0 -39856.27258694 0 169
0.01350000 0.01339930 96161.92309421 0 6834.39249431 0 20294.24271360 0 4600.82777027 0 -39287.70870751 0 180
0.01450000 0.01448870 97521.05096570 0 6883.14394049 0 29766.83804245 0 2096.98759740 0 -36441.45688963 0 267
0.01550000 0.01550050 81989.12587985 0 11051.02166570 0 8848.03870280 0 1333.14112514 0 -15457.74050957 0 238
0.01650000 0.01653350 79719.96363152 0 5731.65537632 0 29532.87981903 0 6240.22939989 0 -7813.50710570 0 315
0.01750000 0.01747870 77410.05522785 0 1264.94667658 0 35119.97492252 0 2124.15908251 0 17175.39025868 0 297
0.01850000 0.01844180 79097.36680696 0 -6829.36565884 0 32281.47373201 0 253.25728558 0 -13445.45619703 0 388
0.01950000 0.01947590 85017.51744100 0 -3626.76213900 0 40068.08616072 0 600.76773617 0 25293.95098546 0 399
0.02050000 0.02045430 92341.74958528 0 4281.28047600 0 50549.37028055 0 -4281.64586272 0 734.58896116 0 462
0.02150000 0.02154770 85422.65380611 0 7589.01572000 0 39217.39944491 0 6009.36035510 0 16674.92117688 0 571
0.02250000 0.02255340 82558.13265228 0 7101.54554753 0 38682.16326317 0 16930.35971045 0 8095.98425647 0 510
0.02350000 0.02348930 77877.30733520 0 3268.24026137 0 32187.58041755 0 10793.94442806 0 4842.75806756 0 555
0.02450000 0.02439640 77022.85602894 0 3486.77473632 0 35003.38334218 0 8432.08467634 0 3183.82485695 0 592
0.02550000 0.02547300 66863.33366835 0 7094.55891057 0 29670.95170952 0 2553.42204340 0 2134.88816526 0 837
0.02650000 0.02652900 60573.36738537 0 7179.66079913 0 21546.07975760 0 4562.00819945 0 12666.73959253 0 723
0.02750000 0.02749970 55380.66849192 0 523.67113846 0 21933.94329599 0 4290.95768789 0 -370.80219308 0 826
0.02850000 0.02848090 54002.71766824 0 -376.21988162 0 20166.68953169 0 8177.34369924 0 1256.69779459 0 831
0.02950000 0.02946900 53251.23898280 0 -3535.22722972 0 15692.36307247 0 8987.04066858 0 -4103.35928849 0 996
0.03050000 0.03053250 58122.28684026 0 -2018.17478934 0 7904.83164080 0 7346.86397622 0 574.59386753 0 1041
0.03150000 0.03150510 59005.63691430 0 -1886.30340075 0 9975.77713023 0 -4819.30688359 0 66.23520068 0 1036
0.03250000 0.03246190 62861.24186265 0 1342.77404773 0 16973.32033074 0 -4805.14538015 0 -4788.63654384 0 1059
0.03350000 0.03345080 59903.49173384 0 2749.42433734 0 14698.28975026 0 -9991.38910823 0 3520.10243402 0 1302
0.03450000 0.03451200 57790.11709571 0 3369.41916556 0 21887.21808526 0 -3594.57489075 0 -1440.03334894 0 1339
0.03550000 0.03553350 58144.54221315 0 2041.64811796 0 20999.43908130 0 1822.91434117 0 4309.86921868 0 1365
0.03650000 0.03647120 54507.50495672 0 1660.27296191 0 29243.00635528 0 6298.15980334 0 2768.04798769 0 1308
0.03750000 0.03744890 52333.56470183 0 4364.67722654 0 20722.29879109 0 3849.07227671 0 1993.64958987 0 1579
0.03850000 0.03847530 48911.10910038 0 2636.54198582 0 22747.31627717 0 7180.23656002 0 2365.63541448 0 1662
0.03950000 0.03950240 46508.74678448 0 2376.77417325 0 20143.76981932 0 -333.28029874 0 8640.70942057 0 1683
0.04050000 0.04050350 43460.20359217 0 3551.65855975 0 18882.63202247 0 5073.77105257 0 6893.35262397 0 1822
0.04150000 0.04152450 44184.33363530 0 -2591.33368358 0 18714.22196198 0 1976.29925688 0 10530.02449368 0 1887
0.04250000 0.04250150 44688.56730755 0 -2792.28530672 0 15054.37571642 0 4694.68786776 0 8441.24148897 0 1920
0.04350000 0.04349210 47589.84857978 0 338.42560808 0 19050.37774347 0 2771.43611908 0 4825.04234785 0 2005
0.04450000 0.04448520 47219.92220758 0 1036.53790236 0 17902.28838303 0 4190.64242504 0 6778.99765324 0 2151
0.04550000 0.04548030 44706.72592025 0 1936.33923661 0 14516.48217673 0 2153.29036911 0 8077.96958399 0 2274
0.04650000 0.04648670 43359.66688281 0 2092.58081213 0 12417.94445386 0 2961.16040485 0 4302.62791825 0 2311
0.04750000 0.04749250 43146.19246031 0 1249.42327719 0 11524.62928749 0 -522.52293838 0 3488.01483669 0 2568
0.04850000 0.04851840 39867.89852800 0 1611.63223898 0 13544.77495065 0 -659.41341181 0 919.20669072 0 2493
0.04950000 0.04949480 39494.98262811 0 2308.92296676 0 10753.37542992 0 -2083.12504673 0 1643.70876398 0 2644
0.05050000 0.05050630 37577.69886251 0 1493.44624386 0 12044.14276798 0 -551.68854918 0 5.20367157 0 2829
0.05150000 0.05149060 35588.99860184 0 1347.60158135 0 12586.02234460 0 1147.32537003 0 1212.27562742 0 2784
0.05250000 0.05249300 35808.67352624 0 765.92696210 0 13871.62997930 0 1370.68737860 0 -1586.04409632 0 3055
0.05350000 0.05348950 34523.50878454 0 291.19882103 0 15020.60512573 0 1831.37359733 0 573.65825609 0 3009
0.05450000 0.05448610 34139.63128308 0 182.32132939 0 13116.82959641 0 458.69430749 0 -847.74922804 0 3336
0.05550000 0.05550870 34795.99869833 0 -305.34703769 0 13349.01624786 0 1192.69975714 0 602.53598645 0 3349
0.05650000 0.05647670 35036.15742364 0 -108.50357923 0 12875.89580836 0 1026.39343836 0 293.09772474 0 3324
0.05750000 0.05747970 34209.94054568 0 -140.97505406 0 10588.55280267 0 2482.63667084 0 1988.71133300 0 3639
0.05850000 0.05849280 34883.47006439 0 -39.80666857 0 9657.83532306 0 5132.05577042 0 1928.09035462 0 3846
0.05950000 0.05951020 34086.04123095 0 310.11256629 0 6459.31749108 0 3782.59403849 0 2717.33674002 0 3787
0.06050000 0.06049470 34300.51216269 0 1176.21306548 0 5308.99152102 0 1029.25120540 0 4260.20984187 0 3930
0.06150000 0.06148310 33337.77351971 0 1734.33574262 0 7559.81799945 0 -497.19278089 0 7721.35214623 0 4083
0.06250000 0.06249100 31037.27659214 0 1697.60884119 0 8311.78386719 0 -2892.22411053 0 7337.81788684 0 4303
0.06350000 0.06350600 31275.77446873 0 909.88711492 0 10020.59790110 0 -3482.46760196 0 4549.49647241 0 4470
0.06450000 0.06451750 30205.96644476 0 -234.72110660 0 12085.11036981 0 -1530.85962943 0 4838.97133247 0 4479
0.06550000 0.06550280 31397.45931849 0 -145.49920598 0 14469.53551950 0 -604.08500469 0 956.34769710 0 4636
0.06650000 0.06648880 31290.50066074 0 -382.26204927 0 12044.36421448 0 225.84885272 0 1365.22872246 0 4653
0.06750000 0.06749660 31229.71359749 0 -367.81266538 0 11117.94279690 0 2491.10699932 0 -732.70002255 0 5220
0.06850000 0.06852730 30751.05699558 0 482.89508785 0 8945.91805420 0 1600.23881674 0 -1045.12449026 0 5029
0.06950000 0.06949320 31577.49532004 0 522.27270384 0 10487.51783870 0 1208.41138606 0 -3342.96738157 0 5040
0.07050000 0.07048030 29571.52223265 0 425.82168234 0 8978.26031500 0 99.52868490 0 -1442.86786409 0 5475
0.07150000 0.07148790 30054.71848773 0 973.52530182 0 7708.34216457 0 197.58231469 0 -2130.20457186 0 5509
0.07250000 0.07249820 28753.60959829 0 643.98523440 0 8179.94569557 0 459.58895134 0 -1030.47137559 0 5916
0.07350000 0.07351270 28659.71628383 0 818.74416595 0 8214.87888037 0 1431.96162415 0 -1006.81535362 0 5721
0.07450000 0.07449140 27780.90586298 0 730.96166755 0 8066.58723408 0 1748.40866746 0 -295.29558122 0 6028
0.07550000 0.07549160 27260.06370351 0 393.92563624 0 7430.77005369 0 -179.17678915 0 -2233.93011076 0 6183
0.07650000 0.07648840 26404.50516477 0 804.52065749 0 8051.25206420 0 -467.11148882 0 -2051.72393354 0 6330
0.07750000 0.07749960 26293.33902359 0 1281.09012617 0 7569.49521134 0 -394.64312288 0 -1924.45863208 0 6583
0.07850000 0.07848650 25006.18126342 0 -228.31687392 0 7800.41961776 0 194.74779954 0 1683.12624033 0 6549
0.07950000 0.07947320 25447.63485394 0 -446.38298953 0 7965.45261918 0 601.76424541 0 -1194.74813723 0 6828
0.08050000 0.08048110 26176.30455026 0 -350.54205313 0 7356.36403091 0 1592.67641889 0 -830.93922450 0 7147
0.08150000 0.08149960 25981.09946371 0 185.70503186 0 7571.18927704 0 648.43852345 0 -1973.36509080 0 7386
0.08250000 0.08250610 25782.01906347 0 612.10579679 0 7267.59720284 0 112.09510923 0 438.10531949 0 7227
0.08350000 0.08350160 25404.12061741 0 748.73053442 0 7943.81729649 0 -431.24933597 0 729.78246496 0 7798
0.08450000 0.08449610 25136.05963355 0 776.18436381 0 8091.77677304 0 -736.41700199 0 -658.47226420 0 7371
0.08550000 0.08548940 23728.43497935 0 1353.72457698 0 8171.87397078 0 -601.68895360 0 -290.85557896 0 8256
0.08650000 0.08650700 22886.38467689 0 1388.49167691 0 8277.92469789 0 -959.89416274 0 -1372.35929965 0 8037
0.08750000 0.08749060 21587.60097567 0 560.67595524 0 8767.59826300 0 665.39357444 0 -1082.34521737 0 8155
0.08850000 0.08849210 21532.35007482 0 165.55561515 0 8340.02936780 0 1191.92469440 0 -2662.04154987 0 8718
0.08950000 0.08949900 21054.46853565 0 403.72021477 0 6763.25280735 0 937.39187701 0 -2805.42815627 0 8571
0.09050000 0.09049190 20649.33217053 0 366.07984655 0 7225.35628366 0 1008.91798810 0 -2769.53167921 0 8932
0.09150000 0.09150830 20230.57684589 0 378.39227175 0 6269.68178391 0 102.90020781 0 -1270.49391132 0 9285
0.09250000 0.09250820 19723.79653894 0 433.24456890 0 6857.55579783 0 823.22402857 0 -1808.35423403 0 9204
0.09350000 0.09350330 19380.55446957 0 371.09560969 0 6440.89314258 0 77.58433362 0 -1429.52571269 0 9349
0.09450000 0.09448040 19364.94249157 0 520.84880286 0 7079.86593554 0 284.14353566 0 -399.47176374 0 9564
0.09550000 0.09549270 18557.21639605 0 706.81181989 0 7257.52138725 0 122.68578792 0 406.59237583 0 10155
0.09650000 0.09649430 18250.51299857 0 388.75375331 0 6698.39112856 0 113.33299515 0 506.21229669 0 9913
0.09750000 0.09749140 18014.78320319 0 193.98934529 0 7793.62121032 0 400.78051253 0 526.44475583 0 10476
0.09850000 0.09850240 17855.67389554 0 190.56246076 0 7340.37559387 0 343.27307189 0 394.79592097 0 10575
0.09950000 0.09950330 17244.14939581 0 677.69603455 0 7152.15714428 0 575.91701035 0 1133.23030054 0 10882
0.10050000 0.10051200 17242.37782384 0 170.43518870 0 6847.62392247 0 857.28471418 0 553.01058476 0 10875
0.10150000 0.10150300 16785.09080883 0 20.40762332 0 6363.54188140 0 913.30181990 0 1201.10365168 0 11118
0.10250000 0.10250800 16900.79660318 0 277.32187634 0 5982.81999251 0 -37.39367682 0 -421.42818385 0 11575
0.10350000 0.10349800 16589.66427578 0 124.37653192 0 5917.37148050 0 11.05739932 0 505.54131380 0 11364
0.10450000 0.10450100 16418.37541083 0 317.80561757 0 6205.69481878 0 -180.88081993 0 -74.33637786 0 12093
0.10550000 0.10551000 16109.01465540 0 92.04268609 0 5692.33755089 0 -131.51153803 0 195.37670759 0 12067
0.10650000 0.10649700 16075.35478795 0 150.38431569 0 5996.99256828 0 363.06485250 0 -539.64628871 0 12054
0.10750000 0.10749900 16117.76179201 0 266.86406555 0 5656.58501405 0 -420.82584938 0 -850.84505006 0 12807
0.10850000 0.10850100 15934.95770925 0 235.93352617 0 5842.37862451 0 317.65392672 0 -502.64811533 0 12736
0.10950000 0.10950300 15557.28070969 0 266.77770141 0 6065.71848842 0 250.50581286 0 -64.11795073 0 12933
0.11050000 0.11050200 15550.74803804 0 227.09559650 0 5374.52861162 0 998.44135436 0 443.79317275 0 13428
0.11150000 0.11150900 15488.30012607 0 -107.25594967 0 5610.47985351 0 717.07697223 0 786.18156589 0 13453
0.11250000 0.11250000 15231.20074378 0 134.20764913 0 4622.38558669 0 838.76514368 0 116.23837318 0 13668
0.11350000 0.11349100 15533.14304158 0 -18.22238929 0 5016.77072441 0 30.57212823 0 461.75359084 0 13791
0.11450000 0.11448600 15038.43156869 0 134.72583393 0 4363.32640291 0 -45.39985345 0 275.47058363 0 14205
0.11550000 0.11549300 15278.92246375 0 281.14404287 0 5015.15416498 0 -600.53411012 0 118.87469372 0 14776
0.11650000 0.11649800 15137.52887581 0 280.30476064 0 4865.45633343 0 -246.02927194 0 260.73442653 0 14553
0.11750000 0.11747300 14894.15917630 0 52.88718094 0 5023.19267280 0 237.02636463 0 567.51090135 0 14568
0.11850000 0.11849100 14992.81359043 0 44.31664792 0 5231.04235430 0 229.86921386 0 74.11581715 0 16015
0.11950000 0.11950300 14735.16059190 0 256.30992553 0 5236.87746948 0 370.80330032 0 32.61010033 0 15270
0.12050000 0.12050700 14571.62235433 0 517.88584874 0 5469.57344786 0 57.70862479 0 62.92712220 0 15999
0.12150000 0.12150000 14157.96029911 0 323.22109164 0 5078.06711460 0 83.62162945 0 347.45398174 0 15670
0.12250000 0.12250700 13879.49132992 0 6.54759714 0 5104.99500856 0 87.83520266 0 501.87526705 0 16887
0.12350000 0.12352200 13999.29388446 0 84.52225235 0 4872.49833202 0 454.44917816 0 180.52318384 0 16407
0.12450000 0.12449800 13989.88240836 0 109.75419832 0 4479.77404303 0 248.81839056 0 -887.67381687 0 16306
0.12550000 0.12549900 13684.17552012 0 253.90169488 0 4325.00508671 0 -141.15221125 0 -575.56158872 0 17523
0.12650000 0.12650100 13481.77342243 0 398.79635192 0 3895.23279887 0 -421.73378002 0 -298.49548309 0 17154
0.12750000 0.12750600 13084.60913119 0 348.13160802 0 4195.70247748 0 23.88377970 0 -484.27248506 0 18007
0.12850000 0.12850300 13032.45848129 0 -18.18496484 0 4360.86834680 0 499.01639279 0 75.11952339 0 17496
0.12950000 0.12949900 13080.40164776 0 -12.47873152 0 4309.49275964 0 565.11374302 0 -274.15519144 0 18405
0.13050000 0.13049000 13112.17921999 0 42.92031703 0 4055.26110948 0 568.93258785 0 -31.91143664 0 18100
0.13150000 0.13148800 12854.52622146 0 113.21341404 0 3997.61858647 0 447.87000275 0 66.41401873 0 19059
0.13250000 0.13249300 12969.34622982 0 69.99968040 0 3791.89479134 0 135.85078213 0 495.04032094 0 18957
0.13350000 0.13349100 12868.92024372 0 35.89935587 0 3643.82459154 0 121.29621116 0 293.41439323 0 19468
0.13450000 0.13450700 12835.26037627 0 122.72454106 0 3776.42675357 0 -128.36367609 0 -142.45985281 0 19953
0.13550000 0.13551000 12633.96551107 0 227.94927274 0 3801.85988368 0 -59.84580492 0 58.33166450 0 19956
0.13650000 0.13649900 12475.18837317 0 408.12589282 0 3899.39599301 0 -244.74045333 0 90.97343168 0 19723
0.13750000 0.13749600 12318.95786998 0 331.62720064 0 3983.13598561 0 167.73354145 0 272.94055741 0 20946
0.13850000 0.13851100 11944.04895162 0 343.85990510 0 4005.76781754 0 -14.27986660 0 5.11995372 0 20955
0.13950000 0.13949800 11608.11461662 0 117.42532640 0 3618.36931678 0 262.99982418 0 -57.47964911 0 20506
0.14050000 0.14048300 11731.12814536 0 94.63903554 0 3952.45457354 0 309.11716429 0 -180.08804148 0 21447
0.14150000 0.14148400 11432.72899149 0 153.27640693 0 3685.54511146 0 262.89795880 0 -337.08253508 0 21771
0.14250000 0.14249400 11439.26166314 0 358.59606220 0 3698.83190124 0 117.51390500 0 -166.99391015 0 22470
0.14350000 0.14350900 10825.23481799 0 210.25348321 0 3342.46912695 0 246.01598515 0 52.62587408 0 22519
0.14450000 0.14449900 10834.51342619 0 189.97452031 0 3428.97720076 0 491.57246881 0 473.04182599 0 22218
0.14550000 0.14550500 10686.53180499 0 27.55658056 0 3419.80931581 0 396.94173752 0 471.54706214 0 23559
0.14650000 0.14650700 10777.14771131 0 -44.78401075 0 3354.57117798 0 464.97563736 0 743.59629740 0 23044
0.14750000 0.14750500 10706.96024428 0 75.78153769 0 3167.95821549 0 -61.36260270 0 716.07935576 0 23649
0.14850000 0.14849900 10600.95380647 0 164.59343013 0 3363.34045924 0 55.80396347 0 1134.81364299 0 23640
0.14950000 0.14949500 10588.51958570 0 165.88114150 0 3413.92991133 0 -26.27617692 0 1078.33371409 0 24457
0.15050000 0.15050000 10331.42020341 0 112.03088975 0 2943.72149326 0 354.20699265 0 1364.26543020 0 24591
0.15150000 0.15149900 10339.70230237 0 139.56333264 0 2973.78285514 0 402.00178996 0 1271.05859988 0 25020
0.15250000 0.15250500 10178.01314304 0 155.74664260 0 2695.52426012 0 494.90302412 0 1253.22108460 0 25297
0.15350000 0.15350100 10086.37858285 0 142.26497990 0 2627.00871415 0 354.18816969 0 1351.59869061 0 25452
0.15450000 0.15450400 9875.34007180 0 196.61680797 0 2348.82762540 0 123.38002269 0 1271.14717848 0 26061
0.15550000 0.15549900 9831.10613415 0 3.98869429 0 2401.18864947 0 -56.29767843 0 803.62047748 0 26128
0.15650000 0.15649500 9729.05251630 0 -27.72277616 0 2148.55141408 0 100.95922927 0 810.86067068 0 26331
0.15750000 0.15749700 9644.95820930 0 129.53623529 0 2380.33946184 0 -39.16081987 0 424.03682358 0 27345
0.15850000 0.15849900 9581.23697997 0 295.32436926 0 1912.34550873 0 5.96496033 0 96.48988536 0 26980
0.15950000 0.15949700 9307.06407281 0 335.87675891 0 2004.85478259 0 -179.20668442 0 -72.91048387 0 27777
0.16050000 0.16050000 9046.01187056 0 206.78120215 0 1882.79347379 0 -39.34262744 0 78.37334749 0 28224
0.16150000 0.16150500 8957.72115246 0 -27.66652875 0 1977.51721261 0 50.07027079 0 124.31563413 0 28075
0.16250000 0.16249700 9013.37065699 0 25.09464914 0 1881.65302433 0 68.08915075 0 -334.34434915 0 28590
0.16350000 0.16349900 9016.03908728 0 88.97775586 0 2119.24297029 0 -159.52230536 0 -277.68615582 0 29163
0.16450000 0.16449100 9005.15499198 0 178.08395069 0 2253.59455964 0 -237.56669408 0 -26.68629583 0 28996
0.16550000 0.16550500 8723.95115856 0 277.14361191 0 2315.59957862 0 -170.99655557 0 65.02278111 0 30777
0.16650000 0.16650700 8738.11266200 0 220.12003186 0 2728.45335414 0 -42.08391362 0 33.91807406 0 29211
0.16750000 0.16749900 8537.91395696 0 92.88252193 0 2663.06020376 0 -252.72359952 0 7.43454572 0 30922
0.16850000 0.16850800 8438.24088894 0 126.90102198 0 3014.60651675 0 -25.19662525 0 328.28446578 0 30867
0.16950000 0.16949900 8413.32815810 0 27.84423956 0 3056.82529128 0 219.61070492 0 530.99880303 0 30852
0.17050000 0.17049200 8470.29526929 0 -40.24690421 0 2857.46808292 0 518.11615310 0 467.54220226 0 31257
0.17150000 0.17149500 8404.68067241 0 24.79658215 0 2727.46791723 0 239.03156265 0 325.54627985 0 32608
0.17250000 0.17250900 8452.98922560 0 109.87865125 0 2801.27603447 0 61.48140874 0 589.39756582 0 32361
0.17350000 0.17350400 8298.53029438 0 234.18409884 0 2773.06375083 0 -3.60291235 0 560.87193539 0 32508
0.17450000 0.17449800 8062.81157131 0 180.46671499 0 2755.18194625 0 -77.31162226 0 617.65303152 0 32791
0.17550000 0.17549800 8035.54043529 0 130.16182164 0 2849.31885186 0 -16.87843051 0 567.51975921 0 33633
0.17650000 0.17650100 7888.38923845 0 75.90399761 0 2578.31262959 0 321.98320573 0 317.83108392 0 33984
0.17750000 0.17750300 7935.29160638 0 19.77384345 0 2705.19039969 0 57.87349170 0 340.53377873 0 34069
0.17850000 0.17849800 7864.82733123 0 35.64092781 0 2396.79293652 0 183.23701066 0 432.89579067 0 34536
