### header ###
fiducial parameters:
Omega_m = 0.31
Omega_nu = 0
Omega_de = 0.69
Omega_k = 0
H_0 = 100
w_de = -1
zeff = 0
beta = 0
fgrowth = 0
b_1 = 2
gamma = 0.55
Lx = 3500 Ly = 3500 Lz = 3500
nx = 700 ny = 700 nz = 700
xoffset = -685.467585 yoffset = -31.7331281 zoffset = 572.489161
bins = 400 dk = 0.001
kx_ny = 0.628318531 ky_ny = 0.628318531 kz_ny = 0.628318531
############################
A(data) = 7.9982437 (not used)
A(ran) = 7.98574178 (used)
Ngal = 474889
weighted Ngal = 0
Nran = 23820508
weighted Nran = 0
SN(data) = 3498.60044
SN(ran) = 69.5587071
SN(data+ran) = 3568.15915
############################
13 columns: k_central k_mean P_0(k) sigma^{lin}_{P_0(k)} P^img_1(k) sigma^{lin}_{P_1(k)} P_2(k) sigma^{lin}_{P_2(k)} P^img_3(k) sigma^{lin}_{P_3(k)} P_4(k) sigma^{lin}_{P_4(k)} N_modes
### header ###
0.00050000 0 0 0 0 0 0 0 0 0 0 0 0
0.00150000 0.00179520 5219.19496674 0 -2191.48988973 0 -10344.89522271 0 -7.20913533 0 -32052.49805476 0 3
0.00250000 0.00253879 4805.75435801 0 -1592.84250376 0 -6662.98183379 0 6553.58726458 0 844.37438344 0 6
0.00350000 0.00331552 11530.38689639 0 -8737.12722509 0 563.31559747 0 -19065.65755172 0 -27589.24392037 0 7
0.00450000 0.00420575 19400.48465424 0 -11360.64815692 0 3048.88643439 0 6403.09222565 0 -1745.58522463 0 24
0.00550000 0.00557378 35714.78021178 0 -11431.84320551 0 20292.02824864 0 -10400.58901655 0 -7130.37788136 0 45
0.00650000 0.00659388 52531.53786959 0 -8094.48949262 0 24287.58738269 0 10707.18169078 0 -2594.07962014 0 40
0.00750000 0.00754703 67695.52960171 0 -6608.98210565 0 47258.01100496 0 -5333.78245629 0 16394.68063572 0 57
0.00850000 0.00846663 68570.24326239 0 -1401.13627185 0 40638.75378188 0 14966.46145736 0 13833.76262842 0 75
0.00950000 0.00948925 72872.83796367 0 3132.80358419 0 39434.19556486 0 30057.70801543 0 16558.32959654 0 112
0.01050000 0.01054430 75867.01604112 0 7988.72664595 0 30715.40410966 0 26921.58273380 0 13917.35868080 0 105
0.01150000 0.01145670 65581.26917759 0 5857.52556486 0 28042.54489844 0 9805.86123356 0 19260.08757554 0 144
0.01250000 0.01249090 62398.64013172 0 5697.81835168 0 15204.95933396 0 15218.79973998 0 -2793.37039455 0 169
0.01350000 0.01339930 56363.33731957 0 -1514.62760124 0 6914.98794666 0 -757.49538675 0 -6271.85195957 0 180
0.01450000 0.01448870 59618.93298600 0 -252.74795864 0 16874.00157712 0 -3152.68947956 0 -12042.14974951 0 267
0.01550000 0.01550050 59351.53634163 0 2718.20038135 0 14077.35377443 0 -6393.40394143 0 -13181.27052685 0 238
0.01650000 0.01653350 53801.53352628 0 707.67213953 0 11267.97279819 0 -732.70334425 0 -987.14536858 0 315
0.01750000 0.01747870 61858.42140382 0 239.20318368 0 7014.98211210 0 3560.81537238 0 -4414.04872290 0 297
0.01850000 0.01844180 61224.30936146 0 -4541.21437344 0 24266.88213528 0 3364.44769172 0 -16155.85058938 0 388
0.01950000 0.01947590 62315.81914208 0 -3364.64699357 0 11822.25337861 0 8634.73036517 0 -8632.71520205 0 399
0.02050000 0.02045430 61748.03032538 0 -1006.03143302 0 3371.43432868 0 10781.27768846 0 -6247.01673501 0 462
0.02150000 0.02154770 61919.98352981 0 691.84646567 0 4034.96553809 0 3058.99546695 0 -5380.10906333 0 571
0.02250000 0.02255340 64652.63329505 0 310.73704541 0 -1952.74842199 0 5914.52589303 0 4823.84653677 0 510
0.02350000 0.02348930 63115.57316373 0 612.65830580 0 164.68422319 0 -290.88547424 0 4583.02347196 0 555
0.02450000 0.02439640 61449.52044827 0 -206.47117706 0 1535.74252467 0 2123.74940649 0 16851.08186475 0 592
0.02550000 0.02547300 64533.38435676 0 -1213.63752337 0 6262.97195507 0 1644.20701859 0 10770.10571272 0 837
0.02650000 0.02652900 62339.51391719 0 2411.67414107 0 8049.84587895 0 -1333.20755909 0 16580.03135319 0 723
0.02750000 0.02749970 62501.72347578 0 4572.03972574 0 18434.20286732 0 -5946.82386452 0 19423.51508986 0 826
0.02850000 0.02848090 61145.36368550 0 1397.29417514 0 13626.26726132 0 690.71487407 0 18325.14046785 0 831
0.02950000 0.02946900 60563.62373953 0 -1036.90771801 0 18385.15246837 0 -2148.80607755 0 8404.19349012 0 996
0.03050000 0.03053250 61075.05442290 0 326.48189130 0 14597.08870141 0 -1798.32270775 0 -1137.65923047 0 1041
0.03150000 0.03150510 61668.64175643 0 -181.11666045 0 18469.30213699 0 -3270.76475143 0 -2991.04460953 0 1036
0.03250000 0.03246190 57766.64376709 0 1981.74684069 0 11682.40991615 0 -4067.08635239 0 -4713.10114393 0 1059
0.03350000 0.03345080 57724.34748628 0 2842.74189091 0 11974.05495188 0 428.42921484 0 -9974.51488520 0 1302
0.03450000 0.03451200 54545.04013786 0 2794.80979677 0 15074.19517785 0 1236.72332062 0 -14802.70177330 0 1339
0.03550000 0.03553350 53420.75627577 0 318.08574739 0 12399.12150166 0 -404.84627020 0 -8569.14898527 0 1365
0.03650000 0.03647120 54340.42357521 0 -543.60132313 0 19054.14233391 0 -1437.33170168 0 -6464.38861584 0 1308
0.03750000 0.03744890 55230.08487439 0 1433.96571494 0 20428.77146015 0 2735.42891877 0 -1161.83011555 0 1579
0.03850000 0.03847530 54366.11136879 0 2931.61944223 0 22688.30078589 0 -469.71459239 0 2402.21837568 0 1662
0.03950000 0.03950240 51594.81918993 0 3498.00207368 0 20598.17802987 0 4683.83698943 0 8018.27868089 0 1683
0.04050000 0.04050350 49814.94297533 0 957.80813674 0 23025.01018362 0 6369.69809400 0 8804.24765815 0 1822
0.04150000 0.04152450 47484.10787776 0 255.70426936 0 19614.06979999 0 7714.85269156 0 2729.81525009 0 1887
0.04250000 0.04250150 48042.70666486 0 585.79795302 0 17406.80184739 0 4062.92315825 0 109.34762255 0 1920
0.04350000 0.04349210 44938.58040195 0 2706.03189638 0 12801.93267857 0 1542.65165536 0 1144.23619141 0 2005
0.04450000 0.04448520 43532.06298024 0 2219.12641248 0 11313.36932995 0 -3120.44686969 0 5715.35691419 0 2151
0.04550000 0.04548030 39768.69049763 0 2619.91135394 0 10986.99041127 0 2650.91386343 0 3903.38202994 0 2274
0.04650000 0.04648670 39089.29264676 0 1804.78894544 0 9181.93573003 0 2081.15417291 0 4339.57626617 0 2311
0.04750000 0.04749250 38283.67029295 0 1897.40894255 0 10396.47011172 0 2490.94091445 0 5251.09433454 0 2568
0.04850000 0.04851840 36874.60623653 0 60.66360683 0 9905.65609716 0 2697.98231623 0 7787.06639403 0 2493
0.04950000 0.04949480 35864.69948982 0 -206.80666850 0 10979.68267689 0 1860.58239020 0 8758.24214852 0 2644
0.05050000 0.05050630 37561.20109853 0 -1068.08959917 0 10148.51646973 0 2895.97762864 0 6797.44414639 0 2829
0.05150000 0.05149060 36956.65216344 0 73.85218509 0 10220.29835153 0 -333.78408952 0 6333.91234018 0 2784
0.05250000 0.05249300 38126.88617352 0 927.62165759 0 10232.76578927 0 -844.92135628 0 7733.45419726 0 3055
0.05350000 0.05348950 36555.50183526 0 359.62689564 0 9545.99377007 0 -339.24717458 0 8448.08418570 0 3009
0.05450000 0.05448610 36451.97559820 0 571.80253445 0 9372.24684902 0 854.22653806 0 5754.97369239 0 3336
0.05550000 0.05550870 35564.63948724 0 1434.22037841 0 10927.39915910 0 -1243.41100481 0 5194.79156284 0 3349
0.05650000 0.05647670 35391.35760382 0 1130.41793003 0 13221.79523569 0 -1152.88367709 0 2521.21265051 0 3324
0.05750000 0.05747970 34075.52252238 0 780.38409661 0 13524.73404273 0 -418.05001755 0 6090.45406207 0 3639
0.05850000 0.05849280 33838.68549451 0 944.10502754 0 14879.98660053 0 -1875.76254753 0 6181.26927023 0 3846
0.05950000 0.05951020 34234.07821378 0 260.73996269 0 15267.18579944 0 402.67277284 0 4967.98606125 0 3787
0.06050000 0.06049470 34409.57456216 0 -1056.73935899 0 15420.53749818 0 1785.81098070 0 3202.11633755 0 3930
0.06150000 0.06148310 34259.76600736 0 -331.91286662 0 14195.05258725 0 1599.70734515 0 2096.23467932 0 4083
0.06250000 0.06249100 35049.77638317 0 304.96393525 0 13597.14704704 0 2562.70065160 0 1039.34584394 0 4303
0.06350000 0.06350600 33271.67174054 0 755.70167013 0 9998.63040866 0 2221.31873279 0 -1274.53530987 0 4470
0.06450000 0.06451750 33037.38134738 0 1132.99778172 0 10178.91000135 0 1711.84785091 0 654.70878099 0 4479
0.06550000 0.06550280 31515.49030106 0 1455.60103763 0 8087.59143426 0 1736.77165408 0 367.36977239 0 4636
0.06650000 0.06648880 30166.65969165 0 1444.96053348 0 8082.78604529 0 1576.13436561 0 1030.57324098 0 4653
0.06750000 0.06749660 28579.44192890 0 945.22886851 0 7607.51757477 0 877.08756711 0 1942.93834220 0 5220
0.06850000 0.06852730 28393.20542545 0 147.81553633 0 8320.04382150 0 -347.63224617 0 2674.02180533 0 5029
0.06950000 0.06949320 28165.89059692 0 153.85991845 0 7041.98751233 0 1205.35542441 0 3538.51571019 0 5040
0.07050000 0.07048030 28197.88961565 0 -336.70939774 0 7003.84335333 0 -739.89924815 0 2909.51908189 0 5475
0.07150000 0.07148790 29028.20325380 0 -647.15966993 0 7462.00508200 0 -295.73183081 0 1217.60141566 0 5509
0.07250000 0.07249820 28716.40658690 0 436.37803682 0 7447.69963834 0 -1738.68716627 0 -296.71837496 0 5916
0.07350000 0.07351270 28575.12372222 0 1791.22534754 0 6859.07270633 0 -787.89224007 0 -1864.11446182 0 5721
0.07450000 0.07449140 27168.82774700 0 1012.05920665 0 8165.29700984 0 -1821.07633525 0 -1335.48845800 0 6028
0.07550000 0.07549160 25881.44854034 0 962.70764047 0 8556.86977705 0 159.30528779 0 -2504.06161936 0 6183
0.07650000 0.07648840 25128.75189917 0 773.50153951 0 8616.50531852 0 703.07048133 0 -1892.37103475 0 6330
0.07750000 0.07749960 25061.76433401 0 336.57652984 0 8772.34829034 0 1601.89966546 0 -3051.12304400 0 6583
0.07850000 0.07848650 24525.31019655 0 -178.51687859 0 7943.61799464 0 540.67269322 0 -2095.31567636 0 6549
0.07950000 0.07947320 24482.12812976 0 367.06085453 0 7976.33671448 0 436.13223121 0 -1852.41101448 0 6828
0.08050000 0.08048110 24035.69199307 0 472.92003042 0 7910.71104528 0 -416.84091968 0 -1151.73215531 0 7147
0.08150000 0.08149960 23916.11088503 0 933.79780037 0 8208.66730615 0 123.89267133 0 -2049.90807227 0 7386
0.08250000 0.08250610 22952.15428632 0 1275.42109586 0 8840.50952193 0 -650.36178627 0 -1049.31757967 0 7227
0.08350000 0.08350160 22378.82930721 0 784.55504137 0 9177.71717428 0 364.17540668 0 -1580.79581436 0 7798
0.08450000 0.08449610 21550.28724103 0 -125.97759009 0 8599.12176855 0 968.80295528 0 -509.60264255 0 7371
0.08550000 0.08548940 22030.93686141 0 -50.82628912 0 9348.54100158 0 1183.87511426 0 823.59052252 0 8256
0.08650000 0.08650700 22405.18144028 0 -453.25558154 0 9081.64261183 0 1182.20319321 0 124.28352439 0 8037
0.08750000 0.08749060 22534.61691741 0 -162.38117963 0 8997.85832992 0 735.92539077 0 612.92957775 0 8155
0.08850000 0.08849210 22405.51361002 0 360.74077152 0 8507.76401648 0 -635.29788835 0 9.19473534 0 8718
0.08950000 0.08949900 21855.10834329 0 650.60316295 0 8542.24323596 0 -357.88300449 0 -469.57286663 0 8571
0.09050000 0.09049190 21494.59344719 0 498.13060680 0 8078.08030724 0 -271.94958434 0 -501.34600993 0 8932
0.09150000 0.09150830 21043.17476433 0 507.26306031 0 7714.01119488 0 309.31092997 0 -1633.84332256 0 9285
0.09250000 0.09250820 20706.57608985 0 352.80191463 0 7291.49127980 0 919.31962844 0 -1855.07944477 0 9204
0.09350000 0.09350330 19628.02092926 0 857.87708355 0 6405.67207733 0 690.07489369 0 -2448.06887275 0 9349
0.09450000 0.09448040 19484.74504611 0 620.60491332 0 6167.14098376 0 247.78977158 0 -1942.98263150 0 9564
0.09550000 0.09549270 18648.56307581 0 207.74449441 0 6021.41811683 0 1085.30263533 0 -1145.57594271 0 10155
0.09650000 0.09649430 18575.92862499 0 267.61034024 0 6786.15037507 0 1037.56098518 0 -236.56686315 0 9913
0.09750000 0.09749140 18251.06661482 0 371.13989899 0 5825.41582289 0 1020.25383425 0 449.66150491 0 10476
0.09850000 0.09850240 18246.30551514 0 383.15669312 0 7078.54832889 0 333.96124672 0 1092.81852942 0 10575
0.09950000 0.09950330 17781.15714951 0 384.48537210 0 6466.90203358 0 251.14690047 0 1773.42104923 0 10882
0.10050000 0.10051200 17523.39342773 0 517.33776866 0 7378.96264586 0 -68.18359768 0 2429.81060913 0 10875
0.10150000 0.10150300 17177.27255390 0 245.39150603 0 6469.48188526 0 372.78635369 0 3115.77434862 0 11118
0.10250000 0.10250800 17008.64104692 0 149.02352697 0 7039.08656323 0 879.87557850 0 2896.46481093 0 11575
0.10350000 0.10349800 16953.27942282 0 61.07760106 0 6076.29255863 0 484.93793178 0 1969.13546272 0 11364
0.10450000 0.10450100 16686.99001093 0 294.57255841 0 5852.69803124 0 356.48014093 0 1418.11014580 0 12093
0.10550000 0.10551000 16367.33199342 0 596.49492603 0 5675.83978691 0 -1191.27142724 0 1005.07699862 0 12067
0.10650000 0.10649700 15950.01607100 0 481.11797972 0 5754.84082449 0 -310.44141434 0 1435.07294742 0 12054
0.10750000 0.10749900 15649.07028243 0 225.18340600 0 5520.82723945 0 348.80480537 0 1086.51616213 0 12807
0.10850000 0.10850100 15842.83596676 0 -189.05551735 0 5920.99213072 0 460.57217378 0 1214.53438168 0 12736
0.10950000 0.10950300 15690.03788426 0 -283.46258768 0 6211.47457234 0 958.47579793 0 883.28474732 0 12933
0.11050000 0.11050200 15749.71771504 0 452.15609969 0 5643.45323682 0 562.95796138 0 998.05714469 0 13428
0.11150000 0.11150900 15496.49364643 0 418.44640678 0 5237.82968941 0 257.00748199 0 1438.00711350 0 13453
0.11250000 0.11250000 15257.99576984 0 -138.70079854 0 5034.87397548 0 603.91116919 0 1851.14876946 0 13668
0.11350000 0.11349100 15397.06416956 0 27.11291251 0 5013.42688231 0 -116.21844299 0 1212.67423111 0 13791
0.11450000 0.11448600 15248.03067750 0 208.22946224 0 5202.66398579 0 179.60307365 0 594.99684048 0 14205
0.11550000 0.11549300 15005.76821047 0 547.63054214 0 5011.50029779 0 42.18411816 0 1155.91749409 0 14776
0.11650000 0.11649800 14559.33207378 0 500.88207952 0 4461.81473217 0 118.73296796 0 1455.91106273 0 14553
0.11750000 0.11747300 14435.43275906 0 -67.87301897 0 4291.38950856 0 413.81263884 0 1150.18202984 0 14568
0.11850000 0.11849100 14502.42032421 0 -7.63989305 0 4675.77633697 0 447.00636142 0 582.69216591 0 16015
0.11950000 0.11950300 14401.55144512 0 4.30046881 0 4702.75959255 0 -223.19260200 0 244.18462262 0 15270
0.12050000 0.12050700 14458.68464118 0 149.76869443 0 4626.94738452 0 -372.74538609 0 11.92777263 0 15999
0.12150000 0.12150000 14065.61711012 0 229.11851024 0 4788.64761617 0 -357.20094928 0 336.13142238 0 15670
0.12250000 0.12250700 14094.40515465 0 436.91172288 0 5353.22545867 0 -291.84433757 0 187.47660383 0 16887
0.12350000 0.12352200 13742.63739516 0 422.15674283 0 5039.66829213 0 111.30343801 0 -107.43299614 0 16407
0.12450000 0.12449800 13365.40328859 0 237.73610065 0 4711.71710333 0 397.27058556 0 -224.42605898 0 16306
0.12550000 0.12549900 13062.68592805 0 198.15696835 0 4657.28555452 0 705.50417833 0 -103.24555362 0 17523
0.12650000 0.12650100 12956.50233304 0 179.68057992 0 4401.30447704 0 506.74044658 0 -811.79517489 0 17154
0.12750000 0.12750600 12755.53963758 0 203.27238242 0 4065.01582764 0 218.38389133 0 154.99815344 0 18007
0.12850000 0.12850300 12741.03489206 0 140.20552748 0 3992.87963145 0 465.74516394 0 238.33400619 0 17496
0.12950000 0.12949900 12615.58545187 0 -209.71093930 0 3644.64394358 0 331.21641739 0 474.98612623 0 18405
0.13050000 0.13049000 12803.15063430 0 -133.50123480 0 3745.45746105 0 643.26885499 0 392.85162073 0 18100
0.13150000 0.13148800 12678.36553359 0 75.31041027 0 3840.43586335 0 274.69441366 0 473.25662910 0 19059
0.13250000 0.13249300 12857.84791890 0 192.54219243 0 3662.65861606 0 162.16084036 0 892.50467219 0 18957
0.13350000 0.13349100 12626.65777669 0 238.01844493 0 3828.37810162 0 -74.32995591 0 323.51007932 0 19468
0.13450000 0.13450700 12400.78235039 0 404.19853920 0 3986.32481516 0 -390.27287628 0 847.17678885 0 19953
0.13550000 0.13551000 12057.98317400 0 341.96653756 0 4003.53120793 0 -258.19775691 0 641.10532272 0 19956
0.13650000 0.13649900 11846.61249321 0 242.96777412 0 3908.43101006 0 -92.77002711 0 408.60421725 0 19723
0.13750000 0.13749600 11717.95207882 0 10.82223422 0 4043.55766215 0 -0.60355796 0 -161.71462567 0 20946
0.13850000 0.13851100 11719.05931130 0 37.09217742 0 4078.02580931 0 133.94412780 0 -404.34026496 0 20955
0.13950000 0.13949800 11621.17995991 0 71.90467388 0 3380.29218853 0 55.77960436 0 -642.76284974 0 20506
0.14050000 0.14048300 11474.91454905 0 191.13822165 0 3727.26563138 0 -57.58450402 0 -636.89673206 0 21447
0.14150000 0.14148400 11309.27256977 0 217.22018999 0 3563.32879011 0 93.44997858 0 -523.24817565 0 21771
0.14250000 0.14249400 11157.80316625 0 301.08751433 0 3499.85115193 0 263.93432840 0 -871.03654160 0 22470
0.14350000 0.14350900 10885.41290338 0 64.46595390 0 3004.24282072 0 216.66546652 0 -674.74968891 0 22519
0.14450000 0.14449900 10853.70176510 0 22.80887840 0 3064.38768913 0 504.52487438 0 -542.42212054 0 22218
0.14550000 0.14550500 10765.67678279 0 125.93551525 0 2980.88021535 0 331.74346005 0 -745.11874207 0 23559
0.14650000 0.14650700 10719.26159715 0 171.27447092 0 2633.45280719 0 284.38269787 0 -300.36227705 0 23044
0.14750000 0.14750500 10444.16968703 0 262.22697591 0 2678.02998691 0 73.90367140 0 -252.02604306 0 23649
0.14850000 0.14849900 10417.39680562 0 192.63298550 0 2651.47855200 0 256.79821505 0 160.12131813 0 23640
0.14950000 0.14949500 10195.62921183 0 -78.39914600 0 2558.05027518 0 348.16261053 0 165.50025353 0 24457
0.15050000 0.15050000 10312.50867262 0 120.58426067 0 2387.48111135 0 391.66798920 0 142.26276543 0 24591
0.15150000 0.15149900 10259.92620205 0 17.60488574 0 2220.36651286 0 321.74072181 0 -229.58133342 0 25020
0.15250000 0.15250500 10042.79791236 0 334.18380044 0 2128.83160358 0 -160.60185703 0 -387.17594703 0 25297
0.15350000 0.15350100 9767.17453065 0 353.24480762 0 2207.67762862 0 -326.34238001 0 62.00778707 0 25452
0.15450000 0.15450400 9686.21369157 0 56.06205936 0 2227.46387307 0 -140.18006113 0 -450.52514624 0 26061
0.15550000 0.15549900 9605.61823922 0 -67.48183373 0 2336.48198323 0 -194.05688647 0 -224.96195950 0 26128
0.15650000 0.15649500 9716.82866970 0 154.68037772 0 2698.62451107 0 55.66301277 0 -300.02457115 0 26331
0.15750000 0.15749700 9615.07400461 0 156.79408452 0 2641.30308549 0 6.92469838 0 -131.28012644 0 27345
0.15850000 0.15849900 9445.68957954 0 248.51279439 0 2742.49306201 0 34.50734319 0 125.60223828 0 26980
0.15950000 0.15949700 9296.58965353 0 140.69935317 0 2882.38081376 0 -20.80578412 0 150.91246558 0 27777
0.16050000 0.16050000 9255.56669008 0 96.51789834 0 3012.13738831 0 145.34197896 0 164.55799869 0 28224
0.16150000 0.16150500 9246.26593723 0 16.30931301 0 2813.42237479 0 -138.86909788 0 -41.58853780 0 28075
0.16250000 0.16249700 9068.56619622 0 148.69910785 0 2777.94664607 0 -7.00257004 0 -54.44173535 0 28590
0.16350000 0.16349900 9007.80127761 0 238.21774678 0 2735.88288409 0 -232.25862156 0 -285.50875331 0 29163
0.16450000 0.16449100 8862.51023134 0 191.51357346 0 2534.41086169 0 129.45540731 0 -11.02595392 0 28996
0.16550000 0.16550500 8648.73685607 0 127.39152597 0 2568.87900885 0 251.48349914 0 -178.57224021 0 30777
0.16650000 0.16650700 8615.64167718 0 -0.46601865 0 2347.77575455 0 318.98592740 0 -446.54575270 0 29211
0.16750000 0.16749900 8433.84517599 0 132.41503974 0 2099.60066606 0 368.61540893 0 -592.04274422 0 30922
0.16850000 0.16850800 8466.09885818 0 87.04098480 0 1960.82014678 0 44.52336822 0 -483.29369154 0 30867
0.16950000 0.16949900 8456.43271862 0 -41.03016046 0 1956.53515708 0 144.53812818 0 -378.33248119 0 30852
0.17050000 0.17049200 8349.82837526 0 6.44670611 0 1893.17931447 0 -35.38526783 0 -542.92701855 0 31257
0.17150000 0.17149500 8381.15198218 0 92.88340772 0 1885.11866200 0 153.61632730 0 -268.52712873 0 32608
0.17250000 0.17250900 8292.31872016 0 145.58667734 0 1980.57317426 0 81.99709795 0 -303.04842305 0 32361
0.17350000 0.17350400 8270.84948233 0 97.97147314 0 2026.67833481 0 102.46694774 0 22.06459673 0 32508
0.17450000 0.17449800 8154.53471011 0 156.57374526 0 2014.77558562 0 200.86525900 0 -138.33541182 0 32791
0.17550000 0.17549800 8093.38226014 0 133.45694550 0 1979.38843550 0 52.24232875 0 330.74030743 0 33633
0.17650000 0.17650100 8026.77115403 0 74.95543154 0 2014.48770518 0 41.66095081 0 59.52802920 0 33984
0.17750000 0.17750300 7856.08019463 0 131.04096423 0 2008.13219073 0 45.49695774 0 89.96618230 0 34069
0.17850000 0.17849800 7669.48937678 0 195.12536581 0 1864.95595850 0 95.13186472 0 -93.42927333 0 34536
