### header ###
fiducial parameters:
Omega_m = 0.31
Omega_nu = 0
Omega_de = 0.69
Omega_k = 0
H_0 = 100
w_de = -1
zeff = 0
beta = 0
fgrowth = 0
b_1 = 2
gamma = 0.55
Lx = 3500 Ly = 3500 Lz = 3500
nx = 700 ny = 700 nz = 700
xoffset = -685.467585 yoffset = -31.7331281 zoffset = 572.489161
bins = 400 dk = 0.001
kx_ny = 0.628318531 ky_ny = 0.628318531 kz_ny = 0.628318531
############################
A(data) = 8.05904954 (not used)
A(ran) = 8.05997735 (used)
Ngal = 479272
weighted Ngal = 0
Nran = 23820508
weighted Nran = 0
SN(data) = 3485.82901
SN(ran) = 70.2053258
SN(data+ran) = 3556.03434
############################
13 columns: k_central k_mean P_0(k) sigma^{lin}_{P_0(k)} P^img_1(k) sigma^{lin}_{P_1(k)} P_2(k) sigma^{lin}_{P_2(k)} P^img_3(k) sigma^{lin}_{P_3(k)} P_4(k) sigma^{lin}_{P_4(k)} N_modes
### header ###
0.00050000 0 0 0 0 0 0 0 0 0 0 0 0
0.00150000 0.00179520 13180.60618736 0 -24436.17798176 0 -3396.91174809 0 -22451.79592776 0 49487.42360720 0 3
0.00250000 0.00253879 20424.34253022 0 -15796.88581876 0 -4112.29465462 0 -10280.65359411 0 -4277.68197044 0 6
0.00350000 0.00331552 29821.31388056 0 -3508.14432322 0 4620.00503685 0 -20897.90586271 0 -6821.41572962 0 7
0.00450000 0.00420575 35475.72871894 0 -11.27727355 0 -338.66809200 0 -12367.12248294 0 18584.78648485 0 24
0.00550000 0.00557378 37456.67835225 0 -3010.64262446 0 -588.63246817 0 1812.46206654 0 13306.05562756 0 45
0.00650000 0.00659388 46781.79031451 0 -11355.55488751 0 6393.18249494 0 24961.00617816 0 -3145.12708171 0 40
0.00750000 0.00754703 48717.45413931 0 -10944.55019024 0 10391.00038326 0 221.37674073 0 -19460.38593151 0 57
0.00850000 0.00846663 59227.63702691 0 -13290.33292632 0 -11019.95272225 0 11651.62885316 0 -10816.05586072 0 75
0.00950000 0.00948925 61726.99290822 0 -7062.96956787 0 -12687.99845618 0 -6735.72700785 0 -28894.78173973 0 112
0.01050000 0.01054430 75363.00381538 0 -10095.22537038 0 62.75284380 0 -41206.54259858 0 -35892.93391811 0 105
0.01150000 0.01145670 84879.00265752 0 -6929.83593425 0 2777.71412725 0 -52719.54594501 0 -49030.13659219 0 144
0.01250000 0.01249090 80747.36465144 0 4236.63686233 0 10777.83419544 0 -36752.58921703 0 -17672.20547330 0 169
0.01350000 0.01339930 86385.50317234 0 -1014.99890889 0 2443.57350888 0 -29768.94178416 0 -45947.37991618 0 180
0.01450000 0.01448870 86277.88017510 0 -1362.44956893 0 14649.12862806 0 -1897.10998978 0 -54386.15227671 0 267
0.01550000 0.01550050 91741.96174986 0 1052.99802044 0 7206.74370564 0 -235.68439886 0 -48908.67318892 0 238
0.01650000 0.01653350 78473.66274993 0 6845.79698887 0 -3522.58263478 0 6061.97604264 0 -34537.34919056 0 315
0.01750000 0.01747870 74742.84290229 0 6842.82960582 0 -1410.74704979 0 10028.13815430 0 -21041.18174587 0 297
0.01850000 0.01844180 72937.83251035 0 263.39953511 0 -9697.38566732 0 8615.25414582 0 -18632.50820482 0 388
0.01950000 0.01947590 74283.89503855 0 520.88534154 0 -5660.60426796 0 -3319.92587362 0 -12234.03313862 0 399
0.02050000 0.02045430 69747.78500685 0 4080.28456357 0 427.19575785 0 -10198.84018603 0 -2285.09532375 0 462
0.02150000 0.02154770 69321.38977808 0 3908.02133404 0 12245.32690993 0 -18730.16610972 0 6756.47654456 0 571
0.02250000 0.02255340 69459.01877558 0 3737.02034954 0 28358.21687902 0 -5365.75933036 0 5966.51045805 0 510
0.02350000 0.02348930 69206.45904647 0 1270.69321316 0 40299.16557969 0 -3553.33048080 0 8894.91892609 0 555
0.02450000 0.02439640 63102.61854369 0 9382.83199154 0 38454.07337191 0 -757.99474860 0 3218.34836574 0 592
0.02550000 0.02547300 57432.14883432 0 7023.34171734 0 36705.97472954 0 12211.55631924 0 7566.83785339 0 837
0.02650000 0.02652900 55148.14967073 0 -99.60143008 0 33637.94424554 0 17557.93908117 0 5765.03843565 0 723
0.02750000 0.02749970 56029.61744954 0 -4013.52951724 0 24548.89424841 0 19388.08365044 0 -2100.43109042 0 826
0.02850000 0.02848090 57323.52932785 0 -3532.07161715 0 20262.57586462 0 8798.54541086 0 -2230.43125612 0 831
0.02950000 0.02946900 57678.28661504 0 -1404.61298184 0 16841.55966540 0 -877.16064446 0 592.67386673 0 996
0.03050000 0.03053250 60987.02944059 0 1374.17516092 0 14048.89789964 0 -5056.16605611 0 1283.18279556 0 1041
0.03150000 0.03150510 59643.84571684 0 1299.34838979 0 17267.73344767 0 1512.59029348 0 6375.96502984 0 1036
0.03250000 0.03246190 55879.14455526 0 1012.23082769 0 15555.28769122 0 -1480.62449172 0 2328.49883704 0 1059
0.03350000 0.03345080 61330.60367972 0 652.62164776 0 17819.35667014 0 7416.46461003 0 2379.99621977 0 1302
0.03450000 0.03451200 54309.31034247 0 2282.99158203 0 13961.31581033 0 1961.31840140 0 964.51685835 0 1339
0.03550000 0.03553350 54442.84257978 0 3995.44841081 0 11787.15410894 0 3969.67203863 0 3252.72793430 0 1365
0.03650000 0.03647120 52232.91726923 0 1274.00383828 0 13021.49687972 0 -4190.29918297 0 1129.99718169 0 1308
0.03750000 0.03744890 48800.93946844 0 1803.47133879 0 11181.16577161 0 2476.86798961 0 2204.85418579 0 1579
0.03850000 0.03847530 49485.43058873 0 2697.39548302 0 12721.54760038 0 -713.80288578 0 -650.32746206 0 1662
0.03950000 0.03950240 46798.84169473 0 400.53581415 0 12472.08812222 0 385.79301366 0 3095.76665767 0 1683
0.04050000 0.04050350 46332.80754311 0 294.39983014 0 14265.14040335 0 3822.75336061 0 3101.40247100 0 1822
0.04150000 0.04152450 46799.28458772 0 2385.12270616 0 12900.14419971 0 -390.85195887 0 4236.38219886 0 1887
0.04250000 0.04250150 44724.99525620 0 1304.43058688 0 15787.91723566 0 2159.45765403 0 10072.82605727 0 1920
0.04350000 0.04349210 43569.04454513 0 3557.29437309 0 15524.39590498 0 -288.92235105 0 6819.99847205 0 2005
0.04450000 0.04448520 42001.42479731 0 1471.01371378 0 16651.11567852 0 689.81469406 0 13654.72313610 0 2151
0.04550000 0.04548030 40270.37753516 0 355.89884388 0 18035.82062034 0 1247.19773990 0 6348.19563920 0 2274
0.04650000 0.04648670 38847.25162622 0 1320.98371249 0 17464.04576671 0 3417.21839180 0 5704.19601077 0 2311
0.04750000 0.04749250 40104.18193963 0 674.55592323 0 17616.29023296 0 2484.06500074 0 3031.30358258 0 2568
0.04850000 0.04851840 37103.80336028 0 709.10046943 0 15085.26750267 0 -1799.47422953 0 3659.74659463 0 2493
0.04950000 0.04949480 38625.58368335 0 752.03451615 0 15317.34343087 0 -3097.44965104 0 4011.47006482 0 2644
0.05050000 0.05050630 38444.66189581 0 -1201.53547235 0 16955.16171804 0 900.71922997 0 4334.31691188 0 2829
0.05150000 0.05149060 39190.27224910 0 -172.26655123 0 19882.90584659 0 -701.22140309 0 2212.32800504 0 2784
0.05250000 0.05249300 39189.94007936 0 512.81583121 0 18364.55794421 0 1274.33600803 0 435.44685431 0 3055
0.05350000 0.05348950 39610.02408298 0 1577.76199736 0 21000.10342079 0 -1577.90593758 0 1584.10643948 0 3009
0.05450000 0.05448610 37149.97495477 0 2058.69949818 0 18850.41155725 0 1438.90397181 0 1527.26112386 0 3336
0.05550000 0.05550870 35982.17685615 0 1202.57627088 0 18855.61554991 0 2672.79277727 0 505.33315410 0 3349
0.05650000 0.05647670 34825.56180559 0 -47.14219449 0 16435.09462131 0 2610.92062619 0 -1499.63567344 0 3324
0.05750000 0.05747970 35221.17597136 0 -55.83529815 0 16100.48896529 0 1484.61052866 0 -1261.68034076 0 3639
0.05850000 0.05849280 35235.12710063 0 163.33893572 0 14686.77453245 0 1463.37380966 0 -1867.93441388 0 3846
0.05950000 0.05951020 33718.32932373 0 378.11989256 0 12290.61271844 0 1235.43893094 0 -3717.61056413 0 3787
0.06050000 0.06049470 34215.47670808 0 1048.39857671 0 14636.17400802 0 782.15456135 0 -3605.96831299 0 3930
0.06150000 0.06148310 33492.67534392 0 1022.77389538 0 12348.41025400 0 1450.62956379 0 -3952.06704217 0 4083
0.06250000 0.06249100 32799.32636378 0 1222.78326367 0 13106.08944134 0 -643.30096473 0 -1207.89098679 0 4303
0.06350000 0.06350600 31910.44012734 0 18.26202822 0 12895.05093029 0 1610.61358509 0 741.85794241 0 4470
0.06450000 0.06451750 31849.32089434 0 -124.91796860 0 13039.98766217 0 2393.28300955 0 618.55431876 0 4479
0.06550000 0.06550280 32817.92786947 0 297.91972220 0 12576.38942201 0 1158.78522622 0 2046.33171136 0 4636
0.06650000 0.06648880 32001.12246760 0 496.44429173 0 12431.89558313 0 1539.05314979 0 2350.70992062 0 4653
0.06750000 0.06749660 31702.61259049 0 794.02187909 0 12877.00304084 0 -613.41233112 0 4630.54589008 0 5220
0.06850000 0.06852730 30694.80958550 0 1489.53771320 0 12937.90082734 0 1566.36857512 0 2056.75076901 0 5029
0.06950000 0.06949320 29621.67986408 0 645.76234254 0 13127.23758174 0 -813.92327572 0 3864.49602518 0 5040
0.07050000 0.07048030 28280.15698905 0 1421.71972369 0 12123.30989043 0 2128.10083014 0 2958.22623877 0 5475
0.07150000 0.07148790 28291.89365336 0 586.87307576 0 11532.71208461 0 349.08936411 0 2968.22454808 0 5509
0.07250000 0.07249820 27346.31711384 0 -225.01289220 0 10434.53676444 0 2174.94783645 0 4093.94781240 0 5916
0.07350000 0.07351270 27829.29192243 0 -256.90561660 0 9705.61240466 0 1383.59770934 0 2427.26397442 0 5721
0.07450000 0.07449140 27868.15578255 0 246.87851925 0 8378.31746702 0 1469.95077060 0 2586.56151158 0 6028
0.07550000 0.07549160 27320.07570402 0 604.47475052 0 8890.61179173 0 -48.34177016 0 1785.62275118 0 6183
0.07650000 0.07648840 26369.18444860 0 889.10657570 0 8835.21695066 0 -213.68811837 0 3163.25247744 0 6330
0.07750000 0.07749960 26065.47057882 0 312.09119073 0 8602.39917670 0 9.57751668 0 1571.94902683 0 6583
0.07850000 0.07848650 25762.42104854 0 527.23531982 0 9803.24816491 0 1070.10254782 0 1926.39628892 0 6549
0.07950000 0.07947320 25774.48988259 0 -349.02071570 0 8480.29357860 0 366.51609615 0 192.97069140 0 6828
0.08050000 0.08048110 25332.03978284 0 531.92555661 0 8291.65438067 0 176.70876794 0 597.36853245 0 7147
0.08150000 0.08149960 24724.16915029 0 915.34134213 0 7492.77507268 0 216.76290297 0 -500.33621390 0 7386
0.08250000 0.08250610 24169.66712337 0 950.90122052 0 8483.54884210 0 -1535.41035493 0 672.35474505 0 7227
0.08350000 0.08350160 23291.07814902 0 1187.97187444 0 7957.97879993 0 -733.64227739 0 252.99708594 0 7798
0.08450000 0.08449610 22853.49987218 0 439.48382393 0 9790.51499137 0 -856.69677373 0 692.48312434 0 7371
0.08550000 0.08548940 22753.18460933 0 -54.91275205 0 9790.06102605 0 397.09010667 0 697.48227900 0 8256
0.08650000 0.08650700 22645.00799585 0 179.70383181 0 10853.35852303 0 626.48321056 0 902.96026852 0 8037
0.08750000 0.08749060 22167.34790317 0 507.02168363 0 10337.37711416 0 420.54682680 0 -78.43369166 0 8155
0.08850000 0.08849210 21630.45087271 0 1064.20432039 0 10844.68889270 0 652.96267537 0 -411.66792952 0 8718
0.08950000 0.08949900 20928.02258622 0 1053.99785137 0 10612.91191727 0 668.74516716 0 107.26303596 0 8571
0.09050000 0.09049190 20202.01024786 0 107.06661292 0 9553.31257678 0 421.39496688 0 638.62401473 0 8932
0.09150000 0.09150830 19932.39913853 0 251.00738917 0 9769.38899561 0 563.67876973 0 -863.65462264 0 9285
0.09250000 0.09250820 20115.86756077 0 230.51694486 0 9058.57895923 0 788.26427019 0 -95.63111584 0 9204
0.09350000 0.09350330 19663.89526167 0 220.21193216 0 8606.34092434 0 973.52530182 0 -724.18872646 0 9349
0.09450000 0.09448040 19183.79925754 0 -46.95728666 0 7339.92162855 0 1266.75146553 0 834.86657812 0 9564
0.09550000 0.09549270 19486.95951107 0 167.82433451 0 7122.48331377 0 1359.75899400 0 -88.01966759 0 10155
0.09650000 0.09649430 19165.19775184 0 428.24209255 0 6784.07985033 0 1396.99522237 0 1397.34953676 0 9913
0.09750000 0.09749140 18322.04021690 0 567.42675168 0 5968.03843887 0 782.98498571 0 1520.26341457 0 10476
0.09850000 0.09850240 18016.66549840 0 366.23485910 0 5821.24155643 0 338.54629642 0 2477.94200511 0 10575
0.09950000 0.09950330 18071.25205976 0 14.06262758 0 6715.77467853 0 510.73423414 0 2544.98493189 0 10882
0.10050000 0.10051200 17394.06867385 0 398.89821731 0 6250.63738522 0 643.76710961 0 3254.64344649 0 10875
0.10150000 0.10150300 17681.28477965 0 361.31099625 0 6352.97888352 0 680.15962682 0 2481.60694463 0 11118
0.10250000 0.10250800 17018.93830900 0 181.49201226 0 6333.82376158 0 32.60412128 0 3372.08759584 0 11575
0.10350000 0.10349800 16855.17862493 0 701.32437571 0 5782.17839447 0 34.86974038 0 2341.79669914 0 11364
0.10450000 0.10450100 16356.25966860 0 307.45077940 0 6246.07558740 0 -474.81561243 0 2013.11473690 0 12093
0.10550000 0.10551000 16396.56293094 0 356.52443023 0 6453.31629103 0 -66.12957070 0 1508.61532887 0 12067
0.10650000 0.10649700 15902.40507428 0 138.45499293 0 6204.17791028 0 -411.31250790 0 1214.78904515 0 12054
0.10750000 0.10749900 15992.64452156 0 125.02315569 0 5854.28137369 0 275.99430459 0 343.87540636 0 12807
0.10850000 0.10850100 16176.44511355 0 -12.82695613 0 6152.55873198 0 -123.85945435 0 25.16174743 0 12736
0.10950000 0.10950300 15720.70822401 0 165.32531080 0 5707.62843146 0 -75.78818109 0 -680.52501354 0 12933
0.11050000 0.11050200 15907.05545071 0 367.58125379 0 6092.97855213 0 307.95789188 0 -657.75699201 0 13428
0.11150000 0.11150900 15562.26325586 0 107.00327922 0 5780.13001438 0 -134.30508559 0 -299.04467040 0 13453
0.11250000 0.11250000 15494.61135121 0 167.10241893 0 5956.17997899 0 92.00326862 0 -203.29120537 0 13668
0.11350000 0.11349100 15309.03918725 0 325.04581077 0 5762.86825998 0 586.50436734 0 -558.79476725 0 13791
0.11450000 0.11448600 14975.87293346 0 289.25452079 0 5364.82925508 0 391.39118108 0 -817.32469391 0 14205
0.11550000 0.11549300 14625.32312970 0 447.25659596 0 5338.27782016 0 499.49582445 0 -543.92463502 0 14776
0.11650000 0.11649800 14362.02324551 0 188.75656458 0 5067.63698462 0 602.41972704 0 -79.95779717 0 14553
0.11750000 0.11747300 14295.03568036 0 -207.14658887 0 4547.31522442 0 470.95358553 0 51.12081296 0 14568
0.11850000 0.11849100 14450.82329056 0 -253.59056255 0 4639.09372484 0 914.15992507 0 -72.04241360 0 16015
0.11950000 0.11950300 14605.17149853 0 167.58074336 0 4625.78479041 0 92.03283172 0 390.85417333 0 15270
0.12050000 0.12050700 14134.48697049 0 504.01444021 0 4654.73891981 0 -353.66887766 0 305.01265348 0 15999
0.12150000 0.12150000 14086.32235753 0 560.14005472 0 4905.20597953 0 -511.52036920 0 1294.39906060 0 15670
0.12250000 0.12250700 13542.22831594 0 309.24338879 0 4981.12891081 0 216.55806497 0 1625.01867968 0 16887
0.12350000 0.12352200 13589.28569642 0 -80.90625251 0 5316.12209820 0 758.77202580 0 1460.97111517 0 16407
0.12450000 0.12449800 13524.51259623 0 -258.97060518 0 4810.18328794 0 1199.74175572 0 1685.56215179 0 16306
0.12550000 0.12549900 13697.79447964 0 -78.51363384 0 4650.32106221 0 413.16712231 0 1036.30870524 0 17523
0.12650000 0.12650100 13614.41987376 0 180.45674989 0 4303.49155959 0 168.70569156 0 1243.55494503 0 17154
0.12750000 0.12750600 13366.62124432 0 364.87407038 0 3988.25139968 0 -483.17411044 0 1232.94765786 0 18007
0.12850000 0.12850300 13272.50648336 0 225.70159080 0 4358.05597629 0 -215.12752060 0 1233.63414199 0 17496
0.12950000 0.12949900 13264.42368624 0 142.93928448 0 4376.19244435 0 -291.92073661 0 814.71051802 0 18405
0.13050000 0.13049000 13040.20910866 0 414.34521767 0 4775.53798358 0 -388.88551398 0 951.14038273 0 18100
0.13150000 0.13148800 12830.05638361 0 350.19548936 0 4609.81849802 0 -9.85492270 0 507.35053168 0 19059
0.13250000 0.13249300 12503.75497120 0 9.50820393 0 4843.26739450 0 259.09793692 0 823.58277189 0 18957
0.13350000 0.13349100 12458.46916269 0 174.02705087 0 4647.11008801 0 568.10437796 0 366.80729829 0 19468
0.13450000 0.13450700 12248.98077712 0 282.48600863 0 4565.99423639 0 409.46342965 0 323.45582493 0 19953
0.13550000 0.13551000 12108.58369842 0 189.83058009 0 4463.25413440 0 -57.22819661 0 451.62905703 0 19956
0.13650000 0.13649900 12009.70783779 0 -26.75040459 0 4432.07446771 0 -197.00544657 0 516.67564364 0 19723
0.13750000 0.13749600 12023.54824382 0 0.80753897 0 4641.19746656 0 106.10121691 0 448.58084601 0 20946
0.13850000 0.13851100 12133.49642927 0 80.81335571 0 4430.74578873 0 316.07833490 0 -146.59536613 0 20955
0.13950000 0.13949800 11814.83492098 0 386.76405654 0 4281.40227157 0 -120.51561226 0 120.49125314 0 20506
0.14050000 0.14048300 11801.76957770 0 212.16013755 0 4495.07599593 0 24.00734684 0 408.12589282 0 21447
0.14150000 0.14148400 11428.63223131 0 203.39639245 0 4065.70231178 0 556.77628244 0 459.53801865 0 21771
0.14250000 0.14249400 11356.88356649 0 173.96283139 0 3754.50355043 0 452.89573099 0 481.72363588 0 22470
0.14350000 0.14350900 11298.31096819 0 -39.58023953 0 3438.56583405 0 723.28301029 0 295.69418491 0 22519
0.14450000 0.14449900 11324.55237802 0 -111.68100428 0 3265.29502297 0 466.95979797 0 9.41348019 0 22218
0.14550000 0.14550500 11114.95326920 0 260.48419199 0 2829.14507604 0 2.30394042 0 118.02212471 0 23559
0.14650000 0.14650700 11044.44470475 0 262.04206809 0 3120.79011176 0 -180.81549322 0 318.63714917 0 23044
0.14750000 0.14750500 10694.19385376 0 245.55205474 0 2881.17393036 0 -50.04203636 0 346.97012114 0 23649
0.14850000 0.14849900 10519.37291720 0 346.23491878 0 3058.06539166 0 89.63002651 0 352.16968488 0 23640
0.14950000 0.14949500 10371.42451298 0 171.08070524 0 3211.02955903 0 168.95814057 0 267.57933773 0 24457
0.15050000 0.15050000 10155.54739599 0 140.37604128 0 3335.32747745 0 -116.82963532 0 71.88596165 0 24591
0.15150000 0.15149900 9948.53921118 0 163.60577875 0 3246.43885380 0 -88.74855874 0 73.40076641 0 25020
0.15250000 0.15250500 9944.07706428 0 229.14065489 0 3467.11028744 0 176.59250853 0 209.91688454 0 25297
0.15350000 0.15350100 9710.62816780 0 154.41464192 0 3076.98799478 0 212.26311017 0 311.58961442 0 25452
0.15450000 0.15450400 9645.39002997 0 83.09635836 0 3208.07324830 0 286.26831479 0 540.01056820 0 26061
0.15550000 0.15549900 9696.57738760 0 73.00825250 0 2982.59642570 0 204.91330095 0 606.25075142 0 26128
0.15650000 0.15649500 9499.27963166 0 102.29211573 0 3238.40034598 0 247.39116789 0 847.24100833 0 26331
0.15750000 0.15749700 9444.20588801 0 179.62300384 0 3179.50665027 0 13.01551782 0 946.69152262 0 27345
0.15850000 0.15849900 9342.65052478 0 206.37374060 0 3412.39085818 0 183.92349480 0 1064.24085906 0 26980
0.15950000 0.15949700 9153.33591503 0 118.34211489 0 3421.76911730 0 85.41191365 0 1236.39115087 0 27777
0.16050000 0.16050000 9095.17299276 0 149.08663922 0 3195.36221941 0 194.91831334 0 1274.14777851 0 28224
0.16150000 0.16150500 8941.92094494 0 66.76467925 0 3136.34672813 0 401.22783445 0 1420.47962331 0 28075
0.16250000 0.16249700 8875.16589861 0 116.21069237 0 3023.09898988 0 300.07439661 0 1074.03543759 0 28590
0.16350000 0.16349900 8719.51115631 0 98.18738347 0 2755.70234551 0 -21.69710627 0 441.42480247 0 29163
0.16450000 0.16449100 8641.28518146 0 231.81019240 0 2841.60144146 0 -155.12659241 0 735.42492169 0 28996
0.16550000 0.16550500 8555.05391578 0 163.66556931 0 2869.30439815 0 -224.36073227 0 538.00204847 0 30777
0.16650000 0.16650700 8467.15072904 0 -25.28409662 0 2793.62505802 0 -59.71050111 0 715.05405849 0 29211
0.16750000 0.16749900 8561.91875716 0 -23.65602198 0 2995.44032249 0 161.22412168 0 192.34289059 0 30922
0.16850000 0.16850800 8444.17565504 0 77.72683444 0 2895.65653122 0 -7.04960527 0 372.57265782 0 30867
0.16950000 0.16949900 8517.59624092 0 145.36190915 0 2847.90159428 0 166.39157568 0 220.20639599 0 30852
0.17050000 0.17049200 8274.97945949 0 176.82059842 0 2718.76506992 0 142.33695001 0 760.10956264 0 31257
0.17150000 0.17149500 8240.74383115 0 130.88373722 0 2624.65030896 0 294.66224424 0 618.27197448 0 32608
0.17250000 0.17250900 8196.07807283 0 30.58774020 0 2574.48160521 0 174.06026785 0 777.77656412 0 32361
0.17350000 0.17350400 7998.74709991 0 -5.05855768 0 2541.02103961 0 184.42285664 0 817.28151184 0 32508
0.17450000 0.17449800 8037.97634675 0 203.09411799 0 2624.17419899 0 169.01903836 0 657.95740109 0 32791
0.17550000 0.17549800 7847.26662407 0 171.88344879 0 2476.83477263 0 103.76362770 0 1077.02717976 0 33633
0.17650000 0.17650100 7753.93799817 0 82.76762104 0 2451.60094437 0 277.05835501 0 800.82360823 0 33984
0.17750000 0.17750300 7625.28865611 0 139.22562673 0 2285.85931416 0 100.58697771 0 1156.02821734 0 34069
0.17850000 0.17849800 7701.57697411 0 80.92629342 0 2282.93622041 0 173.70484622 0 906.91087401 0 34536
