### header ###
fiducial parameters:
Omega_m = 0.31
Omega_nu = 0
Omega_de = 0.69
Omega_k = 0
H_0 = 100
w_de = -1
zeff = 0
beta = 0
fgrowth = 0
b_1 = 2
gamma = 0.55
Lx = 3500 Ly = 3500 Lz = 3500
nx = 700 ny = 700 nz = 700
xoffset = -685.467585 yoffset = -31.7331281 zoffset = 572.489161
bins = 400 dk = 0.001
kx_ny = 0.628318531 ky_ny = 0.628318531 kz_ny = 0.628318531
############################
A(data) = 8.02868032 (not used)
A(ran) = 8.02375961 (used)
Ngal = 476911
weighted Ngal = 0
Nran = 23820508
weighted Nran = 0
SN(data) = 3490.65338
SN(ran) = 69.8898562
SN(data+ran) = 3560.54324
############################
13 columns: k_central k_mean P_0(k) sigma^{lin}_{P_0(k)} P^img_1(k) sigma^{lin}_{P_1(k)} P_2(k) sigma^{lin}_{P_2(k)} P^img_3(k) sigma^{lin}_{P_3(k)} P_4(k) sigma^{lin}_{P_4(k)} N_modes
### header ###
0.00050000 0 0 0 0 0 0 0 0 0 0 0 0
0.00150000 0.00179520 7426.97224628 0 -18131.92839977 0 845.85143157 0 -16864.14720803 0 -34248.25078955 0 3
0.00250000 0.00253879 13523.51608700 0 -16545.37497650 0 -8343.41749919 0 15988.87993112 0 35626.97667597 0 6
0.00350000 0.00331552 25881.78071008 0 -22682.10028399 0 -13122.14431232 0 -3471.74959154 0 -29399.79047471 0 7
0.00450000 0.00420575 44643.61366878 0 -37076.45471797 0 -47529.28296302 0 13632.68920971 0 -22034.81217509 0 24
0.00550000 0.00557378 78255.42722775 0 -12696.96703929 0 -45488.87494544 0 -35740.13583561 0 -35227.37647326 0 45
0.00650000 0.00659388 83798.89737146 0 -101.03441035 0 -31944.21071804 0 -50234.14119296 0 34117.92952643 0 40
0.00750000 0.00754703 79137.44862281 0 8152.61919792 0 -24008.12190427 0 -35807.23412401 0 10267.32251503 0 57
0.00850000 0.00846663 68798.66532340 0 2035.50297769 0 -2936.55769910 0 -20802.68386927 0 17469.47120587 0 75
0.00950000 0.00948925 73099.93134570 0 3815.81101295 0 1012.61282289 0 8003.04316194 0 -10363.50780073 0 112
0.01050000 0.01054430 71036.16072275 0 -1164.60926907 0 23928.51188882 0 -6407.06719026 0 8189.74470304 0 105
0.01150000 0.01145670 66991.55118974 0 4430.04823227 0 15699.44936036 0 -8494.97548131 0 21195.97284683 0 144
0.01250000 0.01249090 69089.64601963 0 5605.23157154 0 18316.39333125 0 -960.82313079 0 26198.22775340 0 169
0.01350000 0.01339930 70734.43987144 0 826.12719214 0 12437.87463853 0 12640.16601297 0 21257.64569607 0 180
0.01450000 0.01448870 76047.05204267 0 -5560.13399256 0 26911.28547172 0 1660.68263792 0 18425.56645396 0 267
0.01550000 0.01550050 78316.98935375 0 -8729.03335565 0 28160.24371126 0 6752.19155486 0 9756.30150768 0 238
0.01650000 0.01653350 85789.14775761 0 1323.40855162 0 34283.79295222 0 1163.69026611 0 -4204.73749453 0 315
0.01750000 0.01747870 79435.73705342 0 5203.17331273 0 20221.49753954 0 -10357.09692466 0 -16695.62642429 0 297
0.01850000 0.01844180 82996.37526860 0 4665.16904979 0 35219.95801563 0 -7962.00912617 0 -20097.48750157 0 388
0.01950000 0.01947590 75034.59866126 0 8138.94487677 0 41235.21991986 0 -3297.08366752 0 -11324.77382451 0 399
0.02050000 0.02045430 73717.87779382 0 3513.00507381 0 33911.54139181 0 -3559.24310225 0 -28329.98245073 0 462
0.02150000 0.02154770 69715.78598812 0 -565.22557350 0 36015.50455385 0 2628.91315402 0 -18066.60168334 0 571
0.02250000 0.02255340 73594.97498834 0 -1739.84976038 0 38730.21715289 0 7069.72368600 0 -11041.37767078 0 510
0.02350000 0.02348930 73212.31544261 0 -5859.18641358 0 34412.67481310 0 14346.63271402 0 -4226.29531095 0 555
0.02450000 0.02439640 75917.39511905 0 2031.72731492 0 44190.20196746 0 4833.34659146 0 -82.90602510 0 592
0.02550000 0.02547300 76849.24197579 0 4381.27464144 0 36103.86170590 0 9616.18123710 0 9821.51750086 0 837
0.02650000 0.02652900 74304.60028596 0 2712.63100197 0 44472.87842008 0 1649.78747030 0 9156.63546782 0 723
0.02750000 0.02749970 77567.94657976 0 718.15984560 0 46228.61696657 0 2465.38598877 0 17417.32055597 0 826
0.02850000 0.02848090 75617.44583971 0 1141.94422017 0 49389.65497905 0 963.74954624 0 10215.84727695 0 831
0.02950000 0.02946900 76586.71715434 0 2748.48318973 0 45023.72657981 0 -4574.30955233 0 5553.97777996 0 996
0.03050000 0.03053250 71195.82364663 0 5533.95901668 0 50210.66786435 0 1599.69627282 0 3603.60990780 0 1041
0.03150000 0.03150510 67000.29832635 0 7479.17825780 0 47453.88043100 0 8335.76652274 0 14157.07451312 0 1036
0.03250000 0.03246190 61259.29790788 0 4098.02242793 0 34509.88982501 0 14941.32728003 0 7851.65126470 0 1059
0.03350000 0.03345080 60904.20845095 0 -844.22933598 0 38392.62196917 0 22090.83813867 0 6592.27396750 0 1302
0.03450000 0.03451200 56695.17489439 0 628.93462328 0 24957.90592721 0 11778.51769558 0 -1867.03755557 0 1339
0.03550000 0.03553350 55378.45402696 0 5925.31033740 0 24336.19488865 0 4069.90979521 0 3792.50376921 0 1365
0.03650000 0.03647120 50295.59259571 0 3520.70033956 0 25119.22969982 0 -3688.11389082 0 11304.95436309 0 1308
0.03750000 0.03744890 48620.12840415 0 693.58260620 0 26990.00970118 0 -1271.09181686 0 11847.71972570 0 1579
0.03850000 0.03847530 49522.19070713 0 1174.86224186 0 27910.56278660 0 -2149.80258679 0 5360.99823069 0 1662
0.03950000 0.03950240 50013.13758958 0 696.08716607 0 30373.26927277 0 463.25389085 0 5788.76642774 0 1683
0.04050000 0.04050350 49586.85308407 0 801.35175812 0 30148.16890920 0 1160.54572587 0 7999.98720029 0 1822
0.04150000 0.04152450 48756.09655292 0 1879.61571656 0 33735.38070395 0 2387.97936596 0 6380.28323652 0 1887
0.04250000 0.04250150 45512.90189029 0 1858.73331196 0 26841.64054861 0 6993.77861007 0 10491.40422471 0 1920
0.04350000 0.04349210 44121.22138384 0 2106.77553254 0 29257.95399378 0 8922.83225695 0 5936.84769986 0 2005
0.04450000 0.04448520 42617.37822697 0 647.93473267 0 24459.98348012 0 4535.91072986 0 8960.41172739 0 2151
0.04550000 0.04548030 42511.85897145 0 148.31932711 0 24008.56479726 0 6618.72575149 0 6819.98739972 0 2274
0.04650000 0.04648670 41611.01462420 0 142.23397739 0 19041.07699063 0 2617.06576646 0 8728.32472686 0 2311
0.04750000 0.04749250 40899.39630811 0 533.70930814 0 17942.81309186 0 638.07482742 0 7249.32786689 0 2568
0.04850000 0.04851840 40771.73240295 0 1121.71508273 0 19071.19371413 0 -1196.74115570 0 4779.22506775 0 2493
0.04950000 0.04949480 39811.54039468 0 1441.15165375 0 17859.77065572 0 983.73398530 0 6936.53469076 0 2644
0.05050000 0.05050630 39160.70914184 0 1949.01704853 0 19555.82937144 0 -1410.31522913 0 3511.11170627 0 2829
0.05150000 0.05149060 37150.08567802 0 675.63547490 0 16587.33908757 0 2464.62199836 0 3554.06125424 0 2784
0.05250000 0.05249300 37558.54374058 0 613.06576735 0 18441.06770870 0 1525.45633491 0 2684.70659878 0 3055
0.05350000 0.05348950 37012.01378753 0 -288.92345828 0 16602.50817257 0 1966.47810477 0 4100.40297776 0 3009
0.05450000 0.05448610 37872.66559568 0 -470.19734575 0 16882.30582073 0 2138.30951363 0 2223.42247451 0 3336
0.05550000 0.05550870 37341.41545088 0 891.14166901 0 17778.38906831 0 -239.91291971 0 2683.02360540 0 3349
0.05650000 0.05647670 37112.21832714 0 410.42450745 0 17502.46673383 0 2281.80684328 0 3900.42571921 0 3324
0.05750000 0.05747970 36735.75928330 0 -606.88630287 0 15916.90981980 0 631.65841518 0 5259.88576045 0 3639
0.05850000 0.05849280 38094.88715479 0 -1273.21770322 0 15416.77290774 0 3834.21321680 0 4142.10135303 0 3846
0.05950000 0.05951020 36878.37082697 0 81.66271374 0 13184.70294755 0 2817.55235195 0 3735.45915174 0 3787
0.06050000 0.06049470 37422.02197556 0 1784.44908475 0 13353.66662428 0 2470.22459472 0 2805.20670978 0 3930
0.06150000 0.06148310 34957.54391743 0 2308.44685679 0 8575.54878902 0 925.15474362 0 2471.18788697 0 4083
0.06250000 0.06249100 33039.04219610 0 1544.86612032 0 7424.45882854 0 779.56031565 0 2249.11026809 0 4303
0.06350000 0.06350600 31423.92217481 0 1422.46156945 0 7469.39032266 0 -564.52912427 0 959.29957889 0 4470
0.06450000 0.06451750 30669.67540816 0 1190.40778590 0 8815.05424717 0 -833.54232807 0 -189.41204621 0 4479
0.06550000 0.06550280 30438.15309620 0 677.85215433 0 11301.85411214 0 -1691.17582048 0 -41.80289801 0 4636
0.06650000 0.06648880 29664.30831463 0 408.22997267 0 11022.96439460 0 -394.45378613 0 276.10281338 0 4653
0.06750000 0.06749660 29558.78905911 0 496.94586805 0 13662.91665646 0 278.20101893 0 2362.16977681 0 5220
0.06850000 0.06852730 29806.14479555 0 -68.04906893 0 13217.58775226 0 753.27461653 0 614.61367836 0 5029
0.06950000 0.06949320 30117.60929270 0 -187.98482354 0 12971.11780180 0 1706.56635197 0 3276.51128801 0 5040
0.07050000 0.07048030 30085.27810423 0 -321.36204830 0 13126.57324225 0 863.13422338 0 -42.01161134 0 5475
0.07150000 0.07148790 29364.80192828 0 964.32973606 0 12473.19535470 0 175.85287723 0 -275.18381042 0 5509
0.07250000 0.07249820 28386.34058406 0 1918.09204531 0 11492.29809902 0 -1020.73105145 0 -71.23369100 0 5916
0.07350000 0.07351270 27254.63826435 0 640.08334714 0 10494.16123359 0 -655.36647709 0 377.37915403 0 5721
0.07450000 0.07449140 26724.05245904 0 334.29341646 0 11477.35046051 0 817.01688328 0 -1212.88460528 0 6028
0.07550000 0.07549160 26513.34611774 0 670.58206585 0 12488.03226996 0 -376.19441527 0 -1218.63114187 0 6183
0.07650000 0.07648840 25842.80612672 0 1444.53978514 0 13436.15544418 0 129.80972171 0 608.91918170 0 6330
0.07750000 0.07749960 25302.58739882 0 660.39884872 0 13896.98560313 0 224.82355544 0 1347.43549648 0 6583
0.07850000 0.07848650 24712.98610223 0 35.69983257 0 13436.37689068 0 2050.93779848 0 2923.58093441 0 6549
0.07950000 0.07947320 24756.27889227 0 -74.11958174 0 13693.80844271 0 2912.47539262 0 2256.31835154 0 6828
0.08050000 0.08048110 24800.45746829 0 231.81572857 0 12591.44778376 0 2376.79631790 0 3797.46417073 0 7147
0.08150000 0.08149960 24727.49084774 0 96.25072314 0 11024.02733779 0 1401.47951392 0 3539.77795522 0 7386
0.08250000 0.08250610 24302.75646769 0 513.65954236 0 9009.01923334 0 1830.14456927 0 1764.74034657 0 7227
0.08350000 0.08350160 23541.09124342 0 221.16858102 0 8565.07436974 0 -81.00534982 0 1929.04257455 0 7798
0.08450000 0.08449610 23422.83881436 0 494.71036566 0 7278.63631068 0 -222.74195838 0 -1104.32821106 0 7371
0.08550000 0.08548940 23094.10149049 0 350.04712021 0 8635.66044046 0 -274.53165048 0 270.29759347 0 8256
0.08650000 0.08650700 22602.71171504 0 679.68683855 0 7620.17324204 0 -26.25403227 0 -1064.98713375 0 8037
0.08750000 0.08749060 21434.02783043 0 858.98985220 0 7949.50847144 0 1146.37315010 0 483.88163199 0 8155
0.08850000 0.08849210 20926.02956775 0 515.64923913 0 7083.24299461 0 699.04679850 0 -196.09862317 0 8718
0.08950000 0.08949900 20811.20955938 0 430.01587898 0 7525.64880506 0 1071.97487794 0 513.08488870 0 8571
0.09050000 0.09049190 20143.32692632 0 249.25796185 0 6861.58612406 0 202.38327473 0 725.91379467 0 8932
0.09150000 0.09150830 19915.90137455 0 373.66328182 0 7269.06982204 0 65.20824255 0 1520.16376365 0 9285
0.09250000 0.09250820 19653.15510660 0 403.64824466 0 7462.38154105 0 -373.65885289 0 2451.76702924 0 9204
0.09350000 0.09350330 19671.53516580 0 370.01605802 0 7184.27795858 0 537.37424766 0 2728.78552388 0 9349
0.09450000 0.09448040 19127.10895447 0 181.84632666 0 7751.09241069 0 190.81601699 0 2344.16617665 0 9564
0.09550000 0.09549270 19530.47374761 0 99.51229786 0 7071.97136794 0 230.81700487 0 1506.44515320 0 10155
0.09650000 0.09649430 19088.02364786 0 139.43821537 0 7650.41176112 0 348.00538352 0 1665.12264018 0 9913
0.09750000 0.09749140 18847.20058305 0 226.86197044 0 6847.16995715 0 687.52050836 0 1659.90757519 0 10476
0.09850000 0.09850240 18741.79205078 0 55.27415273 0 6399.79267285 0 392.39986988 0 1252.66746836 0 10575
0.09950000 0.09950330 18568.95306036 0 441.23103679 0 6395.09800713 0 295.18153627 0 1138.74431830 0 10882
0.10050000 0.10051200 18407.51856450 0 350.99934015 0 6934.98456529 0 465.59568755 0 1437.65279910 0 10875
0.10150000 0.10150300 17815.03846346 0 368.93761358 0 6489.57815481 0 479.61657247 0 1200.57218009 0 11118
0.10250000 0.10250800 17417.98489546 0 494.44241540 0 6600.35676462 0 502.32369621 0 583.42072488 0 11575
0.10350000 0.10349800 17204.51047296 0 370.24636238 0 7116.42675209 0 -288.23365245 0 1424.46566024 0 11364
0.10450000 0.10450100 17040.75078889 0 628.73532143 0 6864.44278387 0 -323.91532641 0 1456.19894317 0 12093
0.10550000 0.10551000 16402.43126309 0 213.95053247 0 6375.41141360 0 -37.34473715 0 1098.53738518 0 12067
0.10650000 0.10649700 16172.79124636 0 -86.08234292 0 6167.78317860 0 719.78526288 0 -169.13086884 0 12054
0.10750000 0.10749900 16467.53653303 0 -100.11441088 0 5885.47211270 0 475.07802653 0 -681.39197657 0 12807
0.10850000 0.10850100 16294.69754261 0 208.56052475 0 5340.01617516 0 324.72914228 0 -1420.00351334 0 12736
0.10950000 0.10950300 15959.20610060 0 408.69722478 0 4791.26068482 0 170.77843077 0 -1281.02369222 0 12933
0.11050000 0.11050200 15912.48088987 0 240.64701484 0 5330.63791604 0 -250.62317950 0 -978.37276563 0 13428
0.11150000 0.11150900 15404.26118069 0 365.61259444 0 5071.84446805 0 387.93772297 0 -452.98320235 0 13453
0.11250000 0.11250000 15778.50575956 0 101.93171156 0 5601.04623276 0 261.53384838 0 96.95403721 0 13668
0.11350000 0.11349100 15266.74290645 0 -133.89651680 0 5444.67178935 0 398.12536904 0 254.41987968 0 13791
0.11450000 0.11448600 15430.28114402 0 375.06946707 0 5406.64942592 0 322.21461731 0 649.48707261 0 14205
0.11550000 0.11549300 15285.45513539 0 314.59132168 0 5627.87447580 0 80.88576871 0 549.89926149 0 14776
0.11650000 0.11649800 14906.11728710 0 251.09043161 0 5599.99436190 0 -25.53244886 0 944.44937685 0 14553
0.11750000 0.11747300 14460.45621315 0 489.85625846 0 5596.48443494 0 332.94259283 0 748.90769162 0 14568
0.11850000 0.11849100 14252.96084605 0 456.74004216 0 5183.08811551 0 175.75322631 0 488.91843255 0 16015
0.11950000 0.11950300 13823.90825933 0 102.70766008 0 5213.93561245 0 264.74371534 0 999.51536987 0 15270
0.12050000 0.12050700 13806.96760236 0 -19.90361109 0 4756.27213840 0 264.88433387 0 563.51157762 0 15999
0.12150000 0.12150000 13821.25090137 0 -39.76204710 0 4686.36147949 0 466.21352328 0 70.10032783 0 15670
0.12250000 0.12250700 13755.25984545 0 88.86714333 0 4540.06285166 0 -134.71033267 0 78.75899656 0 16887
0.12350000 0.12352200 13928.76317536 0 164.36755470 0 4705.68268630 0 30.98202569 0 360.60347469 0 16407
0.12450000 0.12449800 13531.15599112 0 269.25790217 0 4728.98993004 0 7.64118851 0 710.30624560 0 16306
0.12550000 0.12549900 13658.48772654 0 -1.15343729 0 4711.01954686 0 679.09779087 0 544.63879997 0 17523
0.12650000 0.12650100 13490.52055904 0 39.11320887 0 4800.61679930 0 579.93072810 0 874.92514208 0 17154
0.12750000 0.12750600 13510.11857397 0 317.89862510 0 4478.54501497 0 567.83310600 0 871.49936478 0 18007
0.12850000 0.12850300 13273.50299259 0 31.83581266 0 4341.66893556 0 686.26379949 0 1816.32630790 0 17496
0.12950000 0.12949900 13131.33434192 0 46.46102506 0 3936.74294462 0 508.81872195 0 1507.58560266 0 18405
0.13050000 0.13049000 13156.46851926 0 246.15438921 0 3932.96728186 0 43.33674717 0 1304.61881641 0 18100
0.13150000 0.13148800 12721.87977013 0 454.45803602 0 3776.53747682 0 38.10562731 0 1137.94711091 0 19059
0.13250000 0.13249300 12488.80733270 0 296.11604048 0 3417.98238222 0 -41.64412088 0 1073.54271914 0 18957
0.13350000 0.13349100 12109.46948441 0 52.65388706 0 3440.94638389 0 87.75249239 0 956.21593643 0 19468
0.13450000 0.13450700 12338.88805465 0 10.97952766 0 3485.43498501 0 348.00427628 0 380.90679671 0 19953
0.13550000 0.13551000 12160.84507157 0 133.00519465 0 3461.61841433 0 -149.55721302 0 617.53455765 0 19956
0.13650000 0.13649900 12044.03204473 0 153.97839232 0 3351.17197426 0 123.64132955 0 1043.19901297 0 19723
0.13750000 0.13749600 11989.44548337 0 11.09380513 0 3129.14971700 0 90.03416637 0 590.36085808 0 20946
0.13850000 0.13851100 12095.85052488 0 31.03074392 0 3387.13488527 0 -81.27440731 0 -33.20401984 0 20955
0.13950000 0.13949800 11887.24792530 0 417.68241637 0 3101.21424148 0 -418.75200294 0 -277.46249486 0 20506
0.14050000 0.14048300 11590.17745041 0 407.66971303 0 3087.77243915 0 -523.78518341 0 -618.69825898 0 21447
0.14150000 0.14148400 11205.52488621 0 288.13178706 0 3046.35087200 0 -164.40741507 0 -227.17421000 0 21771
0.14250000 0.14249400 11047.91034242 0 136.21838331 0 3148.26054963 0 139.93093383 0 -1353.30382863 0 22470
0.14350000 0.14350900 10953.23089290 0 -8.89732162 0 3080.15467968 0 84.71756816 0 -1289.87047975 0 22519
0.14450000 0.14449900 10856.59164188 0 79.62164139 0 3236.75056959 0 422.28850349 0 -1513.46500714 0 22218
0.14550000 0.14550500 10965.84227087 0 128.04479313 0 3301.92227347 0 39.89580079 0 -619.41796010 0 23559
0.14650000 0.14650700 10741.61662096 0 174.76114601 0 3475.62490522 0 -42.67860818 0 -578.71387960 0 23044
0.14750000 0.14750500 10826.99531764 0 -30.22943977 0 3559.69706757 0 80.21091051 0 -134.81662699 0 23649
0.14850000 0.14849900 10860.57767881 0 87.71008539 0 3889.54162392 0 60.82792013 0 262.90017326 0 23640
0.14950000 0.14949500 10798.58373215 0 258.83441559 0 3836.07336737 0 91.35454110 0 550.80165596 0 24457
0.15050000 0.15050000 10549.24604956 0 136.36785970 0 3801.48342464 0 307.98335823 0 389.96838735 0 24591
0.15150000 0.15149900 10483.16641505 0 135.19972943 0 3715.57325637 0 122.57395744 0 643.57112946 0 25020
0.15250000 0.15250500 10290.96192852 0 224.23450776 0 3945.70045540 0 99.84601773 0 245.60077296 0 25297
0.15350000 0.15350100 10043.39581790 0 432.21152099 0 3915.56158724 0 -182.76090069 0 229.27573725 0 25452
0.15450000 0.15450400 9718.67774794 0 355.80915805 0 4004.90417620 0 -38.95055642 0 389.29629723 0 26061
0.15550000 0.15549900 9484.37628246 0 206.50660850 0 3623.03076553 0 203.49382891 0 575.39882555 0 26128
0.15650000 0.15649500 9381.81333766 0 11.26741918 0 3553.48549335 0 581.05124737 0 675.54800353 0 26331
0.15750000 0.15749700 9338.90807899 0 17.08969046 0 3088.15997052 0 775.30079229 0 509.88498683 0 27345
0.15850000 0.15849900 9341.54329229 0 -1.37248110 0 2574.43731591 0 548.47314605 0 215.20724134 0 26980
0.15950000 0.15949700 9175.32555212 0 97.33813616 0 2601.18805267 0 193.74575414 0 495.81649091 0 27777
0.16050000 0.16050000 9139.00832671 0 100.78417581 0 2348.88298703 0 -61.37921119 0 74.12777526 0 28224
0.16150000 0.16150500 9071.63323019 0 55.88944182 0 2423.02327401 0 107.86592404 0 460.09384935 0 28075
0.16250000 0.16249700 9013.68068209 0 56.21264298 0 2286.06968833 0 25.22851355 0 465.34434578 0 28590
0.16350000 0.16349900 9085.75044433 0 37.50451080 0 2375.73337471 0 280.28150876 0 386.32116355 0 29163
0.16450000 0.16449100 8908.13928192 0 107.43078168 0 2212.01797994 0 195.57268774 0 604.73273569 0 28996
0.16550000 0.16550500 8813.58162797 0 287.88265975 0 2342.15101354 0 191.87896018 0 429.95165950 0 30777
0.16650000 0.16650700 8607.72496494 0 94.92137982 0 1948.02053929 0 24.88028893 0 623.41064043 0 29211
0.16750000 0.16749900 8529.96402774 0 121.66713404 0 2407.64381484 0 -79.85869986 0 473.54340231 0 30922
0.16850000 0.16850800 8514.26347114 0 96.23533261 0 2180.04110587 0 -70.90019257 0 761.23451084 0 30867
0.16950000 0.16949900 8288.72021459 0 177.51815489 0 2412.53778241 0 36.68814829 0 709.68287372 0 30852
0.17050000 0.17049200 8436.84577601 0 43.92656991 0 2347.70932060 0 -71.20279921 0 729.90536776 0 31257
0.17150000 0.17149500 8301.81877485 0 62.00701200 0 2724.57804045 0 -28.32411412 0 469.91389423 0 32608
0.17250000 0.17250900 8285.17707065 0 148.16320733 0 2655.48673358 0 -217.48260409 0 680.88486410 0 32361
0.17350000 0.17350400 8213.27339327 0 104.15769174 0 2865.69482026 0 -161.69248102 0 704.32719020 0 32508
0.17450000 0.17449800 8112.42665883 0 127.31512693 0 3149.74424116 0 -173.79785375 0 905.72502803 0 32791
0.17550000 0.17549800 8132.03574608 0 90.13259934 0 2958.68020409 0 45.10599395 0 680.24931265 0 33633
0.17650000 0.17650100 7995.44754712 0 42.93360382 0 3015.61409831 0 81.76413624 0 423.85855915 0 33984
0.17750000 0.17750300 8019.52985360 0 121.86311419 0 2815.07215119 0 198.15918281 0 532.98960703 0 34069
0.17850000 0.17849800 7956.07436006 0 9.23909107 0 2597.37917293 0 424.78309827 0 275.43847389 0 34536
