### header ###
fiducial parameters:
Omega_m = 0.31
Omega_nu = 0
Omega_de = 0.69
Omega_k = 0
H_0 = 100
w_de = -1
zeff = 0
beta = 0
fgrowth = 0
b_1 = 2
gamma = 0.55
Lx = 3500 Ly = 3500 Lz = 3500
nx = 700 ny = 700 nz = 700
xoffset = -685.467585 yoffset = -31.7331281 zoffset = 572.489161
bins = 400 dk = 0.001
kx_ny = 0.628318531 ky_ny = 0.628318531 kz_ny = 0.628318531
############################
A(data) = 8.0036372 (not used)
A(ran) = 7.99947644 (used)
Ngal = 475838
weighted Ngal = 0
Nran = 23820508
weighted Nran = 0
SN(data) = 3495.06549
SN(ran) = 69.678341
SN(data+ran) = 3564.74383
############################
13 columns: k_central k_mean P_0(k) sigma^{lin}_{P_0(k)} P^img_1(k) sigma^{lin}_{P_1(k)} P_2(k) sigma^{lin}_{P_2(k)} P^img_3(k) sigma^{lin}_{P_3(k)} P_4(k) sigma^{lin}_{P_4(k)} N_modes
### header ###
0.00050000 0 0 0 0 0 0 0 0 0 0 0 0
0.00150000 0.00179520 67140.80612830 0 -51863.87668302 0 28154.15393261 0 -25491.48126022 0 97174.70864537 0 3
0.00250000 0.00253879 96237.98996572 0 -13434.60531870 0 35133.92605179 0 -57349.32784467 0 -17012.73780710 0 6
0.00350000 0.00331552 99543.63254032 0 21053.36130317 0 30446.90023281 0 -14184.53387867 0 77952.93131371 0 7
0.00450000 0.00420575 81843.63553173 0 33357.37153464 0 59206.82105625 0 -33185.08616046 0 63732.74454912 0 24
0.00550000 0.00557378 69751.77104379 0 11793.79750383 0 92310.74707579 0 38381.99253734 0 25525.91619041 0 45
0.00650000 0.00659388 78533.67475045 0 -17332.94944085 0 106603.01467495 0 71008.92280369 0 -13811.06436254 0 40
0.00750000 0.00754703 83105.32694482 0 -4055.77043642 0 92045.12200339 0 47145.07329181 0 -317.99495433 0 57
0.00850000 0.00846663 89131.66117386 0 -1406.99353168 0 65831.28227200 0 35446.94067441 0 -15620.50368440 0 75
0.00950000 0.00948925 96987.91852568 0 -2485.31617344 0 67338.77929606 0 19653.15510660 0 24820.49837621 0 112
0.01050000 0.01054430 92199.69165786 0 -2114.10541157 0 42172.71366225 0 7867.99401613 0 6192.39695667 0 105
0.01150000 0.01145670 103923.73351533 0 -10984.46592121 0 36318.99697713 0 27622.46089482 0 -30553.19455107 0 144
0.01250000 0.01249090 96423.56212968 0 5761.08561569 0 30616.30680254 0 -8082.55352647 0 -29271.90512306 0 169
0.01350000 0.01339930 100814.62470626 0 17727.12420440 0 23081.03614721 0 -8717.57349946 0 -52937.44929744 0 180
0.01450000 0.01448870 79939.97072566 0 13523.40536375 0 19521.94805750 0 -16683.00397400 0 -30131.44969873 0 267
0.01550000 0.01550050 70124.68694368 0 11532.37991486 0 16500.08916799 0 -22384.47619286 0 -52873.34053674 0 238
0.01650000 0.01653350 70334.61822224 0 2760.59631308 0 26283.70610100 0 -888.43005666 0 -43009.67069529 0 315
0.01750000 0.01747870 64948.26436771 0 804.32246287 0 36981.12200129 0 -781.92868593 0 -51314.35720227 0 297
0.01850000 0.01844180 67981.85992152 0 5580.08632188 0 26510.24586679 0 -6774.50228937 0 -34961.19778462 0 388
0.01950000 0.01947590 63092.09983511 0 2814.79534307 0 29837.03658180 0 14976.42654970 0 -32647.74623701 0 399
0.02050000 0.02045430 63883.21744341 0 -1559.04976841 0 23153.78132126 0 3591.87324349 0 -25147.90702110 0 462
0.02150000 0.02154770 68973.49733228 0 -7977.08963257 0 20945.29541294 0 5217.26838222 0 -31821.19718930 0 571
0.02250000 0.02255340 69898.14717789 0 -5919.24270340 0 22568.38750810 0 -4350.89218214 0 -25013.82116755 0 510
0.02350000 0.02348930 79734.46837703 0 1380.96249603 0 26244.28862464 0 -10516.59376367 0 -31398.56655097 0 555
0.02450000 0.02439640 74771.52022357 0 3076.13542577 0 27970.24261738 0 -6257.43579266 0 -14293.37483164 0 592
0.02550000 0.02547300 71930.14022861 0 3205.65948149 0 28487.65235615 0 330.74584359 0 -23717.58410103 0 837
0.02650000 0.02652900 69372.10102575 0 2867.94250220 0 36287.99446764 0 8468.86693939 0 -15240.94438962 0 723
0.02750000 0.02749970 72929.86043648 0 4572.11723201 0 38312.12616774 0 10090.22067956 0 -14080.45402538 0 826
0.02850000 0.02848090 64085.06592485 0 791.68451132 0 26401.29419057 0 10782.68387372 0 -1007.60481038 0 831
0.02950000 0.02946900 62667.47617832 0 5786.06478048 0 25450.18148865 0 12066.06597112 0 9172.60176021 0 996
0.03050000 0.03053250 59362.38721995 0 3659.37013559 0 25754.89186766 0 10042.88649096 0 11829.11822000 0 1041
0.03150000 0.03150510 53978.13710714 0 3109.29703860 0 22453.67822298 0 10309.87345931 0 20897.13079998 0 1036
0.03250000 0.03246190 49386.55472810 0 1913.50810283 0 17123.01816229 0 9625.51520692 0 17665.78352490 0 1059
0.03350000 0.03345080 50966.57547972 0 1021.96340120 0 20886.05847516 0 6987.12414286 0 24630.38655908 0 1302
0.03450000 0.03451200 49802.20980179 0 -1089.37060747 0 16910.65097227 0 1364.18792393 0 12541.51159883 0 1339
0.03550000 0.03553350 49194.89278549 0 1892.27138383 0 20265.45466907 0 -4734.78075592 0 20078.99671913 0 1365
0.03650000 0.03647120 48150.88327834 0 3963.69298323 0 18748.10327592 0 -6314.14824038 0 13394.85567261 0 1308
0.03750000 0.03744890 48651.68452988 0 891.22360421 0 23221.87611890 0 -4211.33660012 0 17961.85749055 0 1579
0.03850000 0.03847530 46379.31130735 0 1754.75310958 0 22891.69939281 0 1518.95688025 0 9648.01417095 0 1662
0.03950000 0.03950240 45842.63572339 0 881.44341970 0 19293.85816624 0 4164.99892076 0 9762.59058817 0 1683
0.04050000 0.04050350 45722.94389210 0 -830.75763838 0 19085.25556665 0 5702.92269342 0 3872.11378465 0 1822
0.04150000 0.04152450 45299.87036078 0 -615.66222752 0 11069.36850792 0 2733.08158591 0 1534.82352171 0 1887
0.04250000 0.04250150 45903.53350990 0 844.48178499 0 15224.88951863 0 2039.32292975 0 2074.79865847 0 1920
0.04350000 0.04349210 45297.98806556 0 1432.27164924 0 12449.16840984 0 -1844.88183361 0 -252.98379915 0 2005
0.04450000 0.04448520 42392.38858665 0 3237.32633048 0 14048.67645315 0 -1155.40816715 0 2454.97800344 0 2151
0.04550000 0.04548030 41552.88491891 0 2037.13060943 0 15967.95323721 0 305.32600027 0 1996.21836923 0 2274
0.04650000 0.04648670 39028.83775325 0 141.12120874 0 15700.99948583 0 3730.84199229 0 2412.10596174 0 2311
0.04750000 0.04749250 40741.83712594 0 -880.37826205 0 15734.77007653 0 3653.59038203 0 2584.82315659 0 2568
0.04850000 0.04851840 41008.01581458 0 -207.36139197 0 13407.58884615 0 3702.47469611 0 -538.02751482 0 2493
0.04950000 0.04949480 40667.32037991 0 1917.48306744 0 14636.28473127 0 -295.85362639 0 453.81141225 0 2644
0.05050000 0.05050630 38993.95993007 0 1179.94443895 0 13186.80668926 0 -1334.41444249 0 833.06178917 0 2829
0.05150000 0.05149060 37751.75580866 0 1214.08041636 0 12196.83012723 0 -1201.65726792 0 979.56746947 0 2784
0.05250000 0.05249300 37635.16422832 0 406.91125878 0 14343.08957007 0 -2491.35059047 0 -4378.61728348 0 3055
0.05350000 0.05348950 36776.72688513 0 18.58954758 0 14430.67165939 0 1150.10452356 0 -6076.90153649 0 3009
0.05450000 0.05448610 35818.41717208 0 941.96474716 0 13143.84606897 0 200.19538335 0 -4219.30867399 0 3336
0.05550000 0.05550870 35808.00918675 0 951.11048746 0 12512.05921481 0 309.02304953 0 -3103.91588874 0 3349
0.05650000 0.05647670 35773.90642631 0 -189.76082444 0 11963.09335031 0 1899.11408057 0 -1864.80094596 0 3324
0.05750000 0.05747970 35162.71409632 0 1697.88564932 0 14280.97382784 0 -99.77748004 0 -521.59507756 0 3639
0.05850000 0.05849280 34528.04843771 0 245.63288271 0 13022.60411220 0 -278.92182727 0 -548.24616340 0 3846
0.05950000 0.05951020 34534.69183261 0 -92.56751429 0 15560.60240713 0 1439.20292458 0 152.76375829 0 3787
0.06050000 0.06049470 35335.77453324 0 337.75683966 0 16634.06429830 0 -493.30971658 0 1373.38902586 0 3930
0.06150000 0.06148310 34776.17923690 0 863.70223364 0 16234.13192585 0 -354.91894313 0 549.47629868 0 4083
0.06250000 0.06249100 34005.43470627 0 1766.85516061 0 16603.72612830 0 233.26177419 0 1133.56247028 0 4303
0.06350000 0.06350600 32489.85488510 0 993.72232952 0 14172.68649112 0 4159.06415465 0 1312.61303493 0 4470
0.06450000 0.06451750 32183.70510386 0 -179.92527830 0 12836.92122499 0 4938.97657023 0 -932.30414375 0 4479
0.06550000 0.06550280 31402.77403440 0 -248.13965705 0 10734.87357515 0 3718.89495381 0 -1460.19605243 0 4636
0.06650000 0.06648880 30983.68654002 0 1300.48883925 0 10692.30048622 0 932.95076752 0 -3982.00660848 0 4653
0.06750000 0.06749660 29240.79189031 0 1280.59187155 0 9810.75520113 0 -1132.47738245 0 -306.29261423 0 5220
0.06850000 0.06852730 28897.10692794 0 824.74979493 0 10024.97146940 0 -1293.21432184 0 -380.04979877 0 5029
0.06950000 0.06949320 28634.91427624 0 -208.42322792 0 11078.96821354 0 -219.55977222 0 1658.00313532 0 5040
0.07050000 0.07048030 29320.62335226 0 94.99224270 0 12588.90114906 0 -283.78922126 0 -907.22532804 0 5475
0.07150000 0.07148790 29766.50587270 0 -108.44666748 0 11757.48027842 0 62.63226619 0 903.43748572 0 5509
0.07250000 0.07249820 28675.66043157 0 910.53041700 0 12832.38157182 0 132.00425649 0 1946.08288245 0 5916
0.07350000 0.07351270 28374.60391975 0 412.73419440 0 11330.08854042 0 1699.76794453 0 1700.65373052 0 5721
0.07450000 0.07449140 28101.11749673 0 -593.60283478 0 12141.68994963 0 1836.22327560 0 -78.18046759 0 6028
0.07550000 0.07549160 28538.69577356 0 -98.58753729 0 10521.91955191 0 1663.49500843 0 -147.71699264 0 6183
0.07650000 0.07648840 28069.22920125 0 1308.91487844 0 11278.93439976 0 -107.91453155 0 -98.35169677 0 6330
0.07750000 0.07749960 26755.38713827 0 1369.82373726 0 8521.11724021 0 -708.70408020 0 -329.62643155 0 6583
0.07850000 0.07848650 25361.38144361 0 945.08824999 0 9496.47833348 0 356.00292373 0 -533.90750276 0 6549
0.07950000 0.07947320 24995.77327809 0 551.60329228 0 8132.77759184 0 168.04578101 0 -929.58699524 0 6828
0.08050000 0.08048110 24675.11875135 0 277.88435044 0 9008.63170197 0 1586.44270002 0 -1334.03798345 0 7147
0.08150000 0.08149960 24212.62774367 0 262.67097614 0 8232.31779196 0 1209.44111227 0 -1353.08238214 0 7386
0.08250000 0.08250610 23961.83958653 0 682.47374271 0 8133.45300366 0 -111.60239078 0 -493.92755230 0 7227
0.08350000 0.08350160 23245.46017076 0 963.25129162 0 9283.16999585 0 13.26597381 0 339.12316455 0 7798
0.08450000 0.08449610 22447.36699783 0 1233.37947852 0 8971.94908985 0 -379.56483095 0 2432.47903941 0 7371
0.08550000 0.08548940 22015.76777640 0 559.57536615 0 9656.21876364 0 595.61024727 0 2991.97468482 0 8256
0.08650000 0.08650700 21847.68988566 0 -56.81896349 0 9334.41271511 0 1834.51813758 0 3570.27113777 0 8037
0.08750000 0.08749060 21513.08422964 0 -65.79773313 0 8730.40632393 0 2386.59532536 0 2152.06134105 0 8155
0.08850000 0.08849210 21299.83125363 0 443.68909290 0 7704.02395789 0 1679.49451779 0 2485.05043765 0 8718
0.08950000 0.08949900 20689.85687937 0 398.33906491 0 6658.12108320 0 1068.58121039 0 2979.37437918 0 8571
0.09050000 0.09049190 20504.06326891 0 -198.90988644 0 5172.19294788 0 1593.78365137 0 2780.62614868 0 8932
0.09150000 0.09150830 20501.84880395 0 -324.67820959 0 3981.68551106 0 1248.26068308 0 1626.31414169 0 9285
0.09250000 0.09250820 19971.26299864 0 230.43611689 0 3866.14580158 0 325.16760634 0 423.10121213 0 9204
0.09350000 0.09350330 20103.68800347 0 653.64694504 0 3662.80255628 0 -727.24247365 0 168.62486359 0 9349
0.09450000 0.09448040 19235.61773769 0 702.51465063 0 4204.95894103 0 -1020.56939551 0 623.95650604 0 9564
0.09550000 0.09549270 18969.88194204 0 466.85903982 0 4169.15104256 0 -646.30931538 0 315.71516265 0 10155
0.09650000 0.09649430 18624.86830069 0 405.32902357 0 4040.67885769 0 -151.84143363 0 410.45440272 0 9913
0.09750000 0.09749140 18233.01872536 0 491.65440401 0 5377.99424929 0 -382.17125621 0 -444.14195099 0 10476
0.09850000 0.09850240 17963.73978577 0 949.34777335 0 5432.29293020 0 -157.55143154 0 822.62169410 0 10575
0.09950000 0.09950330 17135.64061259 0 719.80519307 0 5580.16382815 0 353.25477271 0 1715.14740371 0 10882
0.10050000 0.10051200 16766.04641014 0 -29.53376561 0 5128.99980877 0 508.19977899 0 2169.48918032 0 10875
0.10150000 0.10150300 17081.05405123 0 -182.57267117 0 5584.67026435 0 1104.06579697 0 1780.68449431 0 11118
0.10250000 0.10250800 17069.09594043 0 -161.42674523 0 5495.85914698 0 539.70497203 0 1382.14723479 0 11575
0.10350000 0.10349800 17120.58225083 0 178.83686877 0 5223.98928339 0 297.04722300 0 2066.80443995 0 11364
0.10450000 0.10450100 16809.44992343 0 395.76585662 0 4826.20494195 0 2.31417125 0 1728.68885696 0 12093
0.10550000 0.10551000 16411.17839970 0 485.23799178 0 4431.39905589 0 169.98675955 0 1730.48257358 0 12067
0.10650000 0.10649700 15982.23653623 0 502.02142174 0 4925.71192510 0 335.06958643 0 1522.88755556 0 12054
0.10750000 0.10749900 15553.62684250 0 461.57421918 0 4488.72048148 0 202.61025739 0 1659.07715083 0 12807
0.10850000 0.10850100 15482.76396366 0 381.49362993 0 5545.17528173 0 -527.19767392 0 1102.10710271 0 12736
0.10950000 0.10950300 15018.27993752 0 392.96234398 0 5439.95497897 0 -1007.84729429 0 1385.77895733 0 12933
0.11050000 0.11050200 15145.61167293 0 91.89099524 0 6164.29539628 0 -525.03414165 0 1477.11456476 0 13428
0.11150000 0.11150900 14970.44749430 0 -120.24434030 0 6466.17126014 0 -576.59574386 0 861.45898063 0 13453
0.11250000 0.11250000 15254.56334915 0 110.56480322 0 7175.96264264 0 4.11744329 0 147.78231935 0 13668
0.11350000 0.11349100 15066.77672022 0 291.32283107 0 6953.43105843 0 -19.59004286 0 -68.01684847 0 13791
0.11450000 0.11448600 14914.42153072 0 272.90844767 0 6483.08977246 0 327.75077972 0 821.93520996 0 14205
0.11550000 0.11549300 14647.24633284 0 -90.59630830 0 6555.74636792 0 428.64955410 0 325.45216509 0 14776
0.11650000 0.11649800 14958.82155324 0 -153.33176855 0 6410.02350099 0 898.70628132 0 12.24300172 0 14553
0.11750000 0.11747300 14807.01997998 0 162.31917461 0 6595.73960517 0 114.36050689 0 14.40686616 0 14568
0.11850000 0.11849100 14452.15196954 0 575.48961861 0 5917.84759047 0 154.81767454 0 615.72533977 0 16015
0.11950000 0.11950300 14418.38137884 0 187.04921209 0 6373.55126303 0 87.92499922 0 1115.03847086 0 15270
0.12050000 0.12050700 14016.23454143 0 106.19178853 0 5853.14092423 0 646.38682166 0 1410.75812212 0 15999
0.12150000 0.12150000 14141.01964213 0 138.76169632 0 5942.81568294 0 908.11222126 0 1055.45718378 0 15670
0.12250000 0.12250700 13868.64045160 0 244.81242344 0 5149.77149013 0 775.85440853 0 275.66324208 0 16887
0.12350000 0.12352200 13412.01777607 0 242.91019803 0 4462.14690191 0 600.72898304 0 1071.60949123 0 16407
0.12450000 0.12449800 13307.49502979 0 64.94782147 0 3774.75483252 0 532.71390614 0 477.96347438 0 16306
0.12550000 0.12549900 13254.34787066 0 56.73381731 0 3596.28002877 0 465.71748313 0 618.33619396 0 17523
0.12650000 0.12650100 13168.75879981 0 90.82030143 0 3373.81487852 0 668.97104259 0 488.17437232 0 17154
0.12750000 0.12750600 12937.56865760 0 148.23407021 0 3201.10875599 0 -83.24195943 0 256.59780597 0 18007
0.12850000 0.12850300 12918.96715190 0 282.66759476 0 3090.62909895 0 23.50698848 0 733.35328971 0 17496
0.12950000 0.12949900 13008.87442943 0 105.65433788 0 3762.49776895 0 -403.60063366 0 525.09393220 0 18405
0.13050000 0.13049000 12809.12968970 0 153.95624767 0 3857.27686940 0 -419.94781402 0 542.33686364 0 18100
0.13150000 0.13148800 12760.19001400 0 211.78146404 0 3913.29176065 0 -62.03059605 0 519.16359503 0 19059
0.13250000 0.13249300 12601.52359935 0 297.31185157 0 4323.84249260 0 -201.18967812 0 667.99778524 0 18957
0.13350000 0.13349100 12348.52097724 0 277.71383664 0 4321.62802764 0 334.62780067 0 230.78046620 0 19468
0.13450000 0.13450700 11994.42802954 0 324.19324176 0 4125.63680603 0 295.93556159 0 811.13304987 0 19953
0.13550000 0.13551000 11810.84888405 0 105.36136417 0 3855.25063395 0 430.35247766 0 178.40172641 0 19956
0.13650000 0.13649900 11714.51965813 0 -94.89890300 0 3979.62605864 0 439.18708563 0 598.38054294 0 19723
0.13750000 0.13749600 11848.05189544 0 -28.07089005 0 3823.49520637 0 368.78924443 0 735.96303667 0 20946
0.13850000 0.13851100 11789.03640416 0 128.40464369 0 3756.93946189 0 52.24631478 0 1041.73746610 0 20955
0.13950000 0.13949800 11774.75310514 0 72.81791923 0 3636.08503649 0 155.57169986 0 1101.69964115 0 20506
0.14050000 0.14048300 11572.01883771 0 190.60232113 0 3905.10931261 0 70.13830590 0 912.27984432 0 21447
0.14150000 0.14148400 11501.15595887 0 202.80070138 0 3845.25232464 0 237.32753186 0 1099.79852298 0 21771
0.14250000 0.14249400 11318.46259936 0 268.80393685 0 3922.52607955 0 -145.84798421 0 1167.23341006 0 22470
0.14350000 0.14350900 11144.73782296 0 190.08635079 0 3877.84924891 0 -159.45365695 0 1019.86187395 0 22519
0.14450000 0.14449900 11045.61837118 0 143.55601297 0 3867.07587686 0 -299.11664051 0 1129.10032338 0 22218
0.14550000 0.14550500 10988.50731977 0 167.89187569 0 3905.92866465 0 -154.06807815 0 280.34351378 0 23559
0.14650000 0.14650700 10660.43433539 0 219.16781193 0 4101.80916302 0 13.67996804 0 517.92128018 0 23044
0.14750000 0.14750500 10710.00513361 0 210.26566277 0 3605.62507092 0 457.21283043 0 -337.55089442 0 23649
0.14850000 0.14849900 10305.46667403 0 173.02611271 0 3538.79251831 0 311.62836756 0 -177.56133695 0 23640
0.14950000 0.14949500 10198.84018603 0 245.49115695 0 2953.66444095 0 402.01950568 0 -573.59071491 0 24457
0.15050000 0.15050000 10119.44054475 0 -9.44049666 0 2836.43066577 0 347.08305886 0 -606.51980892 0 24591
0.15150000 0.15149900 9862.80620011 0 180.17440561 0 2438.73490293 0 227.22292823 0 -604.19462070 0 25020
0.15250000 0.15250500 9751.51826335 0 183.94896114 0 2532.34033695 0 -22.74620904 0 -278.69927355 0 25297
0.15350000 0.15350100 9848.66684131 0 -38.23340194 0 2645.72094309 0 -32.93861621 0 21.00774332 0 25452
0.15450000 0.15450400 9708.41370284 0 69.22384260 0 2679.82370353 0 58.16867988 0 44.07172809 0 26061
0.15550000 0.15549900 9834.13995115 0 144.37536501 0 3081.42799703 0 46.13904186 0 586.37149944 0 26128
0.15650000 0.15649500 9629.53446083 0 118.95330722 0 3007.61987979 0 238.52777187 0 823.56837787 0 26331
0.15750000 0.15749700 9508.82397565 0 190.38087463 0 3194.54286738 0 135.30713098 0 818.70541281 0 27345
0.15850000 0.15849900 9494.30815782 0 224.42938068 0 3038.86598043 0 94.79637327 0 557.56241750 0 26980
0.15950000 0.15949700 9197.04945341 0 221.48192781 0 3021.61529836 0 50.16715363 0 911.04749457 0 27777
0.16050000 0.16050000 9074.75562579 0 44.34211426 0 2985.50844713 0 63.44962520 0 558.64639810 0 28224
0.16150000 0.16150500 9042.76767939 0 84.90546551 0 2832.15674839 0 -139.20680378 0 694.75737986 0 28075
0.16250000 0.16249700 8972.25911494 0 210.00546314 0 2983.41577773 0 56.25327841 0 429.26628259 0 28590
0.16350000 0.16349900 8785.49113990 0 203.23252205 0 2811.86117699 0 -5.34861937 0 661.12851492 0 29163
0.16450000 0.16449100 8681.36699731 0 33.50684792 0 2867.41103061 0 347.73189709 0 765.19508143 0 28996
0.16550000 0.16550500 8714.14107877 0 1.74938303 0 2784.60111329 0 351.50423816 0 608.33899188 0 30777
0.16650000 0.16650700 8686.60420695 0 20.29391054 0 2914.42412179 0 281.70762420 0 748.29871375 0 29211
0.16750000 0.16749900 8568.44035648 0 162.31253121 0 2527.45744170 0 32.71772333 0 927.55079471 0 30922
0.16850000 0.16850800 8509.43593752 0 143.85275128 0 2769.65347479 0 227.25614521 0 1090.71589493 0 30867
0.16950000 0.16949900 8446.06902259 0 18.77345890 0 2512.97484084 0 -4.30680218 0 1049.04298601 0 30852
0.17050000 0.17049200 8360.95606171 0 116.00363989 0 2521.69983280 0 141.66043096 0 835.52981037 0 31257
0.17150000 0.17149500 8318.41618975 0 93.55206541 0 2402.53947310 0 -54.95438399 0 748.60541715 0 32608
0.17250000 0.17250900 8231.60916317 0 -12.18354334 0 2201.53248834 0 96.86424066 0 417.73002736 0 32361
0.17350000 0.17350400 8281.12459976 0 77.63936307 0 2408.73997500 0 -106.33229633 0 473.00750179 0 32508
0.17450000 0.17449800 8212.56476449 0 28.57434866 0 2128.24477037 0 209.59357265 0 362.54113154 0 32791
0.17550000 0.17549800 8157.47994851 0 70.34868007 0 2222.48132690 0 303.88327635 0 266.23183580 0 33633
0.17650000 0.17650100 8098.33158933 0 160.81555290 0 1901.83787247 0 -100.35944143 0 215.39547086 0 33984
0.17750000 0.17750300 7957.33660509 0 230.10283992 0 2171.64828366 0 46.16240446 0 153.50892575 0 34069
0.17850000 0.17849800 7879.02205165 0 183.77512564 0 2103.08844838 0 -204.56895165 0 386.65554776 0 34536
