### header ###
fiducial parameters:
Omega_m = 0.31
Omega_nu = 0
Omega_de = 0.69
Omega_k = 0
H_0 = 100
w_de = -1
zeff = 0
beta = 0
fgrowth = 0
b_1 = 2
gamma = 0.55
Lx = 3500 Ly = 3500 Lz = 3500
nx = 700 ny = 700 nz = 700
xoffset = -685.467585 yoffset = -31.7331281 zoffset = 572.489161
bins = 400 dk = 0.001
kx_ny = 0.628318531 ky_ny = 0.628318531 kz_ny = 0.628318531
############################
A(data) = 8.05200409 (not used)
A(ran) = 8.05374905 (used)
Ngal = 478671
weighted Ngal = 0
Nran = 23820508
weighted Nran = 0
SN(data) = 3479.11837
SN(ran) = 70.1510751
SN(data+ran) = 3549.26945
############################
13 columns: k_central k_mean P_0(k) sigma^{lin}_{P_0(k)} P^img_1(k) sigma^{lin}_{P_1(k)} P_2(k) sigma^{lin}_{P_2(k)} P^img_3(k) sigma^{lin}_{P_3(k)} P_4(k) sigma^{lin}_{P_4(k)} N_modes
### header ###
0.00050000 0 0 0 0 0 0 0 0 0 0 0 0
0.00150000 0.00179520 36006.20380100 0 -50008.93010615 0 31231.59589271 0 -157184.93759047 0 18793.49980768 0 3
0.00250000 0.00253879 49089.26280672 0 -29224.73701933 0 -38320.09824160 0 7926.01299818 0 -13943.48936737 0 6
0.00350000 0.00331552 81183.39280280 0 -25372.01087543 0 2955.91212289 0 -51042.75307447 0 12904.57312964 0 7
0.00450000 0.00420575 71831.59653772 0 11062.35972631 0 6855.56277936 0 -49128.68028307 0 42369.57959753 0 24
0.00550000 0.00557378 70767.76756914 0 14186.41617389 0 36196.64778788 0 -132.75053118 0 34088.03424942 0 45
0.00650000 0.00659388 34561.15468892 0 -8538.01360788 0 -4462.06939564 0 -6495.74543973 0 -5668.80886065 0 40
0.00750000 0.00754703 71391.69307267 0 -1563.23510720 0 33126.62428542 0 48320.40057131 0 -23865.95325360 0 57
0.00850000 0.00846663 67051.56319026 0 -11068.11733522 0 34179.15948268 0 -7851.70662632 0 -13530.38092839 0 75
0.00950000 0.00948925 76159.32541634 0 -1522.05713120 0 50258.27886107 0 -4908.10692864 0 -1556.07131304 0 112
0.01050000 0.01054430 79974.07348610 0 347.41522860 0 36946.02273161 0 -24192.14394276 0 -8619.89344991 0 105
0.01150000 0.01145670 84940.12189052 0 3106.06391975 0 76738.51872760 0 133.28643170 0 8776.19038705 0 144
0.01250000 0.01249090 86796.95076260 0 3621.87924375 0 68128.45750212 0 -6193.81421425 0 -9993.06102927 0 169
0.01350000 0.01339930 84544.50772474 0 -2353.33406160 0 76890.43102411 0 20452.24478876 0 4980.23205250 0 180
0.01450000 0.01448870 85718.72777176 0 1700.94161097 0 60757.05725411 0 28067.23618279 0 6575.74298655 0 267
0.01550000 0.01550050 92439.40749018 0 -804.08883682 0 57461.04760210 0 28978.04562237 0 5646.05523315 0 238
0.01650000 0.01653350 80843.91532386 0 2501.84715440 0 38030.00333136 0 34741.85502996 0 -1001.53496191 0 315
0.01750000 0.01747870 79908.30387668 0 4655.56934417 0 25770.28239916 0 23148.68805185 0 5032.75916144 0 297
0.01850000 0.01844180 71577.92957612 0 3041.26867491 0 11834.87582891 0 1907.18580536 0 10961.35797931 0 388
0.01950000 0.01947590 73244.20373808 0 1912.65553382 0 11344.15039294 0 2720.72487141 0 11769.99200547 0 399
0.02050000 0.02045430 70374.36786834 0 3455.35147848 0 19961.96224579 0 -9268.26664664 0 8616.05135320 0 462
0.02150000 0.02154770 74966.94675662 0 1976.31032921 0 25469.00444084 0 -8242.64827102 0 11872.52173329 0 571
0.02250000 0.02255340 68449.44419862 0 1785.97706557 0 30866.31989694 0 -9520.77101413 0 14366.78434519 0 510
0.02350000 0.02348930 69405.65016995 0 4743.47253091 0 40458.27488733 0 5855.12287037 0 15553.62684250 0 555
0.02450000 0.02439640 70866.20053678 0 5138.43342951 0 35258.48970600 0 9347.59985397 0 13189.24260072 0 592
0.02550000 0.02547300 64124.81557095 0 1713.85194170 0 28734.56519961 0 14199.92441017 0 12252.41319782 0 837
0.02650000 0.02652900 59995.50275308 0 1264.01660130 0 17056.03059714 0 8926.45290717 0 10126.91436401 0 723
0.02750000 0.02749970 65754.99395400 0 -2708.82212223 0 18792.61402170 0 10662.43842618 0 2979.15293268 0 826
0.02850000 0.02848090 62550.77387473 0 -6501.72449513 0 9264.12559716 0 5582.67724589 0 1623.82286860 0 831
0.02950000 0.02946900 65026.10281119 0 2598.56391169 0 14113.33883009 0 -55.06366783 0 -5752.64850418 0 996
0.03050000 0.03053250 61707.94850954 0 3529.09316177 0 12500.10110401 0 -6566.30936580 0 5147.06984287 0 1041
0.03150000 0.03150510 59624.02625542 0 1899.57911821 0 13132.22012791 0 -909.54498009 0 602.13184659 0 1036
0.03250000 0.03246190 59178.14373497 0 258.76244548 0 13151.59669634 0 2961.61437017 0 3663.69941459 0 1059
0.03350000 0.03345080 56719.64473224 0 3350.06474178 0 14776.23891698 0 -1343.03978353 0 -4242.16195242 0 1302
0.03450000 0.03451200 54845.10014044 0 4749.29657376 0 9805.16367710 0 394.56008045 0 2533.73544987 0 1339
0.03550000 0.03553350 52731.28260931 0 -0.98820831 0 6327.00320949 0 254.65904190 0 -1440.99664120 0 1365
0.03650000 0.03647120 51731.11950845 0 -1308.74879356 0 11093.58368230 0 64.58320982 0 -7372.29710632 0 1308
0.03750000 0.03744890 52069.26830841 0 1474.40184518 0 11668.34806363 0 -2420.60950720 0 -8266.76379447 0 1579
0.03850000 0.03847530 50098.28376744 0 3026.17709618 0 15356.65018397 0 -1431.23085071 0 -7394.38639434 0 1662
0.03950000 0.03950240 49379.68988671 0 884.03655817 0 20013.11638646 0 -1367.26603023 0 -3741.49356877 0 1683
0.04050000 0.04050350 50064.18100700 0 -441.39047827 0 25256.85869732 0 -3402.84651419 0 -3538.49356554 0 1822
0.04150000 0.04152450 50052.00144970 0 1797.07153504 0 24445.14656486 0 -807.50354179 0 2627.79484921 0 1887
0.04250000 0.04250150 51153.91921565 0 -57.29961311 0 30624.38959965 0 -2947.18713093 0 6251.92177490 0 1920
0.04350000 0.04349210 50785.21079919 0 1885.31796385 0 30346.80641645 0 -337.60736328 0 2825.44691955 0 2005
0.04450000 0.04448520 49770.87512255 0 2932.51630054 0 30799.00016204 0 -1494.99636934 0 1683.48055473 0 2151
0.04550000 0.04548030 45037.78843233 0 4944.86704703 0 29036.28605091 0 3910.43510085 0 -140.32400136 0 2274
0.04650000 0.04648670 42510.08739948 0 1962.96817780 0 26120.83220292 0 4766.38117096 0 -4551.96560084 0 2311
0.04750000 0.04749250 39903.66213717 0 -407.72507466 0 24987.13686474 0 6252.02142582 0 -3220.97250672 0 2568
0.04850000 0.04851840 39678.56177360 0 225.01510666 0 22003.03460286 0 6857.98761850 0 -5932.16410646 0 2493
0.04950000 0.04949480 40802.95635894 0 -1466.67336245 0 18236.67259255 0 3183.84700160 0 -5927.43622376 0 2644
0.05050000 0.05050630 40574.31285143 0 326.10653949 0 17134.53338010 0 3157.53915783 0 -2590.76899502 0 2829
0.05150000 0.05149060 41278.51270990 0 1362.13954384 0 14625.98746919 0 107.98694455 0 -731.94489000 0 2784
0.05250000 0.05249300 38548.85247236 0 2655.63067380 0 16227.70997746 0 -297.72817098 0 813.25450730 0 3055
0.05350000 0.05348950 37300.89074205 0 2451.22448533 0 16453.47468051 0 1014.82285893 0 969.66659662 0 3009
0.05450000 0.05448610 34959.09404290 0 1412.80650221 0 15624.15755159 0 1690.73292748 0 -1859.20942192 0 3336
0.05550000 0.05550870 35030.06764499 0 -247.34023519 0 15368.05467854 0 665.35482130 0 -3781.19892557 0 3349
0.05650000 0.05647670 34620.28090345 0 -135.63044287 0 15414.44771953 0 370.21535987 0 -3884.42620985 0 3324
0.05750000 0.05747970 35151.42032500 0 23.41464529 0 14560.66075276 0 -1985.28998463 0 -5219.51606416 0 3639
0.05850000 0.05849280 34482.65190596 0 835.47112705 0 14159.28897808 0 141.91952336 0 -1451.58178372 0 3846
0.05950000 0.05951020 34509.77910176 0 1891.83956316 0 16125.95531237 0 262.61340005 0 -3842.57282204 0 3787
0.06050000 0.06049470 32748.72583936 0 1863.61620720 0 15939.71880892 0 1286.88095205 0 1029.16151957 0 3930
0.06150000 0.06148310 31442.30223401 0 791.88713487 0 15908.49485293 0 3563.70524916 0 2099.78889558 0 4083
0.06250000 0.06249100 30707.65348229 0 162.88829210 0 16938.22106107 0 3380.84580478 0 2567.50604057 0 4303
0.06350000 0.06350600 30379.35905142 0 -439.96657730 0 14288.94590171 0 3154.76000430 0 1791.44679403 0 4470
0.06450000 0.06451750 31167.59785526 0 -397.17979250 0 14900.24895495 0 1347.28048393 0 4058.51637298 0 4479
0.06550000 0.06550280 31024.43269535 0 -46.36181703 0 13251.13689646 0 -221.66462117 0 2406.73588421 0 4636
0.06650000 0.06648880 31755.87047287 0 -345.18526238 0 13188.13536824 0 -77.27829456 0 2836.80712481 0 4653
0.06750000 0.06749660 31488.03093551 0 -208.13313301 0 11900.31326858 0 133.84226241 0 872.17145489 0 5220
0.06850000 0.06852730 31429.12616747 0 519.40829341 0 11972.94771940 0 1810.82336247 0 291.34165402 0 5029
0.06950000 0.06949320 31675.70684118 0 658.80111224 0 9580.63907443 0 1745.12018699 0 -1770.03291783 0 5040
0.07050000 0.07048030 29954.95684112 0 458.40531982 0 9649.63073037 0 2609.79124905 0 201.05902468 0 5475
0.07150000 0.07148790 29689.22104547 0 968.62247639 0 8074.95791164 0 1552.59460305 0 1363.14712540 0 5509
0.07250000 0.07249820 28935.63861831 0 703.75475101 0 8403.23019786 0 809.16771221 0 1410.32630145 0 5916
0.07350000 0.07351270 28050.29552581 0 991.75477740 0 8326.23325107 0 1161.35400558 0 3446.63755885 0 5721
0.07450000 0.07449140 27284.20137161 0 1137.53743489 0 8501.86246735 0 1110.38809444 0 4077.21752959 0 6028
0.07550000 0.07549160 26645.21750633 0 1184.40658585 0 8140.30677272 0 -172.14364842 0 3408.41589357 0 6183
0.07650000 0.07648840 25982.76031243 0 -145.62543048 0 9076.38325754 0 390.74566455 0 4466.26580675 0 6330
0.07750000 0.07749960 26178.85118497 0 186.53877792 0 9922.26458438 0 40.45351379 0 3884.16047406 0 6583
0.07850000 0.07848650 26286.03128921 0 81.27761829 0 9511.01629597 0 -918.36408681 0 3722.44917008 0 6549
0.07950000 0.07947320 26150.83820318 0 231.89212761 0 9719.17600256 0 -365.54283880 0 863.41103150 0 6828
0.08050000 0.08048110 25773.93626635 0 1005.69372712 0 10110.22837050 0 -1477.78997657 0 1531.12536522 0 7147
0.08150000 0.08149960 24840.20711439 0 673.92369348 0 10327.09092440 0 -1027.69665099 0 1366.50203982 0 7386
0.08250000 0.08250610 25088.55936007 0 624.80575335 0 10868.89299475 0 1587.11811183 0 1084.66044049 0 7227
0.08350000 0.08350160 24086.84613373 0 409.17665644 0 9615.42831901 0 1846.52053768 0 1835.90217818 0 7798
0.08450000 0.08449610 23795.31182126 0 178.48587608 0 9699.67763855 0 2147.52168788 0 1707.20854681 0 7371
0.08550000 0.08548940 22874.64801259 0 1187.36289658 0 9774.82550710 0 845.91565105 0 905.24448913 0 8256
0.08650000 0.08650700 21759.33273360 0 1529.80775857 0 9505.23654241 0 -769.27412589 0 1668.59935017 0 8037
0.08750000 0.08749060 20816.63499854 0 987.30370282 0 10392.09654341 0 -1295.21841264 0 2478.10808999 0 8155
0.08850000 0.08849210 20179.09053549 0 627.84732098 0 10423.60837985 0 -1077.27409260 0 2707.36057536 0 8718
0.08950000 0.08949900 20206.10700804 0 212.25093061 0 11293.77131502 0 262.93117577 0 2049.98557855 0 8571
0.09050000 0.09049190 19903.50037075 0 200.04258527 0 10666.43553544 0 1115.52565315 0 2325.36536911 0 8932
0.09150000 0.09150830 19734.42597077 0 169.08325784 0 10061.46585200 0 1896.20205914 0 1758.28518120 0 9285
0.09250000 0.09250820 19270.05266788 0 83.62849429 0 8779.16884243 0 1585.73407123 0 1254.27295546 0 9204
0.09350000 0.09350330 19359.73849891 0 480.62415403 0 8164.54409175 0 1481.75386886 0 797.56391580 0 9349
0.09450000 0.09448040 18697.50275150 0 296.20461908 0 7544.15065983 0 -500.23102682 0 1100.54147598 0 9564
0.09550000 0.09549270 18215.85662189 0 447.85117980 0 7280.77326937 0 -323.45250323 0 471.61349609 0 10155
0.09650000 0.09649430 18135.47154371 0 224.18246784 0 7349.42168325 0 -321.75733030 0 0.62041447 0 9913
0.09750000 0.09749140 18064.71938812 0 -70.58274902 0 7171.32333854 0 568.93812402 0 -602.94898416 0 10476
0.09850000 0.09850240 17932.84799953 0 10.24381597 0 7146.97529626 0 597.56229814 0 -704.39583862 0 10575
0.09950000 0.09950330 18013.34380096 0 276.13713758 0 6547.79643870 0 346.77746269 0 -887.26635532 0 10882
0.10050000 0.10051200 17657.36855804 0 334.88578584 0 6112.65407333 0 883.50840828 0 -634.60476082 0 10875
0.10150000 0.10150300 17519.29666755 0 116.60375990 0 6304.17207572 0 780.05303410 0 434.30419038 0 11118
0.10250000 0.10250800 17350.99733031 0 258.57532319 0 6174.10547607 0 -69.37785863 0 -931.16369430 0 11575
0.10350000 0.10349800 16952.06146709 0 498.84809345 0 6036.58720183 0 -108.75857487 0 361.21355979 0 11364
0.10450000 0.10450100 16678.46432082 0 396.17774710 0 6668.18582646 0 569.12856800 0 651.18667447 0 12093
0.10550000 0.10551000 16222.72743129 0 329.61203753 0 6363.65260464 0 128.50429461 0 1064.30397131 0 12067
0.10650000 0.10649700 16355.26315937 0 328.73068047 0 7210.81832117 0 785.71874271 0 749.76690402 0 12054
0.10750000 0.10749900 15895.20806315 0 304.97500757 0 6835.80975189 0 370.64053714 0 2294.11926847 0 12807
0.10850000 0.10850100 15609.32063633 0 374.62768131 0 6712.18724529 0 707.29346602 0 2627.67305364 0 12736
0.10950000 0.10950300 15753.26085898 0 -78.67119302 0 6976.93760402 0 270.42935414 0 3017.80641862 0 12933
0.11050000 0.11050200 15610.87076181 0 119.63646967 0 7060.53365641 0 312.47207871 0 3052.89461597 0 13428
0.11150000 0.11150900 15603.56302743 0 186.92077312 0 6834.43678361 0 45.20697356 0 2555.60329139 0 13453
0.11250000 0.11250000 15364.95442759 0 249.96548341 0 6716.01826967 0 -205.13142575 0 2904.48117410 0 13668
0.11350000 0.11349100 15244.81970330 0 181.53851603 0 6898.82235243 0 121.72692459 0 2497.13034402 0 13791
0.11450000 0.11448600 14861.82798783 0 203.39307076 0 6252.32037859 0 474.26974682 0 2002.15313533 0 14205
0.11550000 0.11549300 14783.43592811 0 248.99111882 0 5896.72159472 0 722.82683051 0 1684.93102928 0 14776
0.11650000 0.11649800 14740.91820081 0 -31.10481777 0 5697.75191773 0 431.57043339 0 1752.43899370 0 14553
0.11750000 0.11747300 14616.24382335 0 122.22739367 0 5467.37005522 0 770.51754797 0 1677.41292073 0 14568
0.11850000 0.11849100 14396.90106869 0 208.55720305 0 5122.76608989 0 202.97232241 0 1531.86721098 0 16015
0.11950000 0.11950300 14328.36337807 0 245.50555097 0 4909.74563271 0 -84.77680510 0 1341.32357318 0 15270
0.12050000 0.12050700 13891.44944072 0 392.85051350 0 5097.13365794 0 -181.75553360 0 986.09017602 0 15999
0.12150000 0.12150000 13752.04887126 0 296.66633503 0 5021.75327057 0 -414.83129273 0 1083.25314800 0 15670
0.12250000 0.12250700 13432.94446998 0 155.26056754 0 4852.33562852 0 111.32779712 0 709.20122759 0 16887
0.12350000 0.12352200 13242.94337609 0 105.06340791 0 4763.83453625 0 369.51669617 0 718.09894781 0 16407
0.12450000 0.12449800 13353.44517778 0 24.45079345 0 4603.97231052 0 431.39659789 0 454.38606591 0 16306
0.12550000 0.12549900 13264.86657923 0 100.14674207 0 4542.66484800 0 729.87215079 0 772.31569352 0 17523
0.12650000 0.12650100 13341.92995997 0 93.10629361 0 5114.11860421 0 64.65263330 0 901.49207825 0 17154
0.12750000 0.12750600 12850.20801478 0 382.53885739 0 4394.69429912 0 405.99004136 0 944.43387559 0 18007
0.12850000 0.12850300 13037.44102746 0 237.26331238 0 5033.83317695 0 -144.13398833 0 1301.96145845 0 17496
0.12950000 0.12949900 12650.68472154 0 251.36281080 0 4790.80671951 0 5.16963524 0 1456.23216015 0 18405
0.13050000 0.13049000 12541.84376858 0 157.04542630 0 5002.29919587 0 194.70461747 0 901.10454688 0 18100
0.13150000 0.13148800 12373.98732433 0 153.08042678 0 4449.66839184 0 185.81464787 0 952.82226887 0 19059
0.13250000 0.13249300 12292.71646016 0 169.96904383 0 4109.91410478 0 241.73431714 0 569.34447834 0 18957
0.13350000 0.13349100 12212.99572146 0 -49.77320031 0 4077.59398864 0 406.89132860 0 1100.73745613 0 19468
0.13450000 0.13450700 12097.51137360 0 -133.13474085 0 3614.10647173 0 748.14591567 0 6.34396601 0 19953
0.13550000 0.13551000 12420.26964207 0 -136.68674265 0 3480.46351117 0 230.05079999 0 -100.36807785 0 19956
0.13650000 0.13649900 12243.77678446 0 109.30432976 0 3618.86757140 0 -144.45397851 0 -259.72241604 0 19723
0.13750000 0.13749600 12300.35636428 0 345.66137235 0 3974.08989623 0 -468.48445710 0 394.03857395 0 20946
0.13850000 0.13851100 12021.88739509 0 329.14478542 0 4234.59955457 0 -257.35183129 0 773.30223766 0 20955
0.13950000 0.13949800 11808.30224934 0 450.89274743 0 4692.66163231 0 -64.20298618 0 1145.19948367 0 20506
0.14050000 0.14048300 11690.49271327 0 104.83177487 0 4462.88874768 0 346.02233014 0 864.68434885 0 21447
0.14150000 0.14148400 11638.56350987 0 71.36954842 0 4567.10146887 0 116.26937569 0 723.91413281 0 21771
0.14250000 0.14249400 11423.09606890 0 266.57950680 0 4452.13752028 0 -105.15087927 0 752.92583830 0 22470
0.14350000 0.14350900 11237.08101195 0 284.39819913 0 4380.07883036 0 -108.21647385 0 525.58332896 0 22519
0.14450000 0.14449900 10976.38312409 0 208.41326283 0 4206.79694695 0 -77.59474161 0 0.44874139 0 22218
0.14550000 0.14550500 10782.08596818 0 234.12209383 0 4150.74883871 0 259.42899943 0 -106.61984461 0 23559
0.14650000 0.14650700 10445.42085974 0 129.59491861 0 3915.82732304 0 538.31096634 0 -111.16503395 0 23044
0.14750000 0.14750500 10385.30920830 0 67.15176773 0 3430.23944579 0 415.89423591 0 -277.01628017 0 23649
0.14850000 0.14849900 10481.29519215 0 -45.67156830 0 3526.05934477 0 689.41387590 0 200.96933885 0 23640
0.14950000 0.14949500 10355.36964199 0 84.91753435 0 3347.24129895 0 635.13180348 0 690.56871938 0 24457
0.15050000 0.15050000 10206.26971598 0 167.76565119 0 3186.75902303 0 410.32042759 0 950.54358443 0 24591
0.15150000 0.15149900 10094.00741465 0 161.92499985 0 3195.38436406 0 121.11241056 0 886.76699347 0 25020
0.15250000 0.15250500 9983.89314432 0 101.47065995 0 3220.50746908 0 37.85063167 0 1131.81304296 0 25297
0.15350000 0.15350100 9934.61022656 0 282.86468214 0 3406.99863600 0 -349.32520463 0 917.93337337 0 25452
0.15450000 0.15450400 9585.35588480 0 283.11934561 0 3311.87629348 0 -255.52268323 0 812.44290589 0 26061
0.15550000 0.15549900 9568.10520273 0 218.39939258 0 3560.42784101 0 -344.24300754 0 650.16137719 0 26128
0.15650000 0.15649500 9414.62063610 0 71.47119236 0 3436.89391301 0 99.64859818 0 666.39008368 0 26331
0.15750000 0.15749700 9146.65930316 0 80.79763301 0 3452.64983122 0 390.43453222 0 291.96834761 0 27345
0.15850000 0.15849900 9214.02332736 0 16.32005317 0 3316.54881455 0 502.58057415 0 22.75218810 0 26980
0.15950000 0.15949700 9147.43436590 0 125.45940529 0 3147.72907804 0 227.54956181 0 81.10300772 0 27777
0.16050000 0.16050000 9052.78813335 0 247.29483866 0 3065.35098139 0 -102.10975454 0 152.51241652 0 28224
0.16150000 0.16150500 8891.19862495 0 189.50726820 0 3111.30112939 0 -343.00179993 0 516.26264592 0 28075
0.16250000 0.16249700 8740.90288786 0 173.47675633 0 3037.61480772 0 -206.90078326 0 215.45636865 0 28590
0.16350000 0.16349900 8799.17653338 0 -58.39378024 0 3266.30260453 0 -42.78888854 0 185.97962551 0 29163
0.16450000 0.16449100 8618.54262629 0 93.60310883 0 3248.81940364 0 273.68572487 0 126.29315135 0 28996
0.16550000 0.16550500 8722.27923751 0 119.71508317 0 3000.52251958 0 366.73643541 0 -12.80879752 0 30777
0.16650000 0.16650700 8600.94870215 0 46.82884769 0 2837.77041707 0 207.95486858 0 157.70755132 0 29211
0.16750000 0.16749900 8654.39481405 0 150.64119362 0 2809.00451719 0 173.16340954 0 -105.32781503 0 30922
0.16850000 0.16850800 8330.57360240 0 157.82270350 0 2653.28334094 0 -20.20444616 0 -45.50415475 0 30867
0.16950000 0.16949900 8245.21705038 0 166.44915177 0 2679.35866589 0 -16.53939592 0 -221.32137910 0 30852
0.17050000 0.17049200 8070.11930569 0 116.45871244 0 2706.95089934 0 -2.00185418 0 -171.25786243 0 31257
0.17150000 0.17149500 8056.88787754 0 85.67565643 0 2618.39444544 0 32.28158446 0 -87.06855489 0 32608
0.17250000 0.17250900 8082.65317739 0 14.70205434 0 2632.91026328 0 111.43519867 0 -232.53985861 0 32361
0.17350000 0.17350400 8025.66392155 0 35.59143451 0 2612.99115093 0 44.01525924 0 98.37040900 0 32508
0.17450000 0.17449800 8059.02483623 0 140.56869974 0 2643.38468255 0 187.20754634 0 62.89002991 0 32791
0.17550000 0.17549800 7872.29007816 0 191.22458578 0 2601.61987334 0 90.01822222 0 124.80392366 0 33633
0.17650000 0.17650100 7871.80289587 0 19.27204569 0 2524.80008375 0 108.28777962 0 201.38676550 0 33984
0.17750000 0.17750300 7771.83087508 0 -41.86944269 0 2617.27614063 0 171.31100959 0 478.53148464 0 34069
0.17850000 0.17849800 7711.73029596 0 144.79168442 0 2369.46643887 0 304.90968086 0 -36.32409025 0 34536
