### header ###
fiducial parameters:
Omega_m = 0.31
Omega_nu = 0
Omega_de = 0.69
Omega_k = 0
H_0 = 100
w_de = -1
zeff = 0
beta = 0
fgrowth = 0
b_1 = 2
gamma = 0.55
Lx = 3500 Ly = 3500 Lz = 3500
nx = 700 ny = 700 nz = 700
xoffset = -685.467585 yoffset = -31.7331281 zoffset = 572.489161
bins = 400 dk = 0.001
kx_ny = 0.628318531 ky_ny = 0.628318531 kz_ny = 0.628318531
############################
A(data) = 8.00612567 (not used)
A(ran) = 7.9984684 (used)
Ngal = 475299
weighted Ngal = 0
Nran = 23820508
weighted Nran = 0
SN(data) = 3495.7102
SN(ran) = 69.6695605
SN(data+ran) = 3565.37976
############################
13 columns: k_central k_mean P_0(k) sigma^{lin}_{P_0(k)} P^img_1(k) sigma^{lin}_{P_1(k)} P_2(k) sigma^{lin}_{P_2(k)} P^img_3(k) sigma^{lin}_{P_3(k)} P_4(k) sigma^{lin}_{P_4(k)} N_modes
### header ###
0.00050000 0 0 0 0 0 0 0 0 0 0 0 0
0.00150000 0.00179520 28300.97295971 0 -14478.83627235 0 28621.07387022 0 -24693.94170354 0 21484.62835485 0 3
0.00250000 0.00253879 40143.15652299 0 1037.47019211 0 2279.11626835 0 38738.18922676 0 -17724.02395345 0 6
0.00350000 0.00331552 46173.25534248 0 -14811.33818665 0 -2219.22606340 0 16794.39156167 0 81472.38048056 0 7
0.00450000 0.00420575 58216.18015473 0 -36593.14773964 0 -21164.08455135 0 10651.65398181 0 -3448.66379429 0 24
0.00550000 0.00557378 91217.35499995 0 -28214.49810287 0 10895.09011527 0 4483.26182534 0 -26753.61556630 0 45
0.00650000 0.00659388 125096.23303355 0 6098.39291896 0 34473.24042986 0 -11713.19097915 0 17983.33780070 0 40
0.00750000 0.00754703 102419.55818872 0 32937.17680777 0 16244.65063443 0 -14490.68365991 0 39611.79565495 0 57
0.00850000 0.00846663 72796.32819917 0 23086.68303286 0 21922.98169442 0 -14624.32662047 0 30535.47883136 0 75
0.00950000 0.00948925 78306.02775218 0 4452.42540072 0 35820.74236029 0 10680.81848538 0 14085.32584830 0 112
0.01050000 0.01054430 67735.50069431 0 7553.46248501 0 29534.54066775 0 20367.20933416 0 23704.96165074 0 105
0.01150000 0.01145670 71323.81972154 0 -3803.38786450 0 40132.96998416 0 6316.98275553 0 -21447.31462021 0 144
0.01250000 0.01249090 72638.54757050 0 -4379.82416689 0 7651.65186150 0 17638.65632910 0 -8050.42163984 0 169
0.01350000 0.01339930 84818.32631751 0 -4218.94328727 0 8258.54812946 0 7744.98048739 0 -30223.79288771 0 180
0.01450000 0.01448870 79217.50153125 0 -1343.77055697 0 -2405.73937497 0 -8584.17413005 0 -20758.94818624 0 267
0.01550000 0.01550050 81117.51247013 0 7250.11400195 0 8451.26194293 0 -10505.64323443 0 -15506.56946202 0 238
0.01650000 0.01653350 72941.92927053 0 4135.64618766 0 10780.18152831 0 -19843.70981673 0 -5268.65504170 0 315
0.01750000 0.01747870 71524.67169375 0 7721.62895435 0 22819.17566524 0 -7018.38131582 0 -8895.63862720 0 297
0.01850000 0.01844180 66726.25828709 0 5279.76058350 0 27439.32464232 0 -6852.04178007 0 -4880.69185238 0 388
0.01950000 0.01947590 68342.59626412 0 -2609.45907931 0 38875.59677776 0 5600.72513534 0 -4447.18819108 0 399
0.02050000 0.02045430 71151.97724035 0 -2874.22051037 0 34779.50093435 0 7239.05274946 0 -2731.18821837 0 462
0.02150000 0.02154770 75757.51074867 0 28.12281925 0 35030.39981474 0 4274.58171949 0 -967.28493955 0 571
0.02250000 0.02255340 74694.56756608 0 5243.32156252 0 40222.43436870 0 5228.59537051 0 1317.27448367 0 510
0.02350000 0.02348930 67373.54639599 0 2445.23435760 0 23719.79856599 0 11806.97357036 0 1333.56187348 0 555
0.02450000 0.02439640 66590.73303131 0 633.03138346 0 23957.07848686 0 11418.11352273 0 -7785.23946044 0 592
0.02550000 0.02547300 66732.79095873 0 969.27685079 0 16641.15058618 0 5743.17059413 0 -8901.92770770 0 837
0.02650000 0.02652900 64747.08022576 0 1261.08243522 0 20732.70677642 0 4422.80693183 0 -678.69032932 0 723
0.02750000 0.02749970 63186.87893556 0 2097.93981734 0 11953.57115096 0 -2793.38146687 0 7534.56202654 0 826
0.02850000 0.02848090 65083.90034674 0 1051.02161046 0 17130.32589667 0 787.03967106 0 4054.98430136 0 831
0.02950000 0.02946900 64909.06833785 0 -232.75687618 0 21058.12240284 0 -1497.22190663 0 -2613.92122621 0 996
0.03050000 0.03053250 66276.05755996 0 -1780.59591571 0 22346.83028848 0 -3255.79496827 0 -1406.14096267 0 1041
0.03150000 0.03150510 66336.84462322 0 -274.21498199 0 30409.47577492 0 -6098.90224591 0 -6786.53790644 0 1036
0.03250000 0.03246190 64251.26152038 0 4294.86621855 0 31867.14733730 0 -6361.58207990 0 -3078.84814535 0 1059
0.03350000 0.03345080 65273.79071738 0 6812.96754579 0 34956.10451520 0 -3473.24435539 0 -2796.78067059 0 1302
0.03450000 0.03451200 56909.86727262 0 3966.50535373 0 31588.12475187 0 -310.91198814 0 -5250.69573085 0 1339
0.03550000 0.03553350 56010.68377410 0 2582.14365398 0 35018.99532017 0 6698.41327321 0 -6091.91560895 0 1365
0.03650000 0.03647120 51921.56349533 0 2540.88817171 0 33030.07361300 0 3226.13221008 0 -7796.21213433 0 1308
0.03750000 0.03744890 50181.99054307 0 4051.49651904 0 30095.57536631 0 8755.28583780 0 -6062.36357400 0 1579
0.03850000 0.03847530 46243.45388183 0 1318.81353682 0 27182.66815302 0 7309.37308438 0 -2328.49883704 0 1662
0.03950000 0.03950240 45271.85737899 0 828.24864957 0 20999.43908130 0 8470.00738884 0 2380.08479837 0 1683
0.04050000 0.04050350 45412.69735069 0 -78.24092248 0 21713.49330885 0 6311.96699239 0 -43.01077793 0 1822
0.04150000 0.04152450 43374.72524457 0 1437.51993120 0 17198.86358730 0 -201.32365325 0 5158.45219278 0 1887
0.04250000 0.04250150 44992.17045407 0 -499.23341035 0 16757.18855028 0 2953.91910442 0 7529.31374458 0 1920
0.04350000 0.04349210 45276.83992516 0 -2204.73239021 0 14860.94220184 0 316.85782657 0 5005.45480844 0 2005
0.04450000 0.04448520 46960.27619059 0 -2053.86089223 0 14831.82198757 0 2522.29773834 0 269.67975775 0 2151
0.04550000 0.04548030 48977.21087955 0 -1262.54398210 0 13671.66379307 0 433.43612012 0 -2692.55687707 0 2274
0.04650000 0.04648670 47661.92941434 0 2406.60301631 0 14893.82700655 0 -3188.19842526 0 -4120.74283846 0 2311
0.04750000 0.04749250 45824.80928044 0 4365.89518227 0 15005.10387098 0 -4586.31195243 0 -3765.48729665 0 2568
0.04850000 0.04851840 42252.65584744 0 2218.57279624 0 17593.92413683 0 -1084.09464469 0 -1373.44438748 0 2493
0.04950000 0.04949480 40687.13984134 0 1311.73832127 0 17137.41218456 0 2476.90120658 0 -3385.35224098 0 2644
0.05050000 0.05050630 40974.35594713 0 145.41727077 0 16491.45275464 0 4484.20297295 0 -4261.09562786 0 2829
0.05150000 0.05149060 39929.90354699 0 525.88892512 0 17548.30615858 0 5121.49277254 0 1234.77459145 0 2784
0.05250000 0.05249300 39085.74950281 0 1373.01256681 0 14890.28386261 0 2275.24095466 0 1754.21056567 0 3055
0.05350000 0.05348950 37246.52562719 0 1693.26848987 0 16202.02218388 0 2794.46655470 0 6729.38256573 0 3009
0.05450000 0.05448610 36712.28595469 0 1049.47812838 0 16080.66950386 0 318.41791713 0 5472.30831209 0 3336
0.05550000 0.05550870 35302.55755878 0 1069.27876685 0 16163.60121676 0 1581.22763503 0 5519.35462025 0 3349
0.05650000 0.05647670 35339.31767718 0 548.61376458 0 15741.52419467 0 -398.44868092 0 8297.56700212 0 3324
0.05750000 0.05747970 35097.27665664 0 15.05703307 0 17141.28749824 0 290.06612220 0 7885.42185539 0 3639
0.05850000 0.05849280 36448.76462401 0 -82.14458132 0 16992.91834567 0 69.39280627 0 8464.58194968 0 3846
0.05950000 0.05951020 35425.34964102 0 841.89418268 0 18555.77699382 0 2677.42100905 0 6481.89396138 0 3787
0.06050000 0.06049470 34777.61863913 0 1665.52124387 0 17998.28543921 0 1870.34818069 0 4414.49161590 0 3930
0.06150000 0.06148310 33015.56886749 0 1687.88734000 0 15754.92170770 0 2262.08703277 0 5759.73479206 0 4083
0.06250000 0.06249100 31426.24736302 0 1046.56167802 0 14216.64362065 0 2779.36390365 0 5900.37546191 0 4303
0.06350000 0.06350600 30830.00267154 0 -270.06618188 0 12461.90158339 0 3739.89915399 0 5408.32134697 0 4470
0.06450000 0.06451750 30486.64987891 0 -231.55110000 0 10284.53998012 0 3956.24130863 0 5374.08571863 0 4479
0.06550000 0.06550280 30307.27821685 0 -152.02301976 0 7998.96854641 0 1451.42677118 0 3649.65970672 0 4636
0.06650000 0.06648880 30724.59413926 0 717.76456360 0 9806.43699446 0 50.73261726 0 4204.92572405 0 4653
0.06750000 0.06749660 29770.38118639 0 1079.66903646 0 8046.84527893 0 -1751.57535236 0 4455.24884355 0 5220
0.06850000 0.06852730 29803.37671435 0 131.24912394 0 10039.65337211 0 -880.30629194 0 4341.97896066 0 5029
0.06950000 0.06949320 28439.59846644 0 1025.42460994 0 8833.50074032 0 -284.53328149 0 5925.17746950 0 5040
0.07050000 0.07048030 29305.45426726 0 -251.55325479 0 11384.56437853 0 908.04468007 0 1587.33955833 0 5475
0.07150000 0.07148790 28692.71181179 0 425.83829083 0 9523.20692559 0 1692.67058433 0 1593.91651927 0 5509
0.07250000 0.07249820 27202.15544471 0 708.00320204 0 8151.87735216 0 1307.71906736 0 372.94690240 0 5916
0.07350000 0.07351270 27394.14955706 0 193.18106558 0 7789.09262947 0 1034.73311342 0 1187.93865747 0 5721
0.07450000 0.07449140 26276.84125961 0 595.06548889 0 5617.09003142 0 342.67184465 0 155.45986938 0 6028
0.07550000 0.07549160 25911.12237085 0 1440.35444636 0 6572.37699980 0 -409.19990832 0 366.23153740 0 6183
0.07650000 0.07648840 24835.66746122 0 977.39397211 0 6672.65904568 0 -513.89538288 0 3314.35649424 0 6330
0.07750000 0.07749960 24611.23143714 0 49.13731670 0 6854.54412548 0 589.38317179 0 2717.22601677 0 6583
0.07850000 0.07848650 24655.18856667 0 -408.41488049 0 6922.99323751 0 2499.83199128 0 4581.67264833 0 6549
0.07950000 0.07947320 25256.19435783 0 -1178.47181975 0 6775.67595580 0 1695.62689505 0 1836.77689184 0 6828
0.08050000 0.08048110 25750.35221448 0 -137.39980037 0 6437.41643259 0 1649.74318100 0 3490.76077325 0 7147
0.08150000 0.08149960 25395.48420405 0 1120.68535652 0 6719.79393244 0 -2475.35108111 0 1410.42595237 0 7386
0.08250000 0.08250610 24414.58694836 0 1327.27279299 0 6599.62599118 0 -1141.19130208 0 2607.28890365 0 7227
0.08350000 0.08350160 23566.55759050 0 1101.40290285 0 7159.18807054 0 -1855.63306101 0 2445.03505575 0 7798
0.08450000 0.08449610 22344.61582352 0 1153.59230588 0 7113.19363324 0 -464.98670969 0 927.12672467 0 7371
0.08550000 0.08548940 22171.55538660 0 563.30341792 0 8083.86006079 0 963.14942623 0 1178.35002417 0 8256
0.08650000 0.08650700 21730.43396583 0 -150.54486440 0 7352.01260726 0 1658.61211318 0 802.08142433 0 8037
0.08750000 0.08749060 21768.41203996 0 -16.79118059 0 7175.48653267 0 1240.99723800 0 331.12562433 0 8155
0.08850000 0.08849210 21273.14695082 0 718.94598066 0 6701.76818763 0 256.19920228 0 -122.97809730 0 8718
0.08950000 0.08949900 20828.92527909 0 459.33982403 0 6328.17687593 0 -46.97777046 0 732.49297007 0 8571
0.09050000 0.09049190 20061.94533891 0 900.21765366 0 6205.01940697 0 -645.44567405 0 781.21009204 0 8932
0.09150000 0.09150830 20095.16231336 0 303.74819398 0 6038.30341217 0 485.70524389 0 448.71703560 0 9285
0.09250000 0.09250820 19350.10557631 0 86.40831216 0 6257.42472033 0 779.64446532 0 353.40646356 0 9204
0.09350000 0.09350330 19132.09150064 0 620.43993568 0 6234.01782567 0 468.81219791 0 310.93413279 0 9349
0.09450000 0.09448040 18921.60660583 0 638.98054359 0 6685.80189524 0 369.00847646 0 936.99216608 0 9564
0.09550000 0.09549270 18285.50154500 0 648.48613444 0 6555.13739006 0 -293.25273729 0 810.45210189 0 10155
0.09650000 0.09649430 17995.18518826 0 342.73163520 0 6746.20142713 0 -95.27912664 0 1346.22861308 0 9913
0.09750000 0.09749140 17838.84396182 0 -37.71499569 0 7063.63390735 0 -81.06879424 0 1111.93821991 0 10476
0.09850000 0.09850240 17991.86349081 0 -177.26570588 0 7238.67629041 0 322.99743068 0 616.26345476 0 10575
0.09950000 0.09950330 17621.27277913 0 231.86555403 0 6486.55541013 0 796.72684805 0 -32.67276969 0 10882
0.10050000 0.10051200 17387.97889520 0 659.52745675 0 6188.68772786 0 606.55966929 0 -479.60882184 0 10875
0.10150000 0.10150300 16795.16662441 0 799.26573213 0 5937.78884747 0 122.82087028 0 -425.95344301 0 11118
0.10250000 0.10250800 15957.98814487 0 603.29997686 0 5666.86013148 0 772.10310488 0 371.36798888 0 11575
0.10350000 0.10349800 15730.67331635 0 -75.65287728 0 5068.34561341 0 260.56834165 0 86.88796527 0 11364
0.10450000 0.10450100 15861.21602596 0 -378.17636141 0 5375.95694152 0 597.85350028 0 173.11912024 0 12093
0.10550000 0.10551000 16281.18930633 0 -238.81122339 0 5396.28572989 0 341.05196353 0 -224.49470740 0 12067
0.10650000 0.10649700 16414.72154364 0 129.63477898 0 5096.02642546 0 -223.86137042 0 172.94971367 0 12054
0.10750000 0.10749900 16226.04912873 0 253.89172979 0 5729.51841763 0 -137.00119668 0 569.83498233 0 12807
0.10850000 0.10850100 15990.65150309 0 311.06700069 0 4992.78806885 0 429.89519064 0 281.72312545 0 12736
0.10950000 0.10950300 15785.25987770 0 350.42357926 0 5281.84218056 0 435.14790154 0 381.67743052 0 12933
0.11050000 0.11050200 15610.31714557 0 64.82093263 0 4490.25953463 0 364.03589539 0 34.92576635 0 13428
0.11150000 0.11150900 15190.45458845 0 461.40702708 0 4911.10752866 0 38.54519861 0 282.79049757 0 13453
0.11250000 0.11250000 14965.79711788 0 208.39776157 0 4382.42616322 0 65.16594627 0 498.59453721 0 13668
0.11350000 0.11349100 14870.46440119 0 2.51342881 0 4449.04834165 0 795.92964066 0 606.37586869 0 13791
0.11450000 0.11448600 14964.35771565 0 -27.82563806 0 4225.92992423 0 561.58499310 0 496.96579823 0 14205
0.11550000 0.11549300 15003.00012927 0 41.66272238 0 4381.93898093 0 495.38356301 0 -297.00071924 0 14776
0.11650000 0.11649800 14557.33905532 0 543.38762726 0 3909.94791856 0 -471.90691270 0 609.97880319 0 14553
0.11750000 0.11747300 14300.23967303 0 696.09713116 0 4561.57637879 0 143.76970884 0 942.93689728 0 14568
0.11850000 0.11849100 13558.17246368 0 288.96110419 0 3994.82836062 0 152.43380301 0 1522.99827880 0 16015
0.11950000 0.11950300 13686.50070833 0 116.48860772 0 4369.09508414 0 454.58758222 0 1187.79471725 0 15270
0.12050000 0.12050700 13577.21686237 0 -79.07411492 0 4293.05035728 0 433.41065377 0 580.20642898 0 15999
0.12150000 0.12150000 13635.90018391 0 227.32368639 0 4217.97999501 0 -314.53263836 0 682.53574773 0 15670
0.12250000 0.12250700 13250.25111047 0 402.23763048 0 4232.45152355 0 -582.71431056 0 455.00057994 0 16887
0.12350000 0.12352200 13243.60771558 0 159.97294898 0 4778.43893268 0 -427.15811195 0 710.87979203 0 16407
0.12450000 0.12449800 13258.99824708 0 -73.57736999 0 4270.24136816 0 292.56846761 0 59.07738558 0 16306
0.12550000 0.12549900 13189.35332397 0 42.83162771 0 4600.35166030 0 423.43448911 0 292.20972429 0 17523
0.12650000 0.12650100 13059.69640035 0 172.56439676 0 4314.60817371 0 695.17480651 0 193.13013288 0 17154
0.12750000 0.12750600 12969.12478333 0 171.17814170 0 3768.12250996 0 795.48121150 0 324.58409483 0 18007
0.12850000 0.12850300 12751.44287739 0 194.01038270 0 3708.61983638 0 494.51770721 0 894.95719214 0 17496
0.12950000 0.12949900 12626.87922318 0 314.99878323 0 3328.91660138 0 388.86558379 0 663.07613686 0 18405
0.13050000 0.13049000 12392.36738353 0 27.29006970 0 3488.91169501 0 354.06637412 0 1624.45399112 0 18100
0.13150000 0.13148800 12257.61719048 0 116.59047311 0 3360.98205405 0 78.27347512 0 1490.35706524 0 19059
0.13250000 0.13249300 12349.62820973 0 51.17606387 0 3351.22733589 0 193.56416801 0 1662.29919735 0 18957
0.13350000 0.13349100 12146.67249580 0 -40.36117060 0 3216.45499819 0 200.21199184 0 1401.26913975 0 19468
0.13450000 0.13450700 12103.71187550 0 224.66965013 0 3123.65784389 0 129.56945226 0 1593.23003513 0 19953
0.13550000 0.13551000 12017.23701867 0 231.20010731 0 3013.20033150 0 -94.40020549 0 1338.48905803 0 19956
0.13650000 0.13649900 11950.69234651 0 25.08413043 0 3173.29507605 0 15.34380629 0 1280.65830550 0 19723
0.13750000 0.13749600 11736.22141477 0 232.53653691 0 3071.60684492 0 -98.63780565 0 1248.37140633 0 20946
0.13850000 0.13851100 11632.58445447 0 231.64410753 0 3291.94610881 0 -4.84073183 0 1131.40336694 0 20955
0.13950000 0.13949800 11519.42529482 0 39.34395612 0 3178.13368200 0 95.68359866 0 963.29558092 0 20506
0.14050000 0.14048300 11453.98785515 0 177.12951629 0 3202.54815822 0 432.64777059 0 579.72589009 0 21447
0.14150000 0.14148400 11199.98872381 0 142.98468101 0 2724.10193048 0 -220.61607201 0 819.27120861 0 21771
0.14250000 0.14249400 11118.16424340 0 239.74019144 0 3053.78040196 0 36.16630962 0 359.27479572 0 22470
0.14350000 0.14350900 10921.51975462 0 163.03444679 0 2923.39270489 0 -261.19503524 0 586.37039221 0 22519
0.14450000 0.14449900 10889.24392777 0 78.57431018 0 2907.11638741 0 113.87111013 0 257.01744709 0 22218
0.14550000 0.14550500 10616.96438815 0 171.91666576 0 2713.20676286 0 -16.77136113 0 -247.44763674 0 23559
0.14650000 0.14650700 10716.06169528 0 108.91989864 0 2501.80286510 0 290.96851668 0 -113.63526961 0 23044
0.14750000 0.14750500 10597.75390459 0 66.25734533 0 2556.24548623 0 -123.19732933 0 -239.77230118 0 23649
0.14850000 0.14849900 10614.19630695 0 -73.43044024 0 2413.71144884 0 205.15467763 0 -138.52364134 0 23640
0.14950000 0.14949500 10675.16052740 0 -64.80532065 0 2480.13432543 0 202.25594300 0 -461.41367047 0 24457
0.15050000 0.15050000 10708.08962141 0 -72.33162273 0 2617.74117827 0 -54.23113973 0 -255.05210943 0 24591
0.15150000 0.15149900 10716.81461337 0 298.97712922 0 2595.65189026 0 -68.66181139 0 -387.17151810 0 25020
0.15250000 0.15250500 10362.16804943 0 528.16096617 0 2474.95247741 0 -141.55635111 0 55.64706863 0 25297
0.15350000 0.15350100 10021.78263985 0 185.66960042 0 2540.86602706 0 29.58359107 0 345.91271412 0 25452
0.15450000 0.15450400 10006.12637256 0 221.07889519 0 2654.30199483 0 230.00208176 0 -66.35943217 0 26061
0.15550000 0.15549900 9677.17867452 0 283.27767986 0 2694.46131694 0 134.39144972 0 -235.84716203 0 26128
0.15650000 0.15649500 9491.19683454 0 190.90791729 0 2637.93709874 0 -49.30030132 0 -357.60176744 0 26331
0.15750000 0.15749700 9394.84546397 0 127.61850863 0 2735.26283390 0 -119.74940738 0 171.50920421 0 27345
0.15850000 0.15849900 9425.88119044 0 -221.95693055 0 2488.38320742 0 322.84795429 0 -10.76118142 0 26980
0.15950000 0.15949700 9593.29474170 0 -126.10270736 0 2360.47571111 0 342.62755535 0 8.77242580 0 27777
0.16050000 0.16050000 9695.02726213 0 39.87299180 0 2425.28202828 0 295.16492778 0 -153.25758398 0 28224
0.16150000 0.16150500 9419.89106271 0 296.16143702 0 2408.26386503 0 67.76705682 0 14.78819703 0 28075
0.16250000 0.16249700 9190.52785409 0 466.73281531 0 2285.67108464 0 -188.02911284 0 166.47018918 0 28590
0.16350000 0.16349900 8874.25796797 0 376.82664502 0 2568.05965681 0 -351.91502141 0 165.74052298 0 29163
0.16450000 0.16449100 8569.64723989 0 216.87141176 0 2661.21112551 0 -112.45495979 0 -173.36935478 0 28996
0.16550000 0.16550500 8487.54595136 0 97.05224873 0 2787.36919450 0 -83.12702870 0 -79.88040162 0 30777
0.16650000 0.16650700 8547.24792678 0 -83.82812831 0 2803.80052453 0 13.40327064 0 -157.29898254 0 29211
0.16750000 0.16749900 8503.27972492 0 -7.71345758 0 2756.30025105 0 209.56035568 0 -261.08431199 0 30922
0.16850000 0.16850800 8491.99702593 0 118.84258398 0 2599.57149325 0 481.30953094 0 -86.25329961 0 30867
0.16950000 0.16949900 8419.41793675 0 114.07041198 0 2451.53451042 0 243.10507095 0 146.88546104 0 30852
0.17050000 0.17049200 8377.84135705 0 181.00925890 0 2426.02387404 0 511.77060375 0 220.15324883 0 31257
0.17150000 0.17149500 8171.50858406 0 64.54954995 0 2207.41189282 0 170.09083940 0 840.02960318 0 32608
0.17250000 0.17250900 8152.18737725 0 56.74433602 0 2086.80105857 0 11.63546326 0 467.15688535 0 32361
0.17350000 0.17350400 8192.30241007 0 31.79550940 0 2244.07236029 0 -87.57522447 0 673.52287532 0 32508
0.17450000 0.17449800 8161.06738175 0 117.46186507 0 2541.95111489 0 -200.96380269 0 552.98954735 0 32791
0.17550000 0.17549800 8067.72768353 0 169.45971688 0 2454.16972373 0 -357.80771268 0 816.14438408 0 33633
0.17650000 0.17650100 7916.38007559 0 145.06849254 0 2619.57918419 0 -122.24178770 0 421.95301205 0 33984
0.17750000 0.17750300 7888.16779195 0 133.34622226 0 2771.03751539 0 60.31903608 0 411.16303151 0 34069
0.17850000 0.17849800 7791.83856603 0 105.44651035 0 2644.44762574 0 185.88551075 0 617.85233337 0 34536
