### header ###
fiducial parameters:
Omega_m = 0.31
Omega_nu = 0
Omega_de = 0.69
Omega_k = 0
H_0 = 100
w_de = -1
zeff = 0
beta = 0
fgrowth = 0
b_1 = 2
gamma = 0.55
Lx = 3500 Ly = 3500 Lz = 3500
nx = 700 ny = 700 nz = 700
xoffset = -685.467585 yoffset = -31.7331281 zoffset = 572.489161
bins = 400 dk = 0.001
kx_ny = 0.628318531 ky_ny = 0.628318531 kz_ny = 0.628318531
############################
A(data) = 8.04603906 (not used)
A(ran) = 8.03862833 (used)
Ngal = 477291
weighted Ngal = 0
Nran = 23820508
weighted Nran = 0
SN(data) = 3494.99387
SN(ran) = 70.0193681
SN(data+ran) = 3565.01324
############################
13 columns: k_central k_mean P_0(k) sigma^{lin}_{P_0(k)} P^img_1(k) sigma^{lin}_{P_1(k)} P_2(k) sigma^{lin}_{P_2(k)} P^img_3(k) sigma^{lin}_{P_3(k)} P_4(k) sigma^{lin}_{P_4(k)} N_modes
### header ###
0.00050000 0 0 0 0 0 0 0 0 0 0 0 0
0.00150000 0.00179520 46064.96800575 0 -57115.92323750 0 8587.72834632 0 -87498.38253986 0 -114254.21257113 0 3
0.00250000 0.00253879 69818.53716244 0 -38850.57332367 0 -33628.86493919 0 59517.73193716 0 106943.93155611 0 6
0.00350000 0.00331552 100139.21289232 0 -40403.35615623 0 -16956.04750403 0 -66201.20864419 0 -74775.28481401 0 7
0.00450000 0.00420575 104665.46855493 0 -19229.08506605 0 -51479.33484207 0 -22614.11620960 0 28612.65890335 0 24
0.00550000 0.00557378 113447.04009185 0 15204.07354797 0 -24103.56534421 0 -53305.93626740 0 -20255.82174648 0 45
0.00650000 0.00659388 89030.01723203 0 16460.89313814 0 -13239.17878566 0 -59930.06531341 0 35304.99347024 0 40
0.00750000 0.00754703 66031.58062797 0 28980.59225708 0 4672.47678417 0 -14299.46461029 0 -2445.82119081 0 57
0.00850000 0.00846663 57900.17600440 0 4272.06830175 0 18572.27475780 0 -15345.68858240 0 12477.18139164 0 75
0.00950000 0.00948925 61721.89963881 0 -7669.22364099 0 29412.63437150 0 22869.88691291 0 8941.50019660 0 112
0.01050000 0.01054430 65941.11973420 0 -4631.98529231 0 29172.36492294 0 6103.74085185 0 14043.69390698 0 105
0.01150000 0.01145670 67117.55424618 0 10228.19291912 0 48399.23552402 0 22958.13334172 0 39608.91685050 0 144
0.01250000 0.01249090 61664.76644274 0 9098.98187249 0 37655.64802924 0 10482.88960693 0 50981.63384147 0 169
0.01350000 0.01339930 58200.01456049 0 5921.55681929 0 47868.20682572 0 44358.61202795 0 49715.73494496 0 180
0.01450000 0.01448870 61970.91622398 0 -914.40462345 0 46111.02887700 0 13507.68266251 0 45841.19632117 0 267
0.01550000 0.01550050 62241.85601229 0 -6351.60591524 0 49366.95671317 0 26052.62668203 0 52222.39856065 0 238
0.01650000 0.01653350 59951.32417706 0 4393.68671756 0 34816.26105274 0 17165.97878259 0 47582.31939890 0 315
0.01750000 0.01747870 66379.03018078 0 -8824.80896533 0 11896.21650840 0 11677.09520024 0 26136.33345766 0 297
0.01850000 0.01844180 65850.10522419 0 -8427.20178110 0 27764.85099199 0 2729.66023754 0 15350.22823558 0 388
0.01950000 0.01947590 76932.50585842 0 -3389.39363954 0 10389.09594339 0 -8650.02124575 0 7906.20460908 0 399
0.02050000 0.02045430 79395.43379108 0 5220.76723686 0 16980.07444888 0 -17683.16707487 0 -204.19470707 0 462
0.02150000 0.02154770 73869.01502760 0 8414.94471752 0 30491.85387157 0 -21401.03230247 0 727.04649350 0 571
0.02250000 0.02255340 70037.21557761 0 4800.94896904 0 40418.96813423 0 -7233.38371915 0 -4760.05887348 0 510
0.02350000 0.02348930 70240.83563102 0 574.33477513 0 45795.68906616 0 7864.43979986 0 9947.96345029 0 555
0.02450000 0.02439640 73457.56743734 0 -3153.16558953 0 54542.93639614 0 11554.74601099 0 9079.38385756 0 592
0.02550000 0.02547300 77685.97756233 0 -1400.18405192 0 52101.26732713 0 14754.75860683 0 173.54429751 0 837
0.02650000 0.02652900 76709.39851333 0 3429.15435796 0 55914.35454818 0 10172.64306551 0 19339.14397474 0 723
0.02750000 0.02749970 72507.22979815 0 4337.94863442 0 47832.00032356 0 8244.18732417 0 12579.82184271 0 826
0.02850000 0.02848090 70368.61025943 0 3937.04189739 0 43412.81404194 0 17687.26383505 0 21308.91055998 0 831
0.02950000 0.02946900 64450.78481361 0 698.23851878 0 36608.98116413 0 20012.67349346 0 2212.89269361 0 996
0.03050000 0.03053250 67796.95209705 0 -1730.83688798 0 27070.28405612 0 6297.86085057 0 -4285.47688711 0 1041
0.03150000 0.03150510 65211.34280540 0 -2199.82735032 0 19259.64468255 0 8280.28310308 0 6491.29436515 0 1036
0.03250000 0.03246190 65867.15660441 0 -72.22233888 0 15523.17794925 0 752.05223187 0 -11187.03410377 0 1059
0.03350000 0.03345080 64258.23708501 0 3798.99215155 0 12128.84605284 0 -3074.99497631 0 474.95401649 0 1302
0.03450000 0.03451200 60562.51650705 0 5536.77138719 0 13062.79665129 0 1970.53057565 0 -125.29996381 0 1339
0.03550000 0.03553350 54194.60105735 0 5350.86705348 0 9715.86537744 0 6569.49819535 0 8704.25349271 0 1365
0.03650000 0.03647120 53159.67085655 0 2801.58605956 0 13774.41496739 0 3404.87274963 0 -760.94884486 0 1308
0.03750000 0.03744890 49644.09700338 0 2656.66040001 0 11476.90756752 0 1663.09640474 0 1723.76167242 0 1579
0.03850000 0.03847530 45988.34751801 0 3418.20382871 0 14372.32050760 0 -1442.41389877 0 4195.97928560 0 1662
0.03950000 0.03950240 46203.92568223 0 1062.94096813 0 13796.11672403 0 -5274.01404692 0 6690.48548864 0 1683
0.04050000 0.04050350 45580.11090194 0 -332.79311645 0 16664.40246830 0 -3331.15321099 0 1470.95835216 0 1822
0.04150000 0.04152450 47181.94413346 0 -369.98726998 0 20108.55982639 0 1379.43451521 0 2435.13639736 0 1887
0.04250000 0.04250150 46225.73816212 0 -827.54998588 0 17186.01969051 0 1343.36088095 0 3563.20699454 0 1920
0.04350000 0.04349210 47800.33347458 0 439.70194873 0 19888.10983925 0 3735.58094731 0 1262.11216143 0 2005
0.04450000 0.04448520 45981.37195337 0 1564.96238987 0 19630.67828722 0 -112.04528377 0 2329.15210420 0 2151
0.04550000 0.04548030 46060.64979907 0 2674.26539647 0 22333.76494520 0 -621.79740270 0 4196.92043321 0 2274
0.04650000 0.04648670 43221.81643882 0 2073.74678761 0 18258.92796544 0 1655.22398179 0 7498.02335464 0 2311
0.04750000 0.04749250 41635.59518530 0 227.00258897 0 19322.20331777 0 783.48656203 0 6084.72967014 0 2568
0.04850000 0.04851840 42651.59171066 0 1186.35531502 0 21094.66107474 0 603.27561774 0 -2048.16971728 0 2493
0.04950000 0.04949480 40413.87486481 0 2031.36192820 0 18933.01110040 0 -143.92361416 0 378.11767809 0 2644
0.05050000 0.05050630 39044.56045449 0 -209.91356284 0 17186.57330675 0 361.69299146 0 -660.70333765 0 2829
0.05150000 0.05149060 41422.23148604 0 -2222.39274830 0 17899.85247157 0 2732.48368037 0 -2432.29080989 0 2784
0.05250000 0.05249300 41204.88174985 0 -487.12360870 0 16930.35971045 0 1758.78343582 0 -6139.65947356 0 3055
0.05350000 0.05348950 41305.41845921 0 2562.09167374 0 15312.36088470 0 59.97357955 0 -4418.96483512 0 3009
0.05450000 0.05448610 38731.32438537 0 1946.40397987 0 16778.44741394 0 -115.63271701 0 -1424.33279235 0 3336
0.05550000 0.05550870 37961.24419423 0 2184.65826532 0 16603.50468180 0 2953.28798190 0 648.31229894 0 3349
0.05650000 0.05647670 37122.29414272 0 322.81473732 0 18225.15737474 0 2163.27760609 0 -1716.59787826 0 3324
0.05750000 0.05747970 36059.79385313 0 168.77101828 0 17622.04784187 0 597.16590891 0 728.91550193 0 3639
0.05850000 0.05849280 36669.98967388 0 734.89455733 0 18650.66681752 0 270.81688551 0 -267.87386157 0 3846
0.05950000 0.05951020 34517.19755939 0 839.85798214 0 15962.63852130 0 -167.62281820 0 1375.10523620 0 3787
0.06050000 0.06049470 34700.22308864 0 63.34554535 0 18543.37599003 0 266.71901809 0 1446.95355195 0 3930
0.06150000 0.06148310 34048.72749632 0 603.39519885 0 16187.62816161 0 2794.92052002 0 -2381.52420059 0 4083
0.06250000 0.06249100 33748.00315424 0 1183.60937846 0 16435.20534456 0 1664.04862467 0 -2640.35086555 0 4303
0.06350000 0.06350600 32209.72506719 0 642.45282465 0 12719.99747491 0 1335.08985431 0 -2891.85872381 0 4470
0.06450000 0.06451750 31964.25162596 0 535.47977288 0 13596.59343080 0 1939.45055988 0 -1776.39950460 0 4479
0.06550000 0.06550280 31971.22719059 0 50.71102622 0 12065.06946189 0 2397.20261254 0 -929.92359392 0 4636
0.06650000 0.06648880 31682.79312907 0 -286.86511310 0 11729.13512689 0 1760.39999524 0 -2158.57186804 0 4653
0.06750000 0.06749660 31920.84811267 0 803.32484640 0 10530.63347154 0 -108.05083187 0 -1695.17292973 0 5220
0.06850000 0.06852730 30903.08001534 0 1704.00864494 0 10549.00245842 0 -919.44474571 0 -2102.05872217 0 5029
0.06950000 0.06949320 29937.90546090 0 1378.73695874 0 10585.89544471 0 -214.60269240 0 1466.04223994 0 5040
0.07050000 0.07048030 29033.51796971 0 58.78286174 0 9368.67048810 0 -151.04754794 0 167.86862381 0 5475
0.07150000 0.07148790 28862.78272101 0 460.96191962 0 10249.09746838 0 2558.26064935 0 -1212.22026580 0 5509
0.07250000 0.07249820 28068.01124552 0 115.92945532 0 8656.80858086 0 1703.08964198 0 -1401.31342905 0 5916
0.07350000 0.07351270 27997.14836668 0 739.34895360 0 10120.54777724 0 486.68957357 0 -1478.79755813 0 5721
0.07450000 0.07449140 27613.16014197 0 632.95166272 0 8925.82178465 0 54.63007559 0 511.18598499 0 6028
0.07550000 0.07549160 27113.57684616 0 578.11597406 0 8274.95731484 0 -167.55416978 0 86.00317580 0 6183
0.07650000 0.07648840 26281.82380578 0 396.34715367 0 8680.29298180 0 -611.62857959 0 1815.15264147 0 6330
0.07750000 0.07749960 26962.77178213 0 -134.77787385 0 9822.06004477 0 -314.24143621 0 -1161.64188602 0 6583
0.07850000 0.07848650 26539.69825081 0 -12.89704395 0 11459.74546405 0 -1894.46370415 0 -1071.45890761 0 6549
0.07950000 0.07947320 27310.77495118 0 166.91418941 0 11216.92938078 0 -1787.74863754 0 -2620.05529416 0 6828
0.08050000 0.08048110 26905.30641632 0 147.49665337 0 12943.65843625 0 -2324.03669013 0 -2673.42389979 0 7147
0.08150000 0.08149960 27020.12642469 0 944.63649914 0 13448.88861772 0 -1.65490288 0 -1228.39693236 0 7386
0.08250000 0.08250610 26348.58992444 0 949.15511489 0 13589.39641967 0 915.44320752 0 -1072.74661898 0 7227
0.08350000 0.08350160 25200.16839425 0 972.34499199 0 13554.07570350 0 2981.79921831 0 -151.03093946 0 7798
0.08450000 0.08449610 24304.86020941 0 813.98970967 0 12254.29549304 0 2325.80826211 0 -1090.68046349 0 7371
0.08550000 0.08548940 23683.81351033 0 910.13181330 0 12239.23713128 0 2574.38195428 0 565.18460590 0 8256
0.08650000 0.08650700 22611.90174464 0 612.10247509 0 9921.64453419 0 1154.92098486 0 2581.22465102 0 8037
0.08750000 0.08749060 22116.52593225 0 63.12332379 0 9451.25895892 0 1697.22130983 0 2263.29391618 0 8155
0.08850000 0.08849210 22261.68411063 0 -223.58677676 0 8785.03717458 0 859.75494984 0 762.73702532 0 8718
0.08950000 0.08949900 22162.80825000 0 486.21235637 0 8356.75965060 0 849.35139344 0 1218.24361050 0 8571
0.09050000 0.09049190 21746.71028331 0 648.20821909 0 7715.80491150 0 -534.12673479 0 1708.07218815 0 8932
0.09150000 0.09150830 21438.67820686 0 214.89610901 0 7949.69670097 0 545.42272057 0 1608.52091570 0 9285
0.09250000 0.09250820 21535.11815603 0 -168.26833473 0 8455.91231935 0 412.93349625 0 1552.17385470 0 9204
0.09350000 0.09350330 20896.24501399 0 507.72145456 0 8611.72207420 0 442.98157134 0 1311.59438104 0 9349
0.09450000 0.09448040 20706.68681310 0 805.07538096 0 8585.18171161 0 905.44157651 0 1699.64614896 0 9564
0.09550000 0.09549270 20094.49797387 0 433.06187554 0 8133.85160735 0 236.70415997 0 1115.00525389 0 10155
0.09650000 0.09649430 19409.56396059 0 650.71610066 0 7462.20438385 0 -395.04615551 0 564.97533896 0 9913
0.09750000 0.09749140 18754.19305457 0 688.94219487 0 8139.38776976 0 -128.85307284 0 -659.65035956 0 10476
0.09850000 0.09850240 18641.69823442 0 592.96728334 0 7872.15721026 0 -1071.47330163 0 -205.30415402 0 10575
0.09950000 0.09950330 17928.41906960 0 248.78849528 0 7877.20619038 0 32.61873675 0 -1200.38395056 0 10882
0.10050000 0.10051200 17652.71818162 0 276.00426968 0 7956.11864936 0 165.37402903 0 -1062.23012487 0 10875
0.10150000 0.10150300 17821.79258160 0 -9.76500435 0 7742.62208221 0 819.64656042 0 -1016.90002706 0 11118
0.10250000 0.10250800 17923.10435369 0 -142.20518934 0 7570.42528663 0 1141.46811020 0 -884.10852828 0 11575
0.10350000 0.10349800 17692.35710447 0 -120.95407632 0 6694.11721118 0 613.37136351 0 -317.74693425 0 11364
0.10450000 0.10450100 18013.67597070 0 116.71448315 0 7068.91540629 0 1425.44002483 0 -0.94656530 0 12093
0.10550000 0.10551000 17471.35350109 0 406.94558299 0 6128.98575244 0 464.19282400 0 896.87159710 0 12067
0.10650000 0.10649700 17436.80784765 0 626.04585373 0 6608.06310269 0 693.56710494 0 1066.65905480 0 12054
0.10750000 0.10749900 16804.46737726 0 347.06645037 0 6076.99011509 0 809.70139827 0 933.64721675 0 12807
0.10850000 0.10850100 16380.61878320 0 498.75065699 0 5921.82255508 0 -52.88828818 0 1228.05369029 0 12736
0.10950000 0.10950300 16251.62619906 0 351.98920598 0 5525.93158119 0 -206.41470820 0 386.77180717 0 12933
0.11050000 0.11050200 15702.66033456 0 269.02538335 0 5655.27847972 0 132.01422158 0 1041.04876749 0 13428
0.11150000 0.11150900 15637.33361813 0 197.76611528 0 5324.28240159 0 197.17817484 0 -97.14337397 0 13453
0.11250000 0.11250000 15534.25027406 0 -28.72360360 0 5004.12612946 0 583.32993182 0 -253.05134034 0 13668
0.11350000 0.11349100 15300.18132740 0 38.85865612 0 4254.68475179 0 836.90499311 0 -967.61268037 0 13791
0.11450000 0.11448600 14991.04201846 0 463.70121278 0 3962.39752122 0 184.87017857 0 -1175.96947434 0 14205
0.11550000 0.11549300 14701.27927796 0 591.50684369 0 4082.10042484 0 212.09481083 0 -621.18842484 0 14776
0.11650000 0.11649800 14074.36424673 0 290.86222236 0 4065.61373318 0 -264.45804936 0 -436.44114907 0 14553
0.11750000 0.11747300 13935.73874000 0 252.34381878 0 4205.10288125 0 501.72136174 0 -134.04931488 0 14568
0.11850000 0.11849100 14198.70645444 0 -220.90948862 0 4265.40276221 0 874.30509189 0 406.33881959 0 16015
0.11950000 0.11950300 14082.66849034 0 -261.25704026 0 3953.36250417 0 820.30093482 0 1112.30360663 0 15270
0.12050000 0.12050700 14311.20127460 0 66.62771460 0 3907.72238127 0 962.39761538 0 908.70459063 0 15999
0.12150000 0.12150000 14273.33392372 0 104.54068345 0 3847.40035566 0 322.31094654 0 1571.55042313 0 15670
0.12250000 0.12250700 13668.12064913 0 757.45774084 0 3823.80523147 0 -171.43280517 0 1569.71241721 0 16887
0.12350000 0.12352200 13600.24729799 0 525.14818659 0 4090.24965591 0 -708.05524197 0 2604.33259292 0 16407
0.12450000 0.12449800 13117.82610564 0 167.75125716 0 4709.60228929 0 -174.67478187 0 2460.52523817 0 16306
0.12550000 0.12549900 13241.17180412 0 -140.29078438 0 4931.70205282 0 164.72519079 0 2914.44626644 0 17523
0.12650000 0.12650100 13408.14246239 0 -245.66056352 0 4682.24257466 0 719.57821041 0 1963.58822799 0 17154
0.12750000 0.12750600 13664.24533544 0 -288.39752285 0 4534.61526785 0 291.75575897 0 1848.01530153 0 18007
0.12850000 0.12850300 13762.89974958 0 -5.15465439 0 4255.03906618 0 147.46565086 0 1545.27579634 0 17496
0.12950000 0.12949900 13695.46929143 0 372.93140115 0 4199.63315279 0 -2.76409517 0 1486.41531760 0 18405
0.13050000 0.13049000 13487.64175459 0 222.54265653 0 4078.94481227 0 -196.10526656 0 1742.39639509 0 18100
0.13150000 0.13148800 13297.19776771 0 322.51135562 0 4010.59535116 0 -50.94011262 0 928.41554328 0 19059
0.13250000 0.13249300 12859.17659788 0 259.11897434 0 3966.81537883 0 -22.12671247 0 938.21676521 0 18957
0.13350000 0.13349100 12862.83046507 0 325.27722236 0 3908.19849124 0 245.61627422 0 907.15335793 0 19468
0.13450000 0.13450700 12360.14691830 0 363.95617465 0 3629.69630507 0 298.70917896 0 852.17040734 0 19953
0.13550000 0.13551000 12300.79925728 0 327.45404142 0 3583.33648106 0 187.95935719 0 541.35917736 0 19956
0.13650000 0.13649900 11851.70576263 0 134.88859710 0 3411.48292755 0 -285.50986054 0 570.66983562 0 19723
0.13750000 0.13749600 11862.33519446 0 222.92465174 0 3352.09097722 0 1.91563399 0 322.18693650 0 20946
0.13850000 0.13851100 11773.86731916 0 66.31004960 0 3786.09289314 0 -172.94085581 0 567.72127552 0 20955
0.13950000 0.13949800 11693.70368747 0 56.95792116 0 3298.93274577 0 187.91949682 0 187.63493807 0 20506
0.14050000 0.14048300 11562.38591512 0 -28.37438247 0 3389.74795393 0 198.79141256 0 201.56613716 0 21447
0.14150000 0.14148400 11651.51812991 0 137.76075816 0 3436.86069603 0 393.33326686 0 -158.23237952 0 21771
0.14250000 0.14249400 11216.48648779 0 335.11609019 0 3487.70481160 0 125.60002381 0 -177.24023953 0 22470
0.14350000 0.14350900 11081.29340175 0 477.04890035 0 3305.84187645 0 -56.26147193 0 -84.01115384 0 22519
0.14450000 0.14449900 10657.83233906 0 307.12082412 0 3373.71522759 0 -20.91440363 0 448.30403788 0 22218
0.14550000 0.14550500 10572.24326821 0 53.02381343 0 3409.98816370 0 -205.76033380 0 229.31449039 0 23559
0.14650000 0.14650700 10693.02018733 0 -73.38316141 0 3685.26830334 0 91.89885659 0 222.71759926 0 23044
0.14750000 0.14750500 10613.11121912 0 106.96596548 0 3414.12921318 0 186.29740124 0 195.69116161 0 23649
0.14850000 0.14849900 10573.81553834 0 100.70788750 0 3672.26939400 0 5.97690737 0 482.19642415 0 23640
0.14950000 0.14949500 10466.56900014 0 78.38984525 0 3589.38197041 0 429.49658695 0 476.94592773 0 24457
0.15050000 0.15050000 10385.09883413 0 253.15874189 0 3494.41464044 0 310.30079581 0 500.73038867 0 24591
0.15150000 0.15149900 10218.87002163 0 213.54307092 0 3256.39287381 0 330.76023761 0 433.78489835 0 25020
0.15250000 0.15250500 10118.58797574 0 116.81967023 0 3189.81498468 0 -3.08490471 0 275.54033927 0 25297
0.15350000 0.15350100 9862.76191081 0 141.72907938 0 2903.07498885 0 216.34104740 0 357.14448042 0 25452
0.15450000 0.15450400 9939.81421922 0 7.27656579 0 2984.89946926 0 97.65823707 0 340.19496559 0 26061
0.15550000 0.15549900 9809.99121072 0 35.96612199 0 2766.55322384 0 265.68264849 0 252.26520527 0 26128
0.15650000 0.15649500 9826.00179241 0 171.30325897 0 2894.73752826 0 219.36268484 0 -46.84412750 0 26331
0.15750000 0.15749700 9544.82010364 0 213.88742022 0 2717.44746327 0 58.40463112 0 69.06982656 0 27345
0.15850000 0.15849900 9499.37928258 0 118.06973570 0 2843.52802598 0 -225.14243840 0 401.12707630 0 26980
0.15950000 0.15949700 9360.51018471 0 205.12588959 0 3043.39456128 0 133.19896034 0 462.87632458 0 27777
0.16050000 0.16050000 9238.65925008 0 207.67695323 0 2982.57428105 0 -4.48789006 0 532.98739256 0 28224
0.16150000 0.16150500 9123.28562547 0 103.29958657 0 3109.65135299 0 -51.29630931 0 576.39533478 0 28075
0.16250000 0.16249700 8960.47816134 0 145.04302619 0 2866.49202765 0 198.76483898 0 456.84412202 0 28590
0.16350000 0.16349900 8953.69082622 0 0.25003192 0 2672.20594406 0 235.07320653 0 416.27623111 0 29163
0.16450000 0.16449100 8988.50221545 0 -109.15939303 0 2362.18084913 0 378.40112961 0 327.50386688 0 28996
0.16550000 0.16550500 8963.53412299 0 55.64153246 0 2375.33477102 0 141.55524388 0 277.68947752 0 30777
0.16650000 0.16650700 8911.81529376 0 134.00834728 0 1936.22851336 0 230.37300464 0 475.52424122 0 29211
0.16750000 0.16749900 8788.84605432 0 41.91683224 0 2036.72093342 0 242.62896098 0 461.63622420 0 30922
0.16850000 0.16850800 8768.26260248 0 110.68549156 0 2042.76642277 0 364.68584085 0 492.45936203 0 30867
0.16950000 0.16949900 8604.51399074 0 103.36779209 0 1912.01333898 0 141.00605657 0 419.23586354 0 30852
0.17050000 0.17049200 8601.61304164 0 202.58811274 0 1953.30203823 0 -151.65652581 0 504.58577217 0 31257
0.17150000 0.17149500 8411.44586288 0 243.83141546 0 2055.63246421 0 -454.81456488 0 708.17039415 0 32608
0.17250000 0.17250900 8314.16441702 0 140.64177708 0 2185.33367713 0 -318.21640082 0 426.81597711 0 32361
0.17350000 0.17350400 8178.25162987 0 174.33707597 0 2407.47772997 0 -144.65992376 0 514.73687956 0 32508
0.17450000 0.17449800 8119.00361977 0 93.33549074 0 2442.54378267 0 220.52638618 0 223.09295107 0 32791
0.17550000 0.17549800 8077.75920982 0 25.09464914 0 2278.99447277 0 395.76253492 0 251.32959383 0 33633
0.17650000 0.17650100 8063.77486357 0 -51.79666767 0 2117.27209647 0 243.21800866 0 123.07221206 0 33984
0.17750000 0.17750300 8070.15252267 0 100.96255097 0 2053.21869740 0 11.74253264 0 192.90093576 0 34069
0.17850000 0.17849800 8005.20226528 0 178.24782109 0 2160.73097138 0 -68.24870295 0 156.03895197 0 34536
