### header ###
fiducial parameters:
Omega_m = 0.31
Omega_nu = 0
Omega_de = 0.69
Omega_k = 0
H_0 = 100
w_de = -1
zeff = 0
beta = 0
fgrowth = 0
b_1 = 2
gamma = 0.55
Lx = 3500 Ly = 3500 Lz = 3500
nx = 700 ny = 700 nz = 700
xoffset = -685.467585 yoffset = -31.7331281 zoffset = 572.489161
bins = 400 dk = 0.001
kx_ny = 0.628318531 ky_ny = 0.628318531 kz_ny = 0.628318531
############################
A(data) = 8.11051732 (not used)
A(ran) = 8.10841768 (used)
Ngal = 481435
weighted Ngal = 0
Nran = 23820508
weighted Nran = 0
SN(data) = 3488.87354
SN(ran) = 70.6272587
SN(data+ran) = 3559.50079
############################
13 columns: k_central k_mean P_0(k) sigma^{lin}_{P_0(k)} P^img_1(k) sigma^{lin}_{P_1(k)} P_2(k) sigma^{lin}_{P_2(k)} P^img_3(k) sigma^{lin}_{P_3(k)} P_4(k) sigma^{lin}_{P_4(k)} N_modes
### header ###
0.00050000 0 0 0 0 0 0 0 0 0 0 0 0
0.00150000 0.00179520 5884.53096509 0 -6415.09462575 0 20525.76502556 0 -43205.65084458 0 7842.26193325 0 3
0.00250000 0.00253879 14821.85689523 0 -9953.63248059 0 -5955.54885648 0 1943.73554959 0 -3793.82137586 0 6
0.00350000 0.00331552 20963.23257914 0 -11784.38602773 0 -6164.82686788 0 2501.00565771 0 11896.65940139 0 7
0.00450000 0.00420575 31684.78614753 0 -15619.95006816 0 -3150.37536367 0 -20168.57182691 0 3879.60974856 0 24
0.00550000 0.00557378 47060.37000695 0 7862.70144487 0 31479.94813839 0 -22222.82025051 0 8330.44073451 0 45
0.00650000 0.00659388 50530.99022135 0 11984.68438370 0 26391.43982148 0 9802.61704239 0 59600.11003381 0 40
0.00750000 0.00754703 37461.77162166 0 -3936.42184720 0 21221.77136366 0 47332.74919749 0 28583.42796583 0 57
0.00850000 0.00846663 55163.98309522 0 -25107.82520526 0 29695.75371711 0 26026.93888845 0 -8350.22697896 0 75
0.00950000 0.00948925 85452.99197611 0 -23801.73376965 0 30077.52747686 0 33395.57105526 0 -34944.36785090 0 112
0.01050000 0.01054430 90011.57882720 0 44.63719172 0 29023.99577037 0 -9633.06653244 0 8023.50481821 0 105
0.01150000 0.01145670 87365.95753503 0 17152.24909981 0 26845.73730879 0 -23094.21221374 0 23036.08250844 0 144
0.01250000 0.01249090 82613.82644612 0 7992.91198473 0 36233.74007603 0 -9182.50041860 0 27393.81738732 0 169
0.01350000 0.01339930 68816.49176635 0 -388.56663102 0 27452.16853911 0 4428.06628612 0 -1207.53667240 0 180
0.01450000 0.01448870 81824.25896330 0 -2741.25296163 0 29119.66065680 0 3474.61732366 0 -9128.01350817 0 267
0.01550000 0.01550050 75138.89996105 0 932.46801416 0 42631.32935624 0 9217.20108458 0 -1217.11423336 0 238
0.01650000 0.01653350 83047.75085576 0 3988.16282108 0 22495.86378054 0 3858.29552328 0 11701.78648459 0 315
0.01750000 0.01747870 77717.31224157 0 -2616.06925723 0 29936.79822841 0 993.61935690 0 -1881.33192691 0 297
0.01850000 0.01844180 80036.96429107 0 -2474.05561910 0 32218.58292704 0 3850.26808779 0 1392.05696550 0 388
0.01950000 0.01947590 85383.56849950 0 2061.66688123 0 43237.31769357 0 -3496.54052681 0 8661.56968053 0 399
0.02050000 0.02045430 81945.94381306 0 9751.93901170 0 46341.22250998 0 -601.22391596 0 6454.47888513 0 462
0.02150000 0.02154770 78269.48908027 0 5311.80389152 0 47578.11191547 0 6446.36287104 0 9273.70315813 0 571
0.02250000 0.02255340 77988.47347638 0 -1648.64702085 0 55348.55874995 0 14393.46864800 0 7887.48130781 0 510
0.02350000 0.02348930 71156.73834002 0 3400.36631343 0 40013.72104587 0 11997.97117349 0 3257.87656534 0 555
0.02450000 0.02439640 69462.34047303 0 5254.41603199 0 37201.57198843 0 16871.67638891 0 -3267.37662003 0 592
0.02550000 0.02547300 61996.71474081 0 6193.14987476 0 27808.47595177 0 -496.41882538 0 -4560.17019353 0 837
0.02650000 0.02652900 58190.16019140 0 5850.11817956 0 24784.62404380 0 -2258.49959953 0 -10572.58651028 0 723
0.02750000 0.02749970 53644.41723711 0 4262.01463082 0 24319.36495492 0 -8452.33595843 0 -8326.78686732 0 826
0.02850000 0.02848090 53809.28415366 0 -128.83757159 0 29077.36437599 0 -1165.77186318 0 -15388.53847945 0 831
0.02950000 0.02946900 53199.53122589 0 388.72385804 0 31736.16173469 0 -2311.71319261 0 -15975.03952509 0 996
0.03050000 0.03053250 55618.72347552 0 422.99491781 0 32877.16480725 0 4129.14673299 0 -13805.63892338 0 1041
0.03150000 0.03150510 53634.89503776 0 -289.69298486 0 33764.27947172 0 5933.27133894 0 -10981.03350052 0 1036
0.03250000 0.03246190 56571.05413317 0 1494.15487265 0 35333.67079152 0 2961.97975689 0 -14073.36773749 0 1059
0.03350000 0.03345080 53935.95154958 0 1011.08373484 0 32505.57758634 0 4093.63778730 0 -8569.87975871 0 1302
0.03450000 0.03451200 54733.26965977 0 1671.37850370 0 36810.05458284 0 4779.55723749 0 -3612.54527393 0 1339
0.03550000 0.03553350 50830.27516120 0 1111.36245902 0 30486.53915566 0 1435.98087806 0 2191.15771999 0 1365
0.03650000 0.03647120 52643.03618051 0 -187.13779069 0 27879.67100036 0 12410.85816597 0 -3608.93569604 0 1308
0.03750000 0.03744890 49365.96020393 0 532.66740238 0 20947.84204765 0 7581.97372141 0 1064.63503382 0 1579
0.03850000 0.03847530 48867.37341735 0 559.16126120 0 18156.28751437 0 9623.14572941 0 364.49982580 0 1662
0.03950000 0.03950240 47469.49240900 0 1136.21982824 0 10468.91633300 0 5330.71542231 0 4204.61569896 0 1683
0.04050000 0.04050350 46962.49065555 0 -222.68991845 0 11536.47667504 0 3481.28286321 0 8496.04949682 0 1822
0.04150000 0.04152450 45424.98763123 0 2854.25710873 0 9973.24156785 0 169.22941253 0 7137.97349619 0 1887
0.04250000 0.04250150 43846.51700509 0 1253.03285508 0 9628.63760252 0 3748.51342270 0 12569.85675037 0 1920
0.04350000 0.04349210 44527.57570468 0 -1375.97994986 0 9169.66759413 0 3439.54019864 0 13141.18871101 0 2005
0.04450000 0.04448520 45370.84396287 0 672.62933871 0 11255.23962465 0 1513.11069274 0 9768.19318453 0 2151
0.04550000 0.04548030 43666.25955704 0 2788.00031701 0 14986.72381178 0 -3016.13449757 0 9594.01444281 0 2274
0.04650000 0.04648670 41739.12142235 0 1323.30890070 0 14165.26803349 0 -394.83467410 0 14988.38466051 0 2311
0.04750000 0.04749250 41574.80812205 0 565.13256598 0 16512.93306478 0 -530.71424428 0 15682.95159638 0 2568
0.04850000 0.04851840 40799.52393824 0 150.02446513 0 15955.55223341 0 582.00568177 0 9202.99529184 0 2493
0.04950000 0.04949480 41312.50474709 0 1059.01915067 0 18916.29188992 0 1709.71089222 0 4796.36502657 0 2644
0.05050000 0.05050630 38985.43423996 0 3387.68850151 0 14884.52625371 0 -1526.04316813 0 3192.32840241 0 2829
0.05150000 0.05149060 36827.21668631 0 2167.86154857 0 14645.36403762 0 -396.99709914 0 2608.05289406 0 2784
0.05250000 0.05249300 36041.08162418 0 52.94387125 0 13130.55927918 0 1652.93201055 0 5922.39831597 0 3055
0.05350000 0.05348950 36333.28027615 0 -1018.38482582 0 12862.38757208 0 5555.57219473 0 2485.57083691 0 3009
0.05450000 0.05448610 37928.35938952 0 -893.29745065 0 9997.62282710 0 3680.31897415 0 -817.55056933 0 3336
0.05550000 0.05550870 36908.70899697 0 359.15742907 0 9697.07564222 0 942.49178982 0 -954.38678837 0 3349
0.05650000 0.05647670 36101.31507120 0 1362.98104053 0 10008.50692240 0 -2142.18482731 0 489.71231824 0 3324
0.05750000 0.05747970 34934.07058881 0 1921.05942836 0 10693.41879103 0 -1529.80775857 0 -1578.64778334 0 3639
0.05850000 0.05849280 34427.29028187 0 530.92351122 0 11678.75604896 0 33.82772389 0 1483.81332127 0 3846
0.05950000 0.05951020 32700.78267289 0 336.94523825 0 10749.37832066 0 1027.31797749 0 915.07449910 0 3787
0.06050000 0.06049470 34481.87684322 0 -901.06579374 0 12700.84235297 0 2537.78792076 0 403.67260377 0 3930
0.06150000 0.06148310 35016.67013196 0 -1018.27188811 0 11633.35951721 0 1904.58380903 0 655.82154964 0 4083
0.06250000 0.06249100 35160.38890811 0 1113.87587676 0 12799.05387411 0 -397.62711442 0 692.53959320 0 4303
0.06350000 0.06350600 34400.71670230 0 1839.73320257 0 12339.44167089 0 -843.79862255 0 1075.19803170 0 4470
0.06450000 0.06451750 32342.37151851 0 1100.34328136 0 13603.12610244 0 -816.28500261 0 3287.12964751 0 4479
0.06550000 0.06550280 32916.47156036 0 1027.19839638 0 14009.36970004 0 19.28101427 0 2396.04001843 0 4636
0.06650000 0.06648880 31256.61934680 0 467.94412765 0 13487.30958484 0 214.16644280 0 3766.29557636 0 4653
0.06750000 0.06749660 31672.82803673 0 739.16736748 0 13173.51989948 0 1536.13005604 0 1652.22338176 0 5220
0.06850000 0.06852730 30419.21942076 0 188.88168185 0 12899.81202996 0 259.37917397 0 1795.98644721 0 5029
0.06950000 0.06949320 31598.42201395 0 -295.33433435 0 12014.02604447 0 397.45106446 0 146.22555048 0 5040
0.07050000 0.07048030 30297.86674075 0 234.02133567 0 13043.30935961 0 -520.15346087 0 -231.76590310 0 5475
0.07150000 0.07148790 30432.17404080 0 1000.67464227 0 12844.67185237 0 -790.08677485 0 -1961.55092022 0 5509
0.07250000 0.07249820 30039.10650974 0 986.57735832 0 14046.01909519 0 17.42440684 0 2647.65859993 0 5916
0.07350000 0.07351270 29310.54753667 0 518.93661237 0 13115.05802444 0 1303.12405256 0 2535.15270745 0 5721
0.07450000 0.07449140 28983.91395452 0 168.38348691 0 13962.97665905 0 3093.88436245 0 1923.38461657 0 6028
0.07550000 0.07549160 27898.60467580 0 1473.70428871 0 14085.76874129 0 1027.91256133 0 1369.82373726 0 6183
0.07650000 0.07648840 27250.65222741 0 997.97631672 0 12235.47254085 0 652.51867514 0 2202.21897248 0 6330
0.07750000 0.07749960 25751.79161671 0 409.03603792 0 11094.80163803 0 727.37755601 0 3557.18364984 0 6583
0.07850000 0.07848650 26407.05179948 0 -572.70382169 0 11784.82892073 0 1293.88973366 0 1165.07430672 0 6549
0.07950000 0.07947320 26043.54737568 0 -146.20451307 0 10956.96226636 0 431.72766040 0 -219.66828101 0 6828
0.08050000 0.08048110 25554.15061870 0 1386.21077800 0 9366.17921502 0 462.71909757 0 -867.84549759 0 7147
0.08150000 0.08149960 24035.13837683 0 1139.48616406 0 8973.74280647 0 712.11657071 0 -587.53852248 0 7386
0.08250000 0.08250610 23368.03080650 0 435.43246028 0 8566.91237566 0 1898.66011525 0 -838.96001660 0 7227
0.08350000 0.08350160 23067.41718768 0 -61.34754434 0 7355.24572610 0 1513.71967061 0 -266.20969115 0 7798
0.08450000 0.08449610 22956.25104650 0 78.63255061 0 6354.91654036 0 1026.76657571 0 -1335.23379453 0 7371
0.08550000 0.08548940 22964.22312037 0 352.52732097 0 6528.23164075 0 1089.43261249 0 -509.60153531 0 8256
0.08650000 0.08650700 22188.05315058 0 471.43744613 0 6233.69672825 0 -729.85997123 0 -553.94619621 0 8037
0.08750000 0.08749060 21925.86049888 0 731.18532851 0 6428.72465760 0 -519.51015879 0 135.82642302 0 8155
0.08850000 0.08849210 21249.56289895 0 809.24632572 0 7356.81799623 0 -380.44508077 0 155.45986938 0 8718
0.08950000 0.08949900 20813.64547084 0 616.72184900 0 7644.23340387 0 550.39640888 0 1372.14892548 0 8571
0.09050000 0.09049190 20553.55656085 0 604.93535923 0 7616.94012319 0 34.19277844 0 987.32363301 0 8932
0.09150000 0.09150830 19889.43851823 0 736.54986989 0 7589.61362554 0 196.30899734 0 1841.98088451 0 9285
0.09250000 0.09250820 19596.68625003 0 643.66524422 0 8009.68655683 0 380.90347502 0 1821.35314337 0 9204
0.09350000 0.09350330 19058.57126384 0 379.46739449 0 7722.12720897 0 198.10714289 0 2410.13508792 0 9349
0.09450000 0.09448040 18808.55816943 0 70.81737158 0 7718.67264363 0 783.97595878 0 1869.28523751 0 9564
0.09550000 0.09549270 18755.41101031 0 -153.82670147 0 7157.15076277 0 615.13075593 0 529.54279231 0 10155
0.09650000 0.09649430 18582.90418963 0 -3.30244267 0 6841.83309659 0 526.78024727 0 1082.23227966 0 9913
0.09750000 0.09749140 18675.02593212 0 416.92617658 0 6694.62653812 0 359.52060133 0 -145.88673735 0 10476
0.09850000 0.09850240 17923.32580018 0 693.79740930 0 6834.42571128 0 -274.30245336 0 220.44887991 0 10575
0.09950000 0.09950330 17528.70814365 0 681.69535827 0 6367.28432719 0 -218.47357716 0 46.66464512 0 10882
0.10050000 0.10051200 16513.37595778 0 762.95625735 0 6246.83957781 0 40.02767218 0 -233.78106622 0 10875
0.10150000 0.10150300 16359.24919630 0 81.85061110 0 6155.71434455 0 477.57705024 0 -362.40383471 0 11118
0.10250000 0.10250800 16464.98989832 0 -202.85606300 0 6257.02611664 0 220.69800722 0 -298.17881460 0 11575
0.10350000 0.10349800 16618.56304355 0 -68.56658940 0 5730.21597409 0 367.20368752 0 -158.26781096 0 11364
0.10450000 0.10450100 16659.41992214 0 -80.38574252 0 5846.45324004 0 427.13707453 0 -360.13954428 0 12093
0.10550000 0.10551000 16854.84645518 0 3.22513570 0 5778.54667193 0 193.02937473 0 638.54540122 0 12067
0.10650000 0.10649700 16882.41654398 0 71.77867083 0 6256.76038085 0 150.28577200 0 -400.92113106 0 12054
0.10750000 0.10749900 16668.05633549 0 130.02895374 0 5866.91489631 0 56.47173538 0 80.55603488 0 12807
0.10850000 0.10850100 16512.71161829 0 193.01940963 0 5624.72993555 0 -125.69081688 0 -229.41081961 0 12736
0.10950000 0.10950300 16431.44075412 0 18.69982794 0 5341.52201134 0 402.99054856 0 -278.21652018 0 12933
0.11050000 0.11050200 16499.86772150 0 148.71350187 0 5546.93578137 0 346.20502350 0 -1144.09225119 0 13428
0.11150000 0.11150900 16245.09352742 0 355.02413022 0 5314.52768343 0 -44.07659991 0 -1224.27802752 0 13453
0.11250000 0.11250000 15961.19911907 0 486.80472574 0 5430.66529845 0 -587.08787886 0 -1195.40140440 0 13668
0.11350000 0.11349100 15634.89770667 0 518.02757450 0 5613.58010446 0 6.79319237 0 -224.44488193 0 13791
0.11450000 0.11448600 15508.11958749 0 156.59588991 0 5809.80384489 0 513.97621085 0 434.87773681 0 14205
0.11550000 0.11549300 15360.96839065 0 161.13443585 0 6226.38899387 0 1215.34266139 0 462.47772089 0 14776
0.11650000 0.11649800 15322.99031652 0 102.07985926 0 5660.81464213 0 509.35130077 0 122.42558829 0 14553
0.11750000 0.11747300 14705.15459164 0 434.90763209 0 5929.29637433 0 469.59833298 0 407.18806690 0 14568
0.11850000 0.11849100 14618.79045806 0 464.64457485 0 5423.31327477 0 -148.71350187 0 716.07160514 0 16015
0.11950000 0.11950300 14247.86757663 0 251.44031707 0 5364.43065139 0 282.89236295 0 1115.35956828 0 15270
0.12050000 0.12050700 13833.54118192 0 -33.17534251 0 5118.19321974 0 202.13525466 0 1243.97569337 0 15999
0.12150000 0.12150000 14158.29246885 0 -179.64514849 0 4499.84816792 0 924.59891291 0 604.19904963 0 15670
0.12250000 0.12250700 14329.58133380 0 -203.95222316 0 4445.75986118 0 376.18777188 0 183.39977383 0 16887
0.12350000 0.12352200 14325.48457361 0 126.47916640 0 4158.92021443 0 156.58038866 0 542.17520770 0 16407
0.12450000 0.12449800 14386.49308336 0 100.01830311 0 4571.55254345 0 94.14886372 0 805.20824886 0 16306
0.12550000 0.12549900 13945.70383233 0 273.09003379 0 3977.02406231 0 105.79329556 0 747.60890792 0 17523
0.12650000 0.12650100 13936.62452598 0 414.19906298 0 4521.90423896 0 395.78135787 0 542.99234527 0 17154
0.12750000 0.12750600 13412.46066907 0 262.78280662 0 3938.43701032 0 742.58871584 0 744.14991364 0 18007
0.12850000 0.12850300 13261.32343529 0 267.48854467 0 3862.10440302 0 164.58678673 0 -360.41745964 0 17496
0.12950000 0.12949900 12870.47036919 0 401.91431859 0 3879.69832715 0 -124.94675665 0 -79.66626286 0 18405
0.13050000 0.13049000 12529.66421128 0 404.25722252 0 4022.19914757 0 -558.27990415 0 -39.50251181 0 18100
0.13150000 0.13148800 12304.12095472 0 326.49185639 0 4181.06486407 0 -288.89245577 0 688.11177050 0 19059
0.13250000 0.13249300 12508.29462438 0 -121.54090953 0 4715.85815281 0 -67.80647430 0 786.79718715 0 18957
0.13350000 0.13349100 12446.95394488 0 -68.86587434 0 4570.40102167 0 346.09097855 0 668.21037388 0 19468
0.13450000 0.13450700 12562.99190898 0 139.15808555 0 4591.65988532 0 459.73842772 0 1194.29417191 0 19953
0.13550000 0.13551000 12347.85663775 0 145.34640789 0 4262.25822196 0 196.95008494 0 896.33458935 0 19956
0.13650000 0.13649900 12262.82118315 0 138.40627470 0 4259.65622563 0 291.24311033 0 1288.58609007 0 19723
0.13750000 0.13749600 12169.37076168 0 170.53483962 0 4060.94121211 0 -25.53366682 0 1040.69445310 0 20946
0.13850000 0.13851100 11939.06640545 0 264.21335098 0 4101.02302795 0 -156.77747604 0 490.64903692 0 20955
0.13950000 0.13949800 11573.67968643 0 424.18629996 0 4088.71060276 0 -91.71350588 0 496.61369830 0 20506
0.14050000 0.14048300 11508.46369325 0 166.95072808 0 3779.17269013 0 77.59086629 0 437.07891498 0 21447
0.14150000 0.14148400 11331.52794265 0 -108.97492810 0 3527.47660235 0 499.11825817 0 438.54046186 0 21771
0.14250000 0.14249400 11502.92753084 0 -130.11642511 0 3649.38289860 0 547.66486634 0 553.51991171 0 22470
0.14350000 0.14350900 11409.69855587 0 136.08883711 0 3256.82469448 0 515.27388732 0 284.43363057 0 22519
0.14450000 0.14449900 11275.61270232 0 148.90616032 0 3126.95739668 0 340.94677644 0 348.84355850 0 22218
0.14550000 0.14550500 11074.76073011 0 215.01015396 0 3108.67698841 0 116.98575510 0 650.25217025 0 23559
0.14650000 0.14650700 10941.46101161 0 176.76523680 0 3080.46470477 0 -48.63784412 0 240.76881041 0 23044
0.14750000 0.14750500 10832.70863725 0 288.85591710 0 3332.42652834 0 -299.80866081 0 -164.81155493 0 23649
0.14850000 0.14849900 10421.30533628 0 446.05192702 0 2971.57946250 0 -158.30988579 0 601.10433485 0 23640
0.14950000 0.14949500 10212.35949463 0 200.47329870 0 3014.30756398 0 267.02572149 0 659.30822472 0 24457
0.15050000 0.15050000 10232.62184905 0 -77.46275949 0 2896.66411278 0 277.78248505 0 264.10594943 0 24591
0.15150000 0.15149900 10263.60221389 0 -91.77628596 0 2961.71402109 0 575.72988806 0 233.99919102 0 25020
0.15250000 0.15250500 10184.68975491 0 135.10007851 0 2762.37895738 0 -51.16045189 0 422.02608939 0 25297
0.15350000 0.15350100 10206.30293296 0 265.76790539 0 3166.77347673 0 -199.01507352 0 690.53550241 0 25452
0.15450000 0.15450400 10060.36969185 0 172.81241684 0 3322.82682273 0 -314.69761600 0 981.99230861 0 26061
0.15550000 0.15549900 9846.61846122 0 180.21648045 0 3216.86467421 0 -114.86429767 0 1065.27833589 0 26128
0.15650000 0.15649500 9699.67763855 0 271.85657681 0 3449.52743563 0 9.13717032 0 519.34518115 0 26331
0.15750000 0.15749700 9633.90802913 0 123.19622209 0 3420.41829368 0 215.97787514 0 687.35553072 0 27345
0.15850000 0.15849900 9422.64807159 0 80.84823353 0 3214.87165574 0 295.29447398 0 335.24452916 0 26980
0.15950000 0.15949700 9398.75399463 0 258.71483448 0 3032.70976783 0 75.64280146 0 526.01736409 0 27777
0.16050000 0.16050000 9167.89602216 0 177.69974101 0 2851.66618472 0 220.30826138 0 291.82330015 0 28224
0.16150000 0.16150500 8920.67315361 0 185.52676743 0 2784.93328304 0 127.78570073 0 297.51779681 0 28075
0.16250000 0.16249700 8879.65019016 0 155.58166496 0 2917.85654248 0 158.08179590 0 57.29518418 0 28590
0.16350000 0.16349900 8662.01257352 0 164.38969935 0 2820.37579478 0 11.54699538 0 50.11489225 0 29163
0.16450000 0.16449100 8522.39055756 0 120.75920340 0 2580.10634622 0 220.71683017 0 14.95129237 0 28996
0.16550000 0.16550500 8496.54775143 0 42.57142808 0 2595.17578029 0 98.03436394 0 25.75378464 0 30777
0.16650000 0.16650700 8487.84490413 0 -44.82674992 0 2463.35975333 0 121.11683949 0 122.70793257 0 29211
0.16750000 0.16749900 8570.26729008 0 -71.25151744 0 2455.80842780 0 97.63996773 0 -146.35177499 0 30922
0.16850000 0.16850800 8594.23887331 0 -37.96877338 0 2365.90115027 0 235.02338107 0 -55.19022451 0 30867
0.16950000 0.16949900 8649.04688116 0 115.53085162 0 2255.96403715 0 -132.61987775 0 -8.76579347 0 30852
0.17050000 0.17049200 8509.43593752 0 184.56015347 0 2355.06134428 0 -230.99637653 0 249.51041086 0 31257
0.17150000 0.17149500 8378.84893861 0 306.64914308 0 2618.98127865 0 -57.21911730 0 209.68215125 0 32608
0.17250000 0.17250900 8240.50024000 0 83.62594766 0 2515.83150064 0 54.72252950 0 447.71277574 0 32361
0.17350000 0.17350400 8107.44411266 0 -3.04389282 0 2558.96927814 0 325.17978590 0 600.96150186 0 32508
0.17450000 0.17449800 8214.60207225 0 2.11094980 0 2374.98045663 0 372.71991974 0 419.02106044 0 32791
0.17550000 0.17549800 8154.61221639 0 -59.22276520 0 2221.99414461 0 323.98286759 0 395.53333780 0 33633
0.17650000 0.17650100 8128.93549513 0 87.87129844 0 2133.05015934 0 209.03774195 0 215.15298695 0 33984
0.17750000 0.17750300 7990.73073674 0 280.53174330 0 1932.38641665 0 38.42838558 0 497.02448155 0 34069
0.17850000 0.17849800 7790.73133355 0 202.41427724 0 2008.76331325 0 3.65383397 0 694.10632716 0 34536
