### header ###
fiducial parameters:
Omega_m = 0.31
Omega_nu = 0
Omega_de = 0.69
Omega_k = 0
H_0 = 100
w_de = -1
zeff = 0
beta = 0
fgrowth = 0
b_1 = 2
gamma = 0.55
Lx = 3500 Ly = 3500 Lz = 3500
nx = 700 ny = 700 nz = 700
xoffset = -685.467585 yoffset = -31.7331281 zoffset = 572.489161
bins = 400 dk = 0.001
kx_ny = 0.628318531 ky_ny = 0.628318531 kz_ny = 0.628318531
############################
A(data) = 8.00284649 (not used)
A(ran) = 7.99582227 (used)
Ngal = 475434
weighted Ngal = 0
Nran = 23820508
weighted Nran = 0
SN(data) = 3491.94662
SN(ran) = 69.6465118
SN(data+ran) = 3561.59313
############################
13 columns: k_central k_mean P_0(k) sigma^{lin}_{P_0(k)} P^img_1(k) sigma^{lin}_{P_1(k)} P_2(k) sigma^{lin}_{P_2(k)} P^img_3(k) sigma^{lin}_{P_3(k)} P_4(k) sigma^{lin}_{P_4(k)} N_modes
### header ###
0.00050000 0 0 0 0 0 0 0 0 0 0 0 0
0.00150000 0.00179520 40932.83472906 0 -37704.47698169 0 -2280.11277758 0 2944.77336412 0 -137384.29911728 0 3
0.00250000 0.00253879 55492.72041908 0 -18468.74852075 0 -3048.77571114 0 18568.84233711 0 110054.36904417 0 6
0.00350000 0.00331552 50106.47728781 0 6816.25602626 0 13683.17901088 0 -61983.87084402 0 6924.76480948 0 7
0.00450000 0.00420575 40359.28830345 0 12029.63802247 0 -8511.08571392 0 8540.19485587 0 40523.15871077 0 24
0.00550000 0.00557378 38678.17722624 0 -18588.55107529 0 -21524.15655446 0 26848.94828299 0 2590.71363339 0 45
0.00650000 0.00659388 65371.67006878 0 -9478.17578056 0 -17084.15430218 0 6757.26267962 0 20194.59179023 0 40
0.00750000 0.00754703 59507.10250533 0 4728.33666288 0 4310.41176260 0 -12578.60388697 0 13123.03009831 0 57
0.00850000 0.00846663 61717.24926238 0 14133.93335425 0 10193.73584429 0 -8493.87932115 0 44940.46269717 0 75
0.00950000 0.00948925 42937.47913748 0 9838.38065156 0 31476.40499445 0 1741.14522238 0 37639.26098851 0 112
0.01050000 0.01054430 46054.56002042 0 135.41674700 0 43074.99741172 0 20089.40470446 0 18141.56132236 0 105
0.01150000 0.01145670 50647.80324819 0 -6174.29370560 0 52318.17417033 0 4086.28576362 0 7154.94737013 0 144
0.01250000 0.01249090 55853.67820817 0 -1567.04398693 0 50821.30657810 0 10318.89740404 0 30353.67125784 0 169
0.01350000 0.01339930 58191.93176337 0 -4643.81053521 0 48420.38366442 0 4565.98316406 0 15937.94723695 0 180
0.01450000 0.01448870 69235.02564450 0 -5196.05380787 0 40828.42270602 0 27726.54074812 0 18475.05974590 0 267
0.01550000 0.01550050 67749.23037708 0 -3365.65457512 0 15438.25321789 0 19898.73927108 0 4420.99107056 0 238
0.01650000 0.01653350 73043.90538211 0 1195.88858669 0 28104.21774768 0 16526.88419406 0 14646.24982361 0 315
0.01750000 0.01747870 71189.84459123 0 2740.78792398 0 8108.92780418 0 22147.86061149 0 18131.48550677 0 297
0.01850000 0.01844180 67134.16273341 0 1435.73728691 0 11641.77448407 0 6173.81759563 0 20604.82142476 0 388
0.01950000 0.01947590 67775.25034041 0 -2254.20353750 0 6593.95696087 0 3524.21026653 0 15526.27820019 0 399
0.02050000 0.02045430 73768.25687175 0 -6650.00506910 0 15126.45655099 0 1661.18089254 0 15672.10071806 0 462
0.02150000 0.02154770 79381.37193856 0 -2856.70409251 0 20761.82699069 0 -6334.83134314 0 7250.95549864 0 571
0.02250000 0.02255340 81726.60105840 0 2136.40507376 0 11234.09148425 0 -17730.88879484 0 219.51880462 0 510
0.02350000 0.02348930 80279.66965110 0 1851.28163735 0 14064.39915439 0 -5799.46229351 0 -5675.79549761 0 555
0.02450000 0.02439640 80964.05004814 0 4789.62198075 0 19900.51084305 0 -9111.17250212 0 -872.83357992 0 592
0.02550000 0.02547300 75816.08334696 0 7777.32274819 0 29917.75382973 0 -2880.15527648 0 -12508.29462438 0 837
0.02650000 0.02652900 67463.67512001 0 3678.14879848 0 26981.92690406 0 -1998.87572719 0 -6875.42653009 0 723
0.02750000 0.02749970 65885.86883335 0 671.02385161 0 29930.37628002 0 6275.99300906 0 -7892.37527538 0 826
0.02850000 0.02848090 66208.29493207 0 1168.03061744 0 31029.85813451 0 8908.88112768 0 -5041.40664713 0 831
0.02950000 0.02946900 66367.29351647 0 -71.92405045 0 25996.37927196 0 15260.87457429 0 -729.79796621 0 996
0.03050000 0.03053250 68691.92811214 0 370.86641257 0 27466.34111488 0 6552.63504465 0 3760.58225676 0 1041
0.03150000 0.03150510 64149.50685529 0 1985.92110715 0 19347.33749511 0 2289.81213412 0 725.80971481 0 1036
0.03250000 0.03246190 65721.55553305 0 3501.75559179 0 26471.38200668 0 -1279.67286859 0 -7813.59568430 0 1059
0.03350000 0.03345080 58511.03616465 0 2721.33384928 0 20056.63062299 0 3486.23219240 0 8128.49260214 0 1302
0.03450000 0.03451200 58912.62938582 0 2974.08180791 0 18685.21247095 0 -2066.10688348 0 -3360.48379943 0 1339
0.03550000 0.03553350 56852.95552306 0 1685.83895991 0 18416.70859410 0 5284.44417690 0 1994.07033821 0 1365
0.03650000 0.03647120 56664.50455464 0 2456.94887726 0 20034.59669660 0 2483.58889077 0 -10054.96639733 0 1308
0.03750000 0.03744890 52641.37533179 0 4040.21382005 0 16501.30712372 0 112.42063558 0 -1125.55717944 0 1579
0.03850000 0.03847530 50503.86302555 0 2805.78247067 0 18850.41155725 0 3130.52268528 0 3961.26814409 0 1662
0.03950000 0.03950240 48236.69379568 0 359.41873594 0 17866.19260412 0 6955.08083483 0 -331.44672175 0 1683
0.04050000 0.04050350 47812.29158538 0 -608.11643815 0 17009.41610965 0 6210.25661661 0 4516.03590681 0 1822
0.04150000 0.04152450 48600.41966597 0 -84.88752835 0 16929.03103147 0 4357.85667445 0 2407.83204436 0 1887
0.04250000 0.04250150 47147.73064977 0 2092.11577448 0 17856.44895828 0 -1955.23969508 0 2264.33471471 0 1920
0.04350000 0.04349210 45341.28085560 0 4062.45812061 0 19228.31000331 0 -3119.25105861 0 7115.13129009 0 2005
0.04450000 0.04448520 44298.93219718 0 469.78545527 0 22121.17630868 0 -1468.86568277 0 8920.88352778 0 2151
0.04550000 0.04548030 44687.12790532 0 -570.71744661 0 21021.58373094 0 2663.37022885 0 3322.72717180 0 2274
0.04650000 0.04648670 45618.08897607 0 -656.74608876 0 24551.10871338 0 4292.07599270 0 5909.13367084 0 2311
0.04750000 0.04749250 44427.92478131 0 803.01149961 0 19445.99190924 0 7294.50295215 0 5599.92792795 0 2568
0.04850000 0.04851840 43702.90895219 0 180.39917381 0 18663.84288405 0 6235.56795114 0 4001.05100717 0 2493
0.04950000 0.04949480 42552.60512678 0 1759.49206461 0 16784.75863908 0 2748.29496021 0 7554.34827099 0 2644
0.05050000 0.05050630 41123.50016244 0 2574.14943546 0 14494.22680385 0 1788.91123165 0 6738.66117393 0 2829
0.05150000 0.05149060 37663.17721011 0 3555.53387344 0 14444.84423516 0 -723.27968859 0 8671.47941124 0 2784
0.05250000 0.05249300 36555.39111201 0 1758.06373470 0 15116.93435165 0 417.42443120 0 9273.84709835 0 3055
0.05350000 0.05348950 34468.59005344 0 917.24799646 0 17219.23666497 0 1855.61091636 0 9403.33793711 0 3009
0.05450000 0.05448610 34937.83517925 0 839.15046059 0 14959.92878572 0 1116.92076608 0 11444.57637905 0 3336
0.05550000 0.05550870 33798.16078567 0 -485.42289961 0 15530.59640687 0 2933.14742306 0 9657.02704335 0 3349
0.05650000 0.05647670 34193.22133520 0 34.11361132 0 13698.23737264 0 3358.98903558 0 8199.26690238 0 3324
0.05750000 0.05747970 34584.07440130 0 -597.81363991 0 12799.16459736 0 274.95461329 0 6440.81563631 0 3639
0.05850000 0.05849280 35869.79275924 0 -455.02493905 0 14994.36371591 0 -38.71859121 0 5330.68220534 0 3846
0.05950000 0.05951020 35584.45894866 0 367.78941350 0 13002.56320428 0 -2716.79419610 0 2750.97446282 0 3787
0.06050000 0.06049470 34601.90084426 0 1516.17772672 0 15215.81021228 0 -1213.78146359 0 2601.30984824 0 3930
0.06150000 0.06148310 34362.51718168 0 1663.96004607 0 14475.73602140 0 -3018.39325184 0 819.36200167 0 4083
0.06250000 0.06249100 32915.69649762 0 1037.48901506 0 15711.85036416 0 907.78780214 0 427.76376811 0 4303
0.06350000 0.06350600 32504.80252360 0 -52.10658204 0 14482.15796980 0 2206.21608174 0 -2276.85751408 0 4470
0.06450000 0.06451750 31975.32395078 0 -104.05327972 0 13494.61731922 0 1133.17493891 0 -4556.89278539 0 4479
0.06550000 0.06550280 31718.55673823 0 720.44185174 0 12091.97521120 0 1868.98628474 0 -5220.93332174 0 4636
0.06650000 0.06648880 30593.38709016 0 859.28326881 0 10391.15539580 0 1146.48387335 0 -5576.26636982 0 4653
0.06750000 0.06749660 29830.28246366 0 551.40066874 0 9616.79021496 0 1444.76123164 0 -4379.51414179 0 5220
0.06850000 0.06852730 28778.96522213 0 1026.66913925 0 9545.93840845 0 109.49765255 0 -4707.05565458 0 5029
0.06950000 0.06949320 28846.39568027 0 1274.88962427 0 10528.80653795 0 34.07651903 0 -2580.21706946 0 5040
0.07050000 0.07048030 27860.73732492 0 141.70029133 0 10733.27916037 0 1363.80039256 0 -612.24973701 0 5475
0.07150000 0.07148790 27991.83365077 0 190.38862526 0 11465.61379620 0 -326.63690385 0 -192.09487051 0 5509
0.07250000 0.07249820 27586.14366942 0 194.93160013 0 11880.60453041 0 993.14103247 0 667.36223379 0 5916
0.07350000 0.07351270 27751.45347896 0 702.32752834 0 12212.22065873 0 517.33887590 0 3168.85507380 0 5721
0.07450000 0.07449140 26744.31481345 0 994.28037469 0 11025.20100422 0 2218.97139993 0 3601.84940816 0 6028
0.07550000 0.07549160 26230.22677212 0 279.85743872 0 11555.18890399 0 1810.17009530 0 3271.24086140 0 6183
0.07650000 0.07648840 26063.58828360 0 306.71446980 0 9485.10705589 0 1397.33846444 0 3650.71157758 0 6330
0.07750000 0.07749960 25621.69180009 0 770.47104420 0 9779.85234257 0 700.38876426 0 1906.83149097 0 6583
0.07850000 0.07848650 24979.27551411 0 140.24981678 0 8390.86241104 0 -535.43548358 0 2792.71712738 0 6549
0.07950000 0.07947320 25171.26962647 0 -293.92261294 0 9644.58175026 0 564.13716397 0 1799.96141182 0 6828
0.08050000 0.08048110 25808.59264303 0 -951.88444296 0 7881.49118008 0 937.79712409 0 802.14121488 0 7147
0.08150000 0.08149960 26228.45520015 0 -73.48746271 0 8571.77312625 0 -0.81731362 0 -2714.91190088 0 7386
0.08250000 0.08250610 25372.23232193 0 1467.16054474 0 7073.17825135 0 -714.83704092 0 -2240.56243333 0 7227
0.08350000 0.08350160 24381.81286690 0 1423.84561005 0 8626.90223152 0 -538.58888169 0 -1100.03104180 0 7798
0.08450000 0.08449610 22944.95727518 0 1309.51278398 0 8161.57670870 0 -0.79801567 0 -765.92364040 0 7371
0.08550000 0.08548940 22463.86476181 0 1162.74911851 0 8230.10332700 0 1446.87604568 0 99.80704315 0 8256
0.08650000 0.08650700 21554.38400121 0 -96.54790434 0 7106.36200883 0 1710.19807451 0 -901.58397854 0 8037
0.08750000 0.08749060 21576.41792760 0 -284.13357057 0 7463.38912261 0 1580.14254719 0 1013.15979574 0 8155
0.08850000 0.08849210 21983.99020417 0 -18.96423506 0 7251.78592300 0 1249.32362626 0 576.20267633 0 8718
0.08950000 0.08949900 21383.87019900 0 641.08649977 0 6988.49711114 0 -698.78327716 0 373.54037901 0 8571
0.09050000 0.09049190 21038.85655765 0 638.39813930 0 7527.80790840 0 -975.81173689 0 388.03958836 0 8932
0.09150000 0.09150830 20458.77746041 0 581.52182117 0 6926.81318957 0 -788.51561196 0 -29.38517501 0 9285
0.09250000 0.09250820 20285.16340725 0 328.22356799 0 7537.65120517 0 -749.07820542 0 -328.85801221 0 9204
0.09350000 0.09350330 19754.57760194 0 374.12499776 0 7605.69064118 0 126.48470257 0 -177.39746655 0 9349
0.09450000 0.09448040 20105.01668245 0 103.66209448 0 7523.98795634 0 767.85686831 0 -659.27057882 0 9564
0.09550000 0.09549270 19201.84714699 0 434.02184610 0 6886.75351838 0 532.98296363 0 -775.80236860 0 10155
0.09650000 0.09649430 19297.06914043 0 370.18325013 0 7449.58193356 0 951.57220340 0 -803.24623290 0 9913
0.09750000 0.09749140 18944.08342521 0 362.04398415 0 7220.94949838 0 357.58848065 0 -31.02100027 0 10476
0.09850000 0.09850240 18570.61390908 0 295.72961635 0 6868.12986803 0 -128.98151181 0 -61.72068168 0 10575
0.09950000 0.09950330 18294.47012810 0 537.65327024 0 6877.84029690 0 -218.60201613 0 -189.07434030 0 10882
0.10050000 0.10051200 17883.24398434 0 688.53362608 0 7237.89015535 0 -29.49047281 0 -1595.06804105 0 10875
0.10150000 0.10150300 17014.84154881 0 926.29630031 0 6982.28553691 0 -289.49589748 0 -1240.94187637 0 11118
0.10250000 0.10250800 16623.43486647 0 649.95986088 0 7472.86703265 0 -55.74450509 0 -1436.49020500 0 11575
0.10350000 0.10349800 16199.80771891 0 13.27228504 0 7204.47387905 0 557.31329019 0 -1369.83480959 0 11364
0.10450000 0.10450100 16135.14534197 0 -219.80668507 0 6868.86064147 0 1720.98251889 0 -989.39637221 0 12093
0.10550000 0.10551000 16379.84372046 0 14.12197524 0 6759.67644643 0 749.14242490 0 -1438.20641534 0 12067
0.10650000 0.10649700 16062.95378415 0 439.62222799 0 6780.75815289 0 477.81289076 0 -295.66761133 0 12054
0.10750000 0.10749900 15712.84687339 0 352.82959544 0 6323.48221020 0 518.95654255 0 1526.43069950 0 12807
0.10850000 0.10850100 15619.28572867 0 -25.58847483 0 5583.25300678 0 1273.92633201 0 1691.13153118 0 12736
0.10950000 0.10950300 15832.64942793 0 -627.01136046 0 5281.14462410 0 1238.21808447 0 1474.39077285 0 12933
0.11050000 0.11050200 16148.65357825 0 -81.73125143 0 4999.27645119 0 618.06160031 0 280.80412249 0 13428
0.11150000 0.11150900 15918.57066852 0 565.20121439 0 4454.56235941 0 42.43424197 0 1183.80868031 0 13453
0.11250000 0.11250000 15459.51208154 0 482.80208032 0 4085.62142413 0 -480.53557543 0 1153.61445053 0 13668
0.11350000 0.11349100 14834.25789903 0 523.26699860 0 3837.59027587 0 76.66688079 0 1333.58401813 0 13791
0.11450000 0.11448600 14966.68290386 0 127.32066309 0 4094.66751351 0 411.97241846 0 649.95875364 0 14205
0.11550000 0.11549300 14507.51359363 0 102.21294861 0 3789.18207176 0 499.51021847 0 375.37284877 0 14776
0.11650000 0.11649800 14607.60740999 0 380.64659708 0 4095.08826185 0 -129.41001078 0 674.35662138 0 14553
0.11750000 0.11747300 13810.51074630 0 493.52894861 0 4117.28827311 0 -160.43909385 0 45.37150830 0 14568
0.11850000 0.11849100 13754.04188972 0 386.39424089 0 3907.66701965 0 -172.16800754 0 623.65090988 0 16015
0.11950000 0.11950300 13419.32551045 0 -31.99946162 0 4135.73476626 0 34.33195757 0 707.82715208 0 15270
0.12050000 0.12050700 13757.80648016 0 -300.83285086 0 4722.88907907 0 195.20730102 0 577.41066697 0 15999
0.12150000 0.12150000 13766.88578651 0 -66.12381309 0 4393.19953527 0 337.65829597 0 883.07215868 0 15670
0.12250000 0.12250700 13898.75717510 0 260.72556867 0 4613.74917333 0 78.19153991 0 976.40189181 0 16887
0.12350000 0.12352200 13816.15763196 0 257.50684384 0 4787.85040878 0 -112.06189226 0 864.68767055 0 16407
0.12450000 0.12449800 13572.45576270 0 311.62393863 0 4980.19883553 0 -321.91345008 0 1163.29166242 0 16306
0.12550000 0.12549900 13097.01013498 0 564.19252560 0 4841.70619670 0 36.91402371 0 912.21562483 0 17523
0.12650000 0.12650100 12896.26888602 0 311.22644216 0 4732.79880978 0 -95.22044331 0 1188.78015415 0 17154
0.12750000 0.12750600 12754.43240510 0 -155.58830835 0 4673.31828086 0 575.91590312 0 973.41347134 0 18007
0.12850000 0.12850300 13016.29288706 0 -402.54544111 0 4337.87112815 0 552.40049967 0 933.22093225 0 17496
0.12950000 0.12949900 13151.70741959 0 -88.47595810 0 3954.23721783 0 838.44736796 0 404.90938246 0 18405
0.13050000 0.13049000 13132.88446740 0 66.76733661 0 3206.06915751 0 369.66949426 0 -323.33513659 0 18100
0.13150000 0.13148800 12942.88337351 0 261.56042196 0 3268.11846580 0 76.23063119 0 161.36141851 0 19059
0.13250000 0.13249300 12720.77253765 0 366.93020110 0 3195.99334193 0 29.64991429 0 21.92574978 0 18957
0.13350000 0.13349100 12489.47167218 0 86.44584734 0 2922.38512333 0 231.77697543 0 -210.20365775 0 19468
0.13450000 0.13450700 12081.01360962 0 394.50361159 0 2949.64518704 0 87.54510775 0 -45.77465165 0 19953
0.13550000 0.13551000 11970.17963819 0 314.92016972 0 3123.60248226 0 -95.70352885 0 43.89291005 0 19956
0.13650000 0.13649900 11563.93604059 0 301.33885610 0 3502.43100361 0 -209.35662490 0 -64.27340617 0 19723
0.13750000 0.13749600 11562.93953136 0 298.51652051 0 3509.79409961 0 -64.82879398 0 657.33956537 0 20946
0.13850000 0.13851100 11507.91007701 0 -41.14420541 0 3744.31701160 0 -142.36463082 0 426.89680508 0 20955
0.13950000 0.13949800 11574.78691892 0 -22.56506581 0 3923.67760133 0 67.88575214 0 582.36663956 0 20506
0.14050000 0.14048300 11500.93451238 0 123.42541922 0 3924.20907293 0 47.99874954 0 506.76812739 0 21447
0.14150000 0.14148400 11608.11461662 0 66.38190899 0 3994.72870970 0 7.21942152 0 433.12277333 0 21771
0.14250000 0.14249400 11344.81473243 0 107.99713109 0 3843.61362057 0 415.32954734 0 248.47847019 0 22470
0.14350000 0.14350900 11361.09104992 0 174.68031804 0 3702.46362378 0 468.88416803 0 201.98356381 0 22519
0.14450000 0.14449900 10959.42032247 0 289.94986279 0 3245.60842944 0 190.95552829 0 276.66307301 0 22218
0.14550000 0.14550500 10972.75140155 0 287.35561709 0 3511.14492324 0 248.90254023 0 711.77665034 0 23559
0.14650000 0.14650700 10525.17481541 0 202.10978831 0 2933.16956771 0 133.00851635 0 605.12801769 0 23044
0.14750000 0.14750500 10493.13150738 0 134.89524050 0 3158.05955710 0 273.66800915 0 816.78104276 0 23649
0.14850000 0.14849900 10272.64830327 0 87.74651334 0 3134.11011852 0 108.98965429 0 625.19660642 0 23640
0.14950000 0.14949500 10219.04717882 0 218.62305354 0 3259.32703989 0 314.89027445 0 773.54472157 0 24457
0.15050000 0.15050000 10071.27593179 0 63.99161550 0 3158.97856006 0 -41.28028428 0 1151.84287856 0 24591
0.15150000 0.15149900 10018.17306196 0 224.71947559 0 3220.88392812 0 212.71264656 0 1025.45782692 0 25020
0.15250000 0.15250500 9934.79845608 0 158.35417509 0 3332.30473277 0 -140.47237051 0 1114.05303395 0 25297
0.15350000 0.15350100 9817.09964326 0 184.73620344 0 3163.61786416 0 49.00411663 0 1230.63354197 0 25452
0.15450000 0.15450400 9823.11191563 0 -1.82405479 0 3264.96285322 0 -43.60801913 0 1099.28365988 0 26061
0.15550000 0.15549900 9679.04989742 0 27.04382120 0 3326.29246039 0 -95.03265669 0 780.31434097 0 26128
0.15650000 0.15649500 9741.61960497 0 132.87454122 0 3369.67382903 0 7.24364776 0 260.61705988 0 26331
0.15750000 0.15749700 9656.79452453 0 96.31427828 0 3232.53201383 0 -250.57778297 0 518.10950970 0 27345
0.15850000 0.15849900 9523.08513002 0 264.00962021 0 3423.24173651 0 -175.26050786 0 20.91728243 0 26980
0.15950000 0.15949700 9297.96262181 0 151.24684979 0 3048.37710745 0 143.87268146 0 -33.42103740 0 27777
0.16050000 0.16050000 9333.75944795 0 -32.77972835 0 3005.53828272 0 276.03305773 0 -272.13449216 0 28224
0.16150000 0.16150500 9149.40523972 0 126.82240847 0 2814.00920801 0 451.67666802 0 -50.94288070 0 28075
0.16250000 0.16249700 9224.70812081 0 -5.12498055 0 2563.89646268 0 459.47158470 0 -255.09196980 0 28590
0.16350000 0.16349900 9078.77487970 0 116.36016875 0 2272.58359670 0 395.21113315 0 44.05312659 0 29163
0.16450000 0.16449100 9108.63693973 0 80.58006182 0 2275.91636647 0 152.32529423 0 17.80551626 0 28996
0.16550000 0.16550500 8874.25796797 0 62.54933447 0 2153.92149162 0 189.66781691 0 158.38074867 0 30777
0.16650000 0.16650700 8978.86929286 0 62.06082350 0 2171.27182461 0 -172.83345426 0 300.58704525 0 29211
0.16750000 0.16749900 8870.00619524 0 61.66443427 0 2152.08348570 0 -174.64156490 0 156.09099190 0 30922
0.16850000 0.16850800 8895.97079694 0 171.19364295 0 2272.40643951 0 -74.83740056 0 137.56809971 0 30867
0.16950000 0.16949900 8534.89121228 0 209.47399155 0 2243.26408058 0 74.14759472 0 310.11145906 0 30852
0.17050000 0.17049200 8624.89814073 0 176.75637894 0 2128.95339915 0 393.14614457 0 608.27034347 0 31257
0.17150000 0.17149500 8420.11549321 0 -42.24645535 0 2190.30515097 0 361.68634806 0 522.34135225 0 32608
0.17250000 0.17250900 8501.77388875 0 8.29436710 0 2214.18815561 0 248.99444052 0 511.18266330 0 32361
0.17350000 0.17350400 8433.33584905 0 87.30904579 0 2377.91462270 0 87.95002267 0 887.50994647 0 32508
0.17450000 0.17449800 8345.06727559 0 249.85254570 0 2596.69268879 0 -87.91171243 0 1151.38891324 0 32791
0.17550000 0.17549800 8187.69632294 0 247.71226531 0 2645.23376080 0 -241.37225212 0 1379.72239565 0 33633
0.17650000 0.17650100 8018.21224694 0 210.10511406 0 2768.84519507 0 30.51156261 0 1428.67314367 0 33984
0.17750000 0.17750300 7951.40183899 0 77.81175917 0 2588.94206142 0 135.92385947 0 1375.50383990 0 34069
0.17850000 0.17849800 7890.67013736 0 -39.70458174 0 2653.54907674 0 65.55812802 0 1177.13206844 0 34536
