### header ###
fiducial parameters:
Omega_m = 0.31
Omega_nu = 0
Omega_de = 0.69
Omega_k = 0
H_0 = 100
w_de = -1
zeff = 0
beta = 0
fgrowth = 0
b_1 = 2
gamma = 0.55
Lx = 3500 Ly = 3500 Lz = 3500
nx = 700 ny = 700 nz = 700
xoffset = -685.467585 yoffset = -31.7331281 zoffset = 572.489161
bins = 400 dk = 0.001
kx_ny = 0.628318531 ky_ny = 0.628318531 kz_ny = 0.628318531
############################
A(data) = 8.02956685 (not used)
A(ran) = 8.02264356 (used)
Ngal = 476862
weighted Ngal = 0
Nran = 23820508
weighted Nran = 0
SN(data) = 3495.2485
SN(ran) = 69.8801349
SN(data+ran) = 3565.12863
############################
13 columns: k_central k_mean P_0(k) sigma^{lin}_{P_0(k)} P^img_1(k) sigma^{lin}_{P_1(k)} P_2(k) sigma^{lin}_{P_2(k)} P^img_3(k) sigma^{lin}_{P_3(k)} P_4(k) sigma^{lin}_{P_4(k)} N_modes
### header ###
0.00050000 0 0 0 0 0 0 0 0 0 0 0 0
0.00150000 0.00179520 10424.74882930 0 -18687.64838241 0 1093.56923304 0 1106.58917979 0 -22972.08447099 0 3
0.00250000 0.00253879 19423.84725961 0 -17174.83664244 0 2540.04667502 0 -23738.06790194 0 17098.65904769 0 6
0.00350000 0.00331552 31839.35580200 0 -6240.24047222 0 13631.36053073 0 -40964.39085479 0 -32416.99898779 0 7
0.00450000 0.00420575 38487.17962312 0 6202.28454274 0 18933.56471664 0 -37121.51907999 0 15221.23565144 0 24
0.00550000 0.00557378 31982.41023866 0 8356.03994949 0 35940.10202184 0 -22408.61386097 0 23682.48483135 0 45
0.00650000 0.00659388 33427.57007399 0 -3366.44071019 0 38246.68872806 0 -7955.45430987 0 1117.83976904 0 40
0.00750000 0.00754703 46524.02659273 0 -13152.70392882 0 50193.50576088 0 22219.94144606 0 -20932.23006965 0 57
0.00850000 0.00846663 53627.25513364 0 -7398.66031172 0 49082.39796533 0 -1245.61439745 0 -20894.14127227 0 75
0.00950000 0.00948925 54427.89494128 0 5215.99506487 0 40282.66781571 0 5676.03908876 0 -12741.69923155 0 112
0.01050000 0.01054430 56621.87610409 0 2464.61092603 0 30254.35250421 0 -13942.16068839 0 -8428.07649476 0 105
0.01150000 0.01145670 56478.48949769 0 -2933.16956771 0 41811.09153368 0 -1645.34746805 0 -7087.46155036 0 144
0.01250000 0.01249090 68613.31460593 0 -4094.56786259 0 36331.73015067 0 4352.40909064 0 -8109.00531046 0 169
0.01350000 0.01339930 67556.35047874 0 -1147.23679143 0 47626.05508193 0 -701.44727852 0 -15176.94635217 0 180
0.01450000 0.01448870 73784.75463573 0 6084.86253804 0 43923.69110907 0 -1895.53771965 0 -23807.49137856 0 267
0.01550000 0.01550050 70589.72458606 0 1462.97520596 0 34274.27075287 0 7332.70247277 0 -8274.64728974 0 238
0.01650000 0.01653350 68898.09480027 0 -980.38682151 0 33219.74253714 0 14740.91820081 0 -28445.79896834 0 315
0.01750000 0.01747870 71223.72590518 0 -7306.13996553 0 13024.37568417 0 11085.50088518 0 -27126.64218944 0 297
0.01850000 0.01844180 74538.44778613 0 -9906.97370381 0 24027.38774946 0 10467.68730495 0 -50727.96687988 0 388
0.01950000 0.01947590 78646.16957060 0 3434.80124362 0 -155.18084680 0 -3865.06071374 0 -41446.25843090 0 399
0.02050000 0.02045430 74480.53952733 0 7145.54696636 0 -1404.26973977 0 -5838.35937060 0 -32935.62668230 0 462
0.02150000 0.02154770 66467.83022582 0 6482.64687947 0 7112.19712401 0 -16898.80358471 0 -30800.88245726 0 571
0.02250000 0.02255340 64146.07443460 0 5210.71356593 0 16546.81437873 0 -6029.57842022 0 -18580.57900142 0 510
0.02350000 0.02348930 66506.80480918 0 -3306.60586687 0 24253.04172926 0 2198.39902042 0 -15704.54262978 0 555
0.02450000 0.02439640 63535.87861385 0 -2948.00648296 0 28249.92954229 0 3030.69460471 0 2441.81300923 0 592
0.02550000 0.02547300 70433.05118988 0 1195.24639185 0 34446.77757355 0 7243.95778935 0 3542.04778181 0 837
0.02650000 0.02652900 69983.84697198 0 -55.16586539 0 30578.10728191 0 16436.86619328 0 18601.61641857 0 723
0.02750000 0.02749970 65749.23634509 0 706.08768985 0 26363.98045593 0 10931.08624326 0 10591.40946247 0 826
0.02850000 0.02848090 66318.79673376 0 2591.77657657 0 26917.81814336 0 16289.71499644 0 15085.04605617 0 831
0.02950000 0.02946900 64630.82081516 0 3626.21959508 0 22959.68346719 0 3735.52558569 0 24911.95577922 0 996
0.03050000 0.03053250 61393.16231494 0 2478.93851435 0 14307.99030040 0 7825.75309695 0 15921.44947297 0 1041
0.03150000 0.03150510 58988.69625732 0 2505.30171974 0 10191.22242655 0 0.38850352 0 18197.58728594 0 1036
0.03250000 0.03246190 56004.59399545 0 2177.85985788 0 8538.52293482 0 -1417.78904838 0 9766.58769743 0 1059
0.03350000 0.03345080 54402.98221043 0 3273.72106215 0 12232.26156665 0 -1801.17936755 0 7351.14896592 0 1302
0.03450000 0.03451200 53886.45825764 0 -354.04755117 0 15262.20325327 0 -1612.34086777 0 6789.40563857 0 1339
0.03550000 0.03553350 51888.34652087 0 279.33814669 0 11935.41253826 0 2432.86657078 0 727.48827926 0 1365
0.03650000 0.03647120 53317.11931547 0 2147.39989230 0 12410.41527298 0 3145.73605958 0 3886.27528810 0 1308
0.03750000 0.03744890 53102.53766048 0 -1500.42180850 0 14189.07353185 0 -1936.50532148 0 3250.63526491 0 1579
0.03850000 0.03847530 54072.69476109 0 1327.53852878 0 14164.16080101 0 2751.01875212 0 2217.33269586 0 1662
0.03950000 0.03950240 51693.58432731 0 2568.84579187 0 14494.00535735 0 -2488.95896831 0 3501.75559179 0 1683
0.04050000 0.04050350 50256.83945884 0 236.53143171 0 12831.38506258 0 861.24971369 0 1199.77497270 0 1822
0.04150000 0.04152450 49685.95039119 0 -291.46123513 0 12628.20790216 0 -247.67240494 0 -6582.41959841 0 1887
0.04250000 0.04250150 48692.43068522 0 2971.11442486 0 14751.43690939 0 297.53219083 0 -4280.85972766 0 1920
0.04350000 0.04349210 47354.00806114 0 2080.21302530 0 13840.51674656 0 -2691.07318555 0 -9638.82414135 0 2005
0.04450000 0.04448520 43675.78175638 0 4241.77442105 0 14951.62454211 0 -85.11783270 0 -3152.88878141 0 2151
0.04550000 0.04548030 41982.04822888 0 2244.08343262 0 16984.28193231 0 -1449.76592245 0 -5562.08272172 0 2274
0.04650000 0.04648670 39639.25502050 0 863.73323615 0 16006.15275784 0 1762.17156721 0 -4563.71333748 0 2311
0.04750000 0.04749250 40665.65953119 0 -264.92751594 0 14888.18012090 0 2628.28203150 0 -4404.41580031 0 2568
0.04850000 0.04851840 40590.69989216 0 -677.42919152 0 15396.73199982 0 1081.07079278 0 -5696.81077012 0 2493
0.04950000 0.04949480 40542.86744895 0 758.70116292 0 14267.79776131 0 -269.56571280 0 -7295.21158094 0 2644
0.05050000 0.05050630 39121.07021899 0 2194.01437979 0 13286.12544289 0 74.65149622 0 -5597.60273974 0 2829
0.05150000 0.05149060 37026.07564005 0 1141.81135227 0 11923.67587395 0 521.78662878 0 -4033.10538752 0 2784
0.05250000 0.05249300 36330.06930195 0 264.47244339 0 10429.81995407 0 3184.50026877 0 -3545.67950435 0 3055
0.05350000 0.05348950 37152.07869649 0 -251.84777863 0 10404.36467931 0 3162.23382356 0 -1809.14036909 0 3009
0.05450000 0.05448610 37003.04520443 0 258.30737293 0 11799.33366624 0 -1938.63120785 0 -3358.84509536 0 3336
0.05550000 0.05550870 37278.30319942 0 894.13894733 0 14555.01386710 0 1833.37768812 0 4020.67116675 0 3349
0.05650000 0.05647670 35901.90250121 0 728.97307802 0 15389.31354219 0 332.17638795 0 6656.44916215 0 3324
0.05750000 0.05747970 37532.63450050 0 -1117.15328490 0 14757.52668804 0 1903.10011750 0 7383.13691232 0 3639
0.05850000 0.05849280 36807.84011787 0 -388.37618704 0 16303.66612571 0 2860.76763572 0 7491.08100698 0 3846
0.05950000 0.05951020 37743.45156505 0 1799.99462879 0 15201.63763651 0 169.43535777 0 3255.40743690 0 3787
0.06050000 0.06049470 36983.89008249 0 300.91146436 0 14882.20106549 0 1114.40734835 0 5583.30836840 0 3930
0.06150000 0.06148310 35128.72205913 0 819.77942832 0 13545.32856689 0 -2136.41614608 0 2720.90202861 0 4083
0.06250000 0.06249100 35452.03394383 0 1000.64806870 0 13293.65462376 0 -2354.03161807 0 1353.28168398 0 4303
0.06350000 0.06350600 34663.35224700 0 480.72823388 0 13358.98134019 0 -565.12481535 0 -894.66820446 0 4470
0.06450000 0.06451750 35217.07921118 0 71.53474751 0 14984.06645383 0 844.49728624 0 255.62122693 0 4479
0.06550000 0.06550280 34167.09064863 0 182.00244644 0 12539.29713387 0 2282.94729273 0 -1383.70843259 0 4636
0.06650000 0.06648880 34000.11999036 0 418.54052154 0 12602.63083183 0 2620.89679085 0 -1412.69577896 0 4653
0.06750000 0.06749660 33157.95896466 0 534.43343818 0 12154.09095343 0 1445.08232906 0 -1067.84711525 0 5220
0.06850000 0.06852730 33402.21445015 0 846.03523216 0 12038.16371258 0 1842.31305425 0 131.41520881 0 5029
0.06950000 0.06949320 31591.00355632 0 782.70485590 0 10781.95310028 0 1980.97177795 0 1413.51513100 0 5040
0.07050000 0.07048030 30135.87862865 0 2006.78136711 0 9329.71804939 0 752.47298021 0 -404.50413537 0 5475
0.07150000 0.07148790 29077.47509924 0 1317.21912205 0 9219.67021302 0 878.33431089 0 461.73808959 0 5509
0.07250000 0.07249820 28052.62071403 0 678.86195035 0 8738.09051735 0 -752.42869091 0 -444.86275933 0 5916
0.07350000 0.07351270 27514.94862083 0 652.50095942 0 8660.36279713 0 -825.95667833 0 759.11305340 0 5721
0.07450000 0.07449140 27719.56518348 0 677.84440370 0 9475.04231263 0 -485.04976226 0 -1705.83557854 0 6028
0.07550000 0.07549160 27005.84312567 0 693.60364361 0 10140.46688958 0 -288.23697414 0 117.82614456 0 6183
0.07650000 0.07648840 26569.81497431 0 627.99347567 0 10537.75297640 0 616.81264207 0 743.65498072 0 6330
0.07750000 0.07749960 26047.42268937 0 473.05289832 0 9912.67595109 0 2178.71242689 0 -257.80026045 0 6583
0.07850000 0.07848650 25155.32547873 0 413.76059892 0 10094.67175413 0 2062.57481187 0 439.53475663 0 6549
0.07950000 0.07947320 24962.77775013 0 611.25544224 0 8989.45443539 0 1201.14794098 0 44.69764661 0 6828
0.08050000 0.08048110 24497.96155425 0 522.02468376 0 8560.21361914 0 531.11506244 0 1791.63502355 0 7147
0.08150000 0.08149960 23893.30189590 0 -12.30910350 0 8002.62241360 0 762.05829181 0 1670.07196937 0 7386
0.08250000 0.08250610 24335.64127241 0 -255.98661364 0 7697.94525157 0 359.67229218 0 1026.04687460 0 7227
0.08350000 0.08350160 24063.59425161 0 394.35634967 0 6898.94414800 0 536.28140920 0 389.16785826 0 7798
0.08450000 0.08449610 23560.57853510 0 722.57327427 0 7413.97333694 0 -1251.94776724 0 107.86614549 0 7371
0.08550000 0.08548940 23332.48864384 0 599.91073823 0 6619.85512862 0 40.68116079 0 536.49067614 0 8256
0.08650000 0.08650700 22948.38969588 0 -7.19077741 0 7240.81324910 0 299.39344863 0 -38.40779105 0 8037
0.08750000 0.08749060 23114.14239841 0 -86.39004283 0 6868.20737431 0 587.90390920 0 -655.19153435 0 8155
0.08850000 0.08849210 22927.57372522 0 639.50980071 0 7398.44993755 0 -82.66409480 0 -975.90363719 0 8718
0.08950000 0.08949900 22332.32554297 0 955.78633023 0 7753.51724983 0 -684.61070140 0 -248.02118317 0 8571
0.09050000 0.09049190 21398.92856076 0 744.26838752 0 7670.22015022 0 127.50889261 0 715.91437812 0 8932
0.09150000 0.09150830 21064.65507448 0 368.71395262 0 7858.91470978 0 701.59786213 0 116.54729104 0 9285
0.09250000 0.09250820 20571.82589680 0 289.12718906 0 7473.79710794 0 1724.99070047 0 1019.54188377 0 9204
0.09350000 0.09350330 20158.93890432 0 645.80441737 0 7131.73977731 0 725.63587931 0 -714.84589878 0 9349
0.09450000 0.09448040 19458.94652928 0 908.07125365 0 6336.69149371 0 741.37076011 0 1310.36535299 0 9564
0.09550000 0.09549270 19137.29549330 0 379.03335935 0 6045.52256796 0 344.00605979 0 828.18110839 0 10155
0.09650000 0.09649430 18536.73259514 0 24.53881843 0 6574.02677620 0 773.70194859 0 1436.88880869 0 9913
0.09750000 0.09749140 18605.60245551 0 154.97379432 0 5779.07814352 0 741.46930381 0 598.40158036 0 10476
0.09850000 0.09850240 18656.42442643 0 0.08690391 0 5388.13649882 0 767.55348661 0 1123.79667979 0 10575
0.09950000 0.09950330 18361.23624676 0 159.01519288 0 5232.98001114 0 -127.89753121 0 641.25258464 0 10882
0.10050000 0.10051200 17948.01708453 0 232.72587367 0 5196.20882042 0 -47.17164687 0 1130.31827911 0 10875
0.10150000 0.10150300 17889.22303974 0 353.06654319 0 5129.44270176 0 21.22387511 0 -1306.77791975 0 11118
0.10250000 0.10250800 17417.87417221 0 442.47888780 0 4927.83781146 0 -396.43683950 0 -1806.42764951 0 11575
0.10350000 0.10349800 16781.21549514 0 580.05584537 0 4264.70520575 0 182.59260135 0 -1686.89083077 0 11364
0.10450000 0.10450100 16866.14022650 0 60.93642892 0 4169.08460861 0 507.49890083 0 -1501.41831773 0 12093
0.10550000 0.10551000 16484.80935975 0 186.73697253 0 4218.63326218 0 580.66371600 0 -1840.25360183 0 12067
0.10650000 0.10649700 16173.89847884 0 683.35177806 0 4854.30650234 0 662.62660047 0 -1752.26183650 0 12054
0.10750000 0.10749900 15666.45383240 0 482.17095781 0 4426.90369202 0 -271.64288094 0 128.43675343 0 12807
0.10850000 0.10850100 15468.25921815 0 256.98312288 0 4640.05701710 0 -40.32551771 0 -4.98245759 0 12736
0.10950000 0.10950300 15527.49615593 0 -53.06655260 0 5356.94575981 0 -137.92130687 0 540.72251868 0 12933
0.11050000 0.11050200 15442.34997807 0 -29.55391724 0 5157.62176842 0 -232.69487116 0 556.02890051 0 13428
0.11150000 0.11150900 15467.92704840 0 189.17952739 0 4738.94395006 0 396.48666497 0 747.49486297 0 13453
0.11250000 0.11250000 15404.15045745 0 -85.39386576 0 4576.54616194 0 367.09074980 0 781.02186252 0 13668
0.11350000 0.11349100 15743.84938288 0 88.81443907 0 4649.96674781 0 542.90819560 0 -525.40727899 0 13791
0.11450000 0.11448600 15033.44902252 0 365.45536743 0 4557.04779794 0 337.30398158 0 -80.63165886 0 14205
0.11550000 0.11549300 15036.10638047 0 327.58137315 0 4362.68420807 0 -5.54878486 0 -50.19837758 0 14776
0.11650000 0.11649800 14754.98005333 0 172.45588798 0 4456.26749744 0 -102.91072652 0 897.11075932 0 14553
0.11750000 0.11747300 14803.47683603 0 248.76081447 0 4635.19626651 0 340.37544448 0 359.27036679 0 14568
0.11850000 0.11849100 14531.76198498 0 211.05179783 0 4473.99428947 0 -425.57698396 0 75.14897578 0 16015
0.11950000 0.11950300 14137.36577494 0 380.36868173 0 4608.43445742 0 428.11476081 0 348.66418684 0 15270
0.12050000 0.12050700 14023.54227581 0 158.37742697 0 4319.62393685 0 282.96211860 0 216.76843914 0 15999
0.12150000 0.12150000 13809.18206732 0 9.98603010 0 4174.25538430 0 639.50758625 0 -15.41024024 0 15670
0.12250000 0.12250700 13778.95462056 0 181.87843640 0 4132.16947767 0 4.81124623 0 -1058.91949975 0 16887
0.12350000 0.12352200 13838.19155834 0 87.09723221 0 4052.41552200 0 201.01584262 0 -54.67192898 0 16407
0.12450000 0.12449800 13667.45630964 0 17.15147404 0 3755.64399989 0 29.26780836 0 -213.18654206 0 16306
0.12550000 0.12549900 13607.77647887 0 49.46428245 0 3362.33287768 0 295.11067339 0 157.94560631 0 17523
0.12650000 0.12650100 13634.57150493 0 0.54029070 0 3352.30135139 0 356.62629562 0 -677.42365536 0 17154
0.12750000 0.12750600 13640.21839059 0 103.24677158 0 2870.35626901 0 495.34480988 0 -692.43219165 0 18007
0.12850000 0.12850300 13347.35539913 0 24.93830791 0 3180.11562814 0 65.77835656 0 -642.80271011 0 17496
0.12950000 0.12949900 13214.48750131 0 240.34916930 0 3006.61229823 0 -296.72280388 0 -978.69497028 0 18405
0.13050000 0.13049000 13402.49557673 0 280.91263128 0 3581.80850023 0 -398.55497524 0 -1306.33502675 0 18100
0.13150000 0.13148800 13039.43404593 0 201.82522956 0 3725.54942103 0 -825.61011457 0 -323.24102183 0 19059
0.13250000 0.13249300 13038.76970644 0 247.20847453 0 4237.19047857 0 -267.30474407 0 30.81350491 0 18957
0.13350000 0.13349100 13060.47146308 0 111.68321875 0 4604.86916883 0 104.05494056 0 211.80693039 0 19468
0.13450000 0.13450700 12987.28339603 0 6.15505001 0 4758.76341148 0 714.62998845 0 210.76723909 0 19953
0.13550000 0.13551000 12926.05343978 0 136.25492199 0 4387.27584149 0 597.32867208 0 496.20180782 0 19956
0.13650000 0.13649900 12712.02540104 0 267.01354193 0 4368.80720369 0 285.74902276 0 657.18566005 0 19723
0.13750000 0.13749600 12468.65570153 0 524.69089958 0 4347.22724262 0 223.43176421 0 1129.45463778 0 20946
0.13850000 0.13851100 12122.31338120 0 218.20341243 0 4001.93679315 0 126.09717120 0 965.35614057 0 20955
0.13950000 0.13949800 11802.21247069 0 223.84144023 0 4105.82841693 0 312.12772941 0 1254.50547428 0 20506
0.14050000 0.14048300 11800.21945222 0 257.15585115 0 3817.23934285 0 -301.91683146 0 220.49649090 0 21447
0.14150000 0.14148400 11394.52947087 0 372.21170003 0 4351.19113491 0 -147.95172592 0 592.00509831 0 21771
0.14250000 0.14249400 11224.23711516 0 402.76135144 0 4074.06191702 0 -78.06797277 0 556.06765365 0 22470
0.14350000 0.14350900 10999.20318554 0 -9.32418189 0 4247.44345136 0 200.53308926 0 966.57963246 0 22519
0.14450000 0.14449900 11128.90439847 0 -87.90495831 0 4146.13167927 0 191.63315457 0 463.19188584 0 22218
0.14550000 0.14550500 11087.05101066 0 82.25652252 0 4244.15497088 0 186.90416464 0 568.90158534 0 23559
0.14650000 0.14650700 11140.75178603 0 168.02585082 0 4324.97186974 0 215.61138119 0 744.58394878 0 23044
0.14750000 0.14750500 10927.18878492 0 53.87881835 0 4001.63784038 0 70.51011457 0 916.12304826 0 23649
0.14850000 0.14849900 10868.89299475 0 149.72551236 0 4104.73225677 0 57.63610106 0 788.56654465 0 23640
0.14950000 0.14949500 10908.02259066 0 131.16165257 0 4162.86196207 0 259.09350799 0 665.63716559 0 24457
0.15050000 0.15050000 10559.86440906 0 144.09634242 0 3970.33637812 0 -3.09712855 0 695.10394363 0 24591
0.15150000 0.15149900 10534.03267526 0 184.35642270 0 3811.11634723 0 482.47655397 0 786.61338656 0 25020
0.15250000 0.15250500 10374.12616023 0 92.70680413 0 3490.91578580 0 507.11026223 0 943.06422901 0 25297
0.15350000 0.15350100 10216.73306294 0 144.11737984 0 3350.99481706 0 500.00847309 0 1011.25867757 0 25452
0.15450000 0.15450400 10077.84182041 0 167.39805000 0 3124.01215828 0 541.25509750 0 700.88812611 0 26061
0.15550000 0.15549900 9922.81820062 0 222.86596841 0 3028.65729694 0 -100.09747023 0 568.27599899 0 26128
0.15650000 0.15649500 9746.49142789 0 288.44513385 0 3135.52737609 0 -257.98738274 0 531.15713727 0 26331
0.15750000 0.15749700 9472.06385726 0 249.78279005 0 3182.42974402 0 -653.41553345 0 556.15623225 0 27345
0.15850000 0.15849900 9407.06931057 0 58.75385225 0 3414.95963754 0 -288.87474005 0 374.92774131 0 26980
0.15950000 0.15949700 9264.93387687 0 229.56693939 0 3268.33991229 0 -29.72420959 0 203.03100573 0 27777
0.16050000 0.16050000 9314.91435111 0 16.74301597 0 3220.47425210 0 504.96333845 0 -52.91685477 0 28224
0.16150000 0.16150500 9114.74886303 0 -0.03072614 0 3052.62888018 0 426.80379755 0 192.81346439 0 28075
0.16250000 0.16249700 9162.06090698 0 145.44052266 0 2613.30117602 0 552.69723797 0 -59.97269376 0 28590
0.16350000 0.16349900 8958.92803586 0 27.97622167 0 2585.31033888 0 686.52510636 0 386.87477979 0 29163
0.16450000 0.16449100 8827.52168491 0 127.53878789 0 2319.47489231 0 283.31421853 0 320.80289590 0 28996
0.16550000 0.16550500 8818.55310181 0 179.51117335 0 2470.52354749 0 -194.95485201 0 430.35690659 0 30777
0.16650000 0.16650700 8588.34839651 0 323.59755068 0 2735.71679922 0 -526.10594269 0 416.64272507 0 29211
0.16750000 0.16749900 8413.47209832 0 271.54765894 0 2732.73834384 0 -375.24108810 0 832.01213278 0 30922
0.16850000 0.16850800 8274.22654140 0 75.89680059 0 2954.00768302 0 -105.54416825 0 757.73454896 0 30867
0.16950000 0.16949900 8414.29145036 0 -167.30725694 0 2883.65413112 0 348.54239127 0 527.09359406 0 30852
0.17050000 0.17049200 8531.08233254 0 -158.47264897 0 2915.14382290 0 382.95074788 0 470.41325608 0 31257
0.17150000 0.17149500 8539.04333409 0 111.29790184 0 2664.10100229 0 287.30357716 0 345.80752704 0 32608
0.17250000 0.17250900 8446.73336208 0 83.98945208 0 2562.72279625 0 185.37286211 0 329.97742425 0 32361
0.17350000 0.17350400 8387.62929219 0 55.10806785 0 2538.89515324 0 10.12443416 0 437.88608746 0 32508
0.17450000 0.17449800 8323.60911009 0 155.14873706 0 2381.11452457 0 98.00358288 0 -21.28610157 0 32791
0.17550000 0.17549800 8274.33726465 0 70.19577127 0 2452.50887501 0 -75.34252001 0 345.87728268 0 33633
0.17650000 0.17650100 8081.02554564 0 129.32364665 0 2182.84240405 0 136.53615904 0 73.44195546 0 33984
0.17750000 0.17750300 8037.67739398 0 74.65315707 0 2017.10077384 0 310.42812755 0 137.34443875 0 34069
0.17850000 0.17849800 7883.65028342 0 73.11177873 0 1970.09875498 0 273.20075704 0 -145.04191896 0 34536
