### header ###
fiducial parameters:
Omega_m = 0.31
Omega_nu = 0
Omega_de = 0.69
Omega_k = 0
H_0 = 100
w_de = -1
zeff = 0
beta = 0
fgrowth = 0
b_1 = 2
gamma = 0.55
Lx = 3500 Ly = 3500 Lz = 3500
nx = 700 ny = 700 nz = 700
xoffset = -685.467585 yoffset = -31.7331281 zoffset = 572.489161
bins = 400 dk = 0.001
kx_ny = 0.628318531 ky_ny = 0.628318531 kz_ny = 0.628318531
############################
A(data) = 8.02759461 (not used)
A(ran) = 8.0255957 (used)
Ngal = 477473
weighted Ngal = 0
Nran = 23820508
weighted Nran = 0
SN(data) = 3488.37673
SN(ran) = 69.9058492
SN(data+ran) = 3558.28258
############################
13 columns: k_central k_mean P_0(k) sigma^{lin}_{P_0(k)} P^img_1(k) sigma^{lin}_{P_1(k)} P_2(k) sigma^{lin}_{P_2(k)} P^img_3(k) sigma^{lin}_{P_3(k)} P_4(k) sigma^{lin}_{P_4(k)} N_modes
### header ###
0.00050000 0 0 0 0 0 0 0 0 0 0 0 0
0.00150000 0.00179520 28472.70471765 0 -43831.23719684 0 2878.23976428 0 -49681.96435426 0 59327.50939677 0 3
0.00250000 0.00253879 35419.59203211 0 -15897.64397461 0 700.39540766 0 -5697.75191773 0 28518.54414239 0 6
0.00350000 0.00331552 52277.87090799 0 -2228.39394835 0 15545.10115239 0 -41974.07615501 0 -19071.85805362 0 7
0.00450000 0.00420575 48637.84412386 0 5407.54628423 0 24441.38197442 0 -54354.92832072 0 15865.75567913 0 24
0.00550000 0.00557378 62674.56246620 0 -3739.55591192 0 52809.56394578 0 -32110.95992980 0 6073.36946487 0 45
0.00650000 0.00659388 84594.33318643 0 -33466.32321085 0 62793.03634176 0 -7098.17956079 0 15827.99905150 0 40
0.00750000 0.00754703 96310.07080029 0 -4629.93691222 0 70611.31561946 0 16100.93185828 0 -12657.21739319 0 57
0.00850000 0.00846663 111171.67734162 0 1822.99184744 0 69611.48468833 0 19281.34643919 0 10398.02023719 0 75
0.00950000 0.00948925 107617.23962834 0 807.53565153 0 59401.36180331 0 38385.20351154 0 -10256.13946696 0 112
0.01050000 0.01054430 102325.33270451 0 1162.54981666 0 41405.40155232 0 31173.68763391 0 -6490.43072382 0 105
0.01150000 0.01145670 104926.66469741 0 1401.91133459 0 27946.54784226 0 38587.82705572 0 -20812.09534537 0 144
0.01250000 0.01249090 97153.67122822 0 4139.59900762 0 9763.42101253 0 10753.43079154 0 -2193.32789565 0 169
0.01350000 0.01339930 86058.31597395 0 11636.23832166 0 3899.22990813 0 -619.42460349 0 8608.36715978 0 180
0.01450000 0.01448870 92097.05120679 0 5657.39329376 0 -7261.30812234 0 -6676.96618004 0 -6827.12904923 0 267
0.01550000 0.01550050 68749.50420120 0 1990.37218172 0 3544.12937888 0 -20549.57052392 0 3505.15479551 0 238
0.01650000 0.01653350 83370.84129397 0 6500.71691357 0 5294.71929433 0 -1748.07649772 0 -19632.00696620 0 315
0.01750000 0.01747870 71681.34508993 0 684.23756405 0 24116.96285724 0 -18130.15682780 0 -11800.66234522 0 297
0.01850000 0.01844180 72460.50458742 0 7412.68894726 0 16844.10630011 0 7457.31041628 0 -25764.30334376 0 388
0.01950000 0.01947590 80075.71742794 0 -4857.65034444 0 18374.52303654 0 -4261.78211200 0 -5635.60295852 0 399
0.02050000 0.02045430 80099.19075655 0 -6546.42347043 0 21918.33131800 0 -4047.21152934 0 -24485.44982720 0 462
0.02150000 0.02154770 82025.99672150 0 6672.33794826 0 31512.94366635 0 -3650.25761226 0 -13307.71647628 0 571
0.02250000 0.02255340 73851.85292413 0 9302.05938199 0 20173.55437308 0 335.68520769 0 -22173.54840507 0 510
0.02350000 0.02348930 65163.39963894 0 5727.33716964 0 24035.91343957 0 4780.38766185 0 -8474.72419922 0 555
0.02450000 0.02439640 67980.42051930 0 4097.56846261 0 18301.77786249 0 6162.44631804 0 -10320.79077158 0 592
0.02550000 0.02547300 60712.87867808 0 74.59635604 0 14215.42566492 0 9782.24396473 0 -9269.21886658 0 837
0.02650000 0.02652900 66852.81495977 0 -6682.57984872 0 9372.85582688 0 4660.00934642 0 -12086.66049528 0 723
0.02750000 0.02749970 66762.02189625 0 -2657.65690925 0 11907.06738672 0 832.18375381 0 -7759.55166686 0 826
0.02850000 0.02848090 69768.26880777 0 1802.90665022 0 7817.72566145 0 -1865.94139541 0 -7826.68317223 0 831
0.02950000 0.02946900 68511.78138735 0 -1650.86148581 0 15547.86923359 0 -9319.88582495 0 -5438.12804538 0 996
0.03050000 0.03053250 69821.85885989 0 4646.53432712 0 20108.67054964 0 -4313.63380912 0 -10738.49422536 0 1041
0.03150000 0.03150510 67424.25764366 0 2818.21669144 0 27211.45619755 0 -5887.15510607 0 141.89073532 0 1036
0.03250000 0.03246190 64096.13824967 0 3609.04641929 0 21041.51391561 0 6023.38899064 0 3513.12686938 0 1059
0.03350000 0.03345080 60684.75497304 0 4900.34522894 0 18644.90920861 0 926.70265463 0 -445.30454509 0 1302
0.03450000 0.03451200 60860.47276792 0 961.34463729 0 24001.92140237 0 5235.30519935 0 -7979.21551893 0 1339
0.03550000 0.03553350 52450.93134491 0 3638.98598560 0 17418.42778845 0 6442.31040016 0 -2370.70653925 0 1365
0.03650000 0.03647120 48436.65998191 0 5366.29080196 0 13571.79142321 0 3304.10352146 0 -5450.56226615 0 1308
0.03750000 0.03744890 49338.05794539 0 1884.63147971 0 14830.38258534 0 4240.97721366 0 -7483.52968145 0 1579
0.03850000 0.03847530 45788.27060853 0 148.32375604 0 14769.26335234 0 -3280.53054192 0 -6744.18626401 0 1662
0.03950000 0.03950240 46647.59373771 0 2405.19683106 0 12566.64577617 0 -806.39520208 0 -3268.39527392 0 1683
0.04050000 0.04050350 44500.66995537 0 190.51152806 0 14026.97469650 0 -2136.65973723 0 -1403.47253239 0 1822
0.04150000 0.04152450 45498.84003777 0 -245.17338123 0 19136.18826082 0 1842.33519890 0 -5118.83541458 0 1887
0.04250000 0.04250150 45865.99832876 0 620.13544675 0 17292.64617851 0 2940.14513234 0 -1075.65199702 0 1920
0.04350000 0.04349210 45199.99799092 0 -169.52947253 0 13557.17595445 0 4561.59852344 0 -2456.64992449 0 2005
0.04450000 0.04448520 43451.34573231 0 798.47627537 0 13858.67535926 0 6111.93437222 0 -778.32907313 0 2151
0.04550000 0.04548030 43648.21166759 0 486.81469084 0 12145.45454007 0 4145.46733978 0 -5106.57835101 0 2274
0.04650000 0.04648670 42385.30229877 0 2071.32194847 0 9228.35091567 0 -587.69242779 0 -1680.10349566 0 2311
0.04750000 0.04749250 40753.57379025 0 1279.92753206 0 8583.26619941 0 -3447.80015295 0 -3924.20907293 0 2568
0.04850000 0.04851840 40352.20201557 0 1302.73652119 0 9769.23398306 0 -3038.69989555 0 -3261.35327533 0 2493
0.04950000 0.04949480 38789.01119767 0 1202.62056018 0 8866.27482178 0 -1874.87676154 0 -5425.31736556 0 2644
0.05050000 0.05050630 39727.39072605 0 333.25261793 0 9182.95438392 0 371.11221818 0 -7694.21387810 0 2829
0.05150000 0.05149060 37288.37901500 0 348.39955828 0 9703.99584523 0 194.68025836 0 -9656.40699316 0 2784
0.05250000 0.05249300 38531.24747590 0 1027.55713970 0 8550.31496075 0 -80.92175377 0 -11651.62885316 0 3055
0.05350000 0.05348950 37424.56861027 0 642.35760266 0 10710.82448564 0 -1143.05145265 0 -7367.29241551 0 3009
0.05450000 0.05448610 36120.58091638 0 1302.67008724 0 11398.95840080 0 244.99400956 0 -6963.00861940 0 3336
0.05550000 0.05550870 34652.72281517 0 697.87313206 0 10928.00813696 0 1697.64205817 0 -3627.80293753 0 3349
0.05650000 0.05647670 35425.79253401 0 38.91922174 0 11105.54179310 0 4554.31293370 0 -3205.19444385 0 3324
0.05750000 0.05747970 33941.54739207 0 -192.88543450 0 7436.16227588 0 3688.34640964 0 -1706.36705013 0 3639
0.05850000 0.05849280 34656.04451262 0 1151.52178114 0 9293.46725793 0 1675.60813178 0 -1029.94876186 0 3846
0.05950000 0.05951020 32975.59777489 0 1585.44619078 0 8444.90642848 0 -1027.22939889 0 1629.14865684 0 3787
0.06050000 0.06049470 32308.04731158 0 1152.25255458 0 12340.43818013 0 -1045.64378229 0 4130.27611013 0 3930
0.06150000 0.06148310 31473.41546675 0 235.59471303 0 9684.57498750 0 -1333.07469119 0 1431.52980348 0 4083
0.06250000 0.06249100 31983.07457815 0 7.93573450 0 13035.89090199 0 -0.06978565 0 3007.55344584 0 4303
0.06350000 0.06350600 32104.64870466 0 -170.59684464 0 12288.06608373 0 -2116.12057469 0 1486.45960690 0 4470
0.06450000 0.06451750 32537.90877481 0 721.22245064 0 13146.94631992 0 427.85123948 0 1582.61167563 0 4479
0.06550000 0.06550280 31730.51484904 0 965.68166692 0 12724.20495834 0 675.09957438 0 -419.80830273 0 4636
0.06650000 0.06648880 31904.01817894 0 11.41778135 0 12572.95700132 0 1151.83180623 0 915.33912767 0 4653
0.06750000 0.06749660 31475.51920846 0 -34.21835551 0 12484.93201901 0 1723.21912850 0 -101.56997871 0 5220
0.06850000 0.06852730 31716.45299652 0 214.50636318 0 12064.07295265 0 1469.78468573 0 -414.04183597 0 5029
0.06950000 0.06949320 31112.67912416 0 354.80157649 0 11565.48616607 0 695.96315603 0 2584.22525105 0 5040
0.07050000 0.07048030 30178.39635596 0 734.06081127 0 11079.41110653 0 2680.32195815 0 935.53726260 0 5475
0.07150000 0.07148790 29741.59314186 0 326.77198621 0 9738.67436657 0 2709.98471634 0 1603.41657396 0 5509
0.07250000 0.07249820 29175.90806688 0 356.41813591 0 8402.97553439 0 504.30896405 0 -639.61277333 0 5916
0.07350000 0.07351270 28625.72424664 0 916.60026546 0 9069.47412685 0 -1380.85177278 0 -1120.53034397 0 5721
0.07450000 0.07449140 27678.70830490 0 913.45240352 0 8137.22866642 0 -1608.16660131 0 -347.24028587 0 6028
0.07550000 0.07549160 26948.59920636 0 796.30720693 0 8951.17740849 0 -957.64537356 0 681.38533318 0 6183
0.07650000 0.07648840 27092.09653601 0 234.23613877 0 9214.15619526 0 464.91806128 0 -1535.69823537 0 6330
0.07750000 0.07749960 26372.39542280 0 758.51404063 0 10015.37176378 0 460.97963534 0 -734.34869171 0 6583
0.07850000 0.07848650 25815.67893091 0 1208.76570045 0 10069.99154211 0 104.00345425 0 -942.06107638 0 6549
0.07950000 0.07947320 24854.49041341 0 774.60545029 0 10575.86391843 0 339.22724440 0 -205.35840841 0 6828
0.08050000 0.08048110 24401.41088183 0 143.43753910 0 9908.61240788 0 929.28139908 0 -570.27455362 0 7147
0.08150000 0.08149960 24114.85911552 0 256.56016007 0 10241.80080632 0 639.34260861 0 -351.88955506 0 7386
0.08250000 0.08250610 24029.60221442 0 770.71463535 0 8679.01966445 0 244.23666255 0 -2084.07726666 0 7227
0.08350000 0.08350160 23074.94636856 0 924.06965578 0 8301.81877485 0 171.70961329 0 -1785.01377331 0 7798
0.08450000 0.08449610 22462.31463634 0 531.75725728 0 7230.21703425 0 -375.08496832 0 -2698.35877528 0 7371
0.08550000 0.08548940 22470.28671021 0 220.17982241 0 7881.43581846 0 -631.49786647 0 -1835.93539515 0 8256
0.08650000 0.08650700 21725.45141966 0 146.60533123 0 7414.54909783 0 1744.50013680 0 -2595.49687771 0 8037
0.08750000 0.08749060 21653.48130834 0 269.07077988 0 7537.93908561 0 1586.37626607 0 -1852.48852076 0 8155
0.08850000 0.08849210 21192.31897964 0 717.09690241 0 6514.09228196 0 1393.99462234 0 -1138.64466738 0 8718
0.08950000 0.08949900 20878.97218727 0 327.43189677 0 7091.83511867 0 163.06102037 0 -548.34581432 0 8571
0.09050000 0.09049190 20647.22842882 0 569.57699716 0 7017.49552984 0 302.93437811 0 983.50257371 0 8932
0.09150000 0.09150830 20076.78225416 0 90.06505816 0 7469.67820310 0 57.22631432 0 726.25814397 0 9285
0.09250000 0.09250820 19955.76174389 0 522.54065410 0 7958.22239108 0 177.94776109 0 2052.64293650 0 9204
0.09350000 0.09350330 19415.98590899 0 814.50125108 0 7242.68447200 0 277.78580675 0 1664.97869995 0 9349
0.09450000 0.09448040 18898.13327722 0 461.43470789 0 7504.52280931 0 748.65856431 0 2483.34529963 0 9564
0.09550000 0.09549270 18467.86273476 0 189.73646532 0 6004.37780893 0 1221.28849982 0 1107.14833220 0 10155
0.09650000 0.09649430 18274.87211318 0 167.66267857 0 5879.92487797 0 198.97632039 0 767.26339170 0 9913
0.09750000 0.09749140 17926.97966737 0 393.73962118 0 5902.49027595 0 -166.15462793 0 222.86153948 0 10476
0.09850000 0.09850240 17541.88421018 0 230.27003202 0 5537.75682410 0 -453.23122243 0 537.10297570 0 10575
0.09950000 0.09950330 17499.80937587 0 139.58769176 0 5666.28437059 0 -156.81180024 0 -371.63483191 0 10882
0.10050000 0.10051200 17195.98478285 0 240.22737373 0 5604.62259368 0 331.00050706 0 -599.81330177 0 10875
0.10150000 0.10150300 17091.46203656 0 472.08074820 0 6063.50402346 0 300.60033204 0 40.80904614 0 11118
0.10250000 0.10250800 16825.06190142 0 212.37604788 0 5415.27476695 0 407.74832654 0 -615.47842693 0 11575
0.10350000 0.10349800 16444.72754390 0 259.50872017 0 5544.06804924 0 711.29500421 0 -23.71171577 0 11364
0.10450000 0.10450100 16393.01978700 0 256.81703801 0 5048.22719922 0 24.11640924 0 -536.04335421 0 12093
0.10550000 0.10551000 16020.87894984 0 410.23959962 0 4774.66326992 0 209.87702417 0 132.41836144 0 12067
0.10650000 0.10649700 15935.06843250 0 222.74970900 0 5188.19245725 0 -216.08527670 0 -266.64040459 0 12054
0.10750000 0.10749900 15520.63131454 0 141.31497443 0 4817.83426439 0 -5.21461102 0 685.27171919 0 12807
0.10850000 0.10850100 15625.92912356 0 61.40910646 0 5071.41264739 0 891.82815315 0 660.61808075 0 12736
0.10950000 0.10950300 15564.58844407 0 -276.67746703 0 4212.43276028 0 757.13996512 0 984.95415550 0 12933
0.11050000 0.11050200 15974.26446236 0 -137.38762081 0 4729.16708724 0 582.18173173 0 387.64762806 0 13428
0.11150000 0.11150900 15631.24383948 0 312.07679671 0 4326.86523728 0 -109.18065189 0 142.14650602 0 13453
0.11250000 0.11250000 15570.45677622 0 709.16911784 0 4665.98840183 0 -371.55289671 0 830.32028155 0 13668
0.11350000 0.11349100 14903.01703615 0 359.17735926 0 4893.77934032 0 -682.44716913 0 341.25680154 0 13791
0.11450000 0.11448600 14717.44487219 0 228.69665466 0 4771.08690900 0 -157.95667863 0 209.38652018 0 14205
0.11550000 0.11549300 14558.22484130 0 -24.88726449 0 4923.97357010 0 334.57133181 0 390.88739031 0 14776
0.11650000 0.11649800 14908.88536831 0 -265.22093254 0 4734.19392271 0 93.28046128 0 -248.10201114 0 14553
0.11750000 0.11747300 14996.02456463 0 -117.51611946 0 4496.09464981 0 603.34980232 0 -341.17375910 0 14568
0.11850000 0.11849100 15090.91438833 0 297.36167703 0 5221.29870846 0 -23.00286553 0 14.49478042 0 16015
0.11950000 0.11950300 14971.11183379 0 186.63289268 0 4950.84610244 0 -345.73777139 0 342.82574996 0 15270
0.12050000 0.12050700 14558.33556455 0 382.10703672 0 5264.03788226 0 341.56571940 0 582.21494871 0 15999
0.12150000 0.12150000 14546.37745374 0 428.46686074 0 5546.86934742 0 211.68402758 0 717.30727659 0 15670
0.12250000 0.12250700 14219.52242510 0 134.82327039 0 5320.61746208 0 810.05792713 0 994.92699846 0 16887
0.12350000 0.12352200 13964.41606128 0 63.52115242 0 4591.53808975 0 865.18703240 0 1437.64172678 0 16407
0.12450000 0.12449800 13979.36369978 0 74.11304907 0 4366.91383615 0 1124.22850046 0 1091.32044387 0 16306
0.12550000 0.12549900 13701.78051658 0 201.76101008 0 3683.92855204 0 110.68848109 0 873.70718635 0 17523
0.12650000 0.12650100 13509.23278798 0 398.87717989 0 3583.04860061 0 84.97256380 0 921.89948012 0 17154
0.12750000 0.12750600 13047.29539655 0 429.50323034 0 3445.69641124 0 -120.38052989 0 1075.81365296 0 18007
0.12850000 0.12850300 12771.48378532 0 316.67402598 0 3722.44917008 0 110.05481194 0 964.54675362 0 17496
0.12950000 0.12949900 12523.68515587 0 226.01383036 0 3665.48205889 0 76.84182352 0 303.90542099 0 18405
0.13050000 0.13049000 12128.84605284 0 237.21680861 0 3676.72046858 0 227.47648447 0 767.63542182 0 18100
0.13150000 0.13148800 12372.32647560 0 22.69427984 0 3888.79977816 0 74.46503827 0 706.00464741 0 19059
0.13250000 0.13249300 12282.86209107 0 -8.89985718 0 3712.74981354 0 18.81409433 0 1373.42224283 0 18957
0.13350000 0.13349100 12437.32102229 0 -105.30423097 0 4155.80889116 0 170.85040088 0 1065.63486475 0 19468
0.13450000 0.13450700 12445.29309616 0 162.64248649 0 3873.54211456 0 -246.70025482 0 653.98354372 0 19953
0.13550000 0.13551000 12217.75682114 0 252.08915531 0 4018.53420806 0 -231.82237196 0 97.59988592 0 19956
0.13650000 0.13649900 12095.62907839 0 331.87743518 0 4056.01402757 0 -317.76464997 0 -373.90908743 0 19723
0.13750000 0.13749600 11730.35308262 0 111.59574738 0 3798.13958254 0 83.33441335 0 -78.96970290 0 20946
0.13850000 0.13851100 11706.99047725 0 4.45332226 0 3520.22422959 0 570.12729170 0 -506.76812739 0 20955
0.13950000 0.13949800 11758.25534116 0 -25.40910316 0 3093.90650710 0 695.32760459 0 -591.42490849 0 20506
0.14050000 0.14048300 11761.02342237 0 128.23080819 0 2950.05486306 0 550.13620924 0 -591.14477867 0 21447
0.14150000 0.14148400 11329.75637068 0 371.71455265 0 2600.44620691 0 134.28626263 0 -317.91634082 0 21771
0.14250000 0.14249400 11179.17275315 0 435.09143268 0 2789.89368455 0 179.91420598 0 128.95050930 0 22470
0.14350000 0.14350900 10939.41263152 0 101.72676282 0 2803.70087360 0 -156.98342128 0 95.61052132 0 22519
0.14450000 0.14449900 10688.18158139 0 38.43237162 0 2952.32468964 0 48.06617999 0 143.12087061 0 22218
0.14550000 0.14550500 10798.41764728 0 173.49004312 0 2904.31508923 0 -169.69223571 0 -261.04666609 0 23559
0.14650000 0.14650700 10696.24223386 0 39.94673348 0 2812.85768623 0 -113.84675102 0 59.57719032 0 23044
0.14750000 0.14750500 10692.13440135 0 49.16754414 0 3020.17589613 0 -133.10263111 0 -243.98532077 0 23649
0.14850000 0.14849900 10603.61116442 0 289.01868028 0 2867.75427268 0 -171.99085034 0 -298.54973748 0 23640
0.14950000 0.14949500 10353.78629954 0 208.81629545 0 2764.01766145 0 57.98288627 0 -575.33349883 0 24457
0.15050000 0.15050000 10048.51123197 0 478.69867674 0 3085.44725094 0 142.53846632 0 -59.32164106 0 24591
0.15150000 0.15149900 9693.26676248 0 387.05082976 0 2941.46273900 0 432.93454380 0 -306.65689371 0 25020
0.15250000 0.15250500 9433.17785249 0 128.39578583 0 2879.80096208 0 358.61820685 0 61.40567404 0 25297
0.15350000 0.15350100 9393.43927872 0 85.20076442 0 2805.07384188 0 128.28395535 0 82.17359081 0 25452
0.15450000 0.15450400 9331.22388556 0 30.54644043 0 2972.69776731 0 -29.82585353 0 174.19756467 0 26061
0.15550000 0.15549900 9363.69901426 0 48.75986114 0 2909.65194979 0 44.71469799 0 525.85017198 0 26128
0.15650000 0.15649500 9401.07918284 0 11.91703248 0 3284.99268882 0 -143.16626714 0 432.15173044 0 26331
0.15750000 0.15749700 9458.64419958 0 -30.96829601 0 3060.85561752 0 201.33029664 0 742.75701518 0 27345
0.15850000 0.15849900 9560.01133329 0 -43.32379255 0 3380.91223872 0 36.72136526 0 277.09710814 0 26980
0.15950000 0.15949700 9548.41860921 0 246.88073371 0 3277.83996699 0 41.66382961 0 832.05199315 0 27777
0.16050000 0.16050000 9458.03522171 0 45.75361423 0 3357.11781269 0 194.25618832 0 827.37504314 0 28224
0.16150000 0.16150500 9293.82157233 0 -55.73642229 0 3157.07412019 0 268.10859486 0 944.62764128 0 28075
0.16250000 0.16249700 9387.43807867 0 51.04474609 0 3016.33379942 0 373.36211458 0 598.04726596 0 28590
0.16350000 0.16349900 9227.84158873 0 178.02858906 0 2751.83810415 0 139.20126762 0 232.26194326 0 29163
0.16450000 0.16449100 8934.97859728 0 336.72268452 0 2368.27062779 0 -19.93682807 0 254.00466750 0 28996
0.16550000 0.16550500 8776.33432728 0 211.06619186 0 2303.23179180 0 130.61578696 0 228.75201629 0 30777
0.16650000 0.16650700 8501.19812786 0 58.16414023 0 2043.67435340 0 253.20303119 0 -70.36838881 0 29211
0.16750000 0.16749900 8618.67549418 0 3.09686282 0 1904.00804814 0 385.58485395 0 -307.88038560 0 30922
0.16850000 0.16850800 8490.39153884 0 -15.57477498 0 1783.75152828 0 242.71200342 0 -235.33008446 0 30867
0.16950000 0.16949900 8419.11898398 0 143.84278618 0 1796.35183393 0 178.62649460 0 -27.70738563 0 30852
0.17050000 0.17049200 8497.10136768 0 88.11400380 0 1943.38123519 0 -234.22838814 0 -74.44267218 0 31257
0.17150000 0.17149500 8341.50198700 0 89.95012742 0 2114.19399017 0 -8.22099080 0 317.45351764 0 32608
0.17250000 0.17250900 8313.66616241 0 212.24317998 0 2323.83738829 0 -342.89329115 0 532.09053425 0 32361
0.17350000 0.17350400 8191.33911781 0 183.82938003 0 2386.41816816 0 -168.32369636 0 711.51977240 0 32508
0.17450000 0.17449800 8156.56094555 0 94.53395918 0 2558.48209584 0 164.37309086 0 665.07469149 0 32791
0.17550000 0.17549800 7920.31075090 0 127.27526656 0 2423.16721424 0 399.14623739 0 657.82342596 0 33633
0.17650000 0.17650100 7955.39894825 0 165.75048807 0 2214.22137258 0 207.63598563 0 522.86507321 0 33984
0.17750000 0.17750300 7752.79754872 0 170.91019144 0 1992.67522529 0 354.21806497 0 770.34924863 0 34069
0.17850000 0.17849800 7698.08919179 0 -25.02234686 0 1916.39797961 0 102.55785153 0 753.32001306 0 34536
