### header ###
fiducial parameters:
Omega_m = 0.31
Omega_nu = 0
Omega_de = 0.69
Omega_k = 0
H_0 = 100
w_de = -1
zeff = 0
beta = 0
fgrowth = 0
b_1 = 2
gamma = 0.55
Lx = 3500 Ly = 3500 Lz = 3500
nx = 700 ny = 700 nz = 700
xoffset = -685.467585 yoffset = -31.7331281 zoffset = 572.489161
bins = 400 dk = 0.001
kx_ny = 0.628318531 ky_ny = 0.628318531 kz_ny = 0.628318531
############################
A(data) = 8.06536325 (not used)
A(ran) = 8.05736723 (used)
Ngal = 478779
weighted Ngal = 0
Nran = 23820508
weighted Nran = 0
SN(data) = 3496.47639
SN(ran) = 70.1825907
SN(data+ran) = 3566.65898
############################
13 columns: k_central k_mean P_0(k) sigma^{lin}_{P_0(k)} P^img_1(k) sigma^{lin}_{P_1(k)} P_2(k) sigma^{lin}_{P_2(k)} P^img_3(k) sigma^{lin}_{P_3(k)} P_4(k) sigma^{lin}_{P_4(k)} N_modes
### header ###
0.00050000 0 0 0 0 0 0 0 0 0 0 0 0
0.00150000 0.00179520 549.89704703 0 -7853.97645291 0 -15975.15024834 0 -5848.96665777 0 -8430.61205714 0 3
0.00250000 0.00253879 3389.81438788 0 -12486.48214448 0 -21556.93063592 0 24720.62600635 0 6728.05388675 0 6
0.00350000 0.00331552 11164.66800763 0 -16848.09233704 0 -15742.40998065 0 -3786.85688355 0 7020.13074314 0 7
0.00450000 0.00420575 30033.79179383 0 -33884.08202626 0 -49740.42622930 0 14492.89812487 0 -7818.10212050 0 24
0.00550000 0.00557378 53727.34895000 0 -27193.40830810 0 -56642.02773526 0 -8955.41810889 0 -14667.61941051 0 45
0.00650000 0.00659388 83225.35094585 0 -20782.31079161 0 -76706.51970887 0 -29189.85919615 0 -7464.87281413 0 40
0.00750000 0.00754703 63537.87163231 0 114.84326025 0 -62106.22003326 0 -22745.54470520 0 20828.26093960 0 57
0.00850000 0.00846663 61029.54716790 0 11681.08123718 0 -49381.46145868 0 -27555.58405292 0 33714.23256354 0 75
0.00950000 0.00948925 58000.15909752 0 -4870.99249584 0 -48677.59376996 0 2354.44129409 0 28033.13342235 0 112
0.01050000 0.01054430 63420.39426599 0 -3946.55302441 0 -37308.75209267 0 -18534.07523718 0 33233.14005017 0 105
0.01150000 0.01145670 70510.44674036 0 -5376.86487216 0 -27633.75466614 0 -8378.10709285 0 27398.57848699 0 144
0.01250000 0.01249090 74916.89984844 0 -2215.87114898 0 -17155.01718102 0 -23081.81120994 0 37123.84426820 0 169
0.01350000 0.01339930 71895.48385192 0 6196.63765708 0 -6554.30696570 0 -9409.54951133 0 27309.33554895 0 180
0.01450000 0.01448870 75311.07461198 0 -1155.08706973 0 4067.52924538 0 -12854.96911445 0 28282.48217726 0 267
0.01550000 0.01550050 76269.49504828 0 1335.96456797 0 14199.14934743 0 -2362.88947792 0 23409.77347107 0 238
0.01650000 0.01653350 77872.65695877 0 3809.61051105 0 13281.80723621 0 -12153.20516744 0 5651.30351511 0 315
0.01750000 0.01747870 76209.70449426 0 9994.11290013 0 29552.47783396 0 -7235.74212434 0 7632.03170192 0 297
0.01850000 0.01844180 64361.65259882 0 9931.17780586 0 26635.03096749 0 -6700.46165330 0 9393.68286987 0 388
0.01950000 0.01947590 60623.19284705 0 4534.49347228 0 30592.72275067 0 5146.05118899 0 11845.83743048 0 399
0.02050000 0.02045430 59523.93243906 0 -2429.07983569 0 32175.17941375 0 7123.76770344 0 5209.69491205 0 462
0.02150000 0.02154770 64236.31388187 0 -5113.46533705 0 28639.67537591 0 20700.70775769 0 8477.85766714 0 571
0.02250000 0.02255340 68241.06304553 0 -3764.90046343 0 27132.17835185 0 18148.09399400 0 11338.94640028 0 510
0.02350000 0.02348930 66318.68601052 0 413.84253412 0 13675.20693701 0 14473.18938669 0 18638.37653697 0 555
0.02450000 0.02439640 69128.73132624 0 -4494.54452433 0 9793.69274859 0 13948.36119029 0 19141.06008374 0 592
0.02550000 0.02547300 67365.35287562 0 349.65405268 0 9481.89608170 0 7617.98092173 0 10297.90427618 0 837
0.02650000 0.02652900 68555.62779363 0 7189.05013058 0 11582.98043928 0 -8258.33775529 0 4380.37778313 0 723
0.02750000 0.02749970 60821.71963105 0 8113.02456437 0 15650.50968466 0 -9778.18042152 0 13613.53408777 0 826
0.02850000 0.02848090 56522.44662722 0 5304.15291507 0 14717.44487219 0 -6323.08360651 0 21212.02771782 0 831
0.02950000 0.02946900 57603.54842251 0 -208.72993132 0 24909.07697476 0 933.31947594 0 8155.90767839 0 996
0.03050000 0.03053250 57549.29403090 0 -1561.92857287 0 26506.25982985 0 4599.28871712 0 2276.04923437 0 1041
0.03150000 0.03150510 57134.08185020 0 2607.39962689 0 27648.70230464 0 5842.26790126 0 8019.27519013 0 1036
0.03250000 0.03246190 54168.24892428 0 2274.87556794 0 22637.58953822 0 5941.68630581 0 14800.93020133 0 1059
0.03350000 0.03345080 56123.28931751 0 -1011.81893720 0 22683.65040946 0 9671.08889587 0 13176.06653419 0 1302
0.03450000 0.03451200 54312.63203991 0 -229.74852552 0 12938.12227384 0 8438.94951773 0 5298.53924639 0 1339
0.03550000 0.03553350 55291.20410739 0 -676.61316118 0 15330.40877415 0 221.76980826 0 4585.16043065 0 1365
0.03650000 0.03647120 55091.79153740 0 616.13833749 0 11225.45507089 0 -2715.18870900 0 -984.42822007 0 1308
0.03750000 0.03744890 52742.90855037 0 3960.53737066 0 16863.59359179 0 -9057.85925812 0 6414.14240582 0 1579
0.03850000 0.03847530 49218.03394436 0 3131.86243658 0 16367.33199342 0 -7402.57991470 0 -3910.13614808 0 1662
0.03950000 0.03950240 49532.15579946 0 957.55015157 0 22072.90097247 0 684.90743970 0 -3036.92832358 0 1683
0.04050000 0.04050350 47997.08868661 0 -11.86466038 0 21673.63293951 0 605.08815732 0 -9870.66755073 0 1822
0.04150000 0.04152450 46572.74482193 0 2176.53117890 0 23569.76856470 0 4162.56300930 0 -8020.43778423 0 1887
0.04250000 0.04250150 45425.20907773 0 3299.03239669 0 19071.41516063 0 -3391.25379010 0 -6598.50768637 0 1920
0.04350000 0.04349210 43474.48689118 0 4084.50311932 0 22206.43320978 0 -2012.22895092 0 -5752.15024956 0 2005
0.04450000 0.04448520 39777.10546449 0 3026.47604895 0 22150.73941594 0 713.87596312 0 -3603.41060595 0 2151
0.04550000 0.04548030 38232.51615229 0 587.68799886 0 20863.69237902 0 2544.19879683 0 -5677.22382751 0 2274
0.04650000 0.04648670 37535.95619795 0 -923.06207423 0 17027.46399911 0 6117.79163205 0 -3602.29230115 0 2311
0.04750000 0.04749250 39042.56743602 0 -1235.62716046 0 17462.38491798 0 5468.83160210 0 -4361.47732466 0 2568
0.04850000 0.04851840 41044.44376323 0 -1727.06122521 0 16023.31486130 0 1100.21927132 0 -3924.76268917 0 2493
0.04950000 0.04949480 39124.17046993 0 904.72630433 0 15915.13824783 0 3094.78122076 0 3620.46198618 0 2644
0.05050000 0.05050630 39963.78486093 0 1969.35690922 0 17583.95904449 0 -2720.43699097 0 2635.82228470 0 2829
0.05150000 0.05149060 39128.59939986 0 493.50680396 0 15311.69654521 0 2586.52829461 0 3421.40373059 0 2784
0.05250000 0.05249300 38787.90396519 0 436.75117417 0 18009.57921052 0 965.04279378 0 2786.00729854 0 3055
0.05350000 0.05348950 38189.77697849 0 1184.17406703 0 18926.14625901 0 -2519.65145271 0 3545.23661136 0 3009
0.05450000 0.05448610 37191.16400310 0 829.47989209 0 17514.42484463 0 850.45530423 0 237.70952707 0 3336
0.05550000 0.05550870 35792.95082500 0 1024.38934757 0 17517.96798857 0 1702.29243459 0 2265.86269554 0 3349
0.05650000 0.05647670 36325.64037202 0 144.72857217 0 15882.03199662 0 3667.71866850 0 754.53686156 0 3324
0.05750000 0.05747970 34664.90237247 0 992.02826382 0 15887.90032877 0 1780.90594081 0 -1570.33246740 0 3639
0.05850000 0.05849280 34062.78934884 0 1753.03689924 0 14580.14804444 0 538.44715593 0 1191.79182650 0 3846
0.05950000 0.05951020 32154.03127335 0 1047.67555390 0 15153.25157705 0 868.69363767 0 961.08333042 0 3787
0.06050000 0.06049470 32506.68481882 0 -171.42173284 0 14171.57925863 0 2776.60689477 0 2330.82402525 0 3930
0.06150000 0.06148310 32484.98306218 0 3.10487918 0 13773.08628841 0 2018.98306906 0 -422.87201501 0 4083
0.06250000 0.06249100 32109.18835783 0 977.81804215 0 12695.19546732 0 1306.74470277 0 9.96855797 0 4303
0.06350000 0.06350600 31169.92304347 0 692.12105932 0 12851.09380076 0 -95.49392974 0 1136.51878101 0 4470
0.06450000 0.06451750 30292.66274809 0 351.79765477 0 11871.08233106 0 -381.80586949 0 1352.88308029 0 4479
0.06550000 0.06550280 31476.40499445 0 -486.09831142 0 13154.25405430 0 -1038.85755441 0 -806.59228946 0 4636
0.06650000 0.06648880 30900.53338063 0 -228.63354241 0 12565.53854369 0 -798.97563722 0 -2024.15384475 0 4653
0.06750000 0.06749660 31585.35667066 0 1092.89049953 0 14352.05815318 0 -2030.37649129 0 -3530.94224002 0 5220
0.06850000 0.06852730 30265.64627553 0 586.04929479 0 13895.54620090 0 -863.43871231 0 -1347.09225441 0 5029
0.06950000 0.06949320 30781.72733533 0 -422.56974054 0 13625.16002883 0 2450.41620561 0 -2065.87436466 0 5040
0.07050000 0.07048030 31793.51637725 0 -1453.32013872 0 12857.62647240 0 2366.84229788 0 -982.58024906 0 5475
0.07150000 0.07148790 32212.49314839 0 -347.53148801 0 12169.59220817 0 3857.60903914 0 -3082.57951881 0 5509
0.07250000 0.07249820 30998.52345527 0 1634.27514323 0 10860.62196811 0 1592.64320191 0 -1839.94357674 0 5916
0.07350000 0.07351270 29922.40420615 0 1952.49375852 0 9369.50091246 0 1004.11259913 0 -1651.06078766 0 5721
0.07450000 0.07449140 28306.95201511 0 1630.07873213 0 10066.79164024 0 -909.28256599 0 -215.43643846 0 6028
0.07550000 0.07549160 26600.81748381 0 1177.01027287 0 9142.16393929 0 -1125.63468571 0 -54.41117573 0 6183
0.07650000 0.07648840 26678.10231104 0 -29.97676932 0 10216.11301275 0 -191.89335420 0 -1841.08402619 0 6330
0.07750000 0.07749960 25977.99921276 0 522.24834472 0 9474.97587868 0 -245.56977046 0 -2042.53390395 0 6583
0.07850000 0.07848650 25927.06651859 0 196.93569092 0 9634.78274279 0 350.26081608 0 -2331.47729241 0 6549
0.07950000 0.07947320 26216.93998234 0 102.06712609 0 10421.11710676 0 928.85843627 0 -2434.94816784 0 6828
0.08050000 0.08048110 26024.61370024 0 343.25646340 0 9523.18478094 0 204.85683210 0 -4494.53345201 0 7147
0.08150000 0.08149960 25185.66364873 0 786.05644862 0 9106.09030503 0 590.58230457 0 -3428.52323544 0 7386
0.08250000 0.08250610 24551.99449936 0 1572.44728144 0 8697.63224247 0 -213.24190368 0 -2980.41517771 0 7227
0.08350000 0.08350160 23178.47260561 0 772.14517972 0 9233.95351203 0 465.58129353 0 -2911.26850922 0 7798
0.08450000 0.08449610 22625.40998092 0 670.81901360 0 8590.70680169 0 1905.38101642 0 -2301.61523238 0 7371
0.08550000 0.08548940 21980.77922998 0 347.13952771 0 7886.25227976 0 1802.60769745 0 -1986.40828944 0 8256
0.08650000 0.08650700 21555.04834070 0 186.65946626 0 6664.02263232 0 2431.13928811 0 -1812.16311377 0 8037
0.08750000 0.08749060 21361.39337962 0 551.50364136 0 6317.15991273 0 1145.14412204 0 -2320.33853365 0 8155
0.08850000 0.08849210 20422.46023500 0 465.47057028 0 5681.70811906 0 126.48913150 0 -1890.84305393 0 8718
0.08950000 0.08949900 20170.34339888 0 634.24601749 0 5056.79717862 0 477.55047666 0 -966.07694891 0 8571
0.09050000 0.09049190 19911.58316787 0 132.43275546 0 5230.18978528 0 -258.61850525 0 -1760.47750152 0 8932
0.09150000 0.09150830 19701.43044281 0 -81.23465767 0 4132.18054999 0 586.07586837 0 -456.85187264 0 9285
0.09250000 0.09250820 19664.67032441 0 26.24993551 0 4951.52151425 0 678.44563094 0 -983.54464855 0 9204
0.09350000 0.09350330 19963.18020152 0 59.43967205 0 4220.68164227 0 120.37499373 0 -1052.13991526 0 9349
0.09450000 0.09448040 20071.68898475 0 -43.19513214 0 5132.47651876 0 528.15764448 0 -784.40113606 0 9564
0.09550000 0.09549270 19466.58643341 0 508.09902084 0 4579.24780920 0 -739.15961685 0 -829.88735364 0 10155
0.09650000 0.09649430 19748.26637679 0 356.64844027 0 5627.27657026 0 -334.56136672 0 -567.73124061 0 9913
0.09750000 0.09749140 18965.56373536 0 204.54237807 0 5626.51257984 0 -130.82394666 0 -846.88005054 0 10476
0.09850000 0.09850240 19142.05659297 0 514.75791698 0 5903.16568776 0 -245.79232418 0 -340.74083120 0 10575
0.09950000 0.09950330 18435.08865330 0 274.15851314 0 5734.24630033 0 301.33664164 0 -865.43394524 0 10882
0.10050000 0.10051200 18277.41874788 0 370.43237744 0 5706.22224621 0 119.05738708 0 -802.13900042 0 10875
0.10150000 0.10150300 17845.48735671 0 644.83669618 0 6008.55207539 0 114.32618268 0 -1545.35330261 0 11118
0.10250000 0.10250800 17092.90143879 0 719.48409565 0 5734.92171214 0 430.49088172 0 -819.08962248 0 11575
0.10350000 0.10349800 16735.37607039 0 522.07450922 0 5716.04339833 0 -244.33188454 0 -1258.55794516 0 11364
0.10450000 0.10450100 16230.81022841 0 330.55539960 0 5449.52146762 0 -11.96597215 0 -1314.39567922 0 12093
0.10550000 0.10551000 16291.70801491 0 -0.49074980 0 5248.11587917 0 120.73262982 0 -1513.83039385 0 12067
0.10650000 0.10649700 16108.79320890 0 231.27539911 0 5110.57546027 0 472.33098274 0 -1362.73744938 0 12054
0.10750000 0.10749900 16009.69590178 0 -89.91702117 0 4506.36976724 0 1433.73319612 0 -1100.26909679 0 12807
0.10850000 0.10850100 15875.38860173 0 21.41332258 0 3671.63827149 0 1198.28020885 0 -1921.40267043 0 12736
0.10950000 0.10950300 15771.86236467 0 400.26011326 0 3351.90274770 0 707.23810440 0 -914.22303732 0 12933
0.11050000 0.11050200 15455.19387486 0 442.30283783 0 3099.53124811 0 412.02224392 0 -873.59757033 0 13428
0.11150000 0.11150900 14915.75020969 0 346.91808122 0 3305.78651483 0 -268.46955265 0 18.61468176 0 13453
0.11250000 0.11250000 14709.36207508 0 467.69500034 0 3329.75809806 0 -249.90901455 0 555.10879032 0 13668
0.11350000 0.11349100 14507.73504013 0 15.26674291 0 3645.60723584 0 353.82056851 0 933.96167078 0 13791
0.11450000 0.11448600 14638.05630324 0 17.41931357 0 4171.65338797 0 -73.30056187 0 820.55338382 0 14205
0.11550000 0.11549300 14428.45719443 0 259.74234622 0 4220.12802603 0 -90.45070723 0 1437.66387143 0 14776
0.11650000 0.11649800 14316.18382077 0 184.56790410 0 4397.27415080 0 417.63591260 0 1941.52108462 0 14553
0.11750000 0.11747300 14261.48653616 0 21.69101649 0 4188.06257335 0 633.62043114 0 2043.51934085 0 14568
0.11850000 0.11849100 14213.21119995 0 109.80502029 0 4086.93903078 0 -46.76961076 0 1784.52659102 0 16015
0.11950000 0.11950300 14093.40864541 0 332.95809409 0 4692.84986184 0 280.20400249 0 1693.13562197 0 15270
0.12050000 0.12050700 13945.03949284 0 101.55669192 0 4385.27175070 0 -317.59856510 0 1875.44145011 0 15999
0.12150000 0.12150000 13922.34122697 0 127.30737630 0 4742.01098403 0 85.95578625 0 1883.69033210 0 15670
0.12250000 0.12250700 13792.46285684 0 223.63217329 0 4438.13102938 0 62.02450628 0 1988.29058466 0 16887
0.12350000 0.12352200 13771.53616294 0 131.36649058 0 4516.39022120 0 197.59006532 0 1249.10217977 0 16407
0.12450000 0.12449800 13408.69607863 0 132.89225694 0 4355.85258366 0 26.72914573 0 1234.26526451 0 16306
0.12550000 0.12549900 13377.47212264 0 330.27416255 0 4565.88351314 0 -200.33268018 0 672.55404690 0 17523
0.12650000 0.12650100 13063.35026754 0 278.19326830 0 4455.19348193 0 98.47437813 0 865.31990030 0 17154
0.12750000 0.12750600 12889.62549113 0 231.64078583 0 4279.39818078 0 -306.35351201 0 1020.22947514 0 18007
0.12850000 0.12850300 12794.95711393 0 167.98266875 0 4624.68863025 0 285.57961619 0 151.77721415 0 17496
0.12950000 0.12949900 12524.90311160 0 180.31280967 0 4110.85525239 0 238.92083940 0 391.12433806 0 18405
0.13050000 0.13049000 12481.16742857 0 103.20646831 0 4292.54103034 0 13.07043656 0 51.09900048 0 18100
0.13150000 0.13148800 12399.56439466 0 62.92623641 0 4269.89812609 0 -115.25736520 0 223.14941993 0 19059
0.13250000 0.13249300 12251.85958158 0 110.24005193 0 4144.26045637 0 456.57949345 0 264.64517165 0 18957
0.13350000 0.13349100 12173.46752186 0 36.63322956 0 3628.43406004 0 298.24303408 0 322.20575946 0 19468
0.13450000 0.13450700 12229.49348544 0 100.29577557 0 3715.65076264 0 400.45277172 0 8.78323239 0 19953
0.13550000 0.13551000 11996.97466425 0 264.72710686 0 3590.26775639 0 348.89338397 0 71.35759031 0 19956
0.13650000 0.13649900 11641.55303757 0 404.84516297 0 3221.34896576 0 168.65697334 0 367.41738339 0 19723
0.13750000 0.13749600 11387.55390623 0 366.67332316 0 3172.05497567 0 222.60023262 0 654.88483096 0 20946
0.13850000 0.13851100 11213.05406709 0 2.32688228 0 3217.90547274 0 247.40999084 0 879.16362802 0 20955
0.13950000 0.13949800 11325.54888725 0 11.70665831 0 3466.78919002 0 362.61420888 0 875.98033463 0 20506
0.14050000 0.14048300 11177.51190442 0 -26.61332921 0 3194.87503712 0 -149.79083908 0 695.18920053 0 21447
0.14150000 0.14148400 11359.43020119 0 273.17639793 0 3509.65015939 0 -234.54062770 0 1168.34064254 0 21771
0.14250000 0.14249400 11151.71338760 0 174.77000387 0 3552.14574204 0 -100.27440598 0 1425.67254365 0 22470
0.14350000 0.14350900 11024.04948244 0 108.30649185 0 3588.82835417 0 237.48475887 0 1384.02953001 0 22519
0.14450000 0.14449900 10866.03633495 0 73.08675528 0 3462.10559662 0 108.50667948 0 880.55099032 0 22218
0.14550000 0.14550500 10926.11476942 0 82.06087454 0 3376.42794717 0 191.13047102 0 67.61691610 0 23559
0.14650000 0.14650700 10581.25614061 0 282.81596391 0 3238.30069506 0 -126.60428367 0 69.56763828 0 23044
0.14750000 0.14750500 10495.26846607 0 155.02472702 0 3054.35616285 0 -404.68018533 0 -572.81122324 0 23649
0.14850000 0.14849900 10377.92396764 0 188.87393122 0 3326.13744785 0 -78.68890874 0 -219.58523857 0 23640
0.14950000 0.14949500 10379.81733519 0 -30.63723350 0 2955.20349410 0 52.50496429 0 -1011.92301706 0 24457
0.15050000 0.15050000 10218.93645557 0 -7.49928560 0 2919.49524656 0 301.20820267 0 -775.62299694 0 24591
0.15150000 0.15149900 10370.74910116 0 209.69654528 0 2891.39368617 0 275.34325189 0 -543.40423575 0 25020
0.15250000 0.15250500 10147.04385053 0 89.92045359 0 2928.38632339 0 338.52193731 0 -407.98859599 0 25297
0.15350000 0.15350100 10013.79949366 0 116.48528602 0 2816.20152832 0 268.75521863 0 97.14071661 0 25452
0.15450000 0.15450400 9845.44479479 0 273.42331077 0 2690.55278628 0 320.82282609 0 -72.03311285 0 26061
0.15550000 0.15549900 9790.72536554 0 -17.67286981 0 2364.24030155 0 598.15909645 0 140.71706889 0 26128
0.15650000 0.15649500 9601.04536907 0 65.99891727 0 2407.56630857 0 237.53901326 0 205.52006435 0 26331
0.15750000 0.15749700 9775.82201633 0 43.68773987 0 2254.48034562 0 -163.33782849 0 -52.82462231 0 27345
0.15850000 0.15849900 9513.85081112 0 98.36863743 0 2280.88784032 0 -208.70667944 0 -340.20160898 0 26980
0.15950000 0.15949700 9446.14354486 0 316.34849963 0 2299.91009435 0 -492.64980602 0 -133.78247185 0 27777
0.16050000 0.16050000 9258.46763918 0 160.48781208 0 2357.63012363 0 26.26731906 0 -502.83191592 0 28224
0.16150000 0.16150500 9192.08905189 0 120.11479410 0 2537.96507796 0 74.55173458 0 -423.83973620 0 28075
0.16250000 0.16249700 9087.00161704 0 180.48885964 0 2456.70528611 0 -43.58100266 0 -845.57683791 0 28590
0.16350000 0.16349900 8904.13110033 0 256.88347196 0 2771.27003421 0 -22.06149648 0 -441.51116661 0 29163
0.16450000 0.16449100 8753.61391675 0 261.61689081 0 2847.72443708 0 -102.78882022 0 -127.80341645 0 28996
0.16550000 0.16550500 8532.12313108 0 138.80930732 0 2930.11360606 0 52.89648170 0 46.96869116 0 30777
0.16650000 0.16650700 8554.56673348 0 72.27792195 0 2964.49317462 0 197.54245432 0 91.40314861 0 29211
0.16750000 0.16749900 8496.08271379 0 44.11546377 0 3012.61349828 0 375.57215062 0 -56.46143812 0 30922
0.16850000 0.16850800 8481.81048710 0 36.21380989 0 2834.41550265 0 321.46612816 0 161.18647578 0 30867
0.16950000 0.16949900 8427.58931246 0 70.20640070 0 2702.80984986 0 89.64752079 0 173.30513529 0 30852
0.17050000 0.17049200 8265.50154944 0 147.41693264 0 2612.10536494 0 234.42658276 0 351.21303601 0 31257
0.17150000 0.17149500 8295.93937037 0 119.68518789 0 2629.11245586 0 88.26635899 0 106.27394518 0 32608
0.17250000 0.17250900 8158.83077214 0 49.93762433 0 2336.99131017 0 128.22748649 0 133.13031192 0 32361
0.17350000 0.17350400 8139.04452769 0 218.84117834 0 2392.47472984 0 -154.95718584 0 192.51451162 0 32508
0.17450000 0.17449800 8101.90795025 0 -25.51274012 0 2405.82795357 0 36.58528639 0 477.14301511 0 32791
0.17550000 0.17549800 8043.78931728 0 20.68188481 0 2497.28535657 0 119.35301815 0 425.54155252 0 33633
0.17650000 0.17650100 8106.97907502 0 60.94429027 0 2535.11949048 0 -5.94820791 0 215.00129610 0 33984
0.17750000 0.17750300 7980.03487097 0 159.90208610 0 2618.33908381 0 54.49809348 0 451.11973009 0 34069
