### header ###
fiducial parameters:
Omega_m = 0.31
Omega_nu = 0
Omega_de = 0.69
Omega_k = 0
H_0 = 100
w_de = -1
zeff = 0
beta = 0
fgrowth = 0
b_1 = 2
gamma = 0.55
Lx = 3500 Ly = 3500 Lz = 3500
nx = 700 ny = 700 nz = 700
xoffset = -685.467585 yoffset = -31.7331281 zoffset = 572.489161
bins = 400 dk = 0.001
kx_ny = 0.628318531 ky_ny = 0.628318531 kz_ny = 0.628318531
############################
A(data) = 8.06435002 (not used)
A(ran) = 8.06706969 (used)
Ngal = 479294
weighted Ngal = 0
Nran = 23820508
weighted Nran = 0
SN(data) = 3484.96785
SN(ran) = 70.2671027
SN(data+ran) = 3555.23496
############################
13 columns: k_central k_mean P_0(k) sigma^{lin}_{P_0(k)} P^img_1(k) sigma^{lin}_{P_1(k)} P_2(k) sigma^{lin}_{P_2(k)} P^img_3(k) sigma^{lin}_{P_3(k)} P_4(k) sigma^{lin}_{P_4(k)} N_modes
### header ###
0.00050000 0 0 0 0 0 0 0 0 0 0 0 0
0.00150000 0.00179520 38143.16249100 0 -45627.50045217 0 1221.89747769 0 -19917.34077677 0 -63717.57546412 0 3
0.00250000 0.00253879 55011.84935221 0 -26860.35277755 0 -18895.25447276 0 33801.26103662 0 71944.42352762 0 6
0.00350000 0.00331552 61729.98243592 0 -8769.63557076 0 6119.58534867 0 -64131.56968909 0 -35810.33437496 0 7
0.00450000 0.00420575 51846.60385630 0 9000.43818161 0 -18524.11014484 0 -6600.41212624 0 16476.94800912 0 24
0.00550000 0.00557378 40476.54422328 0 7262.11640205 0 -9977.23867711 0 -668.36870812 0 289.24677017 0 45
0.00650000 0.00659388 34801.31341424 0 -6020.08943785 0 -23589.69874937 0 -2061.61151961 0 33726.07995110 0 40
0.00750000 0.00754703 44627.33735130 0 -10382.25324665 0 -544.91007193 0 -3939.53317047 0 -4252.04953848 0 57
0.00850000 0.00846663 54238.66891012 0 -16190.39624282 0 -2081.36454708 0 -6444.27020165 0 14070.48893304 0 75
0.00950000 0.00948925 62376.49548208 0 -107.64082368 0 11120.93232460 0 -20112.21369358 0 -5968.23774072 0 112
0.01050000 0.01054430 64161.35424285 0 5837.61752484 0 13903.62899802 0 -27820.10189283 0 5907.29566492 0 105
0.01150000 0.01145670 64926.78405756 0 8865.02364907 0 29209.12504133 0 -30055.38282722 0 -12599.30913439 0 144
0.01250000 0.01249090 59196.74524067 0 7002.39287878 0 22945.62161467 0 -15314.46462641 0 -9247.78284573 0 169
0.01350000 0.01339930 56869.23184054 0 -3882.00137072 0 28898.10343718 0 -1426.45867871 0 -32690.81758056 0 180
0.01450000 0.01448870 62578.56541003 0 -3543.68648588 0 28754.71683078 0 2234.05190633 0 -49897.43179523 0 267
0.01550000 0.01550050 67540.73850075 0 -2476.41402429 0 25516.28326782 0 -2539.40448018 0 -51501.47949171 0 238
0.01650000 0.01653350 67777.90769837 0 781.36399736 0 21841.71083025 0 -919.78466608 0 -49321.00656517 0 315
0.01750000 0.01747870 71601.62435124 0 631.88982677 0 19265.84518444 0 -8677.40310502 0 -39166.90964373 0 297
0.01850000 0.01844180 64593.17491078 0 2645.52164124 0 17049.16575575 0 2055.92034465 0 -31411.85334076 0 388
0.01950000 0.01947590 70533.58789923 0 9.45503462 0 24217.94245958 0 2850.50359061 0 -21846.91482292 0 399
0.02050000 0.02045430 76152.34985170 0 -5905.98913059 0 16654.54809922 0 13044.52731534 0 -21692.67733820 0 462
0.02150000 0.02154770 75994.56922303 0 -4226.23994933 0 13665.35256793 0 10894.19325696 0 -8404.80246799 0 571
0.02250000 0.02255340 81431.30215549 0 -1372.72468637 0 8060.75211890 0 12948.64098241 0 -9942.83696390 0 510
0.02350000 0.02348930 80251.65666931 0 2222.89100292 0 14273.44464697 0 -1415.95104246 0 -8762.53821055 0 555
0.02450000 0.02439640 74075.51388547 0 7458.30692552 0 11491.96592927 0 -6170.79485095 0 -6202.25132576 0 592
0.02550000 0.02547300 69796.50323605 0 7224.86910136 0 17607.54309636 0 -10777.75668917 0 -7250.90013701 0 837
0.02650000 0.02652900 62154.05247648 0 6739.54695991 0 22362.44226648 0 -8296.69228846 0 -4595.38018646 0 723
0.02750000 0.02749970 57044.61746567 0 5100.82074210 0 26645.10678308 0 -1296.49172999 0 -8632.07300722 0 826
0.02850000 0.02848090 55861.09666580 0 4077.36146982 0 28556.96510952 0 -2240.99425399 0 -5623.24624402 0 831
0.02950000 0.02946900 51477.45254685 0 609.91458371 0 28893.45306075 0 2639.81939396 0 -4858.54720275 0 996
0.03050000 0.03053250 53057.03040548 0 960.75448237 0 27215.55295774 0 7261.36348397 0 -10296.44272930 0 1041
0.03150000 0.03150510 53653.71798996 0 -1317.72844899 0 26996.09947983 0 8798.14680717 0 -2117.15030090 0 1036
0.03250000 0.03246190 53079.50722486 0 928.14980748 0 26750.73676185 0 1056.11266541 0 -7497.53617235 0 1059
0.03350000 0.03345080 52787.08712640 0 990.40948994 0 22132.69152649 0 4599.43265734 0 4709.61336161 0 1302
0.03450000 0.03451200 52446.83458472 0 413.94661397 0 29141.47313669 0 624.30971320 0 1148.10043277 0 1339
0.03550000 0.03553350 53190.45191954 0 610.96091840 0 26096.25164182 0 694.35766893 0 6347.63095063 0 1365
0.03650000 0.03647120 51132.77107525 0 747.55576076 0 26956.90344997 0 2826.49879040 0 1525.54491351 0 1308
0.03750000 0.03744890 51427.51636192 0 2609.04940329 0 31964.69451895 0 -154.33270672 0 7360.64902061 0 1579
0.03850000 0.03847530 50700.95040732 0 2534.01225800 0 31417.38950316 0 2985.70774897 0 10476.25728436 0 1662
0.03950000 0.03950240 47943.38791123 0 1584.78185129 0 31754.20962415 0 7637.94432337 0 17421.86020915 0 1683
0.04050000 0.04050350 47383.57116840 0 1971.75960370 0 32421.42791772 0 8631.04328101 0 19117.47603187 0 1822
0.04150000 0.04152450 45140.65032989 0 712.79419699 0 28960.66207240 0 9274.75502899 0 11902.52773355 0 1887
0.04250000 0.04250150 44125.31814402 0 2103.65313694 0 30984.90449575 0 5712.00199977 0 21414.65126200 0 1920
0.04350000 0.04349210 41854.93793996 0 1993.35063710 0 25102.95338234 0 2991.59822578 0 17817.25292842 0 2005
0.04450000 0.04448520 41327.67383209 0 -891.39301078 0 21563.79547731 0 6120.72579812 0 16087.97723824 0 2151
0.04550000 0.04548030 40715.81716262 0 -684.46011778 0 17995.18518826 0 1277.05979993 0 14357.70503884 0 2274
0.04650000 0.04648670 40899.28558486 0 -44.71691246 0 16097.94233058 0 2109.21144400 0 7048.37624375 0 2311
0.04750000 0.04749250 40868.39379862 0 786.86140663 0 13172.63411350 0 366.13631541 0 1281.04583687 0 2568
0.04850000 0.04851840 39240.09771079 0 1897.10998978 0 11021.33676286 0 -1762.84697903 0 2772.32190507 0 2493
0.04950000 0.04949480 38532.13326188 0 2224.59614094 0 13393.41627038 0 -2630.65150901 0 -1668.96473689 0 2644
0.05050000 0.05050630 36860.10149102 0 1719.73134618 0 14174.01517009 0 -2244.79206141 0 -797.11659388 0 2829
0.05150000 0.05149060 35833.47553383 0 1847.36203437 0 14002.50485865 0 -785.58587481 0 -3050.37012591 0 2784
0.05250000 0.05249300 33864.15184159 0 1221.01169170 0 15568.13158801 0 1950.58931865 0 -2420.14446956 0 3055
0.05350000 0.05348950 34070.65069946 0 -583.62002673 0 15641.43037831 0 2229.05828784 0 -1301.41891453 0 3009
0.05450000 0.05448610 34723.25352427 0 -2033.48781457 0 16135.92040471 0 3088.31498307 0 -3448.16553967 0 3336
0.05550000 0.05550870 35443.39753047 0 417.42332397 0 14153.19919943 0 734.32986876 0 -4780.23264930 0 3349
0.05650000 0.05647670 34724.69292649 0 1960.10044567 0 16146.99272953 0 -2746.04727827 0 -1590.94913622 0 3324
0.05750000 0.05747970 33820.52688180 0 1680.29172518 0 15695.68476992 0 -1303.72195810 0 2421.52851016 0 3639
0.05850000 0.05849280 32522.62896656 0 696.05505633 0 16812.10728138 0 1916.39797961 0 3623.30757365 0 3846
0.05950000 0.05951020 32514.65689269 0 -408.87991814 0 14983.62356083 0 1940.43599679 0 -53.54399125 0 3787
0.06050000 0.06049470 33262.37098770 0 -803.10782884 0 16509.83281384 0 3535.09436182 0 -447.05065072 0 3930
0.06150000 0.06148310 32736.43555881 0 610.45602039 0 14048.12283691 0 563.46618109 0 1488.26439585 0 4083
0.06250000 0.06249100 31966.35536767 0 1349.66103377 0 13163.66553039 0 1896.39028866 0 3203.94327115 0 4303
0.06350000 0.06350600 31839.13435551 0 67.41318532 0 11912.38210264 0 3188.26485920 0 5216.41581321 0 4470
0.06450000 0.06451750 31934.79924194 0 -410.86740044 0 10467.53229240 0 2737.97555348 0 1968.48219556 0 4479
0.06550000 0.06550280 31510.39703164 0 405.66119331 0 11357.54790597 0 842.87961959 0 2278.38549491 0 4636
0.06650000 0.06648880 30781.94878182 0 844.79734625 0 11093.36223580 0 -575.20284540 0 2050.99316011 0 4653
0.06750000 0.06749660 30179.50358844 0 1401.08091023 0 10182.10990323 0 -1710.97313725 0 3068.68375116 0 5220
0.06850000 0.06852730 29577.50128805 0 641.70654996 0 10684.48342490 0 -309.51023182 0 1564.40877363 0 5029
0.06950000 0.06949320 29448.84087366 0 234.93812416 0 10601.36348249 0 1278.33311729 0 1474.49042377 0 5040
0.07050000 0.07048030 29267.80836287 0 55.61008706 0 9289.27084683 0 261.54602794 0 -66.55031905 0 5475
0.07150000 0.07148790 28762.57818140 0 914.28061341 0 9241.79271800 0 316.04733239 0 -645.17993825 0 5509
0.07250000 0.07249820 28348.03034019 0 1126.76406284 0 9954.39647101 0 -377.72793226 0 -1349.83819097 0 5916
0.07350000 0.07351270 27032.19525874 0 1063.72710319 0 10316.04074423 0 301.02108038 0 -1267.91405963 0 5721
0.07450000 0.07449140 26057.27705846 0 720.23037034 0 10275.16172100 0 -291.41251690 0 -1359.55969216 0 6028
0.07550000 0.07549160 25519.93713501 0 511.98097792 0 10374.20366651 0 1508.91428164 0 -1434.94007952 0 6183
0.07650000 0.07648840 25649.59405864 0 -386.99878983 0 9929.07406415 0 1938.71978645 0 -536.92914020 0 6330
0.07750000 0.07749960 25576.18454509 0 -136.21506162 0 8932.47625187 0 2056.07535720 0 -821.84884583 0 6583
0.07850000 0.07848650 25623.46337206 0 42.05778293 0 6835.99798141 0 1254.41689568 0 285.36702755 0 6549
0.07950000 0.07947320 25119.45114632 0 126.83458803 0 6979.14099666 0 169.09875910 0 -260.52737405 0 6828
0.08050000 0.08048110 25286.64325108 0 609.80607492 0 7675.99990377 0 -121.13676968 0 1441.45060652 0 7147
0.08150000 0.08149960 24697.15267774 0 793.77718071 0 7811.84625697 0 -839.02202162 0 789.94394186 0 7386
0.08250000 0.08250610 23643.28880150 0 1303.38978835 0 8668.78883631 0 -565.36176310 0 1129.08925106 0 7227
0.08350000 0.08350160 23530.12964185 0 815.50993987 0 10329.70399306 0 -749.70932794 0 1541.69943542 0 7798
0.08450000 0.08449610 22356.79538082 0 746.09199942 0 10156.33353105 0 1006.83417657 0 1186.27780874 0 7371
0.08550000 0.08548940 22336.53302640 0 450.91821377 0 9613.65674704 0 293.05897160 0 2029.64571786 0 8256
0.08650000 0.08650700 21805.17215835 0 341.76834294 0 9914.44752306 0 805.45405447 0 1423.00411337 0 8037
0.08750000 0.08749060 21815.24797394 0 30.48332818 0 7973.21431888 0 694.73966414 0 1622.09558593 0 8155
0.08850000 0.08849210 21637.20499085 0 -216.55806497 0 7756.65071775 0 917.11180687 0 14.47097492 0 8718
0.08950000 0.08949900 21317.65769659 0 122.76218696 0 7248.65245507 0 205.16907166 0 -230.85132907 0 8571
0.09050000 0.09049190 21175.59976916 0 424.68787628 0 7289.46504436 0 939.99387334 0 -564.55680509 0 8932
0.09150000 0.09150830 20242.53495670 0 855.14775549 0 6413.71058515 0 335.99301832 0 -377.36365277 0 9285
0.09250000 0.09250820 20151.74189318 0 943.33328650 0 7341.16172893 0 23.48085780 0 -67.67227772 0 9204
0.09350000 0.09350330 19286.10753886 0 242.83490623 0 7061.77375679 0 624.57212730 0 562.66454477 0 9349
0.09450000 0.09448040 18874.77067185 0 393.24579549 0 7939.45480051 0 470.63580981 0 1620.34615861 0 9564
0.09550000 0.09549270 19014.06051807 0 613.09566263 0 8058.06154397 0 -55.50445708 0 556.51940450 0 10155
0.09650000 0.09649430 18433.09563483 0 343.69603470 0 7876.99581621 0 155.94040828 0 1301.03138317 0 9913
0.09750000 0.09749140 17849.47339364 0 722.65631671 0 7876.12110255 0 -300.70109019 0 1298.15257871 0 10476
0.09850000 0.09850240 17542.65927292 0 302.54131058 0 7448.95081104 0 308.86582251 0 859.46706940 0 10575
0.09950000 0.09950330 17187.90198573 0 17.81348834 0 7390.14569393 0 901.92943508 0 487.77133970 0 10882
0.10050000 0.10051200 17265.07608972 0 54.95360892 0 7003.63297916 0 1031.58968040 0 224.83241330 0 10875
0.10150000 0.10150300 16744.89826974 0 493.22224521 0 6191.03506072 0 438.83720016 0 50.35527243 0 11118
0.10250000 0.10250800 16609.04084421 0 577.95099642 0 6379.50817378 0 -235.82944631 0 -660.38999086 0 11575
0.10350000 0.10349800 16251.07258282 0 203.42185880 0 6280.73196408 0 -535.08449088 0 -145.04302619 0 11364
0.10450000 0.10450100 15964.63153977 0 258.68936813 0 6263.64736688 0 -574.03250067 0 -732.72659613 0 12093
0.10550000 0.10551000 15985.11534068 0 102.62472837 0 6523.19373296 0 -288.68318883 0 -973.99809009 0 12067
0.10650000 0.10649700 15882.80705936 0 -8.38099697 0 6808.43896493 0 -37.43121201 0 -1524.75877845 0 12054
0.10750000 0.10749900 15454.52953537 0 448.52659161 0 6629.58770214 0 324.22535150 0 -1517.52855034 0 12807
0.10850000 0.10850100 15437.03526216 0 478.73410818 0 6481.52857466 0 1064.97827589 0 -1103.32616567 0 12736
0.10950000 0.10950300 14932.46942017 0 64.26631988 0 6046.92875321 0 872.93987424 0 -1068.95434773 0 12933
0.11050000 0.11050200 14703.82591267 0 390.05918041 0 6023.67687109 0 1269.04343676 0 -120.30745255 0 13428
0.11150000 0.11150900 14612.25778642 0 214.33142044 0 5293.70064044 0 1079.06780922 0 -692.42222656 0 13453
0.11250000 0.11250000 14228.15883846 0 -155.83965013 0 5028.58489499 0 772.55153404 0 524.41630592 0 13668
0.11350000 0.11349100 14523.45774137 0 74.91468538 0 4574.34276930 0 430.56174460 0 190.97102954 0 13791
0.11450000 0.11448600 14187.85557612 0 187.63604531 0 4401.34876634 0 173.94733013 0 227.28493325 0 14205
0.11550000 0.11549300 14116.54980428 0 300.52171853 0 4330.47481517 0 -515.55180267 0 59.34312137 0 14776
0.11650000 0.11649800 13863.76862868 0 8.86069437 0 4849.04714805 0 -306.54838493 0 275.77839426 0 14553
0.11750000 0.11747300 13801.20999345 0 177.03872322 0 5008.30039592 0 -99.17879944 0 511.55801511 0 14568
0.11850000 0.11849100 13939.94622343 0 8.50448661 0 5293.56777255 0 -375.15361674 0 184.34424314 0 16015
0.11950000 0.11950300 13952.90084347 0 238.18563703 0 5343.48181283 0 -2.41196202 0 614.26490013 0 15270
0.12050000 0.12050700 13957.88338963 0 236.88353164 0 5885.50532968 0 211.13373304 0 723.81448188 0 15999
0.12150000 0.12150000 13467.04723042 0 119.29322760 0 4824.84304600 0 483.78087384 0 985.16342244 0 15670
0.12250000 0.12250700 13781.16908553 0 42.50289039 0 5140.13856753 0 786.55691770 0 413.60669360 0 16887
0.12350000 0.12352200 13409.80331111 0 23.78280009 0 4514.40827506 0 376.02722317 0 647.81404433 0 16407
0.12450000 0.12449800 13354.44168702 0 312.98140565 0 3964.77807106 0 905.03522219 0 346.48404608 0 16306
0.12550000 0.12549900 12923.50680508 0 126.54560035 0 3479.82131633 0 293.69452305 0 773.49821781 0 17523
0.12650000 0.12650100 13082.17321973 0 97.25653313 0 3410.75215411 0 559.17011906 0 921.79207857 0 17154
0.12750000 0.12750600 12657.32811644 0 -48.52667798 0 3227.37231046 0 411.26157520 0 781.03847101 0 18007
0.12850000 0.12850300 13031.12980231 0 -85.81040662 0 2912.96257491 0 233.08572422 0 751.81749858 0 17496
0.12950000 0.12949900 12873.01700390 0 58.68498239 0 3048.03386538 0 -77.88804749 0 1056.51791250 0 18405
0.13050000 0.13049000 12934.35768340 0 313.14527606 0 2997.27832841 0 189.10091388 0 894.33603472 0 18100
0.13150000 0.13148800 12559.55948829 0 311.15225759 0 3046.32872735 0 -125.98534072 0 1121.46041926 0 19059
0.13250000 0.13249300 12447.39683787 0 288.49938824 0 3036.98368521 0 -33.56874222 0 1203.57278011 0 18957
0.13350000 0.13349100 12181.77176547 0 29.46810672 0 2909.27549075 0 410.17870184 0 661.25916835 0 19468
0.13450000 0.13450700 12061.63704119 0 68.00566542 0 2724.87699322 0 580.28725696 0 900.71258658 0 19953
0.13550000 0.13551000 12093.41461342 0 102.76877931 0 2234.88233069 0 563.72638072 0 604.05178771 0 19956
0.13650000 0.13649900 11936.07687775 0 -18.12030246 0 2298.89144047 0 191.03967796 0 534.69363782 0 19723
0.13750000 0.13749600 11856.02396931 0 350.70370907 0 2101.04006829 0 -275.74739175 0 847.05942221 0 20946
0.13850000 0.13851100 11764.23439656 0 325.41230472 0 2677.56494927 0 -494.66607637 0 925.74822023 0 20955
0.13950000 0.13949800 11534.70510307 0 352.54835839 0 3055.02050234 0 -690.39045495 0 1483.43686223 0 20506
0.14050000 0.14048300 11323.11297579 0 321.24911059 0 3339.33565903 0 -597.38956987 0 1182.44678436 0 21447
0.14150000 0.14148400 11103.21660489 0 153.13135947 0 4003.21011051 0 -251.06939419 0 1265.59994375 0 21771
0.14250000 0.14249400 11136.87647234 0 240.19969292 0 4554.56759718 0 -8.90303494 0 1190.38564125 0 22470
0.14350000 0.14350900 10997.64198774 0 214.60379964 0 4340.38454588 0 31.59122500 0 1078.30824774 0 22519
0.14450000 0.14449900 10566.92855230 0 157.58354128 0 4209.62038978 0 360.93785890 0 989.60785362 0 22218
0.14550000 0.14550500 10680.12092892 0 16.98350687 0 3924.04298805 0 719.32797587 0 835.25964565 0 23559
0.14650000 0.14650700 10427.69406770 0 34.34624086 0 3480.93962114 0 583.38307897 0 855.79105756 0 23044
0.14750000 0.14750500 10470.72112195 0 171.27225646 0 2903.01962723 0 631.70602618 0 237.86453961 0 23649
0.14850000 0.14849900 10197.93225539 0 7.95288553 0 2638.53500428 0 232.11135964 0 537.57908566 0 23640
0.14950000 0.14949500 10296.84133300 0 61.97268780 0 2360.17675834 0 210.33763288 0 268.56588187 0 24457
0.15050000 0.15050000 10235.61137675 0 84.08102021 0 2322.20975654 0 -93.02192250 0 394.11054406 0 24591
0.15150000 0.15149900 10010.34492832 0 313.47080241 0 2681.00844229 0 -285.43013980 0 531.14717218 0 25020
0.15250000 0.15250500 9914.33679981 0 223.88019337 0 2951.56069923 0 -412.68990511 0 780.01760266 0 25297
0.15350000 0.15350100 9849.22045755 0 139.78920807 0 3173.29507605 0 196.61791520 0 870.75419732 0 25452
0.15450000 0.15450400 9757.80734385 0 3.09350790 0 3026.52033825 0 183.31894586 0 483.58157199 0 26061
0.15550000 0.15549900 9640.50713472 0 -14.51304976 0 3121.48766822 0 247.77094863 0 552.45364683 0 26128
0.15650000 0.15649500 9719.56353393 0 95.05546568 0 2869.11616863 0 -1.49706689 0 212.30407777 0 26331
0.15750000 0.15749700 9495.79184934 0 243.37080675 0 2884.01951784 0 -195.77863298 0 485.28449555 0 27345
0.15850000 0.15849900 9431.99311374 0 241.63245175 0 3032.45510436 0 -211.57994773 0 -131.41299434 0 26980
0.15950000 0.15949700 9343.21521334 0 48.34398462 0 3118.80816562 0 -358.26610692 0 253.31264720 0 27777
0.16050000 0.16050000 9296.97718490 0 144.76732531 0 3316.59310385 0 -160.58857024 0 -177.23802507 0 28224
0.16150000 0.16150500 9083.98994469 0 262.38973909 0 3412.45729213 0 -23.23062326 0 -147.89304260 0 28075
0.16250000 0.16249700 8871.54524839 0 200.02597678 0 3069.42559693 0 279.59391739 0 -93.03576290 0 28590
0.16350000 0.16349900 8716.17838654 0 123.41102520 0 2976.84988912 0 440.06290652 0 -84.83227745 0 29163
0.16450000 0.16449100 8714.51753781 0 -43.60525105 0 2694.09593022 0 458.27688085 0 -117.35557075 0 28996
0.16550000 0.16550500 8559.73750918 0 35.39910823 0 2540.79959311 0 616.08297586 0 -170.27463999 0 30777
0.16650000 0.16650700 8637.33236150 0 117.75971061 0 2278.71766465 0 106.57677327 0 324.11130656 0 29211
0.16750000 0.16749900 8469.97417187 0 108.90661185 0 2142.62772031 0 204.21131556 0 -106.61962316 0 30922
0.16850000 0.16850800 8432.56078631 0 81.12625961 0 2268.45361954 0 -70.87882299 0 136.15084213 0 30867
0.16950000 0.16949900 8436.73505276 0 127.31955586 0 2439.35495312 0 -80.99383460 0 273.83630848 0 30852
0.17050000 0.17049200 8285.35422784 0 161.05582235 0 2379.88549652 0 176.45521170 0 797.06676842 0 31257
0.17150000 0.17149500 8183.12345279 0 247.17968648 0 2415.79304591 0 158.99858440 0 591.53673897 0 32608
0.17250000 0.17250900 7902.04141495 0 155.24949521 0 2168.22693529 0 272.01933998 0 849.83193234 0 32361
0.17350000 0.17350400 7912.94765489 0 -0.28081741 0 2086.63497370 0 479.31097631 0 498.40630769 0 32508
0.17450000 0.17449800 7823.95938033 0 -9.28516301 0 1921.81234645 0 234.06451774 0 791.47635162 0 32791
0.17550000 0.17549800 7932.66746540 0 30.31336800 0 1776.45486623 0 102.22479600 0 542.76204091 0 33633
0.17650000 0.17650100 7804.01812333 0 14.71788777 0 1971.56030186 0 -195.16965511 0 526.74703029 0 33984
0.17750000 0.17750300 7777.98708768 0 88.95572193 0 1874.11277113 0 -102.85691502 0 711.30718377 0 34069
0.17850000 0.17849800 7863.05575926 0 -16.31097386 0 2073.15995439 0 -290.07830176 0 261.85716026 0 34536
