### header ###
fiducial parameters:
Omega_m = 0.31
Omega_nu = 0
Omega_de = 0.69
Omega_k = 0
H_0 = 100
w_de = -1
zeff = 0
beta = 0
fgrowth = 0
b_1 = 2
gamma = 0.55
Lx = 3500 Ly = 3500 Lz = 3500
nx = 700 ny = 700 nz = 700
xoffset = -685.467585 yoffset = -31.7331281 zoffset = 572.489161
bins = 400 dk = 0.001
kx_ny = 0.628318531 ky_ny = 0.628318531 kz_ny = 0.628318531
############################
A(data) = 8.12421003 (not used)
A(ran) = 8.12614853 (used)
Ngal = 483075
weighted Ngal = 0
Nran = 23820508
weighted Nran = 0
SN(data) = 3481.99578
SN(ran) = 70.7817008
SN(data+ran) = 3552.77748
############################
13 columns: k_central k_mean P_0(k) sigma^{lin}_{P_0(k)} P^img_1(k) sigma^{lin}_{P_1(k)} P_2(k) sigma^{lin}_{P_2(k)} P^img_3(k) sigma^{lin}_{P_3(k)} P_4(k) sigma^{lin}_{P_4(k)} N_modes
### header ###
0.00050000 0 0 0 0 0 0 0 0 0 0 0 0
0.00150000 0.00179520 72552.95849965 0 -61915.88676963 0 24026.39124022 0 13317.46012212 0 -144132.88109425 0 3
0.00250000 0.00253879 113295.34924183 0 -46684.24313286 0 1284.27895571 0 -43911.29010528 0 20849.29835676 0 6
0.00350000 0.00331552 95666.76872832 0 4261.42779760 0 -13970.72728642 0 -20303.32201995 0 94698.16175319 0 7
0.00450000 0.00420575 84658.99556337 0 13153.81116130 0 -36779.82713608 0 -24878.18518852 0 24119.95238494 0 24
0.00550000 0.00557378 77618.43638094 0 -14979.30535415 0 -28322.12110011 0 -31437.87330408 0 -30804.86849420 0 45
0.00650000 0.00659388 109342.64000483 0 -2716.94920865 0 -42314.66086643 0 -35763.38771773 0 42869.27361659 0 40
0.00750000 0.00754703 82184.55241290 0 7154.75914061 0 -30138.97887960 0 -38478.10031677 0 11872.63245654 0 57
0.00850000 0.00846663 89336.05629001 0 4989.69889022 0 -13038.32681345 0 -32033.56437932 0 19475.22284677 0 75
0.00950000 0.00948925 84024.55135126 0 1853.86148904 0 24863.23755001 0 -24362.65774496 0 -11780.62143730 0 112
0.01050000 0.01054430 84786.77019178 0 12534.09314120 0 2590.01607693 0 -24063.37280512 0 4596.28811709 0 105
0.01150000 0.01145670 79179.63418037 0 6653.28247725 0 34811.05706008 0 -7838.86272953 0 -12464.78038784 0 144
0.01250000 0.01249090 73414.71754029 0 1378.06154693 0 33774.24456406 0 -2468.68554157 0 4640.41133149 0 169
0.01350000 0.01339930 74599.45629589 0 3218.94627128 0 45061.26176094 0 22789.16966499 0 -13626.82087756 0 180
0.01450000 0.01448870 73185.07752355 0 -3061.56424630 0 19582.18150451 0 24898.00464995 0 538.48590907 0 267
0.01550000 0.01550050 76291.75042117 0 -4770.57758206 0 3389.59294138 0 31218.64127267 0 -2939.27041868 0 238
0.01650000 0.01653350 68897.09829103 0 -3453.53561721 0 -3888.45653609 0 6073.76806857 0 -14406.31254479 0 315
0.01750000 0.01747870 76695.22593756 0 3293.18620919 0 -16035.27297211 0 -136.97240863 0 2552.07121977 0 297
0.01850000 0.01844180 73023.53230445 0 -1941.60966322 0 -10897.16064002 0 -16500.53206099 0 -5224.81970775 0 388
0.01950000 0.01947590 71056.75524691 0 2282.26080859 0 4124.52957354 0 -23642.18156901 0 3672.36904493 0 399
0.02050000 0.02045430 73523.00487702 0 9338.62019854 0 15637.00144838 0 -24200.11601663 0 1050.19118610 0 462
0.02150000 0.02154770 63879.34212972 0 9988.32207425 0 27623.23595756 0 -8423.48147996 0 5191.72452886 0 571
0.02250000 0.02255340 61007.51324151 0 4292.51888569 0 34820.13636643 0 -972.62069288 0 8865.48868672 0 510
0.02350000 0.02348930 62403.51195464 0 -500.79682262 0 49327.42851357 0 2419.26975590 0 -892.21347005 0 555
0.02450000 0.02439640 64585.09211366 0 -37.83723416 0 49991.76800268 0 8671.36868800 0 3036.19755015 0 592
0.02550000 0.02547300 64643.66471195 0 -651.22321314 0 45575.12835577 0 6850.34771437 0 -1480.27017733 0 837
0.02650000 0.02652900 65097.51930627 0 -1177.66354004 0 42784.12743874 0 5176.98726453 0 932.52005409 0 723
0.02750000 0.02749970 66765.12214720 0 -354.02208482 0 30280.92608378 0 9498.49349660 0 -12939.00805982 0 826
0.02850000 0.02848090 67092.97368508 0 -2810.48820872 0 36221.78196522 0 528.27168942 0 -10114.03725024 0 831
0.02950000 0.02946900 68444.24020595 0 1519.22261604 0 35923.93642760 0 -346.44861465 0 -15726.79800266 0 996
0.03050000 0.03053250 63108.81904559 0 6197.99955303 0 29814.89193216 0 1463.99385985 0 -17431.38240849 0 1041
0.03150000 0.03150510 60874.86679018 0 3601.53938306 0 37154.73605444 0 -2976.61737030 0 -3665.20525077 0 1036
0.03250000 0.03246190 56003.37603972 0 3067.93083308 0 31300.24430658 0 6329.85986930 0 -4018.77779920 0 1059
0.03350000 0.03345080 57641.74794314 0 2014.52092215 0 36215.69218657 0 7795.73602436 0 6415.27178295 0 1302
0.03450000 0.03451200 56253.94275037 0 1106.83941433 0 33705.59615019 0 10480.60870801 0 3873.48675293 0 1339
0.03550000 0.03553350 54170.46338924 0 930.92010315 0 30141.08262132 0 9861.32250858 0 12832.38157182 0 1365
0.03650000 0.03647120 56006.36556742 0 101.10117647 0 32887.90496233 0 8522.27983431 0 9456.57367484 0 1308
0.03750000 0.03744890 55105.18905043 0 -872.48037276 0 32161.33900773 0 983.08403984 0 11190.57724771 0 1579
0.03850000 0.03847530 57021.36558355 0 1635.61489454 0 31466.43990211 0 2739.35959408 0 14153.08847619 0 1662
0.03950000 0.03950240 52988.27126835 0 2933.71211162 0 31007.71348487 0 -113.75595795 0 15969.72480918 0 1683
0.04050000 0.04050350 54003.49273098 0 2798.58545954 0 33612.25645196 0 2157.35391231 0 17459.94900652 0 1822
0.04150000 0.04152450 51007.32163505 0 1895.24983921 0 27964.81717821 0 6469.33794504 0 9664.93268327 0 1887
0.04250000 0.04250150 48222.07832692 0 3438.34438756 0 26649.42498976 0 7312.73907112 0 13177.28448992 0 1920
0.04350000 0.04349210 44059.65925785 0 3490.47289280 0 20569.72215509 0 6370.66138625 0 5764.46267476 0 2005
0.04450000 0.04448520 41922.81129110 0 1841.40512361 0 18246.63768489 0 6620.47517881 0 6732.74855247 0 2151
0.04550000 0.04548030 38574.54026594 0 1101.17259849 0 10641.06883928 0 6894.10554206 0 1533.70521690 0 2274
0.04650000 0.04648670 37221.50217310 0 63.92042045 0 8351.31206679 0 3588.16401468 0 3123.56926529 0 2311
0.04750000 0.04749250 39260.13861871 0 -1843.18776791 0 5845.43458616 0 2004.33438332 0 -177.64770109 0 2568
0.04850000 0.04851840 38619.82607445 0 -1070.30517136 0 4964.45398964 0 292.31601861 0 -2063.90349085 0 2493
0.04950000 0.04949480 40036.53003499 0 1611.61009433 0 8384.98300656 0 -4628.70788416 0 -670.89430541 0 2644
0.05050000 0.05050630 37013.01029676 0 3239.85082053 0 10155.30380484 0 -2738.15271068 0 1168.36278719 0 2829
0.05150000 0.05149060 36883.90698938 0 1542.40806421 0 13093.02409805 0 -4290.97983254 0 3234.66897252 0 2784
0.05250000 0.05249300 35599.07441742 0 419.12403306 0 13600.57946774 0 770.05583202 0 4385.86965624 0 3055
0.05350000 0.05348950 35912.42120979 0 867.20330275 0 14804.25189877 0 1526.17603603 0 5067.72556322 0 3009
0.05450000 0.05448610 35509.05641665 0 -28.68651131 0 14428.67864092 0 1564.86273894 0 1511.44984402 0 3336
0.05550000 0.05550870 35379.28876977 0 289.95650619 0 14230.92691966 0 294.97226933 0 1136.18661127 0 3349
0.05650000 0.05647670 35163.15698931 0 -24.08618179 0 12762.40447896 0 1073.60693862 0 561.25282336 0 3324
0.05750000 0.05747970 34862.10047749 0 176.71984027 0 12270.46108727 0 215.25706680 0 -1600.51562486 0 3639
0.05850000 0.05849280 34825.34035910 0 360.81052717 0 12852.09031000 0 606.61503091 0 -489.50969470 0 3846
0.05950000 0.05951020 34628.25297732 0 112.28887492 0 12125.41363215 0 1124.08456024 0 -2825.12582213 0 3787
0.06050000 0.06049470 33355.93213241 0 712.86505987 0 10773.20596367 0 530.91908229 0 -2871.46350149 0 3930
0.06150000 0.06148310 33301.23484781 0 1206.52909084 0 10891.95664735 0 902.95805405 0 -2307.11817781 0 4083
0.06250000 0.06249100 32899.08801040 0 234.77646822 0 10561.82421056 0 848.48996657 0 -3097.20605990 0 4303
0.06350000 0.06350600 32457.30225013 0 -948.10988743 0 10284.37389525 0 1681.25501744 0 -1205.10076094 0 4470
0.06450000 0.06451750 33676.47593591 0 -108.50213983 0 10691.49220651 0 3644.94289635 0 -225.94850364 0 4479
0.06550000 0.06550280 33249.96998390 0 801.18235155 0 10518.83037329 0 228.71326315 0 666.07784412 0 4636
0.06650000 0.06648880 32126.35046130 0 2156.81136840 0 10610.57565673 0 959.88862657 0 3129.73655021 0 4653
0.06750000 0.06749660 30708.98216127 0 1519.00116955 0 10520.10369064 0 -79.38856895 0 3692.36566355 0 5220
0.06850000 0.06852730 29448.84087366 0 560.06144121 0 12095.29690864 0 -864.27245837 0 3798.50496926 0 5029
0.06950000 0.06949320 29447.95508767 0 278.97054550 0 12501.87267598 0 -43.52575176 0 4345.86534667 0 5040
0.07050000 0.07048030 29615.47936218 0 240.92935912 0 13540.89963696 0 -437.16417188 0 4154.05946384 0 5475
0.07150000 0.07148790 28521.64439334 0 356.03503347 0 12044.80710747 0 130.45634548 0 3551.22673908 0 5509
0.07250000 0.07249820 28441.25931516 0 734.26564928 0 12941.11180154 0 803.14879644 0 1838.39345126 0 5916
0.07350000 0.07351270 27783.56322093 0 601.83842998 0 10981.67569536 0 1423.20341521 0 981.39772477 0 5721
0.07450000 0.07449140 27463.79448017 0 559.08707663 0 10568.81084752 0 1361.91809734 0 -1328.00356642 0 6028
0.07550000 0.07549160 26516.22492219 0 916.67555727 0 9443.56369317 0 748.74935737 0 245.16673783 0 6183
0.07650000 0.07648840 24985.80818576 0 875.63377087 0 8509.17020173 0 1864.75665666 0 125.52141031 0 6330
0.07750000 0.07749960 24838.10337268 0 917.93780230 0 8171.90718775 0 1297.17821413 0 1279.52892837 0 6583
0.07850000 0.07848650 24134.56785370 0 113.59098031 0 7289.68649085 0 1671.57780555 0 399.44408293 0 6549
0.07950000 0.07947320 23575.52617361 0 474.99830579 0 7279.86533874 0 1238.66097746 0 2117.17244555 0 6828
0.08050000 0.08048110 23594.12767930 0 -20.59828875 0 7568.44334049 0 203.21148463 0 3267.06659494 0 7147
0.08150000 0.08149960 24176.42124151 0 -485.32546315 0 7320.14645643 0 1042.92774102 0 4302.60577360 0 7386
0.08250000 0.08250610 24401.41088183 0 -116.00363989 0 8150.21650343 0 658.03490737 0 4874.61314606 0 7227
0.08350000 0.08350160 24504.38350264 0 -229.88582235 0 8005.10261436 0 -263.48036308 0 4793.02118447 0 7798
0.08450000 0.08449610 24687.96264814 0 408.05392270 0 8303.91144424 0 482.43447914 0 6429.96475798 0 7371
0.08550000 0.08548940 24243.51952992 0 742.00520433 0 8322.95584293 0 -191.73944888 0 5384.72622278 0 8256
0.08650000 0.08650700 23503.33461579 0 769.76905881 0 8522.47913616 0 -234.58270254 0 3788.75025109 0 8037
0.08750000 0.08749060 22359.89563177 0 1193.41945825 0 8267.43920629 0 -379.13190305 0 3286.08884898 0 8155
0.08850000 0.08849210 21582.06481326 0 788.14358185 0 7766.01790455 0 -1257.90467800 0 1890.43337791 0 8718
0.08950000 0.08949900 21320.75794754 0 651.58638539 0 8416.29554115 0 -11.69636105 0 2478.94958667 0 8571
0.09050000 0.09049190 20681.66335900 0 619.61172578 0 7928.98038123 0 -495.17429607 0 725.13873193 0 8932
0.09150000 0.09150830 19957.86548561 0 577.79709110 0 8077.80349912 0 -149.57382151 0 816.62824467 0 9285
0.09250000 0.09250820 20072.13187774 0 643.93208725 0 7874.27202430 0 619.90957132 0 -1077.61401297 0 9204
0.09350000 0.09350330 19080.27302048 0 396.55863508 0 7619.33174535 0 404.93706327 0 -363.36712697 0 9349
0.09450000 0.09448040 19491.16699450 0 -355.51352697 0 7100.26115785 0 1612.72839914 0 123.65240188 0 9564
0.09550000 0.09549270 19214.69104378 0 -292.14993373 0 6574.28143967 0 1184.93805744 0 -572.38493873 0 10155
0.09650000 0.09649430 19731.87933606 0 425.29353245 0 5946.67992430 0 915.40556161 0 -1403.40609844 0 9913
0.09750000 0.09749140 18661.73914234 0 517.93567420 0 5658.14621185 0 -269.45388232 0 -1231.01000101 0 10476
0.09850000 0.09850240 18272.43620172 0 721.74838607 0 5624.72993555 0 -104.73300974 0 -118.06309231 0 10575
0.09950000 0.09950330 17677.40946596 0 94.73547549 0 5578.30367758 0 501.56302749 0 -1336.11958052 0 10882
0.10050000 0.10051200 17932.29438329 0 -239.37923365 0 5153.66894846 0 927.86746320 0 -1280.97940292 0 10875
0.10150000 0.10150300 17807.06638959 0 133.75146934 0 4766.45867723 0 115.98592417 0 -1544.04676829 0 11118
0.10250000 0.10250800 17549.63483755 0 644.81676600 0 5138.88739483 0 -382.38273761 0 -2032.97848763 0 11575
0.10350000 0.10349800 16893.26742231 0 538.00979910 0 5429.66878922 0 -351.91280694 0 -856.06565121 0 11364
0.10450000 0.10450100 16916.96219742 0 346.61912845 0 5678.86253159 0 -373.35657842 0 -757.61828955 0 12093
0.10550000 0.10551000 16625.20643845 0 107.38649238 0 5974.59325517 0 628.77296734 0 -60.33542313 0 12067
0.10650000 0.10649700 16471.63329321 0 186.71814958 0 5702.63481297 0 674.93681120 0 -665.23191850 0 12054
0.10750000 0.10749900 16558.10815004 0 344.77005020 0 6017.83068358 0 237.98301349 0 109.48813035 0 12807
0.10850000 0.10850100 16327.25017758 0 441.93966558 0 5887.55370977 0 -5.32986285 0 178.11273873 0 12736
0.10950000 0.10950300 16122.30144518 0 200.85529391 0 6477.56468238 0 -445.77622613 0 721.45829116 0 12933
0.11050000 0.11050200 15836.08184862 0 212.03502028 0 6685.14862808 0 -57.68847315 0 828.66829068 0 13428
0.11150000 0.11150900 15915.58114082 0 192.56212262 0 7203.74310561 0 -91.09877040 0 580.12338655 0 13453
0.11250000 0.11250000 15573.88919692 0 292.61607861 0 6979.89391475 0 104.12613561 0 1010.02300612 0 13668
0.11350000 0.11349100 15418.54447971 0 371.39234800 0 6533.80102013 0 612.88418122 0 273.84848804 0 13791
0.11450000 0.11448600 15056.70090464 0 251.93967892 0 6193.82528658 0 588.17961009 0 1267.54867291 0 14205
0.11550000 0.11549300 14774.13517526 0 111.20932325 0 5569.89978305 0 1022.04755087 0 94.14941734 0 14776
0.11650000 0.11649800 14766.82744088 0 -105.70028803 0 5525.92050887 0 984.95858443 0 469.30713083 0 14553
0.11750000 0.11747300 14783.32520486 0 103.69520073 0 4575.92611175 0 260.81414727 0 480.31302170 0 14568
0.11850000 0.11849100 14598.08521065 0 138.61221994 0 4356.60550174 0 475.76561790 0 140.67167236 0 16015
0.11950000 0.11950300 14441.85470746 0 37.21430516 0 4096.80447220 0 221.61368848 0 526.76363878 0 15270
0.12050000 0.12050700 14386.60380661 0 44.07272460 0 4134.27321938 0 237.43825511 0 335.68520769 0 15999
0.12150000 0.12150000 14536.74453115 0 -0.73084430 0 3806.83135752 0 187.36920228 0 766.38092741 0 15670
0.12250000 0.12250700 14159.28897808 0 276.00759138 0 3781.45358904 0 367.02985202 0 295.86912764 0 16887
0.12350000 0.12352200 13960.98364058 0 317.82222606 0 3907.75559824 0 -327.12851507 0 -507.98276142 0 16407
0.12450000 0.12449800 13619.51314318 0 599.61067823 0 3913.13674811 0 -215.28364038 0 -424.62919296 0 16306
0.12550000 0.12549900 13291.88305179 0 368.19576782 0 4109.24976529 0 -562.31133761 0 -116.61372499 0 17523
0.12650000 0.12650100 13165.10493262 0 59.69057093 0 4518.72648174 0 -49.49871738 0 202.17954396 0 17154
0.12750000 0.12750600 13136.42761134 0 -41.42400306 0 4234.63277154 0 309.18913440 0 -511.62223459 0 18007
0.12850000 0.12850300 13293.76534701 0 -138.60779101 0 4067.55139003 0 500.93522668 0 -171.96981292 0 17496
0.12950000 0.12949900 13268.07755343 0 91.23595651 0 3910.09185878 0 74.50622732 0 -199.88978718 0 18405
0.13050000 0.13049000 13294.54040975 0 187.94274870 0 3952.98604513 0 237.63312803 0 158.09618992 0 18100
0.13150000 0.13148800 13134.54531612 0 124.10415273 0 4026.35126938 0 419.32222767 0 63.46523718 0 19059
0.13250000 0.13249300 12962.81355818 0 249.50044577 0 3846.04953203 0 26.25403227 0 177.17712728 0 18957
0.13350000 0.13349100 12765.61545316 0 338.93936395 0 3860.12245688 0 -29.30888669 0 -129.04019513 0 19468
0.13450000 0.13450700 12506.96594540 0 238.80125829 0 3635.09959959 0 569.92023923 0 318.64600703 0 19953
0.13550000 0.13551000 12193.39770653 0 -75.34562027 0 3118.71958702 0 853.92758529 0 503.14526271 0 19956
0.13650000 0.13649900 12438.76042452 0 -124.77735008 0 2679.02649615 0 857.89479927 0 -453.30651424 0 19723
0.13750000 0.13749600 12358.48606958 0 121.77453559 0 2538.49654955 0 284.57203463 0 -335.52465898 0 20946
0.13850000 0.13851100 11898.54169661 0 642.72852554 0 2666.22688865 0 -507.96947463 0 -63.27833634 0 20955
0.13950000 0.13949800 11606.67521439 0 442.57964595 0 2455.48733038 0 -819.24574226 0 459.94990913 0 20506
0.14050000 0.14048300 11438.59732365 0 147.31838894 0 3346.80947828 0 -43.13788822 0 453.06403032 0 21447
0.14150000 0.14148400 11353.11897605 0 -22.66161648 0 3356.91851084 0 -99.49314274 0 631.50893880 0 21771
0.14250000 0.14249400 11390.43271069 0 72.77650874 0 3320.37983894 0 401.36845298 0 162.41661107 0 22470
0.14350000 0.14350900 11201.09595629 0 112.30326894 0 3132.17246167 0 190.43734349 0 630.20461894 0 22519
0.14450000 0.14449900 11147.50590416 0 227.76215045 0 3055.18658721 0 471.79065329 0 157.99543177 0 22218
0.14550000 0.14550500 10876.99793652 0 206.51989528 0 2658.50947826 0 220.26286485 0 589.66108715 0 23559
0.14650000 0.14650700 10638.44469830 0 139.29759685 0 2651.63356454 0 291.06927483 0 59.53633344 0 23044
0.14750000 0.14750500 10514.64503451 0 96.01255743 0 2207.98765371 0 111.01666479 0 -303.97296218 0 23649
0.14850000 0.14849900 10443.74893869 0 99.60087646 0 2593.54814855 0 -92.45169777 0 -36.18480040 0 23640
0.14950000 0.14949500 10352.19188477 0 158.74613539 0 2196.54994217 0 -374.90670389 0 -328.73178770 0 24457
0.15050000 0.15050000 10353.76415489 0 -32.23928817 0 2502.75508503 0 -66.94305441 0 21.06731243 0 24591
0.15150000 0.15149900 10427.29546401 0 59.31333682 0 2683.27826888 0 -173.40589345 0 -170.40529342 0 25020
0.15250000 0.15250500 10307.71435597 0 361.58669714 0 2907.64785900 0 234.40111641 0 0.93251895 0 25297
0.15350000 0.15350100 10119.76164217 0 223.68974938 0 3004.23174839 0 89.91281369 0 161.10564781 0 25452
0.15450000 0.15450400 9946.67906061 0 192.35949907 0 3122.48417746 0 87.07586262 0 301.12848193 0 26061
0.15550000 0.15549900 9827.04259094 0 234.51405412 0 3184.17917135 0 164.82041279 0 355.84901842 0 26128
0.15650000 0.15649500 9498.69279845 0 393.29562095 0 3027.43934121 0 100.30031522 0 383.13676293 0 26331
0.15750000 0.15749700 9258.75551963 0 311.49328519 0 2907.22711066 0 -14.96325048 0 724.57625783 0 27345
0.15850000 0.15849900 9040.59750372 0 -60.16269486 0 2662.01940522 0 579.16009429 0 825.88692269 0 26980
0.15950000 0.15949700 9158.79457116 0 -118.72189564 0 2372.82135329 0 553.72917865 0 289.11279504 0 27777
0.16050000 0.16050000 9184.72595589 0 3.89652826 0 2093.79876786 0 351.05913070 0 -6.22574680 0 28224
0.16150000 0.16150500 9174.45083846 0 163.28357410 0 2071.29980382 0 169.98675955 0 257.37397594 0 28075
0.16250000 0.16249700 8838.30612929 0 240.58058089 0 1807.60131594 0 -134.88859710 0 555.07114441 0 28590
0.16350000 0.16349900 8957.76544176 0 91.70830188 0 1916.55299216 0 -101.64992089 0 510.81727658 0 29163
0.16450000 0.16449100 8640.22223828 0 105.52933134 0 1968.77007600 0 87.36296801 0 407.54238130 0 28996
0.16550000 0.16550500 8624.54382634 0 81.00269246 0 1968.55970183 0 276.19803537 0 453.94428015 0 30777
0.16650000 0.16650700 8657.18503990 0 12.23314735 0 1792.22185677 0 341.22690626 0 533.41256984 0 29211
0.16750000 0.16749900 8522.71165498 0 15.24703417 0 1704.62869513 0 255.63008479 0 408.24547392 0 30922
0.16850000 0.16850800 8502.07284152 0 173.57751448 0 1520.76166919 0 -32.07652500 0 471.47952096 0 30867
0.16950000 0.16949900 8490.75692555 0 106.58961716 0 1596.35243073 0 52.10104588 0 322.72837319 0 30852
0.17050000 0.17049200 8345.15585419 0 117.69992005 0 1595.88739309 0 -273.89388457 0 232.14125492 0 31257
0.17150000 0.17149500 8213.41733350 0 172.59207758 0 1651.91335667 0 -221.62476080 0 235.84937650 0 32608
0.17250000 0.17250900 8187.19806833 0 94.87753342 0 1907.07508211 0 -270.62865598 0 113.98958401 0 32361
0.17350000 0.17350400 8158.48753007 0 172.39277573 0 2020.71035173 0 -119.00202545 0 239.81105432 0 32508
0.17450000 0.17449800 7983.33442377 0 137.81058362 0 1973.47581405 0 15.84815068 0 199.91414630 0 32791
0.17550000 0.17549800 7944.66986550 0 168.61711297 0 1968.57077416 0 61.09719907 0 498.29779891 0 33633
0.17650000 0.17650100 7770.74578725 0 79.65917657 0 1957.75311281 0 189.61356252 0 188.03022007 0 33984
0.17750000 0.17750300 7805.22500673 0 -15.06733034 0 1879.07317265 0 264.90869298 0 248.27141771 0 34069
0.17850000 0.17849800 7718.81658385 0 -31.51681898 0 1877.89950622 0 137.90137669 0 431.05999921 0 34536
