### header ###
fiducial parameters:
Omega_m = 0.31
Omega_nu = 0
Omega_de = 0.69
Omega_k = 0
H_0 = 100
w_de = -1
zeff = 0
beta = 0
fgrowth = 0
b_1 = 2
gamma = 0.55
Lx = 3500 Ly = 3500 Lz = 3500
nx = 700 ny = 700 nz = 700
xoffset = -685.467585 yoffset = -31.7331281 zoffset = 572.489161
bins = 400 dk = 0.001
kx_ny = 0.628318531 ky_ny = 0.628318531 kz_ny = 0.628318531
############################
A(data) = 8.01862554 (not used)
A(ran) = 8.02086147 (used)
Ngal = 477012
weighted Ngal = 0
Nran = 23820508
weighted Nran = 0
SN(data) = 3483.65939
SN(ran) = 69.8646123
SN(data+ran) = 3553.52401
############################
13 columns: k_central k_mean P_0(k) sigma^{lin}_{P_0(k)} P^img_1(k) sigma^{lin}_{P_1(k)} P_2(k) sigma^{lin}_{P_2(k)} P^img_3(k) sigma^{lin}_{P_3(k)} P_4(k) sigma^{lin}_{P_4(k)} N_modes
### header ###
0.00050000 0 0 0 0 0 0 0 0 0 0 0 0
0.00150000 0.00179520 -128.25516730 0 -3803.12212871 0 -3426.19804723 0 5799.81660790 0 6452.30870947 0 3
0.00250000 0.00253879 2933.32458026 0 -4909.53525854 0 -4984.72741638 0 -245.66056352 0 -10978.44257651 0 6
0.00350000 0.00331552 9192.22191979 0 -8589.45562899 0 -11366.18431933 0 13602.01886996 0 2432.85549845 0 7
0.00450000 0.00420575 14260.37930368 0 -10832.31003355 0 -11946.15269333 0 8202.01283893 0 -6033.04405788 0 24
0.00550000 0.00557378 28197.55744590 0 -8345.57660253 0 -9099.10366807 0 -5089.09515012 0 -12051.11833261 0 45
0.00650000 0.00659388 37515.47239703 0 -13119.15478462 0 3243.01750543 0 -18136.02515995 0 -20670.36958769 0 40
0.00750000 0.00754703 35039.92201408 0 -5445.18111629 0 2330.60257875 0 -21461.81936573 0 -11910.94270041 0 57
0.00850000 0.00846663 60769.67970440 0 -12935.13274614 0 8144.13779711 0 -19787.57312990 0 -3288.55797741 0 75
0.00950000 0.00948925 63430.58080482 0 -8855.21356929 0 15026.36273463 0 -21079.49198974 0 1369.75730331 0 112
0.01050000 0.01054430 85109.30701374 0 -7920.33289555 0 45578.78222296 0 -20172.44714060 0 -9991.33374660 0 105
0.01150000 0.01145670 85052.50598742 0 8389.20156232 0 48883.87118133 0 -11083.50786671 0 -641.69215593 0 144
0.01250000 0.01249090 79904.76073274 0 15543.32958042 0 59941.46980797 0 -4813.53820236 0 -1991.97766882 0 169
0.01350000 0.01339930 67149.55326491 0 2816.81050619 0 54878.31711490 0 9947.76414844 0 14002.72630515 0 180
0.01450000 0.01448870 71053.87644246 0 3010.72013074 0 56227.47989405 0 27438.88174933 0 -14482.71158604 0 267
0.01550000 0.01550050 80391.27868527 0 -7427.81374296 0 60562.95940004 0 31168.59436449 0 6416.51188333 0 238
0.01650000 0.01653350 79222.26263092 0 -7108.97507749 0 42209.58450390 0 17463.71359696 0 -23138.61223626 0 315
0.01750000 0.01747870 86103.38033596 0 2467.91047883 0 31494.67433040 0 -6497.87132610 0 -19373.46818168 0 297
0.01850000 0.01844180 82258.18337294 0 3619.74228506 0 37729.16826603 0 -5712.94314738 0 -25195.07512483 0 388
0.01950000 0.01947590 75324.80429475 0 9643.05376943 0 34368.49623708 0 -8892.40550835 0 -23355.29763296 0 399
0.02050000 0.02045430 69899.91874986 0 13927.21304989 0 42024.01233994 0 -8506.93359211 0 -32870.96430536 0 462
0.02150000 0.02154770 63422.94090070 0 4522.81216960 0 38436.02548246 0 -1731.75589094 0 -31854.30344051 0 571
0.02250000 0.02255340 62470.38879655 0 -1928.68826016 0 37745.99819976 0 5003.73859809 0 -25832.61958789 0 510
0.02350000 0.02348930 62399.52591771 0 -4566.92431167 0 35108.68115120 0 8902.92421693 0 -36745.06003615 0 555
0.02450000 0.02439640 69209.78074391 0 -4825.30808364 0 32991.65264588 0 19285.66464587 0 -21383.75947576 0 592
0.02550000 0.02547300 66504.25817448 0 -772.57921485 0 21166.63118606 0 13009.98166191 0 -29250.64625940 0 837
0.02650000 0.02652900 69925.82798993 0 281.60243711 0 15995.74477251 0 7148.02716712 0 -24022.73737303 0 723
0.02750000 0.02749970 65943.44492241 0 2567.71641474 0 1835.94646748 0 -4765.62825287 0 -24284.81930149 0 826
0.02850000 0.02848090 64977.16313549 0 3333.77735197 0 11051.08809964 0 -1531.18072685 0 -10506.04183812 0 831
0.02950000 0.02946900 64185.71335745 0 -598.02733578 0 11047.20171363 0 -3767.32530257 0 -14238.67754703 0 996
0.03050000 0.03053250 62124.04647622 0 2127.77973272 0 9160.68793871 0 -2009.01797672 0 -17121.80020656 0 1041
0.03150000 0.03150510 60145.97564737 0 3868.23847097 0 16571.94855607 0 -2059.13131885 0 -16064.94680262 0 1036
0.03250000 0.03246190 56239.99162109 0 6019.07078396 0 16349.39482721 0 -4954.80999472 0 -16322.15690816 0 1059
0.03350000 0.03345080 52467.42910889 0 5990.93600660 0 20396.32954843 0 2437.06298188 0 -9624.54084233 0 1302
0.03450000 0.03451200 49085.38749303 0 820.51795238 0 15228.76483232 0 3807.56213096 0 -894.57741140 0 1339
0.03550000 0.03553350 50083.55757543 0 -1588.63502033 0 18697.05985851 0 8251.81615597 0 -9467.82315685 0 1365
0.03650000 0.03647120 49959.87970721 0 -1728.73314626 0 16363.23523324 0 2811.80581537 0 -10241.42434728 0 1308
0.03750000 0.03744890 51474.57374240 0 1540.41504574 0 17962.63255329 0 3745.43531640 0 -1391.71372343 0 1579
0.03850000 0.03847530 48392.14923613 0 1802.59662513 0 13259.44114007 0 1106.26808237 0 4753.57049114 0 1662
0.03950000 0.03950240 47022.05976308 0 1834.82816267 0 14824.62497644 0 6597.23436902 0 3988.99324544 0 1683
0.04050000 0.04050350 45949.26221140 0 2562.52349440 0 13579.65277383 0 4464.28386060 0 3100.54990199 0 1822
0.04150000 0.04152450 43832.89804556 0 2486.97702217 0 13356.65615198 0 437.13649107 0 2850.71396478 0 1887
0.04250000 0.04250150 40796.31296405 0 1896.51208424 0 11270.18726316 0 -925.63749698 0 9915.62118949 0 1920
0.04350000 0.04349210 40905.70753326 0 -1346.16217913 0 11606.23232140 0 1185.85706040 0 6960.56163562 0 2005
0.04450000 0.04448520 42825.20576382 0 -2377.29457251 0 10909.03017222 0 2198.50974367 0 3428.06927013 0 2151
0.04550000 0.04548030 41863.68507656 0 1487.93222610 0 10761.58002261 0 -890.00564848 0 -4326.55521219 0 2274
0.04650000 0.04648670 41822.82819798 0 1958.72747739 0 8513.55484236 0 -4585.45938342 0 -4726.77546508 0 2311
0.04750000 0.04749250 39856.71547994 0 1375.84708196 0 12807.46884098 0 -2281.72933700 0 -2913.72656533 0 2568
0.04850000 0.04851840 38711.61564719 0 1376.56678308 0 13093.90988403 0 -4443.94399991 0 -7208.31597576 0 2493
0.04950000 0.04949480 38215.68621857 0 1208.74355580 0 16461.11458463 0 1708.81403391 0 -5589.70817215 0 2644
0.05050000 0.05050630 37031.50107921 0 1539.28566861 0 15364.40081135 0 339.17520447 0 -5518.77885936 0 2829
0.05150000 0.05149060 36292.75556731 0 365.91597614 0 15625.70767707 0 1666.83885052 0 -3982.83703284 0 2784
0.05250000 0.05249300 37260.25530996 0 -647.35232838 0 18154.84811214 0 805.17946081 0 -5707.42912962 0 3055
0.05350000 0.05348950 36384.87730980 0 619.61504748 0 16928.92030822 0 -251.52557398 0 -791.91481568 0 3009
0.05450000 0.05448610 35413.72369996 0 1931.13524394 0 18924.48541029 0 2282.80335251 0 1665.68732874 0 3336
0.05550000 0.05550870 35296.79994987 0 1186.51032757 0 18531.63932572 0 2864.77581730 0 4293.86970932 0 3349
0.05650000 0.05647670 33685.11234927 0 582.30020561 0 17676.63440322 0 3019.95444964 0 2985.18734971 0 3324
0.05750000 0.05747970 33620.44997233 0 937.02981198 0 17622.15856512 0 1057.68604277 0 3736.31172075 0 3639
0.05850000 0.05849280 33050.00379767 0 -105.63761867 0 17563.58596683 0 -1254.11794291 0 4590.34227866 0 3846
0.05950000 0.05951020 33019.22273468 0 -609.55251868 0 16486.58093172 0 1462.51016832 0 2731.27679696 0 3787
0.06050000 0.06049470 33113.89111188 0 605.19445164 0 15465.93402993 0 1635.73669011 0 3761.51233204 0 3930
0.06150000 0.06148310 33296.14157839 0 799.34656010 0 14277.87357689 0 1667.83535976 0 -77.56805730 0 4083
0.06250000 0.06249100 31996.13992144 0 202.34895053 0 11906.95666348 0 2407.82097204 0 2326.61654182 0 4303
0.06350000 0.06350600 31704.71633221 0 252.03600815 0 10391.93045854 0 1910.60715373 0 1827.78616409 0 4470
0.06450000 0.06451750 31510.06486190 0 194.27058234 0 9681.93977419 0 2923.28198164 0 936.82718844 0 4479
0.06550000 0.06550280 31334.01489728 0 -365.45979636 0 9009.53963261 0 1900.14380678 0 1237.37658778 0 4636
0.06650000 0.06648880 30985.67955849 0 911.51031774 0 7484.90264973 0 1364.32079183 0 708.07960108 0 4653
0.06750000 0.06749660 30241.84077717 0 491.78395022 0 7753.17400776 0 -68.74861842 0 1102.25547186 0 5220
0.06850000 0.06852730 30193.23327121 0 -295.83812513 0 8104.31064473 0 -622.65107894 0 990.24340506 0 5029
0.06950000 0.06949320 30125.02775033 0 150.74416624 0 8504.08800464 0 77.23710551 0 1283.24922951 0 5040
0.07050000 0.07048030 30275.61136787 0 631.53994131 0 7393.07986001 0 278.58522860 0 706.97015414 0 5475
0.07150000 0.07148790 29449.06232015 0 118.56909755 0 8554.13491282 0 1822.46037585 0 3046.69411407 0 5509
0.07250000 0.07249820 30178.61780245 0 165.49582460 0 8543.53869797 0 132.14376778 0 2640.47266113 0 5916
0.07350000 0.07351270 28491.74911633 0 1197.75980958 0 7849.80218645 0 2154.57475879 0 4074.69303954 0 5721
0.07450000 0.07449140 28270.96695945 0 1399.20968733 0 8342.60921948 0 835.88191030 0 4289.35220079 0 6028
0.07550000 0.07549160 27214.99934150 0 931.77820832 0 7874.96958077 0 -104.07365279 0 4598.29220788 0 6183
0.07650000 0.07648840 26184.94096362 0 925.29204044 0 7688.89916219 0 1095.25111918 0 4707.57605384 0 6330
0.07750000 0.07749960 25507.53613121 0 885.31762615 0 6995.30659090 0 -382.75255326 0 4701.69664937 0 6583
0.07850000 0.07848650 24285.92653397 0 563.20376699 0 7956.01899844 0 565.71054133 0 3979.82536049 0 6549
0.07950000 0.07947320 24575.46782798 0 105.32770430 0 8259.94324239 0 -714.79164439 0 3462.40454939 0 6828
0.08050000 0.08048110 24276.73650437 0 -370.51431264 0 7693.54953861 0 -134.17775385 0 1513.17712669 0 7147
0.08150000 0.08149960 24834.22805899 0 364.24405509 0 8342.16632649 0 -337.94064025 0 1413.42655240 0 7386
0.08250000 0.08250610 24570.15311207 0 331.01268662 0 8783.50919376 0 -1543.84746644 0 796.98040428 0 7227
0.08350000 0.08350160 24332.31957496 0 633.91938391 0 9211.04487198 0 -86.08145713 0 723.19996785 0 7798
0.08450000 0.08449610 23908.24953441 0 807.57551190 0 8299.00640435 0 -947.84968780 0 471.33668797 0 7371
0.08550000 0.08548940 23156.77084897 0 916.32567181 0 8994.82451292 0 927.08243537 0 173.12354917 0 8256
0.08650000 0.08650700 22271.31703322 0 755.99397950 0 8826.11549966 0 1224.53269099 0 -65.38451397 0 8037
0.08750000 0.08749060 21451.18993390 0 601.83842998 0 8439.86852069 0 1477.01491383 0 -199.04275433 0 8155
0.08850000 0.08849210 20657.63641415 0 929.66450152 0 7646.37036256 0 1144.29155303 0 133.70828728 0 8718
0.08950000 0.08949900 19748.15565354 0 536.71876603 0 6418.69313132 0 800.55344350 0 1344.12487136 0 8571
0.09050000 0.09049190 19329.17888241 0 240.18640613 0 6831.39189428 0 973.23631414 0 234.48194438 0 8932
0.09150000 0.09150830 19404.47069117 0 148.75446947 0 7150.65130810 0 455.31392673 0 -18.94197968 0 9285
0.09250000 0.09250820 19037.97673968 0 265.26522184 0 7102.55312909 0 -478.53702080 0 -20.24851401 0 9204
0.09350000 0.09350330 18979.73631113 0 233.58287161 0 6359.68871236 0 -327.57362253 0 -367.21475984 0 9349
0.09450000 0.09448040 18827.04895188 0 211.22341887 0 6814.35158639 0 -1107.47607301 0 293.76095700 0 9564
0.09550000 0.09549270 18970.65700478 0 538.76050272 0 7421.85683221 0 -950.68863188 0 369.49898045 0 10155
0.09650000 0.09649430 18376.95894800 0 754.93657248 0 7574.74349331 0 -376.56644538 0 -371.27608859 0 9913
0.09750000 0.09749140 18051.65404483 0 539.44477240 0 8127.46287593 0 -314.55035408 0 -85.50481046 0 10476
0.09850000 0.09850240 17435.14699893 0 351.71350510 0 8267.94853323 0 97.71824907 0 -156.21943087 0 10575
0.09950000 0.09950330 17080.38971174 0 540.80666835 0 8441.34113989 0 630.48917768 0 -94.03337937 0 10882
0.10050000 0.10051200 17090.35480408 0 -47.99409916 0 9051.95770899 0 894.70252867 0 -31.60462252 0 10875
0.10150000 0.10150300 17014.17720932 0 -301.05208289 0 8333.43026221 0 814.59647307 0 462.67702273 0 11118
0.10250000 0.10250800 16984.94627180 0 339.56827200 0 8559.02888039 0 981.09987923 0 475.84090971 0 11575
0.10350000 0.10349800 17078.06452353 0 368.61319447 0 8040.99909142 0 397.92495996 0 1369.00438523 0 11364
0.10450000 0.10450100 16370.65369086 0 402.11140597 0 7774.51037769 0 387.21359293 0 1181.39491350 0 12093
0.10550000 0.10551000 16471.63329321 0 125.17263207 0 7280.23072546 0 780.53025130 0 1189.98703756 0 12067
0.10650000 0.10649700 15771.08730194 0 543.12853486 0 7202.38120966 0 188.80639004 0 430.58831817 0 12054
0.10750000 0.10749900 15516.97744735 0 462.90732709 0 6378.51166455 0 340.84269659 0 860.02732903 0 12807
0.10850000 0.10850100 15380.67712883 0 -48.19915861 0 6476.02562923 0 387.51697463 0 -57.91135905 0 12736
0.10950000 0.10950300 14982.51632835 0 55.24602902 0 5906.55381916 0 400.51256227 0 625.69043211 0 12933
0.11050000 0.11050200 15156.24110476 0 223.56573934 0 6304.11671409 0 318.58510924 0 254.98346102 0 13428
0.11150000 0.11150900 14892.27688108 0 322.11275193 0 6094.78334107 0 523.15848982 0 322.06735539 0 13453
0.11250000 0.11250000 14634.95605229 0 247.75987630 0 5941.85239068 0 4.88485505 0 1020.19957986 0 13668
0.11350000 0.11349100 14510.39239808 0 272.24632264 0 5981.85670025 0 235.41201967 0 156.11535101 0 13791
0.11450000 0.11448600 14531.76198498 0 -290.88325978 0 6125.30974060 0 9.30810487 0 349.85667622 0 14205
0.11550000 0.11549300 14700.94710821 0 -224.52460267 0 5817.17801322 0 278.31506387 0 252.15558926 0 14776
0.11650000 0.11649800 14860.94220184 0 -0.18136136 0 5423.59008289 0 286.54623014 0 -507.63509043 0 14553
0.11750000 0.11747300 14690.64984613 0 300.21390790 0 5399.36383619 0 185.99291230 0 -535.79201244 0 14568
0.11850000 0.11849100 14441.96543070 0 594.33360822 0 5134.79063465 0 175.06452771 0 -514.15447528 0 16015
0.11950000 0.11950300 13844.39206024 0 429.30946466 0 5040.42121022 0 -70.94647489 0 254.08881717 0 15270
0.12050000 0.12050700 13694.02988921 0 299.26058073 0 5006.52882395 0 495.78991733 0 141.85530388 0 15999
0.12150000 0.12150000 13441.58088334 0 13.41035693 0 5203.95944779 0 646.09783398 0 1003.75828474 0 15670
0.12250000 0.12250700 13507.35049276 0 -10.59939261 0 4901.07600238 0 488.86639263 0 475.27622114 0 16887
0.12350000 0.12352200 13577.10613912 0 -4.94267473 0 4800.61679930 0 523.84497396 0 621.96348757 0 16407
0.12450000 0.12449800 13324.65713326 0 206.73691285 0 4636.59137943 0 594.59491509 0 1028.69869639 0 16306
0.12550000 0.12549900 13376.69705990 0 82.20459332 0 4338.08150232 0 397.87402727 0 1269.69670393 0 17523
0.12650000 0.12650100 13320.11748008 0 41.85017684 0 4239.82569188 0 426.66871519 0 1215.19872117 0 17154
0.12750000 0.12750600 13308.82370876 0 49.75327013 0 4014.24921835 0 208.30807574 0 728.57668879 0 18007
0.12850000 0.12850300 13008.43153643 0 254.35566020 0 4020.93690254 0 -225.04610917 0 811.82174847 0 17496
0.12950000 0.12949900 12766.94413214 0 473.84346231 0 3944.22783620 0 -330.82999326 0 1043.15250921 0 18405
0.13050000 0.13049000 12426.13797422 0 429.18102569 0 4211.15944293 0 137.34222428 0 1184.66124932 0 18100
0.13150000 0.13148800 12284.85510954 0 78.92995326 0 3972.42904751 0 562.78744758 0 1118.72555503 0 19059
0.13250000 0.13249300 12116.66649554 0 -171.16042598 0 3627.39326151 0 580.21307238 0 1215.46445697 0 18957
0.13350000 0.13349100 12251.30596534 0 130.81951773 0 3854.56414982 0 386.07092901 0 922.28590426 0 19468
0.13450000 0.13450700 12186.08997215 0 226.34267841 0 3768.85328339 0 -121.91626135 0 768.23886352 0 19953
0.13550000 0.13551000 11922.79008797 0 297.49786662 0 4114.42054098 0 -493.92312337 0 810.30262551 0 19956
0.13650000 0.13649900 11736.44286127 0 103.74657632 0 4010.26318142 0 -564.23570767 0 584.60214194 0 19723
0.13750000 0.13749600 11810.40599106 0 65.70494705 0 4515.31620569 0 -296.15147192 0 443.68134227 0 20946
0.13850000 0.13851100 11661.37249900 0 101.26814713 0 4404.47116193 0 -220.68139873 0 161.24294464 0 20955
0.13950000 0.13949800 11725.37053645 0 247.57607571 0 4525.75740800 0 65.03230331 0 94.84553440 0 20506
0.14050000 0.14048300 11473.58587007 0 167.02380542 0 4217.47066807 0 200.31496446 0 -16.51226873 0 21447
0.14150000 0.14148400 11316.46958090 0 246.23853887 0 4380.00132408 0 225.06050319 0 140.64066985 0 21771
0.14250000 0.14249400 11074.76073011 0 306.74879401 0 4046.69113007 0 378.27158341 0 42.81114391 0 22470
0.14350000 0.14350900 10832.53148005 0 245.11801960 0 3850.05771361 0 187.80323741 0 176.75859340 0 22519
0.14450000 0.14449900 10657.69947116 0 113.95415257 0 3889.89593831 0 535.23728897 0 880.21106995 0 22218
0.14550000 0.14550500 10766.46291786 0 -157.67765604 0 3722.34951916 0 370.97935028 0 484.61572713 0 23559
0.14650000 0.14650700 10533.21332323 0 16.48071260 0 3611.93629607 0 568.68013885 0 498.67647241 0 23044
0.14750000 0.14750500 10671.08591187 0 236.74512757 0 3636.68294203 0 415.15460461 0 286.62595088 0 23649
0.14850000 0.14849900 10301.29240758 0 142.86177821 0 3445.88464076 0 42.15688024 0 973.18427422 0 23640
0.14950000 0.14949500 10320.38109556 0 189.47405123 0 3243.51576005 0 7.10602984 0 163.00565875 0 24457
0.15050000 0.15050000 10308.54478033 0 -5.85092646 0 3263.47916170 0 -183.93235265 0 325.58503299 0 24591
0.15150000 0.15149900 10270.86565897 0 200.84089989 0 3461.95058407 0 -210.82149348 0 276.26114762 0 25020
0.15250000 0.15250500 10149.53512361 0 145.39623336 0 3559.33168085 0 -223.05419794 0 619.29505729 0 25297
0.15350000 0.15350100 10070.54515835 0 86.33933158 0 3458.68424825 0 430.98581464 0 460.79362028 0 25452
0.15450000 0.15450400 10041.80140313 0 1.86445770 0 3395.60521376 0 240.55511454 0 508.28614312 0 26061
0.15550000 0.15549900 10034.11720970 0 129.30593093 0 3380.02645274 0 680.74424557 0 752.84943925 0 26128
0.15650000 0.15649500 9893.08900849 0 135.78545541 0 3090.61802663 0 481.77346135 0 1009.11950441 0 26331
0.15750000 0.15749700 9708.74587258 0 203.64109083 0 2750.48728052 0 176.85492263 0 994.20840458 0 27345
0.15850000 0.15849900 9649.34284993 0 224.55892688 0 2808.91593859 0 100.19413162 0 1032.52972078 0 26980
0.15950000 0.15949700 9309.52212892 0 194.32151503 0 2757.77287026 0 -85.29698292 0 1011.11805904 0 27777
0.16050000 0.16050000 9223.75590087 0 37.44770977 0 2586.87153668 0 -118.62667364 0 825.32998475 0 28224
0.16150000 0.16150500 9123.49599964 0 155.39564990 0 2636.86308324 0 5.12876729 0 343.65285263 0 28075
0.16250000 0.16249700 9080.96720001 0 82.94101364 0 2451.22448533 0 29.94366307 0 48.55668398 0 28590
0.16350000 0.16349900 8938.64353679 0 155.32257256 0 2605.15194496 0 -147.31063832 0 63.71126424 0 29163
0.16450000 0.16449100 8853.98454123 0 237.24781112 0 2557.77346706 0 -93.68216523 0 178.88337254 0 28996
0.16550000 0.16550500 8720.20871277 0 56.81110214 0 2966.02115544 0 59.36216577 0 129.52848466 0 30777
0.16650000 0.16650700 8468.33546780 0 199.51443537 0 2739.31530478 0 186.10585002 0 367.87577763 0 29211
0.16750000 0.16749900 8589.01273600 0 145.92106155 0 2919.74991003 0 287.35118816 0 581.28930235 0 30922
0.16850000 0.16850800 8396.63109227 0 -14.51825375 0 2706.34192147 0 348.31430138 0 897.71530825 0 30867
0.16950000 0.16949900 8352.00962325 0 -9.14404623 0 2540.22383222 0 338.06243583 0 780.67640599 0 30852
0.17050000 0.17049200 8467.46075414 0 31.60107937 0 2380.27302789 0 361.41950503 0 904.04646358 0 31257
0.17150000 0.17149500 8296.47084196 0 54.70437089 0 2263.47107338 0 96.07478390 0 654.77300048 0 32608
0.17250000 0.17250900 8293.01627662 0 147.62730681 0 2224.30826049 0 -108.26917811 0 644.58535441 0 32361
0.17350000 0.17350400 8168.59656263 0 200.94165804 0 2313.18581181 0 -251.71823243 0 623.60772781 0 32508
0.17450000 0.17449800 8126.32242647 0 66.59970161 0 2359.20239376 0 -210.92778780 0 767.53687813 0 32791
0.17550000 0.17549800 8181.38509780 0 73.72485336 0 2679.42509984 0 -192.40268114 0 518.99972462 0 33633
0.17650000 0.17650100 8006.39807636 0 103.82474693 0 2666.68085397 0 -9.28015832 0 442.89631444 0 33984
0.17750000 0.17750300 8063.92987612 0 220.52527895 0 2805.50566255 0 -99.20958050 0 545.82907489 0 34069
0.17850000 0.17849800 7889.96150857 0 138.19590053 0 2827.96033728 0 21.99284806 0 460.36733577 0 34536
