### header ###
fiducial parameters:
Omega_m = 0.31
Omega_nu = 0
Omega_de = 0.69
Omega_k = 0
H_0 = 100
w_de = -1
zeff = 0
beta = 0
fgrowth = 0
b_1 = 2
gamma = 0.55
Lx = 3500 Ly = 3500 Lz = 3500
nx = 700 ny = 700 nz = 700
xoffset = -685.467585 yoffset = -31.7331281 zoffset = 572.489161
bins = 400 dk = 0.001
kx_ny = 0.628318531 ky_ny = 0.628318531 kz_ny = 0.628318531
############################
A(data) = 8.00163803 (not used)
A(ran) = 8.00080851 (used)
Ngal = 476044
weighted Ngal = 0
Nran = 23820508
weighted Nran = 0
SN(data) = 3487.69344
SN(ran) = 69.6899437
SN(data+ran) = 3557.38338
############################
13 columns: k_central k_mean P_0(k) sigma^{lin}_{P_0(k)} P^img_1(k) sigma^{lin}_{P_1(k)} P_2(k) sigma^{lin}_{P_2(k)} P^img_3(k) sigma^{lin}_{P_3(k)} P_4(k) sigma^{lin}_{P_4(k)} N_modes
### header ###
0.00050000 0 0 0 0 0 0 0 0 0 0 0 0
0.00150000 0.00179520 151648.77518114 0 -145847.98420865 0 21032.65605576 0 280737.68854430 0 -195217.26611004 0 3
0.00250000 0.00253879 247809.70176612 0 -120866.60495283 0 65542.62676398 0 -173152.33721144 0 84330.14751626 0 6
0.00350000 0.00331552 237031.90078765 0 12267.25011307 0 -16160.16879606 0 -123578.21730091 0 101927.94696677 0 7
0.00450000 0.00420575 190999.81758661 0 104512.55974919 0 -13857.34668028 0 -98093.37943558 0 113060.61595568 0 24
0.00550000 0.00557378 81480.24183118 0 51492.73235510 0 -5334.82325482 0 -27539.75062843 0 58006.69176916 0 45
0.00650000 0.00659388 67347.74787916 0 -2033.52103154 0 27043.37830681 0 26773.10285798 0 -27013.81519954 0 40
0.00750000 0.00754703 66323.66855668 0 -18523.55652860 0 21871.16321427 0 12257.39574399 0 -33710.13580336 0 57
0.00850000 0.00846663 87895.21466136 0 -16543.27123479 0 6418.07308113 0 9544.68723574 0 -14618.01539532 0 75
0.00950000 0.00948925 94971.98034595 0 -7364.31396013 0 3727.60887345 0 -14125.40766414 0 10807.78483408 0 112
0.01050000 0.01054430 90422.02990823 0 14559.66424353 0 7884.91252845 0 9503.78606786 0 32028.24966341 0 105
0.01150000 0.01145670 83035.57129846 0 10562.31139285 0 19212.58730207 0 14470.64275199 0 18061.84058366 0 144
0.01250000 0.01249090 69413.51152058 0 3900.78003361 0 9799.05175380 0 21869.50236555 0 21274.25418330 0 169
0.01350000 0.01339930 75346.17388165 0 5601.00194346 0 5668.85314995 0 21176.26410865 0 3704.15768948 0 180
0.01450000 0.01448870 68102.32681555 0 -3200.24511466 0 2457.73501232 0 -4304.80916624 0 12436.98885254 0 267
0.01550000 0.01550050 71531.53653513 0 -4125.76967392 0 1805.97368419 0 -6232.24625370 0 22043.78075819 0 238
0.01650000 0.01653350 76491.71660739 0 -2135.84038519 0 3564.44709492 0 -18988.59417099 0 -5454.13862707 0 315
0.01750000 0.01747870 76957.41858926 0 1860.13949721 0 7699.86076376 0 -5081.83170504 0 4725.45785843 0 297
0.01850000 0.01844180 74615.28972038 0 3690.49444065 0 753.15392819 0 -2536.37066318 0 -3656.32524626 0 388
0.01950000 0.01947590 71293.37082829 0 5159.40441272 0 5728.99801836 0 9263.05158166 0 3414.21779178 0 399
0.02050000 0.02045430 68953.56714761 0 -1274.86747962 0 10466.60221712 0 8562.68274758 0 -5265.00117451 0 462
0.02150000 0.02154770 64937.30276614 0 6608.92674403 0 5974.54896587 0 -194.82198411 0 1881.52015643 0 571
0.02250000 0.02255340 65211.45352865 0 4878.10092838 0 10851.77518058 0 -3367.55901499 0 4822.20783269 0 510
0.02350000 0.02348930 59953.64936527 0 527.34161414 0 8324.58347468 0 -10021.28438524 0 15881.58910363 0 555
0.02450000 0.02439640 61119.23299893 0 1745.88417740 0 23519.16804028 0 -10331.36484178 0 12727.74810228 0 592
0.02550000 0.02547300 64276.06352797 0 3135.02912148 0 26619.19754300 0 -3715.78363054 0 -2043.29789436 0 837
0.02650000 0.02652900 56410.17325356 0 1335.18950523 0 28526.51621626 0 -6688.33745763 0 4693.81315410 0 723
0.02750000 0.02749970 61117.68287345 0 1321.01692946 0 25272.47067531 0 5573.26576979 0 -8469.16589216 0 826
0.02850000 0.02848090 58362.44556558 0 -2992.04111877 0 26986.68800373 0 6736.50207059 0 2038.38178214 0 831
0.02950000 0.02946900 62396.86855975 0 393.07195999 0 20673.46983864 0 7096.19761465 0 -9230.56538064 0 996
0.03050000 0.03053250 61391.83363596 0 -1777.57317104 0 18260.92098390 0 5424.06619286 0 -8227.58990927 0 1041
0.03150000 0.03150510 61770.39642151 0 944.03637913 0 16136.80619070 0 1212.58565251 0 -7690.85896368 0 1036
0.03250000 0.03246190 60341.95579666 0 2665.57362149 0 16644.69373013 0 -246.27729201 0 -10492.40073394 0 1059
0.03350000 0.03345080 57973.91768769 0 3595.89249740 0 16614.02339038 0 -671.12128807 0 -11098.78767496 0 1302
0.03450000 0.03451200 53376.68842299 0 4566.18246591 0 17464.82082944 0 -889.12982759 0 -7139.75614048 0 1339
0.03550000 0.03553350 50117.32816613 0 4061.27338186 0 18035.48845060 0 -691.34821105 0 -4673.75010152 0 1365
0.03650000 0.03647120 47819.15642677 0 2795.60700416 0 18176.88203853 0 -57.00807879 0 -1878.70778593 0 1308
0.03750000 0.03744890 49070.10768478 0 3.74351980 0 23076.82866377 0 1473.31675734 0 1479.78299504 0 1579
0.03850000 0.03847530 46850.10655864 0 42.69455233 0 23678.83096416 0 6010.11327319 0 6427.75029302 0 1662
0.03950000 0.03950240 46933.81333427 0 591.88662444 0 21483.74256887 0 4032.21960153 0 4384.05379497 0 1683
0.04050000 0.04050350 48783.44519523 0 -606.41462183 0 21900.72632154 0 5155.88341343 0 4175.48441236 0 1822
0.04150000 0.04152450 47448.34426859 0 1133.44067471 0 19163.09401013 0 4067.04206309 0 4954.65498217 0 1887
0.04250000 0.04250150 44823.42822384 0 2795.78416136 0 19006.08844420 0 1322.50062099 0 5637.35238584 0 1920
0.04350000 0.04349210 42926.84970565 0 2285.73751859 0 16192.83215428 0 1051.06147083 0 4104.48866562 0 2005
0.04450000 0.04448520 41353.14017918 0 1609.49528029 0 15142.40069873 0 4063.32176195 0 3919.39261163 0 2151
0.04550000 0.04548030 39256.81692126 0 1734.01464520 0 11471.70357485 0 582.25923801 0 -1023.44819996 0 2274
0.04650000 0.04648670 38105.84875636 0 2171.96938108 0 13737.65484899 0 1530.36137481 0 793.87572440 0 2311
0.04750000 0.04749250 35648.23553962 0 944.91220002 0 11065.99144885 0 -551.36745176 0 1638.73729013 0 2568
0.04850000 0.04851840 37159.82932386 0 -239.85312915 0 13006.54924122 0 3385.00899891 0 3129.13864467 0 2493
0.04950000 0.04949480 36807.28650163 0 -839.64760797 0 11984.79510695 0 1563.29046882 0 1144.69015673 0 2644
0.05050000 0.05050630 37533.18811674 0 -1123.48665470 0 14761.84489472 0 313.21613893 0 31.13205569 0 2829
0.05150000 0.05149060 37843.65610466 0 1274.44673128 0 13818.15065042 0 178.10720257 0 -971.19568468 0 2784
0.05250000 0.05249300 36474.00952459 0 763.73353455 0 13855.90727805 0 -957.66087482 0 354.62109759 0 3055
0.05350000 0.05348950 36211.15253340 0 205.10595941 0 13147.83210590 0 552.79688890 0 1020.46420842 0 3009
0.05450000 0.05448610 36728.45154892 0 334.37756613 0 12437.87463853 0 1256.54278204 0 -820.18246094 0 3336
0.05550000 0.05550870 36873.49900405 0 -560.47443892 0 11522.19337603 0 2352.03859960 0 -840.39056097 0 3349
0.05650000 0.05647670 36716.27199162 0 -481.70149124 0 11035.36539840 0 1343.79270162 0 -3906.29405137 0 3324
0.05750000 0.05747970 37800.36331462 0 462.38028443 0 11235.75233297 0 369.39711506 0 -3721.38622690 0 3639
0.05850000 0.05849280 36875.49202252 0 817.49188601 0 12815.10874510 0 -2988.88550620 0 -918.99853102 0 3846
0.05950000 0.05951020 35964.46113644 0 1015.16056484 0 14399.33698015 0 -720.48060488 0 -2271.33242400 0 3787
0.06050000 0.06049470 35704.48294970 0 1349.87140794 0 15770.09079270 0 -891.76061196 0 1417.11363656 0 3930
0.06150000 0.06148310 34324.09621456 0 2346.77924531 0 16365.78186794 0 -1027.76862111 0 1390.85008209 0 4083
0.06250000 0.06249100 32656.82554336 0 1971.61566348 0 17283.67759541 0 2049.24373279 0 3543.16608662 0 4303
0.06350000 0.06350600 32028.69255640 0 793.56791377 0 15935.51132549 0 3150.49715925 0 3760.19472539 0 4470
0.06450000 0.06451750 30403.71816602 0 -265.29068819 0 13314.47059442 0 5209.36274230 0 4029.55117125 0 4479
0.06550000 0.06550280 30704.55323134 0 -339.98126972 0 13178.39172240 0 2555.72508696 0 4263.34330980 0 4636
0.06650000 0.06648880 30981.80424480 0 202.62465141 0 11969.18312896 0 1703.69861985 0 3222.34547500 0 4653
0.06750000 0.06749660 30152.37639263 0 402.21216413 0 11391.31849667 0 95.66067895 0 3599.80102806 0 5220
0.06850000 0.06852730 30293.88070382 0 642.70748812 0 11675.43435152 0 676.89661270 0 3231.17011788 0 5029
0.06950000 0.06949320 29320.06973602 0 197.17263867 0 11463.39933124 0 131.51928866 0 4761.32111851 0 5040
0.07050000 0.07048030 29481.83640162 0 990.89999393 0 12347.19229827 0 1105.94809219 0 4685.08816214 0 5475
0.07150000 0.07148790 29645.70680893 0 -146.01960524 0 11855.13818332 0 -316.98405107 0 2633.80712159 0 5509
0.07250000 0.07249820 28558.62595824 0 157.38977560 0 10712.13101997 0 481.75020946 0 2188.17926461 0 5916
0.07350000 0.07351270 28968.85559277 0 722.37175796 0 9959.50081275 0 -127.73366081 0 570.08189517 0 5721
0.07450000 0.07449140 27855.20116251 0 186.47455843 0 8579.39088573 0 680.89261472 0 -370.95831286 0 6028
0.07550000 0.07549160 28121.37985115 0 331.49876168 0 9125.54437973 0 -231.49241668 0 -869.31811679 0 6183
0.07650000 0.07648840 27115.56986462 0 561.51634469 0 8288.89737179 0 845.98872840 0 -1266.46358508 0 6330
0.07750000 0.07749960 27069.95188637 0 1023.51020498 0 8977.79527735 0 -19.66987432 0 -2202.26326178 0 6583
0.07850000 0.07848650 26561.06783771 0 125.67642285 0 7783.96614308 0 299.32369298 0 -24.34449913 0 6549
0.07950000 0.07947320 26395.97947466 0 312.07790394 0 8894.02206777 0 435.11689903 0 -335.28328230 0 6828
0.08050000 0.08048110 25562.56558556 0 948.76426183 0 9057.43850977 0 230.80703977 0 424.14754683 0 7147
0.08150000 0.08149960 24989.35132970 0 1153.13834056 0 9128.79964323 0 813.32758465 0 359.76862140 0 7386
0.08250000 0.08250610 24080.20273884 0 721.09622614 0 8402.31119490 0 1034.14185127 0 981.40436816 0 7227
0.08350000 0.08350160 23043.94385906 0 356.54878935 0 9298.35015318 0 1653.27525262 0 2155.94772706 0 7798
0.08450000 0.08449610 22842.31682412 0 747.02318193 0 9258.82195357 0 1185.72419250 0 1661.75665343 0 7371
0.08550000 0.08548940 22277.18536537 0 604.71391274 0 9047.39591116 0 486.57663585 0 3344.31820520 0 8256
0.08650000 0.08650700 22110.10398386 0 433.67306787 0 8949.50548744 0 220.81205216 0 2703.04236868 0 8037
0.08750000 0.08749060 21767.96914696 0 117.48843865 0 9601.51040671 0 -1034.22710817 0 4208.32492777 0 8155
0.08850000 0.08849210 22173.43768182 0 353.61905220 0 9995.93983373 0 -743.61954929 0 2862.20703794 0 8718
0.08950000 0.08949900 21638.97656283 0 382.49899702 0 10569.43089771 0 -1961.09695490 0 3282.00316112 0 8571
0.09050000 0.09049190 21304.48163005 0 827.31746705 0 11446.34795102 0 -686.88163522 0 1256.03345510 0 8932
0.09150000 0.09150830 21085.80321489 0 466.99412218 0 11727.91717116 0 -163.52716525 0 1887.63207973 0 9285
0.09250000 0.09250820 20431.53954135 0 603.84252077 0 10455.15343325 0 808.60966704 0 47.77243122 0 9204
0.09350000 0.09350330 20148.86308873 0 91.95554690 0 10216.81056921 0 1785.39023236 0 668.44842886 0 9349
0.09450000 0.09448040 19657.91620627 0 347.02326830 0 9866.65936914 0 978.64514482 0 324.78671837 0 9564
0.09550000 0.09549270 19196.31098458 0 684.50108538 0 8676.32908952 0 1557.46642597 0 38.99739235 0 10155
0.09650000 0.09649430 18470.18792298 0 540.44128163 0 8735.88712471 0 882.51632797 0 624.21670567 0 9913
0.09750000 0.09749140 17941.59513613 0 590.74396051 0 7949.41989285 0 680.03561678 0 1063.45029507 0 10476
0.09850000 0.09850240 17610.08973106 0 315.63322744 0 7586.79018271 0 672.24734350 0 1361.54163830 0 10575
0.09950000 0.09950330 17488.62632780 0 203.45064685 0 7719.56950194 0 88.25207569 0 1160.32427937 0 10882
0.10050000 0.10051200 17283.23470242 0 32.60511779 0 7122.09578240 0 362.40826364 0 1374.44089671 0 10875
0.10150000 0.10150300 16995.24353388 0 231.97074111 0 6749.81100502 0 675.06746464 0 970.13827766 0 11118
0.10250000 0.10250800 16819.96863201 0 423.12889294 0 6012.44953372 0 1271.19146778 0 584.87784283 0 11575
0.10350000 0.10349800 16209.66208800 0 71.04269339 0 5606.38309332 0 699.05565636 0 453.24340199 0 11364
0.10450000 0.10450100 16296.13694484 0 198.51128274 0 5571.90387384 0 527.36154432 0 -40.78900523 0 12093
0.10550000 0.10551000 15653.49921236 0 296.74162684 0 4616.16294014 0 365.29038979 0 -132.88007738 0 12067
0.10650000 0.10649700 15857.56215877 0 275.82157632 0 4385.67035439 0 173.79674652 0 -7.39665622 0 12054
0.10750000 0.10749900 15620.17151466 0 2.71771320 0 4392.39125556 0 -14.63384882 0 -429.61173913 0 12807
0.10850000 0.10850100 15431.72054624 0 297.06715319 0 4920.60758336 0 -507.94068659 0 -39.23766180 0 12736
0.10950000 0.10950300 15239.39426414 0 418.29250146 0 5079.93833750 0 -243.06188888 0 -177.76617496 0 12933
0.11050000 0.11050200 15138.63610829 0 278.22205635 0 5478.58632027 0 -397.68690498 0 305.76557156 0 13428
0.11150000 0.11150900 14761.84489472 0 171.08070524 0 5547.54475924 0 471.85819447 0 842.50316054 0 13453
0.11250000 0.11250000 14842.34069615 0 -136.56937601 0 5469.17484417 0 584.00755809 0 597.16147998 0 13668
0.11350000 0.11349100 14927.15470426 0 -183.50828261 0 5004.10398481 0 1132.89813079 0 868.38693427 0 13791
0.11450000 0.11448600 15089.25353960 0 -162.35792775 0 4658.40385932 0 872.55898626 0 474.36053988 0 14205
0.11550000 0.11549300 15195.54785786 0 -92.20711012 0 3956.41846582 0 592.10474923 0 760.18817614 0 14776
0.11650000 0.11649800 15215.81021228 0 260.87725952 0 4255.60375475 0 -70.74706232 0 311.46560438 0 14553
0.11750000 0.11747300 14617.57250233 0 793.85579422 0 4066.48844684 0 -651.03830531 0 759.25367193 0 14568
0.11850000 0.11849100 14507.29214713 0 312.82417864 0 4249.61362702 0 -86.40465829 0 1098.67357478 0 16015
0.11950000 0.11950300 13863.43645893 0 7.15948702 0 4544.45856462 0 -33.75730391 0 800.43607686 0 15270
0.12050000 0.12050700 14367.44868468 0 -8.34032832 0 4375.38416464 0 668.46282288 0 447.33078053 0 15999
0.12150000 0.12150000 14322.16287617 0 104.60711740 0 4773.34566327 0 99.54130735 0 944.14820961 0 15670
0.12250000 0.12250700 14013.46646022 0 247.96582155 0 4446.50170695 0 50.45016225 0 947.40347311 0 16887
0.12350000 0.12352200 13922.89484321 0 135.23183917 0 4750.70275901 0 148.05359131 0 1684.98639090 0 16407
0.12450000 0.12449800 13739.09425122 0 208.69671434 0 4475.98730794 0 428.26202273 0 1119.72206426 0 16306
0.12550000 0.12549900 13536.69215353 0 281.22154914 0 4691.34402566 0 91.97591997 0 1504.25283289 0 17523
0.12650000 0.12650100 13435.38038144 0 193.91516071 0 4186.61209880 0 688.40075818 0 1883.67925977 0 17154
0.12750000 0.12750600 13231.31743503 0 -112.85134902 0 3939.80997859 0 784.00696129 0 1844.62717014 0 18007
0.12850000 0.12850300 13318.12446161 0 -207.55405042 0 3538.81466296 0 293.56497685 0 1359.85864493 0 17496
0.12950000 0.12949900 13453.87116389 0 104.60235630 0 3980.60042323 0 -37.52798412 0 929.06216705 0 18405
0.13050000 0.13049000 13112.84355947 0 464.16957212 0 3568.68779532 0 -263.45932566 0 867.15790622 0 18100
0.13150000 0.13148800 12785.54563784 0 464.09760201 0 3613.74108501 0 -444.57377165 0 596.53146470 0 19059
0.13250000 0.13249300 12461.68013689 0 444.79853985 0 3988.51713547 0 -487.87320509 0 393.41188036 0 18957
0.13350000 0.13349100 12196.38723424 0 442.59957614 0 4270.98321392 0 -457.07442637 0 -30.62549683 0 19468
0.13450000 0.13450700 11764.34511981 0 387.86575286 0 4107.42283170 0 -330.15568867 0 386.80280968 0 19953
0.13550000 0.13551000 11681.96702316 0 128.90843447 0 4539.11063173 0 -18.31860780 0 -38.04096493 0 19956
0.13650000 0.13649900 11868.31424986 0 -197.43726724 0 4834.33202837 0 436.37803682 0 186.16564057 0 19723
0.13750000 0.13749600 11825.13218307 0 -30.11030156 0 4459.87707533 0 -24.97794684 0 -37.92714143 0 20946
0.13850000 0.13851100 12008.71132856 0 70.86985440 0 4541.35831367 0 74.89420158 0 -119.52463918 0 20955
0.13950000 0.13949800 11809.63092832 0 6.12855393 0 4315.11750065 0 196.28574546 0 485.03315377 0 20506
0.14050000 0.14048300 11917.03247906 0 196.61459350 0 4397.55095892 0 347.52816632 0 -58.33609343 0 21447
0.14150000 0.14148400 11688.61041805 0 128.95493823 0 4296.89245400 0 568.15088172 0 339.18627680 0 21771
0.14250000 0.14249400 11311.48703473 0 278.67380720 0 3931.68289218 0 541.90061404 0 -10.85707882 0 22470
0.14350000 0.14350900 11204.52837698 0 327.65555773 0 3902.06442329 0 -85.01286706 0 282.26013321 0 22519
0.14450000 0.14449900 10851.87483151 0 207.19641433 0 3643.25990298 0 391.11548020 0 717.93286294 0 22218
0.14550000 0.14550500 10782.89424789 0 -70.55351808 0 3306.53943292 0 718.64813512 0 606.00605304 0 23559
0.14650000 0.14650700 10998.59420768 0 -224.22232820 0 3088.70251444 0 162.57605254 0 312.73670727 0 23044
0.14750000 0.14750500 10967.75778306 0 179.83116354 0 3054.19007798 0 134.98492633 0 -25.11059329 0 23649
0.14850000 0.14849900 10717.35715729 0 468.76790861 0 3040.28323800 0 -454.99947270 0 162.03129416 0 23640
0.14950000 0.14949500 10350.98500136 0 450.86838831 0 2927.29016323 0 -18.29369507 0 173.22541456 0 24457
0.15050000 0.15050000 10004.28836664 0 257.67735764 0 3137.42074364 0 167.19210476 0 431.51285730 0 24591
0.15150000 0.15149900 9826.93186769 0 136.67567033 0 2928.87350568 0 512.00422980 0 84.02798377 0 25020
0.15250000 0.15250500 9908.43525068 0 108.33594423 0 2906.96137486 0 222.35996317 0 488.63387380 0 25297
0.15350000 0.15350100 9542.83815750 0 51.10420448 0 2905.28945381 0 316.57548228 0 731.55182247 0 25452
0.15450000 0.15450400 9721.93301144 0 141.33490461 0 2942.39281428 0 46.12342988 0 887.12462956 0 26061
0.15550000 0.15549900 9482.47184259 0 217.74391095 0 3133.74473180 0 -248.20055483 0 893.89203449 0 26128
0.15650000 0.15649500 9368.15008883 0 301.93122548 0 3335.65964719 0 -362.82236859 0 655.30557930 0 26331
0.15750000 0.15749700 9201.38980474 0 180.30395181 0 3419.69859256 0 -342.49136576 0 891.87465691 0 27345
0.15850000 0.15849900 9063.52828842 0 121.99487485 0 3470.38769558 0 186.16453334 0 491.18604467 0 26980
0.15950000 0.15949700 9005.93005472 0 -116.27712632 0 3315.64088392 0 234.23503154 0 319.02468053 0 27777
0.16050000 0.16050000 9131.98847278 0 -29.94775983 0 3079.67856971 0 276.91552202 0 -179.76251513 0 28224
0.16150000 0.16150500 9065.12270320 0 35.46930677 0 2822.25809000 0 224.17471721 0 234.74546571 0 28075
0.16250000 0.16249700 8949.59406604 0 192.90315022 0 2927.81056250 0 37.17732360 0 154.20648221 0 28590
0.16350000 0.16349900 8792.90959753 0 216.00998489 0 2860.42439365 0 34.24869368 0 359.05224199 0 29163
0.16450000 0.16449100 8750.12613443 0 52.25229384 0 2735.09674903 0 221.98350413 0 293.57494194 0 28996
0.16550000 0.16550500 8697.98655686 0 1.47716993 0 2828.60253212 0 -95.70120366 0 285.41685301 0 30777
0.16650000 0.16650700 8829.63649895 0 -7.42927529 0 2710.66012815 0 59.87193561 0 95.59989189 0 29211
0.16750000 0.16749900 8845.90174411 0 -38.27171218 0 2930.33505255 0 -14.68533513 0 20.60504287 0 30922
0.16850000 0.16850800 8803.52795703 0 153.52442701 0 2529.64976202 0 86.37265928 0 92.63782355 0 30867
0.16950000 0.16949900 8698.94984912 0 106.22245887 0 2510.52785706 0 210.75948846 0 -186.44023423 0 30852
0.17050000 0.17049200 8593.71847404 0 66.99697663 0 2285.89253113 0 501.95941672 0 32.92820822 0 31257
0.17150000 0.17149500 8586.85363266 0 -38.83496135 0 2211.33149581 0 380.06640726 0 -88.36468123 0 32608
0.17250000 0.17250900 8432.58293096 0 143.86493083 0 2372.12379682 0 140.19224069 0 -255.37099238 0 32361
0.17350000 0.17350400 8439.07131330 0 283.46923108 0 2139.16208264 0 -59.56146762 0 257.15031498 0 32508
0.17450000 0.17449800 8149.20892187 0 291.02941446 0 2310.28486271 0 -134.68043740 0 662.88347841 0 32791
0.17550000 0.17549800 7981.03138020 0 253.18088654 0 2410.77728276 0 -139.97190143 0 925.49798569 0 33633
0.17650000 0.17650100 7865.38094747 0 134.09471141 0 2533.19290596 0 55.59790750 0 518.26673672 0 33984
0.17750000 0.17750300 7781.81811207 0 -76.04771638 0 2417.36531603 0 279.49980263 0 753.46063158 0 34069
0.17850000 0.17849800 7735.19255226 0 58.86225031 0 2256.20762830 0 309.72835662 0 361.57119588 0 34536
