### header ###
fiducial parameters:
Omega_m = 0.31
Omega_nu = 0
Omega_de = 0.69
Omega_k = 0
H_0 = 100
w_de = -1
zeff = 0
beta = 0
fgrowth = 0
b_1 = 2
gamma = 0.55
Lx = 3500 Ly = 3500 Lz = 3500
nx = 700 ny = 700 nz = 700
xoffset = -685.467585 yoffset = -31.7331281 zoffset = 572.489161
bins = 400 dk = 0.001
kx_ny = 0.628318531 ky_ny = 0.628318531 kz_ny = 0.628318531
############################
A(data) = 8.08643595 (not used)
A(ran) = 8.08751868 (used)
Ngal = 480912
weighted Ngal = 0
Nran = 23820508
weighted Nran = 0
SN(data) = 3487.57801
SN(ran) = 70.4452207
SN(data+ran) = 3558.02323
############################
13 columns: k_central k_mean P_0(k) sigma^{lin}_{P_0(k)} P^img_1(k) sigma^{lin}_{P_1(k)} P_2(k) sigma^{lin}_{P_2(k)} P^img_3(k) sigma^{lin}_{P_3(k)} P_4(k) sigma^{lin}_{P_4(k)} N_modes
### header ###
0.00050000 0 0 0 0 0 0 0 0 0 0 0 0
0.00150000 0.00179520 12828.72770463 0 -3825.14498277 0 17425.73552283 0 -24611.00999065 0 -40266.05932848 0 3
0.00250000 0.00253879 21648.27731567 0 -1000.40115585 0 15836.85691136 0 18839.44995568 0 7590.25582038 0 6
0.00350000 0.00331552 25155.21475548 0 6160.70796304 0 12069.27694532 0 18192.93690952 0 -20143.88054256 0 7
0.00450000 0.00420575 30755.04303251 0 -4584.35215094 0 5842.22361196 0 27168.16340751 0 -19421.41134815 0 24
0.00550000 0.00557378 55981.00994359 0 -28986.46058923 0 -594.37236136 0 25345.10512612 0 -40155.22535705 0 45
0.00650000 0.00659388 85953.57178117 0 -41704.35432242 0 -26782.95722707 0 10032.72209677 0 -28673.66741310 0 40
0.00750000 0.00754703 99018.58289742 0 -10791.08776825 0 226.90072358 0 -20013.33783295 0 -45252.59153381 0 57
0.00850000 0.00846663 104573.01464270 0 13878.71626718 0 -9747.62080502 0 -48532.10342184 0 -10935.31587134 0 75
0.00950000 0.00948925 84032.52342513 0 29151.65967552 0 8841.48388651 0 -35673.48044020 0 1843.38706976 0 112
0.01050000 0.01054430 63412.31146887 0 23358.95150015 0 2969.85217983 0 -31100.16739711 0 4144.06115452 0 105
0.01150000 0.01145670 58829.69767293 0 -1067.53487569 0 27676.38311669 0 6310.49437319 0 -19952.99366269 0 144
0.01250000 0.01249090 57629.90055558 0 -7937.58357762 0 21571.98899767 0 11382.23919032 0 -30816.16226551 0 169
0.01350000 0.01339930 68546.32704078 0 -4802.57660079 0 26782.07144109 0 -13533.92407233 0 -31491.35263295 0 180
0.01450000 0.01448870 71200.47402306 0 -4458.21622660 0 21832.41007741 0 -6049.94042556 0 -34955.66162221 0 267
0.01550000 0.01550050 71860.82747524 0 -3102.35469094 0 23194.85964634 0 -19699.88031734 0 -17042.19019112 0 238
0.01650000 0.01653350 90624.32128266 0 -5044.82799550 0 18399.10359764 0 152.61428191 0 -49212.05488896 0 315
0.01750000 0.01747870 84691.43747509 0 -8812.28616596 0 27278.77593245 0 2238.19295582 0 -31045.24866601 0 297
0.01850000 0.01844180 99302.36658253 0 405.25041006 0 13673.21391855 0 356.59418588 0 -33503.41549900 0 388
0.01950000 0.01947590 91432.82244092 0 -364.29498779 0 20134.35834322 0 10140.07935822 0 -18114.21268006 0 399
0.02050000 0.02045430 98820.16683667 0 10175.16755557 0 25715.47439131 0 14813.99554461 0 -15630.13660699 0 462
0.02150000 0.02154770 82946.99269991 0 10030.18653439 0 28844.51338506 0 8182.86878932 0 5800.02698208 0 571
0.02250000 0.02255340 78651.04139352 0 4273.13124494 0 30785.38120252 0 26685.52076867 0 34762.67100062 0 510
0.02350000 0.02348930 76576.30916901 0 -867.73698880 0 36298.18100647 0 16195.04661924 0 35384.04986944 0 555
0.02450000 0.02439640 78702.41698068 0 154.49104096 0 24684.97312043 0 14267.46559156 0 35427.23193624 0 592
0.02550000 0.02547300 78226.52845998 0 1980.75033146 0 29695.20010087 0 3926.95500948 0 38688.91738131 0 837
0.02650000 0.02652900 71907.66340922 0 6956.48702008 0 26199.11353938 0 3522.67121338 0 51977.58945891 0 723
0.02750000 0.02749970 69592.44028964 0 5253.49702903 0 28632.47836478 0 4741.34664454 0 33975.09653627 0 826
0.02850000 0.02848090 64451.22770660 0 2670.22399791 0 21765.64395875 0 5924.51313001 0 25066.19326394 0 831
0.02950000 0.02946900 61155.21805459 0 2795.29697907 0 15582.19344053 0 7102.70814164 0 18664.83939329 0 996
0.03050000 0.03053250 60455.44712605 0 908.17533351 0 12968.79261358 0 2874.24265502 0 7241.24506977 0 1041
0.03150000 0.03150510 57511.31595677 0 -1055.58672998 0 9912.73131271 0 -3651.78559309 0 -7054.33315451 0 1036
0.03250000 0.03246190 59377.11341196 0 -1281.84304425 0 9065.07841390 0 -9867.44550421 0 -10756.28745135 0 1059
0.03350000 0.03345080 59900.72365264 0 2785.58655020 0 17907.60309894 0 -14768.37756636 0 -11180.72287862 0 1302
0.03450000 0.03451200 58130.03746764 0 6061.03489503 0 17707.96908246 0 -12307.66409866 0 -9757.41981248 0 1339
0.03550000 0.03553350 53824.78540840 0 3729.23650519 0 24562.84537768 0 -584.43384260 0 -8670.36110644 0 1365
0.03650000 0.03647120 52233.36016222 0 495.46217652 0 26081.41472656 0 5612.41751035 0 -8955.92743584 0 1308
0.03750000 0.03744890 52245.09682653 0 1057.64507516 0 25011.82814908 0 13099.88893944 0 -15231.97580652 0 1579
0.03850000 0.03847530 49670.67058294 0 149.51070926 0 23357.40137468 0 4948.31054005 0 -17268.50851041 0 1662
0.03950000 0.03950240 49149.93914672 0 2701.43688158 0 17243.26360982 0 -385.16853454 0 -10327.24593695 0 1683
0.04050000 0.04050350 45034.02384189 0 3274.90580091 0 15708.08577372 0 888.99363799 0 -6968.72193901 0 1822
0.04150000 0.04152450 42319.53268935 0 -485.55023134 0 14460.12404341 0 2979.18614965 0 -4165.55253700 0 1887
0.04250000 0.04250150 43302.64441000 0 -1198.68988487 0 11609.11112585 0 7758.15655393 0 -9734.05720712 0 1920
0.04350000 0.04349210 43181.95606947 0 -368.05514930 0 10998.22882096 0 2525.35369999 0 -10764.43668241 0 2005
0.04450000 0.04448520 42023.79089344 0 1027.43866583 0 6308.12489568 0 3177.66864435 0 -8639.34752462 0 2151
0.04550000 0.04548030 42925.74247317 0 339.52287547 0 8715.46975775 0 -1163.20308382 0 -7609.78740136 0 2274
0.04650000 0.04648670 41470.50682225 0 1632.43713731 0 10653.24839659 0 -2000.87981798 0 24.55963440 0 2311
0.04750000 0.04749250 40998.71506173 0 1649.68781938 0 11188.47350599 0 -3925.05056961 0 -2534.87589933 0 2568
0.04850000 0.04851840 39591.20113079 0 1901.45034111 0 15409.57589661 0 -3244.04723164 0 -449.64268196 0 2493
0.04950000 0.04949480 39507.71580165 0 2539.18303369 0 15188.12940023 0 -3289.17802760 0 -1482.62858252 0 2644
0.05050000 0.05050630 37604.27244208 0 1177.37565959 0 18333.44471147 0 -997.13039110 0 -576.52377375 0 2829
0.05150000 0.05149060 37680.67148333 0 433.78600558 0 18767.70129085 0 862.55735525 0 -349.13808234 0 2784
0.05250000 0.05249300 36967.61376501 0 -664.80341953 0 16652.00146451 0 4129.76678318 0 -1984.44848795 0 3055
0.05350000 0.05348950 37213.64082248 0 674.61128485 0 17121.80020656 0 4127.44159497 0 -2128.72088033 0 3009
0.05450000 0.05448610 36780.60219882 0 832.57903581 0 15887.01454279 0 1351.74263083 0 -4529.04588847 0 3336
0.05550000 0.05550870 35393.57206879 0 1697.99637256 0 15578.98246633 0 -424.10657923 0 -2599.61578255 0 3349
0.05650000 0.05647670 34787.58373146 0 1434.15394446 0 17177.93689339 0 -425.72756758 0 -684.17998796 0 3324
0.05750000 0.05747970 34315.23835470 0 447.60094526 0 17824.00704656 0 -1056.12484497 0 -963.44395007 0 3639
0.05850000 0.05849280 34801.64558398 0 5.01295077 0 18377.95545724 0 742.11371311 0 -763.75900090 0 3846
0.05950000 0.05951020 34806.51740690 0 218.83896388 0 18268.67161128 0 1388.91242525 0 -1165.22931926 0 3787
0.06050000 0.06049470 33225.38942280 0 574.19083491 0 17550.74207004 0 2473.82310028 0 1962.10453646 0 3930
0.06150000 0.06148310 33673.15423847 0 971.11374947 0 16617.45581107 0 4035.95097500 0 1068.82923046 0 4083
0.06250000 0.06249100 32711.96572096 0 -597.00203850 0 14605.50366828 0 3525.67181340 0 883.49179979 0 4303
0.06350000 0.06350600 31876.00519715 0 420.55014849 0 13226.88850511 0 3587.27822869 0 1598.02435178 0 4470
0.06450000 0.06451750 31995.25413545 0 820.54674043 0 12906.34470161 0 416.61061532 0 1177.05456217 0 4479
0.06550000 0.06550280 30606.67387994 0 1179.49047363 0 12487.47865372 0 -510.02671259 0 1404.76799439 0 4636
0.06650000 0.06648880 29975.44064203 0 852.54354469 0 14025.64601752 0 -949.43745918 0 3653.23606764 0 4653
0.06750000 0.06749660 29673.94123722 0 605.84107540 0 14352.16887643 0 -1339.85095398 0 3163.41856231 0 5220
0.06850000 0.06852730 29862.83509863 0 423.12889294 0 15682.84087313 0 -514.81992200 0 4320.58722911 0 5029
0.06950000 0.06949320 30260.88517586 0 322.94871245 0 16289.38282670 0 963.29004476 0 6535.80511093 0 5040
0.07050000 0.07048030 29942.99873031 0 -346.24931280 0 14185.41966466 0 3227.60482929 0 4432.21840793 0 5475
0.07150000 0.07148790 29710.70135562 0 -32.96208954 0 12455.81180474 0 3687.47169598 0 6122.13198338 0 5509
0.07250000 0.07249820 29945.10247203 0 -432.64334166 0 10990.84358031 0 1703.74290914 0 2093.16764534 0 5916
0.07350000 0.07351270 28990.33590292 0 287.12531273 0 9526.00822377 0 1341.65574293 0 2065.40932702 0 5721
0.07450000 0.07449140 28810.74279436 0 1360.48976744 0 9341.43256905 0 -515.32814171 0 -569.76965561 0 6028
0.07550000 0.07549160 27112.46961367 0 1757.68727566 0 7776.39267291 0 -498.78387397 0 1171.70662928 0 6183
0.07650000 0.07648840 26362.76250020 0 1126.22151893 0 9401.95389651 0 -670.56656460 0 732.45643140 0 6330
0.07750000 0.07749960 25222.42376713 0 811.55822714 0 9077.41298375 0 2.81152901 0 1367.74214020 0 6583
0.07850000 0.07848650 24936.75778681 0 802.99267666 0 9076.41647451 0 1011.82447337 0 1189.26733645 0 6549
0.07950000 0.07947320 24288.58389193 0 -104.22268629 0 8603.01922689 0 1523.10900205 0 1142.92965708 0 6828
0.08050000 0.08048110 24243.63025316 0 157.10632408 0 9006.64975583 0 938.71834152 0 1682.32903295 0 7147
0.08150000 0.08149960 23828.41807246 0 632.12677452 0 8642.63600509 0 929.49177325 0 -164.68533042 0 7386
0.08250000 0.08250610 23896.84503984 0 99.45217514 0 8681.63273310 0 233.47768452 0 1665.44373760 0 7227
0.08350000 0.08350160 23310.67616394 0 317.40701388 0 8391.20565311 0 192.56876601 0 976.87135838 0 7798
0.08450000 0.08449610 22982.71390282 0 233.17319559 0 8039.72577407 0 -31.85817875 0 -437.60485041 0 7371
0.08550000 0.08548940 23279.67365445 0 517.32226741 0 8648.20538448 0 -238.52555741 0 1142.44247479 0 8256
0.08650000 0.08650700 22273.19932844 0 469.73341534 0 8773.48873980 0 -132.29435140 0 351.93162990 0 8037
0.08750000 0.08749060 22012.22463246 0 827.36839975 0 8798.27967507 0 -657.20226854 0 35.13846570 0 8155
0.08850000 0.08849210 21684.81598757 0 1216.13986878 0 10023.39919928 0 243.50810357 0 399.82497090 0 8718
0.08950000 0.08949900 20577.36205921 0 941.13321556 0 9057.68210092 0 -513.37498361 0 -181.68245625 0 8571
0.09050000 0.09049190 19811.48935151 0 695.98308622 0 9706.76392644 0 390.44117561 0 956.59903887 0 8932
0.09150000 0.09150830 19700.32321033 0 221.53839667 0 10138.55137739 0 135.68359003 0 -127.51221431 0 9285
0.09250000 0.09250820 19229.74940554 0 352.56828857 0 9807.73245646 0 1042.89452404 0 932.22774471 0 9204
0.09350000 0.09350330 19072.63311636 0 63.21212384 0 9102.12641274 0 1382.80050195 0 330.42474617 0 9349
0.09450000 0.09448040 19003.09891650 0 -1.24341100 0 8892.92590762 0 1284.43396826 0 1108.51687154 0 9564
0.09550000 0.09549270 19183.24564130 0 -202.68887090 0 7631.43379638 0 1725.98720971 0 -179.73040539 0 10155
0.09650000 0.09649430 18872.00259065 0 -285.28287788 0 6968.29011834 0 465.99539848 0 -97.00818088 0 9913
0.09750000 0.09749140 19038.97324891 0 467.14249133 0 6347.91883108 0 81.33264774 0 -1784.03940873 0 10476
0.09850000 0.09850240 18354.59285187 0 323.93304213 0 6073.79021322 0 -17.15069897 0 -690.67612093 0 10575
0.09950000 0.09950330 18338.42725763 0 470.19070235 0 5455.00226840 0 50.45503407 0 -2033.97499686 0 10882
0.10050000 0.10051200 17484.97246061 0 496.17191254 0 5491.80667610 0 438.11971352 0 -1460.00782291 0 10875
0.10150000 0.10150300 17478.21834247 0 467.03619701 0 5810.74499250 0 474.44358232 0 -2029.31354811 0 11118
0.10250000 0.10250800 16896.25695001 0 116.96914662 0 5489.10502884 0 168.08010521 0 -1239.12601510 0 11575
0.10350000 0.10349800 16969.55574031 0 109.92593008 0 5990.30488408 0 428.66837705 0 -891.53030761 0 11364
0.10450000 0.10450100 16730.06135448 0 230.77825173 0 6344.57498898 0 -182.47412748 0 -207.46879352 0 12093
0.10550000 0.10551000 16722.97506659 0 362.64742586 0 6178.72263552 0 89.83464308 0 352.91595957 0 12067
0.10650000 0.10649700 16473.07269544 0 290.26210235 0 6422.53522803 0 506.43374318 0 1021.19830356 0 12054
0.10750000 0.10749900 16096.50292836 0 270.28541392 0 5587.56014113 0 704.96827781 0 428.08708000 0 12807
0.10850000 0.10850100 16178.99174825 0 -128.43564620 0 5176.10147855 0 936.64670955 0 521.91285328 0 12736
0.10950000 0.10950300 15930.75022582 0 232.12464643 0 5140.69218378 0 216.89687810 0 153.73037225 0 12933
0.11050000 0.11050200 15751.37856376 0 609.25799484 0 5016.13960189 0 132.94983303 0 342.05843785 0 13428
0.11150000 0.11150900 15196.76581359 0 456.17424637 0 5039.62400283 0 -133.08712986 0 1267.17221387 0 13453
0.11250000 0.11250000 15100.54731092 0 57.94169722 0 5735.63034093 0 -385.83398126 0 1701.62809510 0 13668
0.11350000 0.11349100 15198.75883206 0 159.21117303 0 6141.58605808 0 -56.66860131 0 1027.01238132 0 13791
0.11450000 0.11448600 15238.61920141 0 158.50697317 0 6637.75907786 0 -307.23597630 0 1386.46544147 0 14205
0.11550000 0.11549300 14995.69239489 0 84.16516988 0 6311.87841379 0 250.00091485 0 1611.92011942 0 14776
0.11650000 0.11649800 15050.94329573 0 151.33099946 0 6521.64360748 0 -80.18588706 0 1250.36442480 0 14553
0.11750000 0.11747300 15020.93729547 0 80.48860442 0 5994.72274169 0 456.90391257 0 1066.04232631 0 14568
0.11850000 0.11849100 14629.64133638 0 113.40717972 0 5999.43955206 0 398.09547376 0 98.00059335 0 16015
0.11950000 0.11950300 14060.96673370 0 836.14986056 0 5447.74989565 0 30.61065992 0 596.10518019 0 15270
0.12050000 0.12050700 13905.40056999 0 186.62071312 0 5209.53989950 0 521.91728221 0 325.53077860 0 15999
0.12150000 0.12150000 13497.60684692 0 -106.21769777 0 4960.37937410 0 839.46823631 0 789.66824097 0 15670
0.12250000 0.12250700 13681.51816216 0 2.26982659 0 4598.30328021 0 746.48063802 0 315.60222493 0 16887
0.12350000 0.12352200 13563.15500985 0 150.37877952 0 4199.85459929 0 815.61180526 0 535.14317420 0 16407
0.12450000 0.12449800 13371.05017425 0 106.20153218 0 3706.11749097 0 268.13516844 0 555.09218183 0 16306
0.12550000 0.12549900 13216.14835003 0 239.69700937 0 3284.93732720 0 526.63519981 0 656.03303104 0 17523
0.12650000 0.12650100 12769.49076685 0 147.18109212 0 2993.89019701 0 488.79774421 0 805.15620893 0 17154
0.12750000 0.12750600 13015.18565457 0 50.37409538 0 3047.36952589 0 542.84508335 0 181.99691028 0 18007
0.12850000 0.12850300 12942.10831077 0 8.27792470 0 2683.74330652 0 276.91662925 0 749.71707856 0 17496
0.12950000 0.12949900 12803.03991105 0 202.52721496 0 3086.90879781 0 -249.65324385 0 557.05751949 0 18405
0.13050000 0.13049000 12744.46731276 0 176.40095731 0 3086.85343619 0 -444.97126811 0 1141.25773603 0 18100
0.13150000 0.13148800 12736.38451564 0 167.19431923 0 3719.92468002 0 -389.53767391 0 53.55030248 0 19059
0.13250000 0.13249300 12427.57737645 0 276.89448460 0 3779.16161780 0 -245.07594477 0 1094.45834072 0 18957
0.13350000 0.13349100 12483.93550978 0 218.00632505 0 3890.16167411 0 91.57543398 0 691.12344286 0 19468
0.13450000 0.13450700 12330.36236454 0 62.01952373 0 3665.22739542 0 -245.49890758 0 479.71068723 0 19953
0.13550000 0.13551000 12162.61664354 0 160.10581688 0 3804.58367558 0 564.56787741 0 183.60793354 0 19956
0.13650000 0.13649900 12007.16120308 0 390.63272683 0 3437.22608275 0 -79.33697192 0 256.84914775 0 19723
0.13750000 0.13749600 11661.37249900 0 177.67427467 0 3498.14601390 0 28.26720237 0 265.02384516 0 20946
0.13850000 0.13851100 11525.73651997 0 207.89286356 0 3566.60619826 0 313.80518662 0 191.12382762 0 20955
0.13950000 0.13949800 11446.90156726 0 316.30642479 0 3328.54014233 0 133.78690078 0 254.06113636 0 20506
0.14050000 0.14048300 11303.95785385 0 88.38062538 0 3634.45740475 0 112.79377293 0 813.36190885 0 21447
0.14150000 0.14148400 11174.30093023 0 78.01216825 0 3611.61519865 0 -18.93389689 0 995.43853987 0 21771
0.14250000 0.14249400 11274.39474659 0 -12.49212903 0 3900.38142992 0 456.93270062 0 1314.30710062 0 22470
0.14350000 0.14350900 11233.31642151 0 -63.63076844 0 3478.31548015 0 294.93130173 0 1163.10343290 0 22519
0.14450000 0.14449900 11370.83469576 0 15.33350903 0 3733.31112073 0 387.57897965 0 1113.00116310 0 22218
0.14550000 0.14550500 11153.81712931 0 241.17184304 0 3517.55579931 0 -137.70207484 0 849.20523876 0 23559
0.14650000 0.14650700 10978.36507024 0 316.62420051 0 3689.43149747 0 94.05397390 0 877.29904852 0 23044
0.14750000 0.14750500 10672.87962849 0 272.48548486 0 3360.43951013 0 -93.03897388 0 973.83532691 0 23649
0.14850000 0.14849900 10443.97038519 0 136.83289734 0 3094.16117057 0 406.35542808 0 648.88916707 0 23640
0.14950000 0.14949500 10471.59583561 0 -90.75475327 0 2947.31999883 0 404.30151182 0 326.94028555 0 24457
0.15050000 0.15050000 10370.94840301 0 59.67041930 0 2846.41790275 0 314.31672802 0 376.98497926 0 24591
0.15150000 0.15149900 10326.29371702 0 193.70478654 0 2699.01204244 0 48.38462006 0 399.41086595 0 25020
0.15250000 0.15250500 10109.38687382 0 156.54938615 0 2772.34404972 0 -25.05600673 0 506.85670599 0 25297
0.15350000 0.15350100 10077.07783000 0 196.14955586 0 3009.53539198 0 -78.39582431 0 894.03708195 0 25452
0.15450000 0.15450400 9809.31579891 0 436.27506420 0 3058.69651418 0 -174.26510586 0 842.50980394 0 26061
0.15550000 0.15549900 9645.08000487 0 304.42028410 0 3374.68959218 0 98.70246802 0 1304.93991383 0 26128
0.15650000 0.15649500 9405.57454672 0 63.11590533 0 2994.44381325 0 144.93673188 0 703.43476082 0 26331
0.15750000 0.15749700 9366.92106078 0 93.66777121 0 3159.55432095 0 2.92172078 0 890.96008288 0 27345
0.15850000 0.15849900 9128.67784766 0 162.97022731 0 3079.40176159 0 213.03817291 0 418.48737438 0 26980
0.15950000 0.15949700 9109.82167849 0 259.40353308 0 3025.01450208 0 -60.21207743 0 196.93569092 0 27777
0.16050000 0.16050000 8767.75327554 0 21.27226116 0 2720.37055702 0 80.90868842 0 306.39337238 0 28224
0.16150000 0.16150500 8831.41914325 0 78.16961671 0 2888.31557987 0 104.61298574 0 140.91969243 0 28075
0.16250000 0.16249700 8885.50744999 0 27.24932355 0 2819.88861249 0 42.22619299 0 245.08037370 0 28590
0.16350000 0.16349900 8789.66540636 0 63.59467266 0 2926.86941489 0 -49.98844631 0 68.43516090 0 29163
0.16450000 0.16449100 8804.53553859 0 94.92060476 0 2912.90721329 0 -156.60474777 0 181.05797713 0 28996
0.16550000 0.16550500 8773.56624607 0 86.23713402 0 3087.27418453 0 -268.60463501 0 -36.67596873 0 30777
0.16650000 0.16650700 8617.81185285 0 187.91063896 0 3197.21129766 0 132.49254601 0 -130.44084422 0 29211
0.16750000 0.16749900 8615.12127792 0 195.18072744 0 3045.21042255 0 34.36727828 0 -336.64296379 0 30922
0.16850000 0.16850800 8282.51971269 0 177.12730182 0 2768.67911020 0 306.75765187 0 -219.90412153 0 30867
0.16950000 0.16949900 8307.74246863 0 118.49048405 0 2834.73660007 0 183.33555435 0 187.82206036 0 30852
0.17050000 0.17049200 8112.55952672 0 35.10956694 0 2435.71215826 0 352.65686717 0 4.84834959 0 31257
0.17150000 0.17149500 8121.68312237 0 27.39968572 0 2447.47096721 0 431.02899670 0 444.16188117 0 32608
0.17250000 0.17250900 8134.46058522 0 40.62546699 0 2357.03221809 0 192.92750934 0 185.53119636 0 32361
0.17350000 0.17350400 8063.36518756 0 106.75215889 0 2429.48951171 0 182.73100541 0 787.44270368 0 32508
0.17450000 0.17449800 8012.85324173 0 137.61460347 0 2587.73517802 0 -199.44357249 0 599.69482790 0 32791
0.17550000 0.17549800 7894.73368057 0 165.10054260 0 2735.80537782 0 94.05342028 0 1172.74742782 0 33633
0.17650000 0.17650100 7847.39949197 0 90.67724700 0 2764.94773674 0 93.80163561 0 936.84268970 0 33984
0.17750000 0.17750300 7880.69397270 0 -25.37333955 0 2529.12936275 0 237.64530758 0 1101.15266831 0 34069
0.17850000 0.17849800 7842.46123510 0 -75.49797545 0 2313.18581181 0 159.94748263 0 923.25473268 0 34536
