### header ###
fiducial parameters:
Omega_m = 0.31
Omega_nu = 0
Omega_de = 0.69
Omega_k = 0
H_0 = 100
w_de = -1
zeff = 0
beta = 0
fgrowth = 0
b_1 = 2
gamma = 0.55
Lx = 3500 Ly = 3500 Lz = 3500
nx = 700 ny = 700 nz = 700
xoffset = -685.467585 yoffset = -31.7331281 zoffset = 572.489161
bins = 400 dk = 0.001
kx_ny = 0.628318531 ky_ny = 0.628318531 kz_ny = 0.628318531
############################
A(data) = 8.01986123 (not used)
A(ran) = 8.02028544 (used)
Ngal = 476794
weighted Ngal = 0
Nran = 23820508
weighted Nran = 0
SN(data) = 3485.67611
SN(ran) = 69.8595949
SN(data+ran) = 3555.5357
############################
13 columns: k_central k_mean P_0(k) sigma^{lin}_{P_0(k)} P^img_1(k) sigma^{lin}_{P_1(k)} P_2(k) sigma^{lin}_{P_2(k)} P^img_3(k) sigma^{lin}_{P_3(k)} P_4(k) sigma^{lin}_{P_4(k)} N_modes
### header ###
0.00050000 0 0 0 0 0 0 0 0 0 0 0 0
0.00150000 0.00179520 13783.82644348 0 -20972.75477849 0 10879.38955868 0 -32644.20309307 0 -3653.70110528 0 3
0.00250000 0.00253879 19389.08015968 0 -9085.31862367 0 -7456.46891960 0 25852.77121906 0 13486.64524535 0 6
0.00350000 0.00331552 31032.84766221 0 -11711.08723743 0 1291.60883474 0 7822.48676113 0 -10578.26661291 0 7
0.00450000 0.00420575 32340.48922329 0 -4736.80699137 0 -12938.45444358 0 13347.13395264 0 5170.31065267 0 24
0.00550000 0.00557378 39738.02015788 0 4058.23956486 0 -8106.19293995 0 -3991.36272295 0 -14483.70809527 0 45
0.00650000 0.00659388 31524.90177715 0 2798.30865142 0 -5231.67347681 0 -11482.11156018 0 12732.39847871 0 40
0.00750000 0.00754703 32798.99419404 0 904.37198993 0 1614.99822572 0 2788.39892070 0 10401.28657301 0 57
0.00850000 0.00846663 33146.55447009 0 -1847.62777016 0 12178.67151453 0 -16935.34225662 0 -8004.65972137 0 75
0.00950000 0.00948925 51485.53534397 0 -16780.66187890 0 22899.11785044 0 -12523.68515587 0 -16428.34050317 0 112
0.01050000 0.01054430 54892.60041391 0 -5988.63296304 0 26833.11485850 0 -18950.61609686 0 -19922.21259969 0 105
0.01150000 0.01145670 67817.65734446 0 -6039.75388672 0 35963.02173421 0 -24471.49869793 0 -19230.85663802 0 144
0.01250000 0.01249090 71739.36407198 0 -2549.88997179 0 31659.31980045 0 8597.20625636 0 -14744.01845176 0 169
0.01350000 0.01339930 73839.11975059 0 5530.91412736 0 36413.55463108 0 8662.43332187 0 3147.82872897 0 180
0.01450000 0.01448870 71403.54046023 0 -1681.56504253 0 16302.55889323 0 14724.53116008 0 -7571.93112280 0 267
0.01550000 0.01550050 79216.06212902 0 4636.73531965 0 19127.88401720 0 26265.54748830 0 -1429.37070014 0 238
0.01650000 0.01653350 87321.33606601 0 -8884.13448171 0 14408.19484001 0 10955.23498369 0 6052.27668609 0 315
0.01750000 0.01747870 79020.19270298 0 -5833.65363255 0 5890.07819983 0 5711.74733630 0 5825.50440148 0 297
0.01850000 0.01844180 92421.58104723 0 5489.68078973 0 15982.23653623 0 -11090.48343135 0 14872.67886615 0 388
0.01950000 0.01947590 88837.35878018 0 734.05416787 0 21928.96074983 0 232.60297086 0 20060.83810642 0 399
0.02050000 0.02045430 89763.22658152 0 -6334.89777709 0 36230.75054833 0 2054.86847379 0 4563.72440980 0 462
0.02150000 0.02154770 91063.56040822 0 215.44972525 0 30409.80794467 0 -2685.21592572 0 -14858.72773688 0 571
0.02250000 0.02255340 88554.35015782 0 8376.57911202 0 42400.02849078 0 -9177.65074033 0 -26220.48312628 0 510
0.02350000 0.02348930 81711.76414314 0 9068.30046042 0 40053.13852222 0 -12177.23211230 0 -11105.65251635 0 555
0.02450000 0.02439640 77411.27318358 0 7780.73302423 0 28923.56978426 0 -3125.99410442 0 -16411.06767645 0 592
0.02550000 0.02547300 72717.71469296 0 -2833.26398087 0 24668.91824945 0 8406.55189531 0 -25132.40576636 0 837
0.02650000 0.02652900 72928.97465050 0 -655.29672144 0 21881.79264610 0 12877.44593383 0 -32650.29287172 0 723
0.02750000 0.02749970 70467.59684331 0 4265.05952014 0 15092.35379055 0 6701.25886069 0 -37401.75962115 0 826
0.02850000 0.02848090 62799.67973665 0 10174.90181977 0 14815.43494684 0 -528.63375444 0 -23601.32469043 0 831
0.02950000 0.02946900 57664.77837876 0 7767.87805512 0 10758.39119306 0 2254.05959728 0 -7417.49433623 0 996
0.03050000 0.03053250 53811.49861862 0 63.81589771 0 16715.22443922 0 4071.12775094 0 -1657.33879583 0 1041
0.03150000 0.03150510 55527.04462602 0 -1244.09748895 0 18516.91313371 0 3341.55012399 0 1777.55102639 0 1036
0.03250000 0.03246190 54203.90181019 0 1423.36950009 0 17990.75625833 0 181.99580304 0 -2446.86198935 0 1059
0.03350000 0.03345080 54963.02039976 0 3332.55939624 0 25846.79216366 0 -245.79010972 0 9383.45204173 0 1302
0.03450000 0.03451200 51731.45167819 0 4019.63036821 0 24576.13216747 0 996.32321862 0 8559.61571360 0 1339
0.03550000 0.03553350 47951.24926186 0 1503.92066314 0 24579.67531141 0 5681.42023862 0 7038.94262301 0 1365
0.03650000 0.03647120 45994.54801990 0 -37.09837792 0 23994.72439124 0 6925.97169288 0 1752.99260994 0 1308
0.03750000 0.03744890 47795.46165166 0 -1769.72289274 0 17288.66014158 0 5872.83859008 0 422.80890276 0 1579
0.03850000 0.03847530 47893.11955656 0 424.54504329 0 18723.74416132 0 1763.04628087 0 -1017.35509961 0 1662
0.03950000 0.03950240 47585.86254284 0 1936.93714215 0 13268.40972318 0 -1386.81975586 0 1438.33928324 0 1683
0.04050000 0.04050350 46235.03891497 0 667.82837867 0 15586.84381695 0 -1173.13495919 0 3848.89511951 0 1822
0.04150000 0.04152450 46545.50690288 0 1529.74132462 0 18430.88116987 0 -1252.47923884 0 1338.12367131 0 1887
0.04250000 0.04250150 44934.15147202 0 2267.66748448 0 18767.92273735 0 -243.53246269 0 1903.01153891 0 1920
0.04350000 0.04349210 42813.24765301 0 2170.48568955 0 19545.86427911 0 1512.97782484 0 3820.20672590 0 2005
0.04450000 0.04448520 42124.43832604 0 697.32173029 0 21223.10004264 0 -296.07618012 0 2913.02900886 0 2151
0.04550000 0.04548030 40376.00751393 0 2407.93169529 0 20806.11628997 0 2273.64653988 0 1264.55914521 0 2274
0.04650000 0.04648670 41028.83178524 0 896.18179126 0 25185.44220224 0 -1259.66517764 0 1567.57545852 0 2311
0.04750000 0.04749250 39702.03510222 0 -650.26324258 0 18066.04806710 0 1579.55571398 0 -990.39177422 0 2568
0.04850000 0.04851840 39844.09302964 0 -44.45184100 0 22314.49910001 0 808.96287420 0 -29.24688167 0 2493
0.04950000 0.04949480 39690.85205415 0 1382.61227243 0 18506.39442513 0 2496.23348571 0 -1192.44509367 0 2644
0.05050000 0.05050630 39932.22873520 0 896.67340249 0 21763.98311003 0 865.91780584 0 -2186.18624614 0 2829
0.05150000 0.05149060 37838.89500499 0 1661.87844901 0 19388.52654344 0 268.86815634 0 -1245.43724025 0 2784
0.05250000 0.05249300 36504.45841784 0 2030.78616731 0 20179.20125873 0 745.48966495 0 -79.73147885 0 3055
0.05350000 0.05348950 35538.73024716 0 1228.65159583 0 19937.71385444 0 1760.42213989 0 2607.41069922 0 3009
0.05450000 0.05448610 36011.40779367 0 -533.30959721 0 18888.72180112 0 2949.99950143 0 1242.61379742 0 3336
0.05550000 0.05550870 36111.39088678 0 -89.38433163 0 17972.81909212 0 3017.85070792 0 2182.48808965 0 3349
0.05650000 0.05647670 35830.59672938 0 -332.60599416 0 15736.43092525 0 2325.91898535 0 1041.81054344 0 3324
0.05750000 0.05747970 36414.88331006 0 -764.03580902 0 13262.43066777 0 4033.13860449 0 998.16786794 0 3639
0.05850000 0.05849280 36209.38096143 0 -128.80656908 0 14346.63271402 0 1359.84757260 0 -477.84832220 0 3846
0.05950000 0.05951020 36592.81556990 0 588.98346087 0 14376.86016077 0 -1706.64385825 0 -4082.02291857 0 3787
0.06050000 0.06049470 35166.03579377 0 1745.18662094 0 13342.59429946 0 -755.90318644 0 -564.51915918 0 3930
0.06150000 0.06148310 33131.82827808 0 1878.65242430 0 13518.97643382 0 -2394.44560366 0 1059.02800853 0 4083
0.06250000 0.06249100 33236.01885463 0 54.78641682 0 14956.05347203 0 522.55615535 0 -2002.31922020 0 4303
0.06350000 0.06350600 33490.79304870 0 -68.24538125 0 14703.60446617 0 890.22045158 0 -3761.41268112 0 4470
0.06450000 0.06451750 32592.82750591 0 630.20019001 0 14089.20116198 0 -98.44514720 0 -2765.10274929 0 4479
0.06550000 0.06550280 32267.30115624 0 1223.18186737 0 14337.88557741 0 -1016.99857076 0 -3530.05645403 0 4636
0.06650000 0.06648880 31728.30038407 0 521.18207984 0 14455.58439023 0 -588.93363541 0 -3636.42827856 0 4653
0.06750000 0.06749660 31531.21300230 0 107.95848868 0 14256.94688299 0 1595.33377685 0 -4076.48675616 0 5220
0.06850000 0.06852730 31050.12048893 0 374.41730714 0 14203.24610761 0 512.31536213 0 -3748.02624041 0 5029
0.06950000 0.06949320 31262.70912545 0 676.63198413 0 13304.28405559 0 3012.49170271 0 -2913.17294909 0 5040
0.07050000 0.07048030 29622.56565006 0 1182.62394155 0 12956.94522603 0 2141.11081181 0 280.56496028 0 5475
0.07150000 0.07148790 29468.99250483 0 626.75780422 0 11851.70576263 0 1694.86290464 0 1218.01109168 0 5509
0.07250000 0.07249820 28881.82711969 0 320.24595796 0 11980.91979326 0 2173.80738700 0 730.01609101 0 5916
0.07350000 0.07351270 28775.42207819 0 663.75376314 0 11484.43674840 0 365.16859422 0 1358.48567665 0 5721
0.07450000 0.07449140 27573.41049587 0 515.68688503 0 11963.97913629 0 -8.69828551 0 1914.46032277 0 6028
0.07550000 0.07549160 27526.24239215 0 413.38303264 0 9767.62849597 0 260.49304985 0 623.50475519 0 6183
0.07650000 0.07648840 26986.24511074 0 313.41876248 0 11170.64706304 0 807.36845943 0 390.03371406 0 6330
0.07750000 0.07749960 26572.02943928 0 1049.58885163 0 9330.32702725 0 802.97496094 0 -1226.59214341 0 6583
0.07850000 0.07848650 25346.76597485 0 798.45080902 0 9356.25841198 0 -436.45332863 0 -1258.80153631 0 6549
0.07950000 0.07947320 24592.96210119 0 351.38797875 0 9147.50079985 0 356.16679414 0 108.50568297 0 6828
0.08050000 0.08048110 24849.84003698 0 133.07273583 0 9706.30996112 0 1086.92694538 0 -292.91835308 0 7147
0.08150000 0.08149960 24342.50611379 0 326.22612060 0 8998.91020078 0 2061.73331518 0 -206.64501256 0 7386
0.08250000 0.08250610 24043.11045070 0 852.08182874 0 8923.26407762 0 404.79865921 0 511.37200005 0 7227
0.08350000 0.08350160 23423.39243060 0 972.30180993 0 9333.15047008 0 -135.26284168 0 950.80046236 0 7798
0.08450000 0.08449610 22632.71771530 0 830.51958339 0 9616.57984079 0 -52.68112498 0 1788.19153054 0 7371
0.08550000 0.08548940 21795.09634277 0 793.88901119 0 9911.31405514 0 867.12136754 0 1849.83116280 0 8256
0.08650000 0.08650700 21575.64286486 0 262.07307060 0 8865.24509557 0 1110.08914167 0 1643.78627025 0 8037
0.08750000 0.08749060 20967.10789283 0 54.58545412 0 8520.49719002 0 1233.93309476 0 1928.04606532 0 8155
0.08850000 0.08849210 21101.63663938 0 -83.47348175 0 6919.07363452 0 1822.40501423 0 310.68943441 0 8718
0.08950000 0.08949900 20361.11955551 0 -83.30473951 0 6004.37780893 0 1443.65399915 0 366.10974183 0 8571
0.09050000 0.09049190 20812.87040811 0 -24.35313555 0 4946.00749649 0 418.69221239 0 -1676.25032662 0 8932
0.09150000 0.09150830 20398.98690638 0 392.42201453 0 5378.84681830 0 -1063.48794097 0 -1295.80524585 0 9285
0.09250000 0.09250820 20029.72487368 0 856.50632974 0 4660.56296266 0 -1209.14215950 0 -1599.81806840 0 9204
0.09350000 0.09350330 18976.52533693 0 1050.37387946 0 5557.49877925 0 -788.92418075 0 -1122.45692849 0 9349
0.09450000 0.09448040 18979.73631113 0 256.41400538 0 5691.04208889 0 -228.36448492 0 -251.52335951 0 9564
0.09550000 0.09549270 18847.64347604 0 10.66566047 0 5985.80952021 0 1313.37702534 0 -1865.15526035 0 10155
0.09650000 0.09649430 18645.13065511 0 282.46718568 0 5857.23768441 0 1469.04283996 0 -262.24247717 0 9913
0.09750000 0.09749140 18111.33387560 0 544.59561790 0 4957.61129290 0 811.91586323 0 -1728.53384441 0 10476
0.09850000 0.09850240 17892.21256744 0 386.15175698 0 4617.45840215 0 579.08480248 0 832.16493086 0 10575
0.09950000 0.09950330 17162.54636189 0 201.71893524 0 4799.93031516 0 96.80887903 0 -432.59240897 0 10882
0.10050000 0.10051200 17066.77075221 0 300.75534458 0 4798.77879338 0 466.26445597 0 42.79962869 0 10875
0.10150000 0.10150300 16747.66635094 0 492.02975583 0 5232.09422515 0 -418.78521992 0 589.24144604 0 11118
0.10250000 0.10250800 16321.04967568 0 689.69068402 0 4750.72490366 0 202.31351909 0 991.46689696 0 11575
0.10350000 0.10349800 16184.30646417 0 178.43383615 0 5294.78572828 0 399.55369894 0 1185.45845671 0 11364
0.10450000 0.10450100 15928.64648410 0 -222.73531498 0 4429.14030163 0 47.39121107 0 1260.53989130 0 12093
0.10550000 0.10551000 16125.51241938 0 142.81970337 0 5381.53739323 0 179.99503395 0 679.50968135 0 12067
0.10650000 0.10649700 16194.49300300 0 244.33520624 0 5073.39459353 0 100.77210698 0 1111.48425459 0 12054
0.10750000 0.10749900 15838.96065307 0 263.26223828 0 5049.05762358 0 498.97653242 0 1179.77835408 0 12807
0.10850000 0.10850100 15599.35554400 0 357.71359792 0 4648.91487696 0 1.39973009 0 1933.10611776 0 12736
0.10950000 0.10950300 15441.46419208 0 255.22705216 0 5221.75267377 0 427.98853631 0 2550.62074522 0 12933
0.11050000 0.11050200 15110.62312650 0 276.64092836 0 5555.57219473 0 -206.16004473 0 2149.80258679 0 13428
0.11150000 0.11150900 15000.23204806 0 359.44530952 0 5681.08806887 0 3.38153229 0 2304.39438591 0 13453
0.11250000 0.11250000 14493.67318761 0 570.87799532 0 5781.56941660 0 -478.90351475 0 2937.79779948 0 13668
0.11350000 0.11349100 14449.05171859 0 156.80404962 0 6044.48176942 0 -138.08849898 0 2035.79085813 0 13791
0.11450000 0.11448600 14342.97884683 0 -152.28654109 0 6013.49033226 0 39.98493300 0 1642.95584589 0 14205
0.11550000 0.11549300 14472.63577045 0 56.42788897 0 6378.07984388 0 65.34177479 0 816.92276851 0 14776
0.11650000 0.11649800 14702.82940343 0 107.02907773 0 5774.57170732 0 318.14000178 0 70.73809374 0 14553
0.11750000 0.11747300 14123.96826191 0 261.70989834 0 5306.55560956 0 -43.68541468 0 -31.15198588 0 14568
0.11850000 0.11849100 14042.80812099 0 425.18945259 0 5520.47292506 0 -405.83059988 0 -375.20454943 0 16015
0.11950000 0.11950300 13981.35671825 0 74.36151204 0 5358.98306758 0 386.39424089 0 -941.69126073 0 15270
0.12050000 0.12050700 13621.39543840 0 71.92371828 0 4892.01884067 0 426.46055548 0 -420.61658244 0 15999
0.12150000 0.12150000 13617.07723172 0 285.07028925 0 4640.02380013 0 674.20714500 0 -560.09022925 0 15670
0.12250000 0.12250700 13493.62080999 0 -9.85774615 0 4273.21982353 0 326.98457485 0 -1101.91998042 0 16887
0.12350000 0.12352200 13073.97969936 0 367.94885498 0 4312.50443199 0 327.45293419 0 -515.17866532 0 16407
0.12450000 0.12449800 13033.45499052 0 416.36370248 0 4099.00786484 0 62.42466010 0 -700.52052493 0 16306
0.12550000 0.12549900 12668.84333425 0 -3.53444109 0 4171.94126842 0 6.84813325 0 -96.39599204 0 17523
0.12650000 0.12650100 12924.94620730 0 -213.72908597 0 4341.87930973 0 -130.80733818 0 -620.86622018 0 17154
0.12750000 0.12750600 12938.67589008 0 98.20111316 0 4503.51310744 0 370.23418282 0 -576.11520496 0 18007
0.12850000 0.12850300 12825.07383744 0 410.46658228 0 4235.79536565 0 -153.56318014 0 -349.32299017 0 17496
0.12950000 0.12949900 12441.97139871 0 405.02232017 0 4322.00448668 0 233.51311596 0 -622.48056514 0 18405
0.13050000 0.13049000 12347.96736100 0 323.26980987 0 4465.35787611 0 371.64811870 0 38.50965644 0 18100
0.13150000 0.13148800 11823.13916460 0 186.05934625 0 4149.55302763 0 373.84265348 0 -55.02723988 0 19059
0.13250000 0.13249300 11944.49184461 0 -3.13485196 0 3976.44830142 0 383.49661349 0 -266.93492843 0 18957
0.13350000 0.13349100 11813.72768850 0 32.23253406 0 3744.36130090 0 259.97818674 0 -551.67858409 0 19468
0.13450000 0.13450700 11927.88335738 0 -43.22403090 0 3758.53387666 0 67.29271842 0 31.02841873 0 19953
0.13550000 0.13551000 11645.64979776 0 85.91038971 0 3264.66390045 0 658.28182021 0 71.47141381 0 19956
0.13650000 0.13649900 11621.84429940 0 125.28556979 0 3152.08050170 0 524.15167736 0 -355.49802572 0 19723
0.13750000 0.13749600 11743.08625616 0 -62.87176057 0 2681.49562458 0 629.74401022 0 -296.46260425 0 20946
0.13850000 0.13851100 11520.53252731 0 98.44747238 0 2720.86881163 0 283.20238805 0 -8.34730389 0 20955
0.13950000 0.13949800 11481.22577420 0 319.44210718 0 2566.14414462 0 -267.47525788 0 216.58463855 0 20506
0.14050000 0.14048300 11188.58422924 0 83.83931136 0 2556.66623457 0 182.68782335 0 438.53935463 0 21447
0.14150000 0.14148400 11144.51637646 0 78.99937673 0 2344.36547850 0 145.40619845 0 675.86024309 0 21771
0.14250000 0.14249400 11131.56175643 0 182.83508527 0 2549.88997179 0 183.60129014 0 447.99179832 0 22470
0.14350000 0.14350900 11015.46843070 0 240.67469565 0 2731.89684715 0 -147.92847404 0 371.18972445 0 22519
0.14450000 0.14449900 10824.23830876 0 394.94429012 0 3377.63483058 0 -513.67393638 0 799.69312386 0 22218
0.14550000 0.14550500 10613.14443609 0 221.65244161 0 3403.24511788 0 -447.40385788 0 1016.79483998 0 23559
0.14650000 0.14650700 10590.15828977 0 -88.12485468 0 3438.36653221 0 79.08839822 0 1181.82673417 0 23044
0.14750000 0.14750500 10658.39702763 0 -145.31319092 0 3591.15354238 0 676.61759011 0 1217.83393448 0 23649
0.14850000 0.14849900 10778.57604121 0 35.90400624 0 3125.01973984 0 874.80556097 0 1022.06858829 0 23640
0.14950000 0.14949500 10630.91551743 0 272.13117046 0 2863.79038039 0 472.06081802 0 906.23435497 0 24457
0.15050000 0.15050000 10127.61192047 0 376.99715882 0 2594.67752568 0 92.70038219 0 897.63005135 0 24591
0.15150000 0.15149900 9819.20338497 0 410.68692155 0 2659.33990262 0 -169.87825076 0 660.52175152 0 25020
0.15250000 0.15250500 9456.67332576 0 318.55853566 0 2558.02813053 0 -264.82122162 0 899.15138878 0 25297
0.15350000 0.15350100 9414.02273056 0 151.33875009 0 2406.90196908 0 29.11567462 0 717.98490287 0 25452
0.15450000 0.15450400 9275.30864523 0 -241.82953913 0 2405.69508567 0 202.21608263 0 388.75707501 0 26061
0.15550000 0.15549900 9635.85675830 0 -111.80501432 0 2185.90943802 0 349.97515010 0 284.07378001 0 26128
0.15650000 0.15649500 9584.13792907 0 69.74147378 0 2416.60132562 0 -150.07871952 0 189.15738274 0 26331
0.15750000 0.15749700 9408.51978512 0 348.87456101 0 2380.68270391 0 -321.94998875 0 452.46391032 0 27345
0.15850000 0.15849900 9194.35887848 0 338.53743856 0 2719.26332454 0 -208.83401117 0 787.28215498 0 26980
0.15950000 0.15949700 8951.23277011 0 127.82777557 0 2807.79763379 0 120.32073934 0 549.26703174 0 27777
0.16050000 0.16050000 8989.19977192 0 1.21964980 0 2859.50539069 0 54.26701406 0 446.03310406 0 28224
0.16150000 0.16150500 8928.21340681 0 73.40032352 0 2861.16623941 0 47.67100872 0 276.11056400 0 28075
0.16250000 0.16249700 8918.29260378 0 42.21456705 0 2874.29801665 0 168.74998086 0 832.04977868 0 28590
0.16350000 0.16349900 8838.48328648 0 166.40818416 0 2552.90164414 0 168.49531739 0 622.68761762 0 29163
0.16450000 0.16449100 8785.28076573 0 15.39274596 0 2417.37638836 0 412.08092724 0 784.29152004 0 28996
0.16550000 0.16550500 8858.47990511 0 -26.60502497 0 2418.67185036 0 189.57038045 0 519.15584440 0 30777
0.16650000 0.16650700 8657.88259637 0 133.26871598 0 2346.35849697 0 316.05951195 0 994.27040960 0 29211
0.16750000 0.16749900 8750.18149606 0 121.63280983 0 2313.15259484 0 72.87150928 0 926.97171212 0 30922
0.16850000 0.16850800 8635.57186186 0 92.46730975 0 2310.15199481 0 -89.42352766 0 1017.82013726 0 30867
0.16950000 0.16949900 8636.92268549 0 18.55777001 0 2444.68074136 0 -134.20322020 0 1016.11057030 0 30852
0.17050000 0.17049200 8516.13469404 0 79.25381876 0 2357.24259227 0 -19.53158098 0 989.91012809 0 31257
0.17150000 0.17149500 8560.35755936 0 128.15994531 0 2492.86749897 0 -197.81926244 0 975.45852973 0 32608
0.17250000 0.17250900 8366.74688759 0 157.63779568 0 2396.72650257 0 221.27930427 0 560.79885804 0 32361
0.17350000 0.17350400 8263.80748375 0 208.52287884 0 2275.56205208 0 273.35466236 0 707.04766041 0 32508
0.17450000 0.17449800 8080.81517147 0 122.43112445 0 1888.61751664 0 144.79611335 0 520.70264818 0 32791
0.17550000 0.17549800 7887.14913807 0 226.90293804 0 1970.64129890 0 236.26348145 0 475.02155767 0 33633
0.17650000 0.17650100 7733.95245188 0 144.09191349 0 1961.94952392 0 165.34524098 0 405.35448991 0 33984
0.17750000 0.17750300 7665.32618265 0 21.26185318 0 1760.12318712 0 82.59146035 0 444.62802604 0 34069
0.17850000 0.17849800 7689.62993563 0 -21.57697154 0 1737.31419799 0 -91.42916857 0 332.14095651 0 34536
