### header ###
fiducial parameters:
Omega_m = 0.31
Omega_nu = 0
Omega_de = 0.69
Omega_k = 0
H_0 = 100
w_de = -1
zeff = 0
beta = 0
fgrowth = 0
b_1 = 2
gamma = 0.55
Lx = 3500 Ly = 3500 Lz = 3500
nx = 700 ny = 700 nz = 700
xoffset = -685.467585 yoffset = -31.7331281 zoffset = 572.489161
bins = 400 dk = 0.001
kx_ny = 0.628318531 ky_ny = 0.628318531 kz_ny = 0.628318531
############################
A(data) = 8.06424833 (not used)
A(ran) = 8.05536913 (used)
Ngal = 478418
weighted Ngal = 0
Nran = 23820508
weighted Nran = 0
SN(data) = 3499.43984
SN(ran) = 70.1651866
SN(data+ran) = 3569.60502
############################
13 columns: k_central k_mean P_0(k) sigma^{lin}_{P_0(k)} P^img_1(k) sigma^{lin}_{P_1(k)} P_2(k) sigma^{lin}_{P_2(k)} P^img_3(k) sigma^{lin}_{P_3(k)} P_4(k) sigma^{lin}_{P_4(k)} N_modes
### header ###
0.00050000 0 0 0 0 0 0 0 0 0 0 0 0
0.00150000 0.00179520 7684.17127949 0 -10638.99831454 0 19031.00117504 0 -51405.37171228 0 16746.33767196 0 3
0.00250000 0.00253879 18106.35132944 0 -17534.13358281 0 -19929.52033407 0 28051.62420479 0 -568.58048792 0 6
0.00350000 0.00331552 34369.16057657 0 -27337.90214698 0 6482.14862485 0 -11325.54888725 0 -28225.34898120 0 7
0.00450000 0.00420575 53106.08080443 0 -26700.02551418 0 -2107.03019601 0 6715.68609993 0 7931.78167941 0 24
0.00550000 0.00557378 76263.84816262 0 -1304.18699574 0 20053.64109529 0 -12618.35353307 0 -6175.27914251 0 45
0.00650000 0.00659388 76939.81359280 0 13002.45248103 0 14930.69784820 0 -343.58974038 0 32032.12497710 0 40
0.00750000 0.00754703 77947.06298155 0 5107.51949862 0 36091.57142536 0 3725.05116641 0 17710.73716367 0 57
0.00850000 0.00846663 66493.07512641 0 11181.27649486 0 47256.57160273 0 -4776.32411864 0 24939.74731451 0 75
0.00950000 0.00948925 66608.33802777 0 7929.02467053 0 55737.30807433 0 15584.74007524 0 11490.30508055 0 112
0.01050000 0.01054430 67439.86962165 0 2949.51231914 0 63193.85450020 0 27159.19482441 0 28881.38422670 0 105
0.01150000 0.01145670 67380.63268387 0 4307.46652420 0 48537.86103075 0 41566.50387843 0 17277.03420052 0 144
0.01250000 0.01249090 68828.11770741 0 -2996.21538522 0 40636.20714717 0 27284.31209486 0 10612.39151800 0 169
0.01350000 0.01339930 75988.47944438 0 -3383.35922251 0 36433.92770875 0 3260.50070632 0 -9644.78105210 0 180
0.01450000 0.01448870 69061.19014485 0 4278.66740734 0 19319.76740631 0 8036.79160799 0 -11262.54735903 0 267
0.01550000 0.01550050 64676.66023991 0 860.23548874 0 21359.73253090 0 7603.45403156 0 -8104.43244031 0 238
0.01650000 0.01653350 64452.22421584 0 3779.43842592 0 10853.92321160 0 684.08919490 0 -18749.98557114 0 315
0.01750000 0.01747870 62990.01300029 0 747.02982533 0 20553.33511436 0 -7474.83790647 0 -14513.16047929 0 297
0.01850000 0.01844180 58248.51134320 0 5503.82014853 0 18999.88794230 0 -6756.52083386 0 -14478.72554910 0 388
0.01950000 0.01947590 58938.87079564 0 125.68195902 0 16506.62183964 0 -7601.61602564 0 6540.17867923 0 399
0.02050000 0.02045430 63673.39688809 0 -7123.23623185 0 16162.27253778 0 -2157.08817652 0 -2179.02245198 0 462
0.02150000 0.02154770 75321.48259731 0 -10647.94475300 0 29408.31616482 0 -1245.88013324 0 -13900.52874707 0 571
0.02250000 0.02255340 77612.12515579 0 -4009.51026333 0 22988.25006523 0 3443.00583631 0 -2781.70016419 0 510
0.02350000 0.02348930 85108.19978126 0 2953.14404168 0 40625.35626885 0 548.98690193 0 -269.08185221 0 555
0.02450000 0.02439640 84049.79625185 0 4734.83611755 0 35365.44836375 0 3938.82454169 0 11450.11254146 0 592
0.02550000 0.02547300 76515.18993601 0 7434.98860945 0 37897.91049627 0 16136.58474420 0 12458.57988594 0 837
0.02650000 0.02652900 69252.96281071 0 6283.58862388 0 32900.08451963 0 11090.04053836 0 18967.99964682 0 723
0.02750000 0.02749970 65084.56468623 0 4418.78767792 0 32447.33715779 0 14403.43374034 0 21846.02903693 0 826
0.02850000 0.02848090 60227.57868128 0 2704.33783068 0 28147.51053772 0 3511.66532251 0 23872.81809499 0 831
0.02950000 0.02946900 59925.52566023 0 1282.79526419 0 26152.16688215 0 1179.34653341 0 15850.25442439 0 996
0.03050000 0.03053250 59958.29974169 0 204.20577940 0 28701.01605541 0 -2462.56254594 0 24320.58291065 0 1041
0.03150000 0.03150510 58070.68980661 0 964.45596056 0 27829.95626192 0 1898.64904293 0 13183.15282207 0 1036
0.03250000 0.03246190 57275.91833113 0 4615.59825158 0 27180.12151832 0 82.76009186 0 9198.05703497 0 1059
0.03350000 0.03345080 54839.23180829 0 1454.87026420 0 27718.67939750 0 5205.71994744 0 3247.31356746 0 1302
0.03450000 0.03451200 53175.17211129 0 -1811.67593148 0 23803.39461837 0 9490.43284413 0 6558.06048381 0 1339
0.03550000 0.03553350 53129.77557954 0 1186.34424269 0 21082.70296394 0 7632.59639049 0 8091.58854352 0 1365
0.03650000 0.03647120 54271.22154509 0 -39.49653275 0 14208.00720729 0 9719.69640183 0 5618.83945874 0 1308
0.03750000 0.03744890 50158.96010745 0 693.57374834 0 11580.65525107 0 2319.20915651 0 9043.40987423 0 1579
0.03850000 0.03847530 50675.04116724 0 4021.90019480 0 13226.77778186 0 -3470.43198488 0 4381.14177354 0 1662
0.03950000 0.03950240 46010.38144440 0 2761.61496697 0 13918.68735978 0 -3869.82181342 0 2771.56898698 0 1683
0.04050000 0.04050350 44046.92608431 0 4033.24932774 0 17970.38318066 0 -5669.45105549 0 3558.91093251 0 1822
0.04150000 0.04152450 41731.48151823 0 2572.67681626 0 19710.95264215 0 684.63063158 0 3215.59135686 0 1887
0.04250000 0.04250150 39875.64915538 0 24.50183687 0 16182.31344570 0 6282.07171538 0 5255.47897517 0 1920
0.04350000 0.04349210 40593.91086636 0 -1361.78522945 0 16591.54657100 0 6640.13962769 0 2124.46910760 0 2005
0.04450000 0.04448520 41361.55514604 0 -277.55993132 0 14539.29116586 0 4765.27393847 0 4362.65099109 0 2151
0.04550000 0.04548030 40923.86614596 0 1279.38498814 0 15983.56521521 0 2275.72813695 0 5237.36465177 0 2274
0.04650000 0.04648670 39596.73729319 0 2590.39253597 0 13552.52557802 0 399.67106558 0 11667.13010790 0 2311
0.04750000 0.04749250 39283.16905433 0 -185.75375009 0 16548.91812045 0 656.53571459 0 14334.23171022 0 2568
0.04850000 0.04851840 38864.63517619 0 -1554.54333221 0 15645.41641524 0 -622.92567260 0 8312.02745833 0 2493
0.04950000 0.04949480 39682.76925704 0 1195.24639185 0 16618.34159706 0 168.42224005 0 9057.26135258 0 2644
0.05050000 0.05050630 38605.87494517 0 3504.60117927 0 17393.51505761 0 -1244.05319965 0 6717.52410585 0 2829
0.05150000 0.05149060 35023.53497335 0 1741.22272866 0 14725.30622281 0 -1318.71388590 0 6315.17796659 0 2784
0.05250000 0.05249300 34789.46602668 0 373.65885289 0 13080.73381750 0 3073.22340434 0 1709.54480735 0 3055
0.05350000 0.05348950 35345.40745583 0 -1599.15372891 0 12232.70445964 0 2609.86875533 0 -170.54259025 0 3009
0.05450000 0.05448610 36014.72949111 0 -304.16119170 0 12747.23539396 0 2308.33613354 0 -5064.43708275 0 3336
0.05550000 0.05550870 36337.15558983 0 398.19733915 0 11437.26864467 0 -2286.18041158 0 -1008.92241703 0 3349
0.05650000 0.05647670 35245.86725571 0 273.72115631 0 10245.49896281 0 -298.17549290 0 -3138.83800121 0 3324
0.05750000 0.05747970 35827.05358544 0 8.04479690 0 14573.72609605 0 348.86791762 0 -115.16546490 0 3639
0.05850000 0.05849280 35041.47213956 0 582.43639520 0 12027.64500400 0 2655.98498820 0 -967.69240111 0 3846
0.05950000 0.05951020 34923.21971049 0 773.24466157 0 12350.95688870 0 3136.61246393 0 -1261.59176216 0 3787
0.06050000 0.06049470 33658.31732321 0 661.69098902 0 11755.81942970 0 1184.43980283 0 -1744.56657075 0 3930
0.06150000 0.06148310 32528.16512897 0 1646.07824149 0 10225.13695747 0 1798.55522657 0 873.72933100 0 4083
0.06250000 0.06249100 32354.99396881 0 218.42707339 0 8654.62733287 0 -100.79137282 0 -219.80447060 0 4303
0.06350000 0.06350600 31581.25991048 0 391.37346536 0 8792.56635546 0 -445.62453528 0 807.56776128 0 4470
0.06450000 0.06451750 31649.13326162 0 373.33554100 0 8617.12536871 0 -985.00176649 0 -426.68753814 0 4479
0.06550000 0.06550280 31644.81505494 0 275.25024436 0 9640.32997753 0 330.87760425 0 62.46097732 0 4636
0.06650000 0.06648880 31095.62774393 0 1141.76706297 0 11022.63222486 0 -820.48141371 0 145.95870746 0 4653
0.06750000 0.06749660 30535.36810811 0 1472.61920088 0 11260.11144757 0 674.21046669 0 496.04125911 0 5220
0.06850000 0.06852730 29115.56389662 0 1262.62148837 0 11773.53514941 0 943.18934628 0 2024.14277242 0 5029
0.06950000 0.06949320 28698.02652770 0 304.20769546 0 12712.68974053 0 806.32101750 0 2781.15762027 0 5040
0.07050000 0.07048030 29143.90904815 0 -290.82125476 0 13420.43274294 0 1422.87124547 0 2456.28453777 0 5475
0.07150000 0.07148790 28720.28190059 0 144.39197350 0 13322.99628453 0 425.88590182 0 3360.80489685 0 5509
0.07250000 0.07249820 28523.08379557 0 666.80308139 0 12287.29102100 0 -376.59966236 0 3229.07744849 0 5916
0.07350000 0.07351270 28249.92954229 0 525.30319914 0 13288.56135435 0 -898.85907941 0 2351.80608078 0 5721
0.07450000 0.07449140 27759.53627608 0 1208.47782001 0 12511.17342883 0 1384.35062743 0 1581.03940550 0 6028
0.07550000 0.07549160 27023.66956863 0 -266.38020495 0 11081.73629474 0 1000.91601896 0 1575.62503867 0 6183
0.07650000 0.07648840 27213.00632303 0 -661.06761713 0 9722.76343580 0 2891.92515776 0 506.62307994 0 6330
0.07750000 0.07749960 27561.45238507 0 -151.70302957 0 8829.94652405 0 469.08789880 0 -1871.87616152 0 6583
0.07850000 0.07848650 26726.82054024 0 1065.77216158 0 8656.44319414 0 1058.36034735 0 -859.87674542 0 6549
0.07950000 0.07947320 25498.67827136 0 1815.60660679 0 7835.99499740 0 -824.01127086 0 24.66282847 0 6828
0.08050000 0.08048110 24373.50862329 0 1391.24868579 0 8065.46892927 0 637.87441834 0 659.89948687 0 7147
0.08150000 0.08149960 23704.62948099 0 178.20574626 0 7494.87881439 0 191.83134918 0 -105.94631509 0 7386
0.08250000 0.08250610 23214.23621477 0 -53.07275311 0 7869.51092463 0 1221.58745259 0 -11.62660540 0 7227
0.08350000 0.08350160 23674.73420398 0 201.92709495 0 7128.93847914 0 542.38115294 0 108.49815379 0 7798
0.08450000 0.08449610 22679.88581903 0 271.36053666 0 7284.85895723 0 826.95761650 0 -338.55293982 0 7371
0.08550000 0.08548940 23054.90546063 0 621.35893864 0 6628.72406080 0 100.44159808 0 86.57373269 0 8256
0.08650000 0.08650700 22214.62673015 0 521.38027446 0 6865.63859495 0 210.58454573 0 246.62607024 0 8037
0.08750000 0.08749060 22249.39383008 0 293.12872725 0 6883.39860396 0 512.59992087 0 539.78469277 0 8155
0.08850000 0.08849210 21835.17815861 0 52.05708875 0 7364.85650405 0 -260.55394763 0 -95.77151292 0 8718
0.08950000 0.08949900 21970.48196790 0 199.13908356 0 7362.55346048 0 376.31953254 0 -514.20097904 0 8571
0.09050000 0.09049190 21878.47094865 0 662.63213663 0 8125.64701466 0 -1229.85847923 0 358.92601748 0 8932
0.09150000 0.09150830 21130.97830015 0 813.86016347 0 8187.03198345 0 -673.66127938 0 203.48275659 0 9285
0.09250000 0.09250820 20697.93967649 0 481.32503219 0 9541.16623645 0 247.09885851 0 762.51668605 0 9204
0.09350000 0.09350330 19700.98754982 0 515.89615197 0 8914.41729009 0 526.34842660 0 -181.48315440 0 9349
0.09450000 0.09448040 19855.00358804 0 282.31992376 0 8116.02516439 0 834.35392948 0 -436.58730376 0 9564
0.09550000 0.09549270 19135.74536783 0 128.40796539 0 7533.98626565 0 1103.84324324 0 -1281.92055053 0 10155
0.09650000 0.09649430 18898.13327722 0 372.25931103 0 6807.80784242 0 834.71156557 0 -1361.78522945 0 9913
0.09750000 0.09749140 18320.82226117 0 445.05873948 0 5598.93141872 0 1110.41023909 0 -1954.27640282 0 10476
0.09850000 0.09850240 17836.07588061 0 301.88029279 0 4929.21077974 0 448.10473604 0 -1751.56428004 0 10575
0.09950000 0.09950330 17450.31608393 0 580.19757112 0 5097.31081514 0 710.16673431 0 -1523.93942641 0 10882
0.10050000 0.10051200 17214.25411880 0 218.77917332 0 4425.05461377 0 567.53415323 0 -1478.01142307 0 10875
0.10150000 0.10150300 16935.23153337 0 196.16505711 0 5410.87905400 0 57.32009691 0 282.43507594 0 11118
0.10250000 0.10250800 16992.36472943 0 175.98020897 0 5177.28621730 0 -457.82734446 0 90.49189628 0 11575
0.10350000 0.10349800 17056.03059714 0 401.41717121 0 6558.40372588 0 -57.98964039 0 1314.96036779 0 11364
0.10450000 0.10450100 16533.08469595 0 243.35309103 0 6290.26523575 0 215.37664791 0 1705.33732392 0 12093
0.10550000 0.10551000 16702.38054243 0 223.32879159 0 6732.77069712 0 508.87740527 0 2418.12930644 0 12067
0.10650000 0.10649700 16629.85681487 0 307.83388184 0 6657.47888836 0 589.71866324 0 2393.31622652 0 12054
0.10750000 0.10749900 15918.01705228 0 483.45756195 0 6721.51014278 0 741.82140373 0 2440.62827047 0 12807
0.10850000 0.10850100 15716.39001733 0 533.79788674 0 6388.34388899 0 254.75980005 0 2102.91129118 0 12736
0.10950000 0.10950300 15269.17881791 0 181.67138393 0 6204.06718703 0 -62.33120967 0 2896.81912533 0 12933
0.11050000 0.11050200 15314.79679616 0 -52.64735439 0 6398.25361970 0 85.66159458 0 2089.89023719 0 13428
0.11150000 0.11150900 15325.53695123 0 -179.85441542 0 5830.14370558 0 405.86824578 0 2150.06832258 0 13453
0.11250000 0.11250000 15664.35009068 0 -112.73951854 0 6333.20371139 0 211.96083570 0 1408.26684903 0 13668
0.11350000 0.11349100 15306.16038280 0 555.29037644 0 5602.39705639 0 -85.31447719 0 709.72937748 0 13791
0.11450000 0.11448600 14890.83747885 0 711.67367772 0 5242.46899351 0 65.95030976 0 1025.58737312 0 14205
0.11550000 0.11549300 14409.96641198 0 170.84929365 0 5148.19922000 0 -70.95466841 0 466.37960815 0 14776
0.11650000 0.11649800 14195.27403375 0 28.38335106 0 4738.24639359 0 448.82111545 0 218.76920823 0 14553
0.11750000 0.11747300 14321.94142967 0 -69.23624360 0 4741.00340247 0 900.25308510 0 60.58455043 0 14568
0.11850000 0.11849100 14385.27512763 0 -309.84793772 0 3605.06038235 0 779.56474458 0 -289.40399718 0 16015
0.11950000 0.11950300 14543.60937254 0 -16.17843813 0 4002.20252895 0 181.87622194 0 -182.50955892 0 15270
0.12050000 0.12050700 14436.20782180 0 100.84507360 0 3898.34412215 0 211.31310470 0 -686.85506164 0 15999
0.12150000 0.12150000 14409.74496548 0 224.47477721 0 3840.49122497 0 -399.81279134 0 343.21106687 0 15670
0.12250000 0.12250700 14098.39119158 0 408.72047666 0 3809.80981290 0 371.59054261 0 328.39851073 0 16887
0.12350000 0.12352200 13973.49536763 0 142.77984300 0 3932.43581027 0 87.41987976 0 963.67425443 0 16407
0.12450000 0.12449800 13695.69073793 0 231.32854627 0 3806.38846453 0 386.88363765 0 157.36430925 0 16306
0.12550000 0.12549900 13470.81182086 0 585.47464113 0 3998.05040714 0 -331.33932020 0 654.67113509 0 17523
0.12650000 0.12650100 13046.85250356 0 512.06069866 0 4075.54560855 0 -420.21576428 0 483.85284395 0 17154
0.12750000 0.12750600 12597.09466942 0 305.54855400 0 4264.14051718 0 49.71097385 0 757.33815974 0 18007
0.12850000 0.12850300 12424.03423251 0 104.08572163 0 4097.21414822 0 154.12122531 0 631.24320300 0 17496
0.12950000 0.12949900 12613.92460315 0 -2.90542232 0 4299.87090937 0 471.18721159 0 100.45056667 0 18405
0.13050000 0.13049000 12362.13993677 0 16.24620076 0 4155.80889116 0 133.13916978 0 241.50069108 0 18100
0.13150000 0.13148800 12507.74100814 0 103.42891132 0 4172.55024628 0 300.88710525 0 474.18227545 0 19059
0.13250000 0.13249300 12253.40970705 0 30.74718168 0 3828.96493484 0 384.69353180 0 1112.80186125 0 18957
0.13350000 0.13349100 12531.65722974 0 -176.64676292 0 3416.57619696 0 829.94825143 0 919.52003752 0 19468
0.13450000 0.13450700 12681.90867753 0 -72.07352684 0 3231.50228762 0 442.13786019 0 976.52036568 0 19953
0.13550000 0.13551000 12548.93005646 0 42.35917161 0 3126.65844391 0 246.67146677 0 754.49921565 0 19956
0.13650000 0.13649900 12338.77733140 0 108.74816689 0 3218.25978714 0 -16.42468664 0 874.13236362 0 19723
0.13750000 0.13749600 12225.28600201 0 222.33449682 0 3032.48832133 0 -12.55247320 0 628.62238372 0 20946
0.13850000 0.13851100 11954.12476720 0 576.67767906 0 3250.82349443 0 41.65430741 0 1066.35567310 0 20955
0.13950000 0.13949800 11497.94498468 0 600.73341197 0 3125.11939076 0 147.19216444 0 1534.69065381 0 20506
0.14050000 0.14048300 11159.13184522 0 291.02830723 0 3024.00692052 0 273.01252752 0 1689.57033338 0 21447
0.14150000 0.14148400 10948.52515485 0 164.32215817 0 3187.20191602 0 363.81334166 0 1800.43752179 0 21771
0.14250000 0.14249400 10894.48113741 0 -40.66577025 0 2996.48112102 0 191.12050593 0 1404.93407926 0 22470
0.14350000 0.14350900 10974.98801117 0 -28.09934592 0 3235.96443452 0 -63.97711076 0 1603.37228466 0 22519
0.14450000 0.14449900 11094.91236128 0 -0.68155585 0 3105.99748580 0 -223.47494628 0 1005.70258498 0 22218
0.14550000 0.14550500 11092.91934281 0 34.40536708 0 3315.84018576 0 -538.13934530 0 1015.76622100 0 23559
0.14650000 0.14650700 10893.94966582 0 285.37699264 0 3317.75569796 0 -235.57810454 0 1102.78362175 0 23044
0.14750000 0.14750500 10982.12966067 0 26.51644637 0 3576.74844779 0 -61.61040133 0 619.28177050 0 23649
0.14850000 0.14849900 10969.68436758 0 5.07419180 0 3552.42255016 0 380.57573420 0 467.95077104 0 23640
0.14950000 0.14949500 10683.91873633 0 320.08208755 0 3425.89909446 0 -41.25537155 0 233.40792887 0 24457
0.15050000 0.15050000 10547.27517575 0 341.67090649 0 3411.27255338 0 -133.83340455 0 736.35610420 0 24591
0.15150000 0.15149900 10209.07101416 0 236.19815473 0 3375.06605122 0 190.83483995 0 609.24470805 0 25020
0.15250000 0.15250500 9979.55279299 0 112.13054067 0 3226.76333260 0 381.45709126 0 613.88954832 0 25297
0.15350000 0.15350100 10019.41316234 0 83.17563621 0 3097.58251894 0 410.37468199 0 280.53506500 0 25452
0.15450000 0.15450400 9819.82343516 0 143.04336433 0 3015.00512044 0 252.18769900 0 497.44965882 0 26061
0.15550000 0.15549900 9633.47620846 0 255.34331157 0 2826.43235646 0 32.19599538 0 776.02160063 0 26128
0.15650000 0.15649500 9492.47015190 0 179.00406088 0 3062.09571790 0 95.60897119 0 1019.44112561 0 26331
0.15750000 0.15749700 9326.15276080 0 119.59107313 0 2878.26190893 0 245.35607459 0 1601.01387948 0 27345
0.15850000 0.15849900 9368.68156043 0 42.73396981 0 3159.14464493 0 413.88793065 0 1437.12132751 0 26980
0.15950000 0.15949700 9432.60209160 0 39.67822960 0 3186.98046953 0 128.95383100 0 1423.54665728 0 27777
0.16050000 0.16050000 9240.63012390 0 214.45985941 0 3158.71282426 0 -75.08209893 0 1504.46320706 0 28224
0.16150000 0.16150500 9075.82964130 0 251.28751899 0 3097.08426432 0 -106.11406081 0 1591.66883733 0 28075
0.16250000 0.16249700 8965.79287725 0 15.00466098 0 3179.42914400 0 -74.32530553 0 1529.92955414 0 28590
0.16350000 0.16349900 9092.70386432 0 -17.90129187 0 3004.51962884 0 141.46112912 0 929.14963841 0 29163
0.16450000 0.16449100 8911.73778748 0 164.47384902 0 2842.43186582 0 129.90826540 0 741.33422144 0 28996
0.16550000 0.16550500 8889.74815039 0 289.86571312 0 2801.45319166 0 -230.52137379 0 610.80701309 0 30777
0.16650000 0.16650700 8505.62705779 0 164.93667220 0 2774.00489844 0 -30.57091027 0 697.79341133 0 29211
0.16750000 0.16749900 8566.73521846 0 -13.49694251 0 2707.81454067 0 160.16117850 0 355.28543708 0 30922
0.16850000 0.16850800 8571.86170485 0 -72.80673618 0 2522.95100550 0 257.64192621 0 151.50262049 0 30867
0.16950000 0.16949900 8558.99566341 0 -53.55240622 0 2216.93409216 0 222.43968391 0 -203.70309585 0 30852
0.17050000 0.17049200 8595.46790136 0 39.60758817 0 2235.39165764 0 284.35833876 0 40.38231874 0 31257
0.17150000 0.17149500 8454.25147063 0 131.18268999 0 1966.32309222 0 -41.44094371 0 -17.91136769 0 32608
0.17250000 0.17250900 8369.01671417 0 194.85852279 0 1865.91925076 0 228.16407584 0 99.37023993 0 32361
0.17350000 0.17350400 8240.72168650 0 209.34998151 0 1877.81092762 0 228.54828551 0 198.68401101 0 32508
0.17450000 0.17449800 8092.76220995 0 134.77565939 0 2040.29729433 0 25.72964697 0 427.76598258 0 32791
0.17550000 0.17549800 8028.05554371 0 237.56226515 0 2180.45078189 0 -117.46740123 0 698.42564107 0 33633
0.17650000 0.17650100 7860.15481016 0 115.31383406 0 2282.11686837 0 58.09848134 0 1004.58428017 0 33984
0.17750000 0.17750300 7914.80780546 0 -90.23579340 0 2334.30073524 0 90.98184665 0 1200.07392547 0 34069
0.17850000 0.17849800 8079.02145485 0 -144.30228766 0 2350.49954645 0 357.94500950 0 1113.99767233 0 34536
