### header ###
fiducial parameters:
Omega_m = 0.31
Omega_nu = 0
Omega_de = 0.69
Omega_k = 0
H_0 = 100
w_de = -1
zeff = 0
beta = 0
fgrowth = 0
b_1 = 2
gamma = 0.55
Lx = 3500 Ly = 3500 Lz = 3500
nx = 700 ny = 700 nz = 700
xoffset = -685.467585 yoffset = -31.7331281 zoffset = 572.489161
bins = 400 dk = 0.001
kx_ny = 0.628318531 ky_ny = 0.628318531 kz_ny = 0.628318531
############################
A(data) = 8.02076454 (not used)
A(ran) = 8.01078099 (used)
Ngal = 476543
weighted Ngal = 0
Nran = 23820508
weighted Nran = 0
SN(data) = 3496.98715
SN(ran) = 69.7768077
SN(data+ran) = 3566.76396
############################
13 columns: k_central k_mean P_0(k) sigma^{lin}_{P_0(k)} P^img_1(k) sigma^{lin}_{P_1(k)} P_2(k) sigma^{lin}_{P_2(k)} P^img_3(k) sigma^{lin}_{P_3(k)} P_4(k) sigma^{lin}_{P_4(k)} N_modes
### header ###
0.00050000 0 0 0 0 0 0 0 0 0 0 0 0
0.00150000 0.00179520 5897.67381465 0 -369.48237197 0 22184.39928339 0 -25548.28228654 0 24191.47960327 0 3
0.00250000 0.00253879 27974.56082405 0 -31012.58530779 0 -11496.06268946 0 11259.00421509 0 -34924.21621973 0 6
0.00350000 0.00331552 38113.93155348 0 -34988.43570367 0 -28168.21578513 0 50332.02054436 0 20193.81672750 0 7
0.00450000 0.00420575 76345.11902679 0 -46558.12935317 0 -36380.00548688 0 8364.44384402 0 -36340.36656403 0 24
0.00550000 0.00557378 97017.70307945 0 -14336.00328219 0 -7155.93280704 0 -27238.69411661 0 -15763.66884431 0 45
0.00650000 0.00659388 119194.68390521 0 28543.78904298 0 -29513.61397385 0 -27954.29846964 0 19750.03794876 0 40
0.00750000 0.00754703 73976.41657834 0 28779.18666863 0 -7273.22194385 0 -19949.45051875 0 37015.55693147 0 57
0.00850000 0.00846663 63231.38968133 0 11737.10720076 0 -21999.93435191 0 13620.06675942 0 30505.02993811 0 75
0.00950000 0.00948925 70924.44096533 0 -13665.13112143 0 -24609.90275816 0 25305.02331028 0 -6788.89631163 0 112
0.01050000 0.01054430 71021.76670048 0 -17814.59557046 0 -15564.03482783 0 1503.07916646 0 -14743.90772851 0 105
0.01150000 0.01145670 80244.23821168 0 -3858.21801701 0 -25142.59230519 0 -6026.26779510 0 42.04394252 0 144
0.01250000 0.01249090 85659.38011073 0 3576.67094152 0 -21085.69249164 0 -10633.52858608 0 -14781.88580264 0 169
0.01350000 0.01339930 77994.00963879 0 -225.86103228 0 -26368.40938586 0 -20342.40732656 0 -1715.82281552 0 180
0.01450000 0.01448870 84923.95629628 0 4501.02183435 0 1195.36818742 0 -24466.51615176 0 -8318.56012998 0 267
0.01550000 0.01550050 78319.64671170 0 5321.11571670 0 9269.29637285 0 -25375.22184963 0 15229.53989506 0 238
0.01650000 0.01653350 82284.75695251 0 6926.30386263 0 32057.70204743 0 6295.15920332 0 3213.41010887 0 315
0.01750000 0.01747870 71081.66797775 0 4968.25179705 0 32879.15782572 0 -5571.81529524 0 3714.83141060 0 297
0.01850000 0.01844180 77400.86519825 0 4521.26204412 0 27883.43559080 0 14346.52199077 0 -2510.51678473 0 388
0.01950000 0.01947590 76055.68845603 0 -2095.43747193 0 46862.72900894 0 10544.14170782 0 8954.89770963 0 399
0.02050000 0.02045430 75411.38987484 0 524.22696917 0 41114.31013284 0 9018.03210574 0 9398.56576511 0 462
0.02150000 0.02154770 71209.55332941 0 6249.09833207 0 36511.21253598 0 2603.12570951 0 4376.20351667 0 571
0.02250000 0.02255340 70720.26729567 0 1800.91363175 0 38566.67891532 0 -3940.39681181 0 -349.61640678 0 510
0.02350000 0.02348930 66191.79716809 0 3977.94306527 0 39154.17647019 0 1325.01403872 0 -3583.51363826 0 555
0.02450000 0.02439640 67136.37719837 0 621.80515333 0 31581.03846398 0 -4267.36256370 0 -4374.45408935 0 592
0.02550000 0.02547300 65393.26110217 0 318.91506452 0 38621.81909291 0 -8003.27568076 0 -18380.61281519 0 837
0.02650000 0.02652900 68843.61896216 0 5310.92917786 0 47707.65811585 0 -12172.91390562 0 -18040.24955027 0 723
0.02750000 0.02749970 64814.73213040 0 5383.84043679 0 45635.47252604 0 3634.53491102 0 -7188.31935714 0 826
0.02850000 0.02848090 60735.13405097 0 1166.35869640 0 43869.99033370 0 12998.79861384 0 -6097.75072412 0 831
0.02950000 0.02946900 59071.40652372 0 -1839.52282840 0 29584.58757593 0 24619.75712725 0 -12814.44440561 0 996
0.03050000 0.03053250 64199.88593322 0 -5539.62804699 0 31543.83545259 0 15628.14358853 0 -17853.23798408 0 1041
0.03150000 0.03150510 58991.35361528 0 1639.02517058 0 18961.68842168 0 7406.92026603 0 -13971.39162591 0 1036
0.03250000 0.03246190 60233.66845993 0 6287.85146894 0 23349.42930081 0 -2739.04956899 0 -8709.59035327 0 1059
0.03350000 0.03345080 55347.67296396 0 4199.36741699 0 19169.62668177 0 -4160.11602551 0 -2352.20468447 0 1302
0.03450000 0.03451200 52473.40816429 0 2504.23877656 0 20097.70894807 0 -2706.53015099 0 -1640.57529605 0 1339
0.03550000 0.03553350 53422.86001749 0 -421.98955072 0 25072.72593558 0 871.82821283 0 -3532.64737804 0 1365
0.03650000 0.03647120 53281.57715280 0 92.92481821 0 27363.47921731 0 -942.68666273 0 -4571.43074787 0 1308
0.03750000 0.03744890 53369.15924212 0 3969.71632793 0 29448.61942716 0 6135.50735176 0 1892.29352848 0 1579
0.03850000 0.03847530 51636.45113125 0 2474.93033276 0 30317.57547893 0 1206.14155947 0 7347.99335335 0 1662
0.03950000 0.03950240 47917.70011766 0 2716.18521824 0 31788.31238459 0 10441.27981026 0 11767.33464751 0 1683
0.04050000 0.04050350 49132.88776650 0 -712.99349884 0 28314.59191924 0 4859.56585663 0 14293.81772463 0 1822
0.04150000 0.04152450 46608.28698460 0 508.03701582 0 27598.87684296 0 10426.63112452 0 11256.78975012 0 1887
0.04250000 0.04250150 48062.63684953 0 1290.78948271 0 25449.96004215 0 6239.38790321 0 14866.25691776 0 1920
0.04350000 0.04349210 44926.84373764 0 1504.23068824 0 22906.09341507 0 2485.48225832 0 11620.95851341 0 2005
0.04450000 0.04448520 44709.82617120 0 1142.65284896 0 18197.80873244 0 1567.40937365 0 10511.86588098 0 2151
0.04550000 0.04548030 42347.87784088 0 1636.65569307 0 19431.48716373 0 -772.16621713 0 7664.06393762 0 2274
0.04650000 0.04648670 42059.99739560 0 654.43086564 0 19230.30302178 0 554.86187747 0 4248.34030967 0 2311
0.04750000 0.04749250 41659.06851392 0 138.66425987 0 19722.80002971 0 102.14119994 0 909.51840651 0 2568
0.04850000 0.04851840 40280.12118100 0 2102.16944542 0 16106.57874394 0 -164.28229780 0 -1168.73924623 0 2493
0.04950000 0.04949480 38980.89458678 0 1356.14941611 0 15980.13279451 0 4122.82443552 0 627.96800932 0 2644
0.05050000 0.05050630 38643.85301930 0 -996.97316409 0 13461.28962152 0 3798.18387184 0 503.80628050 0 2829
0.05150000 0.05149060 39408.50777128 0 -1184.97127442 0 14269.01571704 0 1986.72938686 0 -1950.22393193 0 2784
0.05250000 0.05249300 39451.46839157 0 1366.26952100 0 12534.97892719 0 -624.52340907 0 -2868.57362472 0 3055
0.05350000 0.05348950 37655.64802924 0 2787.47991774 0 15921.89236597 0 -1801.29009080 0 993.21964597 0 3009
0.05450000 0.05448610 36090.02129988 0 1480.66878102 0 15192.77977666 0 -700.81394154 0 3845.08623977 0 3336
0.05550000 0.05550870 36641.09090611 0 -668.01771542 0 18588.21890554 0 1129.11139571 0 4477.40456551 0 3349
0.05650000 0.05647670 37216.07673394 0 -655.68646727 0 18336.87713216 0 3222.63335544 0 4705.43909515 0 3324
0.05750000 0.05747970 37581.57417620 0 745.12206376 0 19726.12172716 0 1260.69490385 0 5335.19971386 0 3639
0.05850000 0.05849280 36584.06843329 0 1630.98666276 0 18322.81527964 0 693.82841181 0 3730.54303952 0 3846
0.05950000 0.05951020 35883.63316526 0 1737.64636774 0 18992.35876142 0 508.21306578 0 6953.78537283 0 3787
0.06050000 0.06049470 32928.42967117 0 901.61055212 0 16356.37039185 0 2447.84742626 0 7717.74256834 0 3930
0.06150000 0.06148310 32966.73991504 0 520.66832397 0 15730.56259310 0 4230.39207114 0 5818.93851287 0 4083
0.06250000 0.06249100 32372.70968852 0 336.67064460 0 12198.38025270 0 5737.57907010 0 4751.67712360 0 4303
0.06350000 0.06350600 32000.01523512 0 -426.76504442 0 9897.75045723 0 3687.17274321 0 3316.52666990 0 4470
0.06450000 0.06451750 31444.18452923 0 -64.53471304 0 7923.68780997 0 2664.21172554 0 5228.17462217 0 4479
0.06550000 0.06550280 32548.31676014 0 20.56573612 0 8283.25048613 0 -2047.25071432 0 3139.54663000 0 4636
0.06650000 0.06648880 31519.47633799 0 738.62925249 0 8624.39988612 0 -1005.99600158 0 4308.89485410 0 4653
0.06750000 0.06749660 31169.81232022 0 1607.03722418 0 9677.82086936 0 -1271.14717848 0 6741.29638723 0 5220
0.06850000 0.06852730 29912.66056031 0 588.16410883 0 10325.74010077 0 -231.52674089 0 5039.32505006 0 5029
0.06950000 0.06949320 29312.65127839 0 593.30831094 0 11146.39867168 0 784.26051753 0 5932.19732344 0 5040
0.07050000 0.07048030 29930.15483352 0 -89.80552286 0 10784.09005897 0 1277.04872761 0 5392.62079037 0 5475
0.07150000 0.07148790 29086.77585209 0 887.74910868 0 11152.59917358 0 1145.16626669 0 5615.41811038 0 5509
0.07250000 0.07249820 28733.56869037 0 1001.49842324 0 12697.29920903 0 -1163.12557755 0 4774.36431715 0 5916
0.07350000 0.07351270 27672.72924950 0 1386.77546656 0 12616.58196110 0 -1220.82346218 0 6068.20976151 0 5721
0.07450000 0.07449140 26427.75704689 0 470.91372516 0 12928.60007449 0 -394.48146694 0 5530.18335392 0 6028
0.07550000 0.07549160 26631.59854680 0 264.05390951 0 13411.24271334 0 1556.79101415 0 4558.38754924 0 6183
0.07650000 0.07648840 26460.75257485 0 -145.04856236 0 12964.25296041 0 1214.33507984 0 2877.77472664 0 6330
0.07750000 0.07749960 26206.97489001 0 651.15345749 0 11850.93069989 0 831.25367853 0 2518.15668886 0 6583
0.07850000 0.07848650 25500.22839683 0 1170.48867355 0 11693.81441072 0 -279.18756307 0 2689.51198775 0 6549
0.07950000 0.07947320 24738.67389581 0 937.92002690 0 10481.19554123 0 111.65664517 0 2398.84131661 0 6828
0.08050000 0.08048110 24510.14111155 0 -171.31211683 0 9489.51384117 0 -62.87463938 0 1628.10785831 0 7147
0.08150000 0.08149960 23992.84209602 0 -283.47698170 0 10052.82943864 0 1743.34861502 0 1608.11123969 0 7386
0.08250000 0.08250610 24119.84166169 0 601.87386142 0 9456.14185417 0 696.41822858 0 1499.82390296 0 7227
0.08350000 0.08350160 23541.64485966 0 841.43800290 0 9023.16966446 0 1578.04987780 0 901.60723043 0 7798
0.08450000 0.08449610 23129.42220666 0 685.00819786 0 8839.44657874 0 473.29538223 0 1203.17417642 0 7371
0.08550000 0.08548940 22271.53847971 0 350.97498103 0 8921.79145842 0 -92.35935458 0 1819.13867840 0 8256
0.08650000 0.08650700 21942.57970935 0 648.31562064 0 9246.75311952 0 103.40200557 0 811.99226227 0 8037
0.08750000 0.08749060 21313.33948991 0 469.12333024 0 9493.24521464 0 266.51639455 0 1402.76390360 0 8155
0.08850000 0.08849210 21457.94405204 0 94.88938080 0 9005.49823405 0 417.36574788 0 1034.14628020 0 8718
0.08950000 0.08949900 21489.50017777 0 -496.74324450 0 8568.98290040 0 1255.56841746 0 268.66110386 0 8571
0.09050000 0.09049190 21396.16047955 0 -197.03312738 0 8069.00100089 0 854.24536101 0 -625.57860163 0 8932
0.09150000 0.09150830 21480.64231792 0 960.74230282 0 8295.40789878 0 17.91856470 0 29.82219967 0 9285
0.09250000 0.09250820 20786.40755179 0 893.63294209 0 7606.06710022 0 -159.88104868 0 185.00304646 0 9204
0.09350000 0.09350330 20008.79817978 0 546.33950906 0 7303.42724595 0 434.29201083 0 762.40707004 0 9349
0.09450000 0.09448040 19688.36509952 0 306.04680861 0 6959.70906661 0 416.37145311 0 660.18183115 0 9564
0.09550000 0.09549270 19535.89918677 0 -29.36923086 0 6674.17595418 0 1399.78544822 0 361.56898142 0 10155
0.09650000 0.09649430 19656.69825054 0 -184.56458240 0 6394.63296949 0 865.20585535 0 248.31349255 0 9913
0.09750000 0.09749140 19302.49457959 0 381.46484188 0 5713.69606547 0 607.64475712 0 507.44575367 0 10476
0.09850000 0.09850240 19072.52239311 0 314.82937666 0 5475.30891212 0 581.17082848 0 216.24471817 0 10575
0.09950000 0.09950330 18660.07829362 0 798.61467943 0 5786.14228675 0 -779.00891387 0 534.91286985 0 10882
0.10050000 0.10051200 17923.43652343 0 827.65960189 0 5707.91631191 0 -245.25420920 0 608.43532111 0 10875
0.10150000 0.10150300 17760.56262535 0 456.26614666 0 6653.09424773 0 -516.19399751 0 886.92975665 0 11118
0.10250000 0.10250800 17161.99274565 0 244.03403900 0 6716.22864384 0 246.01930684 0 1072.08560119 0 11575
0.10350000 0.10349800 17294.30702724 0 128.44007513 0 7119.93667906 0 425.21934787 0 417.54290507 0 11364
0.10450000 0.10450100 16875.66242584 0 22.28438238 0 6800.71048221 0 919.88653147 0 243.61993405 0 12093
0.10550000 0.10551000 17109.95281901 0 -57.72700484 0 6466.20447711 0 371.68797907 0 691.86971755 0 12067
0.10650000 0.10649700 16783.98357635 0 157.30894763 0 6489.68887806 0 263.57558508 0 -7.06433146 0 12054
0.10750000 0.10749900 16788.08033653 0 339.90487068 0 5978.57929210 0 -62.94993118 0 1038.40469633 0 12807
0.10850000 0.10850100 16226.71346822 0 403.32382554 0 5617.34469489 0 -1.20804600 0 399.44740462 0 12736
0.10950000 0.10950300 16007.92432981 0 244.55333104 0 4837.03367562 0 570.96214499 0 213.70251239 0 12933
0.11050000 0.11050200 15633.90119743 0 462.35924701 0 5713.90643964 0 448.36050674 0 -6.22761802 0 13428
0.11150000 0.11150900 15306.04965955 0 597.81696161 0 5029.81392304 0 29.42968575 0 -395.22774163 0 13453
0.11250000 0.11250000 14560.32858302 0 434.22779134 0 5505.80209467 0 613.71017665 0 857.37661447 0 13668
0.11350000 0.11349100 14313.19429306 0 526.36724955 0 5191.49201004 0 194.32483673 0 475.70029118 0 13791
0.11450000 0.11448600 14122.52885969 0 194.41562979 0 5416.19376991 0 302.71293161 0 1446.69888848 0 14205
0.11550000 0.11549300 14200.69947291 0 -28.45819997 0 5451.11588239 0 38.96816141 0 1164.97465579 0 14776
0.11650000 0.11649800 14072.14978176 0 45.84994346 0 5464.67948029 0 195.94693232 0 1948.18662417 0 14553
0.11750000 0.11747300 14183.09447645 0 113.99512017 0 5673.72497287 0 25.89706052 0 1948.15340719 0 14568
0.11850000 0.11849100 14289.38879470 0 -32.85424509 0 5540.48061600 0 139.84346246 0 1648.70238247 0 16015
0.11950000 0.11950300 14161.61416630 0 190.43180732 0 5757.50925477 0 -217.70294335 0 2019.27094950 0 15270
0.12050000 0.12050700 13938.39609795 0 331.38250226 0 5611.87496643 0 454.18454960 0 2069.12962816 0 15999
0.12150000 0.12150000 13807.74266509 0 288.62007658 0 5843.19797654 0 542.80300851 0 1809.48361116 0 15670
0.12250000 0.12250700 13602.68320945 0 -33.98749754 0 5284.22273040 0 635.06094060 0 1580.13147487 0 16887
0.12350000 0.12352200 13455.31056612 0 288.25247540 0 5239.06978979 0 82.15598581 0 1131.15977580 0 16407
0.12450000 0.12449800 13423.75444038 0 276.70514785 0 5082.59569545 0 -105.50906898 0 974.88498331 0 16306
0.12550000 0.12549900 13054.60313093 0 177.60341179 0 5355.83852733 0 -540.78784540 0 1089.58762503 0 17523
0.12650000 0.12650100 13078.51935254 0 83.25436044 0 4969.64690998 0 59.13717613 0 1106.58696533 0 17154
0.12750000 0.12750600 12970.56418556 0 -13.11350790 0 4849.97722334 0 -55.64640429 0 406.15501900 0 18007
0.12850000 0.12850300 13011.53178738 0 62.22701910 0 4903.26832269 0 424.04900314 0 532.34187603 0 17496
0.12950000 0.12949900 13071.43306465 0 65.28884908 0 4727.34015365 0 343.98170068 0 153.62629239 0 18405
0.13050000 0.13049000 12670.61490622 0 168.93156699 0 4419.78418716 0 532.68179640 0 628.81725664 0 18100
0.13150000 0.13148800 12719.44385867 0 92.73238120 0 4319.41356268 0 256.63545188 0 177.95329725 0 19059
0.13250000 0.13249300 12606.50614552 0 309.44601233 0 4531.50394458 0 744.39461202 0 674.44741445 0 18957
0.13350000 0.13349100 12535.97543642 0 105.35350282 0 4657.89453238 0 -190.15278474 0 743.98715047 0 19468
0.13450000 0.13450700 12221.96430457 0 323.31520640 0 4457.71797199 0 19.23583918 0 1279.08603537 0 19953
0.13550000 0.13551000 12236.57977333 0 151.64766795 0 4831.92933388 0 -238.93855512 0 1512.08096653 0 19956
0.13650000 0.13649900 12178.89296102 0 -119.74497845 0 4738.01387477 0 333.03670759 0 1454.82597490 0 19723
0.13750000 0.13749600 12226.83612749 0 14.23336283 0 4672.31069930 0 435.79341807 0 1472.44204368 0 20946
0.13850000 0.13851100 12132.38919678 0 51.16576660 0 4411.76782399 0 606.73239755 0 1315.87937075 0 20955
0.13950000 0.13949800 12085.55326280 0 -0.21002761 0 4145.62235232 0 584.38844607 0 1146.31778847 0 20506
0.14050000 0.14048300 11895.88433866 0 126.21121614 0 3525.72717503 0 294.55373545 0 1003.62320237 0 21447
0.14150000 0.14148400 11912.16065614 0 217.96425022 0 3703.70372416 0 84.92938174 0 528.54849754 0 21771
0.14250000 0.14249400 11626.71612232 0 170.28460508 0 3458.54030803 0 -219.88419134 0 675.27119541 0 22470
0.14350000 0.14350900 11494.18039424 0 303.85891723 0 3481.73682852 0 -399.61238226 0 555.10103969 0 22519
0.14450000 0.14449900 11279.59873925 0 304.73030919 0 3529.99002008 0 -168.82527267 0 326.33795108 0 22218
0.14550000 0.14550500 11086.71884091 0 188.07118767 0 3607.49629381 0 245.21434883 0 334.15390517 0 23559
0.14650000 0.14650700 10980.53524590 0 28.86532936 0 3259.86958381 0 549.64681248 0 308.49932856 0 23044
0.14750000 0.14750500 10912.20792944 0 96.91163021 0 3426.95096532 0 396.79779729 0 241.73431714 0 23649
0.14850000 0.14849900 10729.08274927 0 272.87965962 0 3321.06632308 0 277.63190143 0 264.87436878 0 23640
0.14950000 0.14949500 10538.18479707 0 232.48449698 0 3399.13728538 0 107.39103203 0 443.33256404 0 24457
0.15050000 0.15050000 10444.70115863 0 142.25058588 0 3022.80003711 0 -85.17706964 0 404.26718762 0 24591
0.15150000 0.15149900 10261.28809801 0 150.23705377 0 3336.72259037 0 12.21853188 0 212.36165386 0 25020
0.15250000 0.15250500 10190.22591732 0 280.54724456 0 3137.45396061 0 -150.98222123 0 -3.25700185 0 25297
0.15350000 0.15350100 9961.25024007 0 202.39102536 0 3319.37225738 0 -242.03437714 0 -125.90894168 0 25452
0.15450000 0.15450400 9781.25852782 0 126.35847806 0 3233.47316144 0 -14.45846319 0 -387.15712407 0 26061
0.15550000 0.15549900 9631.80428742 0 210.44614167 0 3064.68664190 0 6.55724113 0 -398.72106011 0 26128
0.15650000 0.15649500 9513.17539931 0 171.60664067 0 3296.66291918 0 208.59817065 0 -423.41788062 0 26331
0.15750000 0.15749700 9474.66585359 0 30.74928542 0 2939.86832422 0 220.49427644 0 -109.52843362 0 27345
0.15850000 0.15849900 9481.99573262 0 80.48218247 0 3020.35305333 0 460.32193924 0 2.53309326 0 26980
0.15950000 0.15949700 9387.47129564 0 38.56490734 0 2647.73610621 0 236.77502285 0 171.95874060 0 27777
0.16050000 0.16050000 9297.44222254 0 122.64371309 0 3017.52961050 0 328.36307929 0 388.43154866 0 28224
0.16150000 0.16150500 9163.55567084 0 131.71194711 0 2796.57029642 0 113.22780806 0 575.03676053 0 28075
0.16250000 0.16249700 9093.17997429 0 110.87493904 0 2766.18783712 0 415.83001642 0 760.29225600 0 28590
0.16350000 0.16349900 9101.05239723 0 -55.65160828 0 2668.79566801 0 29.42614261 0 783.61167930 0 29163
0.16450000 0.16449100 9067.70255488 0 47.02183832 0 2597.93278917 0 72.24448353 0 588.52728109 0 28996
0.16550000 0.16550500 9009.06352264 0 222.65670148 0 2679.10400242 0 -256.13387556 0 502.81309297 0 30777
0.16650000 0.16650700 8930.83754780 0 147.99380076 0 2724.12407513 0 -189.89922850 0 662.84029634 0 29211
0.16750000 0.16749900 8679.24111094 0 67.79495908 0 2650.62598299 0 134.81330529 0 324.31614457 0 30922
0.16850000 0.16850800 8623.00477319 0 57.04539253 0 2442.47734872 0 345.22733722 0 353.26473780 0 30867
0.16950000 0.16949900 8581.33961490 0 151.64877518 0 2317.10541480 0 426.62885482 0 119.95313816 0 30852
0.17050000 0.17049200 8524.10676791 0 110.52483213 0 2126.55070467 0 271.00179333 0 466.61655590 0 31257
0.17150000 0.17149500 8398.26979634 0 181.35471544 0 2206.62575776 0 -45.50160812 0 392.09759541 0 32608
0.17250000 0.17250900 8350.73630590 0 223.82926067 0 2258.48852721 0 -270.27987775 0 350.78453704 0 32361
0.17350000 0.17350400 8094.68879447 0 157.99211007 0 2385.90884122 0 -205.06056287 0 496.54615712 0 32508
0.17450000 0.17449800 8028.62023227 0 143.17623223 0 2596.53767625 0 -162.04679542 0 303.56217893 0 32791
0.17550000 0.17549800 7863.60937550 0 139.17801574 0 2705.46720781 0 27.10316886 0 465.95553811 0 33633
0.17650000 0.17650100 7966.19446495 0 48.68279776 0 2459.44015034 0 356.11253975 0 219.20435060 0 33984
0.17750000 0.17750300 7740.46297887 0 11.56415749 0 2212.50516224 0 310.68168378 0 283.30757513 0 34069
0.17850000 0.17849800 7799.02450483 0 1.03558900 0 2029.19175254 0 231.10488531 0 200.88408195 0 34536
