### header ###
fiducial parameters:
Omega_m = 0.31
Omega_nu = 0
Omega_de = 0.69
Omega_k = 0
H_0 = 100
w_de = -1
zeff = 0
beta = 0
fgrowth = 0
b_1 = 2
gamma = 0.55
Lx = 3500 Ly = 3500 Lz = 3500
nx = 700 ny = 700 nz = 700
xoffset = -685.467585 yoffset = -31.7331281 zoffset = 572.489161
bins = 400 dk = 0.001
kx_ny = 0.628318531 ky_ny = 0.628318531 kz_ny = 0.628318531
############################
A(data) = 8.03317477 (not used)
A(ran) = 8.02721578 (used)
Ngal = 477490
weighted Ngal = 0
Nran = 23820508
weighted Nran = 0
SN(data) = 3490.17233
SN(ran) = 69.9199606
SN(data+ran) = 3560.09229
############################
13 columns: k_central k_mean P_0(k) sigma^{lin}_{P_0(k)} P^img_1(k) sigma^{lin}_{P_1(k)} P_2(k) sigma^{lin}_{P_2(k)} P^img_3(k) sigma^{lin}_{P_3(k)} P_4(k) sigma^{lin}_{P_4(k)} N_modes
### header ###
0.00050000 0 0 0 0 0 0 0 0 0 0 0 0
0.00150000 0.00179520 35986.27361633 0 -27665.20006862 0 25250.54747217 0 -27968.47104540 0 -99347.32022129 0 3
0.00250000 0.00253879 65035.40356403 0 -26214.61479413 0 15661.02839324 0 -19197.41821707 0 56699.16093132 0 6
0.00350000 0.00331552 62554.31701867 0 1732.94062969 0 23560.46781185 0 -26554.86733581 0 58327.12484941 0 7
0.00450000 0.00420575 58661.84122868 0 25199.06116176 0 30342.04531678 0 -21035.42413696 0 51079.95608586 0 24
0.00550000 0.00557378 56753.85821593 0 -7027.93673214 0 44671.07303433 0 34396.39849562 0 24253.15245251 0 45
0.00650000 0.00659388 47085.61490753 0 579.07483739 0 51638.66559621 0 16539.94953734 0 -2632.76632305 0 40
0.00750000 0.00754703 61202.05398857 0 9473.16001741 0 32614.63998580 0 61399.58426334 0 -11573.67968643 0 57
0.00850000 0.00846663 63657.67418685 0 -6856.02781701 0 47761.35889122 0 6660.80058580 0 -21285.54795461 0 75
0.00950000 0.00948925 58004.58802744 0 -5189.20003881 0 17485.85824660 0 4786.12312611 0 -33176.33902385 0 112
0.01050000 0.01054430 76288.20727722 0 -9821.72787503 0 16185.96731289 0 -9462.37557304 0 -34132.76644169 0 105
0.01150000 0.01145670 79035.36178798 0 -2424.97200318 0 15483.53902640 0 -31597.42550472 0 -41532.17967149 0 144
0.01250000 0.01249090 85923.67650416 0 -4029.80583472 0 12550.25873544 0 -27946.99073526 0 -38218.12213003 0 169
0.01350000 0.01339930 76424.06470275 0 -4511.31909643 0 15434.82079719 0 -23403.13007618 0 -57874.93110382 0 180
0.01450000 0.01448870 95548.29485276 0 42.19596554 0 33487.24990476 0 -15553.51611925 0 -64169.76920971 0 267
0.01550000 0.01550050 82857.41759213 0 2126.05245005 0 28802.10638100 0 -21072.62714835 0 -50963.69667527 0 238
0.01650000 0.01653350 86728.52379522 0 10936.20165733 0 34979.13495083 0 200.97819671 0 -51125.46334087 0 315
0.01750000 0.01747870 80898.72333171 0 3047.94528678 0 44972.01882290 0 -3226.81869422 0 -32902.96332408 0 297
0.01850000 0.01844180 80708.83296107 0 4694.18961314 0 40224.53811041 0 604.28319930 0 -45479.68491584 0 388
0.01950000 0.01947590 74900.40208446 0 6542.11633607 0 39453.46141004 0 3732.07102035 0 -31115.89009835 0 399
0.02050000 0.02045430 75644.24086577 0 4871.53503976 0 36599.34824154 0 15829.99206997 0 -16737.03691911 0 462
0.02150000 0.02154770 68645.31362466 0 161.76666560 0 21591.03339636 0 15231.97580652 0 -20927.24752348 0 571
0.02250000 0.02255340 69991.92976910 0 1373.44438748 0 26894.78770774 0 10820.80588807 0 -24790.04948296 0 510
0.02350000 0.02348930 66174.63506463 0 4158.11193472 0 16456.57493146 0 2915.16596755 0 -23538.98750170 0 555
0.02450000 0.02439640 61702.52307037 0 5320.91641485 0 17508.55651248 0 7122.17328867 0 -7938.43614663 0 592
0.02550000 0.02547300 57090.56761366 0 2375.78873634 0 12684.12314250 0 29.94543464 0 -1456.96293359 0 837
0.02650000 0.02652900 58937.98500965 0 -1906.89792492 0 18662.29275858 0 7840.80038638 0 -2590.28181272 0 723
0.02750000 0.02749970 57736.74849008 0 537.37314042 0 17887.11929803 0 174.37915080 0 -3805.42517227 0 826
0.02850000 0.02848090 54272.66094732 0 4952.86126555 0 14943.98463798 0 -127.89310228 0 -5470.53674012 0 831
0.02950000 0.02946900 52131.93766688 0 2651.45640735 0 13835.09130739 0 -1480.04873083 0 -1161.21006536 0 996
0.03050000 0.03053250 49415.34277263 0 2042.61141022 0 14827.50378089 0 6657.92178135 0 -1766.82194364 0 1041
0.03150000 0.03150510 50041.26129462 0 -1442.52462202 0 13405.37438118 0 -1427.55483887 0 -12242.22665898 0 1036
0.03250000 0.03246190 48143.24337421 0 269.33319398 0 18151.08352170 0 349.88214257 0 -7775.86120131 0 1059
0.03350000 0.03345080 49827.34397913 0 1322.65563354 0 10065.58475684 0 -3263.85562074 0 -8978.81393124 0 1302
0.03450000 0.03451200 49176.51272629 0 36.22587873 0 18995.23756588 0 -5977.17310685 0 -5941.74166743 0 1339
0.03550000 0.03553350 49007.88121930 0 1714.09553285 0 17898.19162285 0 -3734.98304177 0 -7724.79563925 0 1365
0.03650000 0.03647120 47712.75138526 0 2982.98395707 0 21986.31539239 0 -2153.86613000 0 -5629.86749426 0 1308
0.03750000 0.03744890 46771.49305243 0 2781.22405422 0 20183.74091191 0 1075.88562307 0 -5979.46507809 0 1579
0.03850000 0.03847530 42656.90642657 0 2136.43829073 0 20776.11028971 0 3498.48925597 0 -8589.11238692 0 1662
0.03950000 0.03950240 43519.55125319 0 922.37780455 0 18363.11854198 0 3998.38257689 0 -5079.82761425 0 1683
0.04050000 0.04050350 41304.97556622 0 47.00733357 0 20306.09010116 0 4671.46920261 0 -6731.78526022 0 1822
0.04150000 0.04152450 40460.93224529 0 1677.04753401 0 16084.98771054 0 1523.37473785 0 -5137.51442655 0 1887
0.04250000 0.04250150 41771.45261083 0 1014.58923287 0 18069.48048779 0 513.98617594 0 -875.13883795 0 1920
0.04350000 0.04349210 39471.62002274 0 116.55836337 0 15694.57753744 0 -2319.97314693 0 1687.15656657 0 2005
0.04450000 0.04448520 39431.42748365 0 841.17669603 0 19762.77112231 0 -800.58776771 0 4169.40570603 0 2151
0.04550000 0.04548030 40924.08759245 0 -1153.51479961 0 19144.27105794 0 2826.17769299 0 2778.34524977 0 2274
0.04650000 0.04648670 42378.76962713 0 -896.72765688 0 21432.58842821 0 1135.98730942 0 559.28527124 0 2311
0.04750000 0.04749250 42602.09841872 0 1191.75860953 0 19550.07176254 0 3087.90530705 0 -2134.93245456 0 2568
0.04850000 0.04851840 40361.72421492 0 1535.77574165 0 20725.17759554 0 854.27525629 0 2347.42144015 0 2493
0.04950000 0.04949480 40453.07089467 0 1466.66229013 0 17540.88770095 0 2319.44167533 0 2242.10148648 0 2644
0.05050000 0.05050630 39244.63736396 0 481.64612961 0 17420.19936042 0 3819.56453106 0 3196.89020024 0 2829
0.05150000 0.05149060 38313.12267697 0 746.28244340 0 15678.96555944 0 4015.84363312 0 6236.68625595 0 2784
0.05250000 0.05249300 37103.47119053 0 675.60115069 0 14238.56682379 0 3982.21698265 0 5766.41140393 0 3055
0.05350000 0.05348950 37417.37159914 0 193.99820315 0 11744.96855138 0 1646.84223190 0 1645.10387690 0 3009
0.05450000 0.05448610 36207.49866621 0 -163.89919536 0 12509.84474985 0 580.36587046 0 2766.77467033 0 3336
0.05550000 0.05550870 34998.73296576 0 2422.41429615 0 12156.96975788 0 -2133.00587004 0 1213.12819643 0 3349
0.05650000 0.05647670 34430.83342581 0 1665.22229110 0 12336.89503618 0 -2886.07897025 0 797.42661897 0 3324
0.05750000 0.05747970 33732.28045300 0 47.68894589 0 13719.05334330 0 -458.56033236 0 -803.91721578 0 3639
0.05850000 0.05849280 34253.78695196 0 -319.01914437 0 12777.68428721 0 935.47636481 0 -429.33271654 0 3846
0.05950000 0.05951020 34110.95396180 0 578.88660787 0 14650.90020003 0 2756.22274478 0 -1620.06935049 0 3787
0.06050000 0.06049470 34452.09228946 0 1007.09659067 0 12297.92045282 0 2923.61415139 0 334.65215978 0 3930
0.06150000 0.06148310 32247.70314131 0 -61.67628166 0 10857.95353783 0 4052.45981130 0 3365.52170723 0 4083
0.06250000 0.06249100 32214.70761336 0 280.44316470 0 10123.38229239 0 4173.05957322 0 4417.33720337 0 4303
0.06350000 0.06350600 32352.55805735 0 152.67739416 0 7812.65453669 0 3180.37029161 0 3090.96126870 0 4470
0.06450000 0.06451750 30514.88430720 0 705.10889633 0 5621.14250231 0 737.39800997 0 525.89667575 0 4479
0.06550000 0.06550280 30427.96655737 0 1327.68246900 0 6076.76866859 0 -2836.85141411 0 662.05305404 0 4636
0.06650000 0.06648880 28947.92889886 0 808.20220549 0 5939.62685339 0 -2436.34328077 0 -4.07102810 0 4653
0.06750000 0.06749660 28737.55472731 0 71.73803539 0 7185.26339549 0 -747.91561131 0 283.54452289 0 5220
0.06850000 0.06852730 28940.17827149 0 227.69018034 0 6597.76584061 0 -461.04828375 0 -2282.38260417 0 5029
0.06950000 0.06949320 29379.74956679 0 622.80941319 0 7594.35258056 0 -742.91977836 0 -3541.83740764 0 5040
0.07050000 0.07048030 28641.55767113 0 989.86030262 0 10419.71092151 0 -2442.23375757 0 -3564.00420193 0 5475
0.07150000 0.07148790 27331.36947534 0 1896.88854328 0 10791.12098523 0 -2508.70092346 0 -364.51421982 0 5509
0.07250000 0.07249820 26621.74417771 0 913.81003961 0 13389.20878695 0 -1545.99549745 0 -1405.57627410 0 5916
0.07350000 0.07351270 26136.33345766 0 82.40777048 0 14237.34886806 0 1081.61665840 0 140.23985169 0 5721
0.07450000 0.07449140 27271.13602833 0 -737.65931684 0 14062.29541267 0 1798.56629889 0 -1385.92289755 0 6028
0.07550000 0.07549160 26797.24052609 0 -347.94780743 0 13167.54084408 0 1619.94755492 0 77.81264496 0 6183
0.07650000 0.07648840 27598.76611971 0 627.13094157 0 12603.40589457 0 1747.03569919 0 -1257.81609940 0 6330
0.07750000 0.07749960 26855.92384763 0 472.61997042 0 12289.28403946 0 615.42749423 0 842.60391870 0 6583
0.07850000 0.07848650 25998.81518342 0 635.92236747 0 11201.53884928 0 768.10821009 0 389.72922513 0 6549
0.07950000 0.07947320 25552.93266297 0 1012.95495773 0 11865.32472216 0 390.12893606 0 -130.97342305 0 6828
0.08050000 0.08048110 24545.01893473 0 831.09866598 0 10956.30899920 0 1366.22523170 0 -10.98545136 0 7147
0.08150000 0.08149960 23415.53107998 0 1022.44947626 0 10573.70481509 0 20.11841420 0 -171.47709447 0 7386
0.08250000 0.08250610 23127.20774170 0 553.98827105 0 10059.41747191 0 402.79789011 0 -153.17011261 0 7227
0.08350000 0.08350160 22264.56291508 0 403.64603019 0 8909.63404577 0 976.06086420 0 -1063.08269388 0 7798
0.08450000 0.08449610 22279.62127683 0 607.84184450 0 8935.54328584 0 686.66240319 0 -2.90504586 0 7371
0.08550000 0.08548940 21673.96510925 0 95.92630402 0 8438.18552732 0 820.09609681 0 -1162.47231038 0 8256
0.08650000 0.08650700 21534.01092354 0 -139.63973168 0 8337.21699729 0 786.85697770 0 -1186.13386852 0 8037
0.08750000 0.08749060 21283.00131991 0 437.58713469 0 8155.84124444 0 488.26959432 0 -1186.72070174 0 8155
0.08850000 0.08849210 20638.81346196 0 744.77771446 0 7858.50503376 0 401.44042309 0 -1239.76820994 0 8718
0.08950000 0.08949900 20497.86276702 0 431.94135627 0 7972.50569009 0 -474.70378195 0 -811.77413747 0 8571
0.09050000 0.09049190 19737.41549847 0 313.64131621 0 7145.71305124 0 263.91661268 0 -1077.04821718 0 8932
0.09150000 0.09150830 19651.38353463 0 127.80341645 0 7360.73759921 0 1024.26533753 0 -940.65599836 0 9285
0.09250000 0.09250820 19686.03991131 0 26.27141582 0 6974.59027116 0 374.16928706 0 -1697.58669655 0 9204
0.09350000 0.09350330 19206.82969316 0 433.47044433 0 6968.81051761 0 956.59793164 0 -872.67413844 0 9349
0.09450000 0.09448040 19108.72889527 0 563.33774212 0 7118.95124215 0 203.36981887 0 -1162.26193621 0 9564
0.09550000 0.09549270 18577.47875047 0 -93.76122163 0 6747.10935776 0 814.91092710 0 -620.37128726 0 10155
0.09650000 0.09649430 18958.14527773 0 -11.92201503 0 6803.84395013 0 797.78425507 0 870.99778846 0 9913
0.09750000 0.09749140 18714.88630147 0 297.84775209 0 6980.50289262 0 367.05088944 0 -15.51055550 0 10476
0.09850000 0.09850240 18426.00934695 0 608.88596473 0 6088.09565688 0 459.57898625 0 780.37080982 0 10575
0.09950000 0.09950330 18027.29493023 0 495.41124383 0 6387.36952441 0 614.54945887 0 1417.43473398 0 10882
0.10050000 0.10051200 17664.23339943 0 293.53175987 0 5418.48574115 0 889.36898980 0 2197.71253628 0 10875
0.10150000 0.10150300 17411.56294707 0 -31.78200116 0 5423.98868659 0 1063.83007581 0 1552.38422887 0 11118
0.10250000 0.10250800 17348.45069560 0 74.29817834 0 5050.91777415 0 694.29566392 0 1875.97292170 0 11575
0.10350000 0.10349800 17733.98904578 0 75.27951849 0 5432.62509994 0 -23.35241883 0 1330.29553766 0 11364
0.10450000 0.10450100 17043.18670035 0 519.30642802 0 5273.12826093 0 -1104.45222110 0 1370.56558303 0 12093
0.10550000 0.10551000 16944.75373271 0 627.10326075 0 6230.90650239 0 -1057.73476100 0 955.87823052 0 12067
0.10650000 0.10649700 16308.98084163 0 547.84313077 0 6281.41844822 0 -677.11252303 0 912.21783930 0 12054
0.10750000 0.10749900 15998.51285371 0 308.19041070 0 6139.43802707 0 426.85694471 0 470.28703158 0 12807
0.10850000 0.10850100 15709.30372945 0 57.14482201 0 6133.39253772 0 1053.82069417 0 77.65320348 0 12736
0.10950000 0.10950300 15372.04071547 0 228.38441510 0 5342.21956780 0 902.95916129 0 -799.19154755 0 12933
0.11050000 0.11050200 15255.67058163 0 146.06610901 0 4541.67941109 0 768.46252448 0 -672.06797184 0 13428
0.11150000 0.11150900 14928.26193674 0 218.59980166 0 4689.91569576 0 129.31146709 0 -677.31846827 0 13453
0.11250000 0.11250000 14580.59093743 0 597.68520094 0 4667.87069704 0 -265.01055837 0 -409.68266168 0 13668
0.11350000 0.11349100 14545.27022126 0 414.40832992 0 5012.12034798 0 -205.12367513 0 410.01150973 0 13791
0.11450000 0.11448600 14290.38530394 0 169.43867947 0 4642.14968649 0 -61.50787160 0 768.54888861 0 14205
0.11550000 0.11549300 14308.98680963 0 -169.72213098 0 5301.87201616 0 -13.85214269 0 587.05798358 0 14776
0.11650000 0.11649800 14498.87718027 0 -102.01165374 0 5063.19698237 0 336.52338268 0 402.23320155 0 14553
0.11750000 0.11747300 14523.01484838 0 -93.19132907 0 5203.77121827 0 568.40665243 0 428.85549934 0 14568
0.11850000 0.11849100 14463.66718735 0 132.69184786 0 4592.40173108 0 352.63140082 0 -341.41956471 0 16015
0.11950000 0.11950300 14321.27709018 0 308.90568288 0 4322.03770366 0 465.54475486 0 198.48360193 0 15270
0.12050000 0.12050700 14346.63271402 0 72.45441481 0 4094.76716443 0 282.73070701 0 -34.21470165 0 15999
0.12150000 0.12150000 14056.64852702 0 -127.84438405 0 3802.41349992 0 158.27666882 0 280.91152404 0 15670
0.12250000 0.12250700 14240.11694926 0 199.05714836 0 3816.08782107 0 119.26997571 0 -67.08710535 0 16887
0.12350000 0.12352200 14089.09043873 0 251.77802298 0 3911.59769496 0 -74.09356177 0 -89.51553868 0 16407
0.12450000 0.12449800 14120.64656447 0 94.39810175 0 3859.75707016 0 180.73466525 0 -74.54841288 0 16306
0.12550000 0.12549900 13746.62343209 0 149.17743228 0 4037.70040232 0 -44.75367258 0 188.81192620 0 17523
0.12650000 0.12650100 13785.26584571 0 278.41692926 0 4058.94819364 0 54.34773131 0 64.68562882 0 17154
0.12750000 0.12750600 13409.69258786 0 357.23305902 0 4194.92741474 0 15.88889684 0 284.36055322 0 18007
0.12850000 0.12850300 13202.97228350 0 343.88315699 0 4271.40396226 0 -4.09959470 0 -52.73537937 0 17496
0.12950000 0.12949900 13120.37274035 0 106.42807194 0 4274.74780436 0 -12.11976675 0 14.86669981 0 18405
0.13050000 0.13049000 12765.94762291 0 119.72172657 0 4099.16287738 0 147.17887765 0 -124.07536469 0 18100
0.13150000 0.13148800 12900.47636945 0 57.85732611 0 3754.39282718 0 66.61542432 0 -638.77792004 0 19059
0.13250000 0.13249300 12609.16350347 0 51.47889195 0 4002.81150681 0 498.53474666 0 -701.95549823 0 18957
0.13350000 0.13349100 12532.43229248 0 310.63960895 0 3238.84323898 0 182.28700519 0 -663.37619686 0 19468
0.13450000 0.13450700 12308.21771490 0 307.01895873 0 3181.36680084 0 505.18478494 0 -922.36562500 0 19953
0.13550000 0.13551000 12051.22905586 0 122.63817692 0 3127.37814503 0 353.10308186 0 -449.95381428 0 19956
0.13650000 0.13649900 11686.17450659 0 194.82752028 0 2665.79506799 0 114.38265154 0 -436.53747830 0 19723
0.13750000 0.13749600 11777.18901660 0 253.87401407 0 3025.41310577 0 258.88091935 0 -129.96805595 0 20946
0.13850000 0.13851100 11632.69517772 0 -43.73977979 0 3006.63444288 0 175.58824867 0 383.43793017 0 20955
0.13950000 0.13949800 11631.03432900 0 -57.12145940 0 3112.47479582 0 368.63644635 0 -74.55992810 0 20506
0.14050000 0.14048300 11736.77503101 0 97.31543789 0 2920.41424952 0 80.20913894 0 82.48804484 0 21447
0.14150000 0.14148400 11394.86164061 0 265.57635417 0 2752.14812925 0 5.94134306 0 93.06377589 0 21771
0.14250000 0.14249400 11421.98883642 0 49.96275851 0 2882.33652447 0 68.31768353 0 172.10821698 0 22470
0.14350000 0.14350900 11261.66157305 0 87.81925851 0 2804.91882933 0 -286.68352697 0 -257.89105351 0 22519
0.14450000 0.14449900 11308.27606053 0 281.33670132 0 3024.02906517 0 -352.48967507 0 -862.10117547 0 22218
0.14550000 0.14550500 11203.42114450 0 60.02927334 0 3102.23289536 0 -551.62986586 0 -922.23829326 0 23559
0.14650000 0.14650700 10952.82121688 0 180.42242569 0 3157.87132758 0 -35.84000821 0 -644.00627182 0 23044
0.14750000 0.14750500 11157.58171975 0 192.62966380 0 3148.73665960 0 25.18344918 0 -1013.78870379 0 23649
0.14850000 0.14849900 10951.03857258 0 33.20512707 0 2987.52361024 0 501.81104757 0 -984.91650959 0 23640
0.14950000 0.14949500 10796.10353140 0 83.26842229 0 2940.02333677 0 316.05729748 0 -1002.16165550 0 24457
0.15050000 0.15050000 10674.64012813 0 291.94509573 0 2981.77707366 0 121.90629625 0 -861.45676617 0 24591
0.15150000 0.15149900 10426.48718430 0 337.51657021 0 3131.41954359 0 -49.38112929 0 -639.03147628 0 25020
0.15250000 0.15250500 10053.41627186 0 297.62409113 0 3087.42919708 0 81.53349971 0 99.25929524 0 25297
0.15350000 0.15350100 9895.54706460 0 247.94810583 0 3227.50517836 0 370.22753943 0 93.79023112 0 25452
0.15450000 0.15450400 9719.70747415 0 143.47961393 0 2999.38207012 0 213.69144007 0 -92.66472930 0 26061
0.15550000 0.15549900 9584.07149512 0 110.13541846 0 2882.13722262 0 394.81806562 0 244.55886720 0 26128
0.15650000 0.15649500 9493.80990320 0 72.06721561 0 2499.74341268 0 111.32226096 0 324.24638892 0 26331
0.15750000 0.15749700 9451.44718844 0 -59.65680034 0 2491.67168789 0 396.28182696 0 130.90920356 0 27345
0.15850000 0.15849900 9432.03740304 0 -40.57409140 0 2043.77400433 0 119.74165675 0 -126.13592433 0 26980
0.15950000 0.15949700 9379.70959594 0 159.89654994 0 2180.80509628 0 -33.95184465 0 84.54683291 0 27777
0.16050000 0.16050000 9245.36907892 0 302.32429301 0 2173.02125193 0 1.33400477 0 -49.69403319 0 28224
0.16150000 0.16150500 9115.64572134 0 328.39186733 0 2426.04601869 0 -313.13309650 0 259.07689950 0 28075
0.16250000 0.16249700 8935.74258769 0 125.15491636 0 2640.40622718 0 -231.59428207 0 488.39914052 0 28590
0.16350000 0.16349900 8906.46736087 0 26.97196181 0 2791.24450818 0 48.66740723 0 469.03696611 0 29163
0.16450000 0.16449100 8937.14877294 0 -32.77275278 0 2817.14267593 0 97.61350488 0 565.95523971 0 28996
0.16550000 0.16550500 9045.00428900 0 -85.81494627 0 2793.84650451 0 150.40092417 0 123.33351892 0 30777
0.16650000 0.16650700 8960.52245064 0 201.56502993 0 3149.98783231 0 -65.19761312 0 474.98944793 0 29211
0.16750000 0.16749900 8794.76974810 0 312.68134565 0 2627.23016064 0 -94.13280885 0 280.72661622 0 30922
0.16850000 0.16850800 8646.40059553 0 120.27312834 0 3023.53081055 0 170.50162265 0 519.41715126 0 30867
0.16950000 0.16949900 8485.08789525 0 156.11756548 0 2552.97915041 0 119.88781144 0 185.04844300 0 30852
0.17050000 0.17049200 8554.28992536 0 22.18439928 0 2747.88528419 0 227.76104322 0 75.34761328 0 31257
0.17150000 0.17149500 8272.29995688 0 143.13526463 0 2517.21554125 0 65.86616010 0 144.27571408 0 32608
0.17250000 0.17250900 8412.20985329 0 100.86655391 0 2602.84890139 0 0.96526313 0 64.21815527 0 32361
0.17350000 0.17350400 8136.38716973 0 132.07844106 0 2466.89182494 0 107.86094150 0 266.47542695 0 32508
0.17450000 0.17449800 8187.36415320 0 37.59519314 0 2322.92945765 0 355.04406040 0 -0.43649319 0 32791
0.17550000 0.17549800 8064.90424070 0 -39.89546862 0 2253.95994636 0 286.07897804 0 13.23342118 0 33633
0.17650000 0.17650100 8071.41476770 0 60.50881573 0 2147.27809673 0 141.71579259 0 -114.65503073 0 33984
0.17750000 0.17750300 8037.87669582 0 127.67940641 0 2180.96010883 0 -105.73660526 0 -38.11116347 0 34069
0.17850000 0.17849800 7968.78538895 0 169.50732788 0 2073.52534111 0 -35.07147814 0 -41.66991939 0 34536
