### header ###
fiducial parameters:
Omega_m = 0.31
Omega_nu = 0
Omega_de = 0.69
Omega_k = 0
H_0 = 100
w_de = -1
zeff = 0
beta = 0
fgrowth = 0
b_1 = 2
gamma = 0.55
Lx = 3500 Ly = 3500 Lz = 3500
nx = 700 ny = 700 nz = 700
xoffset = -685.467585 yoffset = -31.7331281 zoffset = 572.489161
bins = 400 dk = 0.001
kx_ny = 0.628318531 ky_ny = 0.628318531 kz_ny = 0.628318531
############################
A(data) = 8.04701542 (not used)
A(ran) = 8.04208449 (used)
Ngal = 477521
weighted Ngal = 0
Nran = 23820508
weighted Nran = 0
SN(data) = 3496.8412
SN(ran) = 70.0494725
SN(data+ran) = 3566.89067
############################
13 columns: k_central k_mean P_0(k) sigma^{lin}_{P_0(k)} P^img_1(k) sigma^{lin}_{P_1(k)} P_2(k) sigma^{lin}_{P_2(k)} P^img_3(k) sigma^{lin}_{P_3(k)} P_4(k) sigma^{lin}_{P_4(k)} N_modes
### header ###
0.00050000 0 0 0 0 0 0 0 0 0 0 0 0
0.00150000 0.00179520 56652.87861358 0 -85836.98020083 0 -55500.24959996 0 -18661.96058884 0 18147.09748477 0 3
0.00250000 0.00253879 88158.18237581 0 -65284.42014921 0 -18476.72059462 0 -51592.16183197 0 12990.38364698 0 6
0.00350000 0.00331552 110536.90095977 0 -10739.51287925 0 6342.67054911 0 -91054.81327161 0 39802.35036508 0 7
0.00450000 0.00420575 101853.76239049 0 39994.56592393 0 11850.04491391 0 -57611.96338937 0 64991.11426476 0 24
0.00550000 0.00557378 55346.67645473 0 23799.63002794 0 15574.99642940 0 -8640.54333570 0 21666.98954462 0 45
0.00650000 0.00659388 50674.15538126 0 -4338.08150232 0 47427.86046768 0 7817.99139725 0 -2506.19857805 0 40
0.00750000 0.00754703 57065.10126658 0 -1403.31751984 0 49194.11772275 0 26164.01426971 0 -1243.96462105 0 57
0.00850000 0.00846663 55122.12970740 0 -1536.39579184 0 35875.21819840 0 20922.15425407 0 29989.94538754 0 75
0.00950000 0.00948925 71220.18276123 0 -15354.54644226 0 27659.99607596 0 26265.21531855 0 10751.83637677 0 112
0.01050000 0.01054430 86297.36746678 0 -15736.20947876 0 37367.32469096 0 19260.19829879 0 3405.30457030 0 105
0.01150000 0.01145670 89154.80233273 0 5696.33466015 0 31792.51986802 0 6286.81067040 0 4687.66801382 0 144
0.01250000 0.01249090 82326.61034032 0 15009.08990792 0 28128.13396929 0 -1285.76264724 0 23846.68740841 0 169
0.01350000 0.01339930 75828.04145776 0 11734.22839630 0 28907.51491327 0 7549.22178460 0 12631.64032286 0 180
0.01450000 0.01448870 65689.33506782 0 2492.63498015 0 30107.64420037 0 14211.10745824 0 -470.56937586 0 267
0.01550000 0.01550050 71775.79202063 0 -3109.06451978 0 19329.95394514 0 -2763.70763636 0 -721.60887478 0 238
0.01650000 0.01653350 77356.46517573 0 -15298.18830893 0 16278.42122513 0 2341.90742239 0 -23805.49836009 0 315
0.01750000 0.01747870 77479.36798121 0 -7417.52755321 0 14235.46657284 0 -18912.41657623 0 -27621.24293909 0 297
0.01850000 0.01844180 90803.25005173 0 3175.09986500 0 18051.54332158 0 -19764.21052453 0 -60190.92928613 0 388
0.01950000 0.01947590 85433.61540768 0 10895.38906804 0 30268.52507998 0 -33269.78944532 0 -36696.78469994 0 399
0.02050000 0.02045430 77110.32739501 0 5445.63508161 0 21312.23225743 0 -11723.15607149 0 -48751.00328351 0 462
0.02150000 0.02154770 83052.73340193 0 -4193.68731436 0 31988.27857081 0 2136.42721841 0 -45271.08231625 0 571
0.02250000 0.02255340 82581.27381115 0 1655.79974268 0 30762.57221339 0 7426.54042561 0 -44601.53883447 0 510
0.02350000 0.02348930 78496.25029256 0 1596.86175767 0 27383.85229498 0 15527.16398618 0 -34141.29213180 0 555
0.02450000 0.02439640 79337.96842527 0 3842.97142573 0 31951.96134541 0 7992.81233381 0 -23235.05218543 0 592
0.02550000 0.02547300 72015.84002270 0 5718.96649208 0 23045.60470779 0 8799.43119685 0 -11775.86033762 0 837
0.02650000 0.02652900 67075.47941187 0 1729.82930642 0 30743.41709145 0 9759.29103538 0 -4491.15639294 0 723
0.02750000 0.02749970 66685.51213176 0 2642.46567959 0 21498.35803763 0 1002.76841890 0 -7071.88278934 0 826
0.02850000 0.02848090 64663.37345013 0 1430.22326915 0 27071.83418159 0 1557.88717431 0 -8995.92067308 0 831
0.02950000 0.02946900 61824.87225962 0 2658.75306940 0 24130.02820052 0 -2369.28928167 0 -5729.58485158 0 996
0.03050000 0.03053250 56823.94603203 0 2874.60804174 0 20094.38725062 0 -2182.99741659 0 -3886.55209622 0 1041
0.03150000 0.03150510 58134.57712081 0 1165.86044178 0 18071.47350626 0 5935.43044228 0 -9108.10546814 0 1036
0.03250000 0.03246190 56826.38194349 0 461.54210944 0 13066.89341148 0 8342.48742391 0 -11398.95840080 0 1059
0.03350000 0.03345080 54649.23071440 0 1131.95698318 0 13365.73545833 0 4663.24246527 0 -8875.79702112 0 1302
0.03450000 0.03451200 52595.97880003 0 1124.90391228 0 9450.82713825 0 3940.61825831 0 -2323.81524364 0 1339
0.03550000 0.03553350 54515.25558409 0 1447.61789144 0 9971.79109330 0 2848.47735517 0 -273.49860258 0 1365
0.03650000 0.03647120 51488.41414842 0 983.43835423 0 9064.70195485 0 -30.28358344 0 -1253.47574807 0 1308
0.03750000 0.03744890 53868.85326118 0 -394.75273890 0 11288.23515261 0 -1275.84184420 0 2071.87556471 0 1579
0.03850000 0.03847530 51461.39767586 0 739.34341744 0 13431.17289801 0 -6084.00996902 0 -59.47288902 0 1662
0.03950000 0.03950240 52330.35372763 0 3951.87881265 0 19224.76685937 0 -3515.72886572 0 -522.10108280 0 1683
0.04050000 0.04050350 48827.40232476 0 2135.05425013 0 18048.00017764 0 -1493.05871250 0 951.62424333 0 1822
0.04150000 0.04152450 48321.95069678 0 2360.09925207 0 19255.88009211 0 2603.28072206 0 3708.52018546 0 1887
0.04250000 0.04250150 47365.30183245 0 -209.98996188 0 20224.70851374 0 7534.80561769 0 6810.24375388 0 1920
0.04350000 0.04349210 46413.85696079 0 -160.73693939 0 15220.12841896 0 9701.40492123 0 911.24679641 0 2005
0.04450000 0.04448520 45566.04904942 0 805.97888266 0 11525.51507347 0 3964.33517807 0 6318.78754448 0 2151
0.04550000 0.04548030 43185.38849017 0 2050.71635199 0 9615.41724668 0 4402.43385417 0 4172.06306399 0 2274
0.04650000 0.04648670 42142.15404575 0 1057.27083059 0 9414.21096008 0 231.83012259 0 6258.90841186 0 2311
0.04750000 0.04749250 41172.55056138 0 205.33294206 0 7597.84036288 0 194.45991909 0 595.69218248 0 2568
0.04850000 0.04851840 41390.01102082 0 203.48386382 0 7040.58132708 0 -2378.98863821 0 524.07084939 0 2493
0.04950000 0.04949480 39611.90637820 0 332.39894168 0 7294.46973517 0 -1654.80323345 0 -1055.19476968 0 2644
0.05050000 0.05050630 40730.54335462 0 1037.67945905 0 7819.32007623 0 -1185.49167368 0 -7347.60582198 0 2829
0.05150000 0.05149060 39807.44363449 0 822.64716045 0 9836.58693494 0 -3341.94872769 0 -5794.83406174 0 2784
0.05250000 0.05249300 38245.58149558 0 2837.22787315 0 10497.68223288 0 -1437.16561681 0 -5465.53204931 0 3055
0.05350000 0.05348950 36188.45426752 0 2941.79490874 0 12850.42946127 0 -631.05497348 0 -2586.17398022 0 3009
0.05450000 0.05448610 34968.94841199 0 1029.71181411 0 11287.46008987 0 290.42265106 0 -3995.96881008 0 3336
0.05550000 0.05550870 34870.62616760 0 -216.76843914 0 11623.61587137 0 3852.87008412 0 -3460.43367557 0 3349
0.05650000 0.05647670 33685.11234927 0 -341.80377438 0 12428.13099269 0 721.22245064 0 -3497.52596371 0 3324
0.05750000 0.05747970 34335.05781613 0 1660.52762538 0 12508.51607087 0 -619.21865825 0 -6946.05689011 0 3639
0.05850000 0.05849280 31814.55379441 0 1499.98998783 0 10031.67022592 0 -1765.83650673 0 -3787.15583632 0 3846
0.05950000 0.05951020 30833.65653873 0 1251.15055986 0 9390.77084844 0 -455.08030067 0 -6953.27604589 0 3787
0.06050000 0.06049470 30873.73835457 0 -820.61317438 0 10013.97665086 0 317.33282930 0 -4058.50530065 0 3930
0.06150000 0.06148310 32437.81495845 0 -1230.20172130 0 10409.04827271 0 297.39710847 0 -8631.80727142 0 4083
0.06250000 0.06249100 32879.04710247 0 70.45220631 0 10690.25210613 0 1328.08107270 0 -3796.77768659 0 4303
0.06350000 0.06350600 32171.30410007 0 309.08726901 0 8925.54497653 0 232.35827248 0 -5372.61309943 0 4470
0.06450000 0.06451750 33032.62024771 0 -294.67442379 0 10431.11541607 0 1961.70593277 0 -4932.72070671 0 4479
0.06550000 0.06550280 32619.06891573 0 24.11751647 0 9406.52676666 0 643.24671034 0 -4269.98670469 0 4636
0.06650000 0.06648880 33013.46512577 0 622.87141821 0 10232.53327045 0 1091.46770579 0 -3420.89440364 0 4653
0.06750000 0.06749660 31698.18366057 0 652.11010636 0 10736.11367553 0 -464.91916851 0 -298.02048035 0 5220
0.06850000 0.06852730 32289.77797563 0 1250.16512295 0 10608.29475782 0 2368.15990454 0 -933.02495210 0 5029
0.06950000 0.06949320 30520.19902311 0 291.36047698 0 9375.02600255 0 2862.39526747 0 3600.04461921 0 5040
0.07050000 0.07048030 30789.47796270 0 218.47025546 0 9999.91479834 0 2836.62996761 0 236.78388071 0 5475
0.07150000 0.07148790 29734.50685398 0 444.43758206 0 9042.05905060 0 123.91370874 0 2528.78612068 0 5509
0.07250000 0.07249820 29492.68727994 0 1459.59814689 0 9899.99813917 0 232.29183853 0 1839.84392582 0 5916
0.07350000 0.07351270 28906.07551105 0 608.57261794 0 9722.09909631 0 -2384.10405228 0 2999.81389079 0 5721
0.07450000 0.07449140 27872.25254273 0 928.07783737 0 10133.02628731 0 -1146.84926007 0 2782.64131180 0 6028
0.07550000 0.07549160 27605.96313084 0 406.26020608 0 10114.17011814 0 -151.26677997 0 590.77053409 0 6183
0.07650000 0.07648840 27447.96105568 0 316.82239513 0 11021.33676286 0 111.65221624 0 -83.87994679 0 6330
0.07750000 0.07749960 27252.42379938 0 536.53385820 0 11251.80720396 0 -506.83013241 0 -1411.76570368 0 6583
0.07850000 0.07848650 26455.99147518 0 406.57798181 0 10120.12702889 0 1481.90888140 0 1196.18753946 0 6549
0.07950000 0.07947320 26883.38321318 0 -88.83580865 0 9450.29566666 0 1669.85052287 0 1528.68945376 0 6828
0.08050000 0.08048110 26249.27117081 0 160.33058507 0 9468.68679819 0 2302.71139253 0 2737.79839628 0 7147
0.08150000 0.08149960 26036.68253430 0 563.23919843 0 8718.58108102 0 2368.91282262 0 3082.21413209 0 7386
0.08250000 0.08250610 25293.61881572 0 1289.02898306 0 8752.30738242 0 719.62139247 0 2630.85081086 0 7227
0.08350000 0.08350160 23726.22051439 0 1576.57725860 0 8497.61069462 0 -869.60710447 0 1922.76456638 0 7798
0.08450000 0.08449610 22688.41150914 0 1274.74568405 0 9091.67413811 0 -157.35877309 0 2177.71591766 0 7371
0.08550000 0.08548940 22008.79221177 0 579.80118190 0 8469.50913423 0 -830.50076044 0 1948.02053929 0 8256
0.08650000 0.08650700 21385.42032448 0 -91.15734300 0 7942.47754519 0 243.09399863 0 854.13131607 0 8037
0.08750000 0.08749060 21543.20095314 0 330.45353421 0 7769.87107359 0 713.03114474 0 460.54227851 0 8155
0.08850000 0.08849210 21398.04277477 0 -109.06062789 0 7864.26264267 0 654.48290557 0 -562.18289864 0 8718
0.08950000 0.08949900 21093.77528875 0 835.14117177 0 7607.93832311 0 130.58146275 0 -1252.01420119 0 8571
0.09050000 0.09049190 20707.01898284 0 1070.38710657 0 8256.92049771 0 -257.50462938 0 -323.37721142 0 8932
0.09150000 0.09150830 19524.05179922 0 708.66200537 0 8514.69529181 0 64.75383434 0 1523.86192014 0 9285
0.09250000 0.09250820 19172.39476298 0 453.32755165 0 8654.92628564 0 312.22405863 0 594.06897966 0 9204
0.09350000 0.09350330 19504.01089129 0 -252.95722557 0 8616.35030597 0 957.65312419 0 893.05164504 0 9349
0.09450000 0.09448040 19351.21280880 0 -231.33629690 0 8401.74650634 0 1296.84604438 0 819.57237584 0 9564
0.09550000 0.09549270 19508.55054447 0 232.68379883 0 7866.32209508 0 363.70704734 0 1053.62914295 0 10155
0.09650000 0.09649430 19045.61664380 0 310.69829227 0 7832.17504534 0 1000.03244744 0 1272.84124418 0 9913
0.09750000 0.09749140 18700.60300245 0 661.34885419 0 7566.52782829 0 367.78941350 0 1340.64816137 0 10476
0.09850000 0.09850240 18105.24409695 0 579.76685769 0 7989.63457659 0 -36.17671760 0 1095.45374272 0 10575
0.09950000 0.09950330 17657.36855804 0 433.02422963 0 7915.43892798 0 88.87921217 0 1148.54332576 0 10882
0.10050000 0.10051200 17358.63723443 0 343.52662813 0 7505.84041596 0 457.09878549 0 1017.59536906 0 10875
0.10150000 0.10150300 17253.89304165 0 254.22168507 0 7688.94345149 0 524.79719389 0 2026.84441968 0 11118
0.10250000 0.10250800 17184.80173478 0 -158.55679864 0 6775.16662885 0 654.71431715 0 245.62845378 0 11575
0.10350000 0.10349800 17050.93732772 0 170.69538833 0 6705.73207992 0 491.54146630 0 1116.88754911 0 11364
0.10450000 0.10450100 17070.42461940 0 178.76932759 0 5900.72977630 0 -41.35070427 0 332.84847807 0 12093
0.10550000 0.10551000 16506.95400938 0 234.40222364 0 6130.29228677 0 377.26178738 0 464.74533301 0 12067
0.10650000 0.10649700 16703.15560517 0 426.88683999 0 5382.04672017 0 801.46469584 0 808.32510829 0 12054
0.10750000 0.10749900 16148.98574800 0 312.73338557 0 5378.39285298 0 813.08067180 0 351.59946015 0 12807
0.10850000 0.10850100 15772.96959715 0 368.22566310 0 4872.13294530 0 591.86337255 0 133.57652661 0 12736
0.10950000 0.10950300 15358.53247919 0 415.85216107 0 5247.34081643 0 -150.04439531 0 124.42967908 0 12933
0.11050000 0.11050200 15121.69545132 0 355.70286373 0 5066.05364217 0 -153.33730472 0 609.06976532 0 13428
0.11150000 0.11150900 14928.26193674 0 -56.39865804 0 5238.89263259 0 -103.57606252 0 1031.39259302 0 13453
0.11250000 0.11250000 14980.30186339 0 -85.73622204 0 5051.98071733 0 739.74977176 0 1458.01480444 0 13668
0.11350000 0.11349100 15093.12885329 0 6.48100818 0 5189.87545062 0 660.36452451 0 996.82700940 0 13791
0.11450000 0.11448600 15068.10539920 0 249.08080466 0 4678.17903145 0 657.44475245 0 1614.16780136 0 14205
0.11550000 0.11549300 15051.27546548 0 42.45483650 0 4908.48338768 0 -102.64288698 0 1414.25697676 0 14776
0.11650000 0.11649800 15025.14477890 0 -2.28105393 0 4731.65836033 0 -10.78942692 0 1831.51753755 0 14553
0.11750000 0.11747300 14903.90282214 0 41.54635225 0 5052.14680220 0 -254.72769031 0 1428.06416581 0 14568
0.11850000 0.11849100 15103.86900836 0 213.74348000 0 5055.44635500 0 -228.04781643 0 1045.74232598 0 16015
0.11950000 0.11950300 14690.20695314 0 133.71382344 0 4906.53465851 0 126.05288190 0 849.87289994 0 15270
0.12050000 0.12050700 14390.14695055 0 397.77216188 0 4684.75599239 0 487.08485556 0 431.30801929 0 15999
0.12150000 0.12150000 14491.79089239 0 134.99156972 0 4347.19402565 0 107.05410119 0 444.85833040 0 15670
0.12250000 0.12250700 14033.95026114 0 300.38995786 0 4733.66245112 0 125.57234300 0 229.97107925 0 16887
0.12350000 0.12352200 13860.22548473 0 313.28478735 0 4384.55204959 0 135.19640773 0 114.19663648 0 16407
0.12450000 0.12449800 13821.14017812 0 9.89210357 0 4155.11133469 0 171.33869041 0 621.51505842 0 16306
0.12550000 0.12549900 13723.03938023 0 -68.00167938 0 4328.81396645 0 490.97788497 0 510.87153097 0 17523
0.12650000 0.12650100 13808.07483484 0 -123.51510505 0 4213.34069091 0 501.94612993 0 246.66703784 0 17154
0.12750000 0.12750600 13938.94971419 0 -42.82376636 0 3963.69298323 0 442.90406507 0 210.47160801 0 18007
0.12850000 0.12850300 13883.80953660 0 485.38193200 0 4103.32607152 0 -173.89639744 0 664.79899060 0 17496
0.12950000 0.12949900 13419.98984994 0 408.43702514 0 4237.10189998 0 -213.52756966 0 721.04972237 0 18405
0.13050000 0.13049000 12911.43797102 0 457.64908003 0 4330.41945355 0 -277.99507369 0 1002.49825417 0 18100
0.13150000 0.13148800 12934.24696015 0 431.66897708 0 4524.60588622 0 20.69749678 0 750.44785200 0 19059
0.13250000 0.13249300 12723.20844911 0 -40.15854705 0 4656.75408293 0 232.60518533 0 638.40921163 0 18957
0.13350000 0.13349100 12396.68559020 0 38.33260997 0 4255.28265733 0 129.77650473 0 52.30112279 0 19468
0.13450000 0.13450700 12626.54705344 0 215.31685735 0 4156.16320555 0 -146.59315167 0 553.24421082 0 19953
0.13550000 0.13551000 12208.34534504 0 350.58191350 0 4293.81434770 0 155.99687714 0 171.49259572 0 19956
0.13650000 0.13649900 11996.75321776 0 360.04653676 0 4191.20711360 0 333.08321136 0 498.12174894 0 19723
0.13750000 0.13749600 11541.56994446 0 257.13813543 0 3642.57341884 0 240.92714466 0 475.23193184 0 20946
0.13850000 0.13851100 11632.47373122 0 166.48569044 0 4014.22707370 0 350.23424250 0 134.75905090 0 20955
0.13950000 0.13949800 11416.56339726 0 0.86294156 0 3517.75510116 0 118.38418973 0 158.67084358 0 20506
0.14050000 0.14048300 11277.05210454 0 -6.96124812 0 3491.52476366 0 565.42598258 0 111.82162281 0 21447
0.14150000 0.14148400 11341.60375824 0 67.22074831 0 3307.48058053 0 117.93797504 0 302.86905139 0 21771
0.14250000 0.14249400 11332.41372864 0 -2.30941015 0 2984.14655117 0 522.66244967 0 160.69929349 0 22470
0.14350000 0.14350900 11358.10152222 0 14.68190271 0 2935.58333452 0 202.36998794 0 139.74159707 0 22519
0.14450000 0.14449900 11246.60321129 0 250.17253588 0 2768.16978326 0 236.84145680 0 442.89631444 0 22218
0.14550000 0.14550500 11180.05853913 0 206.42910222 0 3068.83876371 0 67.66485926 0 259.93389744 0 23559
0.14650000 0.14650700 10845.71861891 0 241.87825736 0 2940.56588069 0 11.69425730 0 907.14117837 0 23044
0.14750000 0.14750500 10699.85181175 0 346.08322793 0 3285.62381133 0 36.18114653 0 555.43763836 0 23649
0.14850000 0.14849900 10519.33970023 0 322.88560020 0 3054.46688610 0 -103.15121741 0 534.46776239 0 23640
0.14950000 0.14949500 10230.24129921 0 228.63354241 0 3331.61824863 0 -72.62526078 0 381.57556513 0 24457
0.15050000 0.15050000 9998.39788984 0 232.92406828 0 3115.14322610 0 -37.40308830 0 533.61962231 0 24591
0.15150000 0.15149900 9978.46770516 0 66.44668209 0 3269.30320455 0 -44.02024178 0 533.43139279 0 25020
0.15250000 0.15250500 9821.82752595 0 55.23606393 0 3096.60815436 0 355.87116307 0 439.40410320 0 25297
0.15350000 0.15350100 9808.87290592 0 112.31101957 0 3145.60319168 0 227.73336240 0 329.72497524 0 25452
0.15450000 0.15450400 9784.11518762 0 6.62491518 0 3045.37650742 0 367.73183741 0 529.77088220 0 26061
0.15550000 0.15549900 9767.73921921 0 83.43860392 0 3083.02241180 0 193.37150956 0 745.46309137 0 26128
0.15650000 0.15649500 9756.99906414 0 169.11868928 0 3170.59342879 0 -145.54792421 0 611.87217073 0 26331
0.15750000 0.15749700 9594.71199927 0 180.56636591 0 3110.44856038 0 -15.49881883 0 684.65941963 0 27345
0.15850000 0.15849900 9382.59947272 0 245.64616950 0 3051.65451559 0 -302.76164984 0 530.05986988 0 26980
0.15950000 0.15949700 9276.83662605 0 142.51189274 0 3044.52393841 0 -50.62145112 0 538.69628324 0 27777
0.16050000 0.16050000 9096.93349240 0 116.88610418 0 2974.89008762 0 401.69176486 0 294.84383036 0 28224
0.16150000 0.16150500 9134.09221449 0 -8.03870712 0 2584.55742079 0 444.03233497 0 192.34731952 0 28075
0.16250000 0.16249700 9061.22524486 0 -129.39783123 0 2377.99212898 0 515.21741846 0 185.47583473 0 28590
0.16350000 0.16349900 9238.61496078 0 -39.52487791 0 2270.46878266 0 185.75707178 0 -252.53537000 0 29163
0.16450000 0.16449100 9195.05643494 0 60.32213634 0 2323.38342297 0 -175.14535568 0 202.45081591 0 28996
0.16550000 0.16550500 9108.19404674 0 208.28260940 0 2255.37720393 0 -101.13627574 0 129.86176164 0 30777
0.16650000 0.16650700 8887.19044336 0 210.30995207 0 2119.32047656 0 -47.46993530 0 355.33526254 0 29211
0.16750000 0.16749900 8823.75709448 0 122.01812673 0 2256.52872572 0 62.97174366 0 -24.09526110 0 30922
0.16850000 0.16850800 8714.09678947 0 102.14108922 0 2228.75933507 0 52.85274601 0 -72.99551932 0 30867
0.16950000 0.16949900 8609.20865646 0 249.66210171 0 2116.86242045 0 66.70743533 0 -157.90131701 0 30852
0.17050000 0.17049200 8431.94073612 0 181.40343367 0 2182.14484758 0 -127.69047874 0 -146.13586465 0 31257
0.17150000 0.17149500 8284.55702046 0 71.06948842 0 2354.29735386 0 -251.93967892 0 -325.29272361 0 32608
0.17250000 0.17250900 8151.88842448 0 216.68982563 0 2666.55905840 0 -110.27825145 0 -291.67050207 0 32361
0.17350000 0.17350400 8025.11030531 0 233.34924555 0 2545.82642858 0 -85.04021571 0 -170.94451564 0 32508
0.17450000 0.17449800 7902.79433304 0 102.50647594 0 2742.05016901 0 48.07049820 0 -63.10339361 0 32791
0.17550000 0.17549800 7920.59863134 0 -48.78687762 0 2601.23234197 0 231.07831173 0 47.90684924 0 33633
0.17650000 0.17650100 7965.97301845 0 -47.12237503 0 2634.26108690 0 256.24570605 0 -228.24047488 0 33984
0.17750000 0.17750300 8054.62912327 0 -47.50016275 0 2417.06636326 0 294.07541102 0 1.16968039 0 34069
0.17850000 0.17849800 7996.12295893 0 88.59266040 0 2338.09854265 0 -92.45690176 0 -169.50511342 0 34536
