### header ###
fiducial parameters:
Omega_m = 0.31
Omega_nu = 0
Omega_de = 0.69
Omega_k = 0
H_0 = 100
w_de = -1
zeff = 0
beta = 0
fgrowth = 0
b_1 = 2
gamma = 0.55
Lx = 3500 Ly = 3500 Lz = 3500
nx = 700 ny = 700 nz = 700
xoffset = -685.467585 yoffset = -31.7331281 zoffset = 572.489161
bins = 400 dk = 0.001
kx_ny = 0.628318531 ky_ny = 0.628318531 kz_ny = 0.628318531
############################
A(data) = 7.94236653 (not used)
A(ran) = 7.93571738 (used)
Ngal = 471816
weighted Ngal = 0
Nran = 23820508
weighted Nran = 0
SN(data) = 3493.8406
SN(ran) = 69.1229764
SN(data+ran) = 3562.96358
############################
13 columns: k_central k_mean P_0(k) sigma^{lin}_{P_0(k)} P^img_1(k) sigma^{lin}_{P_1(k)} P_2(k) sigma^{lin}_{P_2(k)} P^img_3(k) sigma^{lin}_{P_3(k)} P_4(k) sigma^{lin}_{P_4(k)} N_modes
### header ###
0.00050000 0 0 0 0 0 0 0 0 0 0 0 0
0.00150000 0.00179520 17122.57526930 0 -28989.89300992 0 -12988.72279826 0 -10705.06687674 0 -48879.77442115 0 3
0.00250000 0.00253879 24305.63527215 0 -21548.18349931 0 -12098.72932933 0 21659.46036374 0 57864.96601148 0 6
0.00350000 0.00331552 33284.18346759 0 -15010.08641715 0 -954.76214018 0 -50219.96861720 0 -26389.44680302 0 7
0.00450000 0.00420575 37799.36680538 0 -6622.12495521 0 -8426.93604530 0 -17990.42408858 0 5713.47461897 0 24
0.00550000 0.00557378 42021.79787497 0 -1335.65454287 0 -15495.94003019 0 -22352.80934388 0 928.85400734 0 45
0.00650000 0.00659388 36171.18144080 0 -1574.27421504 0 -14102.93084476 0 2613.76621366 0 8255.48109548 0 40
0.00750000 0.00754703 45189.36855909 0 -6643.88207348 0 -7922.75773468 0 -23978.66952025 0 -10721.06638610 0 57
0.00850000 0.00846663 54882.52459833 0 -8461.71421756 0 -535.31811694 0 -21371.57991845 0 -26489.65134263 0 75
0.00950000 0.00948925 60866.34110007 0 -2416.52381934 0 3191.44261643 0 -21265.06415370 0 -1959.82363755 0 112
0.01050000 0.01054430 60756.50363787 0 3232.12233781 0 19709.29179343 0 -12471.64522923 0 14060.63456395 0 105
0.01150000 0.01145670 65893.39801423 0 -1946.57006474 0 12444.07514043 0 -573.24082944 0 -3450.75646368 0 144
0.01250000 0.01249090 64635.80336133 0 1756.45824761 0 26506.25982985 0 3651.36484474 0 8106.14865065 0 169
0.01350000 0.01339930 72696.34510606 0 6838.22351870 0 34302.50518116 0 590.95322745 0 3553.60728892 0 180
0.01450000 0.01448870 66320.78975223 0 850.95798777 0 27273.12904679 0 -304.72588026 0 24313.71806927 0 267
0.01550000 0.01550050 68186.36576093 0 -2674.77472341 0 37078.11556670 0 7212.09163852 0 11963.64696655 0 238
0.01650000 0.01653350 73671.92764583 0 -2980.48161166 0 37523.99808714 0 6728.77358786 0 -113.00303987 0 315
0.01750000 0.01747870 82628.88480787 0 -1254.36153405 0 44530.12233939 0 10826.89566672 0 6218.38370302 0 297
0.01850000 0.01844180 79943.29242311 0 -11254.24311542 0 19458.50363629 0 13071.54378790 0 -4913.18912573 0 388
0.01950000 0.01947590 81948.82261751 0 690.97285924 0 25258.40882279 0 7338.47115400 0 9854.12549745 0 399
0.02050000 0.02045430 86412.18747515 0 5052.22430847 0 18600.28773960 0 8954.03406829 0 -6863.95560158 0 462
0.02150000 0.02154770 77041.45753464 0 4112.32787159 0 12862.16612558 0 2633.62996439 0 -3859.12594764 0 571
0.02250000 0.02255340 72753.36757887 0 6527.66695218 0 16333.56140272 0 -7637.54571968 0 6470.71091332 0 510
0.02350000 0.02348930 68356.65811664 0 7829.89414643 0 22991.12886968 0 4420.49281595 0 -5014.91057384 0 555
0.02450000 0.02439640 65174.36124051 0 1793.65018667 0 17744.61847761 0 -3829.26388761 0 4845.68116131 0 592
0.02550000 0.02547300 63077.81653610 0 -2028.38347283 0 21867.95224007 0 9633.81945053 0 14477.17542363 0 837
0.02650000 0.02652900 66961.32374299 0 -4052.84734267 0 15053.26848394 0 12750.22492166 0 2327.32517061 0 723
0.02750000 0.02749970 67899.59254812 0 5.62856096 0 23614.83292671 0 10190.45843614 0 9778.83368868 0 826
0.02850000 0.02848090 68854.02694749 0 5482.09624723 0 8664.43741266 0 8175.81571841 0 5788.37889637 0 831
0.02950000 0.02946900 60282.60813563 0 4455.71388119 0 13641.54706957 0 -2005.74056857 0 15345.79930565 0 996
0.03050000 0.03053250 57962.84536288 0 881.18875623 0 6630.66171765 0 9579.02251501 0 10943.64225960 0 1041
0.03150000 0.03150510 58960.57255228 0 161.57400715 0 9822.50293777 0 -3552.48898411 0 8740.64822439 0 1036
0.03250000 0.03246190 54117.09478362 0 3581.73099396 0 8222.44127822 0 3485.85573336 0 2461.66568763 0 1059
0.03350000 0.03345080 53602.45312605 0 4540.30644281 0 7910.31244159 0 -4774.40860645 0 7783.39038219 0 1302
0.03450000 0.03451200 48661.87106872 0 3829.64034665 0 10054.19133460 0 -5444.50570447 0 4359.79433129 0 1339
0.03550000 0.03553350 49175.40549381 0 592.03610082 0 15108.96227778 0 873.52781468 0 7064.67470589 0 1365
0.03650000 0.03647120 48396.68888931 0 468.71143976 0 16542.05327906 0 109.60815435 0 6280.72089175 0 1308
0.03750000 0.03744890 50604.06756516 0 -2071.93092634 0 20761.71626744 0 2402.50625612 0 7383.44693742 0 1579
0.03850000 0.03847530 50554.90644296 0 -108.59525808 0 18198.36234868 0 3785.29568575 0 10015.10602799 0 1662
0.03950000 0.03950240 52821.07916359 0 709.41381622 0 20973.86201097 0 3793.63314634 0 12808.68679671 0 1683
0.04050000 0.04050350 48534.98222630 0 1197.81517121 0 15755.69677044 0 5913.06434615 0 13507.79338576 0 1822
0.04150000 0.04152450 48489.03207830 0 1310.11068952 0 16555.45079209 0 7564.34658030 0 14239.12044003 0 1887
0.04250000 0.04250150 48202.59103524 0 -417.31924411 0 9437.36319128 0 7418.36904989 0 10336.57990677 0 1920
0.04350000 0.04349210 46547.16775160 0 1205.89796832 0 11848.27334194 0 2286.03647136 0 8225.92906054 0 2005
0.04450000 0.04448520 44358.05841171 0 3583.38077036 0 11028.96559466 0 -2324.84496985 0 7646.97934043 0 2151
0.04550000 0.04548030 41945.06666398 0 2282.91407576 0 10841.96510079 0 -3485.02530899 0 6748.78127881 0 2274
0.04650000 0.04648670 40383.75814130 0 1290.04763695 0 13273.39226935 0 -2766.18783712 0 9539.49431540 0 2311
0.04750000 0.04749250 39617.44254061 0 931.79149511 0 12879.77112204 0 1712.58969667 0 9101.17419281 0 2568
0.04850000 0.04851840 39291.80546769 0 -127.13132634 0 12463.11953912 0 2763.47511754 0 8370.36753780 0 2493
0.04950000 0.04949480 38741.51092420 0 462.37253380 0 11551.42431355 0 3619.95265923 0 9045.64648384 0 2644
0.05050000 0.05050630 39854.83318472 0 636.01205330 0 10276.43503836 0 1707.90610328 0 3389.71473695 0 2829
0.05150000 0.05149060 38422.62796943 0 324.41690272 0 8855.73396855 0 -2773.13018478 0 1285.04294613 0 2784
0.05250000 0.05249300 38628.79465755 0 224.23782946 0 9743.32474299 0 -2417.28780976 0 850.50623692 0 3055
0.05350000 0.05348950 38640.53132186 0 519.99734109 0 13910.93673240 0 -3456.39227701 0 -882.46982421 0 3009
0.05450000 0.05448610 38698.43958066 0 2206.27144336 0 13486.86669185 0 -3440.18239348 0 -1060.30021866 0 3336
0.05550000 0.05550870 36263.41390654 0 1161.70831997 0 14746.45436322 0 -1150.81315235 0 -2740.59969446 0 3349
0.05650000 0.05647670 36353.87480031 0 -263.94982965 0 14351.28309044 0 2412.59314403 0 -1488.68514419 0 3324
0.05750000 0.05747970 37381.94015972 0 -683.89542921 0 17510.10663795 0 1721.49184583 0 -2847.59156918 0 3639
0.05850000 0.05849280 36741.62761546 0 743.48557415 0 16571.50566308 0 1285.96194909 0 -2192.71891779 0 3846
0.05950000 0.05951020 36060.56891586 0 2102.34660262 0 15598.69120451 0 1465.14538163 0 -148.69578615 0 3787
0.06050000 0.06049470 34670.99215112 0 1765.28289049 0 16593.98248246 0 464.47627551 0 3158.07062942 0 3930
0.06150000 0.06148310 33823.40568626 0 641.81838044 0 14630.85929211 0 3584.64301539 0 2786.02944319 0 4083
0.06250000 0.06249100 32442.13316513 0 320.43418748 0 13837.08432586 0 4204.60462663 0 3512.58432547 0 4303
0.06350000 0.06350600 32584.19109255 0 867.25091375 0 11865.65689190 0 2896.11049654 0 1668.38897600 0 4470
0.06450000 0.06451750 30922.78875352 0 647.93694713 0 10768.41164702 0 1945.11959019 0 2712.69743592 0 4479
0.06550000 0.06550280 30848.82562373 0 850.52838157 0 11273.39823735 0 -1067.91465643 0 2448.93251409 0 4636
0.06650000 0.06648880 28876.51240378 0 558.42384437 0 10403.09136196 0 -1152.09754203 0 2989.97059403 0 4653
0.06750000 0.06749660 30522.08131833 0 214.03800384 0 12358.59679283 0 -600.25287307 0 1905.72425849 0 5220
0.06850000 0.06852730 29405.54808362 0 -76.99163207 0 11503.03825409 0 259.65487486 0 2077.81033082 0 5029
0.06950000 0.06949320 29922.62565265 0 666.79200907 0 12994.48040716 0 1344.67848760 0 81.87397370 0 5040
0.07050000 0.07048030 28650.85842398 0 929.01898498 0 11422.98534565 0 -29.30545427 0 56.45811642 0 5475
0.07150000 0.07148790 28435.16953651 0 919.28530423 0 10813.13276697 0 1417.15792586 0 273.46870730 0 5509
0.07250000 0.07249820 27234.70807967 0 912.75041812 0 10705.31046788 0 773.75620298 0 404.50967153 0 5916
0.07350000 0.07351270 26658.61501936 0 631.09151215 0 10001.77494891 0 322.26001385 0 376.43136302 0 5721
0.07450000 0.07449140 26062.59177437 0 228.30247990 0 10119.05301338 0 468.54314042 0 551.86238468 0 6028
0.07550000 0.07549160 26825.14278463 0 -342.30756516 0 8914.71624286 0 1875.18678664 0 553.59631075 0 6183
0.07650000 0.07648840 26935.53386307 0 -1065.29162268 0 10046.20818840 0 1327.49423948 0 1366.88957119 0 6330
0.07750000 0.07749960 27582.04690923 0 -64.15493229 0 9822.75760124 0 1057.77351413 0 243.68636800 0 6583
0.07850000 0.07848650 26931.54782614 0 1160.90004026 0 10420.55241820 0 -15.21403864 0 2741.12009373 0 6549
0.07950000 0.07947320 26545.78802946 0 1737.00417290 0 8958.77302331 0 551.54903789 0 3055.04264699 0 6828
0.08050000 0.08048110 25203.04719870 0 550.28347116 0 9110.18706521 0 130.58146275 0 5623.25731635 0 7147
0.08150000 0.08149960 25058.44263657 0 178.36961667 0 9512.93180816 0 2359.25775538 0 3608.82497279 0 7386
0.08250000 0.08250610 24938.08646579 0 -693.38884051 0 8564.14429445 0 768.93309829 0 3657.38818945 0 7227
0.08350000 0.08350160 24392.44229873 0 609.26574547 0 8765.50559360 0 598.32296685 0 2993.46944867 0 7798
0.08450000 0.08449610 24177.19630425 0 1375.72528639 0 8183.09023582 0 -98.09371161 0 3046.28443805 0 7371
0.08550000 0.08548940 22794.48438090 0 1023.63310779 0 7806.91907243 0 -577.29219309 0 3449.25062750 0 8256
0.08650000 0.08650700 22236.99282628 0 880.75693556 0 9239.89935046 0 -333.99224922 0 1674.74449044 0 8037
0.08750000 0.08749060 21442.33207405 0 1013.82856416 0 8260.47471398 0 -970.88676682 0 3059.64873411 0 8155
0.08850000 0.08849210 21117.80223361 0 444.32021541 0 8847.35221866 0 354.45722719 0 1137.14990352 0 8718
0.08950000 0.08949900 20320.70556992 0 261.50948926 0 8211.12536226 0 -54.71477888 0 -343.76025418 0 8571
0.09050000 0.09049190 20641.80298966 0 -5.53600740 0 7835.61853836 0 1230.11314270 0 -1128.03738020 0 8932
0.09150000 0.09150830 20020.64556733 0 -91.75270190 0 7719.97917795 0 105.93302830 0 -1819.86945184 0 9285
0.09250000 0.09250820 20438.51510599 0 43.65153337 0 7295.82055880 0 29.77669241 0 -2020.26745874 0 9204
0.09350000 0.09350330 20220.94392330 0 511.92118736 0 7670.96199598 0 -583.80493455 0 -2852.93950207 0 9349
0.09450000 0.09448040 19627.46731302 0 650.52565668 0 7596.81063667 0 -304.53654351 0 -1332.62072587 0 9564
0.09550000 0.09549270 19151.68951556 0 528.09453223 0 7660.85296342 0 369.79904046 0 -1640.88532115 0 10155
0.09650000 0.09649430 19113.48999494 0 -46.48859515 0 7379.08444144 0 1116.92076608 0 -1155.62961365 0 9913
0.09750000 0.09749140 18634.39050004 0 449.34705088 0 7888.41138310 0 784.30702130 0 -1460.56143915 0 10476
0.09850000 0.09850240 18204.23068083 0 484.35331303 0 6857.62223178 0 1578.21596268 0 179.09153224 0 10575
0.09950000 0.09950330 18011.35078249 0 277.07939242 0 6713.99203423 0 469.89728575 0 -490.84280261 0 10882
0.10050000 0.10051200 17863.20307642 0 4.77117549 0 6251.00277194 0 555.62365342 0 126.76815408 0 10875
0.10150000 0.10150300 17612.85781227 0 -14.12806502 0 6174.38228419 0 -228.45970691 0 -535.72336403 0 11118
0.10250000 0.10250800 17792.56164408 0 250.42941382 0 5825.96943913 0 -336.08491862 0 -531.93441447 0 11575
0.10350000 0.10349800 17404.36593593 0 312.09008350 0 6012.48275070 0 -377.90841115 0 -598.98952081 0 11364
0.10450000 0.10450100 16790.40552474 0 828.28297378 0 5737.75622730 0 160.45680957 0 -616.49043741 0 12093
0.10550000 0.10551000 16663.29523582 0 384.53962649 0 6203.12603942 0 704.31501064 0 -275.30449876 0 12067
0.10650000 0.10649700 16008.92083904 0 415.09702852 0 5543.93518135 0 1624.55364204 0 710.67938295 0 12054
0.10750000 0.10749900 15963.41358404 0 220.11560293 0 5850.19568583 0 1483.40364525 0 1334.21514065 0 12807
0.10850000 0.10850100 15682.17653364 0 51.70521027 0 5418.64075370 0 854.04605917 0 2130.72497113 0 12736
0.10950000 0.10950300 15540.11860622 0 334.11847373 0 5478.54203097 0 669.04190547 0 3278.10570278 0 12933
0.11050000 0.11050200 15432.93850197 0 382.77469791 0 5596.80553235 0 83.83621111 0 4162.92839602 0 13428
0.11150000 0.11150900 15020.71584898 0 286.30042453 0 5683.31360616 0 396.66271493 0 4054.04315375 0 13453
0.11250000 0.11250000 14847.76613531 0 502.34694809 0 5590.78218765 0 -193.59184883 0 4485.52057961 0 13668
0.11350000 0.11349100 14350.39730445 0 308.52700937 0 5786.65161370 0 199.09368703 0 4056.06938919 0 13791
0.11450000 0.11448600 14164.82514049 0 -116.01249775 0 5363.46735913 0 -24.94694433 0 3437.64683109 0 14205
0.11550000 0.11549300 14516.03928374 0 -136.44315151 0 5461.82282049 0 325.43666384 0 2018.06406610 0 14776
0.11650000 0.11649800 14426.90706895 0 13.41556092 0 4711.93854982 0 -681.38311871 0 1179.05865296 0 14553
0.11750000 0.11747300 14358.59082482 0 366.63899895 0 4521.51670759 0 -258.21879433 0 733.27799790 0 14568
0.11850000 0.11849100 14196.04909648 0 59.93991968 0 4819.39546219 0 -189.25039027 0 165.49803906 0 16015
0.11950000 0.11950300 13956.44398741 0 72.25965262 0 4243.64564394 0 680.93136786 0 436.54190723 0 15270
0.12050000 0.12050700 13925.10930817 0 205.26872258 0 4226.63855302 0 627.74545559 0 -703.23988790 0 15999
0.12150000 0.12150000 13920.90182474 0 176.22047842 0 3823.76094217 0 1213.48251082 0 73.37806815 0 15670
0.12250000 0.12250700 13408.25318564 0 46.73860825 0 3340.35431291 0 390.04367915 0 48.80603274 0 16887
0.12350000 0.12352200 13425.30456586 0 319.05346858 0 3362.83113230 0 185.95305193 0 821.35169844 0 16407
0.12450000 0.12449800 13434.27314896 0 143.41650168 0 3716.96836929 0 -64.67012757 0 487.01509992 0 16306
0.12550000 0.12549900 13053.49589845 0 272.46112574 0 3460.35616930 0 -123.08439161 0 1140.51589027 0 17523
0.12650000 0.12650100 12964.58513015 0 231.70832701 0 3909.12856652 0 -112.02646082 0 419.48056192 0 17154
0.12750000 0.12750600 12890.73272361 0 78.95243008 0 4001.99215478 0 -128.93168635 0 204.34196899 0 18007
0.12850000 0.12850300 12682.46229377 0 292.35366451 0 4107.47819332 0 -392.27032368 0 -23.71492674 0 17496
0.12950000 0.12949900 12351.17833520 0 490.07327603 0 3914.99689868 0 -175.14092675 0 559.19004925 0 18405
0.13050000 0.13049000 12303.56733848 0 -54.34518467 0 3992.09349639 0 472.54578584 0 154.22862686 0 18100
0.13150000 0.13148800 12217.31392814 0 -243.13939516 0 3604.44033216 0 744.91390406 0 280.06670566 0 19059
0.13250000 0.13249300 12434.99583408 0 -156.63242858 0 3479.66630378 0 800.00868512 0 111.46066502 0 18957
0.13350000 0.13349100 12526.12106733 0 77.30929707 0 3011.05230048 0 309.72946385 0 397.66918926 0 19468
0.13450000 0.13450700 12630.86526012 0 209.82941317 0 3242.65211871 0 -142.21736890 0 1050.96403437 0 19953
0.13550000 0.13551000 12307.66409866 0 242.68653707 0 3176.40639932 0 -478.39086611 0 883.53941079 0 19956
0.13650000 0.13649900 12203.25207562 0 156.88266312 0 3756.48549657 0 -470.68009911 0 806.01099241 0 19723
0.13750000 0.13749600 12091.86448795 0 330.07928963 0 4041.53142670 0 -165.54675729 0 924.00875800 0 20946
0.13850000 0.13851100 11810.62743755 0 388.79914984 0 4146.17596856 0 -173.81224777 0 692.16534862 0 20955
0.13950000 0.13949800 11434.38984022 0 391.37678706 0 4252.19347870 0 293.30145552 0 700.41755231 0 20506
0.14050000 0.14048300 11202.75680501 0 115.20975420 0 3990.51015394 0 207.04915241 0 216.74075833 0 21447
0.14150000 0.14148400 11154.59219205 0 16.03649093 0 4008.75734524 0 639.65595540 0 357.27181216 0 21771
0.14250000 0.14249400 11009.84368969 0 114.76796844 0 3632.22079513 0 275.80053891 0 231.47691543 0 22470
0.14350000 0.14350900 11069.55673744 0 -29.39746529 0 3446.19466585 0 175.02688180 0 455.07587174 0 22519
0.14450000 0.14449900 10864.18725671 0 129.43104820 0 3145.35960053 0 557.37750967 0 528.11114071 0 22218
0.14550000 0.14550500 10867.63074972 0 105.34409134 0 2989.01837409 0 118.94998553 0 302.01426792 0 23559
0.14650000 0.14650700 10724.59845772 0 49.14152418 0 2712.25454293 0 206.98714739 0 373.74853872 0 23044
0.14750000 0.14750500 10693.04233198 0 179.81898398 0 2797.10176801 0 10.38265185 0 165.54343560 0 23649
0.14850000 0.14849900 10559.20006958 0 227.04355657 0 2854.02458990 0 -176.29466299 0 434.79690884 0 23640
0.14950000 0.14949500 10317.65730366 0 170.23477962 0 2713.10711194 0 168.30265894 0 482.94491331 0 24457
0.15050000 0.15050000 10358.00485530 0 173.07150924 0 2828.99006349 0 -74.07429593 0 982.44405946 0 24591
0.15150000 0.15149900 10163.27587871 0 120.12254473 0 3051.21162260 0 207.14991057 0 518.13054712 0 25020
0.15250000 0.15250500 10076.67922630 0 127.27637379 0 3003.00272034 0 119.82691365 0 717.56083282 0 25297
0.15350000 0.15350100 10048.76589544 0 189.33786163 0 3224.07275767 0 -19.95576174 0 749.64289399 0 25452
0.15450000 0.15450400 9808.23071108 0 192.70938454 0 3312.29704182 0 -291.97609824 0 698.66812499 0 26061
0.15550000 0.15549900 9638.68020113 0 298.88190722 0 3350.91731079 0 -18.15960921 0 639.70578086 0 26128
0.15650000 0.15649500 9509.34437492 0 205.74926148 0 3176.84929232 0 -119.07731726 0 648.10746093 0 26331
0.15750000 0.15749700 9225.23959240 0 167.43901761 0 2979.83941682 0 138.79712776 0 262.12068159 0 27345
0.15850000 0.15849900 9114.91494791 0 65.41762022 0 3096.02132114 0 155.85625861 0 -234.00804888 0 26980
0.15950000 0.15949700 9113.40911173 0 21.23206863 0 2925.46322963 0 64.28724658 0 -380.07969405 0 27777
0.16050000 0.16050000 9074.65597487 0 134.93067194 0 2766.50893454 0 139.76595619 0 -358.58498988 0 28224
0.16150000 0.16150500 8949.19546235 0 131.52371759 0 2823.73070920 0 42.56445251 0 217.08178593 0 28075
0.16250000 0.16249700 9067.50325303 0 5.53616241 0 2801.91822931 0 410.41675682 0 516.48519965 0 28590
0.16350000 0.16349900 8999.37523842 0 35.18286573 0 2767.48329912 0 449.15992859 0 409.90078648 0 29163
0.16450000 0.16449100 8892.83732902 0 166.98283782 0 2570.45127897 0 373.53816455 0 788.80681410 0 28996
0.16550000 0.16550500 8760.72234928 0 126.88330626 0 2659.72743399 0 154.66709093 0 724.37474152 0 30777
0.16650000 0.16650700 8568.09711441 0 161.13554309 0 2482.68096014 0 -80.48063235 0 991.87214404 0 29211
0.16750000 0.16749900 8465.44559102 0 75.21640623 0 2419.88980609 0 37.21231214 0 778.78193121 0 30922
0.16850000 0.16850800 8390.51916897 0 104.27915514 0 2475.76075712 0 21.03354184 0 925.38061904 0 30867
0.16950000 0.16949900 8341.49091467 0 54.34485251 0 2309.46551067 0 4.75148889 0 345.71230505 0 30852
0.17050000 0.17049200 8320.70816099 0 137.38208465 0 2196.40600195 0 14.80657709 0 583.40854532 0 31257
0.17150000 0.17149500 8240.15699793 0 120.29970192 0 2286.22470088 0 56.30686846 0 630.27880351 0 32608
0.17250000 0.17250900 8161.03416478 0 -60.11286940 0 2244.85849536 0 94.04002277 0 659.89395070 0 32361
0.17350000 0.17350400 8221.23439482 0 -45.28281898 0 2290.12215922 0 345.35688342 0 556.05768855 0 32508
0.17450000 0.17449800 8201.00525738 0 97.33415012 0 2102.66770004 0 352.50960525 0 690.48014078 0 32791
0.17550000 0.17549800 8175.04065568 0 86.03882868 0 1924.28147488 0 185.55112654 0 704.88080644 0 33633
0.17650000 0.17650100 8114.79613634 0 111.59021122 0 1789.78594531 0 104.52518220 0 837.57265430 0 33984
0.17750000 0.17750300 7944.48163598 0 139.97743759 0 1785.31272608 0 32.90329549 0 748.79253944 0 34069
0.17850000 0.17849800 7922.63593911 0 150.87814137 0 1838.10557082 0 -241.21059617 0 418.12863106 0 34536
