### header ###
fiducial parameters:
Omega_m = 0.31
Omega_nu = 0
Omega_de = 0.69
Omega_k = 0
H_0 = 100
w_de = -1
zeff = 0
beta = 0
fgrowth = 0
b_1 = 2
gamma = 0.55
Lx = 3500 Ly = 3500 Lz = 3500
nx = 700 ny = 700 nz = 700
xoffset = -685.467585 yoffset = -31.7331281 zoffset = 572.489161
bins = 400 dk = 0.001
kx_ny = 0.628318531 ky_ny = 0.628318531 kz_ny = 0.628318531
############################
A(data) = 7.98229454 (not used)
A(ran) = 7.98068354 (used)
Ngal = 474456
weighted Ngal = 0
Nran = 23820508
weighted Nran = 0
SN(data) = 3493.21879
SN(ran) = 69.514648
SN(data+ran) = 3562.73343
############################
13 columns: k_central k_mean P_0(k) sigma^{lin}_{P_0(k)} P^img_1(k) sigma^{lin}_{P_1(k)} P_2(k) sigma^{lin}_{P_2(k)} P^img_3(k) sigma^{lin}_{P_3(k)} P_4(k) sigma^{lin}_{P_4(k)} N_modes
### header ###
0.00050000 0 0 0 0 0 0 0 0 0 0 0 0
0.00150000 0.00179520 5217.68913056 0 -8548.37730391 0 -955.10870395 0 -26209.63224796 0 -30371.71914729 0 3
0.00250000 0.00253879 10120.93530860 0 -6253.01793506 0 873.97735107 0 95.59734525 0 6842.70781025 0 6
0.00350000 0.00331552 11112.73880423 0 -3230.73829721 0 4824.14548954 0 -5190.73909196 0 17816.36714244 0 7
0.00450000 0.00420575 12321.61522793 0 -1272.64194233 0 1080.42638348 0 8324.95993372 0 11402.28009824 0 24
0.00550000 0.00557378 42598.77672127 0 -32311.25828577 0 -6253.16187528 0 -3555.03561882 0 -41694.38923009 0 45
0.00650000 0.00659388 55817.58242926 0 -20334.43525269 0 19264.73795196 0 -25026.22217135 0 -8325.52462229 0 40
0.00750000 0.00754703 68604.78891582 0 19285.66464587 0 577.74837287 0 -37364.00299351 0 -32419.76706900 0 57
0.00850000 0.00846663 63193.19016071 0 742.44366839 0 13843.28482776 0 -30658.49236009 0 -17119.36429510 0 75
0.00950000 0.00948925 66811.51518819 0 -22480.14107930 0 5179.83285201 0 9736.16094883 0 -26315.37294998 0 112
0.01050000 0.01054430 81957.79120061 0 -11676.32013750 0 11596.04578257 0 -16892.04946658 0 -70696.12962757 0 105
0.01150000 0.01145670 95553.27739893 0 2949.97735678 0 18963.79216339 0 -14936.56618035 0 -46920.96943748 0 144
0.01250000 0.01249090 79314.27365016 0 12906.23397836 0 4116.02602808 0 -22778.76167966 0 -16758.07433627 0 169
0.01350000 0.01339930 79249.72199647 0 13653.50518037 0 6818.07188753 0 -14051.44453435 0 -764.24839765 0 180
0.01450000 0.01448870 70571.01235712 0 2466.37142568 0 31470.42593905 0 1001.81398450 0 -22919.71237460 0 267
0.01550000 0.01550050 65854.97704711 0 4602.71006549 0 35904.00624293 0 13958.76917562 0 -6884.83800618 0 238
0.01650000 0.01653350 64409.70648853 0 3140.90852596 0 35704.37222645 0 16555.67223858 0 -361.43943522 0 315
0.01750000 0.01747870 63421.94439146 0 -1753.11440551 0 33935.90050641 0 20883.40111720 0 26732.35670265 0 297
0.01850000 0.01844180 69580.48217884 0 -572.08820043 0 30160.68063625 0 10854.48790016 0 10094.61639251 0 388
0.01950000 0.01947590 63878.78851348 0 7751.32492952 0 28360.87423698 0 6507.98035866 0 22019.64309009 0 399
0.02050000 0.02045430 57619.49257025 0 7860.12159318 0 24178.63570648 0 5470.90212684 0 26972.40470472 0 462
0.02150000 0.02154770 54711.01428689 0 -2991.88610622 0 13974.60260011 0 11903.08134979 0 19516.07972535 0 571
0.02250000 0.02255340 56019.98452695 0 -6273.84497804 0 12386.60977462 0 9598.34372181 0 5953.20152362 0 510
0.02350000 0.02348930 62036.02149391 0 712.99571330 0 13258.77680058 0 -137.06984509 0 1776.10055183 0 555
0.02450000 0.02439640 60794.92460499 0 1355.54043825 0 10320.09321512 0 -9566.22290751 0 8033.43669357 0 592
0.02550000 0.02547300 60010.45039159 0 526.30745900 0 22890.81360682 0 -10502.78657462 0 5406.87087242 0 837
0.02650000 0.02652900 58138.67388100 0 5021.88613847 0 25126.64815745 0 -7900.51343412 0 3018.67005996 0 723
0.02750000 0.02749970 56779.65673276 0 3802.92282686 0 32178.27966470 0 -1024.94517828 0 -4683.95878501 0 826
0.02850000 0.02848090 54395.45302956 0 149.25272409 0 32187.46969430 0 3627.72543126 0 1904.81632785 0 831
0.02950000 0.02946900 55632.56388154 0 1237.02227339 0 31007.93493137 0 8063.12159641 0 -4396.66517294 0 996
0.03050000 0.03053250 53497.59821001 0 1845.23614800 0 30411.69023989 0 8637.12198733 0 -4813.93680605 0 1041
0.03150000 0.03150510 49688.82919565 0 517.05431715 0 20486.12610271 0 12861.28033960 0 -480.80131123 0 1036
0.03250000 0.03246190 50235.24842545 0 -1076.60310972 0 20666.82644375 0 5377.10846330 0 -3112.75160394 0 1059
0.03350000 0.03345080 49794.34845117 0 1329.69763212 0 10455.50774765 0 7004.75128397 0 4960.76690547 0 1302
0.03450000 0.03451200 50752.65816422 0 27.21289560 0 17281.13096070 0 1108.04076158 0 -1372.71361404 0 1339
0.03550000 0.03553350 46650.69398866 0 1166.93445729 0 9421.52976678 0 -5803.33760720 0 3135.44986982 0 1365
0.03650000 0.03647120 52947.96800601 0 1806.80410856 0 26018.85609134 0 -4215.77660237 0 4065.81303503 0 1308
0.03750000 0.03744890 45413.14024368 0 3058.03217469 0 20262.35441812 0 -1293.84544436 0 9031.79500549 0 1579
0.03850000 0.03847530 45790.15290375 0 3223.17589936 0 22790.27689747 0 4782.62427147 0 7896.11772117 0 1662
0.03950000 0.03950240 44515.94976362 0 1128.05952485 0 22786.84447677 0 7894.04719643 0 12599.97347387 0 1683
0.04050000 0.04050350 42656.90642657 0 226.83539686 0 18722.41548235 0 6747.98407142 0 10865.42735709 0 1822
0.04150000 0.04152450 43630.71739437 0 -529.33241814 0 17829.43248572 0 6726.70306312 0 6450.70322237 0 1887
0.04250000 0.04250150 42943.12602313 0 1252.96642113 0 13564.81585857 0 -1207.37058752 0 10076.24740564 0 1920
0.04350000 0.04349210 42439.33524389 0 1262.76542859 0 18783.64543859 0 -2230.40911147 0 7259.99051569 0 2005
0.04450000 0.04448520 40598.45051954 0 836.63372116 0 17023.69940867 0 -4929.79761295 0 6881.64917664 0 2151
0.04550000 0.04548030 42084.35651020 0 921.07791362 0 21342.34898093 0 -804.80521623 0 3979.51533539 0 2274
0.04650000 0.04648670 41313.27980983 0 222.08315505 0 22669.47783370 0 -305.65041939 0 3704.35699133 0 2311
0.04750000 0.04749250 42351.53170807 0 435.31509364 0 23162.86062762 0 2249.89640315 0 4248.25173107 0 2568
0.04850000 0.04851840 42906.80879773 0 -600.85852924 0 23722.34520070 0 3929.21376374 0 4374.35443843 0 2493
0.04950000 0.04949480 41177.75455405 0 294.03333619 0 21910.24852088 0 4147.96968519 0 7820.83698473 0 2644
0.05050000 0.05050630 42733.41619107 0 1379.41237056 0 24063.15135862 0 2316.79538970 0 3070.12315339 0 2829
0.05150000 0.05149060 41328.00600184 0 501.11349111 0 21677.28680670 0 14.76815612 0 7457.64258603 0 2784
0.05250000 0.05249300 40755.78825521 0 1182.66823085 0 21556.04484993 0 -2423.59903490 0 4514.16468391 0 3055
0.05350000 0.05348950 39406.29330631 0 1387.38444443 0 24660.83545233 0 119.78594605 0 8035.66223086 0 3009
0.05450000 0.05448610 40121.89765934 0 53.66335091 0 22318.15296720 0 1409.60660034 0 2938.52857292 0 3336
0.05550000 0.05550870 38227.20143638 0 815.82107220 0 21305.14596954 0 3064.75307585 0 1536.09683907 0 3349
0.05650000 0.05647670 37160.71510984 0 2728.79659621 0 18415.71208487 0 3256.13821034 0 -3152.29087587 0 3324
0.05750000 0.05747970 33963.24914872 0 2123.18471792 0 16518.57995044 0 2861.83057890 0 -1980.45137869 0 3639
0.05850000 0.05849280 32843.06204681 0 890.40425217 0 14122.75030618 0 1284.23466642 0 -3538.37176997 0 3846
0.05950000 0.05951020 31647.14024315 0 -460.55556530 0 11580.87669757 0 656.49696145 0 -4581.25189999 0 3787
0.06050000 0.06049470 33106.58337750 0 -866.50796075 0 12258.83514621 0 1483.70259802 0 -4003.67514815 0 3930
0.06150000 0.06148310 32763.23058487 0 -277.58096874 0 9895.98995759 0 -196.83161107 0 -4142.16778698 0 4083
0.06250000 0.06249100 33586.01504214 0 475.90180750 0 10975.74092925 0 1122.40156687 0 -4723.24339346 0 4303
0.06350000 0.06350600 33217.19590244 0 -373.11298727 0 10750.09802177 0 2872.21641958 0 -2895.41294008 0 4470
0.06450000 0.06451750 33225.83231579 0 571.46925747 0 10561.91278916 0 1482.44035299 0 -1597.99113480 0 4479
0.06550000 0.06550280 32498.38057521 0 1564.28697805 0 9895.66886017 0 707.00447834 0 -2534.21155984 0 4636
0.06650000 0.06648880 30946.48352863 0 1050.92085230 0 10387.20257584 0 535.55506469 0 -681.60788691 0 4653
0.06750000 0.06749660 30761.68642740 0 1071.11345107 0 11689.60692729 0 -557.93444761 0 -416.62611658 0 5220
0.06850000 0.06852730 29310.10464368 0 1071.45337145 0 11040.73547594 0 -1245.11614283 0 -938.47253591 0 5029
0.06950000 0.06949320 29616.91876440 0 100.89246315 0 12321.94739768 0 884.91570076 0 371.34141530 0 5040
0.07050000 0.07048030 29521.47532447 0 -746.41641853 0 12053.11135108 0 763.82211315 0 226.12012468 0 5475
0.07150000 0.07148790 28710.98114774 0 284.22768533 0 9964.60515449 0 2213.26915265 0 863.67898176 0 5509
0.07250000 0.07249820 29573.18308137 0 1022.87354630 0 10802.58084141 0 1788.02544566 0 -1479.80513969 0 5916
0.07350000 0.07351270 27675.05443771 0 749.33286889 0 8457.63960202 0 1620.93299183 0 606.32936493 0 5721
0.07450000 0.07449140 27334.24827979 0 351.36472686 0 8719.67724118 0 309.40836643 0 967.07788708 0 6028
0.07550000 0.07549160 27288.63030154 0 -231.11485040 0 8973.08953930 0 158.46489834 0 773.86249729 0 6183
0.07650000 0.07648840 27356.39292943 0 137.84933676 0 8975.24864264 0 34.96828407 0 50.48847249 0 6330
0.07750000 0.07749960 27353.40340173 0 1564.71879872 0 8762.51606590 0 -1113.01223542 0 122.69243132 0 6583
0.07850000 0.07848650 25786.33727015 0 1296.50280231 0 9426.13585391 0 -457.93474601 0 2016.24820483 0 6549
0.07950000 0.07947320 24994.44459912 0 633.62818177 0 9162.14948558 0 1929.56297382 0 1367.93036972 0 6828
0.08050000 0.08048110 24617.43193904 0 -206.95503765 0 8149.53001929 0 886.51565170 0 1252.80033626 0 7147
0.08150000 0.08149960 24587.09376904 0 -101.42138811 0 8048.00787303 0 2582.73048720 0 397.71015686 0 7386
0.08250000 0.08250610 24802.78265651 0 259.54636607 0 6780.20453665 0 685.05913055 0 477.28141917 0 7227
0.08350000 0.08350160 24425.99144293 0 591.50130753 0 6123.18385423 0 812.20485091 0 968.81292038 0 7798
0.08450000 0.08449610 23474.10367827 0 560.39582542 0 5025.27426987 0 286.13212520 0 1093.00011554 0 7371
0.08550000 0.08548940 23008.95531264 0 667.74201454 0 4714.54054616 0 930.85145474 0 604.64637156 0 8256
0.08650000 0.08650700 22978.39569614 0 -85.16555442 0 5035.39437475 0 483.14753686 0 -387.13387219 0 8037
0.08750000 0.08749060 22560.08326449 0 412.35773536 0 5028.85063078 0 264.54109180 0 721.72070526 0 8155
0.08850000 0.08849210 22115.97231601 0 775.78686735 0 5378.03853859 0 -204.29546523 0 1361.27590250 0 8718
0.08950000 0.08949900 21362.50061210 0 660.89931780 0 5908.72399482 0 267.38557205 0 2646.80603092 0 8571
0.09050000 0.09049190 20817.18861479 0 424.77091872 0 5964.08561891 0 709.66737246 0 2776.57367780 0 8932
0.09150000 0.09150830 20506.27773388 0 621.05002078 0 6424.86041624 0 1094.51923851 0 3060.34629057 0 9285
0.09250000 0.09250820 20106.01319168 0 405.35891884 0 6395.98379312 0 520.11581496 0 2377.43851273 0 9204
0.09350000 0.09350330 19670.31721007 0 523.61245514 0 5991.14638077 0 182.55274098 0 3466.40165865 0 9349
0.09450000 0.09448040 19313.67762766 0 551.51692815 0 6430.42979563 0 -293.06450776 0 3067.34399986 0 9564
0.09550000 0.09549270 19042.73783935 0 44.49568741 0 5873.01574728 0 -127.12246848 0 2294.68395704 0 10155
0.09650000 0.09649430 19086.91641538 0 -16.86049334 0 6732.78176945 0 -336.99174202 0 2351.63999591 0 9913
0.09750000 0.09749140 18659.85684712 0 536.20168846 0 5893.33346332 0 -205.42484236 0 802.36044691 0 10476
0.09850000 0.09850240 18470.18792298 0 539.93527639 0 6042.83199302 0 183.25361914 0 1491.89611839 0 10575
0.09950000 0.09950330 17789.35066988 0 754.31320060 0 5654.42591071 0 115.06581398 0 76.25930851 0 10882
0.10050000 0.10051200 17111.50294448 0 547.30723025 0 5596.40692866 0 175.97356558 0 1175.94732969 0 10875
0.10150000 0.10150300 17129.21866419 0 222.37546443 0 5572.24711591 0 159.34182647 0 1034.32454463 0 11118
0.10250000 0.10250800 16422.25072452 0 380.38418298 0 5524.37038339 0 281.74969903 0 373.31339635 0 11575
0.10350000 0.10349800 16550.91113891 0 311.35931006 0 5392.87545385 0 256.08847903 0 257.01966155 0 11364
0.10450000 0.10450100 16045.01661795 0 321.80272683 0 5270.00586533 0 330.33173864 0 153.30298051 0 12093
0.10550000 0.10551000 16073.02959974 0 158.61216026 0 5289.81425443 0 -61.38375084 0 390.36920550 0 12067
0.10650000 0.10649700 15960.20260984 0 -198.25108311 0 5241.39497800 0 -79.32246717 0 -420.02199860 0 12054
0.10750000 0.10749900 15828.33122125 0 180.64387218 0 5535.80809493 0 400.80376441 0 468.18550433 0 12807
0.10850000 0.10850100 15778.72720606 0 343.46130141 0 4894.97515140 0 -133.73486086 0 105.05742885 0 12736
0.10950000 0.10950300 15700.55659284 0 260.38232660 0 5303.72109441 0 -81.95435878 0 -187.96489335 0 12933
0.11050000 0.11050200 15319.22572609 0 157.18493759 0 5582.76582448 0 251.92196320 0 -60.89535059 0 13428
0.11150000 0.11150900 14972.77268251 0 497.61685093 0 5197.21640197 0 -326.70112333 0 -499.57997412 0 13453
0.11250000 0.11250000 14818.31375129 0 313.04341067 0 5778.41380403 0 176.01121148 0 99.50842255 0 13668
0.11350000 0.11349100 14811.33818665 0 -59.01383043 0 5637.71777256 0 139.87225050 0 -485.33764271 0 13791
0.11450000 0.11448600 14675.48076113 0 78.57818550 0 6079.39280958 0 455.86200681 0 -182.57045670 0 14205
0.11550000 0.11549300 14722.42741836 0 306.84290877 0 5518.70135308 0 107.69075987 0 -318.01045558 0 14776
0.11650000 0.11649800 14364.23771048 0 128.38692797 0 6046.35299232 0 458.59687104 0 284.03170518 0 14553
0.11750000 0.11747300 14333.12447774 0 288.94892463 0 5578.86836615 0 326.97571699 0 944.69186076 0 14568
0.11850000 0.11849100 14141.90542812 0 169.25820057 0 5409.43965177 0 511.45504249 0 852.00432247 0 16015
0.11950000 0.11950300 13873.40155127 0 256.25788560 0 5446.79767571 0 121.60291455 0 1960.89765306 0 15270
0.12050000 0.12050700 13895.32475441 0 420.40620827 0 5540.07093998 0 311.87085147 0 1647.78337951 0 15999
0.12150000 0.12150000 13424.97239611 0 107.42137020 0 5542.32969425 0 -112.91335404 0 1403.22894124 0 15670
0.12250000 0.12250700 13398.06664680 0 307.15293386 0 5630.85293117 0 103.89859934 0 1011.67278252 0 16887
0.12350000 0.12352200 13214.04460832 0 208.86390645 0 5722.45427440 0 -41.09925177 0 1661.98917225 0 16407
0.12450000 0.12449800 13137.53484382 0 -246.17764109 0 5182.37948672 0 720.96778717 0 1167.86453257 0 16306
0.12550000 0.12549900 13392.19831465 0 -453.66968649 0 4805.15645247 0 941.98689181 0 809.26182697 0 17523
0.12650000 0.12650100 13651.73360840 0 -168.87509813 0 4435.60653932 0 890.76188827 0 -58.39710194 0 17154
0.12750000 0.12750600 13559.50114266 0 409.46453689 0 4325.07152066 0 216.46505744 0 409.64501578 0 18007
0.12850000 0.12850300 13231.64960478 0 321.65103598 0 3957.43711971 0 152.67075076 0 661.33556740 0 17496
0.12950000 0.12949900 12971.33924829 0 154.11568915 0 3608.51494770 0 265.10578037 0 553.56641547 0 18405
0.13050000 0.13049000 12782.22394039 0 113.38835677 0 3341.27331587 0 79.75107686 0 358.95812723 0 18100
0.13150000 0.13148800 12604.29168055 0 210.61665547 0 3397.14426691 0 288.10299901 0 -90.00294241 0 19059
0.13250000 0.13249300 12399.01077842 0 268.18499390 0 3096.61922668 0 -360.44514045 0 92.13934749 0 18957
0.13350000 0.13349100 12148.00117478 0 306.35461924 0 3225.74467872 0 -216.00998489 0 -255.31120183 0 19468
0.13450000 0.13450700 12019.56220688 0 80.38463529 0 3187.89947249 0 -356.91749776 0 -478.77064686 0 19953
0.13550000 0.13551000 12115.89143280 0 -136.42543579 0 3367.97976334 0 235.88480794 0 -140.64731324 0 19956
0.13650000 0.13649900 12192.73336705 0 -92.73703158 0 3326.40318364 0 377.99034636 0 63.56411304 0 19723
0.13750000 0.13749600 12342.20975210 0 149.14753700 0 3380.22575459 0 293.16194422 0 -402.41368044 0 20946
0.13850000 0.13851100 12059.97619247 0 456.80979781 0 3426.62986790 0 196.19052346 0 -166.32514173 0 20955
0.13950000 0.13949800 11588.07370870 0 515.76882024 0 3349.83222296 0 -72.97514624 0 311.79334520 0 20506
0.14050000 0.14048300 11146.73084143 0 452.40411977 0 3358.81187839 0 52.51371143 0 561.00480328 0 21447
0.14150000 0.14148400 10982.76078319 0 20.01167698 0 3353.41965620 0 256.48818996 0 492.06961620 0 21771
0.14250000 0.14249400 11105.65251635 0 -108.31756417 0 3405.17170240 0 200.19206165 0 538.80036309 0 22470
0.14350000 0.14350900 11193.56677541 0 -37.29059348 0 3262.78160523 0 194.61714610 0 362.79690224 0 22519
0.14450000 0.14449900 11138.09442807 0 60.79403882 0 3207.17638999 0 -237.31867400 0 396.97716896 0 22218
0.14550000 0.14550500 11010.13157014 0 386.62454525 0 3350.36369455 0 -94.34683689 0 297.67613105 0 23559
0.14650000 0.14650700 10828.58973241 0 315.53136205 0 3436.29600747 0 92.73393133 0 628.28910674 0 23044
0.14750000 0.14750500 10402.51560107 0 219.31285938 0 3263.53452332 0 280.00359341 0 405.76527316 0 23649
0.14850000 0.14849900 10434.82464489 0 96.17288470 0 3237.11595630 0 194.57174957 0 347.61785215 0 23640
0.14950000 0.14949500 10196.32676829 0 93.00697486 0 2924.18991228 0 408.42816728 0 18.91440959 0 24457
0.15050000 0.15050000 10134.23317071 0 160.78455039 0 3127.24527713 0 -188.21291343 0 315.89564154 0 24591
0.15150000 0.15149900 9884.92870509 0 193.67932019 0 2858.24314566 0 358.71785778 0 572.40265445 0 25020
0.15250000 0.15250500 10044.86843710 0 42.20249822 0 3016.97599426 0 68.55684575 0 461.20772523 0 25297
0.15350000 0.15350100 9930.02628408 0 -2.28502889 0 3048.62069859 0 55.61971998 0 875.77660386 0 25452
0.15450000 0.15450400 10024.00817714 0 85.96719074 0 3022.03604670 0 207.64041456 0 754.66087159 0 26061
0.15550000 0.15549900 9819.81236284 0 164.68090149 0 2955.40279594 0 253.45105126 0 1033.96801577 0 26128
0.15650000 0.15649500 9804.17824019 0 78.10971543 0 2665.69541706 0 388.41161848 0 946.97386690 0 26331
0.15750000 0.15749700 9611.99589832 0 96.11696946 0 2620.68641668 0 265.70811484 0 801.71050145 0 27345
0.15850000 0.15849900 9583.65074678 0 289.77270560 0 2292.49163673 0 53.95244931 0 457.90706520 0 26980
0.15950000 0.15949700 9153.24733643 0 215.33568031 0 2219.14855713 0 -111.65221624 0 580.05141644 0 27777
0.16050000 0.16050000 9060.72699024 0 277.00077892 0 1975.85636389 0 -130.89591677 0 369.33178835 0 28224
0.16150000 0.16150500 9013.91320091 0 -49.08073712 0 2357.41974946 0 66.87584540 0 372.79631878 0 28075
0.16250000 0.16249700 8896.12580949 0 26.52065385 0 2336.30482603 0 171.70629159 0 177.85032463 0 28590
0.16350000 0.16349900 8953.69082622 0 148.20749663 0 2288.22879167 0 13.51720486 0 30.88115681 0 29163
0.16450000 0.16449100 8684.48939291 0 200.00936829 0 2529.36188157 0 -27.56543842 0 327.80392688 0 28996
0.16550000 0.16550500 8771.81681875 0 166.27753073 0 2589.21886954 0 -277.35287885 0 473.73716799 0 30777
0.16650000 0.16650700 8588.16016698 0 81.92712086 0 2762.62254853 0 -94.69074330 0 874.32391484 0 29211
0.16750000 0.16749900 8563.03706197 0 168.50638972 0 2826.64273063 0 152.98409755 0 705.67247767 0 30922
0.16850000 0.16850800 8483.62634837 0 72.48995697 0 2780.21647266 0 97.00596642 0 766.49165066 0 30867
0.16950000 0.16949900 8550.81321537 0 22.71576015 0 2861.69771100 0 226.43679317 0 742.13696499 0 30852
0.17050000 0.17049200 8320.48671449 0 13.68672215 0 2640.30657625 0 200.41018645 0 533.42696386 0 31257
0.17150000 0.17149500 8453.23281674 0 112.83916946 0 2659.66100004 0 260.49083538 0 708.26672337 0 32608
0.17250000 0.17250900 8279.58554661 0 26.78594675 0 2610.06805717 0 3.09038551 0 408.15689532 0 32361
0.17350000 0.17350400 8350.39306383 0 65.53255095 0 2364.41745875 0 -34.40370623 0 519.29203399 0 32508
0.17450000 0.17449800 8236.56956469 0 148.22410511 0 2360.38713251 0 73.50008516 0 309.97526946 0 32791
0.17550000 0.17549800 8126.36671577 0 145.72508140 0 2161.82713154 0 64.95247185 0 259.45003685 0 33633
0.17650000 0.17650100 8051.47351070 0 100.49817766 0 2187.47063582 0 44.33646738 0 380.78389391 0 33984
0.17750000 0.17750300 7953.00732609 0 103.04780190 0 2188.93218270 0 183.95671177 0 338.35474520 0 34069
0.17850000 0.17849800 7890.92480083 0 155.75660769 0 2051.74607819 0 186.98609984 0 227.81640484 0 34536
