### header ###
fiducial parameters:
Omega_m = 0.31
Omega_nu = 0
Omega_de = 0.69
Omega_k = 0
H_0 = 100
w_de = -1
zeff = 0
beta = 0
fgrowth = 0
b_1 = 2
gamma = 0.55
Lx = 3500 Ly = 3500 Lz = 3500
nx = 700 ny = 700 nz = 700
xoffset = -685.467585 yoffset = -31.7331281 zoffset = 572.489161
bins = 400 dk = 0.001
kx_ny = 0.628318531 ky_ny = 0.628318531 kz_ny = 0.628318531
############################
A(data) = 8.0581108 (not used)
A(ran) = 8.05385706 (used)
Ngal = 478658
weighted Ngal = 0
Nran = 23820508
weighted Nran = 0
SN(data) = 3487.69643
SN(ran) = 70.1520158
SN(data+ran) = 3557.84845
############################
13 columns: k_central k_mean P_0(k) sigma^{lin}_{P_0(k)} P^img_1(k) sigma^{lin}_{P_1(k)} P_2(k) sigma^{lin}_{P_2(k)} P^img_3(k) sigma^{lin}_{P_3(k)} P_4(k) sigma^{lin}_{P_4(k)} N_modes
### header ###
0.00050000 0 0 0 0 0 0 0 0 0 0 0 0
0.00150000 0.00179520 62903.87031320 0 -21740.95267440 0 -38092.45124333 0 119792.58944542 0 -85141.52747897 0 3
0.00250000 0.00253879 121436.82968099 0 -20472.17497344 0 18736.14516512 0 -9165.41582140 0 61119.56516867 0 6
0.00350000 0.00331552 125985.34071649 0 -21269.27163713 0 39930.23571673 0 -151446.15163696 0 123867.20497868 0 7
0.00450000 0.00420575 131056.46548343 0 -2971.38016066 0 40023.13252196 0 4552.91782078 0 56783.53204644 0 24
0.00550000 0.00557378 126022.98662087 0 19062.77874727 0 77153.95235479 0 28088.60576969 0 -5142.86235944 0 45
0.00650000 0.00659388 132203.55833464 0 34702.88044660 0 137624.56856585 0 84263.71356734 0 22008.57076527 0 40
0.00750000 0.00754703 106405.59512343 0 8348.42219001 0 104602.13485697 0 59037.63593302 0 40623.25252713 0 57
0.00850000 0.00846663 108380.56570133 0 -9027.72038996 0 115953.81443079 0 47047.74755665 0 41219.60794186 0 75
0.00950000 0.00948925 117492.86758058 0 13462.28613075 0 107066.61291511 0 60332.65504381 0 14848.31975155 0 112
0.01050000 0.01054430 93119.69112704 0 9634.42842840 0 90029.51599341 0 62494.30501816 0 64873.19400544 0 105
0.01150000 0.01145670 83688.28484652 0 17888.44797700 0 44202.04935501 0 48742.14542365 0 47214.16459868 0 144
0.01250000 0.01249090 76494.04179560 0 2052.59864721 0 34946.25014612 0 41473.38562671 0 32702.44352162 0 169
0.01350000 0.01339930 72686.60146022 0 -3827.31515844 0 26224.57988647 0 8905.64800883 0 -3665.98031350 0 180
0.01450000 0.01448870 69573.94950720 0 5559.95683536 0 15270.06460389 0 -23172.27210371 0 964.72169636 0 267
0.01550000 0.01550050 69859.61548752 0 2499.30051969 0 33574.27837784 0 -34605.00109520 0 24884.60713691 0 238
0.01650000 0.01653350 62231.33730371 0 7069.31400999 0 47237.08431105 0 -8535.35624992 0 17722.47382797 0 315
0.01750000 0.01747870 74253.44614530 0 -1342.67439681 0 62803.99794333 0 7542.39016019 0 19753.02747647 0 297
0.01850000 0.01844180 77854.71979257 0 -10702.29879553 0 59162.42103373 0 21143.26858069 0 1942.93834220 0 388
0.01950000 0.01947590 81610.00947806 0 -2084.27656851 0 60504.82969474 0 24063.26208187 0 17961.30387431 0 399
0.02050000 0.02045430 88953.06457454 0 556.61019756 0 50531.87600734 0 21025.01615163 0 15364.73298109 0 462
0.02150000 0.02154770 80539.20494485 0 4793.57480071 0 38887.66561181 0 10713.24932478 0 13562.49067036 0 571
0.02250000 0.02255340 80324.51256661 0 3909.03998792 0 28797.56672782 0 5627.01083446 0 13786.48380144 0 510
0.02350000 0.02348930 70307.49102643 0 4286.26302217 0 23750.24745924 0 11103.32732814 0 14160.72838031 0 555
0.02450000 0.02439640 77105.34484884 0 -1298.94978610 0 19770.52174968 0 13260.10547956 0 -1670.74738118 0 592
0.02550000 0.02547300 69770.81544247 0 130.00348739 0 11681.08123718 0 -883.60473750 0 -9711.07106079 0 837
0.02650000 0.02652900 73524.77644899 0 3253.35905681 0 17458.84177404 0 -5434.65133539 0 -2341.07699803 0 723
0.02750000 0.02749970 66186.03955919 0 2665.52933219 0 24450.01838778 0 -10399.38213314 0 1318.10490804 0 826
0.02850000 0.02848090 67767.05682004 0 2264.45651029 0 23373.34552242 0 1656.09869545 0 809.75454543 0 831
0.02950000 0.02946900 64161.24351960 0 2963.36379749 0 27766.29039422 0 2774.93497372 0 -1723.61773219 0 996
0.03050000 0.03053250 64461.85713843 0 5354.53199300 0 31513.94017558 0 6612.27058612 0 339.51069591 0 1041
0.03150000 0.03150510 58730.71108905 0 2892.74450979 0 30352.34257886 0 9413.87879034 0 14726.41345530 0 1036
0.03250000 0.03246190 56299.11783563 0 2727.11360283 0 21270.04669987 0 8573.99866354 0 15769.86934621 0 1059
0.03350000 0.03345080 56778.54950027 0 -411.84397949 0 22282.61080453 0 12564.09914146 0 18818.08036878 0 1302
0.03450000 0.03451200 57931.62140689 0 -1590.61696647 0 21438.23531386 0 5980.78268474 0 11348.35787638 0 1339
0.03550000 0.03553350 56949.72764197 0 -125.45608359 0 20525.21140932 0 159.72714337 0 13962.97665905 0 1365
0.03650000 0.03647120 55803.18840700 0 3468.97043801 0 24350.47818766 0 -8068.60239719 0 9334.66737858 0 1308
0.03750000 0.03744890 53288.66344068 0 4290.89125394 0 18235.12246708 0 -2490.71946795 0 14430.89310589 0 1579
0.03850000 0.03847530 50995.36352425 0 496.71667092 0 18384.70957538 0 3782.60511082 0 7573.95735825 0 1662
0.03950000 0.03950240 49988.22485874 0 868.94497944 0 17076.95729105 0 2945.91381357 0 3164.44828852 0 1683
0.04050000 0.04050350 49235.97111056 0 2340.47909249 0 15941.93327389 0 2687.49682463 0 -3767.34744722 0 1822
0.04150000 0.04152450 45336.51975593 0 4185.89239769 0 14728.18502727 0 -717.26741622 0 -1709.93233872 0 1887
0.04250000 0.04250150 42283.99052668 0 2676.11447472 0 12664.96802056 0 2939.27041868 0 -912.09715096 0 1920
0.04350000 0.04349210 39985.04372458 0 1095.63311438 0 14310.31548861 0 -125.02204846 0 -1444.72801466 0 2005
0.04450000 0.04448520 39624.97172148 0 1500.01213248 0 14965.57567138 0 -479.53020834 0 266.20415499 0 2151
0.04550000 0.04548030 39828.48105165 0 558.03188407 0 15479.66371271 0 726.25925120 0 -3936.49935347 0 2274
0.04650000 0.04648670 39251.94509834 0 898.27446065 0 15238.28703166 0 -1196.63043245 0 -2087.62041061 0 2311
0.04750000 0.04749250 38882.35089590 0 859.06292954 0 16132.59870726 0 -477.10647644 0 -3228.99994221 0 2568
0.04850000 0.04851840 39128.82084636 0 22.72229282 0 16779.00103018 0 1377.10932699 0 -2647.09391137 0 2493
0.04950000 0.04949480 38019.48462278 0 137.13627904 0 16462.77543336 0 1142.35389619 0 -1779.37795998 0 2644
0.05050000 0.05050630 37699.71588202 0 732.68341406 0 19061.22862180 0 2720.99060721 0 -5370.68651491 0 2829
0.05150000 0.05149060 38664.11537372 0 -195.04785954 0 16032.72633740 0 1399.69686962 0 -3907.41235618 0 2784
0.05250000 0.05249300 36636.10835994 0 497.85047698 0 18405.96843903 0 4.58328921 0 -620.38789575 0 3055
0.05350000 0.05348950 37513.03648557 0 761.73387269 0 14379.07462574 0 41.50660260 0 -2763.86264891 0 3009
0.05450000 0.05448610 37367.76758395 0 -1184.62803235 0 15010.19714040 0 2060.94718012 0 -736.54544096 0 3336
0.05550000 0.05550870 38154.12409257 0 -747.61998024 0 14111.89942786 0 2667.04624069 0 -1972.18035205 0 3349
0.05650000 0.05647670 37181.30963401 0 1520.61772897 0 12011.70085626 0 1716.46501036 0 -4984.89350125 0 3324
0.05750000 0.05747970 35832.92191759 0 2701.91299155 0 10402.80348151 0 645.35155929 0 -2694.36166602 0 3639
0.05850000 0.05849280 32857.56679233 0 1371.49565831 0 10705.93051807 0 756.81554600 0 -1972.73396829 0 3846
0.05950000 0.05951020 33203.24477316 0 448.61074128 0 10629.38753660 0 -64.93741349 0 -4203.39774323 0 3787
0.06050000 0.06049470 32455.86284791 0 293.31695677 0 10777.43559175 0 794.70725600 0 -3415.40253053 0 3930
0.06150000 0.06148310 32169.64325134 0 846.39176102 0 9307.48482115 0 -498.43288127 0 -3435.38807683 0 4083
0.06250000 0.06249100 31726.86098185 0 659.27832944 0 9130.54907055 0 -545.33746367 0 -2775.75432576 0 4303
0.06350000 0.06350600 31381.73661725 0 -113.92425729 0 9134.26937169 0 1418.28730299 0 -3056.06130087 0 4470
0.06450000 0.06451750 30550.75863961 0 673.95691046 0 7942.31146031 0 1969.87730849 0 -3272.76884222 0 4479
0.06550000 0.06550280 30372.49421003 0 569.91691753 0 7179.70508843 0 819.53362271 0 -6185.53211529 0 4636
0.06650000 0.06648880 30221.13552976 0 -1.15796587 0 7946.34178655 0 -681.06977192 0 -4827.20145119 0 4653
0.06750000 0.06749660 29634.52376087 0 574.66583765 0 8256.43331542 0 -1157.55619817 0 -5209.75027367 0 5220
0.06850000 0.06852730 29243.11707853 0 614.92923962 0 8996.07568563 0 -943.76953610 0 -3374.54565195 0 5029
0.06950000 0.06949320 30084.72448799 0 -49.35510933 0 10909.89381356 0 474.51665966 0 -2214.86356742 0 5040
0.07050000 0.07048030 29287.29565455 0 367.64436605 0 9959.31258323 0 1874.28992833 0 -1828.43943125 0 5475
0.07150000 0.07148790 29360.04082861 0 463.89387123 0 10222.74533531 0 2013.75693174 0 -1575.82434051 0 5509
0.07250000 0.07249820 28607.78708043 0 925.27100303 0 8670.85936105 0 1214.53438168 0 495.84417173 0 5916
0.07350000 0.07351270 28204.31156404 0 241.91590327 0 8906.37878227 0 1180.94094818 0 1763.10164250 0 5721
0.07450000 0.07449140 28154.59682561 0 253.43665724 0 8126.70995784 0 623.86128405 0 2118.36825663 0 6028
0.07550000 0.07549160 28130.23771100 0 633.63150347 0 9724.32463360 0 -520.59746109 0 287.43533783 0 6183
0.07650000 0.07648840 27253.42030862 0 866.77369655 0 9811.48597457 0 -1948.09804557 0 1701.41772093 0 6330
0.07750000 0.07749960 26390.77548200 0 1197.95911143 0 10870.29918001 0 -915.73662413 0 1703.15607593 0 6583
0.07850000 0.07848650 25938.58173640 0 1079.65796414 0 11254.35383866 0 -1208.96500230 0 2688.22759807 0 6549
0.07950000 0.07947320 25683.14320284 0 363.84102247 0 12496.33651357 0 1064.26189648 0 5.09440987 0 6828
0.08050000 0.08048110 24675.00802810 0 2.09881453 0 11746.29723036 0 1130.20755586 0 951.56888170 0 7147
0.08150000 0.08149960 24711.65742325 0 -63.56621678 0 11613.31860929 0 1172.44847505 0 -70.07619016 0 7386
0.08250000 0.08250610 24673.23645613 0 111.49720369 0 10811.38333965 0 1385.82324663 0 -325.47763144 0 7227
0.08350000 0.08350160 24666.48233799 0 448.61074128 0 9806.93524907 0 478.30118028 0 497.92023263 0 7798
0.08450000 0.08449610 24122.05612665 0 341.89899638 0 8480.80290554 0 974.38451423 0 -179.51006612 0 7371
0.08550000 0.08548940 23687.79954727 0 494.36380190 0 8701.79543660 0 705.71787420 0 482.52416497 0 8256
0.08650000 0.08650700 23328.72405340 0 865.08848871 0 8871.42345282 0 -286.94151214 0 -1144.93374787 0 8037
0.08750000 0.08749060 22359.67418527 0 531.50148657 0 8093.73657453 0 1278.01201987 0 561.66360661 0 8155
0.08850000 0.08849210 21877.14226967 0 552.50900845 0 7833.39300107 0 1013.62815508 0 329.80912491 0 8718
0.08950000 0.08949900 21426.05575656 0 211.81689548 0 7019.53283760 0 1629.01578894 0 450.67019370 0 8571
0.09050000 0.09049190 20801.24446705 0 117.33564057 0 6078.48487894 0 1168.81675251 0 123.50846165 0 8932
0.09150000 0.09150830 21225.86812384 0 135.58172464 0 5462.55359393 0 1000.49416338 0 29.74978666 0 9285
0.09250000 0.09250820 20411.27718693 0 -65.89339801 0 4351.67831720 0 971.21782933 0 731.23183228 0 9204
0.09350000 0.09350330 20522.88622111 0 838.38979187 0 4182.75892977 0 -209.93792196 0 752.06551866 0 9349
0.09450000 0.09448040 19843.26692374 0 677.00401425 0 4887.52347680 0 -400.07188374 0 595.36776336 0 9564
0.09550000 0.09549270 19067.09695395 0 862.91720581 0 4864.84735557 0 -372.98676277 0 869.57278026 0 10155
0.09650000 0.09649430 18475.83480863 0 716.35062772 0 5385.44592389 0 -375.81131283 0 1196.57507083 0 9913
0.09750000 0.09749140 17950.23154949 0 444.59480907 0 6188.36663044 0 -288.66104418 0 487.26754892 0 10476
0.09850000 0.09850240 18125.39572812 0 195.43206921 0 6669.41485451 0 -387.23463035 0 1179.76728175 0 10575
0.09950000 0.09950330 17879.47939390 0 685.21303587 0 7345.33599539 0 -271.35278603 0 293.38449795 0 10882
0.10050000 0.10051200 17315.67661414 0 674.80615777 0 7155.29061220 0 -787.22457889 0 1133.26351751 0 10875
0.10150000 0.10150300 16827.82998263 0 351.37026303 0 7010.54210985 0 891.73514562 0 1942.13006249 0 11118
0.10250000 0.10250800 16997.12582910 0 -240.22183757 0 6671.74004272 0 451.80399976 0 1931.64457089 0 11575
0.10350000 0.10349800 16892.71380606 0 -332.70010892 0 7003.13472455 0 1380.19850562 0 423.04695774 0 11364
0.10450000 0.10450100 17044.40465608 0 333.88152598 0 6934.54167229 0 -89.60710680 0 390.95603872 0 12093
0.10550000 0.10551000 16742.46235828 0 789.92844061 0 6976.86009775 0 -424.75763193 0 399.59245208 0 12067
0.10650000 0.10649700 16052.87796857 0 57.82565926 0 6648.15599086 0 -675.91006855 0 859.21129869 0 12054
0.10750000 0.10749900 15897.42252812 0 225.94407471 0 6982.59556201 0 834.67281243 0 1078.37689615 0 12807
0.10850000 0.10850100 16355.48460586 0 -321.35540491 0 6378.86597895 0 797.54952178 0 85.71828488 0 12736
0.10950000 0.10950300 16330.12898203 0 -176.80620440 0 6202.12953019 0 1094.19814109 0 -246.53970611 0 12933
0.11050000 0.11050200 16155.96131263 0 640.86948220 0 5837.92754993 0 107.26259306 0 164.82816341 0 13428
0.11150000 0.11150900 15793.45339807 0 594.69567324 0 5661.24646280 0 84.79894975 0 -515.61159322 0 13453
0.11250000 0.11250000 15192.22616042 0 377.36365277 0 5722.01138140 0 161.19976257 0 652.46220629 0 13668
0.11350000 0.11349100 15021.04801872 0 301.48390356 0 5445.62400928 0 455.87750806 0 452.44840906 0 13791
0.11450000 0.11448600 14567.96848714 0 83.30684326 0 5027.10120346 0 897.08529297 0 865.60556628 0 14205
0.11550000 0.11549300 14960.81457171 0 -296.97636012 0 4498.51948894 0 749.08927775 0 385.16853454 0 14776
0.11650000 0.11649800 14826.17510191 0 -167.41576572 0 4485.02232499 0 624.15137896 0 564.31321394 0 14553
0.11750000 0.11747300 14861.82798783 0 225.06161043 0 4141.13806077 0 -69.47474148 0 -195.64576508 0 14568
0.11850000 0.11849100 14800.59803158 0 136.69006435 0 4207.32841854 0 -323.24766522 0 333.00570508 0 16015
0.11950000 0.11950300 14593.98845046 0 92.02851352 0 3899.52886090 0 -288.81605673 0 -200.77225147 0 15270
0.12050000 0.12050700 14484.04026502 0 136.05008398 0 4189.45768628 0 75.82859507 0 531.77829469 0 15999
0.12150000 0.12150000 14591.44181576 0 71.43675743 0 4331.05057606 0 902.25053250 0 -336.58095877 0 15670
0.12250000 0.12250700 14339.76787263 0 210.18262033 0 3925.31630541 0 278.53761760 0 -128.46775594 0 16887
0.12350000 0.12352200 14049.89440888 0 561.95480875 0 4201.99155798 0 251.48239191 0 128.45668362 0 16407
0.12450000 0.12449800 13753.26682699 0 435.47121342 0 4079.18840341 0 -328.14163279 0 177.50265363 0 16306
0.12550000 0.12549900 13511.55797619 0 26.18815194 0 4163.84739898 0 247.09110789 0 793.82811341 0 17523
0.12650000 0.12650100 13480.99835969 0 -49.15359301 0 3809.24512433 0 172.90320990 0 443.81199571 0 17154
0.12750000 0.12750600 13642.98647179 0 1.60431343 0 3939.38923025 0 281.06985829 0 -11.94427040 0 18007
0.12850000 0.12850300 13546.43579937 0 378.42881042 0 4048.07517067 0 -240.87953366 0 275.50490784 0 17496
0.12950000 0.12949900 13163.55480714 0 460.54117127 0 3871.53802376 0 -141.26957790 0 312.71788432 0 18405
0.13050000 0.13049000 12830.49927660 0 175.13981952 0 3897.58013174 0 80.17536835 0 505.08291955 0 18100
0.13150000 0.13148800 12716.45433097 0 -57.28743355 0 3687.10630926 0 265.78229941 0 -435.02499873 0 19059
0.13250000 0.13249300 12990.38364698 0 -17.25034990 0 3991.45130155 0 568.21620844 0 -363.49113701 0 18957
0.13350000 0.13349100 12747.89973345 0 96.54115022 0 3267.84165768 0 -106.35864847 0 -151.76614182 0 19468
0.13450000 0.13450700 12605.50963628 0 298.24746301 0 3094.01723035 0 58.52875188 0 -33.97487509 0 19953
0.13550000 0.13551000 12569.96747362 0 168.81087865 0 2894.91468546 0 144.62892125 0 -233.06690127 0 19956
0.13650000 0.13649900 12250.30945610 0 128.11233431 0 2985.33128993 0 563.76734833 0 -186.09477769 0 19723
0.13750000 0.13749600 12191.29396482 0 196.84711232 0 2777.74734423 0 459.73621326 0 69.68600143 0 20946
0.13850000 0.13851100 11890.34817625 0 205.50788480 0 2887.39657691 0 546.08373836 0 456.09452563 0 20955
0.13950000 0.13949800 11878.50078869 0 219.76793193 0 2679.44724449 0 194.48759990 0 620.22291811 0 20506
0.14050000 0.14048300 11557.18192245 0 141.81655074 0 2869.76943580 0 189.80179204 0 510.85492248 0 21447
0.14150000 0.14148400 11591.94902239 0 156.62689242 0 2860.78978037 0 -178.58441977 0 485.36089459 0 21771
0.14250000 0.14249400 11517.54299960 0 77.49464779 0 2958.25945575 0 -556.22488066 0 516.24935913 0 22470
0.14350000 0.14350900 11329.20275444 0 219.00615598 0 3068.28514747 0 -315.70409032 0 482.15988548 0 22519
0.14450000 0.14449900 11278.38078352 0 89.86221317 0 2841.78967098 0 -78.78169483 0 305.26399525 0 22218
0.14550000 0.14550500 11180.72287862 0 199.36274452 0 2887.88375920 0 219.69706905 0 -205.52892221 0 23559
0.14650000 0.14650700 11120.82160135 0 63.31144259 0 2575.98744138 0 353.92797006 0 -423.19754136 0 23044
0.14750000 0.14750500 10964.96755720 0 -34.27836751 0 2635.81121238 0 -99.75533539 0 -1165.93794805 0 23649
0.14850000 0.14849900 10862.92501168 0 272.14335002 0 2968.53457318 0 -47.97560838 0 -785.34781983 0 23640
0.14950000 0.14949500 10715.55236834 0 399.77957437 0 2856.23905487 0 -349.75923977 0 -681.43958757 0 24457
0.15050000 0.15050000 10473.30097363 0 134.40695097 0 2977.60280720 0 211.41275562 0 -25.19662525 0 24591
0.15150000 0.15149900 10489.09010882 0 42.09044629 0 3312.79529644 0 115.00491619 0 -212.89201822 0 25020
0.15250000 0.15250500 10270.77708037 0 362.01851781 0 3250.33631214 0 361.83914614 0 281.28798309 0 25297
0.15350000 0.15350100 10025.38114542 0 297.96401150 0 3057.21282265 0 263.79592434 0 643.69181780 0 25452
0.15450000 0.15450400 9795.12107849 0 113.17133920 0 2884.34061526 0 537.60455201 0 1118.26051738 0 26061
0.15550000 0.15549900 9879.43683198 0 -122.81533412 0 2731.16607372 0 520.14903194 0 721.51918895 0 26128
0.15650000 0.15649500 9740.98848245 0 -4.60758189 0 2485.79228341 0 154.30834760 0 481.21873787 0 26331
0.15750000 0.15749700 9719.38637673 0 256.64430974 0 2624.31813922 0 -294.00897707 0 707.05319657 0 27345
0.15850000 0.15849900 9423.98782289 0 311.69147981 0 2624.45100711 0 -370.04152437 0 482.04362607 0 26980
0.15950000 0.15949700 9284.72012133 0 241.91147434 0 2579.04340303 0 -337.84652549 0 806.77941175 0 27777
0.16050000 0.16050000 9163.17921179 0 262.91013835 0 2891.19438432 0 -58.07445440 0 278.02939789 0 28224
0.16150000 0.16150500 9054.18324628 0 13.71296356 0 2711.41304624 0 5.39497920 0 109.38626496 0 28075
0.16250000 0.16249700 9006.77155140 0 -61.17902355 0 2760.02055219 0 264.90980022 0 147.97054888 0 28590
0.16350000 0.16349900 9164.58539704 0 36.40436460 0 2729.29485082 0 -135.67030324 0 -406.06865486 0 29163
0.16450000 0.16449100 8979.42290910 0 100.98635646 0 2772.05616927 0 150.26473458 0 72.49593603 0 28996
0.16550000 0.16550500 8955.92743584 0 92.50462348 0 2621.24003292 0 172.71608761 0 -192.98287096 0 30777
0.16650000 0.16650700 8939.27465931 0 95.71703708 0 2360.36498786 0 -29.91775383 0 118.26903755 0 29211
0.16750000 0.16749900 8717.85030759 0 218.47136269 0 2364.45067572 0 546.28968360 0 -96.27253562 0 30922
0.16850000 0.16850800 8665.85467024 0 169.21834020 0 2131.02392390 0 333.03117143 0 234.22617368 0 30867
0.16950000 0.16949900 8505.02915225 0 212.67721512 0 2094.92814499 0 321.19817790 0 135.19419327 0 30852
0.17050000 0.17049200 8199.57692747 0 250.94427692 0 2106.14441003 0 214.14319092 0 327.17501883 0 31257
0.17150000 0.17149500 8067.00798242 0 176.11307687 0 2127.07110394 0 -27.00528951 0 749.17453465 0 32608
0.17250000 0.17250900 7954.15884787 0 73.70802342 0 2131.96507151 0 -86.92871143 0 473.56111803 0 32361
0.17350000 0.17350400 8049.35869666 0 15.30206362 0 2122.26571496 0 24.04853589 0 410.83639793 0 32508
0.17450000 0.17449800 8037.90991280 0 4.59179275 0 2376.41985885 0 -394.00092804 0 421.77253315 0 32791
0.17550000 0.17549800 8034.94252975 0 50.99414557 0 2515.47718625 0 -103.73539327 0 266.93603566 0 33633
0.17650000 0.17650100 8004.59328742 0 161.21969275 0 2602.49458700 0 -260.10441124 0 185.11819864 0 33984
0.17750000 0.17750300 7851.24158868 0 202.29912506 0 2465.39706109 0 88.97687007 0 27.47431319 0 34069
0.17850000 0.17849800 7647.16756995 0 145.77933579 0 2428.40442388 0 226.87304277 0 124.43742971 0 34536
