### header ###
fiducial parameters:
Omega_m = 0.31
Omega_nu = 0
Omega_de = 0.69
Omega_k = 0
H_0 = 100
w_de = -1
zeff = 0
beta = 0
fgrowth = 0
b_1 = 2
gamma = 0.55
Lx = 3500 Ly = 3500 Lz = 3500
nx = 700 ny = 700 nz = 700
xoffset = -685.467585 yoffset = -31.7331281 zoffset = 572.489161
bins = 400 dk = 0.001
kx_ny = 0.628318531 ky_ny = 0.628318531 kz_ny = 0.628318531
############################
A(data) = 8.06638567 (not used)
A(ran) = 8.06184944 (used)
Ngal = 479540
weighted Ngal = 0
Nran = 23820508
weighted Nran = 0
SN(data) = 3491.17277
SN(ran) = 70.2216324
SN(data+ran) = 3561.3944
############################
13 columns: k_central k_mean P_0(k) sigma^{lin}_{P_0(k)} P^img_1(k) sigma^{lin}_{P_1(k)} P_2(k) sigma^{lin}_{P_2(k)} P^img_3(k) sigma^{lin}_{P_3(k)} P_4(k) sigma^{lin}_{P_4(k)} N_modes
### header ###
0.00050000 0 0 0 0 0 0 0 0 0 0 0 0
0.00150000 0.00179520 5756.54596251 0 -18798.92524684 0 -19145.48901367 0 12238.12989880 0 10937.62998723 0 3
0.00250000 0.00253879 14797.16561089 0 -23259.41130003 0 -13922.11978047 0 -8737.17151439 0 -5267.53673690 0 6
0.00350000 0.00331552 29441.09024628 0 -30681.74424221 0 -25615.04840520 0 -27898.71539905 0 -58927.02340808 0 7
0.00450000 0.00420575 47198.55262068 0 -32950.90649055 0 -43582.88495116 0 642.72852554 0 10826.04309771 0 24
0.00550000 0.00557378 71037.93229472 0 -17013.95576283 0 -37416.59653640 0 -48555.79819695 0 -24502.83337717 0 45
0.00650000 0.00659388 77362.99784737 0 98.17509319 0 -55394.06600495 0 -25229.73150151 0 16333.33995623 0 40
0.00750000 0.00754703 83540.69075669 0 -933.75461830 0 -48204.58405371 0 -38927.41525791 0 -6768.15784724 0 57
0.00850000 0.00846663 76243.69653145 0 -13404.26714870 0 -61456.49601290 0 -38931.73346459 0 -23267.49409715 0 75
0.00950000 0.00948925 97442.65890599 0 -7301.24599796 0 -27439.65681207 0 -58862.47175439 0 -74454.63028726 0 112
0.01050000 0.01054430 99218.32763715 0 9984.69035171 0 -16527.21636380 0 -63486.38532191 0 -47325.10929336 0 105
0.01150000 0.01145670 82484.94458523 0 16985.16771830 0 -1056.38061567 0 -48137.92865830 0 -39475.05244344 0 144
0.01250000 0.01249090 76715.59901522 0 5794.75655546 0 11760.24835963 0 -33824.18074899 0 -43869.65816396 0 169
0.01350000 0.01339930 77158.15983823 0 -1215.94056693 0 29362.47674007 0 -11091.47994058 0 -64136.22006551 0 180
0.01450000 0.01448870 73374.85717094 0 5947.85359073 0 26705.34023009 0 4294.95479715 0 -41603.81761307 0 267
0.01550000 0.01550050 72398.61029168 0 4882.39699041 0 25020.68600894 0 8668.23522007 0 -21995.61614523 0 238
0.01650000 0.01653350 69529.99237767 0 -5528.09068453 0 29825.29991749 0 13302.95537661 0 -19282.56439492 0 315
0.01750000 0.01747870 78450.18942131 0 -1846.16622329 0 33981.07559167 0 12520.14201193 0 -11137.43008858 0 297
0.01850000 0.01844180 74689.03140367 0 3638.34379076 0 17489.62283704 0 7587.59846242 0 -2980.81378140 0 388
0.01950000 0.01947590 74711.72966955 0 5088.44188296 0 37333.77554676 0 1015.69757259 0 12762.40447896 0 399
0.02050000 0.02045430 68455.09108427 0 8661.53646356 0 40113.26124598 0 -1368.27361179 0 13540.34602072 0 462
0.02150000 0.02154770 64328.87851736 0 3500.83658883 0 30401.28225456 0 12459.79784167 0 6996.00414736 0 571
0.02250000 0.02255340 61478.19776955 0 -3288.77942391 0 26989.12391519 0 18313.29308030 0 8878.18864328 0 510
0.02350000 0.02348930 65106.93078236 0 -1540.88008339 0 17866.74622036 0 19257.87311058 0 7125.88251749 0 555
0.02450000 0.02439640 64003.35216769 0 -4693.63599690 0 16621.88474100 0 7736.43265263 0 7038.82082744 0 592
0.02550000 0.02547300 64995.21102494 0 536.74976854 0 4394.78287772 0 7491.84499739 0 -217.73616033 0 837
0.02650000 0.02652900 63206.36622724 0 2447.41560559 0 6087.84099341 0 -7920.28860625 0 -2180.49507119 0 723
0.02750000 0.02749970 60779.97696648 0 5527.38205574 0 7543.88492404 0 -4573.89987631 0 -8136.24322951 0 826
0.02850000 0.02848090 57997.72318605 0 3327.51041612 0 13934.41006102 0 -8693.94515830 0 3093.13144436 0 831
0.02950000 0.02946900 55380.11487568 0 -905.80696323 0 21193.31548887 0 2997.13438818 0 3979.34925052 0 996
0.03050000 0.03053250 59913.78899592 0 1043.22005039 0 19928.85599459 0 5815.70539402 0 2014.84201957 0 1041
0.03150000 0.03150510 60028.71972754 0 -188.32363668 0 18937.21858383 0 5282.44008610 0 13221.24161945 0 1036
0.03250000 0.03246190 59050.25838332 0 -629.12728173 0 17797.21202050 0 6205.61731251 0 8638.18493052 0 1059
0.03350000 0.03345080 59186.22653209 0 314.12739127 0 9783.77194555 0 7778.82858437 0 18442.17494119 0 1302
0.03450000 0.03451200 59758.88717171 0 -902.88165501 0 11710.31217470 0 3478.07188901 0 5954.95095094 0 1339
0.03550000 0.03553350 58571.38033491 0 1087.22589815 0 10925.91546757 0 -3075.29392908 0 4681.58930750 0 1365
0.03650000 0.03647120 56351.37920877 0 5141.07971514 0 14751.32618614 0 -7976.91247537 0 -3503.29464494 0 1308
0.03750000 0.03744890 51794.12103666 0 6890.07521582 0 16538.62085836 0 -11199.21366107 0 -2119.14331937 0 1579
0.03850000 0.03847530 45864.78037303 0 4054.03208142 0 19555.38647845 0 -6132.28530523 0 970.83251242 0 1662
0.03950000 0.03950240 45192.80097979 0 2857.02518993 0 22022.18972480 0 3340.83042288 0 -8622.65045879 0 1683
0.04050000 0.04050350 43590.19268554 0 -1369.01545755 0 18668.38253723 0 763.93172917 0 -10676.00202409 0 1822
0.04150000 0.04152450 44326.39156273 0 1035.80934339 0 18373.52652731 0 6793.87885780 0 -9806.04946309 0 1887
0.04250000 0.04250150 43574.91287729 0 -346.98119347 0 13021.16470998 0 2268.66399372 0 -11233.20569826 0 1920
0.04350000 0.04349210 42791.98878936 0 -341.99864730 0 14116.43908104 0 3157.69417038 0 -8010.26231772 0 2005
0.04450000 0.04448520 44750.46160328 0 -47.61896879 0 11915.37163034 0 1610.03782420 0 -9711.79076191 0 2151
0.04550000 0.04548030 42771.06209545 0 -132.63870070 0 9540.76763276 0 3813.44153544 0 -9269.01956473 0 2274
0.04650000 0.04648670 43731.69699672 0 759.09201599 0 12422.26266054 0 -151.47715415 0 -6549.35763650 0 2311
0.04750000 0.04749250 43591.96425751 0 986.06249521 0 11581.98393005 0 -20.35347965 0 -4262.29143894 0 2568
0.04850000 0.04851840 41496.41606233 0 1446.08991061 0 12507.29811514 0 1861.24672969 0 -3029.38807038 0 2493
0.04950000 0.04949480 41530.07592978 0 1478.17750794 0 12986.06544030 0 598.61859793 0 -3328.36298513 0 2644
0.05050000 0.05050630 38740.62513822 0 1636.12422148 0 13521.19089879 0 232.33612783 0 -3911.18801894 0 2829
0.05150000 0.05149060 38991.19184886 0 1196.54185385 0 14712.68377252 0 -1061.81712716 0 -4204.12851667 0 2784
0.05250000 0.05249300 36607.20959216 0 791.41545383 0 14830.49330859 0 789.46561743 0 631.12805083 0 3055
0.05350000 0.05348950 37894.92096857 0 -505.04859535 0 13247.04013628 0 1959.93436080 0 2156.97745327 0 3009
0.05450000 0.05448610 37904.33244466 0 -642.77281484 0 12308.77133114 0 2997.88730627 0 3263.27985985 0 3336
0.05550000 0.05550870 38870.83567808 0 -274.38328133 0 13869.96913057 0 525.55343368 0 823.31482163 0 3349
0.05650000 0.05647670 39094.38591617 0 963.03981022 0 13377.69356914 0 1156.80328008 0 2102.91129118 0 3324
0.05750000 0.05747970 36867.07705565 0 2181.14833835 0 13384.89058027 0 139.46589618 0 2980.61447956 0 3639
0.05850000 0.05849280 35410.51272576 0 1635.07235062 0 11773.09225642 0 1201.03721773 0 2731.70861763 0 3846
0.05950000 0.05951020 34002.88807157 0 161.19311917 0 13561.93705412 0 -15.99209091 0 1921.03728371 0 3787
0.06050000 0.06049470 33497.43644360 0 1361.36448110 0 11877.61500271 0 1695.94799247 0 1373.93156977 0 3930
0.06150000 0.06148310 31851.31391281 0 1446.93140730 0 10532.37182654 0 1856.76243814 0 369.22327956 0 4083
0.06250000 0.06249100 31758.63855408 0 802.34383843 0 10510.10538133 0 -987.48418172 0 2146.75769746 0 4303
0.06350000 0.06350600 31180.10958230 0 -408.25211732 0 10464.77528352 0 2370.59581600 0 952.91527640 0 4470
0.06450000 0.06451750 31844.89196441 0 -480.00631831 0 11403.49805397 0 1721.61364140 0 2929.00637358 0 4479
0.06550000 0.06550280 30987.78330020 0 68.38444965 0 10325.93940262 0 680.65013081 0 2134.01345160 0 4636
0.06650000 0.06648880 32550.53122510 0 426.82483497 0 12328.92296231 0 2316.06461627 0 5844.00625626 0 4653
0.06750000 0.06749660 30983.79726327 0 623.82031644 0 10272.69259257 0 330.66169392 0 7049.20666812 0 5220
0.06850000 0.06852730 31132.94147857 0 540.60404481 0 11092.14428007 0 1504.76215983 0 7072.87929858 0 5029
0.06950000 0.06949320 30859.23360906 0 -430.85405397 0 10485.01549329 0 350.83104081 0 6854.49983618 0 5040
0.07050000 0.07048030 30540.90427052 0 683.45475069 0 10754.79268750 0 629.02763081 0 6075.93824423 0 5475
0.07150000 0.07148790 30492.18604132 0 612.49886432 0 9027.47679881 0 497.89919521 0 5991.14638077 0 5509
0.07250000 0.07249820 29018.68105445 0 613.63709931 0 9207.50172804 0 -110.47899270 0 4016.67405749 0 5916
0.07350000 0.07351270 29319.51611978 0 331.89736537 0 8760.71127696 0 1049.64421325 0 1986.33078317 0 5721
0.07450000 0.07449140 28071.22221972 0 951.70839300 0 8501.71852713 0 -1366.88957119 0 2437.46158558 0 6028
0.07550000 0.07549160 27822.64852754 0 794.78808397 0 7583.31347272 0 132.94651133 0 -1381.29466578 0 6183
0.07650000 0.07648840 26845.40513905 0 313.65017407 0 7120.35742740 0 -328.43504940 0 -719.14971144 0 6330
0.07750000 0.07749960 26153.05266814 0 444.41433018 0 7506.29438128 0 -771.60042133 0 -1934.14691630 0 6583
0.07850000 0.07848650 26367.08070688 0 932.62081224 0 7318.57418630 0 -87.85734731 0 -1658.67854713 0 6549
0.07950000 0.07947320 25215.22675600 0 766.09969036 0 8474.86813944 0 -448.82111545 0 -2868.27467195 0 6828
0.08050000 0.08048110 24878.96025126 0 634.23051624 0 8656.24389229 0 -288.83377245 0 -1108.62759479 0 7147
0.08150000 0.08149960 25117.23668135 0 288.48720868 0 9295.65957825 0 743.31284589 0 -124.70537997 0 7386
0.08250000 0.08250610 24721.62251558 0 -207.51086836 0 9279.51612866 0 174.38800866 0 1506.94340782 0 7227
0.08350000 0.08350160 25919.09444472 0 -547.96824804 0 9607.69983629 0 1239.23673835 0 510.40649333 0 7798
0.08450000 0.08449610 25613.49827973 0 135.05800367 0 10620.69576162 0 408.31965850 0 1111.08565090 0 7371
0.08550000 0.08548940 25756.66343963 0 1180.30982567 0 10623.65207235 0 -474.02283397 0 1391.73586808 0 8256
0.08650000 0.08650700 23683.70278708 0 1520.47378875 0 10703.48353429 0 -70.40525965 0 1634.12013068 0 8037
0.08750000 0.08749060 23340.34999446 0 737.37365086 0 9935.83925461 0 568.34796910 0 2134.60028481 0 8155
0.08850000 0.08849210 22493.09569934 0 521.63825962 0 10100.35185677 0 1664.41401139 0 1245.23793840 0 8718
0.08950000 0.08949900 21713.93620185 0 719.78637011 0 9318.83395409 0 1143.07359730 0 334.10297247 0 8571
0.09050000 0.09049190 21028.55929557 0 508.74564460 0 7581.58619005 0 1406.53956636 0 760.39190692 0 8932
0.09150000 0.09150830 20517.23933545 0 429.49990865 0 7777.95387070 0 701.17600656 0 1065.24290445 0 9285
0.09250000 0.09250820 20017.10242339 0 325.73340214 0 7469.05815291 0 240.90167831 0 1267.64832384 0 9204
0.09350000 0.09350330 19746.27335833 0 139.26770157 0 6910.65866766 0 839.85576768 0 984.82128760 0 9349
0.09450000 0.09448040 19592.36804335 0 674.10417238 0 7179.70508843 0 -21.22686463 0 1153.84696935 0 9564
0.09550000 0.09549270 19288.21128058 0 494.28518839 0 7091.95691424 0 155.69460267 0 1251.54916355 0 10155
0.09650000 0.09649430 18611.13861792 0 648.89802493 0 6844.13614015 0 163.48951934 0 1521.45922566 0 9913
0.09750000 0.09749140 18188.17580985 0 749.06159693 0 6717.62375677 0 669.05297779 0 1456.64183617 0 10476
0.09850000 0.09850240 17662.68327395 0 87.40205331 0 6556.16711627 0 877.21489885 0 370.18103566 0 10575
0.09950000 0.09950330 17370.59534524 0 -54.26014922 0 5268.93184983 0 834.65288225 0 155.33696658 0 10882
0.10050000 0.10051200 17272.05165435 0 -3.49919788 0 5564.68471806 0 404.99242489 0 -6.86010243 0 10875
0.10150000 0.10150300 17365.50207582 0 138.32433949 0 5150.18116615 0 49.00278795 0 -426.68753814 0 11118
0.10250000 0.10250800 17051.60166721 0 376.05822568 0 5432.66938924 0 -134.63282640 0 -267.42211072 0 11575
0.10350000 0.10349800 16534.63482143 0 596.80827282 0 5231.18629452 0 513.76805114 0 666.85622855 0 11364
0.10450000 0.10450100 16356.03822210 0 529.14529585 0 4862.57752898 0 834.43365022 0 144.20485121 0 12093
0.10550000 0.10551000 16088.97374748 0 174.07466187 0 5068.93244663 0 139.41607072 0 220.27836610 0 12067
0.10650000 0.10649700 15741.85636441 0 344.26847389 0 4886.26123177 0 189.33121824 0 269.80044609 0 12054
0.10750000 0.10749900 15530.92857662 0 376.61294915 0 4596.06667060 0 -212.79236729 0 598.69499697 0 12807
0.10850000 0.10850100 15188.24012348 0 122.85740896 0 4560.55772490 0 -493.83011584 0 920.30063642 0 12736
0.10950000 0.10950300 15254.56334915 0 -74.17162166 0 4527.76149879 0 131.82267036 0 92.55610979 0 12933
0.11050000 0.11050200 15281.46909845 0 -88.62078411 0 4415.85351185 0 173.75356445 0 -861.18438698 0 13428
0.11150000 0.11150900 15225.33241162 0 63.99848034 0 4243.52384837 0 598.28864265 0 -986.78994695 0 13453
0.11250000 0.11250000 15124.90642552 0 298.29507401 0 4356.49477849 0 64.60136843 0 -789.89079470 0 13668
0.11350000 0.11349100 14808.57010545 0 481.92072327 0 4162.44121372 0 213.11235748 0 -1380.55282001 0 13791
0.11450000 0.11448600 14348.29356274 0 580.34815474 0 4312.12797295 0 -369.78243197 0 -449.47327539 0 14205
0.11550000 0.11549300 14107.47049793 0 251.62965383 0 4415.16702771 0 -175.57053295 0 -1088.79595381 0 14776
0.11650000 0.11649800 14013.02356723 0 -87.30195950 0 5075.59798617 0 -133.54552410 0 40.49603151 0 14553
0.11750000 0.11747300 14364.12698723 0 -200.47440593 0 5163.01399061 0 71.63495205 0 -327.97886962 0 14568
0.11850000 0.11849100 14321.94142967 0 -148.44776608 0 5074.97793598 0 498.47717057 0 -115.29058217 0 16015
0.11950000 0.11950300 14570.84729159 0 36.05481131 0 5016.70429046 0 476.08339362 0 -58.72982530 0 15270
0.12050000 0.12050700 14404.43024957 0 271.20884581 0 4627.17990334 0 330.94403820 0 -512.33861401 0 15999
0.12150000 0.12150000 14416.27763713 0 129.60377647 0 4872.31010250 0 -469.12222301 0 -580.36033430 0 15670
0.12250000 0.12250700 14247.31396039 0 295.82926727 0 4533.66304792 0 -313.95355577 0 -219.88086964 0 16887
0.12350000 0.12352200 13886.46689455 0 251.33845169 0 5210.60284268 0 -79.83024399 0 500.94408454 0 16407
0.12450000 0.12449800 13602.01886996 0 305.12005503 0 4564.64341276 0 633.48202708 0 167.65271347 0 16306
0.12550000 0.12549900 13491.95996127 0 354.97098306 0 4626.33840665 0 631.04279392 0 338.60276528 0 17523
0.12650000 0.12650100 13103.98569962 0 251.19672593 0 4935.17876282 0 791.38223686 0 597.56894153 0 17154
0.12750000 0.12750600 12888.73970515 0 191.70291021 0 4233.80234718 0 662.86465545 0 676.87557528 0 18007
0.12850000 0.12850300 12924.06042132 0 50.97908721 0 4527.19681022 0 74.21491445 0 762.64623225 0 17496
0.12950000 0.12949900 12637.84082475 0 78.63609376 0 4040.53491747 0 137.79397514 0 800.03858040 0 18405
0.13050000 0.13049000 12859.28732113 0 -22.65464092 0 4173.03742857 0 -278.15562240 0 536.11200263 0 18100
0.13150000 0.13148800 12488.14299321 0 268.49391176 0 4213.52892044 0 -132.72949376 0 149.69229539 0 19059
0.13250000 0.13249300 12438.87114776 0 472.93110275 0 4078.09224325 0 -20.14044812 0 615.89917527 0 18957
0.13350000 0.13349100 11988.22752764 0 100.10854255 0 3977.56660623 0 551.02753139 0 591.54781130 0 19468
0.13450000 0.13450700 12090.53580897 0 -116.40002912 0 3755.52220431 0 943.69092260 0 869.39894476 0 19953
0.13550000 0.13551000 12075.25600072 0 -63.86262292 0 3401.77249868 0 848.80995676 0 714.93779908 0 19956
0.13650000 0.13649900 12014.24749097 0 -30.00511447 0 3220.87285580 0 573.07031564 0 821.67279586 0 19723
0.13750000 0.13749600 12002.40010341 0 300.66122982 0 3097.95897798 0 -127.24980021 0 921.60052735 0 20946
0.13850000 0.13851100 11589.29166443 0 490.98231390 0 3020.24233008 0 -365.56276898 0 537.21259171 0 20955
0.13950000 0.13949800 11330.97432641 0 405.94353759 0 3114.87749031 0 -636.41397869 0 732.02350350 0 20506
0.14050000 0.14048300 11122.59317332 0 149.29479892 0 3044.21391331 0 -205.39162539 0 51.70044917 0 21447
0.14150000 0.14148400 10872.86795936 0 125.95544544 0 3225.36821967 0 -206.37484783 0 -123.93031723 0 21771
0.14250000 0.14249400 10889.93041191 0 193.57745480 0 3162.63242725 0 231.01187778 0 -433.73950182 0 22470
0.14350000 0.14350900 10795.81565095 0 -129.13098820 0 3095.89952557 0 245.48894248 0 -491.54589523 0 22519
0.14450000 0.14449900 10889.81968866 0 -134.75462197 0 2904.90192245 0 482.12445404 0 -480.42153049 0 22218
0.14550000 0.14550500 11119.05002938 0 -71.92183598 0 2969.14355104 0 349.35620714 0 -583.27789189 0 23559
0.14650000 0.14650700 11031.40150612 0 88.95793640 0 2969.61966101 0 75.47317345 0 -515.68909950 0 23044
0.14750000 0.14750500 10955.48964716 0 283.39061757 0 2737.57694979 0 -82.97954533 0 -221.22283541 0 23649
0.14850000 0.14849900 10599.00507730 0 425.85489931 0 2769.02235227 0 -167.60731694 0 95.82488153 0 23640
0.14950000 0.14949500 10391.04467256 0 353.14294223 0 2978.98684781 0 183.48281627 0 110.94026575 0 24457
0.15050000 0.15050000 10143.35676636 0 185.27321119 0 2677.27706882 0 147.17444872 0 189.62574208 0 24591
0.15150000 0.15149900 10001.60886403 0 37.82228652 0 2492.77892037 0 573.79776738 0 197.14385063 0 25020
0.15250000 0.15250500 9923.94757776 0 16.81897212 0 2369.47751119 0 155.30596407 0 -116.10439805 0 25297
0.15350000 0.15350100 9825.82463521 0 206.80002510 0 2380.85986110 0 61.81523934 0 22.80123850 0 25452
0.15450000 0.15450400 9758.95886563 0 258.42363234 0 2151.12019344 0 -169.43425054 0 116.53732595 0 26061
0.15550000 0.15549900 9468.79752144 0 113.99179847 0 2242.76582597 0 -17.25998282 0 612.28627568 0 26128
0.15650000 0.15649500 9609.26103408 0 -61.75533806 0 2463.43725960 0 94.88019077 0 262.24358440 0 26331
0.15750000 0.15749700 9547.38888300 0 -2.00128949 0 2675.64943708 0 211.84457629 0 336.89762726 0 27345
0.15850000 0.15849900 9593.38332029 0 271.36385835 0 3032.02328369 0 -338.33702948 0 -193.43683628 0 26980
0.15950000 0.15949700 9218.05365359 0 417.68905976 0 3064.14409799 0 -252.48111561 0 340.09531466 0 27777
0.16050000 0.16050000 9097.14386657 0 260.53180298 0 3085.58011884 0 -125.61109614 0 465.98321892 0 28224
0.16150000 0.16150500 8860.32898335 0 35.75519420 0 3038.60024463 0 127.43249357 0 816.70575095 0 28075
0.16250000 0.16249700 9023.02572424 0 -112.40291986 0 2954.46164833 0 600.84634968 0 592.27969197 0 28590
0.16350000 0.16349900 8985.92236377 0 -93.58638962 0 2644.56942131 0 644.55988806 0 451.88925666 0 29163
0.16450000 0.16449100 8978.98001611 0 132.02418667 0 2305.05872540 0 244.09050786 0 305.38025466 0 28996
0.16550000 0.16550500 8850.24209544 0 127.36495239 0 2187.50385280 0 189.20720820 0 284.77576541 0 30777
0.16650000 0.16650700 8690.93348595 0 79.03558323 0 2176.44260030 0 -130.90256017 0 494.87645054 0 29211
0.16750000 0.16749900 8811.28965673 0 50.90124876 0 2286.23577320 0 -109.22649132 0 374.03641916 0 30922
0.16850000 0.16850800 8597.71558330 0 143.70770382 0 2365.60219750 0 5.94643633 0 410.28278169 0 30867
0.16950000 0.16949900 8544.95595554 0 200.49544335 0 2398.48700222 0 89.60533523 0 549.51505182 0 30852
0.17050000 0.17049200 8391.31637636 0 158.73063414 0 2201.36640347 0 26.90707799 0 709.01964146 0 31257
0.17150000 0.17149500 8370.15716363 0 104.89665870 0 2433.17659587 0 254.68561548 0 475.91620152 0 32608
0.17250000 0.17250900 8264.18394279 0 108.69989155 0 2371.09407061 0 38.15600639 0 687.38653323 0 32361
0.17350000 0.17350400 8078.44569396 0 233.71795397 0 2400.33608046 0 -228.40545252 0 759.04772669 0 32508
0.17450000 0.17449800 8026.72686473 0 232.65943972 0 2607.52142247 0 -78.86196918 0 681.19046026 0 32791
0.17550000 0.17549800 7870.40778294 0 141.83537369 0 2511.73474046 0 -91.23274553 0 846.74939711 0 33633
0.17650000 0.17650100 7723.26765843 0 163.57699071 0 2703.59598492 0 27.58791524 0 704.10463647 0 33984
0.17750000 0.17750300 7754.71306091 0 37.46077511 0 2734.84208556 0 221.20954862 0 943.38864813 0 34069
0.17850000 0.17849800 7636.03988350 0 -100.14430616 0 2553.39989875 0 369.78132474 0 756.65831899 0 34536
