### header ###
fiducial parameters:
Omega_m = 0.31
Omega_nu = 0
Omega_de = 0.69
Omega_k = 0
H_0 = 100
w_de = -1
zeff = 0
beta = 0
fgrowth = 0
b_1 = 2
gamma = 0.55
Lx = 3500 Ly = 3500 Lz = 3500
nx = 700 ny = 700 nz = 700
xoffset = -685.467585 yoffset = -31.7331281 zoffset = 572.489161
bins = 400 dk = 0.001
kx_ny = 0.628318531 ky_ny = 0.628318531 kz_ny = 0.628318531
############################
A(data) = 8.06041735 (not used)
A(ran) = 8.06598964 (used)
Ngal = 479381
weighted Ngal = 0
Nran = 23820508
weighted Nran = 0
SN(data) = 3474.75772
SN(ran) = 70.257695
SN(data+ran) = 3545.01542
############################
13 columns: k_central k_mean P_0(k) sigma^{lin}_{P_0(k)} P^img_1(k) sigma^{lin}_{P_1(k)} P_2(k) sigma^{lin}_{P_2(k)} P^img_3(k) sigma^{lin}_{P_3(k)} P_4(k) sigma^{lin}_{P_4(k)} N_modes
### header ###
0.00050000 0 0 0 0 0 0 0 0 0 0 0 0
0.00150000 0.00179520 11795.01545956 0 -14090.19767122 0 7010.81891797 0 -6408.86090688 0 -36215.58146332 0 3
0.00250000 0.00253879 19932.28841528 0 -7182.29601244 0 33474.40600797 0 6153.47773494 0 -753.24472125 0 6
0.00350000 0.00331552 41051.86222086 0 -4502.95949120 0 37460.77511243 0 17578.53360533 0 7663.57675533 0 7
0.00450000 0.00420575 43127.25878487 0 14222.29050630 0 50236.24493468 0 25118.23319059 0 11457.97389208 0 24
0.00550000 0.00557378 49127.68377384 0 -1783.27541832 0 42508.20510426 0 25719.68187474 0 -18856.39061265 0 45
0.00650000 0.00659388 77185.39775728 0 -28349.69118891 0 57661.12451157 0 1993.18455223 0 6896.61895979 0 40
0.00750000 0.00754703 83683.74519334 0 -7740.85051024 0 62567.60380845 0 5774.57170732 0 -44654.79671685 0 57
0.00850000 0.00846663 93755.02112514 0 3598.90416975 0 76040.18720129 0 -3358.91152931 0 7029.12147089 0 75
0.00950000 0.00948925 89434.93215064 0 9775.25732777 0 71785.53566647 0 -10868.56082501 0 -6183.59445844 0 112
0.01050000 0.01054430 79601.71120245 0 10231.17137450 0 67470.76140790 0 3059.82589131 0 13277.59975278 0 105
0.01150000 0.01145670 88721.21009283 0 -4504.80856944 0 72007.20360934 0 26195.90256519 0 -11984.57366045 0 144
0.01250000 0.01249090 85864.99318262 0 -1253.24322925 0 55933.62039336 0 28849.05303823 0 -6203.08175012 0 169
0.01350000 0.01339930 97640.29990400 0 4881.93195276 0 54598.85163648 0 14450.71256731 0 -35786.08598361 0 180
0.01450000 0.01448870 82707.94120708 0 10483.34357224 0 43939.85670331 0 15724.47281445 0 -14816.21000958 0 267
0.01550000 0.01550050 77995.22759452 0 11581.76248355 0 37519.45843397 0 4688.73095700 0 19193.87507312 0 238
0.01650000 0.01653350 68840.62943446 0 2604.44331617 0 32058.47711016 0 9762.86739629 0 -1419.36131850 0 315
0.01750000 0.01747870 71757.96557768 0 75.32978684 0 33383.39149796 0 21057.34734010 0 -4718.29406427 0 297
0.01850000 0.01844180 70430.17238542 0 1610.64680207 0 27332.03381483 0 17898.30234609 0 -7486.90674052 0 388
0.01950000 0.01947590 66752.38897366 0 1817.35603411 0 21975.13234432 0 11683.29570214 0 -1306.21323118 0 399
0.02050000 0.02045430 61572.97687000 0 6801.18659218 0 14515.37494425 0 7762.36403736 0 330.36274115 0 462
0.02150000 0.02154770 61108.60356710 0 1167.18912076 0 10149.54619594 0 3010.31045472 0 1093.12966174 0 571
0.02250000 0.02255340 57344.45602175 0 1471.85521047 0 15450.87566818 0 4560.17019353 0 7592.86888904 0 510
0.02350000 0.02348930 61699.42281942 0 -3047.52453843 0 8585.62460460 0 9309.96502191 0 605.78682101 0 555
0.02450000 0.02439640 65334.02416439 0 -5432.11577300 0 14637.50268700 0 10150.17731845 0 5529.15362771 0 592
0.02550000 0.02547300 68183.48695647 0 -845.89350640 0 13184.92439404 0 -4808.96533221 0 -3787.27763189 0 837
0.02650000 0.02652900 69673.26826082 0 3439.16373959 0 18034.49194136 0 -17148.04161638 0 386.13293403 0 723
0.02750000 0.02749970 60453.45410758 0 9213.32577089 0 21741.61701389 0 -9986.88267202 0 4572.63763128 0 826
0.02850000 0.02848090 59739.73204977 0 3446.09501493 0 32251.57845500 0 643.99519950 0 18270.66462974 0 831
0.02950000 0.02946900 60549.22971726 0 -3548.08219884 0 24609.12769543 0 14710.91220055 0 6253.41653875 0 996
0.03050000 0.03053250 58413.04609000 0 -470.09215866 0 24494.97202655 0 16305.21625119 0 7212.39059129 0 1041
0.03150000 0.03150510 59371.02363331 0 1189.34484272 0 11812.39900952 0 13570.68419073 0 4216.15306142 0 1036
0.03250000 0.03246190 54846.53954267 0 1217.87822378 0 11307.16882805 0 6000.21461480 0 2667.96524365 0 1059
0.03350000 0.03345080 53817.69912052 0 4418.34478493 0 10999.09246230 0 -5092.21754572 0 6644.43568972 0 1302
0.03450000 0.03451200 50290.83149604 0 2937.16667697 0 10824.89157592 0 -4015.84363312 0 4419.64024694 0 1339
0.03550000 0.03553350 49779.17936617 0 -906.43476405 0 14621.77998576 0 -10127.46798025 0 -3409.93280207 0 1365
0.03650000 0.03647120 53355.42955934 0 -4704.43151360 0 14341.31799810 0 -8190.08794510 0 -7915.47214495 0 1308
0.03750000 0.03744890 57349.88146092 0 -4320.08897449 0 20762.38060693 0 -3898.28876052 0 -13651.62288515 0 1579
0.03850000 0.03847530 58460.10347048 0 1952.84807291 0 21222.54642640 0 -2774.75781653 0 -16758.51722926 0 1662
0.03950000 0.03950240 55535.12742314 0 4238.27556641 0 18370.42627636 0 3285.57952204 0 -11817.16010920 0 1683
0.04050000 0.04050350 52407.30638512 0 3350.18653735 0 16575.82386975 0 9207.66781291 0 -9437.79501194 0 1822
0.04150000 0.04152450 49277.93522163 0 1191.19392096 0 12152.43010471 0 9339.29561036 0 -8606.40735829 0 1887
0.04250000 0.04250150 47837.20431622 0 2282.91407576 0 11373.49205371 0 5799.36264259 0 -6383.06239005 0 1920
0.04350000 0.04349210 45345.15616929 0 4123.12338829 0 12386.05615838 0 -691.44011134 0 -1069.29980427 0 2005
0.04450000 0.04448520 40606.09042366 0 4005.50208174 0 12493.34698587 0 -2213.29129730 0 3463.95467486 0 2151
0.04550000 0.04548030 39124.50263968 0 2056.88363691 0 16624.20992921 0 -3653.12534439 0 -713.63347921 0 2274
0.04650000 0.04648670 39097.26472063 0 -1000.09555969 0 17886.56568179 0 -2288.09592377 0 -1526.86252017 0 2311
0.04750000 0.04749250 39734.36629069 0 -65.19982759 0 20105.45957544 0 -381.88780469 0 -2917.36936019 0 2568
0.04850000 0.04851840 39939.75791608 0 1332.44356868 0 18113.54834057 0 1785.08020726 0 -4917.00907779 0 2493
0.04950000 0.04949480 39502.40108574 0 144.92565955 0 15216.25310527 0 1312.41373308 0 -5361.00930302 0 2644
0.05050000 0.05050630 38812.92741928 0 -608.50507676 0 12532.10012274 0 1810.71263922 0 -5568.20571735 0 2829
0.05150000 0.05149060 39399.31774168 0 1303.99876622 0 11215.93287154 0 1535.64287375 0 -9025.05195968 0 2784
0.05250000 0.05249300 37209.98695529 0 1125.01463552 0 12145.67598657 0 -1048.57794837 0 -9442.67790719 0 3055
0.05350000 0.05348950 36904.05862055 0 1362.87031728 0 13602.12959321 0 -888.48431105 0 -4233.74698556 0 3009
0.05450000 0.05448610 36754.91440524 0 328.11063028 0 11757.14810868 0 3986.86735907 0 -5647.14032098 0 3336
0.05550000 0.05550870 35437.30775182 0 -162.63141417 0 11165.99668661 0 1149.04158038 0 -1826.84501648 0 3349
0.05650000 0.05647670 35723.74879488 0 1008.05102507 0 12076.80612619 0 2858.64174935 0 -3392.06206982 0 3324
0.05750000 0.05747970 35399.77257069 0 1066.07111435 0 11559.50711067 0 292.21304599 0 131.93782254 0 3639
0.05850000 0.05849280 33619.78563284 0 1529.13234675 0 11139.31238380 0 824.56931603 0 2080.91058177 0 3846
0.05950000 0.05951020 32860.66704327 0 161.61608198 0 10999.25854717 0 -423.64486328 0 3523.93345841 0 3787
0.06050000 0.06049470 33097.83624089 0 220.10895953 0 12138.47897543 0 1856.18667725 0 2331.89804076 0 3930
0.06150000 0.06148310 33512.49480535 0 -419.10410287 0 10739.64574715 0 1375.84708196 0 4397.20771685 0 4083
0.06250000 0.06249100 33514.37710057 0 283.13263240 0 12817.10176357 0 937.00766734 0 2248.30198838 0 4303
0.06350000 0.06350600 32772.42061447 0 1029.88232791 0 11380.13544860 0 168.39345200 0 1839.86607046 0 4470
0.06450000 0.06451750 31558.45092135 0 1298.70619495 0 14041.14727227 0 1091.42341649 0 4248.94928753 0 4479
0.06550000 0.06550280 30960.98827414 0 861.59959916 0 11796.01196879 0 -611.78137767 0 1446.59923756 0 4636
0.06650000 0.06648880 29820.42809457 0 557.34650716 0 13406.14944392 0 1060.85051320 0 3547.17426820 0 4653
0.06750000 0.06749660 30131.00680573 0 509.91820380 0 11013.96259453 0 1393.39671680 0 2301.41593053 0 5220
0.06850000 0.06852730 29001.85112073 0 -17.78359306 0 10863.37897699 0 1699.43577479 0 1827.29898180 0 5029
0.06950000 0.06949320 29468.10671884 0 318.37916400 0 10635.63232780 0 17.76598806 0 -19.90848292 0 5040
0.07050000 0.07048030 28284.91808872 0 953.63165582 0 10680.71883446 0 -1223.51403711 0 -456.41119412 0 5475
0.07150000 0.07148790 27947.10145850 0 1309.87817070 0 12259.72093220 0 -1995.87512716 0 1873.30449142 0 5509
0.07250000 0.07249820 27186.10057372 0 978.93966866 0 12383.39880042 0 -197.32654399 0 2033.10028320 0 5916
0.07350000 0.07351270 26650.08932925 0 119.54899830 0 11952.02102549 0 1434.98436882 0 1778.52539097 0 5721
0.07450000 0.07449140 27586.91873215 0 -666.91048294 0 12834.37459029 0 1054.17611580 0 3088.55857421 0 6028
0.07550000 0.07549160 27913.55231430 0 -117.25038367 0 14069.27097731 0 1929.52975685 0 2313.16366716 0 6183
0.07650000 0.07648840 27845.12534692 0 399.25585340 0 12467.32702255 0 1529.28735930 0 4642.03896324 0 6330
0.07750000 0.07749960 27122.98832225 0 774.27106608 0 12508.07317788 0 2280.99856356 0 5262.04486379 0 6583
0.07850000 0.07848650 26493.08376332 0 842.89290638 0 11250.69997147 0 1418.86306389 0 5749.90256762 0 6549
0.07950000 0.07947320 26098.90899978 0 1130.24077284 0 12051.22905586 0 602.61792165 0 5245.43637656 0 6828
0.08050000 0.08048110 24883.49990443 0 691.98597696 0 12226.17178800 0 347.28678963 0 7165.02318572 0 7147
0.08150000 0.08149960 24669.91475868 0 141.49323886 0 11157.58171975 0 -721.06965256 0 5877.38931558 0 7386
0.08250000 0.08250610 24468.61989348 0 361.77049773 0 11093.58368230 0 -288.31780212 0 3606.28941041 0 7227
0.08350000 0.08350160 24040.45309274 0 850.81736925 0 12171.91739639 0 -773.96325545 0 2653.28334094 0 7798
0.08450000 0.08449610 23501.23087407 0 522.48418524 0 10838.80948822 0 -369.14466606 0 1267.55974524 0 7371
0.08550000 0.08548940 22895.79615299 0 203.58462198 0 11190.02363147 0 1141.76706297 0 1892.62569823 0 8256
0.08650000 0.08650700 22785.51579780 0 -110.57443614 0 11600.69615899 0 986.88738341 0 -397.28055066 0 8037
0.08750000 0.08749060 23132.85462736 0 632.68371246 0 11417.78135299 0 823.86733064 0 -54.35514977 0 8155
0.08850000 0.08849210 21754.35018744 0 800.66084505 0 9478.43044403 0 1025.54972721 0 -46.98762483 0 8718
0.08950000 0.08949900 21500.24033285 0 400.19257208 0 8863.57317452 0 1608.32161386 0 798.83723316 0 8571
0.09050000 0.09049190 21222.21425665 0 -11.21283262 0 8454.03002413 0 1421.66436206 0 297.04943747 0 8932
0.09150000 0.09150830 20927.80113972 0 443.49421998 0 7382.99297210 0 1452.24612321 0 -982.79948109 0 9285
0.09250000 0.09250820 20087.41168599 0 625.76793838 0 6054.56865733 0 -114.60520527 0 -318.52642592 0 9204
0.09350000 0.09350330 19728.22546887 0 902.53730571 0 7314.92031911 0 -639.23409982 0 -329.01191752 0 9349
0.09450000 0.09448040 19223.10601064 0 360.56804325 0 6844.09185085 0 -259.53861545 0 306.83958707 0 9564
0.09550000 0.09549270 18688.75561490 0 236.79273857 0 6506.00948484 0 710.02057962 0 -458.35106543 0 10155
0.09650000 0.09649430 18898.57617021 0 -97.45472774 0 6638.02481365 0 57.64141577 0 -165.22898157 0 9913
0.09750000 0.09749140 18869.34523269 0 -17.00100114 0 6918.13248691 0 507.83882120 0 -1091.07463826 0 10476
0.09850000 0.09850240 18374.41231330 0 485.04422610 0 6993.52394660 0 111.20267985 0 -726.92912685 0 10575
0.09950000 0.09950330 18159.83065831 0 693.90702531 0 6583.93650691 0 23.68492074 0 -522.27824000 0 10882
0.10050000 0.10051200 17711.95511940 0 340.14292566 0 6798.52923422 0 342.53897675 0 -63.16971683 0 10875
0.10150000 0.10150300 17241.71348435 0 572.68389150 0 6848.50970845 0 -43.42742951 0 276.06184577 0 11118
0.10250000 0.10250800 17073.41414710 0 418.76861143 0 6764.57041400 0 130.81065987 0 -65.88199352 0 11575
0.10350000 0.10349800 16434.54100507 0 331.99701629 0 7266.19101759 0 685.71904111 0 200.09130350 0 11364
0.10450000 0.10450100 16118.09396175 0 432.14730151 0 6462.57275457 0 390.40906587 0 846.17695792 0 12093
0.10550000 0.10551000 15952.00908947 0 35.95759630 0 6220.49851706 0 311.93839265 0 334.82267359 0 12067
0.10650000 0.10649700 16085.54132678 0 48.66164962 0 5882.93655032 0 351.80208370 0 -542.42654947 0 12054
0.10750000 0.10749900 15662.46779546 0 89.52517160 0 5715.92160275 0 -670.00076880 0 -885.36191545 0 12807
0.10850000 0.10850100 15808.84392957 0 474.46683420 0 5528.53357752 0 -575.88268614 0 -1211.38984143 0 12736
0.10950000 0.10950300 15388.87064920 0 166.44472284 0 5525.31153100 0 -32.28357747 0 -255.46732161 0 12933
0.11050000 0.11050200 15438.80683413 0 -57.67751155 0 5631.42869206 0 985.18999602 0 -748.51683855 0 13428
0.11150000 0.11150900 15588.17249593 0 -133.41487067 0 5477.20227966 0 967.17975247 0 -613.76553828 0 13453
0.11250000 0.11250000 15682.39798014 0 -110.71328309 0 5596.98268955 0 1040.51508144 0 -817.54835487 0 13668
0.11350000 0.11349100 15316.23619839 0 417.00036116 0 4515.60408614 0 923.15176006 0 174.88626328 0 13791
0.11450000 0.11448600 15117.26652139 0 275.66767101 0 4445.82629513 0 253.21631798 0 1261.58068984 0 14205
0.11550000 0.11549300 14994.14226941 0 65.54118736 0 4313.70024307 0 282.78828310 0 -107.54438373 0 14776
0.11650000 0.11649800 14697.95758051 0 448.73807302 0 4442.67068256 0 -179.04502848 0 -90.32736153 0 14553
0.11750000 0.11747300 14066.72434260 0 479.54349513 0 4307.03470353 0 -289.14047585 0 115.07577907 0 14568
0.11850000 0.11849100 14027.97120574 0 335.99855448 0 4593.12143219 0 -295.54027959 0 -278.89082476 0 16015
0.11950000 0.11950300 13783.82644348 0 150.06321827 0 4756.05069190 0 -37.36511023 0 725.94258271 0 15270
0.12050000 0.12050700 13838.41300484 0 152.68403755 0 5060.72785394 0 495.84306449 0 141.75565296 0 15999
0.12150000 0.12150000 13663.13810296 0 87.16255893 0 4860.75059539 0 423.69358151 0 659.59278347 0 15670
0.12250000 0.12250700 13623.27773361 0 273.90606413 0 4730.79471899 0 448.48673124 0 1058.34816779 0 16887
0.12350000 0.12352200 13379.24369461 0 195.81849335 0 4523.50972606 0 531.39408502 0 878.26344801 0 16407
0.12450000 0.12449800 13171.63760426 0 274.71323661 0 4346.85078358 0 348.92881540 0 1122.54550709 0 16306
0.12550000 0.12549900 13159.90093995 0 -246.18207002 0 4242.12873544 0 452.56134678 0 865.85358635 0 17523
0.12650000 0.12650100 13169.86603229 0 140.59638055 0 4120.59889823 0 -47.07365680 0 943.59570060 0 17154
0.12750000 0.12750600 13069.55076943 0 272.35815312 0 3820.10707498 0 -114.05933965 0 -133.79243695 0 18007
0.12850000 0.12850300 12956.50233304 0 11.08339714 0 3705.61923636 0 -232.54871647 0 660.63468923 0 17496
0.12950000 0.12949900 12791.52469324 0 340.00784330 0 3843.92364567 0 -385.15635498 0 24.52475658 0 18405
0.13050000 0.13049000 12722.54410962 0 77.61987578 0 4128.61526140 0 99.72555084 0 -111.49388199 0 18100
0.13150000 0.13148800 12490.24673492 0 228.43534780 0 4288.27818529 0 -50.26049333 0 -377.70468038 0 19059
0.13250000 0.13249300 12182.98972120 0 628.24481744 0 4429.70499020 0 88.94121719 0 498.70083153 0 18957
0.13350000 0.13349100 11905.40653800 0 300.20505004 0 4352.63053713 0 612.91186203 0 682.38294964 0 19468
0.13450000 0.13450700 11733.45333357 0 -291.99492119 0 3795.92511758 0 909.19509462 0 998.00399753 0 19953
0.13550000 0.13551000 11853.25588811 0 -20.10601319 0 4023.37281400 0 484.99550787 0 782.27857139 0 19956
0.13650000 0.13649900 11955.89633917 0 344.81544673 0 3706.35000979 0 90.71987545 0 589.62233401 0 19723
0.13750000 0.13749600 11641.11014458 0 181.38350348 0 3793.63314634 0 -61.61671255 0 1347.47978578 0 20946
0.13850000 0.13851100 11522.41482252 0 91.09223773 0 3594.04341916 0 -366.57699393 0 1261.93500423 0 20955
0.13950000 0.13949800 11579.65874184 0 -62.70346123 0 3772.57358453 0 187.94385594 0 1076.53778300 0 20506
0.14050000 0.14048300 11436.93647492 0 24.24374098 0 3497.55918069 0 -14.29259977 0 -53.96795057 0 21447
0.14150000 0.14148400 11449.11603222 0 182.83840696 0 3334.13166637 0 -123.01352874 0 -52.66374143 0 21771
0.14250000 0.14249400 11236.19522596 0 146.80131138 0 3558.20230372 0 -213.10571409 0 -531.85580097 0 22470
0.14350000 0.14350900 11144.40565322 0 204.26889165 0 3630.73710361 0 -355.54563672 0 -361.45604370 0 22519
0.14450000 0.14449900 10921.84085204 0 305.82536212 0 3849.21621693 0 217.98196594 0 -527.81329517 0 22218
0.14550000 0.14550500 10676.19025361 0 283.95862783 0 3636.79366528 0 378.46202739 0 -408.49349400 0 23559
0.14650000 0.14650700 10509.31924627 0 243.86684690 0 3449.79317142 0 604.46367820 0 211.80693039 0 23044
0.14750000 0.14750500 10480.47584012 0 -33.47130576 0 3186.38256399 0 496.61369830 0 -0.30236637 0 23649
0.14850000 0.14849900 10493.79584687 0 -145.07956487 0 3192.98166958 0 400.89898641 0 514.12900893 0 23640
0.14950000 0.14949500 10445.22155789 0 207.96151198 0 3193.19204375 0 -168.08564137 0 -33.61591032 0 24457
0.15050000 0.15050000 10298.18108430 0 340.92131010 0 3378.60919516 0 -278.39257015 0 146.84560067 0 24591
0.15150000 0.15149900 10081.97179757 0 340.42084101 0 3287.87149327 0 -368.43271557 0 258.49117352 0 25020
0.15250000 0.15250500 9912.53201087 0 133.77139953 0 3601.76082956 0 -243.09953479 0 77.65242842 0 25297
0.15350000 0.15350100 9887.36461655 0 -57.03121995 0 3545.75701062 0 154.45118059 0 92.32093361 0 25452
0.15450000 0.15450400 9903.68522334 0 35.88152942 0 3635.04423796 0 270.78256130 0 65.22529393 0 26061
0.15550000 0.15549900 9945.08464583 0 127.25201468 0 3629.87346227 0 286.56505310 0 -65.91078156 0 26128
0.15650000 0.15649500 9732.20812887 0 95.63753779 0 3488.14770459 0 341.78605866 0 216.20485780 0 26331
0.15750000 0.15749700 9601.43290044 0 115.88295155 0 3132.33854655 0 457.49960365 0 65.92982596 0 27345
0.15850000 0.15849900 9438.45935143 0 274.73648849 0 2794.46655470 0 241.62580835 0 -20.51126028 0 26980
0.15950000 0.15949700 9147.96583749 0 144.87029793 0 2754.83870418 0 387.20805677 0 125.97205393 0 27777
0.16050000 0.16050000 9055.09117691 0 201.94591790 0 2479.58070919 0 105.23812919 0 433.11391547 0 28224
0.16150000 0.16150500 8882.69507949 0 184.88789429 0 2437.81589997 0 81.73080854 0 343.30075270 0 28075
0.16250000 0.16249700 8824.46572326 0 70.94271030 0 2453.87077096 0 236.06417960 0 524.21036068 0 28590
0.16350000 0.16349900 8678.79821795 0 91.99784318 0 2376.34235258 0 -62.16545697 0 310.49234703 0 29163
0.16450000 0.16449100 8805.49883085 0 29.13770855 0 2575.71063326 0 -120.04614568 0 682.44606189 0 28996
0.16550000 0.16550500 8662.30045397 0 44.43379311 0 2578.74445026 0 -106.08870519 0 293.17965994 0 30777
0.16650000 0.16650700 8757.64424298 0 155.37350525 0 2805.62745812 0 -97.33348578 0 564.08733851 0 29211
0.16750000 0.16749900 8699.95743068 0 102.96453802 0 2671.28694110 0 21.90615176 0 672.29827620 0 30922
0.16850000 0.16850800 8603.67249406 0 143.72099061 0 2802.69329204 0 6.71636151 0 510.93907215 0 30867
0.16950000 0.16949900 8474.03771508 0 76.65591918 0 2681.97173455 0 364.58508270 0 635.60348452 0 30852
0.17050000 0.17049200 8353.00613249 0 104.42719212 0 2395.15423244 0 475.95052572 0 778.32575143 0 31257
0.17150000 0.17149500 8364.60992890 0 -49.15835411 0 2164.46234485 0 254.66679253 0 636.99416851 0 32608
0.17250000 0.17250900 8397.38401036 0 -87.88801765 0 2165.93496405 0 287.03894860 0 228.06885385 0 32361
0.17350000 0.17350400 8322.54616691 0 112.08182244 0 2035.41439909 0 -24.54679051 0 345.50635980 0 32508
0.17450000 0.17449800 8231.16627018 0 195.56825881 0 1893.38968864 0 -201.63921450 0 25.91455479 0 32791
0.17550000 0.17549800 8086.67243130 0 147.05154592 0 2170.77356999 0 -397.67915435 0 197.68528731 0 33633
0.17650000 0.17650100 7996.82051540 0 137.60906731 0 2126.31818585 0 -70.38665815 0 -154.87857233 0 33984
0.17750000 0.17750300 8020.42671191 0 13.71207778 0 2231.79315207 0 -34.61806644 0 -375.22447962 0 34069
0.17850000 0.17849800 7955.25500803 0 67.72631066 0 2220.02327079 0 45.82790953 0 -205.97181521 0 34536
