### header ###
fiducial parameters:
Omega_m = 0.31
Omega_nu = 0
Omega_de = 0.69
Omega_k = 0
H_0 = 100
w_de = -1
zeff = 0
beta = 0
fgrowth = 0
b_1 = 2
gamma = 0.55
Lx = 3500 Ly = 3500 Lz = 3500
nx = 700 ny = 700 nz = 700
xoffset = -685.467585 yoffset = -31.7331281 zoffset = 572.489161
bins = 400 dk = 0.001
kx_ny = 0.628318531 ky_ny = 0.628318531 kz_ny = 0.628318531
############################
A(data) = 7.96507953 (not used)
A(ran) = 7.96205265 (used)
Ngal = 473109
weighted Ngal = 0
Nran = 23820508
weighted Nran = 0
SN(data) = 3489.35834
SN(ran) = 69.3523661
SN(data+ran) = 3558.71071
############################
13 columns: k_central k_mean P_0(k) sigma^{lin}_{P_0(k)} P^img_1(k) sigma^{lin}_{P_1(k)} P_2(k) sigma^{lin}_{P_2(k)} P^img_3(k) sigma^{lin}_{P_3(k)} P_4(k) sigma^{lin}_{P_4(k)} N_modes
### header ###
0.00050000 0 0 0 0 0 0 0 0 0 0 0 0
0.00150000 0.00179520 65818.77054495 0 -37769.36080513 0 67180.88794414 0 -62284.26301635 0 -73402.64870624 0 3
0.00250000 0.00253879 102144.96453322 0 -15259.98878831 0 11462.07065226 0 -1426.60261893 0 82176.02672279 0 6
0.00350000 0.00331552 88231.92405910 0 13946.03600208 0 23718.80205676 0 -14410.18785848 0 54065.27630346 0 7
0.00450000 0.00420575 73779.88281281 0 6986.32693547 0 -13478.23027849 0 15601.34856247 0 42152.22986134 0 24
0.00550000 0.00557378 85450.22389491 0 -29986.40224360 0 -2794.05687869 0 38200.40641032 0 -34116.37940096 0 45
0.00650000 0.00659388 118416.29947046 0 -32333.51365866 0 -32001.67608384 0 -27240.13351883 0 -58047.43792449 0 40
0.00750000 0.00754703 96968.43123400 0 11924.45093669 0 -16001.39165816 0 -30420.32665325 0 -20310.85120083 0 57
0.00850000 0.00846663 95906.92745364 0 25765.52129949 0 -32555.51377127 0 -52181.98457506 0 -1431.28621233 0 75
0.00950000 0.00948925 66035.67738815 0 18721.86186610 0 -23639.30276456 0 -22046.32739290 0 10739.15856485 0 112
0.01050000 0.01054430 55353.65201936 0 8128.95763978 0 -18674.14014614 0 -9316.42018728 0 -8958.37441962 0 105
0.01150000 0.01145670 53071.53515099 0 -2523.31639222 0 -23434.57547866 0 -12289.94837895 0 -24099.13641428 0 144
0.01250000 0.01249090 55279.46744308 0 1219.53907250 0 -5295.31719987 0 -21131.97480938 0 -31281.64280089 0 169
0.01350000 0.01339930 49899.31409045 0 2652.89580957 0 -9953.63248059 0 -24149.62621545 0 -25720.56766072 0 180
0.01450000 0.01448870 54896.47572760 0 352.14643300 0 22244.74345365 0 -27059.98679403 0 -3735.10483735 0 267
0.01550000 0.01550050 59907.69921727 0 -8728.19185897 0 26895.45204723 0 2704.43748160 0 -2645.42199032 0 238
0.01650000 0.01653350 67282.75333248 0 -9739.38299535 0 34219.35202177 0 15137.30742932 0 -17227.65163183 0 315
0.01750000 0.01747870 79240.19979712 0 -1424.69817906 0 32104.42725816 0 8777.17582396 0 -6488.70344115 0 297
0.01850000 0.01844180 80840.81507291 0 -2038.44821609 0 22871.54776164 0 2716.00806104 0 -3580.88949727 0 388
0.01950000 0.01947590 81733.68734628 0 1768.71531118 0 20694.50725579 0 4984.78277800 0 13703.44136530 0 399
0.02050000 0.02045430 81940.73982039 0 3318.50861605 0 19263.96288923 0 5455.65553557 0 3461.88415012 0 462
0.02150000 0.02154770 72697.12016879 0 4305.78353083 0 16381.94746218 0 3053.06070084 0 4258.30540200 0 571
0.02250000 0.02255340 74902.94871916 0 2504.52665700 0 14406.09109829 0 7695.01108549 0 -2948.61546083 0 510
0.02350000 0.02348930 68695.69270258 0 2703.99458861 0 16419.03975032 0 -2340.12477810 0 1222.72790205 0 555
0.02450000 0.02439640 65502.87711788 0 4753.24939372 0 17226.10150635 0 -859.86899479 0 -9482.27254074 0 592
0.02550000 0.02547300 64533.05218701 0 3923.93226480 0 22675.23544260 0 -10058.21058851 0 -2867.80963430 0 837
0.02650000 0.02652900 61530.23769620 0 2906.89494091 0 24741.88487000 0 -5752.91423997 0 -4254.68475179 0 723
0.02750000 0.02749970 64557.85419461 0 -112.61661573 0 30290.66972962 0 -4745.04480103 0 -7108.86435424 0 826
0.02850000 0.02848090 59765.19839686 0 945.02181604 0 31532.98457427 0 3661.86140867 0 -9684.45319193 0 831
0.02950000 0.02946900 64427.20076175 0 2232.30247901 0 34425.40798665 0 -430.46098644 0 -17900.51681106 0 996
0.03050000 0.03053250 59658.79335535 0 3964.32410574 0 30394.41741317 0 1854.89121524 0 -13081.95177323 0 1041
0.03150000 0.03150510 57145.59706801 0 4869.89633569 0 27758.42904359 0 3279.68904523 0 -7343.37619390 0 1036
0.03250000 0.03246190 55061.78553714 0 -1197.50514611 0 22180.08107671 0 6548.19504240 0 -13414.01079454 0 1059
0.03350000 0.03345080 55450.31341503 0 740.58241059 0 23345.00037088 0 6636.95079814 0 -10200.65604730 0 1302
0.03450000 0.03451200 53894.43033151 0 1059.95033319 0 19558.15455966 0 8554.84354161 0 -8858.30274791 0 1339
0.03550000 0.03553350 51282.91179979 0 355.55338734 0 17226.98729234 0 1909.76565704 0 -4561.07812417 0 1365
0.03650000 0.03647120 54171.01700548 0 -203.66987888 0 18684.10523847 0 3421.95734683 0 -6396.96923002 0 1308
0.03750000 0.03744890 51468.26251725 0 3248.96334386 0 17883.35470759 0 -524.61228607 0 867.08039994 0 1579
0.03850000 0.03847530 49706.32346886 0 1717.81583399 0 18212.42420120 0 -850.93805759 0 -1952.01764855 0 1662
0.03950000 0.03950240 46459.69638554 0 2264.58937818 0 19614.62341623 0 2273.84584173 0 57.67806517 0 1683
0.04050000 0.04050350 45880.17090453 0 2778.03522467 0 16367.99633291 0 4575.54965271 0 -3125.81694723 0 1822
0.04150000 0.04152450 41093.93705517 0 1952.25016737 0 15358.31103270 0 2993.90126934 0 -1441.22916002 0 1887
0.04250000 0.04250150 41608.80015924 0 2028.91494442 0 14266.35835908 0 5097.02293469 0 -2826.79774317 0 1920
0.04350000 0.04349210 39215.29570319 0 -184.82256757 0 10307.65899435 0 3293.31907708 0 1362.29455639 0 2005
0.04450000 0.04448520 40291.19350582 0 -506.19236650 0 7476.36588729 0 5642.95498220 0 -557.66206842 0 2151
0.04550000 0.04548030 39166.24530425 0 -799.17826076 0 7011.94829510 0 3427.21670112 0 -496.10104966 0 2274
0.04650000 0.04648670 39636.48693929 0 -264.20117143 0 6361.79245408 0 2337.79958988 0 1230.44531245 0 2311
0.04750000 0.04749250 39540.26843662 0 128.61723233 0 4608.94378436 0 732.26155849 0 491.55364586 0 2568
0.04850000 0.04851840 39634.05102783 0 1286.41591440 0 4513.10174073 0 -1844.40572364 0 2902.56566191 0 2493
0.04950000 0.04949480 39502.73325548 0 963.04977531 0 6977.60194351 0 -3507.59070697 0 5002.13311100 0 2644
0.05050000 0.05050630 37801.80271684 0 1307.42011459 0 10334.19935694 0 -3855.22848931 0 4390.50896034 0 2829
0.05150000 0.05149060 39079.10610792 0 1832.15973239 0 12083.22807459 0 -2863.18140253 0 1961.92737927 0 2784
0.05250000 0.05249300 36441.01399663 0 703.84665130 0 16616.23785534 0 -3081.91517932 0 5674.44467398 0 3055
0.05350000 0.05348950 36580.96818234 0 1115.23777271 0 16028.74030047 0 2715.15549203 0 5368.36132670 0 3009
0.05450000 0.05448610 36204.61986175 0 -63.29051590 0 16857.94670613 0 2856.07297000 0 5432.92405271 0 3336
0.05550000 0.05550870 35592.65246903 0 735.87667254 0 14730.28876898 0 4330.15371775 0 3462.42669404 0 3349
0.05650000 0.05647670 33499.20801557 0 1380.38673514 0 13135.65254860 0 2026.31294809 0 1510.92944475 0 3324
0.05750000 0.05747970 32594.82052438 0 2326.12935953 0 11380.68906485 0 4109.70373061 0 5433.21193316 0 3639
0.05850000 0.05849280 31454.92468430 0 -219.79007658 0 8388.99118815 0 1711.83677859 0 3487.64944998 0 3846
0.05950000 0.05951020 31275.33157574 0 -272.89073195 0 6790.05890574 0 -229.22480456 0 737.26071314 0 3787
0.06050000 0.06049470 30770.87645700 0 452.26239401 0 7673.66364324 0 -189.25703366 0 171.39626650 0 3930
0.06150000 0.06148310 30798.00365281 0 1346.48327655 0 7634.25723921 0 -2163.31082307 0 1167.32198866 0 4083
0.06250000 0.06249100 30403.82888927 0 -80.94788445 0 8375.09542050 0 -1431.35264628 0 1039.68244261 0 4303
0.06350000 0.06350600 30347.02786295 0 31.37841492 0 10144.88474719 0 -382.25762034 0 -925.80358185 0 4470
0.06450000 0.06451750 30706.43552656 0 598.35396936 0 11626.93756881 0 649.17926198 0 -1174.65186769 0 4479
0.06550000 0.06550280 30194.56195019 0 580.78218987 0 11044.21218593 0 653.17415677 0 1920.90441581 0 4636
0.06650000 0.06648880 29251.08915240 0 1294.75337499 0 11552.19937629 0 860.68170343 0 1692.95846477 0 4653
0.06750000 0.06749660 29208.46070184 0 -321.12067162 0 10092.53479544 0 2442.02338340 0 3389.68151998 0 5220
0.06850000 0.06852730 28674.77464559 0 -1021.52272268 0 9319.67545078 0 2030.87474591 0 2736.23719848 0 5029
0.06950000 0.06949320 30548.21200490 0 -236.86138699 0 9462.25377747 0 1041.39976019 0 1149.35160547 0 5040
0.07050000 0.07048030 29919.19323195 0 882.67244775 0 9987.23698642 0 -788.24323277 0 2444.13819744 0 5475
0.07150000 0.07148790 28928.55233043 0 1257.37320641 0 9763.23278301 0 -365.87611577 0 5184.00711847 0 5509
0.07250000 0.07249820 29109.80628771 0 -738.02802525 0 7815.28974999 0 1472.23166951 0 3202.12740988 0 5916
0.07350000 0.07351270 29231.15896772 0 -468.01166883 0 8533.88363072 0 1613.19343678 0 1029.94211847 0 5721
0.07450000 0.07449140 28897.21765119 0 987.00032112 0 6331.49857337 0 1908.69164154 0 -1352.34053638 0 6028
0.07550000 0.07549160 27442.75706301 0 1371.86104503 0 5663.92596541 0 -434.38944729 0 -1099.66786955 0 6183
0.07650000 0.07648840 26755.94075451 0 695.13273167 0 5265.27798263 0 -869.04352313 0 -1194.13915937 0 6330
0.07750000 0.07749960 26353.12957761 0 296.46481872 0 5284.90921454 0 -686.65465256 0 -2721.24527068 0 6583
0.07850000 0.07848650 25760.53875332 0 638.19219406 0 5163.73369172 0 -903.03888202 0 -4439.49292534 0 6549
0.07950000 0.07947320 25420.83982788 0 615.29019740 0 6201.01122538 0 -1561.21994408 0 -3365.20060981 0 6828
0.08050000 0.08048110 25362.59939934 0 459.94548020 0 8015.88705873 0 127.14461312 0 -2804.78596144 0 7147
0.08150000 0.08149960 24584.43641108 0 313.86165547 0 6694.01756026 0 604.84124447 0 -3728.48358711 0 7386
0.08250000 0.08250610 24827.58466410 0 374.03531193 0 7742.75495011 0 95.47344594 0 -1683.92344772 0 7227
0.08350000 0.08350160 24111.64814133 0 347.83154802 0 6413.35627076 0 1771.08478869 0 -1732.29843485 0 7798
0.08450000 0.08449610 24333.09463770 0 115.51535037 0 6565.25749494 0 1367.33246418 0 1.01380863 0 7371
0.08550000 0.08548940 23664.21549540 0 410.27613830 0 6654.03539534 0 -10.12478848 0 -500.33732114 0 8256
0.08650000 0.08650700 22903.21461062 0 1219.09617951 0 7120.20241485 0 -346.04004586 0 -36.27935805 0 8037
0.08750000 0.08749060 21935.27197497 0 1443.58756521 0 7198.37302807 0 351.61274694 0 564.44718907 0 8155
0.08850000 0.08849210 20726.50627452 0 785.62130625 0 6899.18773915 0 -2.68482839 0 406.18491427 0 8718
0.08950000 0.08949900 20678.56310806 0 -66.55375147 0 7022.68845018 0 1501.20794356 0 452.52702257 0 8571
0.09050000 0.09049190 20427.66422767 0 -98.84242221 0 6615.24904150 0 1297.28893738 0 373.83379562 0 8932
0.09150000 0.09150830 20606.70371998 0 121.96165788 0 5569.19115426 0 428.58865631 0 -409.72695098 0 9285
0.09250000 0.09250820 19744.94467935 0 438.55153418 0 5433.00155899 0 -316.82239513 0 -524.54474489 0 9204
0.09350000 0.09350330 19659.90922474 0 653.83738903 0 4492.00896195 0 57.13474619 0 -443.40896308 0 9349
0.09450000 0.09448040 18890.49337309 0 521.01267327 0 5148.08849675 0 10.03057407 0 190.92784748 0 9564
0.09550000 0.09549270 18574.82139251 0 535.79976307 0 5007.99037082 0 190.49713404 0 -29.74945449 0 10155
0.09650000 0.09649430 18324.03323537 0 278.70813141 0 4582.10446900 0 884.93673818 0 -381.60988934 0 9913
0.09750000 0.09749140 18017.32983789 0 68.16411039 0 4505.35111336 0 588.01131075 0 -86.68622751 0 10476
0.09850000 0.09850240 18247.30202438 0 131.04539316 0 4285.93085243 0 578.05618350 0 955.35118786 0 10575
0.09950000 0.09950330 17995.51735800 0 62.41469500 0 4176.66915112 0 -37.88971698 0 517.82937989 0 10882
0.10050000 0.10051200 18063.27998589 0 458.46511037 0 4964.96331658 0 -866.00527720 0 1156.44896568 0 10875
0.10150000 0.10150300 17539.78046847 0 580.80987069 0 5785.33400704 0 -766.70977546 0 913.25531613 0 11118
0.10250000 0.10250800 17303.16488709 0 555.16525917 0 6108.50195152 0 -543.32783671 0 1648.54736992 0 11575
0.10350000 0.10349800 16716.11022521 0 265.35490767 0 6281.00877220 0 359.77526480 0 2191.79991483 0 11364
0.10450000 0.10450100 16974.75973297 0 -126.85008928 0 6260.44746501 0 1037.76693042 0 1231.54147260 0 12093
0.10550000 0.10551000 16641.59347918 0 179.48902871 0 5863.09494424 0 924.55462361 0 965.09261924 0 12067
0.10650000 0.10649700 16557.11164081 0 220.46548839 0 5270.19409485 0 127.75801992 0 -2.56034225 0 12054
0.10750000 0.10749900 16085.31988029 0 242.96334519 0 5016.32783141 0 -31.50596810 0 424.59376152 0 12807
0.10850000 0.10850100 16120.64059646 0 422.52434401 0 4885.92906202 0 320.61798808 0 221.89160383 0 12736
0.10950000 0.10950300 15781.71673376 0 -63.51473047 0 4515.23869942 0 -25.61349828 0 119.35412538 0 12933
0.11050000 0.11050200 15796.77509551 0 99.64062611 0 4652.65732274 0 562.71990640 0 -111.52156281 0 13428
0.11150000 0.11150900 15724.58353770 0 392.51945098 0 4652.97842016 0 2.30975339 0 192.64073612 0 13453
0.11250000 0.11250000 15333.61974835 0 483.17411044 0 4495.96178191 0 106.65206507 0 666.56281194 0 13668
0.11350000 0.11349100 14976.20510320 0 341.75284169 0 4171.53159240 0 371.80977464 0 364.18980070 0 13791
0.11450000 0.11448600 14818.75664428 0 37.91385464 0 4334.04010376 0 593.67923382 0 223.05530517 0 14205
0.11550000 0.11549300 14655.66129970 0 193.16113539 0 4065.13762322 0 379.34670615 0 -433.92662411 0 14776
0.11650000 0.11649800 14571.84380083 0 -2.78072580 0 3320.59021311 0 270.07946867 0 -596.20483111 0 14553
0.11750000 0.11747300 14352.05815318 0 198.69397610 0 3375.17677447 0 -150.99882971 0 -92.71699067 0 14568
0.11850000 0.11849100 14488.24774845 0 285.47775080 0 3212.87863728 0 91.50501400 0 -376.93404657 0 16015
0.11950000 0.11950300 14111.89942786 0 43.48268041 0 3423.17530256 0 -334.09522185 0 354.89236955 0 15270
0.12050000 0.12050700 14202.24959838 0 30.06246912 0 3746.42075331 0 235.47623915 0 -557.71853728 0 15999
0.12150000 0.12150000 13996.08291026 0 64.53006266 0 4129.04708207 0 2.40469858 0 -245.18334632 0 15670
0.12250000 0.12250700 14136.03709597 0 298.35375733 0 4084.45883003 0 30.17208513 0 -682.56785747 0 16887
0.12350000 0.12352200 13901.08236331 0 94.76138473 0 3853.92195498 0 -31.18586719 0 4.56560671 0 16407
0.12450000 0.12449800 13716.50670859 0 206.94617979 0 3778.17618089 0 89.21459289 0 -22.12195137 0 16306
0.12550000 0.12549900 13785.26584571 0 107.94963082 0 3433.72722811 0 508.60945501 0 -735.90988951 0 17523
0.12650000 0.12650100 13476.01581353 0 120.17347742 0 3404.37449501 0 128.17101764 0 -324.49883793 0 17154
0.12750000 0.12750600 13486.09162911 0 183.43520527 0 3494.23748324 0 -356.43917333 0 -624.32853615 0 18007
0.12850000 0.12850300 13277.15685978 0 180.45342820 0 3507.36926048 0 19.26274493 0 -540.24419425 0 17496
0.12950000 0.12949900 13012.08540362 0 454.94632554 0 4082.02291857 0 -374.08070846 0 -262.73408839 0 18405
0.13050000 0.13049000 12828.17408839 0 432.67877310 0 4324.23002397 0 -110.64485613 0 -23.54086980 0 18100
0.13150000 0.13148800 12499.43676452 0 189.96455522 0 4381.11962889 0 142.27273052 0 78.82543051 0 19059
0.13250000 0.13249300 12261.04961118 0 301.87254216 0 4303.03759427 0 527.08252174 0 267.60369684 0 18957
0.13350000 0.13349100 12152.76227445 0 119.58885867 0 3845.72843461 0 611.48685383 0 -271.23652662 0 19468
0.13450000 0.13450700 11875.95415398 0 67.06606794 0 3491.00436440 0 321.60231775 0 -29.73428541 0 19953
0.13550000 0.13551000 12020.66943936 0 3.40883664 0 3215.58028453 0 584.35855079 0 -660.07996576 0 19956
0.13650000 0.13649900 11776.74612361 0 27.65678510 0 2826.15554834 0 62.40162966 0 -715.32422321 0 19723
0.13750000 0.13749600 11707.43337024 0 176.40427901 0 2639.43186259 0 179.24211586 0 -570.20479798 0 20946
0.13850000 0.13851100 11580.21235808 0 14.37232051 0 2624.31813922 0 108.43183057 0 -480.83009927 0 20955
0.13950000 0.13949800 11574.34402592 0 161.02371261 0 2606.98995088 0 427.53457099 0 27.34044878 0 20506
0.14050000 0.14048300 11291.88901980 0 377.97041617 0 2445.27864690 0 174.77664726 0 214.55175971 0 21447
0.14150000 0.14148400 11223.90494541 0 169.81735298 0 2368.64708683 0 216.97438438 0 205.49681247 0 21771
0.14250000 0.14249400 11118.16424340 0 -24.18350753 0 2616.25748675 0 -154.36703092 0 396.59628098 0 22470
0.14350000 0.14350900 11009.74403877 0 131.26462519 0 2603.91184458 0 -306.45316294 0 259.75120408 0 22519
0.14450000 0.14449900 11003.63211547 0 140.29299885 0 3012.46955806 0 -192.48461634 0 281.41531482 0 22218
0.14550000 0.14550500 10862.82536075 0 144.92233785 0 2840.71565547 0 -169.44089393 0 211.68292035 0 23559
0.14650000 0.14650700 10786.80277855 0 167.72468359 0 3002.05050040 0 273.30483689 0 253.71900152 0 23044
0.14750000 0.14750500 10681.74856067 0 169.06332766 0 3046.91556057 0 16.77125040 0 -40.38375814 0 23649
0.14850000 0.14849900 10475.24970280 0 335.58112784 0 2957.44010371 0 454.30855963 0 542.72328778 0 23640
0.14950000 0.14949500 10222.43531022 0 127.77905734 0 2853.27167182 0 325.58835469 0 596.96439260 0 24457
0.15050000 0.15050000 10092.46836150 0 8.44228229 0 2640.91555412 0 481.57748120 0 676.37067727 0 24591
0.15150000 0.15149900 10195.99459855 0 -25.56223342 0 2211.53079765 0 478.48940981 0 664.11250646 0 25020
0.15250000 0.15250500 10177.30451426 0 -39.78031644 0 2182.89776567 0 126.39501673 0 828.84655511 0 25297
0.15350000 0.15350100 10216.78842456 0 108.53945356 0 1918.70102317 0 -175.24057767 0 329.37066085 0 25452
0.15450000 0.15450400 9959.55617437 0 229.29123851 0 2048.62368260 0 -180.49661026 0 692.60713438 0 26061
0.15550000 0.15549900 9871.57548136 0 255.24698235 0 2296.31158879 0 -30.31336800 0 171.74172303 0 26128
0.15650000 0.15649500 9713.37410435 0 236.83149171 0 2320.85893291 0 57.26329588 0 622.48277961 0 26331
0.15750000 0.15749700 9530.88004669 0 188.97911831 0 2097.30869482 0 63.59622278 0 105.65898826 0 27345
0.15850000 0.15849900 9452.62085488 0 175.27822358 0 2268.37611327 0 -238.09927290 0 285.63719228 0 26980
0.15950000 0.15949700 9351.29801046 0 114.96284136 0 2438.88991548 0 -97.30680148 0 425.99994677 0 27777
0.16050000 0.16050000 9109.55594269 0 256.41179092 0 2496.88675288 0 60.86412664 0 589.98993519 0 28224
0.16150000 0.16150500 9123.03096200 0 76.72977159 0 2427.10896187 0 139.07172142 0 584.57003220 0 28075
0.16250000 0.16249700 8915.67953512 0 16.88230582 0 2412.26097429 0 402.78460332 0 354.04533670 0 28590
0.16350000 0.16349900 9034.41914648 0 96.30298451 0 2450.33869934 0 206.26301735 0 351.65150008 0 29163
0.16450000 0.16449100 8854.89247187 0 182.87826733 0 2326.73833739 0 -239.15557269 0 537.56690611 0 28996
0.16550000 0.16550500 8719.32292679 0 189.36332798 0 2506.89613451 0 -157.56582556 0 576.87919538 0 30777
0.16650000 0.16650700 8643.62144200 0 21.54962290 0 2339.69295743 0 -96.74731691 0 716.14689695 0 29211
0.16750000 0.16749900 8648.62613282 0 42.58847946 0 2818.65958443 0 -4.74718176 0 482.79765139 0 30922
0.16850000 0.16850800 8602.73134645 0 93.39517057 0 2483.68854169 0 257.49577152 0 317.03166207 0 30867
0.16950000 0.16949900 8558.16523905 0 24.33375898 0 2621.00751410 0 313.02790941 0 606.00051688 0 30852
0.17050000 0.17049200 8499.70336401 0 37.49919608 0 2244.92492931 0 221.85949409 0 592.16564702 0 31257
0.17150000 0.17149500 8476.78365163 0 40.95597589 0 2401.77548269 0 325.71679366 0 428.80235218 0 32608
0.17250000 0.17250900 8481.37866643 0 101.19551268 0 2067.25840527 0 16.40486717 0 359.05334922 0 32361
0.17350000 0.17350400 8258.21595971 0 201.76654624 0 2129.67310027 0 137.89030436 0 627.31474216 0 32508
0.17450000 0.17449800 8298.18705231 0 99.40179606 0 2007.48999589 0 -199.27527316 0 423.11671339 0 32791
0.17550000 0.17549800 8069.68748503 0 152.73275578 0 1901.92645107 0 77.29512450 0 527.22756919 0 33633
0.17650000 0.17650100 8065.62394182 0 65.56366418 0 2012.36181881 0 57.45761518 0 336.65625058 0 33984
0.17750000 0.17750300 8069.01207321 0 -2.95737367 0 1901.83787247 0 82.76009186 0 292.59614843 0 34069
0.17850000 0.17849800 8028.60915995 0 -0.62958014 0 1866.49501165 0 143.93025755 0 147.32281787 0 34536
