### header ###
fiducial parameters:
Omega_m = 0.31
Omega_nu = 0
Omega_de = 0.69
Omega_k = 0
H_0 = 100
w_de = -1
zeff = 0
beta = 0
fgrowth = 0
b_1 = 2
gamma = 0.55
Lx = 3500 Ly = 3500 Lz = 3500
nx = 700 ny = 700 nz = 700
xoffset = -685.467585 yoffset = -31.7331281 zoffset = 572.489161
bins = 400 dk = 0.001
kx_ny = 0.628318531 ky_ny = 0.628318531 kz_ny = 0.628318531
############################
A(data) = 8.0561318 (not used)
A(ran) = 8.05668319 (used)
Ngal = 478586
weighted Ngal = 0
Nran = 23820508
weighted Nran = 0
SN(data) = 3483.74312
SN(ran) = 70.1766325
SN(data+ran) = 3553.91975
############################
13 columns: k_central k_mean P_0(k) sigma^{lin}_{P_0(k)} P^img_1(k) sigma^{lin}_{P_1(k)} P_2(k) sigma^{lin}_{P_2(k)} P^img_3(k) sigma^{lin}_{P_3(k)} P_4(k) sigma^{lin}_{P_4(k)} N_modes
### header ###
0.00050000 0 0 0 0 0 0 0 0 0 0 0 0
0.00150000 0.00179520 31154.64323522 0 -29655.67190127 0 7364.24752618 0 48382.95920654 0 -87861.33334742 0 3
0.00250000 0.00253879 50068.60993693 0 -21617.16408293 0 20088.51891847 0 -12640.16601297 0 65301.47152943 0 6
0.00350000 0.00331552 47898.43427247 0 5341.04590137 0 12815.88380784 0 -34763.88895635 0 25411.42835179 0 7
0.00450000 0.00420575 40492.26692453 0 20316.38736324 0 16446.83128562 0 -26210.51803395 0 24840.09639114 0 24
0.00550000 0.00557378 37841.99525594 0 -6818.65872074 0 24374.06223953 0 -1863.17331421 0 6209.91337454 0 45
0.00650000 0.00659388 40118.79740839 0 -11243.94585334 0 27360.04679662 0 7390.69931017 0 11508.90658625 0 40
0.00750000 0.00754703 41987.91656103 0 5460.88167288 0 26983.14485979 0 11893.66987369 0 -23470.33908783 0 57
0.00850000 0.00846663 54895.25777187 0 4918.10523795 0 14023.65299906 0 7343.28761530 0 -10743.87537523 0 75
0.00950000 0.00948925 50729.07411236 0 -10328.74070080 0 -5901.57127299 0 15680.40496167 0 -7427.00546325 0 112
0.01050000 0.01054430 60124.60606047 0 -8509.39164822 0 -798.43087883 0 19499.80340786 0 -4367.03563172 0 105
0.01150000 0.01145670 67141.02757480 0 -7521.27523676 0 -13266.74887445 0 20357.35496507 0 4598.54687136 0 144
0.01250000 0.01249090 76604.98649029 0 -10541.05252920 0 -14150.76328797 0 20909.97469677 0 9467.95602475 0 169
0.01350000 0.01339930 70983.01356362 0 -530.76074804 0 -21404.24327667 0 7333.92042850 0 19797.98111523 0 180
0.01450000 0.01448870 81689.50877026 0 -1087.72526000 0 -10588.47529640 0 -5417.50030424 0 12725.20146757 0 267
0.01550000 0.01550050 76171.17280389 0 -3442.06468870 0 6629.87558258 0 -11193.01315917 0 43615.99120236 0 238
0.01650000 0.01653350 78940.25051779 0 13706.54161625 0 2841.59036913 0 -29085.44717311 0 27789.09938334 0 315
0.01750000 0.01747870 68931.53322122 0 7212.02520457 0 10242.33227792 0 -7344.21769058 0 34441.01996464 0 297
0.01850000 0.01844180 67438.76238917 0 2306.60885087 0 12637.17648527 0 3798.63783716 0 13473.46917882 0 388
0.01950000 0.01947590 68478.45368964 0 292.99918105 0 11011.27201960 0 4341.33676582 0 -1207.29308125 0 399
0.02050000 0.02045430 63186.32531932 0 -921.05355450 0 9873.54635518 0 7464.44099346 0 -19126.44461498 0 462
0.02150000 0.02154770 63556.80530775 0 6997.49891121 0 12333.01972250 0 -13043.42008286 0 -25072.50448909 0 571
0.02250000 0.02255340 58708.56643941 0 5082.13065781 0 17574.87973814 0 -12910.99507803 0 -10116.78318680 0 510
0.02350000 0.02348930 56722.30209020 0 5137.07153356 0 23016.26304702 0 -6384.35785206 0 -15954.77717068 0 555
0.02450000 0.02439640 55724.13200779 0 -772.11196274 0 21078.05258751 0 -5823.92105903 0 -7135.33828288 0 592
0.02550000 0.02547300 58037.91572515 0 -2964.99142924 0 27981.42566544 0 3432.83036980 0 -11728.91368039 0 837
0.02650000 0.02652900 64716.74205575 0 -3032.61011690 0 31165.27266704 0 6090.69765322 0 -17607.10020336 0 723
0.02750000 0.02749970 62574.02575685 0 -380.97433790 0 23198.40279028 0 5474.58921101 0 -14824.62497644 0 826
0.02850000 0.02848090 64518.43671825 0 715.13820815 0 30605.89881721 0 -430.82305146 0 -14360.58384329 0 831
0.02950000 0.02946900 62884.49374476 0 3063.10329945 0 24721.29034584 0 6397.92144996 0 -829.29166257 0 996
0.03050000 0.03053250 60479.14190116 0 3868.26061562 0 24409.82584869 0 12027.31283425 0 3154.92608918 0 1041
0.03150000 0.03150510 57043.73167968 0 1521.00526034 0 18252.50601704 0 8871.16878935 0 5258.76745564 0 1036
0.03250000 0.03246190 57199.63001313 0 41.46009884 0 21113.04113394 0 11141.41612551 0 4229.43985120 0 1059
0.03350000 0.03345080 54359.91086689 0 852.92553989 0 17172.84362398 0 4603.37440498 0 6692.47850711 0 1302
0.03450000 0.03451200 52508.83960371 0 4150.38345200 0 20128.04711807 0 -1445.15983533 0 6632.51079589 0 1339
0.03550000 0.03553350 48755.43221343 0 5005.62089331 0 18352.26766366 0 -4420.85820267 0 3143.05655697 0 1365
0.03650000 0.03647120 46976.10961508 0 948.50295496 0 22048.43113462 0 964.51242942 0 8878.77547650 0 1308
0.03750000 0.03744890 47189.03042134 0 152.50909482 0 20024.52088102 0 -1254.11794291 0 9288.92760476 0 1579
0.03850000 0.03847530 48384.84150175 0 -1562.05036844 0 22612.45536088 0 6346.74516465 0 5307.64069739 0 1662
0.03950000 0.03950240 47826.02126816 0 -1847.30667274 0 18160.71644430 0 7390.76574412 0 8122.26995559 0 1683
0.04050000 0.04050350 49824.24372818 0 -674.21821732 0 17558.27125091 0 5976.16552529 0 11577.77644662 0 1822
0.04150000 0.04152450 50227.82996782 0 1895.61522593 0 17711.95511940 0 1418.01049487 0 4828.81801061 0 1887
0.04250000 0.04250150 48158.96607545 0 3246.70458960 0 20135.46557570 0 -2666.47047980 0 11384.45365528 0 1920
0.04350000 0.04349210 45217.82443388 0 2908.71080218 0 17019.82409498 0 -3310.59190380 0 7282.72199854 0 2005
0.04450000 0.04448520 43011.11009752 0 1743.28218107 0 19904.49687998 0 -2409.67005028 0 8820.76756677 0 2151
0.04550000 0.04548030 43150.73211348 0 1265.84353489 0 20526.65081154 0 1924.18182396 0 -3440.02738093 0 2274
0.04650000 0.04648670 41150.51663500 0 695.00207824 0 15781.05239427 0 4088.90990460 0 1648.06018763 0 2311
0.04750000 0.04749250 39369.31174142 0 317.37268967 0 11346.25413466 0 4095.92975854 0 -3439.31875214 0 2568
0.04850000 0.04851840 40244.68974158 0 -557.53141499 0 10094.93748993 0 4171.29907358 0 -6271.64158540 0 2493
0.04950000 0.04949480 39833.90649081 0 -1188.40369511 0 8412.49773374 0 963.07191996 0 -8053.44438452 0 2644
0.05050000 0.05050630 40953.09708348 0 1086.95462619 0 11136.10140960 0 -5484.83111146 0 -8880.85707357 0 2829
0.05150000 0.05149060 40481.41604620 0 1301.86180753 0 12405.98634305 0 -7494.40270442 0 -6320.28230833 0 2784
0.05250000 0.05249300 39932.56090494 0 1546.92557274 0 17817.80654466 0 -3390.78875246 0 -7188.39686341 0 3055
0.05350000 0.05348950 39825.71297044 0 1454.67096235 0 18595.85880967 0 -4117.84188935 0 -6527.50086731 0 3009
0.05450000 0.05448610 39319.26483324 0 547.55082140 0 20529.41889275 0 1632.20461849 0 -7755.13380925 0 3336
0.05550000 0.05550870 38991.63474186 0 366.11417076 0 20448.59092157 0 1850.69480414 0 -8565.45082878 0 3349
0.05650000 0.05647670 37370.09277217 0 2280.45601965 0 18651.77405000 0 1522.67718139 0 -7355.60004050 0 3324
0.05750000 0.05747970 34592.37864491 0 2345.80488073 0 16910.87241877 0 5275.30950892 0 -4664.10610661 0 3639
0.05850000 0.05849280 33396.56756450 0 867.27195116 0 16226.27057523 0 5388.74547669 0 -2259.07536042 0 3846
0.05950000 0.05951020 31909.88651110 0 460.46920116 0 12894.60803730 0 4015.34537851 0 -3573.85857101 0 3787
0.06050000 0.06049470 32805.19469593 0 669.75939212 0 12788.97805853 0 5399.93959708 0 -651.92741300 0 3930
0.06150000 0.06148310 31956.61172183 0 -400.38190884 0 10137.43307258 0 -419.19600317 0 -114.94844734 0 4083
0.06250000 0.06249100 30940.39374998 0 998.30627200 0 11115.06399245 0 609.80828939 0 2660.75716019 0 4303
0.06350000 0.06350600 31064.62523444 0 830.06561807 0 8832.94712408 0 323.77581511 0 2001.00161355 0 4470
0.06450000 0.06451750 29635.18810036 0 629.30665339 0 9246.39880513 0 1355.16397920 0 3042.51984762 0 4479
0.06550000 0.06550280 30053.94342500 0 310.58978349 0 7861.01845149 0 2514.66890654 0 1880.42399628 0 4636
0.06650000 0.06648880 29356.71913117 0 -446.61883005 0 8081.99991022 0 638.13793967 0 985.86872953 0 4653
0.06750000 0.06749660 30035.23119605 0 -173.01725485 0 7865.97885301 0 -70.55473604 0 768.93641998 0 5220
0.06850000 0.06852730 29688.33525948 0 -147.68156120 0 7964.57790552 0 -350.88750967 0 1135.23439133 0 5029
0.06950000 0.06949320 30058.37235492 0 -7.04040417 0 7860.28767806 0 -93.74926352 0 1153.96876492 0 5040
0.07050000 0.07048030 30291.00189936 0 -3.75885497 0 9024.78622388 0 579.25199458 0 -201.84958868 0 5475
0.07150000 0.07148790 30851.81515143 0 414.40611545 0 8221.67728781 0 380.14280630 0 68.54931657 0 5509
0.07250000 0.07249820 29608.17162780 0 915.61593579 0 7469.52319056 0 722.51791265 0 -55.83219790 0 5916
0.07350000 0.07351270 29074.37484829 0 1155.03170811 0 6756.76442501 0 1118.94700152 0 452.73850397 0 5721
0.07450000 0.07449140 28328.65377175 0 254.09435333 0 6312.06664331 0 1508.70390746 0 428.79238709 0 6028
0.07550000 0.07549160 27431.68473820 0 77.74720752 0 4795.65639778 0 1771.57197098 0 -773.60561936 0 6183
0.07650000 0.07648840 26985.47004800 0 445.82162266 0 5377.45170537 0 843.06563464 0 -260.96362365 0 6330
0.07750000 0.07749960 26309.17244808 0 1663.15176636 0 4155.11133469 0 473.17801559 0 -1094.67757275 0 6583
0.07850000 0.07848650 24791.82105493 0 1681.47646393 0 4498.58592289 0 -182.67675102 0 2085.15128217 0 6549
0.07950000 0.07947320 24015.31891540 0 1200.10714244 0 4060.08864310 0 -895.30043421 0 1026.32589718 0 6828
0.08050000 0.08048110 23236.71303416 0 165.38731582 0 5123.43042938 0 520.32618913 0 2630.26397764 0 7147
0.08150000 0.08149960 23449.52311717 0 -211.01083023 0 5592.54268730 0 319.90714482 0 734.01984367 0 7386
0.08250000 0.08250610 22973.41314997 0 541.57287323 0 5939.78186594 0 -1111.53961622 0 501.34600993 0 7227
0.08350000 0.08350160 23097.20174144 0 246.04255873 0 7284.75930631 0 -787.34415999 0 1488.90659069 0 7798
0.08450000 0.08449610 22889.37420459 0 250.26665064 0 7602.19178653 0 -461.95842885 0 490.98009943 0 7371
0.08550000 0.08548940 22804.00658024 0 252.22202321 0 7881.46903543 0 -23.77039909 0 449.37694616 0 8256
0.08650000 0.08650700 22679.55364928 0 439.38195855 0 7924.05319669 0 0.06304859 0 -317.50887927 0 8037
0.08750000 0.08749060 22095.93140809 0 750.91510411 0 8124.13010616 0 -130.03670437 0 1308.12874337 0 8155
0.08850000 0.08849210 21624.91471031 0 648.97220950 0 8252.93446078 0 191.85460106 0 -466.03193715 0 8718
0.08950000 0.08949900 20999.10691156 0 393.97656893 0 8302.89279036 0 960.63933020 0 827.03180107 0 8571
0.09050000 0.09049190 20450.03032380 0 911.07406815 0 8726.45350397 0 350.47119025 0 778.04894331 0 8932
0.09150000 0.09150830 19918.78017900 0 547.95717572 0 7841.14362844 0 711.61388716 0 1775.59122489 0 9285
0.09250000 0.09250820 19600.34011722 0 489.58055758 0 8252.02653014 0 463.22288835 0 2742.83630408 0 9204
0.09350000 0.09350330 19125.66955224 0 270.85896034 0 8079.25397367 0 806.93220983 0 3303.19559082 0 9349
0.09450000 0.09448040 18579.02887594 0 377.57734864 0 7488.25756415 0 866.64968651 0 2915.91888564 0 9564
0.09550000 0.09549270 18503.07272769 0 257.68510827 0 7094.71392312 0 1398.52320319 0 2780.39362986 0 10155
0.09650000 0.09649430 18214.19577317 0 -129.11880864 0 6557.38507200 0 624.62970339 0 2285.83716951 0 9913
0.09750000 0.09749140 18174.22468057 0 -223.00547971 0 5742.45089302 0 1220.64630498 0 1392.83202824 0 10476
0.09850000 0.09850240 18171.23515287 0 7.86942235 0 4623.48174685 0 220.58174780 0 1289.35008048 0 10575
0.09950000 0.09950330 17978.90887077 0 391.21513112 0 4870.68247075 0 -486.93205748 0 278.54315377 0 10882
0.10050000 0.10051200 17737.53218973 0 244.85449827 0 4611.93331206 0 -399.96669666 0 348.70958337 0 10875
0.10150000 0.10150300 17585.95206296 0 102.03778443 0 4290.31549305 0 13.15646852 0 -570.17047377 0 11118
0.10250000 0.10250800 17537.01238726 0 430.20078681 0 4419.45201741 0 42.95596992 0 -501.28732661 0 11575
0.10350000 0.10349800 17407.79835663 0 418.85608280 0 4593.32073404 0 -311.70033767 0 -896.59368175 0 11364
0.10450000 0.10450100 16844.43846985 0 389.71926004 0 4733.33028137 0 -464.44970194 0 -257.56331270 0 12093
0.10550000 0.10551000 16547.70016472 0 601.81296364 0 5211.49970099 0 25.26206269 0 473.52347212 0 12067
0.10650000 0.10649700 16161.05458205 0 309.43826171 0 5350.71204094 0 256.46604531 0 -321.89019820 0 12054
0.10750000 0.10749900 16307.76288590 0 182.93141449 0 6132.26316058 0 381.72947045 0 543.60907376 0 12807
0.10850000 0.10850100 15928.97865385 0 15.90827341 0 6007.33411966 0 -311.50546475 0 1270.46069434 0 12736
0.10950000 0.10950300 16135.47751172 0 66.60999888 0 6245.86521322 0 245.93515717 0 1479.36224669 0 12933
0.11050000 0.11050200 16306.98782316 0 -46.43256919 0 6269.69285623 0 81.41823681 0 1718.31408861 0 13428
0.11150000 0.11150900 16209.66208800 0 70.80419552 0 6291.26174498 0 228.10096359 0 1494.57562100 0 13453
0.11250000 0.11250000 16169.91244190 0 184.22798373 0 5729.69557483 0 -156.70993486 0 1780.35232456 0 13668
0.11350000 0.11349100 16021.32184284 0 253.16981421 0 6664.88627366 0 -124.90357458 0 1294.56514547 0 13791
0.11450000 0.11448600 15725.80149343 0 332.96473748 0 5900.43082353 0 505.54131380 0 951.02855225 0 14205
0.11550000 0.11549300 15535.35750655 0 243.13718069 0 6282.60318697 0 731.25508416 0 350.60295092 0 14776
0.11650000 0.11649800 14974.76570098 0 328.39629626 0 5497.53106803 0 88.43775858 0 321.46612816 0 14553
0.11750000 0.11747300 14621.89070901 0 482.49426969 0 5417.58888284 0 612.62951775 0 -111.85262532 0 14568
0.11850000 0.11849100 14170.25057966 0 459.96541038 0 4874.52456746 0 637.91427871 0 250.70290024 0 16015
0.11950000 0.11950300 13776.18653936 0 58.66571654 0 4439.80295043 0 430.80644297 0 18.57404633 0 15270
0.12050000 0.12050700 13922.78411996 0 -45.08894257 0 4162.05368235 0 229.04986183 0 -547.37587866 0 15999
0.12150000 0.12150000 13795.67383104 0 88.32415652 0 4312.83660174 0 -130.44084422 0 -516.52838172 0 15670
0.12250000 0.12250700 13826.01200104 0 147.96501271 0 4494.67739223 0 -684.68045704 0 -722.23889006 0 16887
0.12350000 0.12352200 13764.33915180 0 142.90828197 0 4598.48043741 0 84.24311904 0 -384.33478848 0 16407
0.12450000 0.12449800 13975.04549310 0 -148.78325752 0 4569.20521059 0 -12.13438222 0 -553.99491444 0 16306
0.12550000 0.12549900 13973.93826062 0 -28.10421775 0 4629.85940594 0 905.33638942 0 349.00189275 0 17523
0.12650000 0.12650100 14054.54478530 0 64.61354799 0 4605.92103968 0 1027.16075047 0 332.27160995 0 17154
0.12750000 0.12750600 13619.95603617 0 376.84325351 0 3806.95315310 0 898.40179239 0 625.35715513 0 18007
0.12850000 0.12850300 13369.61077202 0 346.04890372 0 3401.39603964 0 844.42974506 0 910.20267618 0 17496
0.12950000 0.12949900 12958.93824450 0 126.58656795 0 3226.42009053 0 625.69928997 0 1632.35963104 0 18405
0.13050000 0.13049000 13005.55273198 0 160.16560743 0 3252.99367009 0 330.79234735 0 1224.23373822 0 18100
0.13150000 0.13148800 12733.39498794 0 288.95113909 0 3034.41490585 0 -102.62805007 0 1296.90140601 0 19059
0.13250000 0.13249300 12417.61228411 0 404.10996060 0 3138.06293848 0 -414.29317774 0 1937.45754142 0 18957
0.13350000 0.13349100 12468.98787127 0 218.42818063 0 3325.72777183 0 -379.66226740 0 1814.65438685 0 19468
0.13450000 0.13450700 12233.92241537 0 132.54680040 0 3807.18567192 0 -243.75612365 0 2016.31463877 0 19953
0.13550000 0.13551000 12213.32789121 0 103.01857096 0 3874.67149169 0 -174.12559456 0 1160.27999007 0 19956
0.13650000 0.13649900 12207.45955905 0 3.82877671 0 3907.50093477 0 -66.83764587 0 1511.93702631 0 19723
0.13750000 0.13749600 12052.33628834 0 218.18569671 0 4004.78238063 0 99.35927833 0 1055.79267522 0 20946
0.13850000 0.13851100 11939.73074494 0 185.74157053 0 3866.56654992 0 -74.52361087 0 703.15130931 0 20955
0.13950000 0.13949800 11783.38951850 0 334.48607491 0 4169.94824995 0 -265.13789011 0 498.69861706 0 20506
0.14050000 0.14048300 11437.15792142 0 307.08649992 0 3760.18365306 0 12.13338571 0 475.26404159 0 21447
0.14150000 0.14148400 11305.72942582 0 -25.37621836 0 3583.08181759 0 238.80568722 0 320.57369878 0 21771
0.14250000 0.14249400 11245.60670206 0 -37.15396099 0 3782.59403849 0 562.71879917 0 140.22435043 0 22470
0.14350000 0.14350900 11417.33846000 0 -29.67228039 0 3692.37673587 0 749.52552734 0 33.67304352 0 22519
0.14450000 0.14449900 11215.26853206 0 155.64699167 0 3434.13690413 0 31.93136682 0 423.88291826 0 22218
0.14550000 0.14550500 11061.66216985 0 302.80593914 0 3597.57549078 0 -57.29662358 0 833.35631301 0 23559
0.14650000 0.14650700 11006.64378782 0 259.27509412 0 3573.11672525 0 -60.43086656 0 810.60822167 0 23044
0.14750000 0.14750500 10633.70574328 0 304.72366580 0 3577.11383451 0 136.39000435 0 1016.26669008 0 23649
0.14850000 0.14849900 10431.62474302 0 236.72519739 0 3790.65469096 0 89.64896019 0 1002.71637897 0 23640
0.14950000 0.14949500 10289.74397279 0 157.72526704 0 3555.26813764 0 6.63939778 0 537.97990382 0 24457
0.15050000 0.15050000 10125.06528576 0 260.29153353 0 3565.63183367 0 150.74748794 0 969.57248186 0 24591
0.15150000 0.15149900 9985.96366906 0 250.44934400 0 3387.43383804 0 -29.81566699 0 765.63133102 0 25020
0.15250000 0.15250500 9824.10842487 0 46.82984420 0 3220.95036207 0 218.10376151 0 868.03815604 0 25297
0.15350000 0.15350100 9843.59571655 0 -94.10966769 0 2966.82943516 0 337.01167220 0 1039.88063723 0 25452
0.15450000 0.15450400 9860.14884215 0 -33.15906620 0 2875.09522403 0 398.63358875 0 514.83431602 0 26061
0.15550000 0.15549900 9924.84443607 0 77.82072776 0 2516.19688736 0 219.80225614 0 519.46254780 0 26128
0.15650000 0.15649500 9796.06222610 0 183.51160431 0 2663.50309675 0 40.88633096 0 464.63571699 0 26331
0.15750000 0.15749700 9631.81535974 0 130.99003153 0 2401.29937272 0 -9.18584426 0 596.30891097 0 27345
0.15850000 0.15849900 9545.73910660 0 202.01235185 0 2848.35555960 0 -69.58590762 0 441.10149059 0 26980
0.15950000 0.15949700 9307.21908536 0 234.85508173 0 2590.89079059 0 76.65392617 0 580.63824965 0 27777
0.16050000 0.16050000 9145.06488839 0 161.62161815 0 2845.91964814 0 215.53387492 0 713.49728962 0 28224
0.16150000 0.16150500 9189.77493601 0 83.90563458 0 2311.76855424 0 348.78044625 0 751.04907924 0 28075
0.16250000 0.16249700 8897.74236891 0 50.86924974 0 2302.23528257 0 509.67793435 0 806.49485300 0 28590
0.16350000 0.16349900 8988.59079405 0 -25.21943424 0 1961.55092022 0 333.86823919 0 677.47015912 0 29163
0.16450000 0.16449100 8913.19933436 0 13.13144507 0 1976.77536685 0 73.12340467 0 970.89673191 0 28996
0.16550000 0.16550500 8947.51246897 0 168.45656426 0 1942.09684552 0 127.92964095 0 1070.52551063 0 30777
0.16650000 0.16650700 8744.10278973 0 110.72546265 0 1854.85799827 0 -61.01548532 0 1295.26270193 0 29211
0.16750000 0.16749900 8781.29472880 0 73.03017570 0 2109.37752888 0 15.20064113 0 1098.49863205 0 30922
0.16850000 0.16850800 8740.36034394 0 68.69691066 0 2161.49496180 0 -156.19285729 0 1225.13059653 0 30867
0.16950000 0.16949900 8680.74694712 0 89.65228189 0 2385.17806778 0 -267.97240526 0 856.15312258 0 30852
0.17050000 0.17049200 8601.10371470 0 225.63183515 0 2388.65477778 0 -333.55378516 0 928.91601236 0 31257
0.17150000 0.17149500 8524.98148157 0 125.74950020 0 2762.95471827 0 -280.26932920 0 929.32901007 0 32608
0.17250000 0.17250900 8409.25354256 0 200.11676984 0 2612.79184908 0 -79.38225772 0 490.82508689 0 32361
0.17350000 0.17350400 8333.69599800 0 97.58460611 0 2646.40742723 0 5.89396459 0 693.61693040 0 32508
0.17450000 0.17449800 8284.00340422 0 -3.09151488 0 2608.70616122 0 147.15451854 0 219.19438550 0 32791
0.17550000 0.17549800 8350.76952287 0 -52.93324181 0 2774.44779143 0 71.86824593 0 171.95320443 0 33633
0.17650000 0.17650100 8307.65389003 0 138.75283846 0 2738.37415717 0 -49.53459171 0 -49.89145274 0 33984
0.17750000 0.17750300 8117.53100057 0 315.57454412 0 2691.87039293 0 3.71717874 0 221.53507497 0 34069
0.17850000 0.17849800 8046.71241103 0 126.39058780 0 2621.99295100 0 19.05868199 0 273.74440819 0 34536
