### header ###
fiducial parameters:
Omega_m = 0.31
Omega_nu = 0
Omega_de = 0.69
Omega_k = 0
H_0 = 100
w_de = -1
zeff = 0
beta = 0
fgrowth = 0
b_1 = 2
gamma = 0.55
Lx = 3500 Ly = 3500 Lz = 3500
nx = 700 ny = 700 nz = 700
xoffset = -685.467585 yoffset = -31.7331281 zoffset = 572.489161
bins = 400 dk = 0.001
kx_ny = 0.628318531 ky_ny = 0.628318531 kz_ny = 0.628318531
############################
A(data) = 8.11365183 (not used)
A(ran) = 8.11124382 (used)
Ngal = 482083
weighted Ngal = 0
Nran = 23820508
weighted Nran = 0
SN(data) = 3490.48945
SN(ran) = 70.6518753
SN(data+ran) = 3561.14133
############################
13 columns: k_central k_mean P_0(k) sigma^{lin}_{P_0(k)} P^img_1(k) sigma^{lin}_{P_1(k)} P_2(k) sigma^{lin}_{P_2(k)} P^img_3(k) sigma^{lin}_{P_3(k)} P_4(k) sigma^{lin}_{P_4(k)} N_modes
### header ###
0.00050000 0 0 0 0 0 0 0 0 0 0 0 0
0.00150000 0.00179520 29735.17119347 0 -5843.77373743 0 21572.43189066 0 -2375.52300054 0 -64822.03986478 0 3
0.00250000 0.00253879 57479.09549155 0 1354.87609876 0 18125.50645137 0 -2678.15178248 0 32830.77176626 0 6
0.00350000 0.00331552 59706.07218232 0 -4858.62470902 0 31255.17994457 0 -47425.42455622 0 34978.47061134 0 7
0.00450000 0.00420575 55832.30862127 0 -1538.07878521 0 30185.15047410 0 -2907.02780881 0 38025.24223168 0 24
0.00550000 0.00557378 59839.82586613 0 12765.72617641 0 50844.89062996 0 21274.91852279 0 -15373.92301069 0 45
0.00650000 0.00659388 55286.88590071 0 6387.65740485 0 59249.44950680 0 22923.03407204 0 11667.46227765 0 40
0.00750000 0.00754703 66586.85771762 0 -10662.46057083 0 44815.78831971 0 23223.75841412 0 -14851.19855600 0 57
0.00850000 0.00846663 61357.17725928 0 -8710.47613926 0 35063.17389620 0 32775.85303516 0 21588.81893140 0 75
0.00950000 0.00948925 75585.77899073 0 -410.71128066 0 22585.10671858 0 26673.00904162 0 -11424.31402463 0 112
0.01050000 0.01054430 75034.70938451 0 -385.53724295 0 22546.46430496 0 32199.87069810 0 2506.20965038 0 105
0.01150000 0.01145670 67647.25426551 0 -3948.90035727 0 -6142.71543521 0 7647.41116109 0 -1920.28436562 0 144
0.01250000 0.01249090 77249.61724123 0 -4133.68638617 0 -14254.40024828 0 10059.78285863 0 -1737.97853748 0 169
0.01350000 0.01339930 73988.37468914 0 -2208.13159393 0 -27081.90999718 0 -3724.87400922 0 -6190.91326515 0 180
0.01450000 0.01448870 70815.04639612 0 2074.74329684 0 -16137.13836044 0 4481.84456777 0 9757.33123388 0 267
0.01550000 0.01550050 68462.06664891 0 -905.27106271 0 -22280.17489307 0 -8870.89198123 0 9125.50009043 0 238
0.01650000 0.01653350 63873.80596731 0 -861.00722978 0 -17389.97191367 0 -1044.42029040 0 -4690.72397547 0 315
0.01750000 0.01747870 71402.21178125 0 -6770.23944431 0 -21183.90401278 0 -9414.21096008 0 -4089.24207435 0 297
0.01850000 0.01844180 68350.78978448 0 -5186.74198270 0 -18932.56820740 0 -19296.95841718 0 -19371.14299347 0 388
0.01950000 0.01947590 75377.39783764 0 778.97901859 0 -14668.83736624 0 -19952.66149295 0 -10787.84357708 0 399
0.02050000 0.02045430 71680.90219694 0 3454.74250061 0 -15727.01944916 0 -20857.49187713 0 -24771.89087026 0 462
0.02150000 0.02154770 73785.75114496 0 -1931.81065576 0 -8553.90239400 0 -19253.44418065 0 -29384.73211296 0 571
0.02250000 0.02255340 78987.52934476 0 1388.35880901 0 -4875.47678739 0 -20529.75106249 0 -44849.11601742 0 510
0.02350000 0.02348930 72167.64159597 0 10428.04838210 0 6073.56876672 0 -14373.87063307 0 -42473.43800433 0 555
0.02450000 0.02439640 67559.34000645 0 7502.88410524 0 17381.99983980 0 -13704.65932103 0 -31502.31423452 0 592
0.02550000 0.02547300 64353.56980170 0 2615.51564099 0 22615.00199559 0 -2241.29320676 0 -34504.02149286 0 837
0.02650000 0.02652900 63823.31616614 0 2639.70867071 0 25049.58477671 0 1379.44558753 0 -21533.34658406 0 723
0.02750000 0.02749970 65251.86751424 0 1248.52641888 0 27004.29300020 0 2615.48242401 0 -24879.40314425 0 826
0.02850000 0.02848090 62627.06219273 0 1016.74058559 0 33708.91784763 0 1528.75588771 0 -7078.14972519 0 831
0.02950000 0.02946900 63425.93042840 0 4386.41220015 0 39476.49184566 0 7191.64105458 0 1961.96059624 0 996
0.03050000 0.03053250 57812.59391509 0 1536.88297413 0 34292.98298182 0 8836.16917060 0 2405.59543475 0 1041
0.03150000 0.03150510 58776.43979055 0 -1405.14445344 0 29475.63589972 0 11493.95894774 0 -4796.40931586 0 1036
0.03250000 0.03246190 57294.63056007 0 -2729.30592315 0 27372.77997016 0 10944.84914301 0 -624.21781291 0 1059
0.03350000 0.03345080 59823.77099515 0 895.51191561 0 21722.01899896 0 5391.35854534 0 -5751.87344144 0 1302
0.03450000 0.03451200 58840.88072099 0 539.27315136 0 17495.60189244 0 -2733.11480288 0 -6875.67012123 0 1339
0.03550000 0.03553350 59939.03389651 0 941.47535040 0 16330.46115177 0 -1697.30988842 0 -7014.86031653 0 1365
0.03650000 0.03647120 55101.86735299 0 1887.47706719 0 10498.39086167 0 -2647.02747742 0 -6050.33902925 0 1308
0.03750000 0.03744890 55899.73907942 0 3192.48341496 0 11892.78408771 0 641.88924332 0 -12349.84965622 0 1579
0.03850000 0.03847530 53401.49043059 0 2266.06199738 0 9527.07116696 0 5217.39017779 0 -14722.53814161 0 1662
0.03950000 0.03950240 49599.03264137 0 3800.67514492 0 11280.92741823 0 1541.67729077 0 -10686.11105665 0 1683
0.04050000 0.04050350 46470.87943360 0 2163.18902749 0 5663.53843404 0 6019.62440020 0 -11861.11723873 0 1822
0.04150000 0.04152450 46636.52141289 0 -252.25856188 0 6323.43792090 0 3302.69733621 0 -9661.77707070 0 1887
0.04250000 0.04250150 45903.09061690 0 -81.41823681 0 7062.94742322 0 396.74465013 0 -7389.11596772 0 1920
0.04350000 0.04349210 45321.23994768 0 1195.77786344 0 7788.36185603 0 -2025.63753627 0 -2323.98132851 0 2005
0.04450000 0.04448520 44293.83892776 0 2928.69634848 0 12143.79369135 0 -38.10452008 0 3974.61029550 0 2151
0.04550000 0.04548030 41901.55242744 0 2418.06287249 0 10362.10161548 0 2439.15565127 0 5423.46828732 0 2274
0.04650000 0.04648670 39913.18433651 0 775.42148063 0 12787.31720981 0 5723.71651943 0 7844.73106169 0 2311
0.04750000 0.04749250 40997.93999899 0 650.71720789 0 13250.25111047 0 2369.36678794 0 11130.56524719 0 2568
0.04850000 0.04851840 40457.83199434 0 858.96660032 0 15280.69403572 0 1054.14843499 0 9955.94659648 0 2493
0.04950000 0.04949480 39519.89535895 0 -78.78169483 0 13548.76098758 0 -2255.88653088 0 11187.58772001 0 2644
0.05050000 0.05050630 39775.33389252 0 634.42096023 0 14654.99696022 0 -1291.91885984 0 8104.43244031 0 2829
0.05150000 0.05149060 39580.35025246 0 1271.10288918 0 15224.55734889 0 -3308.08955839 0 8012.03388970 0 2784
0.05250000 0.05249300 38241.81690514 0 1890.09013584 0 15965.29587925 0 -517.91574402 0 3209.72302470 0 3055
0.05350000 0.05348950 37436.85889082 0 325.65811033 0 15754.25736821 0 2581.28001265 0 799.44067486 0 3009
0.05450000 0.05448610 35342.41792813 0 1417.88869930 0 12517.15248423 0 2505.97713155 0 -661.78067485 0 3336
0.05550000 0.05550870 35710.01911211 0 -277.29862446 0 12993.04100494 0 2649.27515936 0 -1628.56182363 0 3349
0.05650000 0.05647670 34774.62911143 0 195.90375025 0 9934.70987748 0 748.22563641 0 -1900.68635069 0 3324
0.05750000 0.05747970 34857.56082432 0 852.30770417 0 9650.61616728 0 -993.83637447 0 -3231.70158947 0 3639
0.05850000 0.05849280 34337.27228109 0 503.83839025 0 9059.37616662 0 -402.87096746 0 -585.97400298 0 3846
0.05950000 0.05951020 34368.71768357 0 113.31638666 0 8618.91908533 0 -696.59649301 0 -3926.75570763 0 3787
0.06050000 0.06049470 34206.50812498 0 -426.06195179 0 8267.38384466 0 1645.48033595 0 -3771.51064135 0 3930
0.06150000 0.06148310 34769.09294902 0 -602.65556755 0 9508.08212989 0 36.59248340 0 -5305.40408778 0 4083
0.06250000 0.06249100 34497.71026771 0 653.51075545 0 9634.56129630 0 -425.53933806 0 -5779.57639814 0 4303
0.06350000 0.06350600 33862.82316261 0 931.47371939 0 8918.79085839 0 -505.36083491 0 -6975.61999737 0 4470
0.06450000 0.06451750 32923.44712500 0 1258.40293261 0 11624.16948761 0 -1291.38738825 0 -4384.45239866 0 4479
0.06550000 0.06550280 32407.03389545 0 753.13067630 0 10177.90241980 0 979.34048681 0 -2255.91974785 0 4636
0.06650000 0.06648880 31851.20318956 0 -748.95308815 0 9961.10629985 0 1844.73789339 0 -2416.59025329 0 4653
0.06750000 0.06749660 31956.83316833 0 -409.64058685 0 10061.01188669 0 3697.31499274 0 719.76865439 0 5220
0.06850000 0.06852730 32466.82444948 0 671.10467958 0 8604.92366676 0 1793.50624645 0 -3630.13919807 0 5029
0.06950000 0.06949320 31036.94442240 0 1514.73832449 0 8483.72599929 0 -458.00339443 0 210.52364794 0 5040
0.07050000 0.07048030 30223.79288771 0 1397.21666886 0 7243.59240263 0 -1320.24186673 0 882.42442768 0 5475
0.07150000 0.07148790 29003.62269270 0 318.11564267 0 7614.28276524 0 2.69647648 0 1341.42322410 0 5509
0.07250000 0.07249820 29155.86715896 0 80.49314407 0 8547.00433563 0 767.84025983 0 -649.98421999 0 5916
0.07350000 0.07351270 29445.96206920 0 958.53005232 0 8894.46496077 0 762.33399269 0 -944.08288289 0 5721
0.07450000 0.07449140 28074.87608691 0 1550.39121041 0 8737.91336016 0 -378.65579308 0 -1336.13065284 0 6028
0.07550000 0.07549160 26413.25230138 0 1549.11789305 0 8580.76385401 0 -878.82813658 0 699.82186123 0 6183
0.07650000 0.07648840 26215.16841037 0 446.95985765 0 9569.58889426 0 531.07741653 0 1456.64183617 0 6330
0.07750000 0.07749960 25492.47776946 0 -38.08968316 0 10192.61753948 0 891.79936510 0 37.10634999 0 6583
0.07850000 0.07848650 25931.82761826 0 174.64710106 0 9190.67179432 0 990.83023828 0 376.00950745 0 6549
0.07950000 0.07947320 25051.35634868 0 640.45537725 0 9089.62575802 0 1059.53622824 0 -191.95646645 0 6828
0.08050000 0.08048110 24812.74774884 0 547.38584376 0 8903.28960365 0 -344.49988548 0 -44.52768643 0 7147
0.08150000 0.08149960 23999.15332117 0 470.30806900 0 8533.88363072 0 560.61173575 0 -509.36015863 0 7386
0.08250000 0.08250610 23657.57210051 0 384.66806545 0 8294.59961907 0 -1074.79389184 0 -802.74797828 0 7227
0.08350000 0.08350160 23475.54308049 0 188.17858922 0 7408.66969335 0 430.84630334 0 -936.32671936 0 7798
0.08450000 0.08449610 23754.78711242 0 194.96260264 0 8880.62455474 0 -368.28102472 0 -1407.86824534 0 7371
0.08550000 0.08548940 23451.73758213 0 192.99172882 0 7370.91306572 0 752.21278058 0 -1396.50804008 0 8256
0.08650000 0.08650700 23102.18428761 0 835.12234882 0 8863.07491991 0 55.22964198 0 -2161.76069759 0 8037
0.08750000 0.08749060 22352.14500439 0 833.51243279 0 8679.23003862 0 -511.13837400 0 -1370.45485978 0 8155
0.08850000 0.08849210 21924.08892691 0 788.54550724 0 9875.35114413 0 799.29119847 0 -471.97556111 0 8718
0.08950000 0.08949900 21228.52548180 0 295.03870328 0 9184.07268872 0 1518.53613190 0 1339.36377169 0 8571
0.09050000 0.09049190 21172.27807172 0 21.05070395 0 8186.17941444 0 1849.37719748 0 972.10029362 0 8932
0.09150000 0.09150830 20855.94175165 0 -290.51233689 0 6863.11410489 0 2049.04443094 0 1274.98927519 0 9285
0.09250000 0.09250820 20955.92484476 0 189.83390178 0 6541.80631098 0 1167.42163958 0 1293.17003254 0 9204
0.09350000 0.09350330 20526.54008830 0 666.97248796 0 5878.72906689 0 807.20569625 0 1092.39888831 0 9349
0.09450000 0.09448040 19592.58948984 0 571.75492345 0 5032.22768985 0 208.74321811 0 1571.31790431 0 9564
0.09550000 0.09549270 19534.23833805 0 628.59691737 0 4925.02544096 0 186.57974552 0 1638.63763921 0 10155
0.09650000 0.09649430 19041.29843712 0 453.79480376 0 6062.62930980 0 28.38268672 0 1453.38657267 0 9913
0.09750000 0.09749140 18908.43053930 0 -39.35768580 0 6326.12849583 0 -488.74570428 0 1844.08462622 0 10476
0.09850000 0.09850240 18907.76619981 0 333.42534619 0 7436.50551795 0 188.16530243 0 2880.97462851 0 10575
0.09950000 0.09950330 18909.53777178 0 88.49245586 0 7007.95118584 0 -55.89597449 0 2979.65118730 0 10882
0.10050000 0.10051200 18832.14222130 0 248.45854000 0 7596.27916508 0 226.40800512 0 2803.12511271 0 10875
0.10150000 0.10150300 18711.56460402 0 360.90907086 0 6977.80124536 0 23.58593416 0 2795.51842556 0 11118
0.10250000 0.10250800 18105.13337371 0 659.75776111 0 7699.34036449 0 472.78494806 0 1597.96899015 0 11575
0.10350000 0.10349800 17627.03038804 0 563.67987696 0 6132.28530523 0 -26.19280231 0 1529.95169879 0 11364
0.10450000 0.10450100 17446.44077024 0 -53.14106935 0 6329.79343535 0 732.45975310 0 822.72023779 0 12093
0.10550000 0.10551000 16826.50130365 0 278.60072985 0 5384.41619768 0 270.11490011 0 86.49666931 0 12067
0.10650000 0.10649700 16807.12473522 0 192.11590793 0 5763.55474412 0 210.86578278 0 -1890.37801629 0 12054
0.10750000 0.10749900 16355.04171287 0 663.04734881 0 5177.59624240 0 -359.15410737 0 -839.16374738 0 12807
0.10850000 0.10850100 15688.26631229 0 883.69885226 0 5471.71040655 0 -554.18314396 0 -319.97136431 0 12736
0.10950000 0.10950300 15303.72447134 0 391.69124109 0 5730.24919107 0 -42.95331256 0 494.67050530 0 12933
0.11050000 0.11050200 15248.36284725 0 -22.03259771 0 5872.21853989 0 551.16372098 0 88.00925961 0 13428
0.11150000 0.11150900 15264.08554849 0 19.10075682 0 5656.09783176 0 587.84301141 0 -1044.27524295 0 13453
0.11250000 0.11250000 15220.57131195 0 171.23461055 0 5886.60148983 0 -272.29725534 0 -330.14461635 0 13668
0.11350000 0.11349100 15264.52844148 0 64.51899033 0 5459.15439021 0 -122.21078519 0 -1039.10778895 0 13791
0.11450000 0.11448600 15094.78970201 0 -118.19042404 0 5396.29680221 0 81.61111671 0 -613.36250565 0 14205
0.11550000 0.11549300 15358.08958620 0 -28.74497318 0 5531.45667128 0 -81.65164142 0 -1708.63687671 0 14776
0.11650000 0.11649800 15006.76471970 0 399.18609776 0 5195.47804698 0 581.65911800 0 -1160.97754653 0 14553
0.11750000 0.11747300 14820.63893950 0 387.90229153 0 5153.50286359 0 849.72342356 0 -1303.75517507 0 14568
0.11850000 0.11849100 14604.17498930 0 50.19118057 0 4878.33344720 0 818.96007628 0 -694.73855691 0 16015
0.11950000 0.11950300 14380.62475121 0 140.36054003 0 4588.77000854 0 623.59333379 0 -607.36241283 0 15270
0.12050000 0.12050700 14285.18131127 0 353.97668829 0 4950.87931941 0 27.32096149 0 -501.37258351 0 15999
0.12150000 0.12150000 13909.27588368 0 390.27066181 0 4593.84113331 0 -92.06483074 0 821.83777350 0 15670
0.12250000 0.12250700 13689.60095928 0 317.37379690 0 4766.29259236 0 -115.00934512 0 -82.07316483 0 16887
0.12350000 0.12352200 13328.97533993 0 295.66982579 0 4260.28734815 0 282.16934014 0 460.17024839 0 16407
0.12450000 0.12449800 13384.66913377 0 -33.81975182 0 4206.95195949 0 415.53770705 0 -669.07512244 0 16306
0.12550000 0.12549900 13026.92231888 0 55.92409819 0 3836.10658434 0 -117.97672818 0 -720.32448510 0 17523
0.12650000 0.12650100 13177.28448992 0 251.07160866 0 3969.36201354 0 34.69302608 0 -1506.41193623 0 17154
0.12750000 0.12750600 12849.43295204 0 304.36824417 0 3951.05946061 0 -247.66133261 0 -933.50549100 0 18007
0.12850000 0.12850300 12594.88020446 0 323.32960042 0 4037.67825767 0 -50.15320250 0 -898.38407667 0 17496
0.12950000 0.12949900 12401.55741312 0 125.14938019 0 4501.33185945 0 213.34044737 0 -673.40993761 0 18405
0.13050000 0.13049000 12287.40174424 0 203.70752478 0 4448.94869073 0 424.28262919 0 -443.16426470 0 18100
0.13150000 0.13148800 12179.00368427 0 199.34945773 0 4621.76553650 0 427.15146855 0 231.31525948 0 19059
0.13250000 0.13249300 12295.70598786 0 -17.70055062 0 4337.29536726 0 709.56218538 0 352.65465271 0 18957
0.13350000 0.13349100 12151.21214898 0 -262.68537016 0 3933.32159625 0 598.29750051 0 995.03329278 0 19468
0.13450000 0.13450700 12321.61522793 0 -107.29581004 0 3868.51527909 0 718.47651409 0 901.29056194 0 19953
0.13550000 0.13551000 12475.96343591 0 -121.18548791 0 3363.52868876 0 514.88303425 0 746.49835374 0 19956
0.13650000 0.13649900 12538.52207113 0 81.79259211 0 2960.85037975 0 360.94007337 0 418.94355416 0 19723
0.13750000 0.13749600 12424.92001849 0 190.05202658 0 2754.80548720 0 -19.05967850 0 790.94045110 0 20946
0.13850000 0.13851100 12195.94434124 0 208.04898334 0 2782.16520183 0 -589.38317179 0 124.35660174 0 20955
0.13950000 0.13949800 12026.42704827 0 389.38598306 0 2927.38981415 0 -300.44310502 0 219.72142817 0 20506
0.14050000 0.14048300 11803.76259617 0 313.04341067 0 2929.39390494 0 -321.21921531 0 19.03974831 0 21447
0.14150000 0.14148400 11488.09061559 0 301.62562931 0 3240.92483604 0 -45.50526199 0 309.36518436 0 21771
0.14250000 0.14249400 11383.67859255 0 242.27907552 0 3376.27293463 0 -19.51231513 0 78.76110030 0 22470
0.14350000 0.14350900 11158.57822898 0 292.94271219 0 3614.56043705 0 273.83520125 0 -61.59013897 0 22519
0.14450000 0.14449900 10903.07326147 0 271.46904544 0 3514.96487530 0 -195.04232338 0 -78.23760078 0 22218
0.14550000 0.14550500 10693.70667147 0 17.31169058 0 3912.76028906 0 -196.81057365 0 -186.62957098 0 23559
0.14650000 0.14650700 10796.44677346 0 125.39407857 0 4155.79781883 0 -100.65883710 0 -158.67416528 0 23044
0.14750000 0.14750500 10762.01184328 0 193.00612284 0 4141.89097886 0 -168.51192588 0 188.04682856 0 23649
0.14850000 0.14849900 10554.62719943 0 170.14841549 0 4069.75478267 0 119.71619040 0 63.87203440 0 23640
0.14950000 0.14949500 10489.23404905 0 159.49573178 0 4047.82050720 0 489.03247750 0 756.29736120 0 24457
0.15050000 0.15050000 10304.78018989 0 107.72873794 0 3746.08858357 0 727.03542117 0 478.11184353 0 24591
0.15150000 0.15149900 10236.77397086 0 35.44539055 0 3633.60483574 0 510.01342580 0 167.09023937 0 25020
0.15250000 0.15250500 10053.43841651 0 135.56179445 0 3478.02759971 0 210.72959318 0 536.20390292 0 25297
0.15350000 0.15350100 9947.28803847 0 228.82509363 0 3290.82780400 0 66.34703116 0 489.63481197 0 25452
0.15450000 0.15450400 9750.26709065 0 181.45879529 0 3292.93154572 0 -118.28121711 0 413.00546636 0 26061
0.15550000 0.15549900 9672.91582947 0 111.60681971 0 3301.54581442 0 103.68335334 0 342.14148029 0 26128
0.15650000 0.15649500 9630.47560844 0 59.17781157 0 3168.98794170 0 101.86095940 0 84.89727199 0 26331
0.15750000 0.15749700 9573.78530537 0 58.77942932 0 3000.15713286 0 -6.35466188 0 42.07549865 0 27345
0.15850000 0.15849900 9626.54493313 0 96.70767798 0 3187.15762672 0 -160.42580706 0 -331.78885659 0 26980
0.15950000 0.15949700 9409.32806483 0 235.01895214 0 3233.79425886 0 -165.81802925 0 -153.96953446 0 27777
0.16050000 0.16050000 9263.63841487 0 261.40540941 0 3349.86543993 0 -248.94572229 0 41.54103753 0 28224
0.16150000 0.16150500 9087.67702885 0 141.51759797 0 3244.86658368 0 197.99199071 0 -6.44863270 0 28075
0.16250000 0.16249700 9032.68079148 0 131.80716911 0 3427.03954392 0 219.50551783 0 284.86545124 0 28590
0.16350000 0.16349900 8966.45721674 0 52.84588117 0 3270.36614773 0 226.95608520 0 117.80953607 0 29163
0.16450000 0.16449100 8945.55266748 0 -36.68969841 0 3166.29736676 0 333.15407424 0 438.35333957 0 28996
0.16550000 0.16550500 8843.41047103 0 -27.00927555 0 2954.07411697 0 197.49705779 0 219.82218632 0 30777
0.16650000 0.16650700 9026.10383054 0 77.87885746 0 3004.24282072 0 149.42766682 0 429.77450230 0 29211
0.16750000 0.16749900 8827.74313141 0 111.90577248 0 3122.63919000 0 -113.20012725 0 -177.97433467 0 30922
0.16850000 0.16850800 8770.79816487 0 251.88321007 0 3143.96448760 0 -128.33710251 0 244.13811886 0 30867
0.16950000 0.16949900 8560.01431730 0 258.21325817 0 3154.32818364 0 -149.17189612 0 47.34005693 0 30852
0.17050000 0.17049200 8444.62962036 0 105.38583401 0 2972.74205661 0 204.25117593 0 164.68754489 0 31257
0.17150000 0.17149500 8526.96342771 0 -86.63241602 0 2877.66400339 0 373.13402469 0 265.80555129 0 32608
0.17250000 0.17250900 8387.06460363 0 -82.44120890 0 2871.91746681 0 426.23135836 0 95.17139292 0 32361
0.17350000 0.17350400 8567.12274983 0 57.78114851 0 2694.79348669 0 221.15307977 0 157.10410962 0 32508
0.17450000 0.17449800 8399.03378676 0 165.12711618 0 2558.30493865 0 -26.64732125 0 22.29899785 0 32791
0.17550000 0.17549800 8318.92551669 0 175.10438808 0 2578.62265469 0 56.39732936 0 144.66656715 0 33633
0.17650000 0.17650100 8194.08505436 0 103.38163249 0 2653.38299187 0 -52.98240294 0 376.61959254 0 33984
0.17750000 0.17750300 8103.60201595 0 86.33457048 0 2637.09560206 0 131.37977737 0 330.01949908 0 34069
0.17850000 0.17849800 8012.79788011 0 145.84687698 0 2505.81104668 0 204.60106139 0 378.00363315 0 34536
