### header ###
fiducial parameters:
Omega_m = 0.31
Omega_nu = 0
Omega_de = 0.69
Omega_k = 0
H_0 = 100
w_de = -1
zeff = 0
beta = 0
fgrowth = 0
b_1 = 2
gamma = 0.55
Lx = 3500 Ly = 3500 Lz = 3500
nx = 700 ny = 700 nz = 700
xoffset = -685.467585 yoffset = -31.7331281 zoffset = 572.489161
bins = 400 dk = 0.001
kx_ny = 0.628318531 ky_ny = 0.628318531 kz_ny = 0.628318531
############################
A(data) = 8.09334266 (not used)
A(ran) = 8.09088484 (used)
Ngal = 480567
weighted Ngal = 0
Nran = 23820508
weighted Nran = 0
SN(data) = 3491.44828
SN(ran) = 70.4745412
SN(data+ran) = 3561.92282
############################
13 columns: k_central k_mean P_0(k) sigma^{lin}_{P_0(k)} P^img_1(k) sigma^{lin}_{P_1(k)} P_2(k) sigma^{lin}_{P_2(k)} P^img_3(k) sigma^{lin}_{P_3(k)} P_4(k) sigma^{lin}_{P_4(k)} N_modes
### header ###
0.00050000 0 0 0 0 0 0 0 0 0 0 0 0
0.00150000 0.00179520 19989.97522758 0 -33778.34132424 0 -6981.28902768 0 -61480.41223451 0 -25649.59405864 0 3
0.00250000 0.00253879 26563.17157942 0 -27878.23159813 0 -46330.37163165 0 34270.61688568 0 642.22030583 0 6
0.00350000 0.00331552 40424.50429664 0 -22246.73647212 0 -21291.19484027 0 -7080.99531267 0 -7976.63566725 0 7
0.00450000 0.00420575 59661.33999006 0 -28651.74420996 0 -42650.70592467 0 -15136.08947359 0 -15679.07628269 0 24
0.00550000 0.00557378 75067.48346597 0 -3293.36336638 0 -36118.47717467 0 -38720.36278380 0 -9471.15592662 0 45
0.00650000 0.00659388 70342.92246585 0 15820.02697763 0 -40779.26158383 0 -21778.37713229 0 68987.89135455 0 40
0.00750000 0.00754703 59152.34521814 0 -403.98152164 0 -31455.81047029 0 -9262.96300306 0 4928.55751258 0 57
0.00850000 0.00846663 69381.73394835 0 -15108.85155453 0 -36922.66012624 0 -9834.22852975 0 17357.53000195 0 75
0.00950000 0.00948925 74549.63083420 0 -5354.69807787 0 -30631.36516429 0 -2824.39504869 0 -11526.95447570 0 112
0.01050000 0.01054430 80764.74820140 0 242.90355464 0 -6279.76867182 0 -27356.28220618 0 6979.48423873 0 105
0.01150000 0.01145670 73183.63812132 0 2680.29981350 0 -10830.05127929 0 -26152.60977515 0 -11317.68753663 0 144
0.01250000 0.01249090 75089.96028535 0 6748.05050537 0 12270.90398026 0 -21489.61090102 0 -4674.50301961 0 169
0.01350000 0.01339930 73975.42006911 0 5645.23588111 0 6315.76479980 0 -27761.52929454 0 -18980.51137387 0 180
0.01450000 0.01448870 68702.66826722 0 -919.79573840 0 23124.88255349 0 2563.02174902 0 -16785.64442507 0 267
0.01550000 0.01550050 72318.00376700 0 -3628.65550654 0 13270.07057190 0 6720.38076565 0 -284.91749116 0 238
0.01650000 0.01653350 71665.17949570 0 -7206.14580010 0 11098.45550522 0 16223.39177078 0 -16750.43443214 0 315
0.01750000 0.01747870 79145.30997343 0 -4504.85285874 0 -10777.47988105 0 5100.07889634 0 -23380.76398005 0 297
0.01850000 0.01844180 82810.91382789 0 1684.01202632 0 1474.00324148 0 -8769.79058331 0 -27150.66913430 0 388
0.01950000 0.01947590 80318.97640420 0 1233.02516413 0 8608.24536421 0 -23502.00593681 0 -15313.13594744 0 399
0.02050000 0.02045430 78244.35490294 0 4021.54588041 0 18983.83307131 0 -25448.52063993 0 -18187.73291685 0 462
0.02150000 0.02154770 78921.87045859 0 6306.75192740 0 37226.15254952 0 -23862.07793991 0 -21207.48806464 0 571
0.02250000 0.02255340 77148.30546914 0 6226.62151269 0 49413.90337040 0 -17772.52073615 0 -21228.74692829 0 510
0.02350000 0.02348930 70266.08053161 0 6458.79709181 0 49320.23150243 0 7556.70667618 0 -23279.56293120 0 555
0.02450000 0.02439640 68692.26028189 0 9264.70135805 0 49814.94297533 0 14285.62420427 0 -18802.91128378 0 592
0.02550000 0.02547300 60732.25524652 0 4367.40101844 0 42098.08619298 0 22306.96991913 0 -22677.89280056 0 837
0.02650000 0.02652900 56727.39535961 0 1720.76107239 0 35930.35837600 0 17036.87547520 0 -12180.11091675 0 723
0.02750000 0.02749970 55078.06185463 0 490.49402437 0 24931.33234765 0 7537.81729004 0 -13211.71942011 0 826
0.02850000 0.02848090 55730.33250969 0 299.56285520 0 31745.35176429 0 453.27772619 0 -2601.47593312 0 831
0.02950000 0.02946900 55963.51567037 0 321.10517037 0 24192.14394276 0 -6508.93257859 0 -6655.14262782 0 996
0.03050000 0.03053250 58308.41262047 0 -277.36505840 0 35558.21753884 0 160.25861496 0 -3043.10668083 0 1041
0.03150000 0.03150510 57475.66307086 0 -1447.39644494 0 38067.31706600 0 -2017.43294358 0 7200.67607164 0 1036
0.03250000 0.03246190 60588.97936336 0 828.92627585 0 40195.30717289 0 8569.14898527 0 -1174.77366326 0 1059
0.03350000 0.03345080 62219.15774641 0 -95.90692745 0 37721.41763866 0 6877.64099505 0 2222.75813502 0 1302
0.03450000 0.03451200 59531.46161993 0 3429.20971958 0 38739.18573599 0 7268.18403605 0 5031.22010829 0 1339
0.03550000 0.03553350 56608.81076080 0 3077.37552615 0 32653.50384592 0 5383.79614749 0 6485.28209278 0 1365
0.03650000 0.03647120 53773.40982124 0 1989.95143338 0 31316.85279381 0 6823.59697761 0 6840.11688624 0 1308
0.03750000 0.03744890 52491.89894673 0 904.26237392 0 26809.97369963 0 4240.01392140 0 6119.81786749 0 1579
0.03850000 0.03847530 50613.70048775 0 1034.49062950 0 25610.61947527 0 2922.39619566 0 -3381.94196493 0 1662
0.03950000 0.03950240 48974.33207510 0 1193.97307449 0 23978.22662726 0 46.10194957 0 -3796.70018031 0 1683
0.04050000 0.04050350 48196.16908684 0 1553.55789530 0 25836.71634807 0 -1676.83715984 0 -4631.06628935 0 1822
0.04150000 0.04152450 46157.42191799 0 2092.83547560 0 23244.46366153 0 1486.78070432 0 -1724.66960305 0 1887
0.04250000 0.04250150 45147.73661777 0 1446.22277851 0 26161.91052799 0 1688.57382414 0 -1880.10289886 0 1920
0.04350000 0.04349210 45014.42582696 0 -232.59964916 0 21402.80387444 0 5404.98857720 0 -3592.67045088 0 2005
0.04450000 0.04448520 45623.95730822 0 -1064.02051979 0 22352.47717414 0 3025.44632275 0 -2311.51389076 0 2151
0.04550000 0.04548030 45790.15290375 0 912.35292166 0 17905.38863398 0 5254.03957294 0 -1595.02375175 0 2274
0.04650000 0.04648670 43445.58812340 0 1391.71372343 0 13642.43285555 0 4326.82094798 0 -1207.61417867 0 2311
0.04750000 0.04749250 43530.18068502 0 -280.18296507 0 11628.59841754 0 2608.21897893 0 -3347.09735873 0 2568
0.04850000 0.04851840 42164.18797214 0 1589.31043214 0 12053.00062783 0 -2420.77559208 0 -3329.21555415 0 2493
0.04950000 0.04949480 40270.59898166 0 3666.50071277 0 9716.98368225 0 -1947.37834445 0 -7257.64318283 0 2644
0.05050000 0.05050630 38137.51560535 0 2168.16050134 0 10470.92042380 0 -2043.64113643 0 -3765.87482802 0 2829
0.05150000 0.05149060 36219.12460727 0 272.09131009 0 9152.20653790 0 102.76446111 0 -6837.19379249 0 2784
0.05250000 0.05249300 37680.45003683 0 -746.50167544 0 12960.70981647 0 656.56118093 0 -6797.87596706 0 3055
0.05350000 0.05348950 36830.31693726 0 -1.07001951 0 11294.76782425 0 4097.00377405 0 -5622.12793922 0 3009
0.05450000 0.05448610 37260.91964945 0 765.68226372 0 10624.93646202 0 2010.61239149 0 -4017.98059181 0 3336
0.05550000 0.05550870 36571.99959924 0 -111.88252059 0 11444.57637905 0 821.28858619 0 -2034.01928616 0 3349
0.05650000 0.05647670 36243.04082887 0 1736.04088064 0 11845.83743048 0 -43.67877128 0 -1315.27039288 0 3324
0.05750000 0.05747970 35170.90761669 0 533.83110371 0 13697.24086340 0 -264.06498183 0 1743.97973754 0 3639
0.05850000 0.05849280 34414.44638508 0 961.55279699 0 10895.63265919 0 941.60711106 0 1275.55396376 0 3846
0.05950000 0.05951020 34864.53638895 0 311.37370409 0 11521.52903654 0 1674.31266978 0 924.67199025 0 3787
0.06050000 0.06049470 34555.72924976 0 -113.49575832 0 12489.13950244 0 1224.12301498 0 1423.87882703 0 3930
0.06150000 0.06148310 33781.44157519 0 827.47358683 0 11199.10293782 0 -949.88478110 0 620.25945678 0 4083
0.06250000 0.06249100 33640.26943376 0 1390.18574261 0 12948.53025917 0 -1283.09421696 0 1091.71904756 0 4303
0.06350000 0.06350600 32414.12018334 0 1160.32427937 0 13824.01898258 0 -658.50326671 0 2537.22323219 0 4470
0.06450000 0.06451750 31645.36867118 0 527.67599835 0 14323.71300164 0 -269.16710911 0 1766.39012297 0 4479
0.06550000 0.06550280 31280.97846140 0 237.49250950 0 14040.48293278 0 354.59563125 0 -509.15421339 0 4636
0.06650000 0.06648880 31674.26743896 0 372.18069752 0 14978.19812167 0 1654.12782163 0 -16.79383795 0 4653
0.06750000 0.06749660 31180.10958230 0 57.21657067 0 13896.76415663 0 1510.76335988 0 1191.04998074 0 5220
0.06850000 0.06852730 30893.11492300 0 706.11204896 0 13691.15108475 0 705.81752512 0 -539.11149542 0 5029
0.06950000 0.06949320 30858.12637657 0 153.32069623 0 11923.12225771 0 2067.74558756 0 1895.83667242 0 5040
0.07050000 0.07048030 30179.17141870 0 675.20033253 0 13173.51989948 0 2119.13224704 0 2161.31780460 0 5475
0.07150000 0.07148790 29893.50543837 0 797.79089846 0 11071.51653893 0 2119.38691051 0 4480.29444229 0 5509
0.07250000 0.07249820 28670.45643891 0 387.62769788 0 13182.70992908 0 1000.08227290 0 4913.56558477 0 5916
0.07350000 0.07351270 29258.95050302 0 738.76544208 0 12203.80569186 0 783.50427775 0 7153.45260628 0 5721
0.07450000 0.07449140 27724.54772965 0 591.96745241 0 12007.71481933 0 686.32469728 0 6944.11923326 0 6028
0.07550000 0.07549160 27904.14083821 0 270.48582299 0 13084.16623819 0 1670.86917676 0 7170.50398650 0 6183
0.07650000 0.07648840 27648.81302789 0 237.40946706 0 11061.89468867 0 947.76000197 0 6221.87148534 0 6330
0.07750000 0.07749960 26604.36062775 0 1144.00367259 0 11237.08101195 0 1754.21056567 0 5524.14893689 0 6583
0.07850000 0.07848650 25513.95807961 0 1535.04496821 0 8807.32576444 0 434.77144249 0 4496.17215608 0 6549
0.07950000 0.07947320 24123.16335914 0 817.07556660 0 9335.96284059 0 1398.34604600 0 4714.13087014 0 6828
0.08050000 0.08048110 23343.45024541 0 -51.58784363 0 7792.21502507 0 1127.62770418 0 2925.15320454 0 7147
0.08150000 0.08149960 23683.25989409 0 -268.11634548 0 6704.82414928 0 1162.43909341 0 2077.10170203 0 7386
0.08250000 0.08250610 23710.94070614 0 121.09580208 0 6522.09757280 0 92.65321408 0 -602.42526320 0 7227
0.08350000 0.08350160 23232.50555072 0 620.71563657 0 6389.88294214 0 -1633.98726279 0 1976.15531666 0 7798
0.08450000 0.08449610 23041.61867085 0 753.84151956 0 6508.20180515 0 -727.57021446 0 832.14057175 0 7371
0.08550000 0.08548940 22786.29086053 0 292.52307108 0 7364.84543172 0 -522.01361143 0 554.59835614 0 8256
0.08650000 0.08650700 22321.36394140 0 159.20231517 0 7781.55237627 0 123.52064121 0 -633.86180782 0 8037
0.08750000 0.08749060 22811.31431462 0 380.00550947 0 8303.22496010 0 -731.32373257 0 399.53930492 0 8155
0.08850000 0.08849210 21795.98212875 0 757.91613509 0 8223.32706421 0 -206.55311226 0 1004.51673899 0 8718
0.08950000 0.08949900 21878.58167190 0 -141.37697945 0 8356.00673251 0 1226.25997367 0 2012.28431254 0 8571
0.09050000 0.09049190 22023.29695728 0 196.07204959 0 7801.32754840 0 1824.56411757 0 2521.57803722 0 8932
0.09150000 0.09150830 21655.47432680 0 424.20733738 0 7652.37156261 0 998.79234706 0 1265.11276145 0 9285
0.09250000 0.09250820 20780.20704989 0 844.39652809 0 6631.73573315 0 1161.02183583 0 2150.47799860 0 9204
0.09350000 0.09350330 20173.66509633 0 598.69721143 0 6455.86292573 0 33.19427619 0 1857.64822412 0 9349
0.09450000 0.09448040 19426.50461756 0 643.01308429 0 6084.53036829 0 -40.29506882 0 1706.79887079 0 9564
0.09550000 0.09549270 19078.61217176 0 515.27278009 0 6274.38752196 0 4.81742459 0 -55.02635410 0 10155
0.09650000 0.09649430 18194.26558850 0 927.78552799 0 5985.44413349 0 -30.23464377 0 567.21748474 0 9913
0.09750000 0.09749140 17731.88530407 0 669.85239965 0 5436.48934131 0 144.51266184 0 -259.33045574 0 10476
0.09850000 0.09850240 17621.05133263 0 -142.64365341 0 5857.42591394 0 303.83123642 0 -120.62744274 0 10575
0.09950000 0.09950330 17028.90340133 0 158.46932727 0 5680.75589913 0 277.06721287 0 -527.47448204 0 10882
0.10050000 0.10051200 17208.05361690 0 429.65270673 0 6187.93480977 0 151.32878499 0 -363.80448380 0 10875
0.10150000 0.10150300 16995.13281064 0 232.70483625 0 6415.13891505 0 597.11497621 0 988.45301014 0 11118
0.10250000 0.10250800 16981.51385111 0 -161.45885497 0 6469.70333176 0 -192.98619266 0 549.72874769 0 11575
0.10350000 0.10349800 17109.50992601 0 133.18013738 0 6430.85054397 0 -144.93894634 0 1058.10568388 0 11364
0.10450000 0.10450100 17132.54036164 0 11.52064325 0 6836.69553787 0 -98.48899360 0 1488.80693976 0 12093
0.10550000 0.10551000 17061.89892929 0 36.68792684 0 6998.98260274 0 -119.64200583 0 1482.65072717 0 12067
0.10650000 0.10649700 17302.94344059 0 31.59255368 0 7174.55645739 0 257.22449956 0 317.62070975 0 12054
0.10750000 0.10749900 17084.70791842 0 246.93720257 0 6882.40209472 0 3.43789042 0 358.33586257 0 12807
0.10850000 0.10850100 16829.38010810 0 405.74534298 0 6405.14060574 0 -315.62547682 0 -529.84506678 0 12736
0.10950000 0.10950300 16652.88725049 0 362.01076718 0 6797.82060543 0 622.55585695 0 684.18773859 0 12933
0.11050000 0.11050200 16292.26163115 0 362.51455796 0 6205.39586601 0 982.84598485 0 490.78965545 0 13428
0.11150000 0.11150900 15902.95869053 0 201.17196240 0 5676.92487474 0 802.25636706 0 148.28611013 0 13453
0.11250000 0.11250000 15852.13671961 0 106.14517404 0 5358.54017458 0 1216.04021786 0 726.40429866 0 13668
0.11350000 0.11349100 15326.97635346 0 596.18379370 0 5392.53221178 0 258.98721367 0 259.89957324 0 13791
0.11450000 0.11448600 14953.06394433 0 468.54646212 0 5205.43206699 0 -84.06219726 0 983.71626958 0 14205
0.11550000 0.11549300 14591.77398550 0 217.17036453 0 5629.10350385 0 -447.33742393 0 932.92640841 0 14776
0.11650000 0.11649800 14580.59093743 0 191.85238660 0 5875.25235689 0 -359.20946900 0 1517.78321382 0 14553
0.11750000 0.11747300 14553.02084864 0 -88.16205769 0 5870.91200557 0 390.91950005 0 312.07901118 0 14568
0.11850000 0.11849100 14483.15447903 0 82.98231342 0 5415.72873227 0 459.19366934 0 789.74796171 0 16015
0.11950000 0.11950300 14416.83125337 0 138.29001529 0 5057.72725391 0 412.74748119 0 692.87397741 0 15270
0.12050000 0.12050700 14227.82666871 0 51.73554844 0 5209.44024857 0 533.86432069 0 171.63653594 0 15999
0.12150000 0.12150000 14259.38279445 0 201.95477576 0 4978.90337353 0 203.26463179 0 676.58437314 0 15670
0.12250000 0.12250700 13879.71277641 0 202.08764366 0 4713.40009670 0 89.37602738 0 95.86795287 0 16887
0.12350000 0.12352200 13825.34766155 0 45.55774481 0 4634.07796170 0 416.07250034 0 233.01486134 0 16407
0.12450000 0.12449800 13804.53169090 0 57.12123795 0 4420.32673107 0 510.81395488 0 267.41657455 0 16306
0.12550000 0.12549900 13693.25482647 0 228.59257481 0 3922.72538140 0 381.70621857 0 491.95224955 0 17523
0.12650000 0.12650100 13607.44430912 0 309.56227174 0 3852.41611880 0 557.22692606 0 333.04002929 0 17154
0.12750000 0.12750600 13268.07755343 0 9.03679970 0 3118.47599587 0 586.65495096 0 407.48148351 0 18007
0.12850000 0.12850300 13422.86865440 0 -67.56144375 0 3408.01728988 0 217.82916785 0 620.76878372 0 17496
0.12950000 0.12949900 13250.69400347 0 -6.07877276 0 2906.91708556 0 251.83559907 0 491.90131686 0 18405
0.13050000 0.13049000 13326.76087497 0 161.78991748 0 3077.68555124 0 -178.33418523 0 343.24096215 0 18100
0.13150000 0.13148800 13193.45008415 0 129.69899846 0 3436.99356393 0 -214.26609373 0 368.17915933 0 19059
0.13250000 0.13249300 12935.68636238 0 405.61468955 0 3741.09496507 0 -380.21920534 0 74.25732146 0 18957
0.13350000 0.13349100 12455.14746525 0 642.05643542 0 3599.93389596 0 78.05025705 0 707.05098211 0 19468
0.13450000 0.13450700 12014.35821422 0 336.47577168 0 3534.91720463 0 -55.01439599 0 489.78318112 0 19953
0.13550000 0.13551000 11875.28981449 0 209.95453044 0 3692.57603772 0 396.02716349 0 830.98240657 0 19956
0.13650000 0.13649900 11722.60245525 0 177.76617496 0 3676.69832393 0 116.86063783 0 548.50857749 0 19723
0.13750000 0.13749600 11367.40227506 0 267.41546732 0 3510.41414980 0 279.73121422 0 447.57658614 0 20946
0.13850000 0.13851100 11121.15377110 0 404.58496334 0 3256.84683913 0 -279.96705474 0 382.83891739 0 20955
0.13950000 0.13949800 11071.41688801 0 39.13479990 0 3402.65828467 0 31.21886272 0 656.64200890 0 20506
0.14050000 0.14048300 11053.73438528 0 -128.85750177 0 3500.58192536 0 332.92487711 0 594.44433147 0 21447
0.14150000 0.14148400 11125.36125453 0 61.02622547 0 3538.77037366 0 320.36221737 0 720.72198156 0 21771
0.14250000 0.14249400 11168.10042833 0 81.67965440 0 3299.29813249 0 242.67435752 0 445.53595668 0 22470
0.14350000 0.14350900 11096.57321000 0 288.26133326 0 3296.13144759 0 196.95008494 0 954.49640439 0 22519
0.14450000 0.14449900 10724.86419351 0 233.95047279 0 3044.21391331 0 36.63588691 0 1151.75429996 0 22218
0.14550000 0.14550500 10698.17989070 0 2.94256997 0 3243.41610913 0 683.46471578 0 1002.72745130 0 23559
0.14650000 0.14650700 10732.62589321 0 -95.91910701 0 2652.05431289 0 282.70634790 0 1265.34528027 0 23044
0.14750000 0.14750500 10735.41611906 0 15.53801486 0 2748.56069601 0 146.40381491 0 1113.62121328 0 23649
0.14850000 0.14849900 10716.88104732 0 82.00030893 0 2525.48656789 0 53.91015303 0 1081.59340651 0 23640
0.14950000 0.14949500 10610.44278884 0 210.39299451 0 2582.03293073 0 -89.26751860 0 970.24125028 0 24457
0.15050000 0.15050000 10410.27730076 0 243.63322084 0 2491.94849601 0 -108.92266672 0 414.68513804 0 24591
0.15150000 0.15149900 10351.82649805 0 74.62492264 0 2649.95057117 0 -91.36262390 0 547.38252206 0 25020
0.15250000 0.15250500 10232.26753466 0 172.28426695 0 2731.09963977 0 -158.70295332 0 250.99963855 0 25297
0.15350000 0.15350100 10093.36521981 0 80.06398076 0 2422.86826147 0 205.97513690 0 273.10553505 0 25452
0.15450000 0.15450400 10074.54226761 0 24.90641962 0 2854.94359286 0 158.63319768 0 668.83263853 0 26061
0.15550000 0.15549900 9934.46628633 0 288.16057510 0 2552.68019764 0 200.43897449 0 387.63544851 0 26128
0.15650000 0.15649500 9669.15123903 0 425.01561709 0 2612.37110074 0 223.79604370 0 618.93742120 0 26331
0.15750000 0.15749700 9427.22094174 0 310.30079581 0 2738.56238670 0 -33.13227117 0 1118.52625318 0 27345
0.15850000 0.15849900 9141.93142046 0 185.67402935 0 2642.89750026 0 342.66741572 0 1024.66615569 0 26980
0.15950000 0.15949700 9136.33989643 0 -11.93242301 0 2736.30363243 0 272.54748988 0 1179.82264338 0 27777
0.16050000 0.16050000 8977.95028990 0 59.64107764 0 2581.25786800 0 249.68203189 0 929.32236668 0 28224
0.16150000 0.16150500 9014.10143043 0 127.28190995 0 2467.14648842 0 -164.77390902 0 762.58754893 0 28075
0.16250000 0.16249700 8908.62646421 0 150.65226595 0 2470.80035561 0 -221.96578841 0 706.35674734 0 28590
0.16350000 0.16349900 8884.04590311 0 150.83938824 0 2679.28115962 0 -274.41317661 0 636.77050755 0 29163
0.16450000 0.16449100 8836.46812337 0 58.92945932 0 2651.03565900 0 -62.63702729 0 638.89196499 0 28996
0.16550000 0.16550500 8679.83901648 0 98.19723784 0 2829.46617346 0 -54.25450233 0 376.68159756 0 30777
0.16650000 0.16650700 8786.75338493 0 29.98950249 0 2770.09636778 0 123.11871582 0 317.56313366 0 29211
0.16750000 0.16749900 8638.52817258 0 37.33056457 0 2746.34623104 0 11.77519600 0 112.54021669 0 30922
0.16850000 0.16850800 8673.09597067 0 76.63178152 0 2605.26266820 0 97.32750673 0 260.60709479 0 30867
0.16950000 0.16949900 8557.37910399 0 118.22696272 0 2430.56352721 0 -118.85476353 0 -260.02358327 0 30852
0.17050000 0.17049200 8518.67025642 0 115.39687649 0 2585.08889238 0 -103.54029891 0 -274.66008945 0 31257
0.17150000 0.17149500 8307.64281770 0 221.99125475 0 2334.26751827 0 -51.52672439 0 -376.13794641 0 32608
0.17250000 0.17250900 8168.98409400 0 220.69579275 0 2411.60770713 0 45.08672811 0 -577.07296106 0 32361
0.17350000 0.17350400 7969.53830704 0 106.67498479 0 2255.48792718 0 148.63045944 0 -412.48949603 0 32508
0.17450000 0.17449800 7918.09628593 0 72.14383610 0 2304.25044568 0 336.18014061 0 -349.24105496 0 32791
0.17550000 0.17549800 7896.54954184 0 -10.52328145 0 1982.82085620 0 343.53659322 0 -64.23476376 0 33633
0.17650000 0.17650100 7940.48452672 0 44.82376039 0 2115.37872893 0 262.03099576 0 -251.30966364 0 33984
0.17750000 0.17750300 7803.87418311 0 119.60103823 0 2100.38680112 0 48.26625690 0 216.19821441 0 34069
0.17850000 0.17849800 7672.00279452 0 237.10608536 0 2141.19939040 0 120.13915321 0 298.23196176 0 34536
