### header ###
fiducial parameters:
Omega_m = 0.31
Omega_nu = 0
Omega_de = 0.69
Omega_k = 0
H_0 = 100
w_de = -1
zeff = 0
beta = 0
fgrowth = 0
b_1 = 2
gamma = 0.55
Lx = 3500 Ly = 3500 Lz = 3500
nx = 700 ny = 700 nz = 700
xoffset = -685.467585 yoffset = -31.7331281 zoffset = 572.489161
bins = 400 dk = 0.001
kx_ny = 0.628318531 ky_ny = 0.628318531 kz_ny = 0.628318531
############################
A(data) = 8.08563391 (not used)
A(ran) = 8.08516056 (used)
Ngal = 480264
weighted Ngal = 0
Nran = 23820508
weighted Nran = 0
SN(data) = 3485.74706
SN(ran) = 70.4246807
SN(data+ran) = 3556.17174
############################
13 columns: k_central k_mean P_0(k) sigma^{lin}_{P_0(k)} P^img_1(k) sigma^{lin}_{P_1(k)} P_2(k) sigma^{lin}_{P_2(k)} P^img_3(k) sigma^{lin}_{P_3(k)} P_4(k) sigma^{lin}_{P_4(k)} N_modes
### header ###
0.00050000 0 0 0 0 0 0 0 0 0 0 0 0
0.00150000 0.00179520 25496.35308315 0 -9829.92139540 0 17670.98751757 0 -1764.02064546 0 -56534.84763102 0 3
0.00250000 0.00253879 43799.01673162 0 -2796.45957317 0 14941.43800327 0 -5268.34501661 0 -15863.98410716 0 6
0.00350000 0.00331552 41459.10232769 0 1202.06694394 0 2818.65958443 0 5953.20152362 0 126486.91703077 0 7
0.00450000 0.00420575 43023.40037807 0 -3300.95898121 0 9234.55141757 0 -14567.85776389 0 -2182.82025940 0 24
0.00550000 0.00557378 55124.23344912 0 -11380.91051134 0 24544.24387199 0 4156.62824319 0 -18469.63430674 0 45
0.00650000 0.00659388 73914.07938961 0 -3232.01161456 0 34627.81008433 0 10961.45763024 0 22084.19474378 0 40
0.00750000 0.00754703 72143.83609761 0 -8176.55756418 0 24030.37727716 0 222.44964900 0 4999.32074049 0 57
0.00850000 0.00846663 85769.10684969 0 -13681.18599242 0 16486.69165496 0 28086.39130472 0 5960.21030523 0 75
0.00950000 0.00948925 92148.09462421 0 -4650.08854339 0 12039.38166831 0 24620.75363649 0 -22004.03111210 0 112
0.01050000 0.01054430 92350.60744514 0 471.98774067 0 19328.29309642 0 7210.36435585 0 -470.91483240 0 105
0.01150000 0.01145670 88846.54880978 0 15553.40539600 0 4494.32307784 0 9927.36892612 0 19957.42259262 0 144
0.01250000 0.01249090 71230.36930007 0 12507.96245463 0 6374.31525345 0 1884.14429741 0 23802.17666264 0 169
0.01350000 0.01339930 66608.44875102 0 -933.38480265 0 2734.08916747 0 998.74030713 0 15663.57502795 0 180
0.01450000 0.01448870 63089.55320041 0 2241.75824441 0 21021.36228444 0 -5233.60006133 0 10673.71005285 0 267
0.01550000 0.01550050 70936.62052263 0 6456.73763940 0 32062.13097735 0 -7398.36135895 0 20816.41355205 0 238
0.01650000 0.01653350 68214.26801947 0 -1063.40711300 0 34022.70753299 0 -5124.69267441 0 15020.82657222 0 315
0.01750000 0.01747870 72440.79584924 0 -8498.55184223 0 37818.96482031 0 7012.18081392 0 28466.28276925 0 297
0.01850000 0.01844180 77886.71881129 0 -11540.13054223 0 35118.09262730 0 3353.68539199 0 1839.73320257 0 388
0.01950000 0.01947590 87372.04731368 0 2662.92733586 0 35556.88885986 0 9919.89510687 0 903.63457310 0 399
0.02050000 0.02045430 84990.05807545 0 5011.24563432 0 31762.84603751 0 -1619.95862724 0 -46.88897042 0 462
0.02150000 0.02154770 76149.36032400 0 7966.70379189 0 24651.64542273 0 -7703.83572837 0 -4685.57534443 0 571
0.02250000 0.02255340 74242.26309724 0 4998.05849546 0 38106.73454235 0 -314.29790507 0 -5344.43403276 0 510
0.02350000 0.02348930 69407.75391167 0 4255.89163519 0 29904.68848644 0 -418.09541408 0 -10290.26437206 0 555
0.02450000 0.02439640 63578.61778765 0 6126.80450445 0 31646.25445717 0 8165.49631168 0 2164.24089835 0 592
0.02550000 0.02547300 61278.78519956 0 2264.09112357 0 25733.41155751 0 15619.50717517 0 -2867.08993319 0 837
0.02650000 0.02652900 63247.88744531 0 -1859.13191565 0 22502.17500569 0 9329.28622872 0 3627.55934638 0 723
0.02750000 0.02749970 61799.29518929 0 -2380.50554671 0 20567.39696688 0 6733.81149566 0 -7727.34227396 0 826
0.02850000 0.02848090 63893.29325899 0 1637.99544437 0 14786.75762556 0 430.34804873 0 -1674.56733325 0 831
0.02950000 0.02946900 60355.79620268 0 417.99133423 0 17077.17873754 0 -5029.01671565 0 -6238.90072091 0 996
0.03050000 0.03053250 60037.90975714 0 3148.43770683 0 18232.35438587 0 -7607.39577920 0 -10392.99340172 0 1041
0.03150000 0.03150510 60905.98002292 0 -120.60972702 0 17225.21572037 0 -10655.16390878 0 -14797.71922713 0 1036
0.03250000 0.03246190 58040.13019011 0 -1133.26351751 0 21068.08749518 0 -3298.39020185 0 -13817.37558769 0 1059
0.03350000 0.03345080 62575.46515908 0 235.11195966 0 25092.87756675 0 -2408.85069825 0 -18761.50078896 0 1302
0.03450000 0.03451200 60567.49905321 0 2006.13917227 0 25430.69419697 0 -532.48913795 0 -18264.46412785 0 1339
0.03550000 0.03553350 59768.52009430 0 2461.03456512 0 24216.50305736 0 7137.51953087 0 -13905.06840025 0 1365
0.03650000 0.03647120 53741.52152577 0 2113.87289275 0 23518.06080780 0 8671.01437360 0 -9210.80128084 0 1308
0.03750000 0.03744890 54497.20769464 0 2401.66475944 0 18644.57703887 0 11164.55728439 0 -9380.36286311 0 1579
0.03850000 0.03847530 51010.42188600 0 3159.76469512 0 16507.50762562 0 5291.81834523 0 -7080.29775621 0 1662
0.03950000 0.03950240 46029.31511984 0 4451.68355496 0 10835.74245425 0 2984.10226187 0 -1257.92682265 0 1683
0.04050000 0.04050350 43275.29576769 0 2067.29162224 0 10078.30685805 0 956.52042536 0 3119.36178186 0 1822
0.04150000 0.04152450 43114.08271833 0 -169.21723297 0 6361.40492271 0 3400.97529130 0 1542.10911144 0 1887
0.04250000 0.04250150 43333.42547299 0 -1523.51867807 0 4841.85013692 0 1617.35663091 0 2203.82445958 0 1920
0.04350000 0.04349210 43137.88821669 0 398.81628211 0 5642.92176522 0 5123.64080355 0 1915.89972499 0 2005
0.04450000 0.04448520 43613.77673740 0 664.27859133 0 5444.40605355 0 1843.34278046 0 2804.87454003 0 2151
0.04550000 0.04548030 43214.28725794 0 177.85032463 0 4775.07294594 0 539.37612398 0 3295.68855459 0 2274
0.04650000 0.04648670 42642.73385080 0 2123.27329652 0 5807.08005299 0 -2204.49987139 0 4097.71240283 0 2311
0.04750000 0.04749250 40487.61654810 0 3144.66204407 0 9002.17653660 0 -3824.19276284 0 4887.73385097 0 2568
0.04850000 0.04851840 38575.09388218 0 1151.44427487 0 9322.21101316 0 1671.78817972 0 5991.64463539 0 2493
0.04950000 0.04949480 38178.04031418 0 -498.84920068 0 9278.10994341 0 5113.72000052 0 7228.22401578 0 2644
0.05050000 0.05050630 39213.30268473 0 -1744.14582241 0 6517.31432848 0 5152.45099273 0 3286.49852500 0 2829
0.05150000 0.05149060 38856.22020932 0 -655.59567421 0 4061.49482835 0 2703.23059820 0 2539.18303369 0 2784
0.05250000 0.05249300 38741.73237070 0 1611.41079248 0 2546.64578061 0 -2975.15582342 0 767.45937185 0 3055
0.05350000 0.05348950 37777.22215575 0 1836.93190439 0 2894.78181756 0 -2777.20480031 0 4428.18808170 0 3009
0.05450000 0.05448610 35907.21721713 0 1110.88634905 0 4623.61461474 0 -3585.29628255 0 824.04670230 0 3336
0.05550000 0.05550870 36037.09558725 0 607.23618833 0 6725.87263876 0 -2401.02256460 0 -5061.32575948 0 3349
0.05650000 0.05647670 35288.49570626 0 301.76956954 0 8571.14200374 0 -2006.83672873 0 -6562.48941374 0 3324
0.05750000 0.05747970 35312.07975812 0 1556.49206138 0 8850.25316777 0 -3720.84368298 0 -7438.36566852 0 3639
0.05850000 0.05849280 34004.21675054 0 1043.81352700 0 10210.44398244 0 -1855.59984403 0 -3584.58765376 0 3846
0.05950000 0.05951020 33963.69204171 0 -314.66439902 0 12577.27520800 0 -1012.06142112 0 -6172.31175945 0 3787
0.06050000 0.06049470 34308.70568306 0 614.48856109 0 12589.01187230 0 -267.45200599 0 -4289.14182662 0 3930
0.06150000 0.06148310 33703.04951548 0 1706.30061618 0 15287.55887710 0 297.23213083 0 -4321.91590809 0 4083
0.06250000 0.06249100 32605.89284920 0 1125.39109457 0 15320.66512831 0 -292.68472702 0 -1116.02390777 0 4303
0.06350000 0.06350600 32312.47624150 0 313.11870248 0 16825.50479441 0 940.19206795 0 -357.55526367 0 4470
0.06450000 0.06451750 32159.67815901 0 515.90279537 0 17680.95260990 0 1876.02828332 0 1094.60670987 0 4479
0.06550000 0.06550280 32426.29974064 0 -110.50423760 0 17418.09561871 0 589.83381541 0 -297.06493872 0 4636
0.06650000 0.06648880 31884.97378026 0 762.33177823 0 16382.83324817 0 1691.14260350 0 1463.16343548 0 4653
0.06750000 0.06749660 31221.18790738 0 1208.31173513 0 15837.85342059 0 1441.21808769 0 785.71431378 0 5220
0.06850000 0.06852730 29710.47990912 0 796.85971594 0 13684.39696661 0 1604.42415552 0 966.42683438 0 5029
0.06950000 0.06949320 28766.56421833 0 463.64142222 0 12390.59581155 0 3775.77348641 0 1113.96445535 0 5040
0.07050000 0.07048030 28886.36677287 0 155.68795927 0 10747.11956640 0 2071.95307099 0 -1211.34555213 0 5475
0.07150000 0.07148790 28075.98331939 0 205.77029889 0 9498.73708775 0 2852.48553675 0 974.78865408 0 5509
0.07250000 0.07249820 27823.53431353 0 127.52439387 0 8176.66828742 0 1135.82122455 0 84.64526588 0 5916
0.07350000 0.07351270 28056.71747421 0 149.49631524 0 6850.15948485 0 1061.00109682 0 2231.90387532 0 5721
0.07450000 0.07449140 27428.25231750 0 149.14975147 0 7656.53475674 0 1346.59399979 0 2053.03046787 0 6028
0.07550000 0.07549160 27180.67513456 0 480.64408422 0 6469.03899227 0 1061.24690243 0 1505.60365651 0 6183
0.07650000 0.07648840 27388.83484115 0 -173.52547456 0 6502.74314902 0 1527.65972755 0 2053.34049297 0 6330
0.07750000 0.07749960 26921.69345705 0 -119.81362686 0 6498.80140138 0 452.86915741 0 1247.31953547 0 6583
0.07850000 0.07848650 26775.53876944 0 851.89249199 0 5972.73310460 0 -365.78532271 0 2745.80368713 0 6549
0.07950000 0.07947320 26600.70676056 0 680.92583170 0 7308.09976703 0 -1420.84501003 0 1172.76957247 0 6828
0.08050000 0.08048110 25242.68612155 0 902.03572940 0 7401.33981432 0 -727.79941158 0 1506.15727276 0 7147
0.08150000 0.08149960 25441.76652179 0 782.06598275 0 8324.08522006 0 -1677.75616280 0 1309.40206073 0 7386
0.08250000 0.08250610 24225.25019396 0 314.95449393 0 8869.04290298 0 -860.65955878 0 116.98464787 0 7227
0.08350000 0.08350160 24453.11863873 0 750.76119879 0 10663.30206752 0 -1053.44423513 0 934.01703240 0 7798
0.08450000 0.08449610 23665.76562088 0 1229.21628439 0 10846.58226024 0 -664.13797281 0 371.60604387 0 7371
0.08550000 0.08548940 22769.57165006 0 913.33171518 0 10466.45827689 0 1297.51038387 0 1508.90320931 0 8256
0.08650000 0.08650700 21863.08041715 0 260.49969324 0 9833.29845447 0 1804.39034175 0 439.66762453 0 8037
0.08750000 0.08749060 21754.12874094 0 316.95637026 0 8394.90380960 0 2662.03047755 0 813.80369461 0 8155
0.08850000 0.08849210 21451.30065715 0 212.47016264 0 6539.53648439 0 2579.76310415 0 210.18483480 0 8718
0.08950000 0.08949900 21074.73089007 0 40.29562244 0 5947.67643353 0 1476.92633523 0 1130.03039867 0 8571
0.09050000 0.09049190 20617.55459830 0 515.01811661 0 4732.15661494 0 887.49444521 0 862.87291651 0 8932
0.09150000 0.09150830 19974.69541933 0 720.83713374 0 4866.71857846 0 -382.40488226 0 422.20435382 0 9285
0.09250000 0.09250820 19351.54497854 0 1022.49930172 0 4976.42317277 0 -1147.17035749 0 625.64503558 0 9204
0.09350000 0.09350330 18889.82903360 0 333.85938133 0 5718.63432233 0 -1345.17674222 0 -13.08416624 0 9349
0.09450000 0.09448040 18777.00204370 0 204.08066213 0 5766.69928437 0 -769.54207615 0 169.55604611 0 9564
0.09550000 0.09549270 18881.96768298 0 -172.11264591 0 5993.12832691 0 396.75572246 0 113.06725935 0 10155
0.09650000 0.09649430 19119.02615735 0 -425.78625090 0 5650.69453725 0 1033.09440934 0 -834.55212409 0 9913
0.09750000 0.09749140 19219.78431320 0 -154.77892141 0 5491.76238680 0 683.19122936 0 -1062.91218008 0 10476
0.09850000 0.09850240 19164.09051936 0 188.54065424 0 5266.79489114 0 595.86380351 0 -1115.70281035 0 10575
0.09950000 0.09950330 18920.05648036 0 633.71233144 0 5047.35248555 0 345.80088364 0 -530.29681763 0 10882
0.10050000 0.10051200 18149.31194973 0 604.80802750 0 5387.57181026 0 85.39707674 0 -43.41524995 0 10875
0.10150000 0.10150300 17806.62349660 0 934.25508739 0 5378.60322715 0 56.50871694 0 -64.39564464 0 11118
0.10250000 0.10250800 17185.35535102 0 533.90528829 0 5579.69879051 0 -131.69423139 0 755.94193958 0 11575
0.10350000 0.10349800 16867.91179847 0 254.52949570 0 6066.71499766 0 354.54469855 0 282.50704605 0 11364
0.10450000 0.10450100 16545.48569975 0 325.53410030 0 6199.21750876 0 314.35658839 0 739.67005102 0 12093
0.10550000 0.10551000 16635.06080753 0 298.80329372 0 6441.24745697 0 58.83722685 0 1106.39541411 0 12067
0.10650000 0.10649700 15908.49485293 0 491.98325206 0 5562.90207376 0 695.79153500 0 1206.98305616 0 12054
0.10750000 0.10749900 15909.82353191 0 239.44013144 0 5616.06030521 0 291.72032753 0 1248.58178050 0 12807
0.10850000 0.10850100 15485.97493786 0 32.07419981 0 5668.39918463 0 281.82831254 0 657.06718618 0 12736
0.10950000 0.10950300 15400.82876000 0 346.88597148 0 5537.07033996 0 485.06526352 0 745.98902680 0 12933
0.11050000 0.11050200 15192.77977666 0 198.40055950 0 5244.15198688 0 519.45258270 0 1146.01883570 0 13428
0.11150000 0.11150900 14944.64897747 0 172.90320990 0 5127.07322425 0 305.34593045 0 1110.49881769 0 13453
0.11250000 0.11250000 15131.10692742 0 42.73939525 0 5238.29472705 0 331.26181392 0 1760.32248897 0 13668
0.11350000 0.11349100 15011.85798912 0 213.20425778 0 5068.12416691 0 301.44625765 0 2037.45170685 0 13791
0.11450000 0.11448600 14883.19757473 0 70.31911697 0 5274.39050596 0 491.98989546 0 2873.31257974 0 14205
0.11550000 0.11549300 15077.84904504 0 -30.64365544 0 5499.20298908 0 406.96440594 0 2313.65084945 0 14776
0.11650000 0.11649800 14887.40505816 0 18.20478430 0 5061.19289158 0 522.25055919 0 2280.40065802 0 14553
0.11750000 0.11747300 15115.38422618 0 111.52488450 0 4660.48545639 0 64.41491048 0 1476.71596106 0 14568
0.11850000 0.11849100 14428.45719443 0 256.14273342 0 4476.81773230 0 -148.52195065 0 1478.68683488 0 16015
0.11950000 0.11950300 14333.89954047 0 391.66577474 0 4571.28680765 0 -320.16734446 0 1006.42339332 0 15270
0.12050000 0.12050700 13928.54172886 0 184.16376424 0 4018.35705086 0 -169.19841002 0 -465.16497412 0 15999
0.12150000 0.12150000 13982.90684372 0 -44.66675483 0 4109.52657342 0 99.13860690 0 -494.70482950 0 15670
0.12250000 0.12250700 13780.72619254 0 176.14407938 0 3893.76017967 0 -83.84551186 0 -906.11034493 0 16887
0.12350000 0.12352200 13913.70481361 0 135.67694663 0 4020.46079257 0 134.77012323 0 -636.86462231 0 16407
0.12450000 0.12449800 13901.52525631 0 31.00040575 0 3812.89899152 0 -103.86206067 0 -200.08355287 0 16306
0.12550000 0.12549900 13900.30730058 0 231.15471077 0 4136.41017807 0 407.64424669 0 -519.69838832 0 17523
0.12650000 0.12650100 13485.87018261 0 254.89156072 0 3945.97726352 0 224.66632843 0 -85.69879759 0 17154
0.12750000 0.12750600 13446.56342951 0 130.04888392 0 3616.74168504 0 313.83618912 0 -128.81210524 0 18007
0.12850000 0.12850300 13164.44059313 0 232.19440207 0 3563.46165801 0 216.44402002 0 176.95235909 0 17496
0.12950000 0.12949900 12930.59309296 0 343.65617433 0 3747.43940720 0 203.71859711 0 5.83522590 0 18405
0.13050000 0.13049000 12645.81289862 0 308.55801188 0 3671.97044123 0 209.39537804 0 89.17362528 0 18100
0.13150000 0.13148800 12307.11048242 0 480.70166030 0 3768.02285903 0 63.94998356 0 326.95800127 0 19059
0.13250000 0.13249300 12161.17724131 0 190.81490976 0 3651.29841080 0 67.66995253 0 488.66266185 0 18957
0.13350000 0.13349100 11975.49435410 0 43.88992052 0 3851.38639259 0 185.27985459 0 860.04836645 0 19468
0.13450000 0.13450700 12026.98066451 0 122.21742858 0 3758.53387666 0 -105.67127854 0 742.39052123 0 19953
0.13550000 0.13551000 11897.98808037 0 157.03878290 0 3857.12185685 0 -99.50421506 0 106.50369592 0 19956
0.13650000 0.13649900 11703.77950305 0 313.57488226 0 4061.78270880 0 -278.49665000 0 -23.68403496 0 19723
0.13750000 0.13749600 11561.61085238 0 255.25805467 0 3812.76612363 0 -319.40999744 0 -96.83246309 0 20946
0.13850000 0.13851100 11288.67804560 0 90.51193719 0 3825.10069347 0 -421.52562031 0 -867.41810585 0 20955
0.13950000 0.13949800 11444.57637905 0 -1.21395862 0 4428.60883004 0 -101.64405256 0 -771.29039624 0 20506
0.14050000 0.14048300 11484.43674840 0 -15.40636492 0 4440.88803826 0 -247.35462922 0 -1158.80737087 0 21447
0.14150000 0.14148400 11513.22479292 0 170.81939837 0 4686.97045736 0 317.07927306 0 -349.05836161 0 21771
0.14250000 0.14249400 11386.44667375 0 104.48731485 0 4213.92752413 0 488.67151971 0 411.83512163 0 22470
0.14350000 0.14350900 11370.61324926 0 225.16679751 0 4116.25854690 0 709.47803571 0 303.95303199 0 22519
0.14450000 0.14449900 11147.61662741 0 153.72815778 0 3945.24649008 0 485.17045060 0 315.20251401 0 22218
0.14550000 0.14550500 10863.95473788 0 119.12271379 0 3739.38982705 0 487.89534974 0 690.95735798 0 23559
0.14650000 0.14650700 10870.14416746 0 -19.81259658 0 3634.87815309 0 396.81440578 0 895.99356174 0 23044
0.14750000 0.14750500 10865.96990100 0 -111.41748295 0 3261.94010855 0 583.59456038 0 411.90266281 0 23649
0.14850000 0.14849900 10821.10484084 0 135.22851748 0 3339.56817785 0 268.62899412 0 596.01106543 0 23640
0.14950000 0.14949500 10551.20585106 0 398.30031177 0 3045.50937532 0 -17.64386032 0 408.11371326 0 24457
0.15050000 0.15050000 10351.23966483 0 250.88227190 0 3409.43454746 0 -129.51298340 0 1042.62546655 0 24591
0.15150000 0.15149900 10143.62250216 0 225.06603936 0 3612.54527393 0 -80.50798099 0 1004.69832511 0 25020
0.15250000 0.15250500 9958.06141052 0 241.18845152 0 3479.99847353 0 64.42819727 0 990.35855724 0 25297
0.15350000 0.15350100 9916.75056662 0 113.30752880 0 3408.50447217 0 162.24388280 0 996.41511892 0 25452
0.15450000 0.15450400 9724.16962105 0 144.36650715 0 3287.57254050 0 259.34706423 0 882.58054746 0 26061
0.15550000 0.15549900 9618.27390649 0 7.76969392 0 3147.29725738 0 329.77037177 0 1013.27384069 0 26128
0.15650000 0.15649500 9495.63683680 0 -62.78229619 0 2820.39793943 0 447.68952386 0 741.19581738 0 26331
0.15750000 0.15749700 9655.00080791 0 -29.73295673 0 2451.45700415 0 514.38145794 0 800.28660047 0 27345
0.15850000 0.15849900 9665.22056372 0 -9.62042194 0 2300.41942130 0 188.57276399 0 602.22706858 0 26980
0.15950000 0.15949700 9550.71058044 0 200.23635095 0 2136.78153280 0 -62.30231091 0 786.08634389 0 27777
0.16050000 0.16050000 9505.53549518 0 233.06136511 0 2427.57399951 0 -432.10190498 0 1029.07736990 0 28224
0.16150000 0.16150500 9354.29861049 0 232.65390355 0 2450.03974657 0 -302.78822342 0 1076.60643142 0 28075
0.16250000 0.16249700 9244.01825529 0 9.55388834 0 2814.19743753 0 -141.30722380 0 1247.47454802 0 28590
0.16350000 0.16349900 9242.56778074 0 65.61138590 0 2592.91702603 0 371.93599915 0 687.14183485 0 29163
0.16450000 0.16449100 9275.13148803 0 123.81073612 0 2761.18314630 0 102.55264753 0 826.42282321 0 28996
0.16550000 0.16550500 8985.18051801 0 204.70624848 0 2522.64098041 0 230.34532383 0 772.25811743 0 30777
0.16650000 0.16650700 8879.30694809 0 181.46986762 0 2391.03532761 0 136.93919166 0 894.36703723 0 29211
0.16750000 0.16749900 8693.34725276 0 162.81410753 0 2490.50909378 0 137.66553617 0 861.10466624 0 30922
0.16850000 0.16850800 8648.02822728 0 115.17100107 0 2425.08272643 0 247.87281402 0 958.81239660 0 30867
0.16950000 0.16949900 8464.10583972 0 142.11661074 0 2270.41342104 0 56.92636504 0 925.58988598 0 30852
0.17050000 0.17049200 8448.52707870 0 58.41105307 0 2294.94969284 0 237.29210042 0 975.95346265 0 31257
0.17150000 0.17149500 8383.48824271 0 -20.88926945 0 2142.43949078 0 167.72357635 0 677.60745595 0 32608
0.17250000 0.17250900 8471.41357410 0 27.04503916 0 2285.17283002 0 -7.29717138 0 557.12284620 0 32361
0.17350000 0.17350400 8347.54747635 0 161.67144361 0 2244.88064001 0 -147.50440400 0 642.90900443 0 32508
0.17450000 0.17449800 8210.05134675 0 247.74991121 0 2339.91440392 0 -192.48461634 0 613.64263547 0 32791
0.17550000 0.17549800 8126.39993275 0 169.28255969 0 2362.73446538 0 -98.50881306 0 716.70604935 0 33633
0.17650000 0.17650100 8008.50181808 0 137.23039380 0 2574.49267753 0 205.33294206 0 620.69902808 0 33984
0.17750000 0.17750300 7907.50007108 0 93.53844645 0 2454.14757908 0 117.57037385 0 609.64331175 0 34069
0.17850000 0.17849800 7830.45883499 0 112.55571794 0 2593.81388434 0 116.22397916 0 684.75464162 0 34536
