### header ###
fiducial parameters:
Omega_m = 0.31
Omega_nu = 0
Omega_de = 0.69
Omega_k = 0
H_0 = 100
w_de = -1
zeff = 0
beta = 0
fgrowth = 0
b_1 = 2
gamma = 0.55
Lx = 3500 Ly = 3500 Lz = 3500
nx = 700 ny = 700 nz = 700
xoffset = -685.467585 yoffset = -31.7331281 zoffset = 572.489161
bins = 400 dk = 0.001
kx_ny = 0.628318531 ky_ny = 0.628318531 kz_ny = 0.628318531
############################
A(data) = 8.05685501 (not used)
A(ran) = 8.04728674 (used)
Ngal = 478304
weighted Ngal = 0
Nran = 23820508
weighted Nran = 0
SN(data) = 3498.20729
SN(ran) = 70.094786
SN(data+ran) = 3568.30208
############################
13 columns: k_central k_mean P_0(k) sigma^{lin}_{P_0(k)} P^img_1(k) sigma^{lin}_{P_1(k)} P_2(k) sigma^{lin}_{P_2(k)} P^img_3(k) sigma^{lin}_{P_3(k)} P_4(k) sigma^{lin}_{P_4(k)} N_modes
### header ###
0.00050000 0 0 0 0 0 0 0 0 0 0 0 0
0.00150000 0.00179520 5712.74384553 0 -13713.62790413 0 -23623.02644708 0 9810.65555021 0 16053.54230806 0 3
0.00250000 0.00253879 10451.63243396 0 -19842.04896801 0 -23391.28268862 0 -9326.67316006 0 -33465.65887137 0 6
0.00350000 0.00331552 22084.41619028 0 -24415.58345760 0 -26003.24411334 0 -991.21555518 0 827.25656927 0 7
0.00450000 0.00420575 41121.95003696 0 -31903.57528595 0 -36441.67833612 0 -7444.06791580 0 -9988.03419381 0 24
0.00550000 0.00557378 55293.41857235 0 -7983.34549609 0 -33434.54563863 0 -26861.90290303 0 -5894.79501020 0 45
0.00650000 0.00659388 65608.61781990 0 3230.21789794 0 -50195.38805610 0 -35198.36698224 0 -8466.32030468 0 40
0.00750000 0.00754703 51553.18724861 0 4948.18874448 0 -26082.07906605 0 -45524.19566161 0 -5196.12024182 0 57
0.00850000 0.00846663 52368.99614125 0 14603.17848006 0 -10322.67306680 0 -51165.87732645 0 -9626.92139217 0 75
0.00950000 0.00948925 51294.98063384 0 134.68265186 0 16655.87677819 0 -32703.32930760 0 -19950.44702798 0 112
0.01050000 0.01054430 44715.25161036 0 1947.55550165 0 26035.68602506 0 -20536.83735038 0 -3565.72041227 0 105
0.01150000 0.01145670 58148.86041983 0 -2716.01913336 0 31027.31149980 0 7055.23001282 0 -21584.94361771 0 144
0.01250000 0.01249090 61551.16439010 0 -14731.94961771 0 26131.35091149 0 25067.74338942 0 -20736.47136686 0 169
0.01350000 0.01339930 70066.77868488 0 -8992.43289076 0 12547.93354723 0 7147.03065789 0 -18888.83252437 0 180
0.01450000 0.01448870 72284.34389955 0 8078.75571905 0 16722.53217360 0 8274.23761373 0 -9772.92106723 0 267
0.01550000 0.01550050 68478.23224314 0 -1276.42867742 0 3969.46166446 0 19947.34677703 0 477.27809747 0 238
0.01650000 0.01653350 64267.09494487 0 -6564.43814291 0 5502.42503560 0 4828.30868367 0 -12342.09902885 0 315
0.01750000 0.01747870 67984.62800273 0 1323.25353908 0 2032.59095626 0 -5357.90905207 0 -22161.47957102 0 297
0.01850000 0.01844180 70794.67331845 0 -1490.23526967 0 11227.55881260 0 -16171.68401387 0 -16385.04771313 0 388
0.01950000 0.01947590 65849.66233120 0 8633.93315778 0 12043.81059823 0 -20442.72258942 0 865.04087771 0 399
0.02050000 0.02045430 75007.36074220 0 560.65602505 0 25679.26788915 0 -14259.60424094 0 -1264.11625222 0 462
0.02150000 0.02154770 69148.44006442 0 -2545.32817396 0 35503.40953099 0 5729.28589881 0 -1432.23843227 0 571
0.02250000 0.02255340 79283.71403366 0 3322.35071276 0 38058.68065264 0 8880.36989127 0 1961.16338885 0 510
0.02350000 0.02348930 72867.85541750 0 852.04196837 0 26942.39870446 0 14242.99575371 0 659.86848436 0 555
0.02450000 0.02439640 75444.93901904 0 1922.12237154 0 37636.93580029 0 13460.73600528 0 15596.69818604 0 592
0.02550000 0.02547300 72076.18419296 0 2348.35151544 0 29027.31746781 0 5665.74182668 0 7713.83403768 0 837
0.02650000 0.02652900 70439.25169178 0 3406.37858581 0 34154.35747509 0 6073.23659698 0 25172.59830545 0 723
0.02750000 0.02749970 63887.97854308 0 4708.03001916 0 25459.15007175 0 -293.52400924 0 8773.88734349 0 826
0.02850000 0.02848090 61623.13450142 0 1988.84420090 0 25684.02898882 0 11217.48299702 0 16022.53979857 0 831
0.02950000 0.02946900 59925.96855322 0 824.96570526 0 22774.88636597 0 7124.97458685 0 7686.95043302 0 996
0.03050000 0.03053250 58052.97408690 0 1057.02945390 0 20008.13384029 0 3984.98506385 0 3542.63461503 0 1041
0.03150000 0.03150510 57261.41358561 0 1870.58069951 0 16589.77499903 0 4572.92551173 0 6128.72001664 0 1036
0.03250000 0.03246190 54770.91556416 0 -1057.82998299 0 15574.88570615 0 -1873.85810766 0 996.98312918 0 1059
0.03350000 0.03345080 55787.13353601 0 478.38422272 0 14368.44519391 0 1228.29728143 0 1995.29936627 0 1302
0.03450000 0.03451200 54995.24086498 0 3663.36724485 0 18288.71251920 0 -1346.61614444 0 2520.90262541 0 1339
0.03550000 0.03553350 51810.06518440 0 3787.44371677 0 22077.77279539 0 -1537.91270034 0 7200.53213141 0 1365
0.03650000 0.03647120 49713.96337298 0 197.04309247 0 21566.78500501 0 1073.09318275 0 4268.69124268 0 1308
0.03750000 0.03744890 49576.33437549 0 -193.27185864 0 20796.04047438 0 3429.04363471 0 2870.07946089 0 1579
0.03850000 0.03847530 51012.63635096 0 1213.99183777 0 22311.06667932 0 -153.19668619 0 1128.39169459 0 1662
0.03950000 0.03950240 49489.30590241 0 793.51365938 0 22677.89280056 0 1323.79608299 0 2106.21084398 0 1683
0.04050000 0.04050350 49287.23597447 0 429.94058717 0 22989.80019070 0 72.60267324 0 4656.27797296 0 1822
0.04150000 0.04152450 47814.94894334 0 1790.36170620 0 23540.42690393 0 3517.95440300 0 -217.96535745 0 1887
0.04250000 0.04250150 46533.65951532 0 5922.94085989 0 22556.09722755 0 -865.79933196 0 1861.36852526 0 1920
0.04350000 0.04349210 41660.95080914 0 1869.21880356 0 17457.40237182 0 2679.48046146 0 7283.77386940 0 2005
0.04450000 0.04448520 40682.26801841 0 -262.95996382 0 18844.32177860 0 7596.14629718 0 10901.93281201 0 2151
0.04550000 0.04548030 41768.24163663 0 -1478.89720905 0 13202.19722076 0 6723.65817380 0 8172.18399587 0 2274
0.04650000 0.04648670 42234.94012773 0 -497.84383359 0 13067.44702772 0 5666.94871008 0 6079.51460515 0 2311
0.04750000 0.04749250 42170.38847404 0 473.57883375 0 10861.70705595 0 -1509.92186319 0 6996.36953408 0 2568
0.04850000 0.04851840 42747.81021333 0 711.79879499 0 13522.74102426 0 -4250.32225581 0 6755.04821466 0 2493
0.04950000 0.04949480 41222.81891606 0 978.27754363 0 18548.13708970 0 -3977.88770365 0 10939.00295550 0 2644
0.05050000 0.05050630 40436.68385394 0 3638.18877821 0 19212.47657882 0 -936.29571685 0 9966.77533015 0 2829
0.05150000 0.05149060 39022.74797460 0 2112.79887724 0 21455.39741733 0 -279.58838123 0 8267.80459301 0 2784
0.05250000 0.05249300 36409.56859415 0 2003.51503128 0 22079.76581386 0 510.98557592 0 5265.74302028 0 3055
0.05350000 0.05348950 35104.80583752 0 1803.43812181 0 22883.83804219 0 2940.75411021 0 5768.00581870 0 3009
0.05450000 0.05448610 34013.18533365 0 773.37974393 0 20407.95548949 0 3462.31597079 0 2153.03570564 0 3336
0.05550000 0.05550870 33675.92231967 0 -692.79314944 0 20002.81912437 0 2045.18018958 0 1085.22845075 0 3349
0.05650000 0.05647670 33648.35223087 0 257.61756709 0 17026.68893637 0 1953.00308546 0 1449.01300437 0 3324
0.05750000 0.05747970 34987.43919444 0 -747.08075802 0 14206.78925156 0 4342.80938502 0 3191.76371385 0 3639
0.05850000 0.05849280 34184.80636834 0 -218.99397643 0 10366.64126865 0 2871.26419965 0 -21.37689463 0 3846
0.05950000 0.05951020 34001.11649960 0 -6.00290519 0 12782.33466364 0 1822.02855518 0 -1067.17723960 0 3787
0.06050000 0.06049470 33802.92188534 0 900.86759913 0 11221.69048045 0 405.49289397 0 -4026.78309005 0 3930
0.06150000 0.06148310 31744.68742480 0 1976.64249895 0 11602.35700771 0 -1176.63381383 0 -230.42061564 0 4083
0.06250000 0.06249100 31541.51026438 0 1143.67150284 0 12071.49141028 0 -2041.11664637 0 402.84107218 0 4303
0.06350000 0.06350600 30941.39025921 0 -728.95093337 0 11091.47994058 0 275.66767101 0 -1467.78059493 0 4470
0.06450000 0.06451750 32064.01327257 0 -380.87579420 0 11363.96985437 0 1730.38292266 0 -4125.63680603 0 4479
0.06550000 0.06550280 32114.83524349 0 -37.97287014 0 10872.28112615 0 -579.62291747 0 -3930.61994900 0 4636
0.06650000 0.06648880 32448.66583677 0 538.62209866 0 10827.17247484 0 379.58143943 0 -4049.43706662 0 4653
0.06750000 0.06749660 31555.57211690 0 581.50189099 0 11001.78303723 0 -1330.73843065 0 -95.93527261 0 5220
0.06850000 0.06852730 31688.32929148 0 -205.72822406 0 10011.44108847 0 2854.40104895 0 -1055.71627618 0 5029
0.06950000 0.06949320 31030.07958101 0 -182.38222718 0 11268.74786093 0 2805.90426624 0 -1097.11791314 0 5040
0.07050000 0.07048030 31522.46586569 0 894.46004475 0 9046.95301817 0 2829.69869228 0 -2336.03909024 0 5475
0.07150000 0.07148790 30118.49507869 0 1586.91880998 0 10435.85437110 0 1005.33609102 0 2148.56248641 0 5509
0.07250000 0.07249820 28780.29390111 0 1116.45572844 0 9440.60738245 0 1317.59558109 0 3093.05393809 0 5916
0.07350000 0.07351270 28623.95267467 0 2.56168200 0 10798.77196168 0 -774.14151988 0 5406.70478754 0 5721
0.07450000 0.07449140 28724.04649103 0 -25.84369191 0 11843.18007252 0 -212.03169858 0 3779.48271522 0 6028
0.07550000 0.07549160 29061.19878176 0 -41.80644116 0 12582.03630767 0 -881.39802317 0 4279.59748263 0 6183
0.07650000 0.07648840 28874.29793882 0 155.96587463 0 11906.84594023 0 -343.12691720 0 3384.64361219 0 6330
0.07750000 0.07749960 28684.29684493 0 635.24031226 0 12694.97402082 0 -200.62831125 0 3125.03081217 0 6583
0.07850000 0.07848650 27927.50344358 0 1860.96992157 0 12863.38408131 0 1151.66572136 0 2725.04307809 0 6549
0.07950000 0.07947320 26073.11048295 0 1510.74121523 0 11400.95141926 0 1590.72768972 0 1948.41914299 0 6828
0.08050000 0.08048110 24432.41339132 0 754.10836259 0 9830.60787953 0 2630.18647137 0 2169.88778401 0 7147
0.08150000 0.08149960 23965.93634671 0 888.93938360 0 8705.43823146 0 1721.30361631 0 851.88141966 0 7386
0.08250000 0.08250610 22951.15777708 0 921.90280182 0 7780.17940799 0 1005.11243006 0 1503.45562550 0 7227
0.08350000 0.08350160 22117.30099499 0 566.58414776 0 7105.59801842 0 329.89216734 0 1868.22229433 0 7798
0.08450000 0.08449610 21900.28342855 0 -73.28007807 0 7005.92495040 0 -213.81323564 0 1379.46773218 0 7371
0.08550000 0.08548940 21814.80508095 0 12.41041527 0 7479.68758474 0 -734.77940515 0 1128.28097134 0 8256
0.08650000 0.08650700 22155.61123886 0 38.27913064 0 7510.28041821 0 -577.90670712 0 -441.64403451 0 8037
0.08750000 0.08749060 22245.51851639 0 -20.06836729 0 8693.10366162 0 -615.61904545 0 -74.53235801 0 8155
0.08850000 0.08849210 21899.17619606 0 380.71967442 0 7949.69670097 0 -369.47683580 0 600.03917720 0 8718
0.08950000 0.08949900 22009.34582801 0 551.24454896 0 7796.54430408 0 322.04521075 0 -586.50990350 0 8571
0.09050000 0.09049190 21387.96695919 0 489.88836821 0 8574.59656908 0 -705.84852763 0 533.93629080 0 8932
0.09150000 0.09150830 21299.05619089 0 697.08699700 0 9052.72169940 0 241.07994274 0 244.75152565 0 9285
0.09250000 0.09250820 20498.85927625 0 648.76183533 0 9233.72099321 0 541.31488806 0 648.35990994 0 9204
0.09350000 0.09350330 20315.05868426 0 -37.79693089 0 8761.50848435 0 599.23089749 0 284.23432872 0 9349
0.09450000 0.09448040 20171.89352435 0 194.11335533 0 9489.60241977 0 423.81205539 0 14.83735815 0 9564
0.09550000 0.09549270 19853.56418582 0 772.81616260 0 8527.66098418 0 208.76425553 0 -963.91673834 0 10155
0.09650000 0.09649430 19136.96332356 0 707.36100720 0 8113.45638503 0 -525.53018180 0 -130.44305869 0 9913
0.09750000 0.09749140 18533.41089769 0 696.46694681 0 7860.50912455 0 187.00824449 0 -781.21784267 0 10476
0.09850000 0.09850240 17914.24649383 0 152.10163327 0 7407.85034132 0 817.50849450 0 -1038.65382364 0 10575
0.09950000 0.09950330 17767.75963648 0 347.05316358 0 6456.01793828 0 1767.91810379 0 -1073.71876910 0 10882
0.10050000 0.10051200 17273.04816358 0 278.25084439 0 6165.13689297 0 1006.28056033 0 -199.49118349 0 10875
0.10150000 0.10150300 17140.73388200 0 434.52231518 0 6075.37355567 0 1170.85406027 0 -167.93727222 0 11118
0.10250000 0.10250800 16485.25225274 0 206.39920694 0 5401.37899931 0 807.40610533 0 819.67424123 0 11575
0.10350000 0.10349800 16506.06822340 0 309.52351861 0 5644.85942207 0 493.35843480 0 1310.52036553 0 11364
0.10450000 0.10450100 16548.69667395 0 -19.24979031 0 5502.46932490 0 114.92298099 0 966.70142803 0 12093
0.10550000 0.10551000 16478.38741135 0 -109.39490138 0 5726.59532388 0 146.84449344 0 1734.26930867 0 12067
0.10650000 0.10649700 16385.49060612 0 134.31615791 0 5690.17844755 0 -269.30551317 0 1523.96157106 0 12054
0.10750000 0.10749900 16448.27068784 0 72.99540860 0 5835.94560379 0 -177.71192057 0 545.52569319 0 12807
0.10850000 0.10850100 16287.27908498 0 432.04875782 0 6123.68210885 0 -331.78996382 0 333.69440369 0 12736
0.10950000 0.10950300 16036.93382083 0 396.29179205 0 5955.86995390 0 -7.60990920 0 606.29946965 0 12933
0.11050000 0.11050200 15753.48230547 0 62.87618950 0 5768.78088144 0 724.95936027 0 1300.94280457 0 13428
0.11150000 0.11150900 15750.60350102 0 -6.41226011 0 5652.76506199 0 1009.77277158 0 1276.20723092 0 13453
0.11250000 0.11250000 15742.18853416 0 -60.30918172 0 4954.44460800 0 1288.45322217 0 1418.64161739 0 13668
0.11350000 0.11349100 15626.03984681 0 231.36619218 0 4476.68486440 0 1365.50553058 0 1312.70161352 0 13791
0.11450000 0.11448600 15227.76832308 0 184.91446787 0 4309.94672496 0 13.16754084 0 1615.38575709 0 14205
0.11550000 0.11549300 15320.33295857 0 188.70563188 0 4178.39643379 0 -84.59377957 0 1207.71382959 0 14776
0.11650000 0.11649800 14991.26346496 0 513.97288915 0 4148.09148076 0 -828.59299887 0 1456.44253432 0 14553
0.11750000 0.11747300 14480.71856757 0 626.14661189 0 4651.25113749 0 -701.99314413 0 1078.27281630 0 14568
0.11850000 0.11849100 14235.68801933 0 388.79804261 0 4475.30082380 0 234.18742054 0 1385.40249828 0 16015
0.11950000 0.11950300 13775.30075337 0 39.78120222 0 4483.91509251 0 325.77990591 0 689.19353664 0 15270
0.12050000 0.12050700 14020.77419460 0 77.19735587 0 4658.82460767 0 357.71359792 0 242.47616290 0 15999
0.12150000 0.12150000 13725.25384519 0 334.84149654 0 4710.38842435 0 260.21734896 0 782.96948446 0 15670
0.12250000 0.12250700 13289.00424734 0 357.13230086 0 4228.27725710 0 68.23342314 0 1207.23771963 0 16887
0.12350000 0.12352200 13160.34383295 0 160.49888441 0 4169.76002043 0 127.96950132 0 1156.49325498 0 16407
0.12450000 0.12449800 13320.11748008 0 -162.70227705 0 4493.72517230 0 169.51618574 0 1131.84625994 0 16306
0.12550000 0.12549900 13254.23714741 0 34.70243755 0 4576.21399220 0 379.46075109 0 906.38604582 0 17523
0.12650000 0.12650100 13239.51095540 0 221.81963372 0 4353.89278216 0 -89.18536195 0 1205.48829231 0 17154
0.12750000 0.12750600 12999.90584632 0 143.44639696 0 4084.77992745 0 227.69793097 0 1302.84724444 0 18007
0.12850000 0.12850300 13037.77319720 0 141.30390210 0 4365.08690255 0 276.13824481 0 1500.77612289 0 17496
0.12950000 0.12949900 12914.20605223 0 174.28503604 0 4283.26242214 0 575.00132909 0 890.89807786 0 18405
0.13050000 0.13049000 12739.92765958 0 287.19617561 0 3865.07178607 0 208.31693360 0 1201.31402585 0 18100
0.13150000 0.13148800 12401.00379688 0 158.42614520 0 3812.10178414 0 460.40941061 0 1060.47959032 0 19059
0.13250000 0.13249300 12591.44778376 0 -167.14338653 0 3415.05928846 0 518.73952499 0 1389.48818614 0 18957
0.13350000 0.13349100 12570.74253635 0 31.80159917 0 3580.19194081 0 252.71695613 0 1163.83420634 0 19468
0.13450000 0.13450700 12483.71406328 0 -9.19016247 0 3365.16739283 0 -100.15327474 0 1155.15350368 0 19953
0.13550000 0.13551000 12465.44472733 0 395.47576171 0 3680.19717857 0 -178.15038463 0 839.57120893 0 19956
0.13650000 0.13649900 12172.58173588 0 460.64082220 0 3954.99013592 0 -485.82925393 0 1244.55145427 0 19723
0.13750000 0.13749600 11699.12912663 0 344.98263884 0 3993.64362186 0 48.68324066 0 1438.53858509 0 20946
0.13850000 0.13851100 11718.83786481 0 -61.73297196 0 3941.64798451 0 249.15498923 0 1028.62119012 0 20955
0.13950000 0.13949800 11607.56100038 0 45.35844296 0 3639.87177158 0 246.92280855 0 695.85132555 0 20506
0.14050000 0.14048300 11571.35449822 0 353.46293242 0 3554.13876051 0 223.12616805 0 396.11352762 0 21447
0.14150000 0.14148400 11194.67400789 0 284.87652356 0 3417.61699550 0 -295.25793531 0 701.34984206 0 21771
0.14250000 0.14249400 10993.12447922 0 277.75480424 0 3465.73731916 0 -129.93262451 0 450.91157038 0 22470
0.14350000 0.14350900 10939.60086105 0 -24.12582072 0 3786.56900310 0 -106.92067967 0 358.37461571 0 22519
0.14450000 0.14449900 10861.23094598 0 -23.26638686 0 3547.28499145 0 495.53968279 0 449.86966461 0 22218
0.14550000 0.14550500 10996.85585268 0 -13.60057947 0 3636.53900181 0 389.45241701 0 354.40408003 0 23559
0.14650000 0.14650700 10965.47688415 0 8.57581452 0 3299.34242179 0 386.56475470 0 824.84058799 0 23044
0.14750000 0.14750500 10841.34505060 0 131.61783235 0 3343.79780593 0 625.14567373 0 542.55055951 0 23649
0.14850000 0.14849900 10698.70028997 0 283.75268259 0 2898.59069730 0 357.12565747 0 1097.73464164 0 23640
0.14950000 0.14949500 10564.12725412 0 109.58988502 0 2619.87813696 0 211.45261599 0 870.40099016 0 24457
0.15050000 0.15050000 10449.82764502 0 29.18797690 0 2664.83177573 0 30.47679551 0 510.51943104 0 24591
0.15150000 0.15149900 10371.67917645 0 73.89448137 0 2637.43884413 0 -220.68029150 0 233.16212326 0 25020
0.15250000 0.15250500 10197.20148195 0 337.36930829 0 2793.35932222 0 -323.77027895 0 76.58771366 0 25297
0.15350000 0.15350100 10173.00845223 0 274.89371551 0 2936.95630280 0 -656.64311614 0 -16.13902066 0 25452
0.15450000 0.15450400 9876.33658104 0 234.40775981 0 2933.65675000 0 -105.96580238 0 95.82178128 0 26061
0.15550000 0.15549900 9755.07247962 0 86.07680676 0 3117.35769107 0 43.45178863 0 273.90274243 0 26128
0.15650000 0.15649500 9634.60558559 0 125.30217828 0 3125.54013911 0 346.50729797 0 133.54330964 0 26331
0.15750000 0.15749700 9621.99420763 0 198.51128274 0 3222.11295617 0 513.65068450 0 387.97204718 0 27345
0.15850000 0.15849900 9253.30793582 0 309.09169794 0 3102.15538909 0 227.27939709 0 694.18051174 0 26980
0.15950000 0.15949700 9189.94102088 0 308.09075978 0 3176.24031445 0 187.09460862 0 969.65773876 0 27777
0.16050000 0.16050000 8884.86525515 0 91.42141795 0 3323.07041387 0 212.10699039 0 1572.61336632 0 28224
0.16150000 0.16150500 8908.89220001 0 6.42959937 0 3193.22526072 0 237.43936234 0 1744.11260543 0 28075
0.16250000 0.16249700 9011.03439646 0 -152.67628692 0 3134.27620339 0 483.74433516 0 1621.96271803 0 28590
0.16350000 0.16349900 9077.11403098 0 -47.79535093 0 3023.42008730 0 144.44179896 0 1172.12737763 0 29163
0.16450000 0.16449100 9013.86891161 0 172.48910495 0 2915.61993287 0 -129.49194599 0 1109.91198447 0 28996
0.16550000 0.16550500 8842.32538320 0 284.58310695 0 2814.21958218 0 -460.88994951 0 1246.84342550 0 30777
0.16650000 0.16650700 8728.46866709 0 125.89786935 0 2972.75312893 0 -149.10435494 0 1027.04338383 0 29211
0.16750000 0.16749900 8613.25005502 0 52.24797563 0 2759.73267175 0 38.98798087 0 551.15707759 0 30922
0.16850000 0.16850800 8721.58168105 0 44.68602067 0 2840.78208942 0 167.41908742 0 -57.91888823 0 30867
0.16950000 0.16949900 8485.04360595 0 152.73718471 0 2573.31901110 0 20.04755132 0 26.07798231 0 30852
0.17050000 0.17049200 8499.08331382 0 150.63787193 0 2687.57433091 0 29.03916486 0 -193.84872676 0 31257
0.17150000 0.17149500 8236.75779422 0 144.99209350 0 2393.79233649 0 71.43587165 0 196.46400988 0 32608
0.17250000 0.17250900 8237.88717135 0 91.25942983 0 2403.75742883 0 217.30544689 0 -393.59125203 0 32361
0.17350000 0.17350400 8087.01567337 0 41.31992320 0 2287.65303078 0 29.54107334 0 36.99673398 0 32508
0.17450000 0.17449800 8062.81157131 0 166.61745110 0 2342.99251022 0 49.90418591 0 -188.81746236 0 32791
0.17550000 0.17549800 7949.06557845 0 75.82383397 0 2255.00074489 0 201.14428159 0 153.96178384 0 33633
0.17650000 0.17650100 7918.43952800 0 42.67816529 0 2162.89007472 0 342.26327586 0 -3.94130474 0 33984
0.17750000 0.17750300 7917.56481434 0 6.15193868 0 2079.38260094 0 477.17512485 0 458.84156941 0 34069
0.17850000 0.17849800 7860.02194226 0 8.32063065 0 1802.48590188 0 476.33694986 0 416.38363267 0 34536
