### header ###
fiducial parameters:
Omega_m = 0.31
Omega_nu = 0
Omega_de = 0.69
Omega_k = 0
H_0 = 100
w_de = -1
zeff = 0
beta = 0
fgrowth = 0
b_1 = 2
gamma = 0.55
Lx = 3500 Ly = 3500 Lz = 3500
nx = 700 ny = 700 nz = 700
xoffset = -685.467585 yoffset = -31.7331281 zoffset = 572.489161
bins = 400 dk = 0.001
kx_ny = 0.628318531 ky_ny = 0.628318531 kz_ny = 0.628318531
############################
A(data) = 7.99614421 (not used)
A(ran) = 8.00143854 (used)
Ngal = 475856
weighted Ngal = 0
Nran = 23820508
weighted Nran = 0
SN(data) = 3477.04948
SN(ran) = 69.6954315
SN(data+ran) = 3546.74491
############################
13 columns: k_central k_mean P_0(k) sigma^{lin}_{P_0(k)} P^img_1(k) sigma^{lin}_{P_1(k)} P_2(k) sigma^{lin}_{P_2(k)} P^img_3(k) sigma^{lin}_{P_3(k)} P_4(k) sigma^{lin}_{P_4(k)} N_modes
### header ###
0.00050000 0 0 0 0 0 0 0 0 0 0 0 0
0.00150000 0.00179520 70316.57033278 0 -56747.54699078 0 11679.86328145 0 53565.91445414 0 -136050.08397663 0 3
0.00250000 0.00253879 111813.87218110 0 -35260.48272447 0 30340.60591455 0 -33703.16023873 0 80912.89590748 0 6
0.00350000 0.00331552 109244.76065343 0 6910.45936581 0 6455.17644160 0 -76216.56933565 0 61908.13614226 0 7
0.00450000 0.00420575 91487.51972553 0 34257.33009590 0 1904.69453228 0 -45521.87047340 0 44084.01837245 0 24
0.00550000 0.00557378 65805.37303192 0 13804.31024440 0 25099.07806865 0 -16007.03854382 0 -8686.07273536 0 45
0.00650000 0.00659388 46782.23320750 0 12747.89973345 0 37545.69984379 0 -2267.57890588 0 -12873.34917365 0 40
0.00750000 0.00754703 44820.54941938 0 11333.96385411 0 13229.32441657 0 -703.25206746 0 -36888.22519606 0 57
0.00850000 0.00846663 37613.24102518 0 -8269.11112734 0 -2235.19235579 0 1119.31238824 0 -17038.31487743 0 75
0.00950000 0.00948925 48118.66281311 0 -12686.33760746 0 -6073.35839255 0 -2414.73010272 0 -35572.83300760 0 112
0.01050000 0.01054430 63079.03449183 0 -18380.83426169 0 -13337.05813705 0 -6716.90405566 0 -38623.36921839 0 105
0.01150000 0.01145670 69732.72664510 0 -14995.91384138 0 -21999.38073567 0 -15147.05107516 0 -44264.05437400 0 144
0.01250000 0.01249090 80260.40380591 0 -3076.76654828 0 -13712.52067165 0 -34113.27915001 0 -55004.65234108 0 169
0.01350000 0.01339930 85678.31378617 0 3833.74817916 0 6194.79965116 0 -39466.41603008 0 -43332.76113350 0 180
0.01450000 0.01448870 84811.12930638 0 1870.92394158 0 18035.26700410 0 -19911.69389112 0 -35774.68148905 0 267
0.01550000 0.01550050 84985.07552928 0 352.06781949 0 14595.64929919 0 -18099.59721130 0 -25453.17101635 0 238
0.01650000 0.01653350 86322.83381387 0 530.12630383 0 38887.99778155 0 6878.79251683 0 -42796.63916578 0 315
0.01750000 0.01747870 88015.34938565 0 9973.45194202 0 29540.74116965 0 -5804.31197178 0 -50525.45405894 0 297
0.01850000 0.01844180 75792.05640210 0 6675.43819921 0 23748.58661052 0 1890.34479931 0 -37580.79911346 0 388
0.01950000 0.01947590 77007.24405095 0 926.68715337 0 28481.78402400 0 12959.93475373 0 -20009.13034952 0 399
0.02050000 0.02045430 73944.41755961 0 -788.50343240 0 33643.48040795 0 4214.03824738 0 -27638.51576581 0 462
0.02150000 0.02154770 72711.40346781 0 8121.31773566 0 34048.28460332 0 213.87856236 0 -17816.58858893 0 571
0.02250000 0.02255340 70395.51600874 0 4686.70472156 0 34060.02126763 0 -2452.32064548 0 -231.45255631 0 510
0.02350000 0.02348930 65156.86696730 0 658.14673785 0 27141.25765820 0 9253.47402069 0 -4968.18536310 0 555
0.02450000 0.02439640 64498.06364059 0 -2212.06226924 0 30178.28563271 0 11588.95949468 0 -5158.50755441 0 592
0.02550000 0.02547300 69324.93292203 0 -3432.88573142 0 28737.77617380 0 7235.00027857 0 -16775.01499324 0 837
0.02650000 0.02652900 67185.09542757 0 566.88752946 0 26529.29026548 0 5868.26571993 0 -14897.59159699 0 723
0.02750000 0.02749970 65172.14677554 0 4288.66571666 0 10945.84565224 0 -6459.68287780 0 -21252.77387315 0 826
0.02850000 0.02848090 58722.18539894 0 2601.34306522 0 9875.62795225 0 -196.56366081 0 -10149.32474944 0 831
0.02950000 0.02946900 61649.81880424 0 -1581.51551547 0 13996.08291026 0 4795.37958966 0 -14919.29335364 0 996
0.03050000 0.03053250 61424.27554768 0 -2458.59865366 0 7806.85263848 0 3248.38758297 0 -15163.77028563 0 1041
0.03150000 0.03150510 62742.65726384 0 2626.18936211 0 10258.08819613 0 -4164.12420710 0 -19773.73272388 0 1036
0.03250000 0.03246190 59622.25468345 0 7657.53126598 0 12261.60322742 0 -4637.06748940 0 -8848.31551092 0 1059
0.03350000 0.03345080 55539.00273683 0 5396.29680221 0 12036.50286385 0 -9112.52332575 0 -8173.39087928 0 1302
0.03450000 0.03451200 53301.83950722 0 1764.87321447 0 18027.40565348 0 -4519.76728027 0 -6498.12598957 0 1339
0.03550000 0.03553350 52708.36289694 0 1282.62917932 0 19936.05300572 0 -2363.11092442 0 -10864.23154600 0 1365
0.03650000 0.03647120 49784.71552858 0 4076.17673106 0 19897.85348509 0 347.70753798 0 -8096.58216201 0 1308
0.03750000 0.03744890 48380.74474157 0 1670.22698192 0 16652.33363425 0 4422.69620859 0 -7118.20939639 0 1579
0.03850000 0.03847530 47016.19143092 0 -207.87736231 0 18526.43533306 0 7022.96525830 0 -3328.00867074 0 1662
0.03950000 0.03950240 47227.34066521 0 277.58429044 0 15890.88985647 0 8750.10398978 0 -3311.09015842 0 1683
0.04050000 0.04050350 45184.05384318 0 261.89259170 0 16304.55191170 0 7445.52946267 0 593.06693426 0 1822
0.04150000 0.04152450 44757.10499817 0 1516.29952229 0 12085.66398605 0 6470.14622475 0 3826.28543223 0 1887
0.04250000 0.04250150 43813.41075388 0 152.57663600 0 12094.63256915 0 1862.64184262 0 13116.05453367 0 1920
0.04350000 0.04349210 44112.14207749 0 373.78618462 0 10066.35981957 0 4226.00743051 0 10323.22668304 0 2005
0.04450000 0.04448520 44556.03157947 0 -1509.53433183 0 9708.96731908 0 1467.21590637 0 10755.35737606 0 2151
0.04550000 0.04548030 45164.01293526 0 -274.81399477 0 9708.73480026 0 -1275.76433793 0 4383.00192411 0 2274
0.04650000 0.04648670 44860.63123523 0 374.26672352 0 9135.59805067 0 -568.61149043 0 7335.26017981 0 2311
0.04750000 0.04749250 43869.21527097 0 2107.69453550 0 9227.18832157 0 -1383.95202373 0 3039.34209039 0 2568
0.04850000 0.04851840 43293.12221065 0 2252.27695298 0 7583.42419597 0 16.54293907 0 2985.86276152 0 2493
0.04950000 0.04949480 40739.06904473 0 168.99467924 0 9835.38005153 0 259.38913906 0 2111.90201893 0 2644
0.05050000 0.05050630 41136.45478248 0 -31.25872309 0 8787.94919601 0 1650.33001422 0 2156.66742818 0 2829
0.05150000 0.05149060 41098.14453860 0 2148.32996759 0 9977.39368966 0 -223.52587897 0 -1195.10245163 0 2784
0.05250000 0.05249300 38514.63898867 0 1926.57344612 0 8816.79260216 0 -1814.27792781 0 1523.92835409 0 3055
0.05350000 0.05348950 37637.04652354 0 1819.93588579 0 9874.12211607 0 -628.86597486 0 1148.67619366 0 3009
0.05450000 0.05448610 36620.05348895 0 945.58650460 0 11614.31511852 0 -3467.12135976 0 -495.60722397 0 3336
0.05550000 0.05550870 34911.81521593 0 2081.07666664 0 13047.95973604 0 -240.91828680 0 -1422.05189343 0 3349
0.05650000 0.05647670 33483.59603757 0 1750.96637450 0 12542.28666157 0 -194.32815843 0 -1053.38998074 0 3324
0.05750000 0.05747970 33578.81803101 0 -548.96143558 0 12714.35058925 0 1321.95807707 0 -1323.08745420 0 3639
0.05850000 0.05849280 33708.03206165 0 -950.68863188 0 13003.89188326 0 1334.49194877 0 -2608.94975237 0 3846
0.05950000 0.05951020 34414.11421533 0 -450.33027333 0 12371.44068962 0 1542.48557049 0 -2052.03395864 0 3787
0.06050000 0.06049470 33324.70817642 0 1171.37445954 0 11236.19522596 0 1072.04463359 0 711.44115890 0 3930
0.06150000 0.06148310 34044.29856639 0 318.63825640 0 11891.89830172 0 1863.47226698 0 2291.14081310 0 4083
0.06250000 0.06249100 33188.74002765 0 23.53334062 0 10341.50709132 0 2173.22055378 0 1078.91944007 0 4303
0.06350000 0.06350600 33140.35396819 0 932.70606914 0 11990.77416235 0 781.23112946 0 1411.46675091 0 4470
0.06450000 0.06451750 32668.67293092 0 676.81135579 0 11527.39736869 0 137.74525691 0 4481.39060245 0 4479
0.06550000 0.06550280 31634.73923935 0 681.92676986 0 10502.15545211 0 436.67588236 0 5017.87795689 0 4636
0.06650000 0.06648880 31504.41797624 0 324.40140147 0 11134.88345387 0 1550.29155948 0 3846.58100362 0 4653
0.06750000 0.06749660 30652.40258144 0 221.06893010 0 9121.72442767 0 1837.40801436 0 2988.59762575 0 5220
0.06850000 0.06852730 30911.05208921 0 752.68446161 0 7900.22555368 0 1516.85313853 0 1003.35857381 0 5029
0.06950000 0.06949320 29841.35478848 0 711.12891934 0 7697.48021392 0 -1013.87949685 0 1190.95032982 0 5040
0.07050000 0.07048030 29097.51600716 0 119.30872885 0 8133.46407598 0 -448.50998313 0 -2003.13857224 0 5475
0.07150000 0.07148790 29212.66818528 0 999.54415791 0 8405.63289235 0 -1970.40878008 0 -1925.20047784 0 5509
0.07250000 0.07249820 27900.81914076 0 1476.43915294 0 8364.79815842 0 -1706.41133943 0 -2792.21887277 0 5916
0.07350000 0.07351270 27317.75051581 0 610.80812032 0 8262.44558779 0 -359.18068095 0 -2385.95313052 0 5721
0.07450000 0.07449140 26486.88326142 0 -389.97281628 0 10097.15195489 0 1408.00111324 0 -678.39580548 0 6028
0.07550000 0.07549160 27677.60107242 0 -680.98119332 0 10264.65408475 0 2405.11932478 0 -1958.91570691 0 6183
0.07650000 0.07648840 27322.51161548 0 320.48954911 0 8550.18209286 0 2566.19950624 0 135.91610885 0 6330
0.07750000 0.07749960 26386.67872181 0 919.00185272 0 7469.51211823 0 1766.60049714 0 1936.71569565 0 6583
0.07850000 0.07848650 26429.30717236 0 964.86895828 0 7933.42038348 0 -364.94825495 0 3500.62621466 0 6549
0.07950000 0.07947320 24922.14231805 0 1288.35357125 0 7892.66315583 0 759.46404610 0 2139.79320515 0 6828
0.08050000 0.08048110 24422.55902223 0 733.76296573 0 8007.71568302 0 -522.19187586 0 4618.74279182 0 7147
0.08150000 0.08149960 23646.05688270 0 179.92970723 0 7803.96276170 0 616.14940981 0 4229.45092353 0 7386
0.08250000 0.08250610 23896.73431660 0 281.83606317 0 8379.04824046 0 997.08831627 0 3017.78427397 0 7227
0.08350000 0.08350160 23367.47719026 0 425.30128307 0 7598.68185957 0 171.48705956 0 2196.92640122 0 7798
0.08450000 0.08449610 23257.30755832 0 863.70223364 0 7907.53328806 0 -1435.43833414 0 1417.70046978 0 7371
0.08550000 0.08548940 22938.97821978 0 596.94446241 0 9270.17108651 0 -1340.30491930 0 2434.50527485 0 8256
0.08650000 0.08650700 22251.27612530 0 331.98705120 0 9903.78487426 0 -837.65680397 0 1559.06084074 0 8037
0.08750000 0.08749060 22307.52353537 0 652.56850060 0 10116.18528126 0 -144.89908597 0 1040.64462764 0 8155
0.08850000 0.08849210 21408.78292985 0 272.18321039 0 9998.28716659 0 530.31342612 0 29.93225858 0 8718
0.08950000 0.08949900 21315.33250838 0 209.96892447 0 9167.32026127 0 1613.69169139 0 -25.64372573 0 8571
0.09050000 0.09049190 20933.44802538 0 481.90300755 0 7895.60839423 0 1827.05539065 0 -939.65616743 0 8932
0.09150000 0.09150830 20466.52808778 0 163.78736488 0 7075.43700561 0 975.87152745 0 -1033.97576640 0 9285
0.09250000 0.09250820 20087.74385573 0 237.69624028 0 6378.22378411 0 689.77704816 0 -1062.53239934 0 9204
0.09350000 0.09350330 19915.56920480 0 70.46305719 0 5625.01781599 0 385.26486376 0 -561.80201067 0 9349
0.09450000 0.09448040 19598.45782200 0 382.32848322 0 5645.32445971 0 967.13767763 0 91.41942493 0 9564
0.09550000 0.09549270 19354.86667599 0 472.42952643 0 5607.15815606 0 95.13053604 0 246.43673349 0 10155
0.09650000 0.09649430 19003.43108624 0 119.87895358 0 5065.03498829 0 1248.40462330 0 172.30530436 0 9913
0.09750000 0.09749140 18511.04480156 0 488.77338510 0 4993.74028878 0 937.61664520 0 673.05340875 0 10476
0.09850000 0.09850240 18581.79695715 0 482.47101781 0 5142.68520224 0 -129.86729780 0 367.82263048 0 10575
0.09950000 0.09950330 18006.14678983 0 58.72716795 0 4686.87080643 0 -351.22189387 0 741.15706425 0 10882
0.10050000 0.10051200 17942.37019887 0 535.04241605 0 5032.20554520 0 -1114.51807160 0 -57.63133996 0 10875
0.10150000 0.10150300 17682.61345863 0 601.08108296 0 5217.20194827 0 -261.54713517 0 1080.19165019 0 11118
0.10250000 0.10250800 17053.59468568 0 520.12799452 0 5376.39983451 0 201.93263111 0 456.86737390 0 11575
0.10350000 0.10349800 16580.03135319 0 442.71140662 0 5586.54148725 0 838.93565749 0 579.71371053 0 11364
0.10450000 0.10450100 16357.69907083 0 459.07851717 0 5817.75377411 0 1054.64115344 0 663.01745354 0 12093
0.10550000 0.10551000 15645.19496875 0 531.10066841 0 5345.38625270 0 673.56716462 0 1521.49244263 0 12067
0.10650000 0.10649700 15572.33907144 0 341.42620811 0 5163.24650943 0 261.02119974 0 1874.53351947 0 12054
0.10750000 0.10749900 15011.74726587 0 198.75376666 0 4921.12798262 0 572.02951711 0 1951.80727438 0 12807
0.10850000 0.10850100 15053.15776069 0 192.94854675 0 4117.91939563 0 -294.49726660 0 1078.92497623 0 12736
0.10950000 0.10950300 14787.53268829 0 98.70567900 0 4542.88629449 0 53.65028557 0 1575.73576192 0 12933
0.11050000 0.11050200 14775.46385424 0 155.82193441 0 4358.33278441 0 66.92733171 0 1774.58364333 0 13428
0.11150000 0.11150900 14700.39349197 0 -33.38161993 0 4497.15759299 0 19.53158098 0 1070.71706185 0 13453
0.11250000 0.11250000 14764.50225267 0 -118.86251416 0 4396.33300319 0 377.45001691 0 1901.28425623 0 13668
0.11350000 0.11349100 14799.93369209 0 174.19535021 0 4765.63932519 0 -10.96342850 0 1115.99069080 0 13791
0.11450000 0.11448600 14761.73417147 0 508.99920084 0 5128.71192832 0 -0.15164324 0 1571.74972498 0 14205
0.11550000 0.11549300 14480.27567458 0 99.41829382 0 5242.59078908 0 -512.65528250 0 1368.74972176 0 14776
0.11650000 0.11649800 14511.94252356 0 74.93893377 0 5073.71569095 0 297.63959238 0 1770.97406544 0 14553
0.11750000 0.11747300 14176.89397455 0 55.69689409 0 4969.00471514 0 256.94990590 0 1240.53220036 0 14568
0.11850000 0.11849100 14411.95943045 0 139.45703832 0 5028.79526916 0 544.17044063 0 823.58830806 0 16015
0.11950000 0.11950300 14134.70841699 0 278.47229089 0 4605.56672529 0 220.81980279 0 1235.49429256 0 15270
0.12050000 0.12050700 13841.40253254 0 302.00873175 0 4394.69429912 0 -168.28383599 0 923.88696243 0 15999
0.12150000 0.12150000 13884.36315284 0 91.31589869 0 4542.28838895 0 173.88864681 0 927.32602651 0 15670
0.12250000 0.12250700 13465.49710495 0 205.32408420 0 4163.11662554 0 155.63481212 0 537.08193828 0 16887
0.12350000 0.12352200 13367.83920005 0 202.43199296 0 4190.38776157 0 329.22893509 0 593.38360275 0 16407
0.12450000 0.12449800 13141.74232725 0 120.43589152 0 3966.63822163 0 172.73601780 0 23.63587034 0 16306
0.12550000 0.12549900 13234.63913248 0 -48.42160162 0 3604.78357423 0 525.06403692 0 -116.49192942 0 17523
0.12650000 0.12650100 13028.02955136 0 -10.47738666 0 3592.80331878 0 365.12873385 0 -122.35361818 0 17154
0.12750000 0.12750600 13118.93333812 0 37.95205416 0 3325.91600135 0 -287.76861480 0 72.26607456 0 18007
0.12850000 0.12850300 13105.97871809 0 332.68682213 0 3593.31264572 0 24.47758848 0 641.47624560 0 17496
0.12950000 0.12949900 12834.48531353 0 395.37057462 0 4175.79443745 0 -174.98148527 0 561.54513273 0 18405
0.13050000 0.13049000 12713.57552651 0 182.90926984 0 4292.97285101 0 -98.17775055 0 1240.02287341 0 18100
0.13150000 0.13148800 12644.59494289 0 179.47684915 0 4778.64930686 0 -83.85215525 0 512.50026995 0 19059
0.13250000 0.13249300 12462.56592288 0 221.31030678 0 4607.20542936 0 167.30504247 0 1041.40861805 0 18957
0.13350000 0.13349100 12125.85652514 0 414.88222542 0 4519.75620795 0 305.70135208 0 804.57269741 0 19468
0.13450000 0.13450700 12043.25698199 0 79.29799733 0 4013.85061466 0 270.79806255 0 879.71392256 0 19953
0.13550000 0.13551000 11771.76357744 0 16.78110477 0 3886.52995157 0 319.38120939 0 580.07688278 0 19956
0.13650000 0.13649900 11779.07131182 0 180.84538850 0 3758.40100877 0 -30.33739494 0 229.64001674 0 19723
0.13750000 0.13749600 11559.06421767 0 127.83774066 0 3758.01347740 0 271.74253186 0 450.43988934 0 20946
0.13850000 0.13851100 11600.25326600 0 -45.44082106 0 3606.95374990 0 173.04825736 0 220.59724906 0 20955
0.13950000 0.13949800 11665.80142893 0 -169.94579194 0 3547.46214865 0 219.95616145 0 47.14839499 0 20506
0.14050000 0.14048300 11661.26177575 0 71.34773594 0 3439.85022373 0 338.47432631 0 -102.09668920 0 21447
0.14150000 0.14148400 11409.92000237 0 415.65507369 0 3264.90749160 0 4.42281800 0 163.85379883 0 21771
0.14250000 0.14249400 11376.81375116 0 215.36003942 0 3211.92641734 0 500.32292712 0 480.39606414 0 22470
0.14350000 0.14350900 10890.24043700 0 198.23779632 0 2910.92526715 0 325.23957646 0 367.08521364 0 22519
0.14450000 0.14449900 10823.23072720 0 189.76193167 0 2577.59292848 0 293.26491684 0 -56.03537506 0 22218
0.14550000 0.14550500 10708.27785093 0 120.15465447 0 2706.49693402 0 163.42751432 0 209.40645037 0 23559
0.14650000 0.14650700 10697.30517704 0 42.12864581 0 2608.71723355 0 -119.70179638 0 207.21745175 0 23044
0.14750000 0.14750500 10546.94300600 0 138.47381588 0 2546.73435921 0 11.96541854 0 557.53252222 0 23649
0.14850000 0.14849900 10571.41284385 0 90.46421547 0 2385.91991355 0 62.09249035 0 33.07214845 0 23640
0.14950000 0.14949500 10376.61743332 0 163.81726016 0 2668.31955805 0 6.20478689 0 272.32382891 0 24457
0.15050000 0.15050000 10308.57799731 0 223.58566953 0 2323.08447020 0 341.04642737 0 548.97361514 0 24591
0.15150000 0.15149900 10159.36734805 0 57.94180795 0 2262.69601064 0 515.75221175 0 606.94720065 0 25020
0.15250000 0.15250500 10043.91621717 0 -191.34305966 0 2080.51197807 0 621.69885901 0 462.52533188 0 25297
0.15350000 0.15350100 10044.41447178 0 143.38660640 0 2048.74547817 0 241.35453640 0 462.00603985 0 25452
0.15450000 0.15450400 10029.21216981 0 287.45637524 0 2063.16164508 0 -304.90635916 0 384.18863379 0 26061
0.15550000 0.15549900 9748.61731425 0 304.43024919 0 2217.80880582 0 -361.69188422 0 964.41720742 0 26128
0.15650000 0.15649500 9558.59407571 0 137.68325189 0 2495.27019345 0 -474.58198638 0 1124.52745323 0 26331
0.15750000 0.15749700 9517.89220968 0 91.82899022 0 2791.08949563 0 109.00725929 0 1445.27055858 0 27345
0.15850000 0.15849900 9588.05753206 0 -50.05454808 0 2833.50757201 0 46.84534546 0 965.28306322 0 26980
0.15950000 0.15949700 9555.83706683 0 71.97431880 0 2898.30281685 0 349.06057607 0 1025.36481939 0 27777
0.16050000 0.16050000 9530.38179208 0 187.42013497 0 2949.00299220 0 85.98402067 0 993.97367129 0 28224
0.16150000 0.16150500 9331.04672837 0 295.84255406 0 2746.81126868 0 -22.39643430 0 1179.49047363 0 28075
0.16250000 0.16249700 9021.53096039 0 307.68994162 0 2850.79147106 0 100.27872419 0 1495.14030956 0 28590
0.16350000 0.16349900 8975.32614892 0 146.75259315 0 2671.30908575 0 241.99894570 0 1112.38111291 0 29163
0.16450000 0.16449100 8699.89099673 0 176.75527171 0 2682.66929101 0 19.56878399 0 840.07832141 0 28996
0.16550000 0.16550500 8548.56553343 0 237.18580610 0 2645.97560656 0 41.93764821 0 590.73510265 0 30777
0.16650000 0.16650700 8379.12574673 0 98.05661932 0 2660.28105023 0 -172.71165868 0 821.20554375 0 29211
0.16750000 0.16749900 8370.40075478 0 -49.70898083 0 2555.63650837 0 -32.98157683 0 399.50165901 0 30922
0.16850000 0.16850800 8441.13076572 0 31.46455761 0 2634.09500203 0 61.63752852 0 605.24316986 0 30867
0.16950000 0.16949900 8364.34419310 0 172.38391787 0 2554.95002423 0 111.01555756 0 359.48295542 0 30852
0.17050000 0.17049200 8315.53738530 0 103.23902095 0 2503.17583338 0 40.68459321 0 747.01100238 0 31257
0.17150000 0.17149500 8269.72010520 0 63.85143987 0 2396.31682655 0 250.35080031 0 566.86981374 0 32608
0.17250000 0.17250900 8200.42949649 0 8.20417194 0 2414.27613741 0 298.29839571 0 545.25552846 0 32361
0.17350000 0.17350400 8361.70897979 0 -96.64323705 0 2171.32718624 0 -81.99455132 0 417.09890485 0 32508
0.17450000 0.17449800 8291.11183675 0 -0.89117821 0 2205.36351273 0 -144.63667187 0 222.78514044 0 32791
0.17550000 0.17549800 8306.65738080 0 194.37798389 0 2426.61070725 0 -298.83651069 0 210.04975244 0 33633
0.17650000 0.17650100 8125.54736374 0 260.27713951 0 2339.62652348 0 -162.11655106 0 100.14120591 0 33984
0.17750000 0.17750300 7979.91307540 0 154.57740510 0 2375.66694076 0 62.14884848 0 -3.67891279 0 34069
0.17850000 0.17849800 7932.41280192 0 44.52026797 0 2563.37606341 0 11.05897159 0 -113.39057124 0 34536
