### header ###
fiducial parameters:
Omega_m = 0.31
Omega_nu = 0
Omega_de = 0.69
Omega_k = 0
H_0 = 100
w_de = -1
zeff = 0
beta = 0
fgrowth = 0
b_1 = 2
gamma = 0.55
Lx = 3500 Ly = 3500 Lz = 3500
nx = 700 ny = 700 nz = 700
xoffset = -685.467585 yoffset = -31.7331281 zoffset = 572.489161
bins = 400 dk = 0.001
kx_ny = 0.628318531 ky_ny = 0.628318531 kz_ny = 0.628318531
############################
A(data) = 8.01463161 (not used)
A(ran) = 8.01006095 (used)
Ngal = 476283
weighted Ngal = 0
Nran = 23820508
weighted Nran = 0
SN(data) = 3486.07583
SN(ran) = 69.7705359
SN(data+ran) = 3555.84636
############################
13 columns: k_central k_mean P_0(k) sigma^{lin}_{P_0(k)} P^img_1(k) sigma^{lin}_{P_1(k)} P_2(k) sigma^{lin}_{P_2(k)} P^img_3(k) sigma^{lin}_{P_3(k)} P_4(k) sigma^{lin}_{P_4(k)} N_modes
### header ###
0.00050000 0 0 0 0 0 0 0 0 0 0 0 0
0.00150000 0.00179520 34044.18784314 0 -55520.51195438 0 -24047.09648763 0 4758.65268823 0 70191.67450883 0 3
0.00250000 0.00253879 67193.06750144 0 -60176.64598712 0 -16989.26447848 0 -86023.88104376 0 -25478.41591694 0 6
0.00350000 0.00331552 90168.14150014 0 -27054.45063162 0 -29470.65335355 0 -18691.74514260 0 8336.27584969 0 7
0.00450000 0.00420575 98962.66765709 0 10860.46695557 0 -10380.70312117 0 -62422.77779983 0 56949.61691872 0 24
0.00550000 0.00557378 75122.73436681 0 18666.27879551 0 -11211.94683461 0 -35858.94188092 0 28402.28473180 0 45
0.00650000 0.00659388 44309.89379875 0 1546.82592181 0 -4841.85013692 0 37022.31104961 0 14489.24425768 0 40
0.00750000 0.00754703 66621.51409431 0 -4478.05783268 0 16246.75437614 0 -803.36913570 0 -12172.91390562 0 57
0.00850000 0.00846663 61648.37940201 0 -390.25073163 0 -11003.34423503 0 8761.08773600 0 12361.25415078 0 75
0.00950000 0.00948925 64585.42428340 0 -5673.14921198 0 -22083.53040429 0 10948.06011721 0 21778.82002528 0 112
0.01050000 0.01054430 64085.28737135 0 -4967.88641033 0 -2298.33782423 0 3669.19128770 0 18196.70149996 0 105
0.01150000 0.01145670 80929.83656445 0 -10389.70492125 0 4810.55974698 0 3935.23710844 0 15765.44041628 0 144
0.01250000 0.01249090 73728.72867215 0 -3913.47999018 0 14755.09077658 0 -6.18081530 0 18936.33279784 0 169
0.01350000 0.01339930 78254.31999527 0 9317.19525002 0 -1319.88755233 0 2468.74090319 0 28842.96325958 0 180
0.01450000 0.01448870 82253.64371977 0 -5664.94461929 0 28107.76089162 0 -440.67520608 0 19618.16656017 0 267
0.01550000 0.01550050 82884.65551118 0 -1716.17712992 0 30767.00114332 0 7212.46809757 0 41226.14061351 0 238
0.01650000 0.01653350 84353.17795188 0 3461.59626968 0 20002.26550813 0 19426.72606406 0 28948.59323835 0 315
0.01750000 0.01747870 77417.58440873 0 2846.53969833 0 22925.58070675 0 14730.73166198 0 47501.71287422 0 297
0.01850000 0.01844180 82495.35257056 0 -4681.19070380 0 2598.65249029 0 28608.67286642 0 32571.67936551 0 388
0.01950000 0.01947590 77915.17468608 0 -1799.81747160 0 6536.97877736 0 11932.75518030 0 38160.87821071 0 399
0.02050000 0.02045430 86681.13424500 0 -699.02576108 0 6596.27107676 0 5146.30585246 0 18848.30781553 0 462
0.02150000 0.02154770 79224.14492614 0 4741.70095894 0 17004.54428673 0 -10212.66951973 0 26067.24215079 0 571
0.02250000 0.02255340 84539.08228558 0 10012.12757261 0 26710.54422276 0 -21714.60054134 0 40889.32049252 0 510
0.02350000 0.02348930 79728.37859838 0 3279.48974339 0 39265.12116488 0 -15382.33797755 0 24376.38742774 0 555
0.02450000 0.02439640 78247.12298414 0 2802.50506252 0 49086.38400226 0 -8637.87490542 0 40056.57094291 0 592
0.02550000 0.02547300 76497.36349305 0 5346.69278703 0 56888.60840897 0 4160.41497828 0 21694.89180316 0 837
0.02650000 0.02652900 73278.97083801 0 6047.19448900 0 61072.28634170 0 4869.94062499 0 20986.15229152 0 723
0.02750000 0.02749970 68657.60390521 0 7697.52450322 0 59604.42824049 0 15071.20565015 0 15989.54427061 0 826
0.02850000 0.02848090 61128.86592152 0 3690.52765763 0 49033.23684313 0 18299.34195102 0 13081.61960349 0 831
0.02950000 0.02946900 61600.54695879 0 -2787.04809708 0 41403.74070360 0 10996.29116412 0 3970.86784971 0 996
0.03050000 0.03053250 62301.97873606 0 673.92480071 0 36859.99076777 0 8155.07725403 0 8463.68509137 0 1041
0.03150000 0.03150510 59937.37304779 0 2331.44407544 0 34710.52035073 0 8706.47903000 0 12896.37960927 0 1036
0.03250000 0.03246190 55044.73415692 0 3745.10314666 0 25406.33508237 0 3145.70284260 0 7230.02880473 0 1059
0.03350000 0.03345080 57763.21134640 0 353.87150120 0 27665.75368486 0 3867.58520380 0 14993.69937642 0 1302
0.03450000 0.03451200 54492.22514847 0 344.79440932 0 27260.06370351 0 8155.84124444 0 17522.28619525 0 1339
0.03550000 0.03553350 56130.04343565 0 2447.45989489 0 23074.28202907 0 6235.75618066 0 17384.76792100 0 1365
0.03650000 0.03647120 53306.15771390 0 684.33942944 0 18187.62219360 0 4236.03895679 0 17694.79301593 0 1308
0.03750000 0.03744890 52611.14788503 0 1776.27770903 0 22745.21253546 0 675.23576397 0 11514.88564165 0 1579
0.03850000 0.03847530 50362.35871436 0 1052.68467365 0 19679.06434668 0 979.58629243 0 15829.77062347 0 1662
0.03950000 0.03950240 50180.88331059 0 1243.04561809 0 19130.20920542 0 3339.86713062 0 11102.33081890 0 1683
0.04050000 0.04050350 50515.26752011 0 519.41604403 0 21125.55286098 0 2390.59243462 0 11489.08712482 0 1822
0.04150000 0.04152450 48377.75521387 0 615.43745932 0 19042.40566960 0 -510.57589990 0 10208.35131305 0 1887
0.04250000 0.04250150 49203.30775235 0 1538.25594240 0 23520.38599601 0 467.83783333 0 7820.16157291 0 1920
0.04350000 0.04349210 48363.80408460 0 75.74721349 0 21140.50049949 0 2504.49344003 0 11934.19458253 0 2005
0.04450000 0.04448520 46886.20233755 0 1947.88767140 0 22134.46309846 0 1445.31484788 0 14263.25810813 0 2151
0.04550000 0.04548030 46443.08789831 0 232.71147964 0 20412.16297292 0 1831.18536781 0 8239.47051380 0 2274
0.04650000 0.04648670 45746.19577422 0 -699.76539238 0 18403.86469731 0 2305.49054606 0 4111.49744723 0 2311
0.04750000 0.04749250 45212.50971796 0 237.55894345 0 14326.92397584 0 1487.57791171 0 2632.75525073 0 2568
0.04850000 0.04851840 44933.15496279 0 2332.35200607 0 14890.39458586 0 1711.33852397 0 -2283.50090897 0 2493
0.04950000 0.04949480 41490.87989992 0 2202.15253853 0 12764.06532769 0 -751.16866035 0 -1160.25784542 0 2644
0.05050000 0.05050630 40794.76283857 0 3243.42718145 0 13504.47168831 0 -1416.46036940 0 -3953.18534698 0 2829
0.05150000 0.05149060 37564.07990299 0 2270.47985499 0 12044.36421448 0 216.59017471 0 -1356.26013936 0 2784
0.05250000 0.05249300 36376.68378944 0 400.87794899 0 13797.99901925 0 2293.37742271 0 -2698.39199225 0 3055
0.05350000 0.05348950 36376.57306619 0 -23.61560799 0 12670.28273647 0 1484.53302238 0 -5629.07028688 0 3009
0.05450000 0.05448610 36150.69763989 0 450.40224344 0 14533.53355696 0 -1061.46834892 0 -6564.50457685 0 3336
0.05550000 0.05550870 35617.45447662 0 878.72405672 0 14394.13298749 0 -1597.58145878 0 -4443.43467297 0 3349
0.05650000 0.05647670 34956.43668495 0 25.12720177 0 12427.24520670 0 -2256.93840173 0 -3885.38950211 0 3324
0.05750000 0.05747970 36022.03722549 0 364.51200535 0 14776.12819373 0 -288.58353791 0 -6643.09593842 0 3639
0.05850000 0.05849280 34937.50300951 0 1086.88487055 0 14835.36513151 0 1075.71400204 0 -1602.89617470 0 3846
0.05950000 0.05951020 34980.68507630 0 602.86704896 0 14039.48642355 0 2350.64348667 0 -5296.76767442 0 3787
0.06050000 0.06049470 33694.96671836 0 -126.19792935 0 13521.63379178 0 3528.78313668 0 -3411.58257847 0 3930
0.06150000 0.06148310 34432.93716752 0 -251.38938438 0 13167.54084408 0 1602.22076288 0 -6191.99835298 0 4083
0.06250000 0.06249100 34467.37209771 0 477.96015268 0 15445.89312201 0 -1890.11228049 0 -3632.79655602 0 4303
0.06350000 0.06350600 33931.47157649 0 845.43954109 0 12533.42880171 0 -1342.37544404 0 -1146.42851172 0 4470
0.06450000 0.06451750 33869.02366451 0 855.87520723 0 14728.84936676 0 560.34932165 0 968.12090008 0 4479
0.06550000 0.06550280 33037.71351713 0 92.47472821 0 12503.53352470 0 2476.21472244 0 -1042.43059363 0 4636
0.06650000 0.06648880 33439.97107779 0 -197.59227978 0 11901.08833132 0 2330.18183041 0 -2581.28001265 0 4653
0.06750000 0.06749660 32714.95524866 0 706.54386963 0 10430.82753563 0 1962.11560879 0 -2318.24586425 0 5220
0.06850000 0.06852730 31511.61498737 0 1191.32678886 0 10612.97835122 0 1502.91308158 0 -55.34645501 0 5029
0.06950000 0.06949320 30688.38763710 0 1017.13918928 0 10823.90613902 0 -233.62716091 0 107.21664292 0 5040
0.07050000 0.07048030 30069.66612624 0 725.40668219 0 10662.27234131 0 1448.59225602 0 1835.73609331 0 5475
0.07150000 0.07148790 29255.18591258 0 699.72331754 0 11185.59470154 0 -116.44431842 0 -278.20544786 0 5509
0.07250000 0.07249820 29494.12668217 0 72.91103748 0 10666.71234356 0 451.36442846 0 468.48667156 0 5916
0.07350000 0.07351270 28831.78021151 0 497.74196820 0 10147.79676861 0 10.40313565 0 438.36884082 0 5721
0.07450000 0.07449140 28704.22702960 0 370.46005825 0 10097.62806486 0 401.84234848 0 -728.23787565 0 6028
0.07550000 0.07549160 28075.09753341 0 369.69606783 0 10342.11606918 0 1204.81288049 0 -1379.98813145 0 6183
0.07650000 0.07648840 28087.83070695 0 920.89189856 0 8705.77040121 0 1377.14254397 0 -1106.43970341 0 6330
0.07750000 0.07749960 27319.85425753 0 -294.18724150 0 7976.36993145 0 2501.09423631 0 -2387.51432832 0 6583
0.07850000 0.07848650 27365.02934279 0 -321.56910078 0 6657.79998578 0 849.53297957 0 -1592.49926169 0 6549
0.07950000 0.07947320 27726.54074812 0 -71.36844119 0 6112.66514566 0 -10.06123333 0 -2597.21308806 0 6828
0.08050000 0.08048110 27820.21261608 0 365.52290861 0 6871.62872267 0 -1925.87588966 0 -2526.50522177 0 7147
0.08150000 0.08149960 27327.49416165 0 686.99678740 0 6881.36129619 0 -842.43894106 0 -2821.97020955 0 7386
0.08250000 0.08250610 26504.15608814 0 862.43888138 0 8129.92093204 0 -1503.05702181 0 -2222.91314757 0 7227
0.08350000 0.08350160 26248.38538483 0 1010.46922081 0 8962.65940933 0 -839.68414664 0 -3839.05182275 0 7798
0.08450000 0.08449610 25182.00978154 0 690.49896374 0 8628.57415257 0 744.23184885 0 -2825.64622139 0 7371
0.08550000 0.08548940 24563.50971717 0 749.96731310 0 8495.14156618 0 1802.14265981 0 -1855.00193849 0 8256
0.08650000 0.08650700 23666.09779062 0 807.84678386 0 8117.94067659 0 1912.31229175 0 -2311.55818006 0 8037
0.08750000 0.08749060 23276.68412675 0 604.10493487 0 7170.67007138 0 926.45574178 0 -1381.75970342 0 8155
0.08850000 0.08849210 22266.22376380 0 929.65564366 0 7341.61569425 0 1345.80786473 0 -848.84981713 0 8718
0.08950000 0.08949900 21275.69358553 0 971.37948527 0 6987.19057681 0 -167.67485812 0 91.55760754 0 8571
0.09050000 0.09049190 20690.96411185 0 741.76714934 0 7018.43667744 0 175.31033332 0 463.25721255 0 8932
0.09150000 0.09150830 20481.03283329 0 108.31944647 0 7656.47939512 0 378.31919440 0 2097.90660036 0 9285
0.09250000 0.09250820 20440.72957095 0 0.48206245 0 7297.74714332 0 783.15439228 0 1552.95998976 0 9204
0.09350000 0.09350330 20359.12653704 0 137.67328680 0 7156.99575023 0 783.71575915 0 2121.62352012 0 9349
0.09450000 0.09448040 20882.40460797 0 -477.73538449 0 7091.93476959 0 823.81971964 0 2282.10579605 0 9564
0.09550000 0.09549270 20481.14355654 0 238.07159209 0 7012.49083902 0 185.10823355 0 1425.59503738 0 10155
0.09650000 0.09649430 20574.48325476 0 735.03406862 0 6842.20955563 0 -599.21428900 0 1407.80181139 0 9913
0.09750000 0.09749140 19436.91260289 0 891.15938473 0 6198.67496485 0 -219.19770720 0 1069.22119076 0 10476
0.09850000 0.09850240 18883.07491546 0 974.36679851 0 7070.15550667 0 -273.21957999 0 719.54942236 0 10575
0.09950000 0.09950330 18000.72135067 0 604.10825657 0 6420.86330698 0 17.20107805 0 -560.17105722 0 10882
0.10050000 0.10051200 17062.67399203 0 898.73396213 0 6477.49824843 0 263.36078197 0 -638.16783494 0 10875
0.10150000 0.10150300 16693.63340582 0 192.61305531 0 6027.35288293 0 524.60674991 0 -74.42119187 0 11118
0.10250000 0.10250800 16832.59108230 0 -233.42896629 0 6255.14382142 0 1101.76496787 0 -7.57722369 0 11575
0.10350000 0.10349800 16786.41948781 0 -101.95817441 0 5976.90737105 0 531.11727690 0 -129.07562657 0 11364
0.10450000 0.10450100 16921.61257384 0 465.98100446 0 6192.07585925 0 -117.86932662 0 96.86435138 0 12093
0.10550000 0.10551000 16503.30014219 0 325.96259927 0 6247.32676010 0 -189.39875942 0 515.00482982 0 12067
0.10650000 0.10649700 16340.97986035 0 368.97304502 0 6689.61077498 0 -383.76456375 0 159.48576669 0 12054
0.10750000 0.10749900 16239.22519527 0 216.19932164 0 6758.80173277 0 -332.85955040 0 -103.84179831 0 12807
0.10850000 0.10850100 15823.34867508 0 327.53265493 0 6169.43295500 0 765.09764497 0 -67.88818805 0 12736
0.10950000 0.10950300 15864.75916990 0 88.11787911 0 5851.79010060 0 66.06701207 0 224.05402887 0 12933
0.11050000 0.11050200 15814.71226172 0 -206.48557108 0 5289.60388026 0 1130.82760605 0 -293.68012902 0 13428
0.11150000 0.11150900 15709.52517594 0 -85.62405939 0 5159.61478689 0 463.65028008 0 -734.15492603 0 13453
0.11250000 0.11250000 15620.72513090 0 553.33057495 0 4850.69692445 0 -216.54034925 0 -723.05381317 0 13668
0.11350000 0.11349100 15328.19430919 0 556.12080081 0 4927.06274872 0 226.39914726 0 -286.12216010 0 13791
0.11450000 0.11448600 14764.17008293 0 357.41464515 0 5100.67680188 0 -547.89406347 0 75.19736184 0 14205
0.11550000 0.11549300 14694.30371332 0 60.95038005 0 5140.39323101 0 36.33715559 0 -812.09523489 0 14776
0.11650000 0.11649800 14485.81183699 0 359.49845668 0 5475.61893721 0 180.61951307 0 -607.91270738 0 14553
0.11750000 0.11747300 14201.58525889 0 203.81160463 0 5064.31528718 0 150.57918860 0 -1130.15219424 0 14568
0.11850000 0.11849100 14021.43853409 0 114.86761937 0 4997.43844527 0 488.25077137 0 -1213.12819643 0 16015
0.11950000 0.11950300 13940.16766992 0 172.05839152 0 4643.44514849 0 125.26785407 0 -1602.07682266 0 15270
0.12050000 0.12050700 13898.64645185 0 260.82189789 0 4877.54731214 0 -239.96606686 0 -1273.77131946 0 15999
0.12150000 0.12150000 13853.24992010 0 205.07384966 0 4967.81997638 0 57.33725901 0 -885.91110276 0 15670
0.12250000 0.12250700 13408.91752513 0 126.38837334 0 4836.95616935 0 5.37520402 0 -1288.57501774 0 16887
0.12350000 0.12352200 13618.51663394 0 38.70917974 0 4901.86213744 0 580.12338655 0 -827.51233997 0 16407
0.12450000 0.12449800 13406.03872067 0 -112.69412200 0 4996.04333234 0 379.09425714 0 -1025.71802655 0 16306
0.12550000 0.12549900 13723.81444297 0 115.60171450 0 4331.99172367 0 474.87208129 0 -851.71201309 0 17523
0.12650000 0.12650100 13520.30511280 0 -22.14309951 0 4599.32193409 0 383.85535681 0 -1047.36331434 0 17154
0.12750000 0.12750600 13307.93792278 0 395.95187168 0 4269.96456004 0 105.23259303 0 -594.50855095 0 18007
0.12850000 0.12850300 13306.60924380 0 141.42901937 0 4237.27905717 0 219.23424587 0 -462.45004007 0 17496
0.12950000 0.12949900 12717.11867046 0 198.95860467 0 3901.78761517 0 323.06386463 0 -889.32027157 0 18405
0.13050000 0.13049000 12875.12074562 0 291.41583860 0 3780.23563331 0 70.09135925 0 -1065.87181250 0 18100
0.13150000 0.13148800 12497.66519255 0 75.30753147 0 3611.41589680 0 -31.83271241 0 -846.55673866 0 19059
0.13250000 0.13249300 12472.86318496 0 131.41631604 0 3529.08208945 0 350.26745948 0 -580.00823437 0 18957
0.13350000 0.13349100 12360.47908805 0 200.48658549 0 3334.37525751 0 531.82812015 0 -429.20206311 0 19468
0.13450000 0.13450700 12271.78976625 0 96.99589060 0 3054.38937982 0 671.73912380 0 -621.69221561 0 19953
0.13550000 0.13551000 11981.03051651 0 240.13658067 0 2959.33347125 0 370.41798341 0 -385.79412089 0 19956
0.13650000 0.13649900 11788.70423441 0 241.32685558 0 2836.38637647 0 98.70877925 0 -349.01075061 0 19723
0.13750000 0.13749600 11661.81539199 0 260.19077538 0 2908.86581473 0 176.14518661 0 109.21453321 0 20946
0.13850000 0.13851100 11518.65023209 0 130.73315360 0 2835.94348348 0 133.73596809 0 646.29270690 0 20955
0.13950000 0.13949800 11306.72593506 0 -101.95418838 0 2777.33766821 0 246.72129224 0 406.24249036 0 20506
0.14050000 0.14048300 11696.02887568 0 93.58550383 0 2995.28530994 0 -180.88857056 0 315.87681859 0 21447
0.14150000 0.14148400 11391.98283616 0 223.82483174 0 3207.60821066 0 -369.49455152 0 61.53411301 0 21771
0.14250000 0.14249400 11196.77774961 0 483.94585148 0 3563.74953845 0 -367.90899461 0 407.67746366 0 22470
0.14350000 0.14350900 10956.59687964 0 229.91128870 0 3605.90187904 0 -441.04502173 0 849.13216141 0 22519
0.14450000 0.14449900 10754.29443288 0 185.52566020 0 3849.79197782 0 271.04054647 0 415.09370682 0 22218
0.14550000 0.14550500 10654.41099069 0 168.15650425 0 3722.95849702 0 116.72444824 0 245.63731164 0 23559
0.14650000 0.14650700 10401.03190954 0 286.45654431 0 4016.25330914 0 339.09105480 0 407.99302492 0 23044
0.14750000 0.14750500 10387.81155371 0 137.37322679 0 3821.12572886 0 -167.24414469 0 872.94541040 0 23649
0.14850000 0.14849900 10234.60379519 0 -11.20773935 0 3821.14787351 0 344.33269337 0 989.64660676 0 23640
0.14950000 0.14949500 10472.18266883 0 -136.74985491 0 3906.11689417 0 155.04908613 0 1034.76411593 0 24457
0.15050000 0.15050000 10346.98789210 0 165.03521589 0 4003.39834003 0 47.08461840 0 991.22662751 0 24591
0.15150000 0.15149900 10311.23535526 0 288.40748795 0 3970.98964528 0 20.82781805 0 1204.95682071 0 25020
0.15250000 0.15250500 10049.69597072 0 193.08695081 0 4003.22118283 0 211.86561371 0 1467.48164216 0 25297
0.15350000 0.15350100 9923.73720358 0 104.53625452 0 3756.58514750 0 176.63236890 0 1324.41613318 0 25452
0.15450000 0.15450400 9880.44441354 0 25.82365100 0 3578.59752604 0 523.92912363 0 963.37973059 0 26061
0.15550000 0.15549900 9800.55758998 0 -116.24833827 0 3222.85480194 0 170.70424619 0 846.96752191 0 26128
0.15650000 0.15649500 9928.31007373 0 43.99842930 0 2957.37366976 0 349.97404287 0 361.09287145 0 26331
0.15750000 0.15749700 9778.56795289 0 50.11566732 0 2636.24303305 0 65.09353327 0 468.36487599 0 27345
0.15850000 0.15849900 9697.06456990 0 132.05961811 0 2545.00707654 0 -36.29928824 0 -251.21001272 0 26980
0.15950000 0.15949700 9373.79697449 0 414.80582638 0 2084.60873826 0 179.09374671 0 97.16120041 0 27777
0.16050000 0.16050000 9235.80259028 0 273.19079195 0 2236.74248126 0 227.04687827 0 -248.39542775 0 28224
0.16150000 0.16150500 8896.57977481 0 96.38724490 0 1976.12209968 0 368.04296974 0 110.59425560 0 28075
0.16250000 0.16249700 8914.37300079 0 32.68472780 0 1958.02992093 0 283.40168990 0 -311.70476660 0 28590
0.16350000 0.16349900 8788.80176502 0 133.61860145 0 1986.72938686 0 -60.97186036 0 -379.32123980 0 29163
0.16450000 0.16449100 8726.77460139 0 177.97544190 0 1917.63807999 0 -293.17965994 0 25.74669835 0 28996
0.16550000 0.16550500 8665.57786212 0 85.00312342 0 2174.78175158 0 -105.05853609 0 -104.11916005 0 30777
0.16650000 0.16650700 8634.11031498 0 36.76853336 0 2027.65269939 0 -112.31544850 0 -360.93232274 0 29211
0.16750000 0.16749900 8628.70702047 0 121.31946304 0 2088.35118404 0 12.72641942 0 -288.47613636 0 30922
0.16850000 0.16850800 8531.45879159 0 119.33751690 0 2222.12701250 0 -87.53348181 0 -408.43038175 0 30867
0.16950000 0.16949900 8346.79455826 0 187.36145165 0 2297.88385891 0 141.44119893 0 -218.40935768 0 30852
0.17050000 0.17049200 8429.98093463 0 105.22716759 0 2039.38936370 0 409.02385836 0 -78.77815168 0 31257
0.17150000 0.17149500 8124.46227590 0 76.08181914 0 1974.89307163 0 354.84697302 0 -45.33386240 0 32608
0.17250000 0.17250900 8270.69446978 0 -9.25039591 0 1844.57180851 0 176.30241362 0 66.85879402 0 32361
0.17350000 0.17350400 8207.95867736 0 -39.86800925 0 1925.22262249 0 2.46932774 0 -120.99947285 0 32508
0.17450000 0.17449800 8303.86715494 0 1.22103384 0 2101.54939523 0 -230.93547874 0 108.33361904 0 32791
0.17550000 0.17549800 8227.84457274 0 140.82779214 0 2347.37715085 0 -297.46354242 0 115.70136542 0 33633
0.17650000 0.17650100 8176.84544462 0 187.03371084 0 2235.53559786 0 -82.13860226 0 107.76416938 0 33984
0.17750000 0.17750300 8067.71661121 0 182.70775353 0 2350.53276343 0 3.81196892 0 -13.85347137 0 34069
