### header ###
fiducial parameters:
Omega_m = 0.31
Omega_nu = 0
Omega_de = 0.69
Omega_k = 0
H_0 = 100
w_de = -1
zeff = 0
beta = 0
fgrowth = 0
b_1 = 2
gamma = 0.55
Lx = 3500 Ly = 3500 Lz = 3500
nx = 700 ny = 700 nz = 700
xoffset = -685.467585 yoffset = -31.7331281 zoffset = 572.489161
bins = 400 dk = 0.001
kx_ny = 0.628318531 ky_ny = 0.628318531 kz_ny = 0.628318531
############################
A(data) = 7.97385814 (not used)
A(ran) = 7.96721889 (used)
Ngal = 473753
weighted Ngal = 0
Nran = 23820508
weighted Nran = 0
SN(data) = 3495.48175
SN(ran) = 69.397366
SN(data+ran) = 3564.87911
############################
13 columns: k_central k_mean P_0(k) sigma^{lin}_{P_0(k)} P^img_1(k) sigma^{lin}_{P_1(k)} P_2(k) sigma^{lin}_{P_2(k)} P^img_3(k) sigma^{lin}_{P_3(k)} P_4(k) sigma^{lin}_{P_4(k)} N_modes
### header ###
0.00050000 0 0 0 0 0 0 0 0 0 0 0 0
0.00150000 0.00179520 4301.32138392 0 -12265.81071085 0 -22616.21995132 0 -8233.58003699 0 10809.66712930 0 3
0.00250000 0.00253879 15725.91221668 0 -22222.93097376 0 -742.53999762 0 17719.92719327 0 10458.33119048 0 6
0.00350000 0.00331552 24566.94213787 0 -20011.78770748 0 15205.73439670 0 -23755.34072866 0 57825.99142812 0 7
0.00450000 0.00420575 39202.67325290 0 -7980.73242743 0 28796.34877209 0 -17492.05874850 0 -15151.70145158 0 24
0.00550000 0.00557378 43292.23642467 0 -132.39068062 0 24734.79858212 0 -2602.81568442 0 940.02044692 0 45
0.00650000 0.00659388 48196.61197984 0 8698.00870151 0 24704.57113536 0 17047.06201404 0 16568.51613537 0 40
0.00750000 0.00754703 42858.20129178 0 -10484.86048074 0 2034.31823893 0 17605.88224763 0 23220.10454693 0 57
0.00850000 0.00846663 51009.86826976 0 -6679.68997194 0 2603.87862760 0 20837.67241570 0 -24119.17732220 0 75
0.00950000 0.00948925 70082.05849313 0 -8823.21455056 0 -6537.66526149 0 -3783.38017356 0 -31053.66363287 0 112
0.01050000 0.01054430 61613.16940909 0 1906.68755075 0 -12029.63802247 0 -9039.05845057 0 -10313.63804975 0 105
0.01150000 0.01145670 63395.59225839 0 7883.47312623 0 1058.32713037 0 -28447.12764731 0 -7665.99052214 0 144
0.01250000 0.01249090 61936.37057054 0 630.18468875 0 328.56570283 0 -7276.52149664 0 -7223.23039729 0 169
0.01350000 0.01339930 70387.10104188 0 -4821.93102457 0 19590.92864112 0 -417.52297489 0 -9568.31557691 0 180
0.01450000 0.01448870 67997.47189952 0 -10118.13401043 0 9379.94211477 0 7930.56372368 0 -21792.54970806 0 267
0.01550000 0.01550050 82527.13014279 0 -3831.69979907 0 11489.19784807 0 2721.59958507 0 -4920.58543871 0 238
0.01650000 0.01653350 80424.49565973 0 1207.55881705 0 9008.78671452 0 -5230.45552108 0 -10773.27239762 0 315
0.01750000 0.01747870 74230.41570968 0 6116.37437447 0 15150.92638884 0 -5563.07923096 0 -3772.31892106 0 297
0.01850000 0.01844180 79796.80556576 0 3739.22374218 0 21346.77791086 0 8169.32733607 0 2421.77210131 0 388
0.01950000 0.01947590 68565.59288596 0 2032.30307581 0 16908.76867705 0 -5775.64572283 0 4096.32836223 0 399
0.02050000 0.02045430 71125.07149104 0 4538.60130479 0 27715.80059304 0 11546.55249063 0 3138.93765214 0 462
0.02150000 0.02154770 65219.64704902 0 3732.33675614 0 24319.80784792 0 -929.54602764 0 10858.00889946 0 571
0.02250000 0.02255340 69997.79810126 0 -1433.21279685 0 33539.95417090 0 -931.30984898 0 9774.40475875 0 510
0.02350000 0.02348930 63458.04017037 0 1087.00223719 0 25921.64107943 0 -242.81608327 0 14698.51119675 0 555
0.02450000 0.02439640 71633.51264671 0 -1033.15641436 0 34530.37362593 0 -3705.70781495 0 3177.48041483 0 592
0.02550000 0.02547300 66428.41274947 0 1342.04327429 0 31260.60538373 0 -2149.31540450 0 -2100.61931994 0 837
0.02650000 0.02652900 66032.57713720 0 5957.05469265 0 28781.40113359 0 -1673.30508822 0 -10093.39843678 0 723
0.02750000 0.02749970 61498.68157046 0 -815.15894717 0 22697.15864574 0 1761.98333769 0 -13637.00741639 0 826
0.02850000 0.02848090 61206.70436499 0 -1060.69771512 0 21951.10539946 0 -4550.19402887 0 -21408.89365309 0 831
0.02950000 0.02946900 62799.12612041 0 -1131.44765624 0 15788.58157515 0 1568.18443639 0 -32094.46216582 0 996
0.03050000 0.03053250 60007.46086389 0 2467.43436886 0 14356.59780635 0 765.28476726 0 -26212.06815942 0 1041
0.03150000 0.03150510 58727.38939160 0 4565.88351314 0 12888.85042839 0 -2617.06576646 0 -25104.94640081 0 1036
0.03250000 0.03246190 56645.46015595 0 5233.12395136 0 13693.36554972 0 -1587.72708969 0 -19905.49338922 0 1059
0.03350000 0.03345080 57548.96186116 0 -614.78197770 0 14585.01986736 0 -383.81771091 0 -10311.33500619 0 1302
0.03450000 0.03451200 55031.55809039 0 692.29489482 0 20554.44234684 0 174.52087656 0 -9885.72591248 0 1339
0.03550000 0.03553350 56265.56869143 0 3625.49989397 0 22294.90108508 0 4544.12639487 0 -10999.83430806 0 1365
0.03650000 0.03647120 51948.57996788 0 -486.73718456 0 22335.75796366 0 -1694.67467512 0 -10522.94927812 0 1308
0.03750000 0.03744890 51083.94212280 0 3161.86843684 0 22506.16104262 0 2548.55022048 0 -5767.98367405 0 1579
0.03850000 0.03847530 50497.66252365 0 1302.94689536 0 22107.77879565 0 -3718.21954200 0 -8438.15231034 0 1662
0.03950000 0.03950240 50896.04477062 0 -847.27311808 0 24139.55039987 0 3963.85906810 0 -8481.03542436 0 1683
0.04050000 0.04050350 51679.74392129 0 -1342.22043149 0 17377.46018662 0 2921.18931225 0 -8703.94346761 0 1822
0.04150000 0.04152450 51139.74663988 0 -56.60847859 0 16372.20381634 0 6494.01815706 0 -4827.81042905 0 1887
0.04250000 0.04250150 51738.20579633 0 1535.08925751 0 17902.62055277 0 1008.21378824 0 -10766.72865365 0 1920
0.04350000 0.04349210 48555.90892020 0 4243.30240187 0 18701.82095818 0 2026.65619016 0 -7183.02678587 0 2005
0.04450000 0.04448520 43015.64975070 0 5431.52893979 0 17930.19064157 0 -831.23928451 0 557.91119573 0 2151
0.04550000 0.04548030 41373.18108710 0 2785.45368230 0 18080.22064286 0 2513.17414269 0 2447.34917164 0 2274
0.04650000 0.04648670 40437.01602368 0 -1368.09645459 0 19682.05387438 0 2308.29184424 0 376.67827587 0 2311
0.04750000 0.04749250 40327.06783823 0 946.57637044 0 18958.80961722 0 1242.22626605 0 2069.66109975 0 2568
0.04850000 0.04851840 40069.63628620 0 962.37214903 0 17583.95904449 0 1683.58020565 0 128.56297793 0 2493
0.04950000 0.04949480 37758.50992680 0 1894.71836762 0 16402.32053985 0 -436.71684996 0 1774.76080053 0 2644
0.05050000 0.05050630 37627.08143121 0 1646.33290496 0 16442.95597193 0 4950.83503011 0 -294.52826911 0 2829
0.05150000 0.05149060 36185.35401657 0 -781.71166836 0 15069.76624792 0 1438.51644044 0 801.33957856 0 2784
0.05250000 0.05249300 36340.36656403 0 8.57696605 0 14740.36458457 0 2741.46333580 0 -2281.49681818 0 3055
0.05350000 0.05348950 36125.89563229 0 618.50227883 0 12782.44538689 0 1074.34878439 0 643.28989241 0 3009
0.05450000 0.05448610 35941.43070082 0 -16.61169820 0 12291.16633468 0 1243.07883506 0 -695.82807367 0 3336
0.05550000 0.05550870 35602.39611487 0 62.06337014 0 11547.65972311 0 745.49187941 0 1426.06007502 0 3349
0.05650000 0.05647670 36687.81611684 0 27.78345250 0 11492.96243851 0 518.17483642 0 -1362.36099034 0 3324
0.05750000 0.05747970 35664.29041060 0 908.18529860 0 11295.09999400 0 830.36457084 0 127.87649380 0 3639
0.05850000 0.05849280 34726.79666821 0 1524.67019985 0 10491.02776567 0 1009.19701069 0 2129.27449657 0 3846
0.05950000 0.05951020 34301.17650218 0 485.21916883 0 8657.89366869 0 1696.99986333 0 1059.79199895 0 3787
0.06050000 0.06049470 33927.48553955 0 -706.94247332 0 10599.94622491 0 1080.83163057 0 971.92645812 0 3930
0.06150000 0.06148310 34358.53114474 0 375.88106848 0 8862.54344832 0 391.59601909 0 -1224.78735446 0 4083
0.06250000 0.06249100 33248.08768868 0 880.04719954 0 11924.78310643 0 -1279.52892837 0 -747.88128711 0 4303
0.06350000 0.06350600 32890.78376678 0 1482.05282163 0 11311.81920447 0 -819.42843562 0 44.30790078 0 4470
0.06450000 0.06451750 31789.30889382 0 2148.36318456 0 12962.37066519 0 -2395.05458152 0 -1377.25326722 0 4479
0.06550000 0.06550280 30112.40530004 0 1022.67092276 0 13609.10515785 0 -940.43455187 0 2610.21199740 0 4636
0.06650000 0.06648880 30330.86226871 0 -171.50698974 0 13558.72607992 0 1409.36300919 0 892.49692156 0 4653
0.06750000 0.06749660 30631.47588754 0 -1058.39799325 0 13648.63335745 0 3416.99694531 0 281.17061644 0 5220
0.06850000 0.06852730 30801.65752000 0 -647.10763000 0 10670.48800633 0 3750.42893490 0 -1309.18061423 0 5029
0.06950000 0.06949320 31225.83828380 0 -127.95953623 0 10383.16117728 0 2190.46016352 0 -870.34230683 0 5040
0.07050000 0.07048030 30442.47130288 0 819.24352780 0 8677.93457661 0 505.56124399 0 -2254.48034562 0 5475
0.07150000 0.07148790 29955.28901086 0 1057.28079568 0 8450.56438646 0 -677.90751595 0 -1039.46431781 0 5509
0.07250000 0.07249820 28456.64984666 0 1855.42268684 0 9685.38326721 0 -1935.76347572 0 -997.11599708 0 5916
0.07350000 0.07351270 27152.55142952 0 1709.58909665 0 8755.91696031 0 -850.12092002 0 30.91824910 0 5721
0.07450000 0.07449140 26708.66192754 0 255.46621438 0 10137.84274860 0 64.25402960 0 -2386.50674676 0 6028
0.07550000 0.07549160 26032.47505086 0 -491.29787516 0 9405.26452163 0 1050.22993923 0 -1024.31294853 0 6183
0.07650000 0.07648840 26404.94805776 0 314.26358086 0 9235.39291426 0 1071.54748621 0 -3095.09124586 0 6330
0.07750000 0.07749960 26384.68570335 0 764.88062740 0 8527.25130816 0 196.87479314 0 -2411.56341783 0 6583
0.07850000 0.07848650 25831.40163216 0 -38.77849249 0 8651.82603469 0 717.26077282 0 -1251.48272960 0 6549
0.07950000 0.07947320 25353.85226273 0 442.62282802 0 8216.07469145 0 652.56739337 0 -1132.70990127 0 6828
0.08050000 0.08048110 25525.36257417 0 899.42487520 0 9209.41724023 0 1172.30453482 0 11.76965984 0 7147
0.08150000 0.08149960 24648.54517178 0 567.44003847 0 8472.31043241 0 743.89746464 0 784.76541554 0 7386
0.08250000 0.08250610 24072.00921847 0 676.37067727 0 8546.63894891 0 744.56734029 0 1441.50596814 0 7227
0.08350000 0.08350160 23574.97255737 0 1084.01935288 0 9042.21406315 0 -533.58751257 0 155.29489174 0 7798
0.08450000 0.08449610 22285.48960899 0 763.24524503 0 8651.73745609 0 -299.12217667 0 1306.80006440 0 7371
0.08550000 0.08548940 22438.06624499 0 341.22690626 0 9466.21766975 0 -200.44893959 0 930.25797813 0 8256
0.08650000 0.08650700 21350.09960831 0 556.00343416 0 9430.90802591 0 -161.01706921 0 70.42253248 0 8037
0.08750000 0.08749060 21332.27316535 0 988.67999280 0 9730.42548458 0 873.00077202 0 250.07620666 0 8155
0.08850000 0.08849210 20433.31111332 0 609.46836902 0 9149.39416739 0 163.50280613 0 505.22132361 0 8718
0.08950000 0.08949900 20480.03632406 0 95.48318958 0 9164.38609520 0 237.48697334 0 1162.04048972 0 8571
0.09050000 0.09049190 20241.31700097 0 101.33657410 0 10036.54204884 0 1043.32966641 0 844.32012905 0 8932
0.09150000 0.09150830 20235.11649907 0 237.47922271 0 9528.06767619 0 263.77820862 0 1253.85220711 0 9285
0.09250000 0.09250820 19596.79697327 0 512.38622501 0 9841.28160066 0 232.26969388 0 2803.11404039 0 9204
0.09350000 0.09350330 19511.54007217 0 533.59747766 0 9227.80837176 0 1393.91711607 0 1977.62793586 0 9349
0.09450000 0.09448040 18823.39508469 0 106.14849574 0 8742.85161703 0 1850.72802111 0 1891.15307902 0 9564
0.09550000 0.09549270 18394.34249797 0 322.30762484 0 7635.81843701 0 1705.50340879 0 1359.71470470 0 10155
0.09650000 0.09649430 18052.87200056 0 435.37709866 0 6523.03872041 0 1404.17008885 0 967.53738856 0 9913
0.09750000 0.09749140 17466.81384791 0 197.97648945 0 5783.23026533 0 941.59825321 0 1685.99397246 0 10476
0.09850000 0.09850240 17631.01642497 0 6.82921065 0 4917.09765639 0 613.49205185 0 2344.16617665 0 10575
0.09950000 0.09950330 17255.55389037 0 -175.94699200 0 5063.19698237 0 435.67937313 0 1934.00297607 0 10882
0.10050000 0.10051200 17842.16565926 0 149.90266956 0 5156.27094480 0 -185.81907680 0 1370.49914908 0 10875
0.10150000 0.10150300 17469.47120587 0 92.31683685 0 4933.88330081 0 172.03956857 0 1833.93130436 0 11118
0.10250000 0.10250800 17624.37303008 0 337.80777236 0 5981.83455560 0 -1052.67027962 0 1264.09410757 0 11575
0.10350000 0.10349800 17248.35687924 0 503.81735283 0 6028.73692353 0 -605.63291570 0 2245.57819647 0 11364
0.10450000 0.10450100 17212.37182358 0 430.28161478 0 6723.49208893 0 -910.64003301 0 1277.91236894 0 12093
0.10550000 0.10551000 16453.36395726 0 425.37878935 0 6370.36243348 0 -165.63201419 0 1535.82003094 0 12067
0.10650000 0.10649700 16911.42603501 0 323.56211925 0 7345.04811495 0 -203.84039268 0 432.74963598 0 12054
0.10750000 0.10749900 16150.42515022 0 232.07371373 0 6636.79578560 0 2.13535320 0 184.83806883 0 12807
0.10850000 0.10850100 15817.59106617 0 409.21098065 0 6716.04041432 0 469.83638796 0 392.58477770 0 12736
0.10950000 0.10950300 15704.65335302 0 102.63325406 0 5826.87736976 0 728.02971594 0 174.17763449 0 12933
0.11050000 0.11050200 15695.24187693 0 -101.03020287 0 5655.01274393 0 1128.45812854 0 -683.03068065 0 13428
0.11150000 0.11150900 15396.84272307 0 518.72513096 0 5209.89421389 0 84.95119422 0 -1051.64941128 0 13453
0.11250000 0.11250000 14963.13975992 0 245.84436411 0 4737.49347550 0 437.03573292 0 -571.22898802 0 13668
0.11350000 0.11349100 14736.71071738 0 200.49655058 0 4744.05936412 0 6.25782332 0 -416.08467989 0 13791
0.11450000 0.11448600 14660.86529237 0 94.00237686 0 4309.39310872 0 773.30555936 0 -585.74812756 0 14205
0.11550000 0.11549300 14788.30775103 0 -228.32905348 0 4264.38410833 0 810.89056595 0 -1067.52933953 0 14776
0.11650000 0.11649800 14635.39894529 0 94.25106128 0 3637.33620920 0 289.05743341 0 -584.16146341 0 14553
0.11750000 0.11747300 14656.32563919 0 250.32976289 0 4067.07528006 0 90.36711118 0 -492.08843915 0 14568
0.11850000 0.11849100 14211.43962798 0 320.18395294 0 3997.23105510 0 -283.19131572 0 -1004.41708806 0 16015
0.11950000 0.11950300 14005.60510960 0 510.05992956 0 3844.52155121 0 176.44192492 0 -509.98795945 0 15270
0.12050000 0.12050700 13831.54816345 0 305.41347164 0 3974.95353757 0 204.03637283 0 -883.83947079 0 15999
0.12150000 0.12150000 13214.59822456 0 232.15564894 0 3566.01936504 0 115.97817355 0 -410.11005342 0 15670
0.12250000 0.12250700 13326.98232147 0 117.06104691 0 3831.91017324 0 312.67027332 0 -423.56514254 0 16887
0.12350000 0.12352200 13199.20769306 0 82.86173580 0 3710.72357810 0 400.91891659 0 114.24314025 0 16407
0.12450000 0.12449800 13162.66902116 0 27.32184728 0 3812.38966458 0 577.43391885 0 355.87116307 0 16306
0.12550000 0.12549900 12966.79959512 0 132.38625169 0 3723.35710072 0 306.45869910 0 533.65062482 0 17523
0.12650000 0.12650100 13143.84606897 0 -112.78712953 0 3725.32797453 0 537.30449201 0 1105.19406687 0 17154
0.12750000 0.12750600 13393.85916337 0 -121.21316872 0 4061.93772134 0 139.17358681 0 700.81726323 0 18007
0.12850000 0.12850300 13463.17191674 0 96.96776689 0 4217.82498247 0 -87.89864708 0 1740.97913751 0 17496
0.12950000 0.12949900 13221.68451244 0 481.13680267 0 4491.95360033 0 -185.35846809 0 1580.14254719 0 18405
0.13050000 0.13049000 13225.00620989 0 399.42636721 0 4520.71950021 0 -493.50458949 0 2044.95874308 0 18100
0.13150000 0.13148800 12806.58305499 0 238.20999615 0 4928.93397162 0 -315.77052427 0 1299.99058463 0 19059
0.13250000 0.13249300 12515.60235876 0 227.18528233 0 4878.97564204 0 -26.89655928 0 1322.02451102 0 18957
0.13350000 0.13349100 12402.66464561 0 159.01297842 0 4675.66561372 0 240.02917912 0 669.64534717 0 19468
0.13450000 0.13450700 12366.45814345 0 40.59778618 0 4564.04550722 0 183.26801317 0 548.54290170 0 19953
0.13550000 0.13551000 12217.20320489 0 206.36156104 0 4282.58701033 0 538.64092162 0 370.79444246 0 19956
0.13650000 0.13649900 11987.00957191 0 163.65117528 0 3941.72549079 0 157.46506741 0 60.50615837 0 19723
0.13750000 0.13749600 11874.40402851 0 93.57697814 0 3925.78134305 0 222.59469646 0 838.14177180 0 20946
0.13850000 0.13851100 11918.80405103 0 55.59314641 0 3858.64983767 0 392.02230360 0 389.49781354 0 20955
0.13950000 0.13949800 11751.50122302 0 90.44162792 0 3979.01708078 0 -58.61245866 0 552.42818048 0 20506
0.14050000 0.14048300 11644.32111878 0 203.24580884 0 3539.78902755 0 39.07058042 0 378.04681521 0 21447
0.14150000 0.14148400 11447.89807649 0 250.95756371 0 3777.78864952 0 -65.03916815 0 801.12920439 0 21771
0.14250000 0.14249400 11266.64411921 0 92.88573290 0 3505.19908481 0 440.64198911 0 656.60436300 0 22470
0.14350000 0.14350900 11105.65251635 0 129.43436990 0 3444.00234554 0 608.30356044 0 357.33824610 0 22519
0.14450000 0.14449900 11103.77022113 0 104.79855790 0 2743.55600519 0 71.54748068 0 -230.67085018 0 22218
0.14550000 0.14550500 10784.59938591 0 344.09463839 0 2772.22225414 0 -169.85721335 0 -385.82401617 0 23559
0.14650000 0.14650700 10519.61650835 0 377.98148850 0 2877.57542479 0 -305.04697768 0 20.04755132 0 23044
0.14750000 0.14750500 10317.82338853 0 214.30041793 0 2792.72819971 0 96.38015862 0 -247.90492376 0 23649
0.14850000 0.14849900 10275.17279333 0 -91.96916586 0 2943.44468514 0 219.91076492 0 104.60667451 0 23640
0.14950000 0.14949500 10252.21986398 0 -3.65832934 0 2742.47091736 0 351.70021831 0 -54.39279567 0 24457
0.15050000 0.15050000 10172.68735481 0 230.85686524 0 2611.23065128 0 518.74173945 0 37.44704543 0 24591
0.15150000 0.15149900 10065.88370961 0 134.53428271 0 2455.55376433 0 257.71389632 0 108.61075933 0 25020
0.15250000 0.15250500 9985.74222257 0 92.48712921 0 2418.91544151 0 -37.63128891 0 143.51393814 0 25297
0.15350000 0.15350100 9734.88763148 0 284.63957581 0 2488.01782070 0 -141.30833103 0 11.39441875 0 25452
0.15450000 0.15450400 9630.39810216 0 260.47533413 0 2520.90262541 0 -415.19446498 0 -196.97776576 0 26061
0.15550000 0.15549900 9428.59391002 0 108.43404503 0 2720.21554447 0 -159.55995126 0 -404.73111803 0 26128
0.15650000 0.15649500 9365.66988807 0 164.12728525 0 2751.79381485 0 167.14670823 0 -239.45009653 0 26331
0.15750000 0.15749700 9121.27046235 0 219.96391208 0 2866.66918485 0 263.16701629 0 -64.86666133 0 27345
0.15850000 0.15849900 9056.32020497 0 135.48428818 0 2400.91184135 0 566.46567388 0 61.89152766 0 26980
0.15950000 0.15949700 9007.54661414 0 30.89145407 0 2375.21297545 0 619.66930187 0 916.76635033 0 27777
0.16050000 0.16050000 8934.22567919 0 -82.61426934 0 2138.37594758 0 621.77636528 0 865.40294273 0 28224
0.16150000 0.16150500 8902.84671066 0 15.87804596 0 1936.59390008 0 484.43081930 0 1266.26428323 0 28075
0.16250000 0.16249700 8919.31125766 0 85.96730146 0 1847.38417902 0 147.88750644 0 975.05881881 0 28590
0.16350000 0.16349900 8761.97352199 0 68.86177757 0 1514.63867357 0 59.97047930 0 1447.24143240 0 29163
0.16450000 0.16449100 8902.17129884 0 10.65845239 0 1603.89268393 0 -209.06099383 0 1059.75656751 0 28996
0.16550000 0.16550500 8769.72414936 0 123.05449634 0 1869.96064932 0 -190.14503411 0 879.14259060 0 30777
0.16650000 0.16650700 8773.46659515 0 151.98648109 0 1913.66311538 0 -341.96321586 0 781.47582784 0 29211
0.16750000 0.16749900 8716.70985813 0 182.74982836 0 2033.55424852 0 -274.67337624 0 456.84744371 0 30922
0.16850000 0.16850800 8425.08696706 0 273.08339040 0 2345.30662611 0 -313.69335613 0 396.82658534 0 30867
0.16950000 0.16949900 8466.33137700 0 213.96160480 0 2640.33979323 0 -178.90330272 0 451.36885739 0 30852
0.17050000 0.17049200 8234.87549900 0 99.08136298 0 2562.23561396 0 64.20564354 0 448.09144925 0 31257
0.17150000 0.17149500 8203.76226626 0 79.56030071 0 2557.40808034 0 94.76260268 0 139.09608053 0 32608
0.17250000 0.17250900 8230.96696833 0 71.93268686 0 2572.54394836 0 -11.07963255 0 79.38524725 0 32361
0.17350000 0.17350400 8183.75457531 0 -4.52762863 0 2375.51192822 0 3.68552297 0 120.07161203 0 32508
0.17450000 0.17449800 8127.16392316 0 48.22850028 0 2355.98034724 0 421.20452289 0 94.69771886 0 32791
0.17550000 0.17549800 8168.27546521 0 -54.10768331 0 2099.94390813 0 224.21014865 0 -124.44075140 0 33633
0.17650000 0.17650100 8137.00721992 0 52.04457702 0 2077.14599133 0 81.57502093 0 -270.00085517 0 33984
0.17750000 0.17750300 8029.26242711 0 167.80218986 0 2075.64015515 0 -148.39572615 0 -117.67223924 0 34069
0.17850000 0.17849800 7956.77191653 0 153.81895085 0 2128.20048107 0 -81.03037327 0 34.85733938 0 34536
