### header ###
fiducial parameters:
Omega_m = 0.31
Omega_nu = 0
Omega_de = 0.69
Omega_k = 0
H_0 = 100
w_de = -1
zeff = 0
beta = 0
fgrowth = 0
b_1 = 2
gamma = 0.55
Lx = 3500 Ly = 3500 Lz = 3500
nx = 700 ny = 700 nz = 700
xoffset = -685.467585 yoffset = -31.7331281 zoffset = 572.489161
bins = 400 dk = 0.001
kx_ny = 0.628318531 ky_ny = 0.628318531 kz_ny = 0.628318531
############################
A(data) = 8.03757114 (not used)
A(ran) = 8.03632422 (used)
Ngal = 477486
weighted Ngal = 0
Nran = 23820508
weighted Nran = 0
SN(data) = 3488.24801
SN(ran) = 69.9992984
SN(data+ran) = 3558.24731
############################
13 columns: k_central k_mean P_0(k) sigma^{lin}_{P_0(k)} P^img_1(k) sigma^{lin}_{P_1(k)} P_2(k) sigma^{lin}_{P_2(k)} P^img_3(k) sigma^{lin}_{P_3(k)} P_4(k) sigma^{lin}_{P_4(k)} N_modes
### header ###
0.00050000 0 0 0 0 0 0 0 0 0 0 0 0
0.00150000 0.00179520 37433.31574688 0 -29512.39601812 0 55611.63718764 0 -59078.38208835 0 16745.34116273 0 3
0.00250000 0.00253879 51950.24081661 0 -8417.01524226 0 -5033.63387510 0 43914.83324922 0 10064.12320996 0 6
0.00350000 0.00331552 58001.70922299 0 -17305.60079855 0 -32221.01883850 0 24185.38982462 0 86925.38973050 0 7
0.00450000 0.00420575 47843.40481812 0 -15957.65597513 0 -46576.62013562 0 -14813.99554461 0 -28282.92507025 0 24
0.00550000 0.00557378 80102.73390050 0 -30198.54798713 0 -51486.97474619 0 -33667.06445982 0 -31938.56383238 0 45
0.00650000 0.00659388 93580.96417899 0 -34534.35966286 0 -50761.73747057 0 -48305.78510255 0 -24278.50807634 0 40
0.00750000 0.00754703 106218.36211075 0 -10113.17360891 0 -57518.95586090 0 -69953.50880198 0 -8642.91281321 0 57
0.00850000 0.00846663 111047.66730365 0 -3227.91485438 0 -35411.73068149 0 -69063.40460981 0 -33085.98885333 0 75
0.00950000 0.00948925 109922.60837883 0 -3809.49978780 0 -21692.45589170 0 -49368.17466890 0 -23810.25945976 0 112
0.01050000 0.01054430 115424.55730446 0 6544.66297078 0 -16176.88800654 0 -31096.40280667 0 -13621.72760814 0 105
0.01150000 0.01145670 113851.17994773 0 -4894.41046283 0 -24742.99210248 0 -11053.92261480 0 -34992.08957086 0 144
0.01250000 0.01249090 112509.21417971 0 3439.23017354 0 -9873.63493378 0 -19632.56058244 0 -56536.17630999 0 169
0.01350000 0.01339930 111454.02162449 0 28341.82983829 0 -284.51667300 0 -40865.18282442 0 -45124.59545890 0 180
0.01450000 0.01448870 94766.69944382 0 17473.34651955 0 7213.35388355 0 -36215.47074008 0 -28645.21153832 0 267
0.01550000 0.01550050 80778.25643768 0 8459.63262049 0 20782.53223810 0 -30050.17883456 0 -5576.75355211 0 238
0.01650000 0.01653350 81489.87475378 0 2890.82899760 0 41303.09327100 0 6729.00610669 0 -42782.79875976 0 315
0.01750000 0.01747870 88051.33444131 0 -1446.90926265 0 50253.62848465 0 6653.57035770 0 -29727.86345909 0 297
0.01850000 0.01844180 74396.83275170 0 8165.21950356 0 42758.32892191 0 8698.25229266 0 -36579.97167311 0 388
0.01950000 0.01947590 76655.14412171 0 1645.25888945 0 34234.74255327 0 8772.61402614 0 -23059.44511381 0 399
0.02050000 0.02045430 76756.89878680 0 -4159.77278344 0 28547.44291017 0 17491.72657875 0 -21729.65890309 0 462
0.02150000 0.02154770 79565.39397705 0 -487.33066117 0 29075.14991103 0 294.11527139 0 -34706.09142080 0 571
0.02250000 0.02255340 76177.81619878 0 2822.02557118 0 12361.58632053 0 3696.37384513 0 -38788.45758143 0 510
0.02350000 0.02348930 76068.42162957 0 4553.56001562 0 22229.02075241 0 -5039.64614748 0 -36490.72873507 0 555
0.02450000 0.02439640 67400.23069880 0 3764.87831879 0 15720.92967051 0 -4735.44509541 0 -27925.62114836 0 592
0.02550000 0.02547300 68322.00173995 0 1338.31190083 0 22174.10202131 0 1440.01120429 0 -26369.18444860 0 837
0.02650000 0.02652900 62349.58973278 0 1737.82352494 0 13050.50637075 0 13473.80134856 0 -14307.21523766 0 723
0.02750000 0.02749970 64732.24331050 0 -1110.53203466 0 3336.57865015 0 12030.19163871 0 -15092.57523705 0 826
0.02850000 0.02848090 62066.24894067 0 -2342.46103863 0 4949.78315925 0 5932.83951828 0 -12810.01547568 0 831
0.02950000 0.02946900 62721.84129318 0 2797.21249126 0 3014.97190347 0 4426.05112301 0 -9958.19427842 0 996
0.03050000 0.03053250 58220.71980790 0 5490.36727387 0 5017.08074950 0 -7846.66871853 0 -7278.35950256 0 1041
0.03150000 0.03150510 54938.55056191 0 4485.48736263 0 6391.87596061 0 -8307.89748117 0 -2785.98515389 0 1036
0.03250000 0.03246190 53018.94160810 0 70.85734268 0 14306.44017492 0 -6021.15238103 0 -7039.42980530 0 1059
0.03350000 0.03345080 53187.57311509 0 128.43786066 0 15327.52996970 0 512.59549194 0 -3077.72984054 0 1302
0.03450000 0.03451200 53956.43535050 0 513.22550723 0 12459.46567193 0 2117.31638577 0 -5192.21171116 0 1339
0.03550000 0.03553350 53400.93681435 0 345.49860918 0 13998.62954497 0 2084.27656851 0 -3440.29311673 0 1365
0.03650000 0.03647120 54007.92166090 0 -404.43991588 0 13421.42925217 0 2988.52011948 0 -3024.56053676 0 1308
0.03750000 0.03744890 52566.08352302 0 3289.53234200 0 12284.96583278 0 1060.61135098 0 -3373.13946670 0 1579
0.03850000 0.03847530 50262.92923749 0 2948.87012430 0 16479.38392058 0 -3650.89980710 0 -1085.93043615 0 1662
0.03950000 0.03950240 47561.72487474 0 3636.53900181 0 18327.79782581 0 -3525.32857133 0 -3028.66836927 0 1683
0.04050000 0.04050350 43754.61670909 0 3324.67590097 0 24103.56534421 0 -1753.64587710 0 -3233.16313634 0 1822
0.04150000 0.04152450 42901.05118882 0 2460.46987655 0 20793.27239318 0 125.19588396 0 -1704.23009144 0 1887
0.04250000 0.04250150 41488.11181872 0 -575.67563367 0 24175.75690203 0 3852.03965976 0 -1524.30481313 0 1920
0.04350000 0.04349210 43167.00843097 0 955.58813561 0 22098.25659630 0 1005.01499360 0 -2055.13420959 0 2005
0.04450000 0.04448520 41473.38562671 0 673.50073067 0 22268.10605902 0 4725.96718537 0 988.49176328 0 2151
0.04550000 0.04548030 40236.93911421 0 1765.65934953 0 18271.55041573 0 2053.69480736 0 2100.64146459 0 2274
0.04650000 0.04648670 39609.80263648 0 -339.68231695 0 13472.69411608 0 6102.32359428 0 -238.55434545 0 2311
0.04750000 0.04749250 39412.05091522 0 24.90464804 0 13526.72706120 0 4331.70384323 0 1181.31740723 0 2568
0.04850000 0.04851840 39684.31938251 0 250.15149847 0 9484.76381382 0 1962.85745455 0 -2225.55943320 0 2493
0.04950000 0.04949480 37750.42712969 0 332.84183468 0 11278.27006027 0 1242.00481956 0 -1756.91221292 0 2644
0.05050000 0.05050630 37719.53534344 0 1291.48703917 0 9477.03533110 0 -1257.65001453 0 -1448.23794163 0 2829
0.05150000 0.05149060 37333.44337702 0 796.70802509 0 12330.36236454 0 701.21143800 0 -662.14384711 0 2784
0.05250000 0.05249300 36164.09515292 0 -299.29711941 0 10407.85246163 0 1533.92666340 0 2510.51678473 0 3055
0.05350000 0.05348950 37148.64627579 0 -30.69702405 0 10887.74916392 0 5096.86792214 0 2269.83766015 0 3009
0.05450000 0.05448610 35205.78543986 0 869.41998218 0 10612.21436081 0 2040.18657108 0 1985.72180530 0 3336
0.05550000 0.05550870 35336.99248897 0 2483.74390332 0 10098.69100804 0 -418.91365889 0 3293.49623428 0 3349
0.05650000 0.05647670 33216.64228619 0 1138.97683712 0 10019.61246419 0 -809.91841583 0 5308.52648338 0 3324
0.05750000 0.05747970 32845.05506528 0 -324.47447881 0 8819.05135643 0 420.88785440 0 2661.74259710 0 3639
0.05850000 0.05849280 33765.82959720 0 -1261.08243522 0 9736.78099902 0 -1036.17030118 0 -512.04187570 0 3846
0.05950000 0.05951020 34175.28416899 0 527.72471658 0 8933.51705040 0 -1113.27797122 0 -2488.44964137 0 3787
0.06050000 0.06049470 34382.77953609 0 598.41265268 0 10027.61775503 0 -1448.85799182 0 -715.01530535 0 3930
0.06150000 0.06148310 33339.43436843 0 1755.58353395 0 9393.45035104 0 1136.60735961 0 -2551.13007217 0 4083
0.06250000 0.06249100 32523.73619904 0 925.76704318 0 10504.94567796 0 -328.73400217 0 -2720.01624262 0 4303
0.06350000 0.06350600 31055.32448159 0 990.18915067 0 10608.07331133 0 1649.54387916 0 -1589.56509561 0 4470
0.06450000 0.06451750 30894.88649497 0 852.93661222 0 10918.14269555 0 1564.76308802 0 -740.49272476 0 4479
0.06550000 0.06550280 29544.61648334 0 539.65514657 0 9303.08910820 0 1429.76930383 0 -1724.82461560 0 4636
0.06650000 0.06648880 29727.86345909 0 624.56105498 0 9442.34573744 0 495.95932390 0 -870.85163378 0 4653
0.06750000 0.06749660 29117.99980808 0 516.71328954 0 9509.07863913 0 -461.90860339 0 1288.50858380 0 5220
0.06850000 0.06852730 28502.37854816 0 633.33587239 0 8349.75086899 0 1686.38150383 0 204.08066213 0 5029
0.06950000 0.06949320 28226.23476718 0 422.41472799 0 8469.69736375 0 929.68996786 0 -970.53245242 0 5040
0.07050000 0.07048030 27257.84923854 0 584.05184739 0 8123.75364712 0 251.75920003 0 -212.93077135 0 5475
0.07150000 0.07148790 27166.61328204 0 360.33441720 0 8575.32734252 0 1403.93757003 0 60.54856538 0 5509
0.07250000 0.07249820 26635.25241399 0 231.35069092 0 7602.80076440 0 -896.63132765 0 -698.50093288 0 5916
0.07350000 0.07351270 27326.27620592 0 -14.96734724 0 8774.46310438 0 240.02807188 0 1530.63818293 0 5721
0.07450000 0.07449140 27064.19427747 0 -229.07532817 0 8129.31195417 0 1648.08233228 0 1155.93963874 0 6028
0.07550000 0.07549160 27714.13974432 0 -176.31680764 0 8312.25997715 0 759.61684418 0 2334.52218174 0 6183
0.07650000 0.07648840 27018.35485272 0 506.16579292 0 7926.10157678 0 1719.78670781 0 1998.24460467 0 6330
0.07750000 0.07749960 26781.84999459 0 821.22658117 0 7695.56470173 0 921.85851252 0 2318.38980448 0 6583
0.07850000 0.07848650 26249.93551030 0 1146.81604309 0 8164.07905411 0 -1215.82984369 0 1921.03728371 0 6549
0.07950000 0.07947320 25052.57430441 0 1453.13190920 0 8969.18100864 0 -1215.37587837 0 3014.15255143 0 6828
0.08050000 0.08048110 23854.88092878 0 722.67513966 0 9109.06876040 0 -1126.85264144 0 2686.52246005 0 7147
0.08150000 0.08149960 24123.05263589 0 -391.16198396 0 8712.07055403 0 -175.09110129 0 1135.22331901 0 7386
0.08250000 0.08250610 24155.05165461 0 -286.64255937 0 9248.45825754 0 1717.45044727 0 447.40828681 0 7227
0.08350000 0.08350160 24102.67955822 0 5.93678127 0 8003.17602984 0 606.95162958 0 -619.60508239 0 7798
0.08450000 0.08449610 23807.15920881 0 334.83042421 0 7058.85066303 0 669.12716237 0 -1282.11985238 0 7371
0.08550000 0.08548940 23612.61846175 0 584.30318917 0 7463.67700305 0 470.75206922 0 50.63717382 0 8256
0.08650000 0.08650700 22682.32173049 0 736.29409919 0 6920.66804930 0 891.72407329 0 277.86995642 0 8037
0.08750000 0.08749060 22604.59401026 0 516.72657633 0 7914.38705712 0 -376.54208627 0 1073.25816039 0 8155
0.08850000 0.08849210 21934.38618899 0 698.87739193 0 7613.28625600 0 801.60863606 0 726.07766508 0 8718
0.08950000 0.08949900 20925.91884450 0 1158.07659743 0 7911.47503569 0 5.31353117 0 1196.13217783 0 8571
0.09050000 0.09049190 19979.67796550 0 1326.56416420 0 7748.18038927 0 308.24798679 0 1455.02527674 0 8932
0.09150000 0.09150830 19044.39868807 0 655.19707052 0 7524.77409140 0 660.03235476 0 1792.17756747 0 9285
0.09250000 0.09250820 18775.23047173 0 190.85587736 0 7728.30556622 0 278.46232579 0 1647.72801789 0 9204
0.09350000 0.09350330 18463.21235834 0 272.83979925 0 7423.35159606 0 560.27735154 0 914.89069851 0 9349
0.09450000 0.09448040 18332.78037198 0 312.65255760 0 7369.11934910 0 120.77470466 0 39.06338341 0 9564
0.09550000 0.09549270 17824.22849306 0 577.58228800 0 6874.35251458 0 -25.74282303 0 530.12741106 0 10155
0.09650000 0.09649430 17445.55498426 0 308.10072487 0 7020.89473355 0 709.05396567 0 595.33233192 0 9913
0.09750000 0.09749140 17037.09692170 0 263.04964965 0 6473.97724914 0 1097.44676119 0 402.01839845 0 10476
0.09850000 0.09850240 17428.17143429 0 -398.86942927 0 6114.79103202 0 1124.43887463 0 755.22556016 0 10575
0.09950000 0.09950330 17574.99046139 0 -255.98661364 0 6137.89897392 0 529.37449297 0 248.75970724 0 10882
0.10050000 0.10051200 17436.03278492 0 398.75870602 0 6045.17932589 0 -37.01168162 0 577.71404867 0 10875
0.10150000 0.10150300 17289.98882056 0 439.09629257 0 6175.43415505 0 -880.00512470 0 1015.83597665 0 11118
0.10250000 0.10250800 16886.73475066 0 179.00959704 0 6004.31137498 0 -77.03448197 0 1211.42305841 0 11575
0.10350000 0.10349800 17094.78373400 0 237.97969179 0 6269.84786878 0 115.83201886 0 562.92031548 0 11364
0.10450000 0.10450100 16616.90219483 0 189.05883905 0 6018.45073377 0 759.06987134 0 844.34005923 0 12093
0.10550000 0.10551000 16491.23130814 0 336.45251980 0 5638.81393272 0 694.28791329 0 766.60126668 0 12067
0.10650000 0.10649700 15810.50477829 0 421.27095684 0 5501.31780312 0 570.74512743 0 1230.66675894 0 12054
0.10750000 0.10749900 15677.08326422 0 345.61819028 0 5156.30416177 0 368.77927934 0 450.76763016 0 12807
0.10850000 0.10850100 15277.04016853 0 117.97672818 0 5322.03471966 0 253.89283702 0 -67.19184955 0 12736
0.10950000 0.10950300 15272.72196185 0 100.74066158 0 4999.23216189 0 -415.32622564 0 1338.57763663 0 12933
0.11050000 0.11050200 15205.18078045 0 184.51475694 0 5093.45764610 0 148.94380623 0 119.42277380 0 13428
0.11150000 0.11150900 15141.73635924 0 27.22762179 0 5215.18678516 0 203.89464707 0 457.40105996 0 13453
0.11250000 0.11250000 14959.59661598 0 198.89549241 0 4985.22567100 0 337.43020608 0 -362.65960541 0 13668
0.11350000 0.11349100 14859.39207637 0 260.08890999 0 4616.11865084 0 -24.59683741 0 65.13693678 0 13791
0.11450000 0.11448600 14416.83125337 0 217.72508800 0 4453.67657343 0 -29.23093752 0 -1176.77775405 0 14205
0.11550000 0.11549300 14352.27959967 0 269.54246092 0 4723.88558830 0 -87.41733312 0 -621.21942735 0 14776
0.11650000 0.11649800 14162.05705929 0 361.02311580 0 4682.20935769 0 83.73722452 0 -1133.07528799 0 14553
0.11750000 0.11747300 13869.52623758 0 -66.26996778 0 4521.32847807 0 276.42391079 0 -764.99688681 0 14568
0.11850000 0.11849100 13880.15566941 0 101.94688064 0 3996.00202705 0 419.65107572 0 -1149.11908665 0 16015
0.11950000 0.11950300 13973.60609088 0 164.78055242 0 4235.25282173 0 318.45445581 0 -608.20723122 0 15270
0.12050000 0.12050700 13635.23584442 0 147.91740172 0 4211.33660012 0 204.54016361 0 -592.28190643 0 15999
0.12150000 0.12150000 13724.70022895 0 211.01636639 0 4119.93455874 0 23.73840007 0 -574.06461041 0 15670
0.12250000 0.12250700 13390.53746593 0 248.85825093 0 3918.09714963 0 -114.85543981 0 -508.01044224 0 16887
0.12350000 0.12352200 13491.95996127 0 20.69373219 0 4254.98370456 0 -27.96249199 0 -200.33932357 0 16407
0.12450000 0.12449800 13285.79327314 0 -36.42340900 0 4089.38601457 0 77.00691188 0 -784.61151023 0 16306
0.12550000 0.12549900 13491.51706827 0 235.61132151 0 4310.32318400 0 -96.41248980 0 -640.89162685 0 17523
0.12650000 0.12650100 13354.77385676 0 147.66384548 0 4213.68393298 0 -126.84344589 0 -624.35289527 0 17154
0.12750000 0.12750600 13105.09293210 0 306.34797585 0 4276.58581028 0 294.05769530 0 -187.42567114 0 18007
0.12850000 0.12850300 13092.58120506 0 151.84143363 0 4390.36502012 0 129.29596584 0 -130.83944792 0 17496
0.12950000 0.12949900 12921.84595635 0 316.21341726 0 4393.98567033 0 250.66414710 0 -444.72767697 0 18405
0.13050000 0.13049000 12601.85576909 0 366.55927821 0 4032.40783105 0 277.88988660 0 172.89103035 0 18100
0.13150000 0.13148800 12254.84910928 0 276.66307301 0 4350.44928914 0 443.22073356 0 444.13309313 0 19059
0.13250000 0.13249300 11973.05844264 0 262.31887621 0 3793.87673749 0 546.54656154 0 345.39010039 0 18957
0.13350000 0.13349100 11644.09967228 0 308.00661011 0 3689.95189674 0 596.44067163 0 656.43052750 0 19468
0.13450000 0.13450700 11336.73193532 0 172.24551381 0 3439.80593443 0 209.38430572 0 752.51837674 0 19953
0.13550000 0.13551000 11304.40074685 0 -59.48628653 0 3530.07859868 0 139.34742231 0 157.87252896 0 19956
0.13650000 0.13649900 11388.55041547 0 -52.02675058 0 3395.04052519 0 -406.01107877 0 30.99265512 0 19723
0.13750000 0.13749600 11323.44514553 0 154.04039734 0 3577.46814890 0 -462.30720708 0 50.01036951 0 20946
0.13850000 0.13851100 11338.72495378 0 104.36053673 0 3711.29933899 0 -570.24133665 0 -105.89372155 0 20955
0.13950000 0.13949800 11278.71295327 0 114.39483110 0 4008.55804339 0 -92.14554799 0 -14.08610091 0 20506
0.14050000 0.14048300 11409.47710937 0 50.10238053 0 3925.38273936 0 517.87034749 0 -212.21217747 0 21447
0.14150000 0.14148400 11101.11286317 0 114.45129995 0 3861.82759490 0 728.36742185 0 -29.99957831 0 21771
0.14250000 0.14249400 11156.69593376 0 262.99982418 0 3773.38186425 0 485.84143348 0 190.65657552 0 22470
0.14350000 0.14350900 10802.41475654 0 222.03997298 0 3238.67715410 0 366.70432567 0 524.39194681 0 22519
0.14450000 0.14449900 10720.40204661 0 143.41650168 0 3454.84215154 0 79.96632286 0 954.96033480 0 22218
0.14550000 0.14550500 10640.65916327 0 121.91404688 0 3339.44638228 0 179.51670952 0 947.71239097 0 23559
0.14650000 0.14650700 10405.43869482 0 93.68747994 0 3433.32862442 0 50.49943410 0 885.30433936 0 23044
0.14750000 0.14750500 10404.58612581 0 314.03216927 0 3265.52754179 0 160.31508382 0 886.41600077 0 23649
0.14850000 0.14849900 10212.52557950 0 82.22009458 0 3213.17759005 0 334.08304229 0 1159.96996498 0 23640
0.14950000 0.14949500 10078.26256875 0 38.91091749 0 3026.03315596 0 395.91201131 0 812.44179866 0 24457
0.15050000 0.15050000 10065.91692658 0 237.26884854 0 3131.81814728 0 21.00320367 0 655.46391354 0 24591
0.15150000 0.15149900 9882.20491319 0 191.21572792 0 2944.37476042 0 -206.23865823 0 738.58385596 0 25020
0.15250000 0.15250500 9698.67005700 0 182.18513980 0 3124.04537526 0 -165.48696674 0 997.79362336 0 25297
0.15350000 0.15350100 9594.24696163 0 48.48637472 0 3128.57395611 0 185.34850300 0 1146.40636707 0 25452
0.15450000 0.15450400 9608.13165695 0 9.41872847 0 2934.76398248 0 437.61481550 0 1250.28691852 0 26061
0.15550000 0.15549900 9535.54149544 0 -3.09828008 0 2583.19552484 0 766.11962055 0 1302.49293004 0 26128
0.15650000 0.15649500 9432.51351300 0 79.21550851 0 2470.11387147 0 623.45935866 0 1100.52486749 0 26331
0.15750000 0.15749700 9369.24624899 0 118.49491298 0 2128.95339915 0 472.39741669 0 1236.67903132 0 27345
0.15850000 0.15849900 9225.69355772 0 104.07553509 0 1919.18820547 0 249.17824111 0 1233.32411690 0 26980
0.15950000 0.15949700 9120.90507563 0 97.34920848 0 1761.83939747 0 31.38206879 0 1256.38776950 0 27777
0.16050000 0.16050000 9095.25049903 0 81.82924151 0 2046.82996597 0 -393.63332686 0 1090.80558076 0 28224
0.16150000 0.16150500 9009.29604146 0 167.72579082 0 1997.35881869 0 -378.96913987 0 887.39257982 0 28075
0.16250000 0.16249700 9004.80067759 0 169.44975179 0 2210.99932606 0 -259.32824127 0 1090.69264305 0 28590
0.16350000 0.16349900 8995.23418894 0 12.94808737 0 2179.62035752 0 -238.20999615 0 461.50999970 0 29163
0.16450000 0.16449100 8801.73424041 0 142.19411702 0 2455.48733038 0 -229.63005165 0 438.41423736 0 28996
0.16550000 0.16550500 8770.16704235 0 329.80801768 0 2407.27842812 0 -101.70151792 0 216.45287788 0 30777
0.16650000 0.16650700 8404.42600894 0 355.18467893 0 2611.08671106 0 -186.63732161 0 416.53532352 0 29211
0.16750000 0.16749900 8274.16010745 0 199.33727818 0 2532.46213252 0 83.92855430 0 267.03900828 0 30922
0.16850000 0.16850800 8146.02009233 0 -73.35979881 0 2643.53969510 0 100.72925708 0 142.51632167 0 30867
0.16950000 0.16949900 8075.38973231 0 161.21969275 0 2641.86777405 0 169.86164228 0 351.71018340 0 30852
0.17050000 0.17049200 8274.47013255 0 -16.05774979 0 2704.18281813 0 92.55788137 0 410.07572922 0 31257
0.17150000 0.17149500 8042.77066339 0 36.11759139 0 2575.31202957 0 17.46183130 0 735.02078183 0 32608
0.17250000 0.17250900 8261.46015089 0 100.90541777 0 2612.27144981 0 138.20365115 0 341.74730553 0 32361
0.17350000 0.17350400 8052.06034392 0 65.32815583 0 2453.66039679 0 142.32587768 0 487.82559409 0 32508
0.17450000 0.17449800 7971.77491666 0 121.56526865 0 2432.12472501 0 337.35269981 0 514.80663521 0 32791
0.17550000 0.17549800 7793.97552472 0 132.21573789 0 2268.74149999 0 245.06487244 0 429.26960429 0 33633
0.17650000 0.17650100 7822.39818253 0 11.16810043 0 2068.22169752 0 442.16775547 0 723.36051656 0 33984
0.17750000 0.17750300 7792.25931437 0 43.10876800 0 1950.15749798 0 307.01231534 0 701.35537822 0 34069
0.17850000 0.17849800 7775.69511644 0 61.95818305 0 1837.39694203 0 -78.55604085 0 657.60197947 0 34536
