### header ###
fiducial parameters:
Omega_m = 0.31
Omega_nu = 0
Omega_de = 0.69
Omega_k = 0
H_0 = 100
w_de = -1
zeff = 0
beta = 0
fgrowth = 0
b_1 = 2
gamma = 0.55
Lx = 3500 Ly = 3500 Lz = 3500
nx = 700 ny = 700 nz = 700
xoffset = -685.467585 yoffset = -31.7331281 zoffset = 572.489161
bins = 400 dk = 0.001
kx_ny = 0.628318531 ky_ny = 0.628318531 kz_ny = 0.628318531
############################
A(data) = 7.99498688 (not used)
A(ran) = 7.9964703 (used)
Ngal = 474986
weighted Ngal = 0
Nran = 23820508
weighted Nran = 0
SN(data) = 3484.84152
SN(ran) = 69.6521564
SN(data+ran) = 3554.49368
############################
13 columns: k_central k_mean P_0(k) sigma^{lin}_{P_0(k)} P^img_1(k) sigma^{lin}_{P_1(k)} P_2(k) sigma^{lin}_{P_2(k)} P^img_3(k) sigma^{lin}_{P_3(k)} P_4(k) sigma^{lin}_{P_4(k)} N_modes
### header ###
0.00050000 0 0 0 0 0 0 0 0 0 0 0 0
0.00150000 0.00179520 7761.77720414 0 -11173.30442099 0 27133.17486109 0 -74112.71689686 0 -19980.67447474 0 3
0.00250000 0.00253879 21991.07649206 0 -23076.16432429 0 -30872.29895234 0 36856.00473084 0 17141.50894474 0 6
0.00350000 0.00331552 25214.56241651 0 -22727.49681575 0 -37312.40595986 0 33028.74493402 0 30660.48537856 0 7
0.00450000 0.00420575 37577.58813927 0 -25277.12105174 0 -55045.39849641 0 7595.57053629 0 -27307.34253048 0 24
0.00550000 0.00557378 74513.09216230 0 -38655.81113011 0 -65327.82366250 0 -1017.48021688 0 -15517.64178684 0 45
0.00650000 0.00659388 93165.08765880 0 -27241.90509080 0 -84551.37256613 0 -20266.45117831 0 26607.90377169 0 40
0.00750000 0.00754703 84296.93054180 0 8525.69011036 0 -50376.86345988 0 -57185.23599086 0 15295.08805798 0 57
0.00850000 0.00846663 89300.07123435 0 12254.95983253 0 -58264.89838393 0 -15199.20172505 0 37902.67159594 0 75
0.00950000 0.00948925 88091.52698040 0 -11678.75604896 0 -34324.76055404 0 -11812.84190252 0 22582.44936062 0 112
0.01050000 0.01054430 100534.38416510 0 -1394.19392419 0 -29672.83400474 0 -20571.82589680 0 -9513.96153437 0 105
0.01150000 0.01145670 96365.10025464 0 -3845.14160140 0 -4074.20585724 0 -21842.70733949 0 -4040.64564072 0 144
0.01250000 0.01249090 104956.44925117 0 -4391.73798839 0 -19578.97053032 0 -4328.68109855 0 -229.79392205 0 169
0.01350000 0.01339930 95158.21684940 0 6707.57008584 0 -16740.35861656 0 -25601.65089217 0 11970.06891494 0 180
0.01450000 0.01448870 90896.70047320 0 13419.76840345 0 -17597.35655752 0 2422.77968287 0 -8234.84228202 0 267
0.01550000 0.01550050 75294.35540150 0 5181.99195535 0 -7856.67810017 0 434.15803570 0 -11278.04861378 0 238
0.01650000 0.01653350 72397.50305920 0 1072.59160644 0 -20012.67349346 0 -3149.76638581 0 -2547.66443450 0 315
0.01750000 0.01747870 70513.98988430 0 1770.68618500 0 -4422.19795397 0 -10854.82006991 0 -15468.36994139 0 297
0.01850000 0.01844180 69739.48076324 0 1280.99047524 0 -6190.04962381 0 -8730.25131138 0 -5942.92640619 0 388
0.01950000 0.01947590 68394.19329777 0 4180.32301831 0 7619.23209443 0 -15345.46713591 0 -373.92348145 0 399
0.02050000 0.02045430 69776.35160488 0 4661.47089330 0 15449.54698920 0 -9440.12020016 0 -2071.83127542 0 462
0.02150000 0.02154770 67932.14518309 0 -1447.06427520 0 12560.99889051 0 -7433.58242420 0 -746.08424879 0 571
0.02250000 0.02255340 75540.27173573 0 -2796.55922410 0 27153.32649226 0 563.90353792 0 -19809.71777954 0 510
0.02350000 0.02348930 72800.42495935 0 -1624.57578669 0 21102.19025562 0 -2732.30652317 0 -17857.33474426 0 555
0.02450000 0.02439640 76282.22822182 0 2718.87579317 0 23416.52758921 0 2419.94516771 0 -16635.17153078 0 592
0.02550000 0.02547300 70629.47423216 0 5312.41286939 0 21179.91797584 0 4248.38459897 0 -19389.52305267 0 837
0.02650000 0.02652900 66068.45146961 0 6769.45330925 0 25346.21235860 0 -2218.38456672 0 -8933.64991830 0 723
0.02750000 0.02749970 60762.70413977 0 8603.81643428 0 25255.53001834 0 -1408.05647486 0 -17039.53283316 0 826
0.02850000 0.02848090 54390.91337638 0 2028.95923372 0 23459.48820951 0 6919.62725076 0 8126.14526928 0 831
0.02950000 0.02946900 55005.42740382 0 -2210.45678214 0 24466.07325877 0 11632.91662421 0 2210.97718141 0 996
0.03050000 0.03053250 59115.69582299 0 -5452.37812742 0 20421.46372577 0 11435.93996569 0 -8034.10103306 0 1041
0.03150000 0.03150510 62951.14914017 0 -704.83208821 0 24089.06059870 0 1034.75857976 0 -9402.48536810 0 1036
0.03250000 0.03246190 58559.31150086 0 4583.52172658 0 18009.91138027 0 -6920.80091719 0 3568.15632373 0 1059
0.03350000 0.03345080 58205.99361589 0 5102.50373548 0 25602.97957115 0 -6757.79415121 0 6969.79595452 0 1302
0.03450000 0.03451200 55686.37538016 0 2276.13781297 0 25038.62317514 0 -147.58855367 0 4181.89528843 0 1339
0.03550000 0.03553350 53231.75169112 0 2484.90649742 0 27977.43962851 0 5924.32490049 0 2250.13999429 0 1365
0.03650000 0.03647120 50187.41598223 0 2437.94876787 0 23607.52519233 0 4468.66850123 0 -2364.94893034 0 1308
0.03750000 0.03744890 48383.73426927 0 593.72684482 0 20776.11028971 0 9463.30564833 0 2943.47790211 0 1579
0.03850000 0.03847530 48444.41060928 0 -472.22579566 0 18420.91607753 0 2076.99097878 0 -1637.50826208 0 1662
0.03950000 0.03950240 46753.00226998 0 860.12365826 0 16982.28891385 0 2198.88620271 0 450.91157038 0 1683
0.04050000 0.04050350 45894.78637329 0 2544.60847285 0 16452.03527828 0 297.75806626 0 -442.75237422 0 1822
0.04150000 0.04152450 43303.41947273 0 3291.50321581 0 16507.28617913 0 -2274.27766240 0 1793.04120881 0 1887
0.04250000 0.04250150 42616.93533398 0 1389.01207617 0 17736.86785024 0 -1283.73641180 0 -4802.51016684 0 1920
0.04350000 0.04349210 40298.61196345 0 1522.06820352 0 19238.05364915 0 -2356.58932510 0 -919.36281050 0 2005
0.04450000 0.04448520 40736.85457977 0 1351.35509947 0 19637.98602160 0 -1348.83060941 0 -2252.81949690 0 2151
0.04550000 0.04548030 39958.58086827 0 -1501.82799375 0 20253.82872801 0 662.46826622 0 -370.99263707 0 2274
0.04650000 0.04648670 41387.90727911 0 -947.60941835 0 21792.21753832 0 4886.99200521 0 -3858.14051073 0 2311
0.04750000 0.04749250 41857.70602116 0 -181.80425182 0 17472.68218006 0 2197.33607723 0 -6556.78716646 0 2568
0.04850000 0.04851840 41669.80866899 0 601.05118769 0 14358.25865508 0 463.76100333 0 -5450.82800195 0 2493
0.04950000 0.04949480 41227.58001573 0 1355.55151057 0 15484.09264264 0 2385.79811797 0 -5280.69065878 0 2644
0.05050000 0.05050630 38788.90047443 0 963.30222431 0 11853.36661135 0 2699.69852658 0 -3716.33724678 0 2829
0.05150000 0.05149060 37550.23949696 0 2127.35898438 0 11586.30213673 0 1115.93532917 0 -5052.27967010 0 2784
0.05250000 0.05249300 37027.29359578 0 1169.90184034 0 11305.72942582 0 715.02084151 0 -4624.24573726 0 3055
0.05350000 0.05348950 35420.80998784 0 1413.54834797 0 12224.28949278 0 -23.10318080 0 -2466.08354523 0 3009
0.05450000 0.05448610 34680.51435047 0 838.43629564 0 10875.51424499 0 -284.95735153 0 -2303.10999623 0 3336
0.05550000 0.05550870 34489.84891709 0 -335.16480842 0 10784.86512170 0 -1709.55587967 0 -5300.96408553 0 3349
0.05650000 0.05647670 34641.31832061 0 874.59075787 0 12862.27684883 0 -1965.86912690 0 -5156.90206731 0 3324
0.05750000 0.05747970 32954.11746474 0 1704.70620140 0 13101.10689517 0 -1037.79350400 0 -5091.97395457 0 3639
0.05850000 0.05849280 32836.41865192 0 -429.24303071 0 11970.62253118 0 1959.42503386 0 -4743.02963791 0 3846
0.05950000 0.05951020 32537.13371207 0 -1248.57070817 0 10564.19368807 0 3001.10935279 0 -6556.43285206 0 3787
0.06050000 0.06049470 33979.74691270 0 117.41536131 0 9927.61251727 0 1815.07513520 0 -7636.72636764 0 3930
0.06150000 0.06148310 33685.88741201 0 -135.74559504 0 8981.11697480 0 -454.22773166 0 -8630.27929059 0 4083
0.06250000 0.06249100 33327.03336464 0 506.72605256 0 9047.75022556 0 -30.76445451 0 -5069.79608796 0 4303
0.06350000 0.06350600 32949.02419533 0 1188.04938072 0 8774.41881508 0 17.54642386 0 -5688.26293536 0 4470
0.06450000 0.06451750 31861.72189814 0 937.94327878 0 9827.62942416 0 6.74822766 0 -5882.12827061 0 4479
0.06550000 0.06550280 31353.17001922 0 764.52409854 0 8383.94220803 0 772.15514481 0 -6330.28061764 0 4636
0.06650000 0.06648880 29885.97625750 0 1154.73275534 0 9516.48602443 0 346.55158727 0 -5431.34071027 0 4653
0.06750000 0.06749660 29144.68411089 0 1484.44444379 0 8526.90806609 0 -484.67883938 0 -5501.74962379 0 5220
0.06850000 0.06852730 28162.90106922 0 856.60819513 0 9025.04088735 0 -80.15267009 0 -5785.84333398 0 5029
0.06950000 0.06949320 27728.53376658 0 157.25247877 0 9911.81230975 0 -446.67640614 0 -5266.83918043 0 5040
0.07050000 0.07048030 27392.93160133 0 51.02426229 0 9468.91931701 0 1173.74393705 0 -6503.55142873 0 5475
0.07150000 0.07148790 27878.34232138 0 -295.90788078 0 8460.77306995 0 916.02007564 0 -4761.32111851 0 5509
0.07250000 0.07249820 27743.59212834 0 -235.36994483 0 8684.92121357 0 1524.26052383 0 -4142.99821134 0 5916
0.07350000 0.07351270 28159.46864853 0 374.09288802 0 9201.77733611 0 50.12408228 0 -4070.16445868 0 5721
0.07450000 0.07449140 27088.66411531 0 1179.56797990 0 8155.49800237 0 498.17932503 0 -1771.36159681 0 6028
0.07550000 0.07549160 26620.96911497 0 1310.49822089 0 8875.36520046 0 712.95031677 0 -815.05154562 0 6183
0.07650000 0.07648840 25989.40370732 0 119.15925247 0 7983.33442377 0 1634.45230043 0 649.66976597 0 6330
0.07750000 0.07749960 25338.24028473 0 261.75086595 0 7723.11264588 0 1866.24034818 0 -1101.55680816 0 6583
0.07850000 0.07848650 25354.51660222 0 641.41202612 0 6120.41577303 0 1262.75435627 0 58.27264901 0 6549
0.07950000 0.07947320 25286.86469758 0 -396.05484430 0 6339.41528562 0 1266.98398435 0 698.32266845 0 6828
0.08050000 0.08048110 24698.37063347 0 360.83488628 0 5142.17587530 0 1244.44073102 0 -286.73445967 0 7147
0.08150000 0.08149960 24360.00038701 0 607.98357026 0 5065.90970195 0 549.99669795 0 -30.37393361 0 7386
0.08250000 0.08250610 23538.21243897 0 843.40001885 0 4618.64314090 0 745.40440805 0 1720.59498752 0 7227
0.08350000 0.08350160 22647.55463056 0 802.26301045 0 5529.62973768 0 129.64917300 0 2360.81895318 0 7798
0.08450000 0.08449610 22251.60829504 0 423.64375605 0 5613.50259818 0 -45.68252991 0 1830.94177666 0 7371
0.08550000 0.08548940 22080.76232309 0 519.59873739 0 5716.27591715 0 -515.39236119 0 1729.36426877 0 8256
0.08650000 0.08650700 21313.78238290 0 634.39106495 0 5199.14298649 0 -626.98921581 0 3075.00604863 0 8037
0.08750000 0.08749060 21541.98299741 0 165.88889213 0 6495.66793346 0 329.72276077 0 2644.40333644 0 8155
0.08850000 0.08849210 21360.06470064 0 -283.47144554 0 5791.55665359 0 719.45087867 0 2378.99971053 0 8718
0.08950000 0.08949900 21156.77681697 0 702.27548841 0 5946.87922615 0 684.71588848 0 1350.93435112 0 8571
0.09050000 0.09049190 20605.48576425 0 734.01873644 0 5644.73762649 0 237.55008559 0 2678.08534854 0 8932
0.09150000 0.09150830 19978.90290277 0 304.16229893 0 5938.67463346 0 498.75508592 0 2075.07546659 0 9285
0.09250000 0.09250820 19933.50637101 0 523.39100864 0 5926.03003851 0 295.67425472 0 2694.19558115 0 9204
0.09350000 0.09350330 19300.39083788 0 341.08628774 0 5879.69235915 0 199.70709382 0 1888.85003546 0 9349
0.09450000 0.09448040 18876.98513681 0 356.54878935 0 6269.73714553 0 -235.27693730 0 2142.40627381 0 9564
0.09550000 0.09549270 18706.02844161 0 372.53390469 0 6202.78279735 0 -589.35106205 0 1579.11282099 0 10155
0.09650000 0.09649430 18089.07850272 0 739.38327781 0 6111.51362387 0 -149.61036018 0 1341.70003222 0 9913
0.09750000 0.09749140 18160.71644430 0 424.81188632 0 6633.35229258 0 -574.63926407 0 824.14192430 0 10476
0.09850000 0.09850240 17477.77544948 0 -21.53567177 0 6097.34104811 0 128.77113764 0 849.65034621 0 10575
0.09950000 0.09950330 18017.10839140 0 -60.44968952 0 6058.06751197 0 -98.61887197 0 -495.84638619 0 10882
0.10050000 0.10051200 18087.19620750 0 -282.02872162 0 6391.07875322 0 -248.37328310 0 -594.08890984 0 10875
0.10150000 0.10150300 17728.00999038 0 439.83924556 0 6588.38758149 0 -480.36173993 0 -977.01197691 0 11118
0.10250000 0.10250800 17744.61847761 0 643.83575802 0 6636.27538633 0 -247.39781128 0 -580.75118737 0 11575
0.10350000 0.10349800 16978.63504666 0 400.60667703 0 6200.36903054 0 590.36307254 0 -554.24847068 0 11364
0.10450000 0.10450100 16987.27146002 0 374.40955651 0 6503.51821175 0 909.25377794 0 -460.20125090 0 12093
0.10550000 0.10551000 16797.60253587 0 -32.27781986 0 5843.19797654 0 151.83700470 0 -947.42893945 0 12067
0.10650000 0.10649700 16178.54885526 0 258.51774710 0 5607.06957746 0 401.80138088 0 -853.72385451 0 12054
0.10750000 0.10749900 16502.30363296 0 523.03005085 0 6289.15800326 0 -572.04169666 0 -1035.16271962 0 12807
0.10850000 0.10850100 15863.65193742 0 380.75178417 0 5984.74657703 0 -227.28825495 0 -236.71523230 0 12736
0.10950000 0.10950300 15667.45034163 0 424.80302846 0 6108.53516850 0 581.36348693 0 -392.19503187 0 12933
0.11050000 0.11050200 15238.50847816 0 -21.58881893 0 5662.63050340 0 1169.45894735 0 -114.16784844 0 13428
0.11150000 0.11150900 15259.10300232 0 6.53816352 0 5625.62679386 0 1150.44776563 0 -901.94050740 0 13453
0.11250000 0.11250000 15300.18132740 0 -101.15210917 0 4604.72522860 0 1396.35302753 0 -277.00852955 0 13668
0.11350000 0.11349100 15058.47247661 0 99.50266494 0 4086.71758429 0 942.31352539 0 79.80189884 0 13791
0.11450000 0.11448600 14984.84151656 0 268.87258527 0 3580.95593122 0 -20.74245042 0 -98.17265728 0 14205
0.11550000 0.11549300 14716.11619321 0 247.82077409 0 3619.98587621 0 -211.55448138 0 -0.50655000 0 14776
0.11650000 0.11649800 14553.90663462 0 217.29437457 0 4013.58487886 0 -379.17287065 0 164.93224327 0 14553
0.11750000 0.11747300 14432.77540111 0 122.63706969 0 3861.84973955 0 -245.34610949 0 -32.98877384 0 14568
0.11850000 0.11849100 14375.75292829 0 164.63218326 0 4378.31833071 0 -580.23410980 0 -117.24152581 0 16015
0.11950000 0.11950300 14130.16876381 0 415.51224070 0 4741.41307849 0 -165.29762999 0 -404.30261906 0 15270
0.12050000 0.12050700 13863.10428919 0 541.12112237 0 4987.75016106 0 250.21350348 0 34.56846242 0 15999
0.12150000 0.12150000 13269.29550916 0 274.05000435 0 4357.14804566 0 637.49906653 0 695.63762968 0 15670
0.12250000 0.12250700 13502.03577685 0 8.17279297 0 4476.78451532 0 970.29993360 0 457.04231663 0 16887
0.12350000 0.12352200 13167.98373707 0 -10.26047982 0 3839.12932902 0 1060.81840346 0 910.71753929 0 16407
0.12450000 0.12449800 13331.74342114 0 -1.32608805 0 3638.12234426 0 240.91275064 0 245.86097260 0 16306
0.12550000 0.12549900 13304.06260909 0 38.57597967 0 3404.75095406 0 223.43619314 0 779.52820590 0 17523
0.12650000 0.12650100 13141.52088075 0 274.96457838 0 3559.80779082 0 -383.27848869 0 712.51517440 0 17154
0.12750000 0.12750600 12931.36815570 0 213.83316583 0 3521.40896835 0 -286.01475855 0 981.70442816 0 18007
0.12850000 0.12850300 13128.78770721 0 -120.35063462 0 3664.66270685 0 76.37578937 0 618.26865278 0 17496
0.12950000 0.12949900 13011.42106414 0 65.79651517 0 3846.68065455 0 113.23998762 0 693.52392288 0 18405
0.13050000 0.13049000 12807.13667123 0 517.20379353 0 3762.27632245 0 157.93785568 0 264.82675778 0 18100
0.13150000 0.13148800 12504.53003394 0 465.50710896 0 3684.21643248 0 -379.88592837 0 65.02621353 0 19059
0.13250000 0.13249300 12035.17418488 0 426.51702434 0 3994.31903368 0 -398.92479089 0 421.81571522 0 18957
0.13350000 0.13349100 11695.91815243 0 450.36459753 0 3813.85121146 0 3.21945560 0 417.95258109 0 19468
0.13450000 0.13450700 11454.76291788 0 -89.68815622 0 3747.89337251 0 557.85472687 0 463.40447447 0 19953
0.13550000 0.13551000 11790.14363664 0 -236.31995030 0 3579.47223970 0 512.52684353 0 -277.19565183 0 19956
0.13650000 0.13649900 11784.16458124 0 -5.64233493 0 3532.33735294 0 -21.19863020 0 -526.48793789 0 19723
0.13750000 0.13749600 11828.78605026 0 262.50156957 0 3732.80179379 0 -405.95793162 0 -220.64486006 0 20946
0.13850000 0.13851100 11592.72408512 0 123.39663117 0 3505.87449663 0 -45.51877022 0 574.51525403 0 20955
0.13950000 0.13949800 11630.48071275 0 44.57086849 0 3820.61640192 0 420.77934562 0 1186.85356964 0 20506
0.14050000 0.14048300 11650.85379042 0 -51.98976902 0 3775.89528198 0 331.14776898 0 537.09854677 0 21447
0.14150000 0.14148400 11704.00094955 0 175.13539059 0 3657.93073336 0 943.80607477 0 1094.54581209 0 21771
0.14250000 0.14249400 11407.48409091 0 293.68012902 0 3131.47490521 0 158.80592594 0 1376.36748123 0 22470
0.14350000 0.14350900 11299.52892392 0 95.69921064 0 3402.43683817 0 -23.68248483 0 1336.45175026 0 22519
0.14450000 0.14449900 11047.19064131 0 125.98534072 0 3629.10947186 0 87.39009520 0 1711.71498301 0 22218
0.14550000 0.14550500 10828.92190216 0 278.78895938 0 3405.90247584 0 174.02262194 0 1252.64532371 0 23559
0.14650000 0.14650700 10586.48227793 0 397.69908453 0 3433.60543254 0 25.26250558 0 1202.41018601 0 23044
0.14750000 0.14750500 10429.38813340 0 145.08510103 0 3128.68467936 0 362.12259766 0 946.46121827 0 23649
0.14850000 0.14849900 10179.55219619 0 139.65412571 0 3158.38065452 0 311.51653708 0 1097.52094577 0 23640
0.14950000 0.14949500 10079.63553703 0 156.72322165 0 2749.22503550 0 113.53561869 0 352.00581447 0 24457
0.15050000 0.15050000 9970.94959661 0 44.69211045 0 2708.66710968 0 106.63357429 0 871.23695068 0 24591
0.15150000 0.15149900 10001.36527289 0 157.51157117 0 2500.29702892 0 -114.73364424 0 419.37205313 0 25020
0.15250000 0.15250500 9856.62784286 0 0.95151684 0 2508.24695814 0 39.90953047 0 613.59945340 0 25297
0.15350000 0.15350100 9937.20115056 0 26.99576731 0 2658.26588711 0 135.79763497 0 569.45077266 0 25452
0.15450000 0.15450400 9954.03108429 0 239.40691446 0 2877.21003807 0 -118.60452899 0 805.35108185 0 26061
0.15550000 0.15549900 9653.77177986 0 313.85169038 0 2825.30297932 0 235.57035391 0 786.26793002 0 26128
0.15650000 0.15649500 9393.58321894 0 262.20040233 0 2661.00075134 0 19.65946633 0 1104.77553299 0 26331
0.15750000 0.15749700 9260.80389972 0 122.99359855 0 2779.48569922 0 369.37497042 0 1267.80333638 0 27345
0.15850000 0.15849900 9122.08981439 0 -92.17787918 0 2558.00598588 0 570.39967089 0 1010.41385919 0 26980
0.15950000 0.15949700 9179.58839717 0 9.55355617 0 2246.12074039 0 447.77035183 0 1065.48538837 0 27777
0.16050000 0.16050000 9150.78928032 0 -23.05833788 0 2076.59237509 0 354.04533670 0 954.20188055 0 28224
0.16150000 0.16150500 9108.71444601 0 60.26411735 0 1954.08817329 0 -10.91457741 0 702.27327395 0 28075
0.16250000 0.16249700 8897.29947592 0 280.94031209 0 1592.97537166 0 44.09586576 0 783.09681619 0 28590
0.16350000 0.16349900 8739.07595426 0 260.01029648 0 1888.85003546 0 -296.07175119 0 814.68837337 0 29163
0.16450000 0.16449100 8618.58691559 0 192.44032705 0 1802.17587678 0 -130.84609131 0 655.84369429 0 28996
0.16550000 0.16550500 8499.36012194 0 34.54377114 0 2061.36792846 0 -93.40369626 0 834.60305679 0 30777
0.16650000 0.16650700 8527.63883953 0 42.21368126 0 2081.56384893 0 -31.89361019 0 632.81547313 0 29211
0.16750000 0.16749900 8626.48148318 0 -83.56748578 0 2013.35832805 0 -97.98642078 0 562.67008094 0 30922
0.16850000 0.16850800 8620.75709125 0 1.63843834 0 2236.07814178 0 177.34321216 0 674.23814751 0 30867
0.16950000 0.16949900 8692.28430958 0 10.49759365 0 2028.41668980 0 11.37448856 0 431.30580482 0 30852
0.17050000 0.17049200 8757.20134999 0 36.81249049 0 1827.44292202 0 246.08352633 0 608.85164052 0 31257
0.17150000 0.17149500 8483.12809375 0 195.13090198 0 1942.08577319 0 232.08478606 0 676.88886207 0 32608
0.17250000 0.17250900 8378.32853935 0 253.64038802 0 1876.68155049 0 210.24130366 0 526.97290572 0 32361
0.17350000 0.17350400 8020.78102630 0 224.33194422 0 1844.85968896 0 134.07921016 0 584.44823662 0 32508
0.17450000 0.17449800 7953.71595488 0 211.48029680 0 1950.56717400 0 0.68407148 0 554.20085968 0 32791
0.17550000 0.17549800 7866.82034970 0 75.28439031 0 1863.02937399 0 -82.58791721 0 768.77476404 0 33633
0.17650000 0.17650100 7815.17902675 0 42.22242840 0 1775.63551419 0 -236.94775112 0 584.78926423 0 33984
0.17750000 0.17750300 7917.40980180 0 3.35625417 0 1918.74531247 0 -23.21257537 0 664.43471111 0 34069
0.17850000 0.17849800 7829.48447041 0 37.69274032 0 1711.05064352 0 -4.66771568 0 321.87801864 0 34536
