### header ###
fiducial parameters:
Omega_m = 0.31
Omega_nu = 0
Omega_de = 0.69
Omega_k = 0
H_0 = 100
w_de = -1
zeff = 0
beta = 0
fgrowth = 0
b_1 = 2
gamma = 0.55
Lx = 3500 Ly = 3500 Lz = 3500
nx = 700 ny = 700 nz = 700
xoffset = -685.467585 yoffset = -31.7331281 zoffset = 572.489161
bins = 400 dk = 0.001
kx_ny = 0.628318531 ky_ny = 0.628318531 kz_ny = 0.628318531
############################
A(data) = 8.04532719 (not used)
A(ran) = 8.04302054 (used)
Ngal = 478023
weighted Ngal = 0
Nran = 23820508
weighted Nran = 0
SN(data) = 3488.80325
SN(ran) = 70.0576258
SN(data+ran) = 3558.86088
############################
13 columns: k_central k_mean P_0(k) sigma^{lin}_{P_0(k)} P^img_1(k) sigma^{lin}_{P_1(k)} P_2(k) sigma^{lin}_{P_2(k)} P^img_3(k) sigma^{lin}_{P_3(k)} P_4(k) sigma^{lin}_{P_4(k)} N_modes
### header ###
0.00050000 0 0 0 0 0 0 0 0 0 0 0 0
0.00150000 0.00179520 1475.59765626 0 -10313.44982023 0 254.41323629 0 2121.16955481 0 294.84050867 0 3
0.00250000 0.00253879 5947.89788003 0 -11555.52107373 0 -1528.81124933 0 -2455.09979901 0 6732.75962480 0 6
0.00350000 0.00331552 15030.01660182 0 -17668.55160611 0 -6214.66340188 0 13324.10351701 0 -13027.14376538 0 7
0.00450000 0.00420575 20516.13210297 0 -13331.63269789 0 -3730.00049561 0 -5062.86481263 0 -5448.58032001 0 24
0.00550000 0.00557378 38178.04031418 0 -9756.95477484 0 -1433.22386918 0 -22290.69360165 0 -2851.33401497 0 45
0.00650000 0.00659388 40434.46938897 0 -4532.26793499 0 -2572.41108047 0 -21122.78477978 0 11614.75801151 0 40
0.00750000 0.00754703 52827.05821900 0 3536.72199357 0 -508.18095604 0 -19303.26964233 0 6902.01118198 0 57
0.00850000 0.00846663 58760.82781256 0 -9720.05071622 0 -5533.59362997 0 -8936.01939581 0 -7300.52629685 0 75
0.00950000 0.00948925 66080.52030367 0 -8425.27519658 0 4516.86633117 0 -1264.83595333 0 -18414.93702213 0 112
0.01050000 0.01054430 77420.68465968 0 -10284.71713732 0 14819.08881403 0 -3562.69766760 0 -30739.65250102 0 105
0.01150000 0.01145670 81337.96245726 0 -730.35490415 0 5391.61320882 0 4152.68649556 0 -31178.67018007 0 144
0.01250000 0.01249090 79396.76247006 0 4730.72828504 0 489.50415853 0 12032.40610367 0 -13657.04832431 0 169
0.01350000 0.01339930 70125.46200641 0 2452.36493478 0 -1342.51938426 0 977.90772798 0 -15378.13049412 0 180
0.01450000 0.01448870 82138.93443465 0 -1334.66910596 0 5184.17320334 0 2300.81802499 0 -24926.12835498 0 267
0.01550000 0.01550050 80566.77503365 0 -3134.55301151 0 5481.11081032 0 -11263.54386826 0 5422.39427181 0 238
0.01650000 0.01653350 80105.28053521 0 -1735.78621717 0 3700.40417137 0 237.09279857 0 -10200.76677055 0 315
0.01750000 0.01747870 80816.67740480 0 -740.27459996 0 13471.58688360 0 -3489.36566032 0 5932.34126366 0 297
0.01850000 0.01844180 86656.11079091 0 3353.41965620 0 11194.34183815 0 -5751.16481265 0 -9702.39035813 0 388
0.01950000 0.01947590 81074.10895684 0 6322.23103750 0 18956.81659876 0 -1308.05123710 0 4549.78435285 0 399
0.02050000 0.02045430 78667.87132725 0 2375.86624261 0 12354.27858615 0 -1802.88450557 0 -12350.51399571 0 462
0.02150000 0.02154770 77595.51666856 0 1528.92197258 0 25921.08746319 0 -12888.73970515 0 -13715.51019935 0 571
0.02250000 0.02255340 75854.61503733 0 2725.93993640 0 31311.20590815 0 -2358.88129634 0 -18835.46391874 0 510
0.02350000 0.02348930 73570.17298074 0 290.92644184 0 28555.74715379 0 2449.38647941 0 -11882.37610238 0 555
0.02450000 0.02439640 67503.86765910 0 2762.73327177 0 15683.94810561 0 4083.39588684 0 -3022.39036110 0 592
0.02550000 0.02547300 73919.83699852 0 -1062.70291314 0 23056.45558611 0 5994.92204353 0 -20184.84814439 0 837
0.02650000 0.02652900 68772.97752982 0 1916.99588515 0 15057.91886037 0 2882.92335768 0 -3053.74718498 0 723
0.02750000 0.02749970 65505.42375259 0 4837.45442397 0 11323.99876177 0 7674.28369343 0 -11628.48769429 0 826
0.02850000 0.02848090 63957.51274294 0 5103.09056869 0 13507.35049276 0 -678.34708725 0 -2522.33095531 0 831
0.02950000 0.02946900 60291.24454899 0 3664.07587364 0 17334.72101282 0 -845.32992507 0 -5033.61173045 0 996
0.03050000 0.03053250 59253.21409724 0 1251.95883957 0 13236.63215095 0 -732.07332896 0 6000.34748270 0 1041
0.03150000 0.03150510 57829.86674180 0 2277.99796354 0 17756.13369542 0 1503.55527642 0 -1201.91193139 0 1036
0.03250000 0.03246190 56761.49812005 0 1862.27645590 0 20156.94588585 0 -4808.51136689 0 -5126.23172756 0 1059
0.03350000 0.03345080 53241.82750670 0 8082.66424971 0 22638.80749395 0 -2811.80581537 0 -4700.77764641 0 1302
0.03450000 0.03451200 47808.63771819 0 5129.70843756 0 20347.94348897 0 -1865.37670685 0 -1639.06945988 0 1339
0.03550000 0.03553350 43763.25312245 0 -51.08161693 0 24394.54604044 0 1808.09957056 0 -5266.19698559 0 1365
0.03650000 0.03647120 44478.52530574 0 -384.17645423 0 20367.20933416 0 6748.24980722 0 -7134.91753454 0 1308
0.03750000 0.03744890 45197.89424920 0 -4317.69735233 0 19736.97260548 0 4023.47246492 0 -4259.36834519 0 1579
0.03850000 0.03847530 48650.46657415 0 -1599.50804330 0 13251.80123595 0 6239.49862645 0 -9886.44561359 0 1662
0.03950000 0.03950240 49925.66622352 0 -2378.76719171 0 13493.73153324 0 -1049.34968941 0 -7678.83441893 0 1683
0.04050000 0.04050350 51003.33559812 0 2026.93299828 0 12472.64173846 0 -1875.27536523 0 -12081.78867236 0 1822
0.04150000 0.04152450 49715.62422171 0 3627.98009473 0 16305.43769768 0 -4186.77818367 0 -7035.72057649 0 1887
0.04250000 0.04250150 46991.83231632 0 3660.34450017 0 17563.03235058 0 -5583.76233372 0 -6792.56125114 0 1920
0.04350000 0.04349210 43798.79528512 0 3128.93934283 0 19956.53680663 0 386.54925344 0 -4722.53476467 0 2005
0.04450000 0.04448520 41305.97207545 0 624.97848162 0 19094.00270326 0 3882.15638326 0 -8215.79788333 0 2151
0.04550000 0.04548030 41970.20084132 0 -110.67264766 0 15341.37037572 0 4492.52936122 0 -9955.01652120 0 2274
0.04650000 0.04648670 42189.65431923 0 -380.21034748 0 13047.95973604 0 3460.94300251 0 -11660.37598976 0 2311
0.04750000 0.04749250 43032.25823792 0 -1040.16076704 0 10927.36594212 0 2356.00249189 0 -12207.45955905 0 2568
0.04850000 0.04851840 40925.63771793 0 2733.67949145 0 11353.78331554 0 -2397.47942066 0 -9199.13105048 0 2493
0.04950000 0.04949480 40034.64773977 0 3559.44240410 0 10169.83069500 0 -2416.08092635 0 -10024.14104504 0 2644
0.05050000 0.05050630 38384.31772555 0 1313.78670136 0 14778.01048895 0 -3697.60287319 0 -9477.99862336 0 2829
0.05150000 0.05149060 36448.32173101 0 1618.05418737 0 15875.05643198 0 -1209.12001485 0 -7986.11357730 0 2784
0.05250000 0.05249300 37163.81536079 0 346.39325302 0 18068.37325531 0 1471.31266655 0 -3635.73072210 0 3055
0.05350000 0.05348950 36821.12690766 0 -637.11707132 0 17029.56774082 0 2206.91363820 0 -7303.43831828 0 3009
0.05450000 0.05448610 37412.94266921 0 -292.08682148 0 16626.97801042 0 2176.07721358 0 -5262.18880401 0 3336
0.05550000 0.05550870 37505.17513495 0 293.12208385 0 16910.54024902 0 4206.96303182 0 -3635.36533538 0 3349
0.05650000 0.05647670 36759.12188867 0 539.47688214 0 14921.28637210 0 1429.23783224 0 -839.26118384 0 3324
0.05750000 0.05747970 36425.62346513 0 2069.87147392 0 14547.37396298 0 3640.91257012 0 2302.00276375 0 3639
0.05850000 0.05849280 35084.65420635 0 699.21066890 0 13274.94239482 0 3674.72745011 0 2978.03462787 0 3846
0.05950000 0.05951020 33161.83427834 0 575.04783285 0 12714.46131250 0 1884.26609299 0 4205.36861705 0 3787
0.06050000 0.06049470 33699.83854128 0 1032.83420971 0 12204.13786161 0 1178.31680720 0 5411.88663556 0 3930
0.06150000 0.06148310 32564.70380087 0 -66.02526940 0 11627.15901531 0 2029.50177763 0 2171.60399436 0 4083
0.06250000 0.06249100 32277.26624858 0 -407.20356816 0 10917.88803208 0 95.69898919 0 2406.37049749 0 4303
0.06350000 0.06350600 32571.23647252 0 667.11864265 0 11445.01927204 0 18.62852217 0 -852.55572425 0 4470
0.06450000 0.06451750 32192.23079397 0 1075.46930366 0 11456.53448985 0 -1594.76908828 0 525.62651102 0 4479
0.06550000 0.06550280 30924.67104873 0 1335.03449268 0 11627.15901531 0 -141.45227126 0 1047.58143914 0 4636
0.06650000 0.06648880 30048.62870908 0 69.72276155 0 10871.12960437 0 1711.44924722 0 1611.01218879 0 4653
0.06750000 0.06749660 31049.34542619 0 -716.41816890 0 10797.42113805 0 2327.73484662 0 940.20867644 0 5220
0.06850000 0.06852730 30793.35327639 0 -261.11088557 0 10877.15294907 0 846.71064397 0 1534.91210031 0 5029
0.06950000 0.06949320 31444.18452923 0 534.31053538 0 10530.64454387 0 1249.66686833 0 2903.80576229 0 5040
0.07050000 0.07048030 30167.21330789 0 1283.71426715 0 10061.94196197 0 535.96141901 0 4954.75463310 0 5475
0.07150000 0.07148790 29384.28921996 0 1095.84127409 0 10538.01871220 0 561.38347679 0 4923.32030294 0 5509
0.07250000 0.07249820 28438.15906421 0 1461.65759931 0 11306.39376531 0 576.33000807 0 4159.08629930 0 5916
0.07350000 0.07351270 27409.31864206 0 476.70344381 0 9932.13002580 0 932.64738582 0 4208.64602519 0 5721
0.07450000 0.07449140 27381.74855326 0 -378.36126924 0 9870.70076770 0 918.38512422 0 2822.84492321 0 6028
0.07550000 0.07549160 27389.38845739 0 -69.75321045 0 9033.78802396 0 1279.87217044 0 2124.90092827 0 6183
0.07650000 0.07648840 27293.16995471 0 208.34793611 0 6550.29878411 0 1670.71416421 0 1570.94144527 0 6330
0.07750000 0.07749960 27033.19176797 0 308.74070524 0 6765.71086346 0 56.45114086 0 296.21901311 0 6583
0.07850000 0.07848650 26331.31709772 0 572.37829534 0 6257.38043104 0 -293.80635353 0 940.40244212 0 6549
0.07950000 0.07947320 26266.54399753 0 466.21130881 0 6976.69401288 0 237.52904817 0 -1071.72353617 0 6828
0.08050000 0.08048110 25485.94509782 0 490.49070268 0 6955.45729388 0 -1805.96261187 0 838.04876427 0 7147
0.08150000 0.08149960 25788.77318161 0 985.08591616 0 8624.33345217 0 -153.74255180 0 188.39117786 0 7386
0.08250000 0.08250610 25256.52652757 0 505.33315410 0 9567.91697321 0 -515.46765300 0 2674.59756622 0 7227
0.08350000 0.08350160 23849.89838261 0 1221.52101864 0 9357.91926070 0 553.16006115 0 2776.38544828 0 7798
0.08450000 0.08449610 23596.23142102 0 740.54808638 0 9797.37983275 0 1850.11904325 0 2258.37780396 0 7371
0.08550000 0.08548940 22576.02741223 0 149.70447494 0 8610.47090149 0 2064.63426428 0 3339.65675645 0 8256
0.08650000 0.08650700 22402.41335907 0 125.94769481 0 7703.09388261 0 2249.53101643 0 2523.19459665 0 8037
0.08750000 0.08749060 21957.30590136 0 200.00604659 0 7097.65916152 0 1163.25844545 0 2522.78492063 0 8155
0.08850000 0.08849210 21499.68671661 0 634.25819705 0 6292.76758116 0 634.45417720 0 1947.97624999 0 8718
0.08950000 0.08949900 21113.37330368 0 342.10604885 0 5458.49005072 0 -79.51113959 0 2228.89220297 0 8571
0.09050000 0.09049190 20817.41006128 0 418.57373851 0 5789.72971999 0 -628.69546106 0 2336.61485113 0 8932
0.09150000 0.09150830 20469.51761548 0 250.86234172 0 5778.73490145 0 12.79695013 0 2216.62406707 0 9285
0.09250000 0.09250820 20796.48336737 0 -96.84331396 0 6868.70562892 0 222.22266634 0 1893.79936466 0 9204
0.09350000 0.09350330 20802.90531577 0 750.05589170 0 6799.48145416 0 -827.19677871 0 903.06213391 0 9349
0.09450000 0.09448040 20164.14289698 0 741.47151827 0 7266.79999545 0 -355.44709303 0 3137.50932224 0 9564
0.09550000 0.09549270 19550.73610203 0 723.50334955 0 7799.31238528 0 66.41634392 0 3559.14345133 0 10155
0.09650000 0.09649430 19138.40272578 0 906.45137253 0 8246.01425776 0 938.38506454 0 3984.53109854 0 9913
0.09750000 0.09749140 18328.35144205 0 374.32540684 0 8430.27988740 0 1675.94030152 0 3718.62921802 0 10476
0.09850000 0.09850240 18204.78429707 0 77.35126118 0 7830.62491987 0 802.11464130 0 4212.98637652 0 10575
0.09950000 0.09950330 17694.57156943 0 89.97614739 0 7836.05035903 0 524.27236570 0 4034.44513882 0 10882
0.10050000 0.10051200 18093.39670940 0 113.79692556 0 7460.17814841 0 336.24325286 0 3534.33037141 0 10875
0.10150000 0.10150300 17599.79246898 0 357.30392190 0 6722.56201364 0 269.10399686 0 4492.57365052 0 11118
0.10250000 0.10250800 17426.28913907 0 53.19277711 0 6174.57051372 0 179.93081447 0 3069.69133272 0 11575
0.10350000 0.10349800 17079.83609550 0 299.91716960 0 5914.38195280 0 508.84086660 0 3163.87252763 0 11364
0.10450000 0.10450100 17119.36429510 0 513.30522797 0 5526.15302769 0 128.93611528 0 1226.84680688 0 12093
0.10550000 0.10551000 16226.93491472 0 519.96744581 0 5148.86355949 0 -54.08775312 0 1204.65786794 0 12067
0.10650000 0.10649700 15989.21210086 0 581.50853438 0 5484.76467752 0 -401.25662250 0 1461.56902071 0 12054
0.10750000 0.10749900 15717.71869631 0 23.43180740 0 5622.93621893 0 342.30313623 0 1219.30655368 0 12807
0.10850000 0.10850100 15725.13715394 0 20.28383473 0 5942.20670507 0 1123.05483403 0 1692.82559687 0 12736
0.10950000 0.10950300 15632.46179521 0 130.48070459 0 5657.93583768 0 404.49859920 0 1047.60026209 0 12933
0.11050000 0.11050200 15404.03973420 0 292.27837270 0 5587.51585183 0 781.82682054 0 1291.29880965 0 13428
0.11150000 0.11150900 15065.89093424 0 177.84921740 0 4959.70396229 0 116.59711650 0 950.12283608 0 13453
0.11250000 0.11250000 14934.68388513 0 316.24441977 0 4626.07267085 0 56.72739536 0 595.39655140 0 13668
0.11350000 0.11349100 14654.55406722 0 127.87538656 0 4705.08478076 0 -240.40895986 0 90.05254643 0 13791
0.11450000 0.11448600 14843.44792863 0 61.26228744 0 4235.28603871 0 -215.38550577 0 -748.33193073 0 14205
0.11550000 0.11549300 14494.66969684 0 65.09231531 0 4287.23738675 0 155.80311145 0 -411.68453801 0 14776
0.11650000 0.11649800 14575.82983776 0 120.41706857 0 4057.35377887 0 35.83569000 0 -938.91653613 0 14553
0.11750000 0.11747300 14495.99837582 0 120.33956229 0 4110.98812029 0 526.19009236 0 -254.82512677 0 14568
0.11850000 0.11849100 14334.89604971 0 438.75083603 0 4315.71540619 0 478.41079630 0 378.40334407 0 16015
0.11950000 0.11950300 14008.59463730 0 287.86383680 0 4229.36234493 0 514.71473491 0 1552.78283257 0 15270
0.12050000 0.12050700 13956.55471066 0 237.75049467 0 4784.78337481 0 413.74066873 0 1674.41232070 0 15999
0.12150000 0.12150000 13615.63782949 0 413.74288320 0 4671.49134726 0 -76.16187205 0 2202.27433410 0 15670
0.12250000 0.12250700 13281.58578971 0 437.46866082 0 5222.66060441 0 -45.25602395 0 2117.01743300 0 16887
0.12350000 0.12352200 12876.89231759 0 453.68850944 0 5247.62869687 0 -328.10730858 0 2919.08557054 0 16407
0.12450000 0.12449800 13028.80461410 0 71.43188561 0 5187.92672145 0 614.07777784 0 2753.35501265 0 16306
0.12550000 0.12549900 12935.46491588 0 -318.37916400 0 4952.66196371 0 138.47824481 0 2352.92438559 0 17523
0.12650000 0.12650100 13036.22307173 0 -7.75607496 0 4802.56552846 0 -40.59313580 0 1752.99260994 0 17154
0.12750000 0.12750600 13128.12336772 0 227.73336240 0 4846.34550080 0 -179.41595136 0 1592.29995984 0 18007
0.12850000 0.12850300 12736.16306914 0 242.88473169 0 4749.81697303 0 8.18098649 0 1934.43479674 0 17496
0.12950000 0.12949900 12668.40044125 0 15.99596622 0 4488.65404753 0 148.94491346 0 1479.14080020 0 18405
0.13050000 0.13049000 12576.27869876 0 94.16691161 0 4263.80834744 0 944.43719729 0 1797.71372988 0 18100
0.13150000 0.13148800 12760.41146050 0 -12.70792864 0 4110.01375571 0 836.60493311 0 1774.32897986 0 19059
0.13250000 0.13249300 12554.68766537 0 -86.56033518 0 3202.83603867 0 958.73378309 0 1813.66894994 0 18957
0.13350000 0.13349100 12460.79435090 0 103.33911476 0 3041.04722842 0 497.54598805 0 1893.78829233 0 19468
0.13450000 0.13450700 12427.90954619 0 113.95415257 0 2880.49851855 0 35.26336153 0 1337.78042924 0 19953
0.13550000 0.13551000 12356.71449761 0 332.77982966 0 3648.67426981 0 -454.69166207 0 1617.73308995 0 19956
0.13650000 0.13649900 11993.09935056 0 374.95431489 0 3446.46040165 0 -693.13971320 0 1230.60032499 0 19723
0.13750000 0.13749600 11910.72125391 0 91.41532817 0 3796.27943197 0 -414.27435479 0 1090.89748106 0 20946
0.13850000 0.13851100 11870.08582183 0 137.03994982 0 4228.89730728 0 -306.60485379 0 753.22922000 0 20955
0.13950000 0.13949800 11844.95164449 0 226.85089812 0 4196.73220369 0 170.16059505 0 869.29597214 0 20506
0.14050000 0.14048300 11629.92709651 0 94.41094565 0 4031.44453879 0 570.59675827 0 758.78420536 0 21447
0.14150000 0.14148400 11562.82880811 0 123.75205280 0 3775.19772552 0 638.68934144 0 1013.36352652 0 21771
0.14250000 0.14249400 11518.87167858 0 161.65926405 0 3496.97234747 0 480.09268244 0 471.47398480 0 22470
0.14350000 0.14350900 11133.33332840 0 380.62777413 0 3288.30331394 0 393.16939645 0 1155.25315460 0 22519
0.14450000 0.14449900 11002.95670366 0 268.11966718 0 2964.38245137 0 191.41724423 0 1062.18362111 0 22218
0.14550000 0.14550500 10667.97458859 0 -44.49967345 0 2598.32032054 0 129.96030533 0 1089.78914135 0 23559
0.14650000 0.14650700 10856.95702860 0 -58.44548800 0 2647.43715344 0 326.42874414 0 761.12489482 0 23044
0.14750000 0.14750500 10900.50448211 0 -62.58077987 0 2379.63083305 0 -60.41182217 0 413.11176068 0 23649
0.14850000 0.14849900 10680.78526841 0 163.20385336 0 2325.15499494 0 31.33246477 0 495.01153290 0 23640
0.14950000 0.14949500 10561.20416037 0 146.99618429 0 2254.32533308 0 -145.07181424 0 -234.39779471 0 24457
0.15050000 0.15050000 10476.97698547 0 118.96770125 0 2246.49719943 0 -5.30805037 0 -171.43391240 0 24591
0.15150000 0.15149900 10315.17710290 0 88.30112609 0 2275.79457090 0 36.20860590 0 -498.05420776 0 25020
0.15250000 0.15250500 10153.24435242 0 258.33062481 0 2250.88184006 0 -9.61149764 0 -419.92456214 0 25297
0.15350000 0.15350100 9879.47004896 0 405.06550224 0 2160.90812858 0 -114.96837752 0 -579.95397998 0 25452
0.15450000 0.15450400 9759.97751952 0 278.72695436 0 2321.78900820 0 -119.21904302 0 -233.02814813 0 26061
0.15550000 0.15549900 9503.14387302 0 107.66717581 0 2359.54563583 0 66.03623100 0 -13.55529366 0 26128
0.15650000 0.15649500 9484.60880128 0 141.05034586 0 2419.85658912 0 181.04358311 0 -77.90952780 0 26331
0.15750000 0.15749700 9251.17097713 0 259.10458031 0 2330.51400015 0 39.75141767 0 -269.55242601 0 27345
0.15850000 0.15849900 9184.42700312 0 148.19863877 0 2536.23779528 0 159.64742263 0 14.75077257 0 26980
0.15950000 0.15949700 9142.57361530 0 55.52471944 0 2584.12560012 0 -34.41134613 0 236.96214514 0 27777
0.16050000 0.16050000 9161.24155495 0 33.69806697 0 2563.08818297 0 124.05432727 0 536.27587303 0 28224
0.16150000 0.16150500 9227.22153854 0 -123.52728461 0 2566.93027968 0 119.48477882 0 640.01248426 0 28075
0.16250000 0.16249700 9292.31573615 0 21.64207681 0 2704.73643437 0 139.82574674 0 684.99269660 0 28590
0.16350000 0.16349900 9176.99747316 0 178.50691349 0 2601.29877592 0 103.01668867 0 592.35719824 0 29163
0.16450000 0.16449100 9167.12095943 0 183.29901568 0 2720.84666699 0 -29.93491593 0 595.40430203 0 28996
0.16550000 0.16550500 8917.77220451 0 193.36375894 0 2473.18090544 0 64.99089282 0 364.85524742 0 30777
0.16650000 0.16650700 8759.08364521 0 145.66418362 0 2525.79659298 0 73.96999463 0 305.73567629 0 29211
0.16750000 0.16749900 8699.44810374 0 57.86408023 0 2209.65957476 0 123.49074593 0 22.74443747 0 30922
0.16850000 0.16850800 8539.99555402 0 160.80780227 0 2199.19622780 0 -28.29477246 0 -58.05884242 0 30867
0.16950000 0.16949900 8448.87032077 0 142.62815215 0 2352.37076935 0 1.44177170 0 -91.43714065 0 30852
0.17050000 0.17049200 8272.38853548 0 242.50605818 0 2036.03444928 0 62.68098441 0 -140.03501368 0 31257
0.17150000 0.17149500 8180.32215461 0 86.18863724 0 2220.23364496 0 180.46339329 0 -62.34881467 0 32608
0.17250000 0.17250900 8037.86562350 0 37.49886391 0 2096.52255976 0 88.18209860 0 115.11010328 0 32361
0.17350000 0.17350400 8186.37871629 0 37.47184744 0 1963.95361471 0 225.95403981 0 170.02772715 0 32508
0.17450000 0.17449800 8034.10103306 0 36.74926752 0 2135.14282873 0 -6.97217650 0 192.64959398 0 32791
0.17550000 0.17549800 8097.09148895 0 32.74927946 0 2238.43654696 0 73.02707545 0 180.31834583 0 33633
0.17650000 0.17650100 8180.46609484 0 26.27219088 0 2124.75698805 0 -48.50752286 0 16.67381394 0 33984
0.17750000 0.17750300 7945.25669871 0 149.21175649 0 2071.89770936 0 70.28866807 0 131.35763272 0 34069
0.17850000 0.17849800 8049.92338523 0 22.39322333 0 2097.72944317 0 -9.26003991 0 9.27277308 0 34536
