### header ###
fiducial parameters:
Omega_m = 0.31
Omega_nu = 0
Omega_de = 0.69
Omega_k = 0
H_0 = 100
w_de = -1
zeff = 0
beta = 0
fgrowth = 0
b_1 = 2
gamma = 0.55
Lx = 3500 Ly = 3500 Lz = 3500
nx = 700 ny = 700 nz = 700
xoffset = -685.467585 yoffset = -31.7331281 zoffset = 572.489161
bins = 400 dk = 0.001
kx_ny = 0.628318531 ky_ny = 0.628318531 kz_ny = 0.628318531
############################
A(data) = 8.08403986 (not used)
A(ran) = 8.09340496 (used)
Ngal = 480757
weighted Ngal = 0
Nran = 23820508
weighted Nran = 0
SN(data) = 3474.17131
SN(ran) = 70.4964924
SN(data+ran) = 3544.6678
############################
13 columns: k_central k_mean P_0(k) sigma^{lin}_{P_0(k)} P^img_1(k) sigma^{lin}_{P_1(k)} P_2(k) sigma^{lin}_{P_2(k)} P^img_3(k) sigma^{lin}_{P_3(k)} P_4(k) sigma^{lin}_{P_4(k)} N_modes
### header ###
0.00050000 0 0 0 0 0 0 0 0 0 0 0 0
0.00150000 0.00179520 41446.47987740 0 -21875.37069770 0 43715.30995599 0 -40052.36345948 0 -99096.19989440 0 3
0.00250000 0.00253879 61646.71855329 0 -5184.42786681 0 16212.09799946 0 -8375.77083231 0 22078.99075112 0 6
0.00350000 0.00331552 59234.28042180 0 16555.11862234 0 29230.05173524 0 -17099.43411043 0 -2226.11304944 0 7
0.00450000 0.00420575 46254.85837639 0 21092.44660978 0 17547.75254234 0 14860.94220184 0 30506.69078683 0 24
0.00550000 0.00557378 49308.93773112 0 -11239.95981640 0 27500.77604506 0 39325.46533514 0 -18799.47886308 0 45
0.00650000 0.00659388 65526.35044649 0 -23590.80598186 0 8443.93206390 0 44272.02644787 0 24207.31302776 0 40
0.00750000 0.00754703 75210.64862587 0 -4456.82111368 0 -23880.56872236 0 36074.74149163 0 -31332.57549505 0 57
0.00850000 0.00846663 82216.55143162 0 -24593.07282444 0 -37743.56228830 0 -20562.74659045 0 -15233.19376225 0 75
0.00950000 0.00948925 93598.56917545 0 -3279.86620243 0 -25867.16524132 0 -41861.69205810 0 -23911.01761561 0 112
0.01050000 0.01054430 93514.64095332 0 13828.55863575 0 -28636.35367846 0 -59286.09890195 0 -10987.99799283 0 105
0.01150000 0.01145670 77352.47913879 0 9328.79904643 0 1877.50090252 0 -52653.11199609 0 -35115.65671584 0 144
0.01250000 0.01249090 81076.76631479 0 4740.93696852 0 28142.30654506 0 -46888.63824901 0 -43201.88625415 0 169
0.01350000 0.01339930 81835.10984162 0 4701.12088848 0 55712.06317374 0 -36737.42013203 0 -53247.25294586 0 180
0.01450000 0.01448870 76088.68398399 0 8247.67510649 0 48660.65311299 0 -5096.64647565 0 -41448.25144937 0 267
0.01550000 0.01550050 79752.18409674 0 -8473.61696674 0 54141.01100522 0 11929.54420611 0 -18439.18541348 0 238
0.01650000 0.01653350 86928.60070470 0 -12001.29287093 0 48411.30435807 0 30454.65086018 0 -44126.20393001 0 315
0.01750000 0.01747870 99798.07456466 0 -415.64289413 0 44551.38120304 0 21643.40549275 0 -56755.29761815 0 297
0.01850000 0.01844180 87267.63529064 0 7038.44436839 0 33791.51739078 0 330.95400329 0 -46459.47493904 0 388
0.01950000 0.01947590 78052.69296032 0 18469.63430674 0 32334.62089114 0 2703.44097237 0 -5284.86492524 0 399
0.02050000 0.02045430 74977.35474195 0 8312.66965317 0 35746.77923050 0 -2392.08719847 0 1824.96272126 0 462
0.02150000 0.02154770 65298.81417147 0 -84.89328596 0 36250.23784001 0 -1511.52735029 0 14388.15393209 0 571
0.02250000 0.02255340 76909.58614605 0 -3247.20284421 0 43566.83008017 0 23748.80805702 0 4337.90434512 0 510
0.02350000 0.02348930 70406.25616382 0 -4988.60273007 0 35702.04703824 0 12262.59973665 0 5552.72660725 0 555
0.02450000 0.02439640 76186.89550513 0 3640.62468967 0 33390.14561610 0 13229.32441657 0 2900.28476300 0 592
0.02550000 0.02547300 72847.81450958 0 4356.70515267 0 32275.27323011 0 2755.12658462 0 5206.08533415 0 837
0.02650000 0.02652900 66374.26908111 0 2399.47243912 0 29345.20391335 0 2897.62740504 0 12252.30247457 0 723
0.02750000 0.02749970 66222.35678459 0 3200.48870580 0 32159.01381952 0 605.18005761 0 -279.77882522 0 826
0.02850000 0.02848090 61963.05487336 0 3869.55607762 0 26856.14529412 0 132.42832653 0 7610.62889805 0 831
0.02950000 0.02946900 63213.12034538 0 1932.98432219 0 31243.11111052 0 5879.22732150 0 -952.43695197 0 996
0.03050000 0.03053250 58936.65633068 0 -506.86777832 0 27481.06730689 0 -3693.03000304 0 1265.43385887 0 1041
0.03150000 0.03150510 60984.37208264 0 2193.17288310 0 34645.08291105 0 3580.18086849 0 -6179.14338387 0 1036
0.03250000 0.03246190 56973.64386358 0 4239.31636494 0 30596.59806436 0 -539.64185978 0 -5470.18242573 0 1059
0.03350000 0.03345080 55971.15557450 0 2239.95345546 0 32017.95240133 0 7159.64203586 0 2567.69427009 0 1302
0.03450000 0.03451200 51951.68021883 0 -248.12194133 0 23529.57602561 0 5182.60093321 0 -219.73250049 0 1339
0.03550000 0.03553350 53861.54552680 0 2653.52693209 0 24254.81330123 0 7440.50262721 0 -96.74798125 0 1365
0.03650000 0.03647120 49670.22768995 0 2558.74783164 0 22802.67790126 0 1801.84370704 0 5150.87872261 0 1308
0.03750000 0.03744890 48144.68277644 0 4154.88988820 0 20875.31832008 0 -1538.05664056 0 6601.71866057 0 1579
0.03850000 0.03847530 46255.85488563 0 1220.66844963 0 20714.76961021 0 3588.79513719 0 7339.75554368 0 1662
0.03950000 0.03950240 46361.37414115 0 -1180.05516220 0 22222.48808077 0 2123.28436885 0 2623.77559530 0 1683
0.04050000 0.04050350 45817.83371580 0 -329.36180299 0 20792.16516069 0 547.10460671 0 -3209.83374795 0 1822
0.04150000 0.04152450 47088.16154224 0 2020.31174803 0 20691.62845134 0 -1321.02800179 0 -6471.47490373 0 1887
0.04250000 0.04250150 44268.92619692 0 2864.20005641 0 17730.11373210 0 -1575.86862981 0 -7285.19112698 0 1920
0.04350000 0.04349210 43001.36645168 0 308.64880495 0 15916.02403381 0 1631.03095206 0 -4144.02793755 0 2005
0.04450000 0.04448520 43873.42275440 0 -1791.73467448 0 12978.53625942 0 4748.03432873 0 -8766.16993309 0 2151
0.04550000 0.04548030 43520.21559268 0 -752.63242169 0 12314.97183304 0 4727.65017874 0 -8397.25114246 0 2274
0.04650000 0.04648670 44381.19957058 0 -563.07311356 0 10776.18441905 0 4452.11537563 0 -10127.94409021 0 2311
0.04750000 0.04749250 42148.13310116 0 1320.21972208 0 9411.99649512 0 2316.51858158 0 -6326.56031650 0 2568
0.04850000 0.04851840 40684.70392987 0 3174.63482735 0 11100.66997018 0 -926.45020562 0 -3274.48505257 0 2493
0.04950000 0.04949480 39902.11201169 0 2380.30624486 0 13213.49099208 0 -2541.36428167 0 -2052.74258743 0 2644
0.05050000 0.05050630 37377.28978330 0 2536.10492739 0 15868.41303709 0 -908.20190709 0 2218.77209808 0 2829
0.05150000 0.05149060 36180.81436339 0 1293.67935949 0 16035.27297211 0 -3689.47578677 0 787.80809040 0 2784
0.05250000 0.05249300 37391.01946607 0 -933.39366051 0 17013.51286984 0 1964.58473722 0 2244.84742303 0 3055
0.05350000 0.05348950 36547.19759164 0 -546.33618736 0 16606.82637925 0 3807.63963723 0 -30.42874162 0 3009
0.05450000 0.05448610 37812.98576491 0 -735.40831320 0 14627.98048766 0 1702.07098810 0 -3190.92221716 0 3336
0.05550000 0.05550870 37593.08939401 0 1606.42824631 0 15721.37256350 0 -603.28226114 0 -2491.18450560 0 3349
0.05650000 0.05647670 35829.82166664 0 1488.67407187 0 12554.57694212 0 1318.55887335 0 1157.75550001 0 3324
0.05750000 0.05747970 35171.68267942 0 593.32491943 0 13265.53091872 0 888.30161769 0 2810.44391942 0 3639
0.05850000 0.05849280 34881.80921567 0 23.05191593 0 12390.59581155 0 3348.43711003 0 -181.94154865 0 3846
0.05950000 0.05951020 34951.45413878 0 -9.17321074 0 12177.56428204 0 2086.61282905 0 -1592.78714214 0 3787
0.06050000 0.06049470 34936.06360728 0 175.19850284 0 11712.41591641 0 94.31085183 0 -715.93098661 0 3930
0.06150000 0.06148310 33933.79676470 0 -130.12639020 0 10251.58874146 0 2827.21849152 0 743.39478109 0 4083
0.06250000 0.06249100 34125.68015381 0 501.30393509 0 9156.56903387 0 829.41567261 0 1834.47384828 0 4303
0.06350000 0.06350600 33818.75530983 0 1165.72757388 0 9425.63759929 0 2844.17022082 0 2220.88691212 0 4470
0.06450000 0.06451750 33240.11561481 0 869.11992217 0 10234.17197452 0 804.69117129 0 569.81837384 0 4479
0.06550000 0.06550280 31471.75461802 0 1462.62089157 0 10052.91801724 0 -1568.84877588 0 2464.71057696 0 4636
0.06650000 0.06648880 30569.80303830 0 1955.17326113 0 12029.19512947 0 -2903.46252022 0 3552.94294943 0 4653
0.06750000 0.06749660 30244.38741188 0 731.67693974 0 12238.68351504 0 -327.21045027 0 5107.58593257 0 5220
0.06850000 0.06852730 29903.47053071 0 -418.31907504 0 12913.65243599 0 307.46738789 0 5425.15128069 0 5029
0.06950000 0.06949320 30482.99601172 0 -683.73266604 0 12385.72398863 0 2260.80264310 0 3441.06817946 0 5040
0.07050000 0.07048030 31617.13424289 0 -776.40691754 0 12260.93888793 0 1991.15831679 0 -30.30650315 0 5475
0.07150000 0.07148790 30628.26491334 0 982.31451326 0 11228.44459859 0 -215.12198444 0 168.56728750 0 5509
0.07250000 0.07249820 30251.91659275 0 1687.76554443 0 11347.13992065 0 -721.60998201 0 902.45979944 0 5916
0.07350000 0.07351270 28313.70613325 0 850.46526932 0 12319.06859323 0 -872.46487150 0 2762.56718690 0 5721
0.07450000 0.07449140 28516.55112393 0 950.87575417 0 12286.18378851 0 1746.16098552 0 2308.91189443 0 6028
0.07550000 0.07549160 27410.64732104 0 96.32402193 0 11241.50994188 0 2138.78562359 0 1488.54120397 0 6183
0.07650000 0.07648840 26975.83712541 0 576.53041714 0 11967.41155699 0 793.07076639 0 2335.27509983 0 6330
0.07750000 0.07749960 26870.87148613 0 836.54624979 0 11486.76193661 0 536.88042197 0 2775.79861506 0 6583
0.07850000 0.07848650 26041.00074097 0 798.95902873 0 11198.21715183 0 -221.18740397 0 2608.35184683 0 6549
0.07950000 0.07947320 25106.38580303 0 769.40477932 0 11929.98709910 0 -367.89017166 0 3594.96242212 0 6828
0.08050000 0.08048110 24425.43782669 0 715.97306145 0 11160.12835446 0 616.29445727 0 3511.32208044 0 7147
0.08150000 0.08149960 24319.91857116 0 759.17062949 0 12001.07142443 0 -281.78955940 0 3137.77505803 0 7386
0.08250000 0.08250610 23620.92270536 0 669.89890341 0 11446.68012076 0 1648.39235738 0 3519.55989010 0 7227
0.08350000 0.08350160 23399.14403925 0 31.49423144 0 11386.88956674 0 570.11068321 0 3832.37521088 0 7798
0.08450000 0.08449610 23370.46671796 0 127.05935622 0 11325.21671750 0 471.59024421 0 1857.62607947 0 7371
0.08550000 0.08548940 23182.90153554 0 571.47922256 0 12119.54529999 0 687.04661286 0 3128.00926754 0 8256
0.08650000 0.08650700 22129.14838255 0 893.48014401 0 11880.27236066 0 -508.12891611 0 2020.32282036 0 8037
0.08750000 0.08749060 21981.77573921 0 721.23684466 0 12227.27902048 0 -136.00358021 0 3786.33648428 0 8155
0.08850000 0.08849210 21302.48861159 0 643.42497477 0 11073.54277438 0 994.72105322 0 2755.18194625 0 8718
0.08950000 0.08949900 20944.18818046 0 110.32054773 0 10760.37313921 0 346.41871937 0 1746.73674642 0 8571
0.09050000 0.09049190 20539.16253859 0 518.00985878 0 9889.80052801 0 1225.18595816 0 307.83388184 0 8932
0.09150000 0.09150830 19881.35572111 0 353.58915692 0 8884.55523005 0 1258.71295771 0 148.49648431 0 9285
0.09250000 0.09250820 19691.02245748 0 8.29720162 0 8011.43598416 0 2140.61255719 0 1161.42043953 0 9204
0.09350000 0.09350330 19669.98504033 0 -202.39988322 0 6919.01827290 0 998.32841665 0 -228.47188647 0 9349
0.09450000 0.09448040 19629.12816174 0 116.37788447 0 7168.56632966 0 1052.64592051 0 994.93142739 0 9564
0.09550000 0.09549270 19272.04568634 0 402.09701195 0 6580.88054526 0 289.24787740 0 1474.08074776 0 10155
0.09650000 0.09649430 18931.35025167 0 632.22753268 0 7572.78369182 0 -302.75168475 0 2144.42143693 0 9913
0.09750000 0.09749140 18510.82335506 0 528.29604854 0 7075.50343956 0 -60.41027204 0 2040.49659618 0 10476
0.09850000 0.09850240 18475.05974590 0 413.36088799 0 8055.13845021 0 -608.46632362 0 1569.73456186 0 10575
0.09950000 0.09950330 17618.94759092 0 753.48277623 0 7554.00502892 0 -173.09586835 0 1189.94274826 0 10882
0.10050000 0.10051200 17215.80424427 0 516.22500002 0 7607.80545522 0 174.55409353 0 275.63113234 0 10875
0.10150000 0.10150300 16788.63395277 0 268.76296925 0 7341.83714075 0 241.74981839 0 -320.53162394 0 11118
0.10250000 0.10250800 16602.17600282 0 236.37641916 0 7322.06196862 0 -77.37074847 0 -961.71666740 0 11575
0.10350000 0.10349800 16178.99174825 0 139.06507802 0 6536.18156997 0 334.77949152 0 -1815.38516029 0 11364
0.10450000 0.10450100 16361.13149152 0 -97.63531736 0 6967.45969398 0 -55.48851294 0 -1713.04366199 0 12093
0.10550000 0.10551000 16328.02524031 0 108.01772562 0 6933.83304351 0 -445.52820605 0 -2714.03718722 0 12067
0.10650000 0.10649700 16188.51394760 0 412.27912185 0 7869.53306928 0 -723.72701052 0 -1719.14451297 0 12054
0.10750000 0.10749900 15837.29980435 0 619.03485766 0 7338.59294958 0 447.41493020 0 -1324.13932506 0 12807
0.10850000 0.10850100 15548.75501958 0 38.14316249 0 7336.03524254 0 1243.46636643 0 -34.77485056 0 12736
0.10950000 0.10950300 15686.93763331 0 -183.46620778 0 6702.69826292 0 1481.74279653 0 -221.87610258 0 12933
0.11050000 0.11050200 15496.16147669 0 -121.36596680 0 6034.92635310 0 1860.13949721 0 -354.09626940 0 13428
0.11150000 0.11150900 15526.27820019 0 290.81128966 0 5509.72169766 0 878.40738823 0 196.55148125 0 13453
0.11250000 0.11250000 15301.17783663 0 64.97793820 0 4924.29466752 0 223.30443248 0 752.07105482 0 13668
0.11350000 0.11349100 15057.14379763 0 39.51845596 0 5284.00128390 0 197.82369137 0 659.63042937 0 13791
0.11450000 0.11448600 15232.19725301 0 151.41072020 0 5029.50389795 0 54.10978705 0 156.52281257 0 14205
0.11550000 0.11549300 14931.36218769 0 420.24787403 0 5208.08942495 0 -127.95289284 0 -297.77910367 0 14776
0.11650000 0.11649800 14527.11160856 0 738.04795544 0 5467.94581612 0 -383.95943667 0 612.49332816 0 14553
0.11750000 0.11747300 14201.36381240 0 250.50249116 0 5338.51033899 0 -283.80029359 0 516.22721448 0 14568
0.11850000 0.11849100 14072.70339800 0 -77.08729696 0 5638.70320947 0 470.25713630 0 353.80396002 0 16015
0.11950000 0.11950300 14256.17182025 0 27.50199400 0 5600.28224235 0 467.52337930 0 453.28436959 0 15270
0.12050000 0.12050700 14237.79176105 0 -42.69565956 0 5325.13497060 0 595.52831207 0 -202.43752912 0 15999
0.12150000 0.12150000 14199.92441017 0 149.11542726 0 4994.42677292 0 -83.67643746 0 546.77243696 0 15670
0.12250000 0.12250700 14157.84957586 0 184.96318610 0 5170.83105193 0 -92.78574981 0 -157.22479796 0 16887
0.12350000 0.12352200 13821.02945488 0 222.32121003 0 4955.36361096 0 122.98474069 0 -172.34959366 0 16407
0.12450000 0.12449800 13866.09381689 0 187.61500789 0 4730.06394555 0 -85.08240126 0 -494.14678433 0 16306
0.12550000 0.12549900 13405.48510443 0 203.35431762 0 5010.99097085 0 567.77995884 0 -21.35120684 0 17523
0.12650000 0.12650100 13345.69455041 0 184.48153997 0 4707.40996897 0 1033.77757179 0 -318.10678481 0 17154
0.12750000 0.12750600 12953.18063559 0 309.49805226 0 3945.78903400 0 652.55078488 0 121.77675005 0 18007
0.12850000 0.12850300 12850.31873802 0 340.87591356 0 3929.83381393 0 360.41967410 0 -46.77902223 0 17496
0.12950000 0.12949900 12497.11157631 0 250.10167300 0 3851.54140514 0 161.32377261 0 776.06256824 0 18405
0.13050000 0.13049000 12295.26309487 0 179.36058974 0 3833.46029871 0 -123.22943907 0 706.65237841 0 18100
0.13150000 0.13148800 12358.15389984 0 35.48691177 0 3998.80332523 0 -310.47573854 0 812.94337497 0 19059
0.13250000 0.13249300 12422.59483028 0 86.38716402 0 3942.47840888 0 -228.28476418 0 1100.27020402 0 18957
0.13350000 0.13349100 12388.82423958 0 -124.78620794 0 4105.85056158 0 -279.38575768 0 594.16752335 0 19468
0.13450000 0.13450700 12465.99834357 0 136.20288206 0 4327.20847935 0 75.42744475 0 411.79858296 0 19953
0.13550000 0.13551000 12372.88009184 0 226.20095265 0 4603.15295848 0 26.75073676 0 265.29068819 0 19956
0.13650000 0.13649900 12207.12738931 0 -24.75738612 0 4048.63985924 0 499.03078681 0 250.00423655 0 19723
0.13750000 0.13749600 12191.73685781 0 -26.69891828 0 4290.95768789 0 704.44677131 0 487.30187313 0 20946
0.13850000 0.13851100 12207.45955905 0 -48.41418316 0 3857.93013656 0 340.59799821 0 332.73886206 0 20955
0.13950000 0.13949800 12144.01513784 0 172.99621743 0 3909.61574881 0 701.30887446 0 555.67015719 0 20506
0.14050000 0.14048300 12041.59613327 0 300.01903498 0 3746.46504261 0 -125.75282190 0 997.10603199 0 21447
0.14150000 0.14148400 11668.79095663 0 357.03597164 0 3825.98647946 0 -179.23436523 0 782.07594785 0 21771
0.14250000 0.14249400 11416.12050427 0 560.22863331 0 3864.36315728 0 -181.64370311 0 1177.65246771 0 22470
0.14350000 0.14350900 11151.60266435 0 355.64418041 0 4206.71944067 0 -398.37117465 0 900.35716495 0 22519
0.14450000 0.14449900 10861.56311572 0 99.37544393 0 4150.47203059 0 -66.26996778 0 1270.28353714 0 22218
0.14550000 0.14550500 10887.76023624 0 99.31853218 0 4307.52188582 0 331.30942492 0 671.58854018 0 23559
0.14650000 0.14650700 10808.19451010 0 152.29429172 0 4310.40069027 0 215.71546105 0 1295.51736541 0 23044
0.14750000 0.14750500 10752.54500556 0 72.18890046 0 4324.35181955 0 295.93334713 0 1035.86138332 0 23649
0.14850000 0.14849900 10598.30752084 0 47.10011965 0 4330.14264543 0 141.93281015 0 1348.27699317 0 23640
0.14950000 0.14949500 10643.79263119 0 44.58648047 0 4142.51102905 0 92.66273628 0 801.50898513 0 24457
0.15050000 0.15050000 10380.90242302 0 226.84979088 0 4147.85896194 0 -134.96721061 0 939.63291555 0 24591
0.15150000 0.15149900 10363.28635423 0 106.73876138 0 3735.35950082 0 305.15437923 0 148.45773117 0 25020
0.15250000 0.15250500 10173.72815334 0 55.01705334 0 3645.68474211 0 125.50369459 0 369.03837174 0 25297
0.15350000 0.15350100 10049.59631980 0 259.66041102 0 3215.05988527 0 251.64847678 0 17.06953883 0 25452
0.15450000 0.15450400 9749.08235189 0 221.07668072 0 2998.46306716 0 263.96643814 0 54.55566957 0 26061
0.15550000 0.15549900 9676.54755201 0 223.37308089 0 3079.60106343 0 165.09168474 0 -59.76708069 0 26128
0.15650000 0.15649500 9468.91931701 0 195.32909659 0 2945.85845195 0 273.17750516 0 31.18077392 0 26331
0.15750000 0.15749700 9430.18832479 0 -21.45960490 0 2962.96519379 0 301.07865647 0 710.22541763 0 27345
0.15850000 0.15849900 9443.33117435 0 -147.09251352 0 2841.33570566 0 405.14965190 0 693.85387816 0 26980
0.15950000 0.15949700 9636.98613543 0 -53.94392362 0 2645.33341172 0 248.05329291 0 676.44375461 0 27777
0.16050000 0.16050000 9624.19760027 0 163.17174362 0 2883.58769717 0 70.54764975 0 460.46809393 0 28224
0.16150000 0.16150500 9487.52082270 0 301.81385884 0 2972.76420126 0 -318.32601684 0 426.12174234 0 28075
0.16250000 0.16249700 9136.62777688 0 315.55018501 0 3005.10646205 0 -366.72314862 0 701.64215143 0 28590
0.16350000 0.16349900 8946.51595974 0 129.90162200 0 2970.22863888 0 -0.38305704 0 251.14911493 0 29163
0.16450000 0.16449100 8987.56106784 0 -44.97877294 0 2855.25361796 0 257.02851941 0 196.28242376 0 28996
0.16550000 0.16550500 8921.82467539 0 115.38358970 0 2751.98204438 0 348.21132876 0 -230.57562819 0 30777
0.16650000 0.16650700 8802.70860500 0 258.02059971 0 2576.46355135 0 -8.85618793 0 105.07237649 0 29211
0.16750000 0.16749900 8626.42612156 0 232.07703543 0 2475.31786413 0 88.88275531 0 22.68918657 0 30922
0.16850000 0.16850800 8505.31703269 0 79.17830550 0 2593.12740020 0 67.92671974 0 389.75247701 0 30867
0.16950000 0.16949900 8477.80230552 0 -93.97037784 0 2419.35833450 0 240.14100960 0 19.49393508 0 30852
0.17050000 0.17049200 8549.88314009 0 58.43906605 0 2366.04509050 0 145.57006886 0 -91.20772208 0 31257
0.17150000 0.17149500 8446.15760119 0 99.62556774 0 2421.93818618 0 -297.61744773 0 -263.25891659 0 32608
0.17250000 0.17250900 8342.31026671 0 133.40269111 0 2514.33673679 0 13.84062747 0 -46.49933531 0 32361
0.17350000 0.17350400 8313.98725983 0 99.99029012 0 2441.07116347 0 -17.30526863 0 40.56479065 0 32508
0.17450000 0.17449800 8188.16136059 0 -63.77880542 0 2369.20070307 0 282.19369926 0 -168.39677370 0 32791
0.17550000 0.17549800 8303.75643169 0 37.88550949 0 2355.07241660 0 135.68248279 0 -71.86680653 0 33633
0.17650000 0.17650100 8284.42415256 0 180.33606155 0 2303.69682944 0 123.59150409 0 -138.16932695 0 33984
0.17750000 0.17750300 8160.00443857 0 179.06717313 0 2142.26233359 0 -13.49040984 0 47.72836336 0 34069
