### header ###
fiducial parameters:
Omega_m = 0.31
Omega_nu = 0
Omega_de = 0.69
Omega_k = 0
H_0 = 100
w_de = -1
zeff = 0
beta = 0
fgrowth = 0
b_1 = 2
gamma = 0.55
Lx = 3500 Ly = 3500 Lz = 3500
nx = 700 ny = 700 nz = 700
xoffset = -685.467585 yoffset = -31.7331281 zoffset = 572.489161
bins = 400 dk = 0.001
kx_ny = 0.628318531 ky_ny = 0.628318531 kz_ny = 0.628318531
############################
A(data) = 8.04270307 (not used)
A(ran) = 8.03920435 (used)
Ngal = 478039
weighted Ngal = 0
Nran = 23820508
weighted Nran = 0
SN(data) = 3489.59424
SN(ran) = 70.0243855
SN(data+ran) = 3559.61862
############################
13 columns: k_central k_mean P_0(k) sigma^{lin}_{P_0(k)} P^img_1(k) sigma^{lin}_{P_1(k)} P_2(k) sigma^{lin}_{P_2(k)} P^img_3(k) sigma^{lin}_{P_3(k)} P_4(k) sigma^{lin}_{P_4(k)} N_modes
### header ###
0.00050000 0 0 0 0 0 0 0 0 0 0 0 0
0.00150000 0.00179520 9604.09025839 0 -11029.12060720 0 38461.82399928 0 -4659.31178996 0 923.95118191 0 3
0.00250000 0.00253879 31838.69146251 0 -30150.49409741 0 -976.37531823 0 11105.98468610 0 -5113.24389055 0 6
0.00350000 0.00331552 42801.06809571 0 -32472.36061188 0 6323.37148695 0 -29478.29325767 0 21070.30196014 0 7
0.00450000 0.00420575 66903.63693068 0 -27010.60422534 0 -8633.50133712 0 -35994.02424370 0 -1020.12318082 0 24
0.00550000 0.00557378 93708.29591440 0 -16007.25999032 0 6902.17726685 0 -30613.53872133 0 30212.38839315 0 45
0.00650000 0.00659388 85112.07509495 0 11965.97215476 0 26550.99202212 0 -40013.61032262 0 31779.01163174 0 40
0.00750000 0.00754703 105714.23916176 0 3482.05792594 0 -3612.64492485 0 9246.63132395 0 -1252.91105950 0 57
0.00850000 0.00846663 90396.67428439 0 6245.34481396 0 21766.08685174 0 -3501.72237482 0 3535.60368877 0 75
0.00950000 0.00948925 95244.13809000 0 6866.39151304 0 17881.36168912 0 -4624.06858006 0 -6777.25929825 0 112
0.01050000 0.01054430 89108.74146149 0 -6435.77772851 0 25597.00051575 0 20154.28852789 0 -33062.84769446 0 105
0.01150000 0.01145670 89832.65005813 0 5183.86317824 0 27546.72619306 0 -1459.02238600 0 -51351.56021366 0 144
0.01250000 0.01249090 79412.70661780 0 13051.39215673 0 13493.51008674 0 -4513.79929719 0 -16167.03363745 0 169
0.01350000 0.01339930 73803.79903442 0 6717.05906821 0 15762.34016533 0 -6121.30155901 0 -12508.51607087 0 180
0.01450000 0.01448870 75045.78170932 0 -1528.67838144 0 13171.41615777 0 -6588.03326709 0 -19235.61773769 0 267
0.01550000 0.01550050 77269.21525616 0 443.22848419 0 15160.67003468 0 -7210.82939349 0 -22034.70145184 0 238
0.01650000 0.01653350 76282.33894507 0 5057.94870041 0 5768.03903568 0 829.32266508 0 -39860.81224012 0 315
0.01750000 0.01747870 77135.90446534 0 -5285.60677100 0 402.24870280 0 -764.51413345 0 -23515.84634283 0 297
0.01850000 0.01844180 70899.41751124 0 5707.88309494 0 10392.35120688 0 -6456.52726522 0 -32764.89143359 0 388
0.01950000 0.01947590 71436.31454169 0 4905.20597953 0 10796.54642439 0 -9488.24052382 0 -20760.83048146 0 399
0.02050000 0.02045430 65027.98510641 0 5954.43055167 0 18189.83665857 0 1159.12846829 0 -12244.99474019 0 462
0.02150000 0.02154770 65156.20262781 0 1095.05956796 0 19892.76021568 0 3565.73148460 0 -14021.43853409 0 571
0.02250000 0.02255340 64829.12615266 0 -822.06475616 0 24905.97672381 0 4924.18394427 0 -13328.42172369 0 510
0.02350000 0.02348930 64541.24570738 0 955.53055952 0 24606.24889097 0 2668.93960824 0 -2618.01798639 0 555
0.02450000 0.02439640 65528.01129522 0 1902.70151381 0 30954.45560250 0 5222.18449444 0 11833.65787318 0 592
0.02550000 0.02547300 65847.66931273 0 -1975.09237347 0 23054.57329089 0 6972.59725270 0 891.75175410 0 837
0.02650000 0.02652900 67279.54235828 0 245.61959592 0 32224.22981270 0 8061.38324141 0 7426.80616141 0 723
0.02750000 0.02749970 64407.38130032 0 4505.51719823 0 26967.75432829 0 1533.83808480 0 10795.47240888 0 826
0.02850000 0.02848090 63812.57601106 0 826.54240432 0 29370.22736744 0 4541.94514688 0 11644.21039553 0 831
0.02950000 0.02946900 60445.59275696 0 -783.76890631 0 24871.87396337 0 7120.98854992 0 10113.64971887 0 996
0.03050000 0.03053250 64472.81874000 0 1587.87102992 0 32535.02997036 0 2099.50101514 0 2559.32359253 0 1041
0.03150000 0.03150510 62577.56890079 0 749.15792616 0 33337.44134997 0 -3225.73360639 0 5411.62089976 0 1036
0.03250000 0.03246190 60196.02255555 0 6911.63303224 0 27797.29290371 0 1506.15727276 0 3721.58552874 0 1059
0.03350000 0.03345080 56101.58756086 0 5379.23434967 0 35432.76809865 0 -2455.19944994 0 3631.77790214 0 1302
0.03450000 0.03451200 52975.20592507 0 4096.23978363 0 32880.48650470 0 -448.27857154 0 4561.70924668 0 1339
0.03550000 0.03553350 51426.51985268 0 2002.80640250 0 35533.08336150 0 4242.62699006 0 3959.02046216 0 1365
0.03650000 0.03647120 49718.94591915 0 -1147.65753978 0 37447.59904590 0 3701.11280015 0 8131.49320216 0 1308
0.03750000 0.03744890 50860.17043821 0 266.34588075 0 33597.53025996 0 11113.07097398 0 7074.56229195 0 1579
0.03850000 0.03847530 49855.79985391 0 -414.42826010 0 28008.10996825 0 9506.34377490 0 11226.23013363 0 1662
0.03950000 0.03950240 49600.58276684 0 2302.39029511 0 21589.15110114 0 7239.89424614 0 7810.13004663 0 1683
0.04050000 0.04050350 49084.05881405 0 -1434.09858284 0 20150.85610720 0 4811.72234109 0 8066.08897946 0 1822
0.04150000 0.04152450 48337.67339803 0 -47.19611671 0 17947.90636128 0 2993.01548335 0 5395.30029298 0 1887
0.04250000 0.04250150 47557.18522156 0 1491.64145492 0 14320.61275069 0 10.69258837 0 4032.34139710 0 1920
0.04350000 0.04349210 46675.82816600 0 479.82141048 0 14316.07309752 0 3212.02606827 0 -1300.71028575 0 2005
0.04450000 0.04448520 45124.15256591 0 1440.49838658 0 12839.91075270 0 -2567.46175127 0 184.22023310 0 2151
0.04550000 0.04548030 43531.73081049 0 3291.87967486 0 12153.20516744 0 869.64807207 0 -6333.11513279 0 2274
0.04650000 0.04648670 41914.72849398 0 273.97249808 0 15178.49647764 0 -28.51245436 0 -793.61552477 0 2311
0.04750000 0.04749250 41273.97305672 0 367.07857025 0 13835.86637013 0 568.30810873 0 -3489.76426402 0 2568
0.04850000 0.04851840 41650.76427030 0 781.25770304 0 13678.08574147 0 -24.70822500 0 -2786.41697456 0 2493
0.04950000 0.04949480 41810.42719419 0 457.53724955 0 16485.25225274 0 -3619.02258395 0 -5336.94914119 0 2644
0.05050000 0.05050630 41848.62671481 0 818.04550225 0 16183.08850844 0 656.68740544 0 -1376.97645910 0 2829
0.05150000 0.05149060 41275.08028921 0 2229.10257714 0 18249.40576609 0 -1857.86967062 0 -2202.92760127 0 2784
0.05250000 0.05249300 39833.24215132 0 1464.97929676 0 17301.94693136 0 1931.53384764 0 -3705.30921126 0 3055
0.05350000 0.05348950 38384.98206504 0 160.42027090 0 17259.76137380 0 2543.60089129 0 151.08740831 0 3009
0.05450000 0.05448610 37522.44796167 0 708.84137703 0 15387.76341671 0 3582.08530835 0 -3065.90459763 0 3336
0.05550000 0.05550870 37783.09048790 0 321.80272683 0 14528.77245728 0 3831.57800349 0 -2601.61987334 0 3349
0.05650000 0.05647670 34977.80627185 0 1503.16774505 0 11724.48475046 0 3317.15779242 0 -661.81942799 0 3324
0.05750000 0.05747970 35214.64329972 0 1452.13539997 0 12193.72987628 0 3295.59997600 0 1157.61155979 0 3639
0.05850000 0.05849280 33416.82991892 0 707.33000469 0 9839.67611356 0 1489.20554346 0 4276.86261840 0 3846
0.05950000 0.05951020 33231.81137120 0 543.55371214 0 9258.48978383 0 2106.73124324 0 2359.24668306 0 3787
0.06050000 0.06049470 32662.47242902 0 31.55236114 0 7205.03856761 0 635.63116533 0 4693.73564782 0 3930
0.06150000 0.06148310 32681.62755096 0 767.21135178 0 9162.02769001 0 956.18936285 0 4716.96538529 0 4083
0.06250000 0.06249100 32158.57092652 0 328.44058556 0 9591.27957858 0 1159.08417899 0 4097.36916076 0 4303
0.06350000 0.06350600 31501.09627879 0 754.78155993 0 9667.70076448 0 -815.72585020 0 1389.96429611 0 4470
0.06450000 0.06451750 31342.65131064 0 707.34439871 0 9956.16804298 0 -909.69334924 0 4389.97748875 0 4479
0.06550000 0.06550280 31542.06388062 0 -89.45951271 0 10805.81396026 0 -20.92292932 0 3846.65850990 0 4636
0.06650000 0.06648880 31008.70999411 0 -481.58633906 0 11070.69718690 0 770.33153291 0 4516.21306400 0 4653
0.06750000 0.06749660 31661.42354217 0 537.91679157 0 11354.00476203 0 1677.46828235 0 4098.49853790 0 5220
0.06850000 0.06852730 30812.50839832 0 693.11756855 0 10067.94316202 0 636.57009847 0 4168.76351119 0 5029
0.06950000 0.06949320 29889.63012469 0 1204.01567310 0 10768.19020053 0 897.82824596 0 3249.57232173 0 5040
0.07050000 0.07048030 29473.53215800 0 1530.57174898 0 9836.33227147 0 1183.22184710 0 2692.59009405 0 5475
0.07150000 0.07148790 27888.30741372 0 539.63743085 0 9247.96000293 0 -772.33340924 0 4015.20143828 0 5509
0.07250000 0.07249820 27765.29388498 0 101.88133248 0 9277.46774857 0 467.88876602 0 1616.41548330 0 5916
0.07350000 0.07351270 27917.87052098 0 -555.69451630 0 8912.24711443 0 593.08022105 0 878.73512905 0 5721
0.07450000 0.07449140 27796.73928747 0 932.77250309 0 8828.73964064 0 -511.35760603 0 -862.48317068 0 6028
0.07550000 0.07549160 26902.20616537 0 720.99103905 0 8983.23178884 0 -902.97576977 0 -4.73311991 0 6183
0.07650000 0.07648840 26221.25818902 0 1112.77971660 0 9962.64535300 0 403.28728687 0 1587.94853619 0 6330
0.07750000 0.07749960 25818.33628887 0 473.97190128 0 9601.24467092 0 286.33474874 0 2672.19487173 0 6583
0.07850000 0.07848650 25722.33923269 0 168.75108810 0 10649.76061427 0 1538.47738890 0 2078.17571754 0 6549
0.07950000 0.07947320 25318.64226981 0 232.68601330 0 9302.84551705 0 1319.53323794 0 3294.18271842 0 6828
0.08050000 0.08048110 25115.79727913 0 383.31170566 0 9982.23229560 0 1436.45698802 0 3586.81319105 0 7147
0.08150000 0.08149960 24469.28423297 0 308.70416657 0 8672.21018468 0 63.93049627 0 3182.71762447 0 7386
0.08250000 0.08250610 24541.36506754 0 564.41729379 0 8951.98568820 0 1388.11521786 0 2124.67948177 0 7227
0.08350000 0.08350160 23724.67038891 0 420.87788931 0 8087.85717005 0 -134.22315038 0 3252.67257267 0 7798
0.08450000 0.08449610 23413.09516852 0 500.26645826 0 8543.76014446 0 1005.11907346 0 3108.27838471 0 7371
0.08550000 0.08548940 22928.68095770 0 601.19402068 0 8019.48556430 0 152.18799740 0 4267.67258880 0 8256
0.08650000 0.08650700 22560.08326449 0 490.83505198 0 8321.70467022 0 754.20026288 0 2344.83051614 0 8037
0.08750000 0.08749060 22361.88865023 0 353.77960091 0 8285.13278135 0 135.19308604 0 4083.73912891 0 8155
0.08850000 0.08849210 21622.58952209 0 465.01217604 0 7834.47808890 0 706.13972977 0 2370.81726249 0 8718
0.08950000 0.08949900 21046.60718503 0 291.28518517 0 6976.29540919 0 986.80655544 0 3947.63811224 0 8571
0.09050000 0.09049190 21613.06732275 0 -165.10829323 0 6798.21920913 0 557.57459705 0 1687.26728981 0 8932
0.09150000 0.09150830 20635.04887152 0 495.05582220 0 5629.13672083 0 396.27961249 0 1585.84479448 0 9285
0.09250000 0.09250820 20525.87574881 0 791.64243649 0 5390.52812098 0 79.62230573 0 221.36234670 0 9204
0.09350000 0.09350330 19502.23931932 0 125.71296153 0 4432.36234815 0 134.89966943 0 -28.92024809 0 9349
0.09450000 0.09448040 19151.68951556 0 579.61627407 0 5032.39377472 0 254.92034876 0 -821.45909999 0 9564
0.09550000 0.09549270 19141.72442323 0 643.58663071 0 4612.15475856 0 118.39969098 0 -874.29955572 0 10155
0.09650000 0.09649430 18358.57888880 0 706.97790476 0 5201.83356142 0 -462.44671838 0 169.17626537 0 9913
0.09750000 0.09749140 17933.84450876 0 356.05164196 0 5157.53318982 0 -535.74550868 0 -10.33605951 0 10476
0.09850000 0.09850240 18021.64804457 0 88.51847583 0 6090.00009675 0 369.94076621 0 477.35006758 0 10575
0.09950000 0.09950330 17604.55356865 0 427.91103003 0 6071.46502501 0 -465.81934852 0 -95.77239871 0 10882
0.10050000 0.10051200 17584.84483048 0 412.69544127 0 5822.45951216 0 783.15882121 0 26.75494425 0 10875
0.10150000 0.10150300 17183.36233255 0 166.87543627 0 5189.82008900 0 929.54381317 0 791.50735413 0 11118
0.10250000 0.10250800 16944.08939322 0 151.14387717 0 4965.08511215 0 1141.20237441 0 699.28485348 0 11575
0.10350000 0.10349800 16992.25400618 0 7.08103960 0 4459.62241186 0 1502.84664763 0 660.22279875 0 11364
0.10450000 0.10450100 16701.27330995 0 245.18223909 0 3991.55095247 0 207.89175633 0 314.18386012 0 12093
0.10550000 0.10551000 16531.97746347 0 269.28779745 0 4177.51064780 0 -298.04483947 0 1048.56355435 0 12067
0.10650000 0.10649700 16193.49649377 0 285.45449892 0 4072.26820040 0 -851.58468136 0 694.88914053 0 12054
0.10750000 0.10749900 16170.35533490 0 366.78404641 0 4981.10676616 0 -546.57424235 0 586.10797811 0 12807
0.10850000 0.10850100 15842.28235052 0 243.26008350 0 5148.66425764 0 -630.57222012 0 65.66818693 0 12736
0.10950000 0.10950300 15614.63535225 0 113.92204283 0 4863.66261681 0 67.21355130 0 191.42056593 0 12933
0.11050000 0.11050200 15550.41586830 0 -120.37610096 0 5039.93402793 0 796.47661350 0 -958.67842147 0 13428
0.11150000 0.11150900 15930.08588633 0 -205.73265299 0 4356.22904270 0 868.52533833 0 -957.22130352 0 13453
0.11250000 0.11250000 15838.07486709 0 138.20475839 0 4068.72505646 0 318.32823130 0 -957.97422161 0 13668
0.11350000 0.11349100 15817.48034293 0 373.06537628 0 3481.52645435 0 -129.96916319 0 -405.38549242 0 13791
0.11450000 0.11448600 15673.31867379 0 236.06860853 0 3953.89397576 0 -393.75512243 0 -161.45996220 0 14205
0.11550000 0.11549300 15138.52538505 0 481.98715722 0 4202.92163326 0 -52.06295708 0 -256.34757143 0 14776
0.11650000 0.11649800 14902.46341991 0 593.24187699 0 4994.09460318 0 -7.43703699 0 692.02362286 0 14553
0.11750000 0.11747300 14430.33948965 0 469.42671194 0 4600.93849352 0 753.18493070 0 775.36944070 0 14568
0.11850000 0.11849100 13899.31079134 0 191.18693988 0 4624.60005165 0 683.01517939 0 568.50741058 0 16015
0.11950000 0.11950300 14096.17672662 0 -63.22773581 0 4492.38542099 0 637.65518631 0 563.16279939 0 15270
0.12050000 0.12050700 13988.55372938 0 20.09737678 0 4518.54932454 0 126.74490220 0 669.66638459 0 15999
0.12150000 0.12150000 13822.69030360 0 169.75313349 0 4097.00377405 0 -5.78670698 0 171.76497491 0 15670
0.12250000 0.12250700 13814.60750648 0 177.21920212 0 3959.15333005 0 -413.87132216 0 159.24992617 0 16887
0.12350000 0.12352200 13519.75149656 0 297.91307880 0 4264.26231276 0 -280.82294545 0 -276.80479877 0 16407
0.12450000 0.12449800 13540.89963696 0 136.63027380 0 4270.03099399 0 -241.22831189 0 -59.21180360 0 16306
0.12550000 0.12549900 13229.43513981 0 300.61029713 0 4451.47318079 0 60.34073784 0 301.24031241 0 17523
0.12650000 0.12650100 13313.58480844 0 201.77208240 0 4154.39163358 0 218.50347244 0 377.20753299 0 17154
0.12750000 0.12750600 13170.53037178 0 6.02892515 0 4707.66463244 0 461.39927645 0 676.80692686 0 18007
0.12850000 0.12850300 13112.62211298 0 153.24761888 0 4495.21993615 0 8.33748273 0 330.63844204 0 17496
0.12950000 0.12949900 12866.59505551 0 382.72930138 0 4604.19375701 0 140.02394135 0 452.99206021 0 18405
0.13050000 0.13049000 12771.37306207 0 142.38234654 0 4894.17794401 0 -111.35326347 0 1019.23739483 0 18100
0.13150000 0.13148800 12521.91358390 0 63.96526337 0 4224.66767920 0 599.02384501 0 802.77898079 0 19059
0.13250000 0.13249300 12351.51050494 0 102.98712556 0 4075.99957386 0 378.24611706 0 673.16413200 0 18957
0.13350000 0.13349100 12489.91456518 0 52.17711275 0 3599.90067899 0 204.66638811 0 313.98123658 0 19468
0.13450000 0.13450700 12308.43916140 0 148.90948202 0 3522.59370710 0 44.71093340 0 -448.70264158 0 19953
0.13550000 0.13551000 12084.00313733 0 197.13499277 0 3558.04729117 0 -160.10138795 0 -294.08869781 0 19956
0.13650000 0.13649900 12083.00662809 0 103.23437057 0 3788.75025109 0 -326.13643477 0 -415.49784668 0 19723
0.13750000 0.13749600 12003.95022889 0 81.60104089 0 3858.17372771 0 -143.56265637 0 -168.91163681 0 20946
0.13850000 0.13851100 12094.52184590 0 188.63034008 0 4173.88999759 0 45.84994346 0 259.92836128 0 20955
0.13950000 0.13949800 11992.21356458 0 185.52566020 0 4210.15186137 0 372.41985974 0 502.41559651 0 20506
0.14050000 0.14048300 11626.71612232 0 341.39963453 0 4506.89016651 0 94.28538548 0 673.79968344 0 21447
0.14150000 0.14148400 11504.25620982 0 309.36186267 0 4387.37549241 0 480.49350060 0 1134.41503929 0 21771
0.14250000 0.14249400 11353.22969930 0 45.51622359 0 4390.21000757 0 614.65021703 0 854.37158552 0 22470
0.14350000 0.14350900 11136.98719559 0 77.11486705 0 3976.49259072 0 156.03120134 0 679.84406556 0 22519
0.14450000 0.14449900 11170.42561654 0 -36.47079855 0 3720.05754792 0 425.54155252 0 350.79782383 0 22218
0.14550000 0.14550500 10959.69713059 0 130.48291906 0 3147.28618505 0 159.22113812 0 26.27628764 0 23559
0.14650000 0.14650700 10770.44895479 0 291.08699055 0 3135.74882259 0 167.35154624 0 203.03986359 0 23044
0.14750000 0.14750500 10560.73912273 0 202.98671644 0 2939.08218916 0 128.81099801 0 -139.59433515 0 23649
0.14850000 0.14849900 10333.39107722 0 251.08378821 0 3160.10793719 0 117.55819430 0 228.78855496 0 23640
0.14950000 0.14949500 10152.86789338 0 198.06063912 0 2858.49780913 0 57.79443530 0 65.35616881 0 24457
0.15050000 0.15050000 10121.89860086 0 103.40311280 0 2989.26196524 0 -70.39053346 0 531.55906266 0 24591
0.15150000 0.15149900 10156.31138640 0 149.74765701 0 3169.61906421 0 -92.93555837 0 498.38859197 0 25020
0.15250000 0.15250500 9896.16711479 0 195.91703704 0 3059.78160201 0 -35.54216267 0 718.53076848 0 25297
0.15350000 0.15350100 9924.91087001 0 66.54965471 0 3245.17660877 0 151.79603710 0 892.31090651 0 25452
0.15450000 0.15450400 9840.80549069 0 -50.53375830 0 3143.14513557 0 273.10553505 0 537.01771880 0 26061
0.15550000 0.15549900 9887.98466674 0 48.38572729 0 3055.82878205 0 352.24719115 0 303.99178513 0 26128
0.15650000 0.15649500 9721.18009335 0 91.11881131 0 3097.60466359 0 111.78176244 0 709.37284862 0 26331
0.15750000 0.15749700 9702.75574485 0 201.77983303 0 2952.64578706 0 148.36140194 0 880.99941947 0 27345
0.15850000 0.15849900 9554.89591923 0 147.04268806 0 3136.01455839 0 42.97556793 0 1145.09983274 0 26980
0.15950000 0.15949700 9506.11125607 0 143.56819253 0 3003.65598750 0 69.13382460 0 1001.33123114 0 27777
0.16050000 0.16050000 9354.03287469 0 236.63551156 0 3055.37481673 0 316.50794110 0 1309.95567697 0 28224
0.16150000 0.16150500 9126.99485428 0 164.69750998 0 2844.43595661 0 156.42869781 0 1068.96542006 0 28075
0.16250000 0.16249700 9105.18237439 0 63.09453575 0 2677.48744300 0 309.63092016 0 1001.35891195 0 28590
0.16350000 0.16349900 8965.56035843 0 -6.10720649 0 2578.82195654 0 154.11347469 0 662.75503944 0 29163
0.16450000 0.16449100 8969.40245514 0 40.10163530 0 2242.86547689 0 118.07195017 0 778.60255955 0 28996
0.16550000 0.16550500 8902.95743390 0 41.07577844 0 2167.59581277 0 93.83728850 0 405.16293869 0 30777
0.16650000 0.16650700 8790.28545655 0 267.51511825 0 2113.91718205 0 242.91684143 0 457.25269080 0 29211
0.16750000 0.16749900 8684.78834568 0 172.19125942 0 2140.87829298 0 -146.84338621 0 102.64111541 0 30922
0.16850000 0.16850800 8320.01060453 0 179.47684915 0 1910.54071978 0 77.21208206 0 177.67316743 0 30867
0.16950000 0.16949900 8436.04856863 0 112.60222171 0 2009.89269038 0 -61.17105148 0 155.60048791 0 30852
0.17050000 0.17049200 8327.19654333 0 17.81437412 0 1985.06853814 0 -130.09206599 0 26.63702399 0 31257
0.17150000 0.17149500 8327.25190496 0 48.59986605 0 1909.77672937 0 171.98752864 0 -124.41639229 0 32608
0.17250000 0.17250900 8314.66267164 0 -14.66939098 0 1864.96703083 0 -3.64029252 0 -253.65035311 0 32361
0.17350000 0.17350400 8278.17936136 0 76.10307801 0 1721.54720745 0 152.99959881 0 -209.93570749 0 32508
0.17450000 0.17449800 8212.33224567 0 117.64677290 0 1750.63420475 0 181.97476563 0 -334.06643380 0 32791
0.17550000 0.17549800 7994.40674858 0 203.26463179 0 1606.67183746 0 214.29488177 0 -241.98012275 0 33633
0.17650000 0.17650100 7958.78707964 0 240.57725919 0 1763.48917387 0 87.77939814 0 -141.62389229 0 33984
0.17750000 0.17750300 7738.62497295 0 156.35562046 0 1758.72807419 0 97.65336525 0 229.74963275 0 34069
0.17850000 0.17849800 7740.65120839 0 6.68587940 0 1709.06869738 0 129.16641964 0 312.57948026 0 34536
