### header ###
fiducial parameters:
Omega_m = 0.31
Omega_nu = 0
Omega_de = 0.69
Omega_k = 0
H_0 = 100
w_de = -1
zeff = 0
beta = 0
fgrowth = 0
b_1 = 2
gamma = 0.55
Lx = 3500 Ly = 3500 Lz = 3500
nx = 700 ny = 700 nz = 700
xoffset = -685.467585 yoffset = -31.7331281 zoffset = 572.489161
bins = 400 dk = 0.001
kx_ny = 0.628318531 ky_ny = 0.628318531 kz_ny = 0.628318531
############################
A(data) = 7.98689147 (not used)
A(ran) = 7.98831591 (used)
Ngal = 474748
weighted Ngal = 0
Nran = 23820508
weighted Nran = 0
SN(data) = 3484.95514
SN(ran) = 69.5811287
SN(data+ran) = 3554.53627
############################
13 columns: k_central k_mean P_0(k) sigma^{lin}_{P_0(k)} P^img_1(k) sigma^{lin}_{P_1(k)} P_2(k) sigma^{lin}_{P_2(k)} P^img_3(k) sigma^{lin}_{P_3(k)} P_4(k) sigma^{lin}_{P_4(k)} N_modes
### header ###
0.00050000 0 0 0 0 0 0 0 0 0 0 0 0
0.00150000 0.00179520 66100.11831860 0 -79960.89741957 0 -26785.39313853 0 50952.62435045 0 63322.95780758 0 3
0.00250000 0.00253879 93128.54898690 0 -39847.74689683 0 14807.13070322 0 -75957.36621164 0 41391.67186955 0 6
0.00350000 0.00331552 124685.44978278 0 -13276.27107380 0 238.53441527 0 -75097.37874298 0 -10305.14557661 0 7
0.00450000 0.00420575 114327.28991493 0 26183.72300789 0 26025.38876298 0 -34743.51587869 0 78506.32610814 0 24
0.00550000 0.00557378 93376.45833959 0 18510.71263181 0 42414.42251304 0 26856.92035686 0 67098.50984749 0 45
0.00650000 0.00659388 83040.44312138 0 -2761.11671235 0 84223.96392125 0 64470.82572153 0 -19110.50046724 0 40
0.00750000 0.00754703 89599.35617420 0 17098.10543145 0 60893.24684938 0 66585.97193164 0 4212.23345843 0 57
0.00850000 0.00846663 77577.02588612 0 10252.37487653 0 62462.85961567 0 39526.31730735 0 21219.66762194 0 75
0.00950000 0.00948925 73357.47362098 0 -13302.51248362 0 45314.04293655 0 28486.65584692 0 28454.32465845 0 112
0.01050000 0.01054430 87596.04044476 0 -7057.24517593 0 59682.37740721 0 23435.46126465 0 13842.50976502 0 105
0.01150000 0.01145670 96292.79797357 0 5018.55336870 0 57877.58846177 0 -7095.02394822 0 7001.51816512 0 144
0.01250000 0.01249090 88999.78978527 0 12497.22229956 0 48756.65016916 0 -9510.68412622 0 22537.05282887 0 169
0.01350000 0.01339930 91394.84436679 0 -9649.75252595 0 56031.27829826 0 -16475.61933015 0 32889.45508780 0 180
0.01450000 0.01448870 95548.51629926 0 -5299.76827445 0 60313.72136837 0 10516.07336441 0 -10597.41066252 0 267
0.01550000 0.01550050 102680.86505444 0 -2168.85805780 0 64468.16836358 0 24335.08765617 0 -16663.40595907 0 238
0.01650000 0.01653350 92893.15136125 0 13284.79676391 0 39533.40359523 0 4414.17051848 0 -21246.01975501 0 315
0.01750000 0.01747870 94943.63519442 0 15631.35456272 0 40908.69706096 0 12031.85248743 0 -6971.60074346 0 297
0.01850000 0.01844180 76982.33132011 0 5309.24618449 0 38808.27704286 0 10047.60330133 0 418.91144442 0 388
0.01950000 0.01947590 75515.46972813 0 1112.72435497 0 29717.56619701 0 14564.97895944 0 -14984.28790032 0 399
0.02050000 0.02045430 74531.14005175 0 381.47259251 0 25621.24890710 0 32074.86415090 0 -8236.27061192 0 462
0.02150000 0.02154770 68836.64339752 0 2500.95029609 0 14016.34526468 0 12823.74515846 0 -5028.27486989 0 571
0.02250000 0.02255340 65749.90068458 0 1696.22480059 0 8699.53668234 0 5339.54006519 0 3068.38479839 0 510
0.02350000 0.02348930 65926.61498869 0 -2645.70987077 0 3926.01386187 0 6286.45635601 0 -2515.84257297 0 555
0.02450000 0.02439640 63371.67603678 0 351.60056738 0 7670.68518786 0 -5127.85935931 0 2793.58076872 0 592
0.02550000 0.02547300 67719.55654657 0 2237.04143403 0 13368.94643253 0 -10201.95150930 0 -11177.84407417 0 837
0.02650000 0.02652900 57667.10356697 0 6635.09064757 0 10956.90690474 0 -5700.43142033 0 -375.88660464 0 723
0.02750000 0.02749970 56725.62378764 0 6879.50114562 0 8753.35925328 0 -7729.29100313 0 -3740.68528906 0 826
0.02850000 0.02848090 55005.20595732 0 96.53395321 0 11834.10076617 0 4736.45267697 0 -4872.00007740 0 831
0.02950000 0.02946900 57480.42417053 0 -813.49034782 0 15028.02358336 0 1020.44649270 0 -10083.30047655 0 996
0.03050000 0.03053250 54921.49918169 0 1112.54719778 0 13244.60422482 0 -706.10762003 0 -11677.42736999 0 1041
0.03150000 0.03150510 55631.12447932 0 3302.32087716 0 16520.46224566 0 -3672.77872094 0 -8716.53270093 0 1036
0.03250000 0.03246190 52429.11886501 0 2190.47123585 0 21770.62650492 0 -4583.11205056 0 -7595.89163371 0 1059
0.03350000 0.03345080 50541.50892993 0 3114.62282684 0 23905.70289970 0 -193.86976418 0 -3181.92041708 0 1302
0.03450000 0.03451200 49095.46330862 0 2788.88610300 0 25352.30213725 0 1335.17843291 0 -4347.44868912 0 1339
0.03550000 0.03553350 47986.90214777 0 1685.25212670 0 23861.08143068 0 4891.80846650 0 -3894.35808521 0 1365
0.03650000 0.03647120 45191.25085431 0 1224.64341424 0 23982.32338744 0 1258.90118723 0 -4347.24938727 0 1308
0.03750000 0.03744890 44943.56294812 0 581.55503815 0 22800.35271305 0 6518.63193513 0 -2308.10361472 0 1579
0.03850000 0.03847530 42672.96129756 0 2113.17533629 0 17864.75320189 0 2508.37982604 0 -2547.63121752 0 1662
0.03950000 0.03950240 42597.22659580 0 1542.83988488 0 15477.89214074 0 2248.82238764 0 -4277.79269368 0 1683
0.04050000 0.04050350 41890.59082587 0 -1608.15552899 0 14570.73656835 0 771.28375284 0 -5447.79418495 0 1822
0.04150000 0.04152450 42355.29629851 0 -23.54330571 0 13859.22897550 0 753.19600302 0 -11394.19730112 0 1887
0.04250000 0.04250150 42167.95256258 0 -785.80067791 0 12584.25077263 0 -651.85876458 0 -7541.31614468 0 1920
0.04350000 0.04349210 43896.78535976 0 -1830.68711319 0 11957.33574140 0 -2655.32064871 0 -12817.43393331 0 2005
0.04450000 0.04448520 45890.68961311 0 -639.24406492 0 12620.67872129 0 1577.21945344 0 -11606.34304465 0 2151
0.04550000 0.04548030 43473.71182844 0 1192.04648998 0 13478.11955524 0 -2154.30902299 0 -8675.46544818 0 2274
0.04650000 0.04648670 44088.89019537 0 4110.64487822 0 13091.03107958 0 990.86788418 0 -8053.23401035 0 2311
0.04750000 0.04749250 38528.81156444 0 2724.87699322 0 15390.19932817 0 625.55313528 0 -5113.66463889 0 2568
0.04850000 0.04851840 38313.12267697 0 1999.36290948 0 16169.80171865 0 2551.52867586 0 -4976.48960672 0 2493
0.04950000 0.04949480 36150.80836314 0 1194.07272542 0 15694.57753744 0 4727.25157505 0 907.45895409 0 2644
0.05050000 0.05050630 37084.09462210 0 -878.38967251 0 15609.20991309 0 1458.02587677 0 -3408.27195335 0 2829
0.05150000 0.05149060 36023.14445798 0 -584.97860098 0 13061.24652582 0 -373.28793001 0 829.07796670 0 2784
0.05250000 0.05249300 37737.91540264 0 -80.35662231 0 13221.35234270 0 226.13341147 0 -4549.20859196 0 3055
0.05350000 0.05348950 38469.57462666 0 -66.93386438 0 12859.50876762 0 181.19305949 0 -2464.87666183 0 3009
0.05450000 0.05448610 37200.68620244 0 683.29198751 0 12938.34372033 0 -993.86294805 0 -6929.41518590 0 3336
0.05550000 0.05550870 36838.06756463 0 1009.77387881 0 13877.71975795 0 -577.42616822 0 -5395.32243763 0 3349
0.05650000 0.05647670 36084.48513747 0 499.12379434 0 12603.07372482 0 1297.24464808 0 -5743.36989598 0 3324
0.05750000 0.05747970 36451.64342846 0 496.18298487 0 14606.83234725 0 1032.82203015 0 -2412.81459053 0 3639
0.05850000 0.05849280 35335.44236349 0 434.98956729 0 13726.58252417 0 1220.82346218 0 -839.13385210 0 3846
0.05950000 0.05951020 34971.16287696 0 1200.42823986 0 14614.58297463 0 1414.52271256 0 -3052.00882999 0 3787
0.06050000 0.06049470 34421.42194971 0 1627.73139926 0 13023.71134468 0 2282.92514808 0 -725.63145038 0 3930
0.06150000 0.06148310 32381.67827162 0 847.87434531 0 13923.22701295 0 -46.24943294 0 -2658.95237125 0 4083
0.06250000 0.06249100 31391.81243283 0 898.82032627 0 11553.41733202 0 444.83618575 0 351.09677660 0 4303
0.06350000 0.06350600 31079.35142645 0 368.39064074 0 11625.38744334 0 1442.24781390 0 356.70380189 0 4470
0.06450000 0.06451750 30461.18353183 0 494.97388700 0 9558.84873919 0 490.88266297 0 -713.32234688 0 4479
0.06550000 0.06550280 31039.60178035 0 -42.07361636 0 10422.64508759 0 2494.30690120 0 -777.76438456 0 4636
0.06650000 0.06648880 29847.11239738 0 -89.08737187 0 8346.35166527 0 1054.24476421 0 -853.07833798 0 4653
0.06750000 0.06749660 30882.81766092 0 205.60864295 0 9470.05976646 0 2234.42836538 0 1854.97979384 0 5220
0.06850000 0.06852730 29914.98574852 0 -108.83342379 0 8429.07300399 0 1009.17929497 0 1681.45431928 0 5029
0.06950000 0.06949320 30795.45701810 0 191.18915434 0 9461.75552285 0 1926.42950590 0 2072.72813373 0 5040
0.07050000 0.07048030 29288.51361028 0 958.65849129 0 8013.55079820 0 -244.71941591 0 1025.44896906 0 5475
0.07150000 0.07148790 28952.02565904 0 1317.65094272 0 8057.58543400 0 464.87045028 0 531.18371085 0 5509
0.07250000 0.07249820 28752.94525881 0 252.23641723 0 7435.22112827 0 -183.18939966 0 683.71716478 0 5916
0.07350000 0.07351270 27289.73753402 0 1198.77846347 0 7591.54021006 0 -919.89871103 0 -974.09995548 0 5721
0.07450000 0.07449140 26383.68919411 0 2124.43589063 0 7630.64766132 0 -1350.80148323 0 -1794.92350403 0 6028
0.07550000 0.07549160 24714.75767420 0 1139.64117661 0 8110.35613409 0 -340.19275112 0 -1058.03924993 0 6183
0.07650000 0.07648840 24545.46182772 0 3.46053333 0 8018.33404252 0 715.67853761 0 326.18404576 0 6330
0.07750000 0.07749960 24362.87919146 0 -679.67798069 0 8293.51453124 0 1904.67238763 0 -1011.78350577 0 6583
0.07850000 0.07848650 25452.06378387 0 -740.77064011 0 7644.63200756 0 1223.84620685 0 -1711.37174094 0 6549
0.07950000 0.07947320 24827.36321760 0 -77.01875927 0 6909.81717097 0 690.44692381 0 -1141.43489323 0 6828
0.08050000 0.08048110 25598.99353421 0 800.96976292 0 7505.68540341 0 -537.12622758 0 443.52743696 0 7147
0.08150000 0.08149960 24248.72352258 0 725.57165983 0 6298.01586312 0 -319.65469582 0 880.70046670 0 7386
0.08250000 0.08250610 24070.90198599 0 1175.74802784 0 7808.59099348 0 -69.33102270 0 959.37376347 0 7227
0.08350000 0.08350160 22507.60044485 0 950.40407313 0 6607.75307760 0 335.63759669 0 -91.98444566 0 7798
0.08450000 0.08449610 22650.98705125 0 275.23806481 0 7873.26444274 0 1139.65224893 0 1325.05832802 0 7371
0.08550000 0.08548940 21708.84293243 0 110.24492375 0 6439.29872781 0 1129.26640825 0 559.68276770 0 8256
0.08650000 0.08650700 22373.18242155 0 194.01038270 0 6844.39080362 0 646.51415339 0 778.86054472 0 8037
0.08750000 0.08749060 21744.82798809 0 -67.09086994 0 5563.43354535 0 172.92203286 0 694.60015285 0 8155
0.08850000 0.08849210 21864.63054263 0 242.52377390 0 6452.56337294 0 482.99806047 0 1017.27980781 0 8718
0.08950000 0.08949900 21329.39436090 0 637.26433324 0 5658.74411739 0 -95.85223017 0 1213.39393223 0 8571
0.09050000 0.09049190 20916.06447542 0 731.20636593 0 6220.27707057 0 1104.24073970 0 419.19157424 0 8932
0.09150000 0.09150830 20104.24161971 0 382.47574514 0 5604.99905272 0 -123.02902999 0 1792.33258002 0 9285
0.09250000 0.09250820 20021.97424631 0 123.98124992 0 5826.52305537 0 1091.19421936 0 1984.52599422 0 9204
0.09350000 0.09350330 20281.39881681 0 -205.31411911 0 6138.10934809 0 238.22106847 0 1059.80971467 0 9349
0.09450000 0.09448040 20137.12642442 0 154.14115550 0 7280.67361845 0 -625.80004812 0 1574.30743201 0 9564
0.09550000 0.09549270 19921.88042995 0 987.74105965 0 7198.31766645 0 -1075.16260026 0 1845.31365428 0 10155
0.09650000 0.09649430 19297.06914043 0 648.60682278 0 7577.71087636 0 -834.09151538 0 2552.10443675 0 9913
0.09750000 0.09749140 19186.01372250 0 441.55767037 0 7877.62693872 0 250.71618703 0 2159.03690569 0 10476
0.09850000 0.09850240 18926.03553576 0 50.65854340 0 7630.51479342 0 538.31096634 0 884.21925153 0 10575
0.09950000 0.09950330 18453.57943575 0 388.08941382 0 7573.37052503 0 120.57429558 0 -797.58495322 0 10882
0.10050000 0.10051200 18164.37031149 0 774.00422305 0 6968.60014344 0 -1003.73835455 0 187.68144184 0 10875
0.10150000 0.10150300 17141.06605175 0 648.75076301 0 6957.48352932 0 339.13755857 0 -831.36329454 0 11118
0.10250000 0.10250800 16955.05099479 0 21.03597775 0 7039.58481785 0 153.90642221 0 -541.60830467 0 11575
0.10350000 0.10349800 17056.14132039 0 356.58754248 0 6795.94938254 0 1005.41359730 0 -1010.20680671 0 11364
0.10450000 0.10450100 16328.35741006 0 391.40668234 0 6754.58317702 0 99.51628390 0 -1067.20049148 0 12093
0.10550000 0.10551000 16184.97080366 0 683.45696515 0 6479.15909715 0 381.20574948 0 -520.22543098 0 12067
0.10650000 0.10649700 15517.08817060 0 46.45991783 0 6424.63896975 0 802.86313046 0 -84.75632130 0 12054
0.10750000 0.10749900 15494.16845822 0 -30.84273585 0 5768.80302609 0 1715.84496017 0 -79.06337477 0 12807
0.10850000 0.10850100 15444.67516628 0 -131.43403176 0 4908.14014561 0 787.82026996 0 -102.25568778 0 12736
0.10950000 0.10950300 15527.38543268 0 -42.29406634 0 4977.64112850 0 689.88223524 0 -686.39998909 0 12933
0.11050000 0.11050200 15452.64724015 0 209.94677982 0 4397.28522313 0 -66.06535122 0 -266.72787595 0 13428
0.11150000 0.11150900 15282.35488444 0 372.01793435 0 4819.17401569 0 -363.83437908 0 -717.46561083 0 13453
0.11250000 0.11250000 15284.56934940 0 140.76910881 0 5241.20674848 0 -696.45476726 0 142.77762854 0 13668
0.11350000 0.11349100 15128.33884621 0 128.50761631 0 5276.93714067 0 75.01134678 0 -458.26580852 0 13791
0.11450000 0.11448600 15320.66512831 0 -4.33894514 0 5120.54055261 0 -68.50956692 0 0.86607835 0 14205
0.11550000 0.11549300 15117.59869114 0 339.90044175 0 5480.26931364 0 48.45692234 0 -680.53719310 0 14776
0.11650000 0.11649800 14944.42753098 0 503.58483401 0 5413.63606288 0 -227.27718262 0 -581.91267424 0 14553
0.11750000 0.11747300 14530.65475250 0 401.39059763 0 5395.26707601 0 16.63771817 0 -457.31691029 0 14568
0.11850000 0.11849100 14221.29399707 0 256.86464900 0 4863.33044707 0 324.40250870 0 -393.27679800 0 16015
0.11950000 0.11950300 14071.26399578 0 -54.29159462 0 5233.54469970 0 337.82216638 0 -547.73351476 0 15270
0.12050000 0.12050700 14004.49787712 0 96.32922592 0 4896.53634920 0 539.60089218 0 -1298.54011008 0 15999
0.12150000 0.12150000 13913.48336711 0 268.58359759 0 4788.47045897 0 251.94964402 0 -873.40491188 0 15670
0.12250000 0.12250700 13478.56244823 0 176.95789525 0 4301.33245625 0 507.88532497 0 -920.26631221 0 16887
0.12350000 0.12352200 13510.67219021 0 -102.63613286 0 3851.05422285 0 838.64666981 0 -819.37861016 0 16407
0.12450000 0.12449800 13573.67371843 0 73.12262961 0 3792.96880685 0 385.84394635 0 -931.55786906 0 16306
0.12550000 0.12549900 13258.88752383 0 368.81913971 0 3747.49476882 0 17.96506846 0 -1086.47630176 0 17523
0.12650000 0.12650100 13228.88152357 0 339.14973813 0 4069.99837381 0 -512.28214515 0 -1001.30022863 0 17154
0.12750000 0.12750600 12695.63836031 0 408.70165371 0 4023.36174168 0 -458.25584343 0 -578.49686203 0 18007
0.12850000 0.12850300 12700.51018323 0 214.64476724 0 4357.34734751 0 -286.32699811 0 -619.96493294 0 17496
0.12950000 0.12949900 12548.93005646 0 -29.95982866 0 4693.44776738 0 -174.85858247 0 -420.69741041 0 18405
0.13050000 0.13049000 12706.71068513 0 -46.50121760 0 4710.48807527 0 335.96976644 0 -982.07202935 0 18100
0.13150000 0.13148800 12660.53909063 0 -4.86794761 0 4642.30469904 0 208.17520785 0 -374.75501304 0 19059
0.13250000 0.13249300 12567.86373190 0 203.05647208 0 4350.90325446 0 790.56288482 0 -626.43781403 0 18957
0.13350000 0.13349100 12597.42683917 0 68.69635704 0 4144.60369844 0 245.70485282 0 -938.06618159 0 19468
0.13450000 0.13450700 12541.84376858 0 112.56236134 0 3646.17192440 0 174.44337029 0 -418.13859615 0 19953
0.13550000 0.13551000 12326.04415786 0 160.78455039 0 3819.89670081 0 176.73534152 0 -341.05528523 0 19956
0.13650000 0.13649900 12337.89154542 0 235.62017937 0 3354.19471894 0 269.90563317 0 -114.07594814 0 19723
0.13750000 0.13749600 12056.76521827 0 44.07781787 0 3734.16368974 0 574.68687506 0 -14.02763904 0 20946
0.13850000 0.13851100 12085.99615579 0 98.33929577 0 3118.90781654 0 176.65672802 0 -70.83785539 0 20955
0.13950000 0.13949800 11868.42497311 0 141.51095458 0 3946.19871002 0 92.46587035 0 -8.25845955 0 20506
0.14050000 0.14048300 11735.77852178 0 319.72777316 0 3255.17491808 0 291.29847196 0 317.71371728 0 21447
0.14150000 0.14148400 11491.96592927 0 279.91169311 0 3278.06141348 0 243.06853228 0 646.63594897 0 21771
0.14250000 0.14249400 11378.47459988 0 64.05074172 0 3101.49104960 0 7.41028625 0 263.76935076 0 22470
0.14350000 0.14350900 11359.09803145 0 79.04311242 0 3142.21506028 0 -36.13010312 0 -133.07716476 0 22519
0.14450000 0.14449900 11133.66549814 0 217.90003073 0 3380.66864758 0 -447.65298519 0 -87.03888106 0 22218
0.14550000 0.14550500 11025.43352304 0 338.83196240 0 3621.96782235 0 -393.67097276 0 -687.17173013 0 23559
0.14650000 0.14650700 10819.69865558 0 97.91478284 0 3251.13351952 0 -1.26362907 0 34.87195485 0 23044
0.14750000 0.14750500 10465.58356323 0 213.93170952 0 3286.74211614 0 203.35210315 0 -130.53163729 0 23649
0.14850000 0.14849900 10638.00180531 0 32.22744079 0 3196.00441425 0 529.05339555 0 -462.36478317 0 23640
0.14950000 0.14949500 10273.25728113 0 116.03907133 0 2972.15522339 0 682.98749858 0 -533.81117353 0 24457
0.15050000 0.15050000 10337.04494441 0 75.23821871 0 2490.07727312 0 523.03005085 0 -230.18145342 0 24591
0.15150000 0.15149900 10049.46345190 0 84.65667038 0 2176.11043056 0 465.45506903 0 -156.43091227 0 25020
0.15250000 0.15250500 10098.39205527 0 182.42319478 0 2210.65608399 0 284.42809441 0 -78.41664028 0 25297
0.15350000 0.15350100 9894.84950813 0 73.39888412 0 2137.63410181 0 175.36458771 0 -8.96291407 0 25452
0.15450000 0.15450400 9845.16798667 0 320.30353405 0 2240.87245842 0 -268.32782689 0 189.97894924 0 26061
0.15550000 0.15549900 9620.54373308 0 333.26590472 0 2759.67731012 0 -270.29205731 0 568.29371471 0 26128
0.15650000 0.15649500 9451.89008144 0 225.17897707 0 2928.68527616 0 -482.33261375 0 990.15039753 0 26331
0.15750000 0.15749700 9361.10809025 0 165.89110660 0 3436.35136909 0 4.93761467 0 1125.04785250 0 27345
0.15850000 0.15849900 9448.56838399 0 -89.99563468 0 3180.80211228 0 272.45780404 0 935.86057448 0 26980
0.15950000 0.15949700 9455.96469697 0 -116.56389953 0 3385.59583212 0 214.87950052 0 559.63626394 0 27777
0.16050000 0.16050000 9470.36979156 0 40.62081662 0 2917.84547016 0 126.99735120 0 694.27130480 0 28224
0.16150000 0.16150500 9494.48531501 0 100.44990233 0 2969.04390012 0 175.24500660 0 669.95647950 0 28075
0.16250000 0.16249700 9242.24668332 0 91.38056107 0 2603.52431321 0 34.81205357 0 399.71535488 0 28590
0.16350000 0.16349900 9071.10175860 0 158.19473361 0 2529.00756718 0 400.18592869 0 -136.74653321 0 29163
0.16450000 0.16449100 8768.92694197 0 317.85212134 0 2288.47238282 0 126.47584471 0 95.05723725 0 28996
0.16550000 0.16550500 8773.55517375 0 320.78518018 0 2248.75595369 0 16.28705764 0 -103.83958385 0 30777
0.16650000 0.16650700 8478.20090921 0 99.98730060 0 2287.07726989 0 -115.83534056 0 299.05906442 0 29211
0.16750000 0.16749900 8352.04284023 0 201.81969340 0 2191.53417903 0 79.49674556 0 425.17062964 0 30922
0.16850000 0.16850800 8309.31473875 0 156.29915160 0 2264.66688446 0 -95.24668472 0 335.71067404 0 30867
0.16950000 0.16949900 8253.22234122 0 147.89636430 0 2271.56494282 0 12.77037655 0 78.70119902 0 30852
0.17050000 0.17049200 8077.91422237 0 -1.00507036 0 2462.50718432 0 5.05854661 0 197.91780613 0 31257
0.17150000 0.17149500 8155.23226658 0 -42.31477159 0 2308.40256749 0 -39.71122513 0 -160.21211120 0 32608
0.17250000 0.17250900 8153.10638021 0 5.96713051 0 2357.47511109 0 -5.78217839 0 -174.55630800 0 32361
0.17350000 0.17350400 8209.26521169 0 17.73277109 0 2418.37289759 0 70.81227831 0 -218.85667960 0 32508
0.17450000 0.17449800 8123.49898365 0 199.68716364 0 2350.65455900 0 138.42288319 0 73.10369594 0 32791
0.17550000 0.17549800 7964.61112250 0 181.13880510 0 2174.44958183 0 234.28374977 0 114.00287080 0 33633
0.17650000 0.17650100 7846.38083808 0 123.09878564 0 2168.37087551 0 480.62083233 0 18.15340871 0 33984
0.17750000 0.17750300 7758.12333695 0 37.82261869 0 1767.91810379 0 391.77981969 0 118.50930700 0 34069
0.17850000 0.17849800 7735.18147993 0 6.74376552 0 1718.84556020 0 326.78638023 0 147.94286806 0 34536
