### header ###
fiducial parameters:
Omega_m = 0.31
Omega_nu = 0
Omega_de = 0.69
Omega_k = 0
H_0 = 100
w_de = -1
zeff = 0
beta = 0
fgrowth = 0
b_1 = 2
gamma = 0.55
Lx = 3500 Ly = 3500 Lz = 3500
nx = 700 ny = 700 nz = 700
xoffset = -685.467585 yoffset = -31.7331281 zoffset = 572.489161
bins = 400 dk = 0.001
kx_ny = 0.628318531 ky_ny = 0.628318531 kz_ny = 0.628318531
############################
A(data) = 8.00658595 (not used)
A(ran) = 8.01200505 (used)
Ngal = 476020
weighted Ngal = 0
Nran = 23820508
weighted Nran = 0
SN(data) = 3476.06553
SN(ran) = 69.7874697
SN(data+ran) = 3545.853
############################
13 columns: k_central k_mean P_0(k) sigma^{lin}_{P_0(k)} P^img_1(k) sigma^{lin}_{P_1(k)} P_2(k) sigma^{lin}_{P_2(k)} P^img_3(k) sigma^{lin}_{P_3(k)} P_4(k) sigma^{lin}_{P_4(k)} N_modes
### header ###
0.00050000 0 0 0 0 0 0 0 0 0 0 0 0
0.00150000 0.00179520 31266.03082289 0 -20767.25242985 0 40713.15980466 0 -43401.85244037 0 -108869.18739558 0 3
0.00250000 0.00253879 59906.59198479 0 -25206.25817290 0 13546.32507612 0 -4647.29831753 0 112937.71315019 0 6
0.00350000 0.00331552 60203.33028993 0 -9952.43666951 0 1300.63277947 0 -4470.99368944 0 -31359.14907462 0 7
0.00450000 0.00420575 66618.63528985 0 -4105.48517486 0 -4676.66212295 0 -10063.08241143 0 29363.91614230 0 24
0.00550000 0.00557378 78316.76790725 0 -11538.58041676 0 -1172.75850014 0 -577.24790379 0 -11244.38874633 0 45
0.00650000 0.00659388 64664.25923611 0 5817.38838739 0 -3351.61486725 0 -3596.39075202 0 42863.62673094 0 40
0.00750000 0.00754703 74586.72312234 0 2431.63754272 0 -19937.60313119 0 -14247.09251390 0 -29260.83279824 0 57
0.00850000 0.00846663 66631.36846339 0 664.96064654 0 -5132.56509736 0 -20839.00109468 0 8190.27617463 0 75
0.00950000 0.00948925 71444.06516907 0 -1255.81200861 0 -7606.88645226 0 -17677.40946596 0 -18464.09814433 0 112
0.01050000 0.01054430 74977.02257220 0 -8633.60098804 0 10645.73028803 0 -25548.39300979 0 -9391.09194586 0 105
0.01150000 0.01145670 76770.40702308 0 6160.90726489 0 20815.52776606 0 -13449.11006422 0 -19094.88848924 0 144
0.01250000 0.01249090 86120.09954644 0 4321.26264092 0 16855.28934818 0 -14990.82057197 0 -24619.53568076 0 169
0.01350000 0.01339930 70730.56455775 0 3964.70056479 0 30920.57428855 0 -17159.33538770 0 -31309.21288969 0 180
0.01450000 0.01448870 79621.19849413 0 3235.08972086 0 27431.68473820 0 1049.42941015 0 -19341.13699321 0 267
0.01550000 0.01550050 83221.69707866 0 -7427.64765809 0 39591.75474703 0 11022.86474368 0 -13271.73142062 0 238
0.01650000 0.01653350 80068.29897031 0 618.70379515 0 21865.07343562 0 3941.57047824 0 -14930.58712495 0 315
0.01750000 0.01747870 85248.92902971 0 5544.59952083 0 35926.26161581 0 12392.58883002 0 -11395.41525685 0 297
0.01850000 0.01844180 78079.82015613 0 2656.21750702 0 30350.23883714 0 5761.58387031 0 -4127.82912634 0 388
0.01950000 0.01947590 75756.95713243 0 3911.57555031 0 39697.93834204 0 4020.18398445 0 2014.79773027 0 399
0.02050000 0.02045430 75898.01855062 0 4267.75009507 0 42106.05826684 0 5157.25638170 0 -1839.47853910 0 462
0.02150000 0.02154770 74281.90202009 0 1469.65181783 0 51910.82334025 0 11778.84986532 0 19143.71744169 0 571
0.02250000 0.02255340 76129.54086257 0 203.00996832 0 54531.19973183 0 18616.45333383 0 15528.38194191 0 510
0.02350000 0.02348930 71993.91681956 0 300.68891064 0 37472.62249999 0 11845.06236774 0 24878.40663502 0 555
0.02450000 0.02439640 75052.75727396 0 2541.48607725 0 43407.16715628 0 13386.44070574 0 14297.69303832 0 592
0.02550000 0.02547300 67696.63683420 0 3170.77058599 0 26942.06653472 0 7730.11035516 0 16573.72012804 0 837
0.02650000 0.02652900 64867.65784303 0 5339.55113752 0 21752.35716897 0 11551.53503680 0 6857.69973805 0 723
0.02750000 0.02749970 61207.47942773 0 -959.18664118 0 13475.13002754 0 -650.80025033 0 3168.82185682 0 826
0.02850000 0.02848090 60877.19197839 0 1136.75129983 0 7284.41606424 0 5009.28583283 0 -1241.45120332 0 831
0.02950000 0.02946900 60279.61860793 0 1892.78071077 0 8214.77922945 0 -4886.50482291 0 -8155.43156842 0 996
0.03050000 0.03053250 55531.69500245 0 1653.12024007 0 5591.65690131 0 -439.51261198 0 -6995.59447134 0 1041
0.03150000 0.03150510 56575.04017011 0 1979.74274990 0 10400.27899145 0 288.32001658 0 -3601.87155280 0 1036
0.03250000 0.03246190 56466.42066364 0 751.66137880 0 14024.09589205 0 -356.86102890 0 -1254.18437686 0 1059
0.03350000 0.03345080 57273.26097317 0 -1492.78190437 0 10719.40553738 0 4087.14940496 0 435.13018582 0 1302
0.03450000 0.03451200 55021.81444455 0 1488.07616633 0 14937.23051984 0 1498.30699446 0 7776.37052826 0 1339
0.03550000 0.03553350 58711.55596711 0 1373.52189375 0 15061.46200431 0 2616.89968159 0 11403.05516098 0 1365
0.03650000 0.03647120 54031.83788251 0 1478.41002676 0 18809.55467867 0 -3691.21414177 0 13391.64469841 0 1308
0.03750000 0.03744890 54696.50954138 0 2397.11403394 0 19826.87988301 0 -274.81842370 0 5689.70233758 0 1579
0.03850000 0.03847530 52715.89207782 0 1559.32657653 0 24377.82682997 0 -4466.01114328 0 6416.75547447 0 1662
0.03950000 0.03950240 51076.41294192 0 1309.15846958 0 21704.19255601 0 1029.71292134 0 3254.97561624 0 1683
0.04050000 0.04050350 51083.16706006 0 295.76836949 0 22087.84861097 0 483.74212070 0 3210.14377305 0 1822
0.04150000 0.04152450 50619.45809665 0 2664.32244879 0 24685.52673668 0 -3550.70633982 0 -6246.98351803 0 1887
0.04250000 0.04250150 49976.82036418 0 1481.08952937 0 24463.52662406 0 -1098.27829278 0 1871.31147295 0 1920
0.04350000 0.04349210 47656.61469843 0 2055.25600516 0 24120.06310819 0 1216.54954480 0 -2710.18401818 0 2005
0.04450000 0.04448520 47430.18565589 0 -254.44202433 0 24290.46618715 0 5396.46288709 0 4556.73777284 0 2151
0.04550000 0.04548030 48266.47834944 0 -1863.30618211 0 20214.41125166 0 7535.74676530 0 -5360.42246980 0 2274
0.04650000 0.04648670 47719.06261041 0 2122.16606404 0 18443.28217367 0 7964.75506272 0 -2455.89700640 0 2311
0.04750000 0.04749250 44331.70627864 0 3252.75007895 0 16216.08403640 0 843.92706151 0 2532.07460115 0 2568
0.04850000 0.04851840 41585.54827712 0 3567.92380491 0 14995.24950189 0 1790.22883830 0 6987.78848235 0 2493
0.04950000 0.04949480 39643.35178068 0 1587.33955833 0 13953.12228996 0 1475.02189537 0 7411.50420851 0 2644
0.05050000 0.05050630 40418.19307149 0 42.47908489 0 15417.65869372 0 2950.81885347 0 5964.97140490 0 2829
0.05150000 0.05149060 38255.10369492 0 -132.03304453 0 18852.29385247 0 -825.06867788 0 6111.11502018 0 2784
0.05250000 0.05249300 39056.29711880 0 1460.07425686 0 18836.46042798 0 -542.48191109 0 3980.98795460 0 3055
0.05350000 0.05348950 38473.44994034 0 520.16785489 0 20687.75313766 0 -2439.29959150 0 7159.66418051 0 3009
0.05450000 0.05448610 38007.63723522 0 68.57987618 0 19907.37568444 0 1173.40069498 0 4521.14024855 0 3336
0.05550000 0.05550870 37718.98172720 0 698.77663377 0 18155.84462138 0 2619.96671556 0 3965.35383195 0 3349
0.05650000 0.05647670 36211.26325665 0 850.73321958 0 15660.03188400 0 3026.73071243 0 3973.32590582 0 3324
0.05750000 0.05747970 37340.08677191 0 -305.86522249 0 13458.52154031 0 3848.56294976 0 2196.06275988 0 3639
0.05850000 0.05849280 35089.74747576 0 282.06636752 0 9405.48596812 0 3707.36866368 0 -108.31811779 0 3846
0.05950000 0.05951020 34547.20355965 0 2099.84425721 0 8830.35620007 0 1264.38198802 0 -887.47119333 0 3787
0.06050000 0.06049470 33604.50582459 0 769.00839009 0 7631.72167682 0 1204.71322957 0 -190.28011647 0 3930
0.06150000 0.06148310 32262.87222632 0 610.31208017 0 7551.39196027 0 -789.28846023 0 -1302.41542377 0 4083
0.06250000 0.06249100 31876.22664365 0 1392.18983340 0 9635.96748155 0 -804.17852265 0 -1984.71422374 0 4303
0.06350000 0.06350600 31382.73312648 0 867.30073921 0 11792.57954810 0 -2509.64207107 0 -1308.26161127 0 4470
0.06450000 0.06451750 30373.37999601 0 1324.34969923 0 11640.22435859 0 -1671.35635905 0 475.17657022 0 4479
0.06550000 0.06550280 30335.29119864 0 155.73667750 0 11399.06912404 0 -196.37653852 0 1882.08484500 0 4636
0.06650000 0.06648880 30691.26644156 0 -257.88883905 0 12978.31481293 0 -549.16405912 0 -2901.42521245 0 4653
0.06750000 0.06749660 30292.44130159 0 -104.67820173 0 14141.01964213 0 -172.33187794 0 -2463.22688543 0 5220
0.06850000 0.06852730 29437.32565585 0 783.97042262 0 13233.42117675 0 -834.45579486 0 -5050.25343466 0 5029
0.06950000 0.06949320 30028.91997091 0 734.80597873 0 13077.19067356 0 -312.68356011 0 -3032.13400694 0 5040
0.07050000 0.07048030 28720.94624008 0 -16.74434465 0 12693.53461859 0 1458.57949301 0 -4049.84674264 0 5475
0.07150000 0.07148790 29340.11064394 0 295.01545140 0 11533.59787059 0 2466.29391940 0 -2694.77134204 0 5509
0.07250000 0.07249820 28596.71475561 0 -331.45115068 0 10317.25869996 0 3728.61645500 0 -2207.12401237 0 5916
0.07350000 0.07351270 28904.41466232 0 517.76516040 0 9529.08633007 0 2160.40987396 0 -2521.37873538 0 5721
0.07450000 0.07449140 27659.55318296 0 1092.66019517 0 9005.06641338 0 1478.23286956 0 360.42410303 0 6028
0.07550000 0.07549160 27218.32103894 0 1357.83240949 0 10165.25782485 0 -228.06996108 0 71.41583074 0 6183
0.07650000 0.07648840 26078.64664536 0 830.43211203 0 9351.60803555 0 -279.63488499 0 3711.70901501 0 6330
0.07750000 0.07749960 25795.30585325 0 387.33871020 0 10780.71299990 0 98.21860743 0 1578.30454127 0 6583
0.07850000 0.07848650 25308.45573097 0 664.49893060 0 9281.19912203 0 1153.45943798 0 1881.46479481 0 6549
0.07950000 0.07947320 24897.67248020 0 375.41160191 0 9706.81928806 0 1744.15689473 0 440.11716091 0 6828
0.08050000 0.08048110 24420.89817351 0 -3.08481613 0 7965.61870406 0 1118.53732550 0 1442.71285154 0 7147
0.08150000 0.08149960 24390.11711051 0 -31.62864946 0 6866.18113886 0 669.17809506 0 -2191.99921667 0 7386
0.08250000 0.08250610 24568.04937035 0 -171.73065070 0 7446.83599700 0 -664.87096071 0 -158.01314749 0 7227
0.08350000 0.08350160 24361.88268223 0 1105.03130369 0 7481.71382018 0 -1634.00940744 0 -1497.31048523 0 7798
0.08450000 0.08449610 23515.18200334 0 928.10994711 0 7865.23700725 0 -601.88604098 0 -385.34790620 0 7371
0.08550000 0.08548940 22801.01705254 0 794.01302123 0 8849.33416481 0 496.73106494 0 225.73923671 0 8256
0.08650000 0.08650700 22303.98039143 0 419.68650716 0 7986.86649538 0 1558.90582819 0 907.43348774 0 8037
0.08750000 0.08749060 21882.34626234 0 -3.72414324 0 7233.00726011 0 2429.19055894 0 -962.42861789 0 8155
0.08850000 0.08849210 21772.95169313 0 177.24245400 0 6552.38038118 0 1283.10528928 0 -1075.19913893 0 8718
0.08950000 0.08949900 21061.77627003 0 1039.16204334 0 5960.35424545 0 -404.09445935 0 -527.90519547 0 8571
0.09050000 0.09049190 20391.45772551 0 1000.18081659 0 6288.58224237 0 -804.92258288 0 -720.89470983 0 8932
0.09150000 0.09150830 19518.84780655 0 503.49736264 0 6209.10509483 0 -711.35368753 0 -204.42944036 0 9285
0.09250000 0.09250820 19561.25481061 0 626.16432761 0 7049.99280318 0 -107.54183710 0 -801.99284573 0 9204
0.09350000 0.09350330 18950.94826660 0 467.37168845 0 7249.56038571 0 -277.66622564 0 -1095.97635645 0 9349
0.09450000 0.09448040 18479.59939907 0 868.40797169 0 7711.35383692 0 156.15078245 0 19.80551030 0 9564
0.09550000 0.09549270 18212.64564769 0 -93.09267465 0 8154.96653078 0 808.83886416 0 909.84171839 0 10155
0.09650000 0.09649430 18011.68295224 0 4.91644439 0 8362.73870600 0 1032.74230941 0 531.47159130 0 9913
0.09750000 0.09749140 18477.82782710 0 -92.05143323 0 7773.71317030 0 473.41164164 0 528.47209850 0 10476
0.09850000 0.09850240 17957.53928387 0 318.67590230 0 7104.35791804 0 1058.21087096 0 1644.64991159 0 10575
0.09950000 0.09950330 18024.41612578 0 69.45957239 0 6684.82753066 0 750.89295946 0 1162.58303363 0 10882
0.10050000 0.10051200 17810.38808703 0 -52.08355161 0 6107.08469395 0 813.75497638 0 1010.12487151 0 10875
0.10150000 0.10150300 17836.18660386 0 -210.74398720 0 5509.72169766 0 347.37536823 0 374.51695806 0 11118
0.10250000 0.10250800 17777.61400557 0 304.94732676 0 5320.67282370 0 124.08422255 0 -505.21689469 0 11575
0.10350000 0.10349800 17311.35840746 0 428.91750436 0 5380.79554747 0 -442.37148625 0 175.15310631 0 11364
0.10450000 0.10450100 17330.73497589 0 213.47885143 0 5050.71847230 0 -118.83483335 0 488.24191351 0 12093
0.10550000 0.10551000 16725.85387105 0 443.51525740 0 5597.25949767 0 450.80527606 0 409.23312530 0 12067
0.10650000 0.10649700 16677.46781159 0 517.58357427 0 5676.91380242 0 152.25443135 0 350.53098081 0 12054
0.10750000 0.10749900 15910.48787140 0 383.09247363 0 5541.58784848 0 699.64359680 0 640.51627504 0 12807
0.10850000 0.10850100 15719.93316127 0 109.32713875 0 5357.06755538 0 899.21339380 0 1301.92824148 0 12736
0.10950000 0.10950300 16030.17970269 0 -297.16126795 0 4421.11286614 0 876.37672386 0 484.56811613 0 12933
0.11050000 0.11050200 15990.09788685 0 81.87784902 0 4979.57878534 0 345.83963678 0 548.45764480 0 13428
0.11150000 0.11150900 15769.31572996 0 488.39028266 0 3999.62267727 0 -656.65197400 0 15.59703036 0 13453
0.11250000 0.11250000 15450.87566818 0 419.31558428 0 4595.29160786 0 -916.06325771 0 -42.84723969 0 13668
0.11350000 0.11349100 15142.84359173 0 351.28722059 0 4867.73723235 0 -847.95960221 0 -128.59287321 0 13791
0.11450000 0.11448600 15114.60916344 0 125.96319607 0 5081.04556998 0 -101.48992580 0 -750.50542809 0 14205
0.11550000 0.11549300 15020.93729547 0 90.16935946 0 5230.77661850 0 56.79781535 0 -1203.25168269 0 14776
0.11650000 0.11649800 14874.78260787 0 188.36571151 0 4799.22168637 0 145.70072229 0 -879.90104485 0 14553
0.11750000 0.11747300 14772.14215680 0 190.44066518 0 4855.71268759 0 770.38910900 0 -1101.12166580 0 14568
0.11850000 0.11849100 14873.01103589 0 169.13197607 0 4658.01632796 0 70.23031692 0 -1181.05167143 0 16015
0.11950000 0.11950300 14613.69718864 0 76.10872489 0 4640.22310197 0 151.95326411 0 -1515.12585586 0 15270
0.12050000 0.12050700 14524.45425060 0 298.67374752 0 4858.37004555 0 -93.78779521 0 -987.39892482 0 15999
0.12150000 0.12150000 14259.05062470 0 321.12731502 0 4853.36535473 0 317.71039558 0 -228.89817098 0 15670
0.12250000 0.12250700 14137.47649819 0 -7.36756922 0 4601.52532673 0 688.27453368 0 -349.50789799 0 16887
0.12350000 0.12352200 13982.35322748 0 62.77321688 0 4568.52979877 0 1257.39535106 0 -58.26190886 0 16407
0.12450000 0.12449800 13875.39456973 0 164.87798887 0 3933.03371581 0 986.33376717 0 488.76009831 0 16306
0.12550000 0.12549900 13490.74200554 0 310.42591308 0 3392.67104768 0 609.82932680 0 549.05887204 0 17523
0.12650000 0.12650100 13397.51303056 0 16.26590950 0 3314.57794074 0 496.61037660 0 404.72558186 0 17154
0.12750000 0.12750600 13177.50593642 0 242.89248231 0 2671.65232782 0 150.99329355 0 320.97008801 0 18007
0.12850000 0.12850300 13064.23605352 0 251.84667140 0 3141.84967356 0 -260.74439162 0 -97.55172131 0 17496
0.12950000 0.12949900 12680.02638231 0 219.18442041 0 2792.72819971 0 -122.57838637 0 695.63873692 0 18405
0.13050000 0.13049000 12637.17648527 0 116.07450277 0 3148.55950240 0 -65.69210315 0 62.03059605 0 18100
0.13150000 0.13148800 12658.87824191 0 -25.09453842 0 2872.05033471 0 -181.35250097 0 184.00321553 0 19059
0.13250000 0.13249300 12603.62734107 0 218.61973185 0 3612.95494995 0 -199.82335323 0 -199.01507352 0 18957
0.13350000 0.13349100 12330.14091804 0 450.69012388 0 3681.65872545 0 -705.30487648 0 256.99530244 0 19468
0.13450000 0.13450700 12161.39868781 0 343.98723684 0 3901.43330077 0 42.21124535 0 413.72848917 0 19953
0.13550000 0.13551000 11886.47286256 0 41.54779165 0 3828.10129350 0 115.90177450 0 215.92362075 0 19956
0.13650000 0.13649900 11817.82444869 0 148.12334696 0 4011.48113715 0 342.20902147 0 -388.95305516 0 19723
0.13750000 0.13749600 11741.97902368 0 312.35249760 0 3906.41584694 0 203.90350493 0 -101.89727663 0 20946
0.13850000 0.13851100 11291.99974305 0 359.69222236 0 3555.15741440 0 113.32524452 0 -51.58562916 0 20955
0.13950000 0.13949800 11096.57321000 0 196.80946642 0 3314.60008539 0 218.89653997 0 269.83698476 0 20506
0.14050000 0.14048300 11009.64438785 0 -89.10973797 0 3407.07614227 0 219.52101909 0 142.02581768 0 21447
0.14150000 0.14148400 11182.27300410 0 -15.34757088 0 3368.40051168 0 620.42221996 0 68.06556670 0 21771
0.14250000 0.14249400 11009.55580925 0 116.72334101 0 2994.45488558 0 373.90687296 0 398.14197753 0 22470
0.14350000 0.14350900 10947.80545374 0 135.61051268 0 2888.12735035 0 217.33423494 0 467.24214225 0 22519
0.14450000 0.14449900 10875.70247452 0 36.67607945 0 2787.02595243 0 -103.86161777 0 432.82160609 0 22218
0.14550000 0.14550500 10850.28041673 0 60.16302703 0 2885.86859608 0 100.48754823 0 439.61004844 0 23559
0.14650000 0.14650700 11004.35181658 0 56.57858331 0 2826.02268044 0 -297.19559215 0 359.39991299 0 23044
0.14750000 0.14750500 10772.78521533 0 133.66067628 0 3146.51112231 0 -56.41371640 0 557.44505085 0 23649
0.14850000 0.14849900 10637.95751601 0 251.25319478 0 3040.82578192 0 -7.16229939 0 217.85574143 0 23640
0.14950000 0.14949500 10512.24234002 0 285.27402002 0 3224.68173553 0 120.38052989 0 593.42567759 0 24457
0.15050000 0.15050000 10281.14077641 0 31.61026940 0 3056.13880714 0 221.09218198 0 228.45084905 0 24591
0.15150000 0.15149900 10219.11361277 0 246.25182566 0 3015.59195366 0 380.14612800 0 320.87818771 0 25020
0.15250000 0.15250500 10134.80893160 0 167.22421450 0 2861.22160104 0 118.31443408 0 355.39616033 0 25297
0.15350000 0.15350100 9792.62980541 0 210.04310904 0 2797.06855104 0 -182.76532962 0 357.19762758 0 25452
0.15450000 0.15450400 9656.51771641 0 406.75735347 0 2829.97550040 0 -79.10544960 0 339.50958868 0 26061
0.15550000 0.15549900 9357.84175443 0 260.03797730 0 2719.87230240 0 -281.35995320 0 131.71083988 0 26128
0.15650000 0.15649500 9202.18701213 0 69.28972293 0 2703.16416425 0 154.91289654 0 -221.84177837 0 26331
0.15750000 0.15749700 9113.64163055 0 107.84101131 0 2838.60084143 0 86.48725784 0 -515.39346843 0 27345
0.15850000 0.15849900 8933.50597808 0 160.20546780 0 2407.17877720 0 78.33370856 0 -858.85476984 0 26980
0.15950000 0.15949700 8990.53952322 0 101.37787387 0 2538.99480416 0 -7.36165660 0 -734.39962441 0 27777
0.16050000 0.16050000 8781.41652437 0 57.64274445 0 2668.46349827 0 -115.57735539 0 -875.91943685 0 28224
0.16150000 0.16150500 8840.44308798 0 96.95281926 0 2542.88119018 0 14.31408008 0 -651.32840022 0 28075
0.16250000 0.16249700 8771.65073388 0 36.57587491 0 2785.98515389 0 -139.97522312 0 -494.82773231 0 28590
0.16350000 0.16349900 8912.01459561 0 64.64532556 0 2998.65129669 0 25.31864227 0 -138.58896806 0 29163
0.16450000 0.16449100 9024.28796927 0 -42.07173406 0 3074.25313055 0 -57.27425748 0 -390.62165451 0 28996
0.16550000 0.16550500 8862.25556787 0 66.20884855 0 3266.60155730 0 173.72366917 0 -78.85145047 0 30777
0.16650000 0.16650700 8981.30520432 0 69.80115361 0 3048.17780560 0 97.97258037 0 -87.56094118 0 29211
0.16750000 0.16749900 8906.41199925 0 62.04986190 0 3194.03354043 0 183.53264173 0 2.29661054 0 30922
0.16850000 0.16850800 8831.26413070 0 156.55935124 0 2793.80221522 0 140.54101892 0 26.28791358 0 30867
0.16950000 0.16949900 8700.82107201 0 137.53156104 0 2899.87508698 0 394.31206037 0 230.35750339 0 30852
0.17050000 0.17049200 8438.24088894 0 217.97532254 0 2645.58807519 0 350.87754457 0 286.60380623 0 31257
0.17150000 0.17149500 8457.15241973 0 108.35188838 0 2841.74538168 0 487.70822745 0 761.67186767 0 32608
0.17250000 0.17250900 8273.25217682 0 73.32259580 0 2271.91925721 0 255.62011969 0 637.34405398 0 32361
0.17350000 0.17350400 8203.25293931 0 55.72645720 0 2322.28726281 0 432.20377037 0 1107.87467670 0 32508
0.17450000 0.17449800 8215.18890547 0 -52.33910086 0 2037.06417548 0 114.44687102 0 782.59302541 0 32791
0.17550000 0.17549800 8173.51267485 0 42.33536611 0 2116.51917838 0 3.35684100 0 709.08718264 0 33633
0.17650000 0.17650100 8116.18017694 0 163.15402790 0 1889.27078381 0 -325.57396066 0 183.91463694 0 33984
0.17750000 0.17750300 7994.68355671 0 92.43198903 0 1826.09209839 0 -37.11952606 0 213.00606316 0 34069
0.17850000 0.17849800 7875.36818446 0 106.15281395 0 1793.28479995 0 -252.14230247 0 -41.05263728 0 34536
