### header ###
fiducial parameters:
Omega_m = 0.31
Omega_nu = 0
Omega_de = 0.69
Omega_k = 0
H_0 = 100
w_de = -1
zeff = 0
beta = 0
fgrowth = 0
b_1 = 2
gamma = 0.55
Lx = 3500 Ly = 3500 Lz = 3500
nx = 700 ny = 700 nz = 700
xoffset = -685.467585 yoffset = -31.7331281 zoffset = 572.489161
bins = 400 dk = 0.001
kx_ny = 0.628318531 ky_ny = 0.628318531 kz_ny = 0.628318531
############################
A(data) = 8.0906371 (not used)
A(ran) = 8.08501656 (used)
Ngal = 480639
weighted Ngal = 0
Nran = 23820508
weighted Nran = 0
SN(data) = 3492.42454
SN(ran) = 70.4234264
SN(data+ran) = 3562.84796
############################
13 columns: k_central k_mean P_0(k) sigma^{lin}_{P_0(k)} P^img_1(k) sigma^{lin}_{P_1(k)} P_2(k) sigma^{lin}_{P_2(k)} P^img_3(k) sigma^{lin}_{P_3(k)} P_4(k) sigma^{lin}_{P_4(k)} N_modes
### header ###
0.00050000 0 0 0 0 0 0 0 0 0 0 0 0
0.00150000 0.00179520 26052.73740528 0 -13224.45259365 0 30283.02982549 0 -53519.96430615 0 51148.71522298 0 3
0.00250000 0.00253879 34145.61033848 0 2618.04013104 0 13211.83014335 0 -15011.30437288 0 -66.22136028 0 6
0.00350000 0.00331552 36600.12330428 0 11441.80829784 0 26941.07002548 0 8913.46507016 0 -6598.05372106 0 7
0.00450000 0.00420575 44514.73180789 0 -15456.85472358 0 21761.65792182 0 21512.64133664 0 29164.06067932 0 24
0.00550000 0.00557378 57210.03799846 0 -18850.41155725 0 29103.05216957 0 45026.60538426 0 -6153.41130099 0 45
0.00650000 0.00659388 89506.57009222 0 -15691.58800974 0 -1054.83159743 0 65259.95031136 0 14878.43647506 0 40
0.00750000 0.00754703 88465.21794303 0 -8152.25381120 0 22434.52310104 0 -3931.71610915 0 -32358.98000574 0 57
0.00850000 0.00846663 96801.90346873 0 6157.75165232 0 16420.58987580 0 -8457.30743228 0 35519.79657172 0 75
0.00950000 0.00948925 87314.24977813 0 3118.53135750 0 26075.43567116 0 -24053.85060577 0 31592.77512829 0 112
0.01050000 0.01054430 91044.95890252 0 7694.94465154 0 33668.39313880 0 -7891.54485102 0 44404.34072945 0 105
0.01150000 0.01145670 91799.87000866 0 10746.75417968 0 46542.40665193 0 20534.51216217 0 34638.32879291 0 144
0.01250000 0.01249090 96273.42140514 0 379.04553891 0 48174.02443721 0 16967.34127534 0 29795.95825672 0 169
0.01350000 0.01339930 82893.29192454 0 3826.61760197 0 39549.56918947 0 26530.61894445 0 46225.62743887 0 180
0.01450000 0.01448870 92275.75852936 0 1341.02462041 0 41332.10276202 0 33731.17322052 0 -1523.79548619 0 267
0.01550000 0.01550050 83923.79319541 0 8018.02401742 0 24001.69995588 0 6383.05131773 0 -4487.60217667 0 238
0.01650000 0.01653350 81262.22775551 0 8915.66846280 0 3846.01631506 0 6846.57205161 0 -8042.85924199 0 315
0.01750000 0.01747870 76313.78434756 0 -11113.07097398 0 1748.33116119 0 6761.69160955 0 9666.34994085 0 297
0.01850000 0.01844180 82789.43351774 0 -10306.76213604 0 -6955.80053595 0 1451.68143465 0 -19348.99834383 0 388
0.01950000 0.01947590 84481.28475003 0 -3202.62566449 0 -6499.54324714 0 4805.90937056 0 -27397.80342425 0 399
0.02050000 0.02045430 78621.03539327 0 13374.26114844 0 -8946.54917671 0 -2264.02468962 0 -24324.34750109 0 462
0.02150000 0.02154770 66536.92153269 0 12461.45869039 0 -2034.75005960 0 -7586.20334950 0 1588.44679081 0 571
0.02250000 0.02255340 60796.36400722 0 5610.51307048 0 1710.05413429 0 1924.94581437 0 -6550.15484389 0 510
0.02350000 0.02348930 58345.50490861 0 -212.44137460 0 8127.83933497 0 -2866.94599297 0 7669.82154653 0 555
0.02450000 0.02439640 58616.33397367 0 -1363.19141470 0 9686.36870412 0 -4624.58897933 0 -6545.49339514 0 592
0.02550000 0.02547300 66070.00159509 0 -2238.19295582 0 18597.18748865 0 -5656.62930335 0 7895.77447910 0 837
0.02650000 0.02652900 64917.15113497 0 479.09949490 0 24557.75210827 0 -3904.96537239 0 566.26637204 0 723
0.02750000 0.02749970 65264.60068778 0 4710.84238967 0 24059.05459844 0 -3849.65910992 0 10401.87340623 0 826
0.02850000 0.02848090 61467.12544473 0 5579.57699494 0 28265.20935054 0 5577.94936319 0 1223.76870058 0 831
0.02950000 0.02946900 59716.03727466 0 3842.20743532 0 28873.85504582 0 7844.76427866 0 113.35403256 0 996
0.03050000 0.03053250 55572.77332752 0 -180.10354273 0 25638.07884082 0 6146.10356661 0 2627.18587134 0 1041
0.03150000 0.03150510 56541.60174915 0 -27.63585841 0 19941.81061462 0 5998.68663397 0 971.69283206 0 1036
0.03250000 0.03246190 54703.15293627 0 95.00386864 0 19776.83297483 0 1763.48917387 0 -1632.74716241 0 1059
0.03350000 0.03345080 56328.34877315 0 758.79417045 0 19734.53669402 0 -5006.00842468 0 -31.56631227 0 1302
0.03450000 0.03451200 52629.19577449 0 2468.25372090 0 18345.07065253 0 530.15177018 0 -5720.70484708 0 1339
0.03550000 0.03553350 53731.77787993 0 30.32444032 0 23022.46354891 0 -3627.72543126 0 -5937.20201425 0 1365
0.03650000 0.03647120 54922.93858392 0 263.29656249 0 22634.37856402 0 2796.45957317 0 -8821.33225534 0 1308
0.03750000 0.03744890 52726.30006315 0 1110.17772027 0 22115.30797652 0 -2612.03893099 0 -10125.24244296 0 1579
0.03850000 0.03847530 52094.84537874 0 2777.76948888 0 22300.65869399 0 3997.09818721 0 -4670.14052363 0 1662
0.03950000 0.03950240 50376.19912039 0 1265.11276145 0 21824.88089653 0 2637.51635040 0 -4354.36889213 0 1683
0.04050000 0.04050350 48581.70743703 0 254.88159563 0 21407.67569736 0 3619.85300831 0 -5890.90862419 0 1822
0.04150000 0.04152450 50414.28791776 0 559.24983980 0 21191.65464015 0 -104.88237540 0 -6480.03381081 0 1887
0.04250000 0.04250150 48209.12370688 0 1488.35297445 0 21883.56421807 0 -155.53294673 0 -3497.91349508 0 1920
0.04350000 0.04349210 46772.37883841 0 1595.59951264 0 20168.23965716 0 -372.54719148 0 -3804.14078259 0 2005
0.04450000 0.04448520 46914.43676584 0 -86.02188803 0 21016.37973827 0 3638.67596050 0 -5337.60240835 0 2151
0.04550000 0.04548030 45654.84909447 0 868.20866984 0 18589.54758452 0 2355.14992287 0 -7771.99695995 0 2274
0.04650000 0.04648670 45868.54496347 0 2451.39057020 0 18504.62285316 0 -1817.83214408 0 -7078.30473774 0 2311
0.04750000 0.04749250 42164.74158838 0 4223.85939949 0 19153.46108754 0 1092.73216528 0 -1576.96478997 0 2568
0.04850000 0.04851840 40292.07929181 0 2169.02414267 0 17900.84898080 0 1267.34937107 0 1488.06509400 0 2493
0.04950000 0.04949480 38213.25030710 0 465.58350800 0 15008.31484518 0 6397.78858206 0 2888.14949499 0 2644
0.05050000 0.05050630 37010.90655505 0 388.44704992 0 13533.48117934 0 6339.14954982 0 -1771.69376656 0 2829
0.05150000 0.05149060 37632.94976336 0 -777.81088833 0 12548.15499372 0 4406.84063945 0 -1089.03954496 0 2784
0.05250000 0.05249300 36090.02129988 0 -259.91286003 0 9748.48444635 0 308.41960782 0 -1801.83263471 0 3055
0.05350000 0.05348950 36453.30427718 0 717.84649880 0 9764.49502804 0 509.98020882 0 745.20953513 0 3009
0.05450000 0.05448610 37886.94889470 0 -587.01812321 0 10079.10406544 0 791.06999730 0 -1283.75855645 0 3336
0.05550000 0.05550870 37114.98640834 0 78.43612757 0 8356.58249340 0 -548.63701646 0 1555.14123775 0 3349
0.05650000 0.05647670 37325.36057990 0 1559.21585329 0 8851.02823050 0 -1275.97471210 0 628.35000453 0 3324
0.05750000 0.05747970 35239.44530731 0 2185.05686901 0 11029.37527067 0 227.00258897 0 4175.28511051 0 3639
0.05850000 0.05849280 34696.67994470 0 842.11009301 0 11635.46325892 0 1089.61309138 0 3660.27806622 0 3846
0.05950000 0.05951020 33952.06610065 0 -644.50895537 0 11516.32504387 0 3712.31799287 0 8165.36344378 0 3787
0.06050000 0.06049470 34710.63107397 0 -434.87330788 0 10521.29950172 0 4386.41220015 0 2556.69945155 0 3930
0.06150000 0.06148310 34013.73894989 0 81.01465057 0 9832.20229431 0 42.45937615 0 5789.05430818 0 4083
0.06250000 0.06249100 34842.39173932 0 596.61893606 0 10260.93378361 0 -2195.80809641 0 1422.50585875 0 4303
0.06350000 0.06350600 33264.69617591 0 806.03424429 0 9843.58464422 0 -3913.36926693 0 -593.24409146 0 4470
0.06450000 0.06451750 33319.72563026 0 1142.43140246 0 10030.48548716 0 -2104.68286315 0 -2627.10836507 0 4479
0.06550000 0.06550280 32845.16578853 0 670.40490865 0 10294.25040899 0 -916.66005602 0 -5587.29440534 0 4636
0.06650000 0.06648880 32694.58217100 0 157.92346166 0 9955.73622231 0 -171.46602214 0 -6009.47107835 0 4653
0.06750000 0.06749660 31575.83447132 0 352.09217861 0 10090.16531793 0 1391.58085553 0 -6787.70050055 0 5220
0.06850000 0.06852730 31535.42048573 0 1441.57240209 0 10394.25564675 0 1361.53056597 0 -6617.85103783 0 5029
0.06950000 0.06949320 30681.41207247 0 680.53830033 0 9814.79659969 0 1586.85237603 0 -3568.06774513 0 5040
0.07050000 0.07048030 30076.30952113 0 752.96459143 0 10176.50730687 0 897.50714854 0 -2922.77265470 0 5475
0.07150000 0.07148790 29369.23085821 0 716.28197931 0 10271.39713056 0 832.12839219 0 -1465.62149159 0 5509
0.07250000 0.07249820 28370.95005256 0 827.99952226 0 9615.14043856 0 620.28381590 0 -2118.26860570 0 5916
0.07350000 0.07351270 28220.92005127 0 1109.64624868 0 10825.16838404 0 -137.22707210 0 -771.21288997 0 5721
0.07450000 0.07449140 26447.13361532 0 1209.05358090 0 9913.71674962 0 -599.22979026 0 -2802.93688319 0 6028
0.07550000 0.07549160 25911.45454060 0 1194.17237634 0 10379.37444220 0 17.45983828 0 -1165.90473108 0 6183
0.07650000 0.07648840 24246.50905762 0 931.65309105 0 9577.57204045 0 364.59836949 0 -1235.82646231 0 6330
0.07750000 0.07749960 24735.35219836 0 -118.64660383 0 9003.42770931 0 1825.37239728 0 -1570.26603346 0 6583
0.07850000 0.07848650 24320.36146416 0 -724.10789849 0 8125.85738883 0 1911.21613160 0 -1426.89049938 0 6549
0.07950000 0.07947320 25066.30398719 0 86.09839779 0 8791.38161671 0 628.24592467 0 -2775.11213092 0 6828
0.08050000 0.08048110 25048.03465124 0 742.32851621 0 8147.91345987 0 -515.37685994 0 -1713.40904871 0 7147
0.08150000 0.08149960 24083.30298979 0 395.32185640 0 8566.59127824 0 -808.92412107 0 -124.61790860 0 7386
0.08250000 0.08250610 24002.47501861 0 190.44509411 0 8771.73931248 0 839.11170745 0 728.84242458 0 7227
0.08350000 0.08350160 23988.74533584 0 -249.31110901 0 9472.21886980 0 1481.89780908 0 290.75814251 0 7798
0.08450000 0.08449610 24580.78254389 0 226.19541649 0 7905.19702752 0 2136.70402653 0 407.59663569 0 7371
0.08550000 0.08548940 23504.55257152 0 881.38141468 0 8587.40724890 0 399.30457163 0 1255.59056211 0 8256
0.08650000 0.08650700 23129.31148341 0 829.11893430 0 7781.86240137 0 -1029.63541507 0 978.51227692 0 8037
0.08750000 0.08749060 22332.98988246 0 860.86771849 0 8871.00270448 0 -137.37322679 0 3068.83876371 0 8155
0.08850000 0.08849210 21719.14019451 0 470.86389970 0 8929.78567694 0 -855.30719696 0 708.66643430 0 8718
0.08950000 0.08949900 21761.65792182 0 223.85915595 0 8897.33269290 0 1092.76648949 0 894.07583508 0 8571
0.09050000 0.09049190 20984.93433579 0 409.46010796 0 7799.56704875 0 457.03345877 0 -559.04721626 0 8932
0.09150000 0.09150830 21037.08498568 0 438.63679109 0 7138.38317221 0 821.02285039 0 -1002.48275292 0 9285
0.09250000 0.09250820 20235.78083856 0 501.60399510 0 7027.21703103 0 166.68277782 0 -1441.49489581 0 9204
0.09350000 0.09350330 19728.22546887 0 504.31339298 0 6787.75586217 0 -343.38158067 0 -2383.42864046 0 9349
0.09450000 0.09448040 19784.02998596 0 316.72717313 0 7338.93619165 0 -817.59818033 0 -2043.03215856 0 9564
0.09550000 0.09549270 19279.79631372 0 35.02287063 0 7858.52717841 0 -200.02819124 0 -2424.20801277 0 10155
0.09650000 0.09649430 19352.20931803 0 514.13565233 0 7619.25423908 0 -252.13455184 0 -1864.38019761 0 9913
0.09750000 0.09749140 18945.41210419 0 590.81703786 0 7525.61558809 0 205.84891240 0 -2107.51737831 0 10476
0.09850000 0.09850240 18288.49107270 0 260.11659080 0 7740.17509842 0 915.73219520 0 -1617.88810250 0 10575
0.09950000 0.09950330 18221.28206105 0 320.19723973 0 7118.82944658 0 676.94643816 0 -1486.90249990 0 10882
0.10050000 0.10051200 17844.15867773 0 358.39454589 0 7231.15818186 0 1172.68099387 0 -1199.18813948 0 10875
0.10150000 0.10150300 17391.41131590 0 203.26020286 0 6699.15511897 0 852.26784380 0 86.42248474 0 11118
0.10250000 0.10250800 17065.77424298 0 373.37761584 0 6376.13111472 0 1385.49107688 0 -8.45473865 0 11575
0.10350000 0.10349800 16813.32523711 0 173.74581382 0 5962.77908459 0 873.38498169 0 858.92563271 0 11364
0.10450000 0.10450100 16738.58704459 0 199.35720836 0 6100.71810718 0 1036.29763291 0 664.30959384 0 12093
0.10550000 0.10551000 16508.72558135 0 109.79405869 0 5280.32527206 0 539.60642834 0 1105.11434613 0 12067
0.10650000 0.10649700 16576.48820924 0 53.31778365 0 5343.99113977 0 47.81871353 0 555.65354870 0 12054
0.10750000 0.10749900 16438.63776525 0 113.12040651 0 4555.74126361 0 91.78625105 0 208.48634017 0 12807
0.10850000 0.10850100 16400.99186087 0 182.54609759 0 4721.19501337 0 -823.49640776 0 -125.29664211 0 12736
0.10950000 0.10950300 16204.79026508 0 277.60754232 0 5129.33197851 0 -289.13272522 0 -555.89160368 0 12933
0.11050000 0.11050200 15964.63153977 0 273.18968472 0 4944.68988984 0 -76.90770385 0 -730.09027559 0 13428
0.11150000 0.11150900 15699.11719061 0 313.88712182 0 5271.58920778 0 389.35830225 0 -827.44258432 0 13453
0.11250000 0.11250000 15289.88406532 0 406.66102424 0 4849.22430525 0 441.33400941 0 -533.39706858 0 13668
0.11350000 0.11349100 15182.37179133 0 307.19168700 0 5690.51061730 0 532.30976628 0 538.47483674 0 13791
0.11450000 0.11448600 14803.14466629 0 282.11840745 0 4722.61227095 0 552.16908808 0 846.18027962 0 14205
0.11550000 0.11549300 14785.09677683 0 234.51516136 0 5123.30863381 0 376.34389166 0 1121.54899786 0 14776
0.11650000 0.11649800 14462.11706187 0 253.49866226 0 4994.07245853 0 399.13405783 0 1851.39236060 0 14553
0.11750000 0.11747300 14676.03437737 0 6.57991725 0 5057.49473509 0 212.87762420 0 1611.86475780 0 14568
0.11850000 0.11849100 14461.12055264 0 220.85412700 0 4917.21945196 0 -57.08813170 0 1410.84670072 0 16015
0.11950000 0.11950300 14162.72139878 0 427.00642110 0 4984.04093224 0 -470.37007402 0 1435.63763599 0 15270
0.12050000 0.12050700 13975.70983259 0 509.98353052 0 5334.39143415 0 -453.55231985 0 1280.45900365 0 15999
0.12150000 0.12150000 13436.93050692 0 220.11892463 0 5294.20996739 0 22.05097777 0 839.65535860 0 15670
0.12250000 0.12250700 13328.86461669 0 -11.81284190 0 5183.39814060 0 371.12550497 0 103.02765027 0 16887
0.12350000 0.12352200 13425.30456586 0 -96.07865921 0 4967.54316826 0 523.10091373 0 -297.90311371 0 16407
0.12450000 0.12449800 13372.37885322 0 -267.29699345 0 4735.99871165 0 568.08776947 0 -767.36082816 0 16306
0.12550000 0.12549900 13365.62473508 0 109.56010046 0 4423.27196948 0 84.47641293 0 -690.10700344 0 17523
0.12650000 0.12650100 13330.74691191 0 283.04848273 0 4542.44340150 0 -220.41344847 0 -1424.47673257 0 17154
0.12750000 0.12750600 13099.77821619 0 312.30931553 0 4117.86403400 0 -80.67605888 0 -801.38165340 0 18007
0.12850000 0.12850300 12755.65036083 0 292.27394377 0 4330.17586240 0 47.28081999 0 -806.44945647 0 17496
0.12950000 0.12949900 12758.41844203 0 230.95873062 0 4285.12257271 0 397.62711442 0 -158.64537723 0 18405
0.13050000 0.13049000 12705.04983640 0 -159.51787643 0 4090.26072823 0 595.26146904 0 -341.92446272 0 18100
0.13150000 0.13148800 12828.83842788 0 -65.70649717 0 4035.88454105 0 398.58044159 0 -105.76328956 0 19059
0.13250000 0.13249300 12912.87737325 0 43.52741260 0 3878.98969837 0 190.44177242 0 372.54497701 0 18957
0.13350000 0.13349100 12971.00707855 0 -155.34803890 0 3718.66243499 0 424.99015075 0 670.38830017 0 19468
0.13450000 0.13450700 12939.22950632 0 102.15470818 0 3689.08825540 0 230.65645616 0 577.29994372 0 19953
0.13550000 0.13551000 12934.91129964 0 177.68756146 0 3513.22652031 0 -83.55375610 0 330.05935945 0 19956
0.13650000 0.13649900 12687.99845618 0 379.08318482 0 3926.68927368 0 -194.27279680 0 626.45552975 0 19723
0.13750000 0.13749600 12333.90550848 0 470.06226339 0 4037.52324512 0 -304.57529665 0 233.89511117 0 20946
0.13850000 0.13851100 11825.79652256 0 350.51880125 0 4218.09071826 0 -325.90502318 0 -149.22947221 0 20955
0.13950000 0.13949800 11798.22643376 0 186.17117673 0 4195.82427305 0 148.05359131 0 169.27259459 0 20506
0.14050000 0.14048300 11648.30715571 0 -33.91143067 0 4149.78554646 0 235.26586498 0 -48.62544312 0 21447
0.14150000 0.14148400 11535.92305880 0 103.10714956 0 3891.47928076 0 638.96504233 0 259.53640098 0 21771
0.14250000 0.14249400 11491.41231303 0 155.73224857 0 3607.05340082 0 307.91913874 0 258.69379706 0 22470
0.14350000 0.14350900 11327.20973597 0 272.16549467 0 3812.30108598 0 348.13714418 0 210.57458063 0 22519
0.14450000 0.14449900 11123.81112905 0 378.57496511 0 3549.74304756 0 280.12428175 0 599.21539623 0 22218
0.14550000 0.14550500 10700.44971729 0 375.19126264 0 3455.10788733 0 147.48225935 0 741.44494469 0 23559
0.14650000 0.14650700 10504.38098940 0 310.65621744 0 3138.32867427 0 136.40882730 0 925.60760170 0 23044
0.14750000 0.14750500 10296.29878908 0 -21.33194100 0 3343.11132179 0 269.55906941 0 646.99912122 0 23649
0.14850000 0.14849900 10446.32879037 0 -35.27100143 0 3112.71838697 0 137.59688775 0 264.61638361 0 23640
0.14950000 0.14949500 10200.35709453 0 -39.49797216 0 3110.65893455 0 -34.89122069 0 -54.89459343 0 24457
0.15050000 0.15050000 10410.47660261 0 -58.41193886 0 3081.98161327 0 -249.52812658 0 -179.50010103 0 24591
0.15150000 0.15149900 10366.90700445 0 41.97097590 0 2820.69689220 0 -277.75258977 0 -574.94153853 0 25020
0.15250000 0.15250500 10452.47393065 0 164.77833795 0 3045.99655761 0 4.36063583 0 -383.36706729 0 25297
0.15350000 0.15350100 10070.41229046 0 419.30229749 0 2805.61638580 0 130.49842031 0 -108.17262744 0 25452
0.15450000 0.15450400 9903.51913847 0 335.17477352 0 2869.57013395 0 360.72637750 0 131.42738836 0 26061
0.15550000 0.15549900 9725.67545723 0 120.23216074 0 2695.88964684 0 599.85205491 0 60.82039095 0 26128
0.15650000 0.15649500 9554.18729044 0 18.89337218 0 2525.55300183 0 421.44257787 0 118.02433917 0 26331
0.15750000 0.15749700 9365.11627183 0 194.86295172 0 2511.44686001 0 156.75422416 0 177.94443939 0 27345
0.15850000 0.15849900 9258.91053217 0 206.14675794 0 2428.12761575 0 -84.09840376 0 47.86676742 0 26980
0.15950000 0.15949700 9068.06794160 0 169.14083393 0 2382.04459986 0 -136.26710154 0 264.95076782 0 27777
0.16050000 0.16050000 8967.08833925 0 136.63248826 0 2217.64272095 0 33.97111050 0 230.12277010 0 28224
0.16150000 0.16150500 8928.16911752 0 84.32051459 0 2345.94882095 0 242.01112526 0 244.53672255 0 28075
0.16250000 0.16249700 8860.39541730 0 15.16144510 0 2194.92231042 0 207.81757175 0 360.66990864 0 28590
0.16350000 0.16349900 8797.05064701 0 -35.48525092 0 2174.36100324 0 269.71186749 0 125.07962455 0 29163
0.16450000 0.16449100 8725.15804197 0 198.02299322 0 2141.42083690 0 102.88847114 0 405.90478446 0 28996
0.16550000 0.16550500 8685.08729845 0 231.99177853 0 2316.87289598 0 -78.16286259 0 617.31975454 0 30777
0.16650000 0.16650700 8639.85685156 0 112.79045123 0 2428.12761575 0 -88.35205878 0 726.08873740 0 29211
0.16750000 0.16749900 8380.55407663 0 118.91676855 0 2803.70087360 0 -282.16823291 0 706.00464741 0 30922
0.16850000 0.16850800 8527.67205650 0 192.87436218 0 2675.22868873 0 -62.51489954 0 751.87839637 0 30867
0.16950000 0.16949900 8381.72774307 0 48.00207123 0 2808.81628767 0 -193.28403820 0 695.38850238 0 30852
0.17050000 0.17049200 8334.65929026 0 139.70173670 0 2913.64905905 0 -20.26634046 0 635.11630222 0 31257
0.17150000 0.17149500 8205.74421240 0 129.88944245 0 2868.42968449 0 115.83644779 0 549.02233337 0 32608
0.17250000 0.17250900 8110.95403963 0 70.44733449 0 2712.23239828 0 361.76939050 0 413.83699796 0 32361
0.17350000 0.17350400 8053.94263913 0 2.93914862 0 2526.00696715 0 224.30204894 0 525.46817678 0 32508
0.17450000 0.17449800 8079.07681647 0 15.09999369 0 2320.72606501 0 437.74657617 0 -29.66475121 0 32791
0.17550000 0.17549800 7978.09721413 0 133.69610772 0 2016.81289339 0 50.47728945 0 334.47168089 0 33633
0.17650000 0.17650100 7973.69042885 0 99.90193297 0 1892.52604730 0 187.50649911 0 322.13489658 0 33984
0.17750000 0.17750300 7811.84625697 0 13.50502530 0 1849.65400560 0 335.58334230 0 438.56482097 0 34069
0.17850000 0.17849800 7852.94672670 0 53.35321509 0 1577.59591249 0 215.81954090 0 259.37142334 0 34536
