### header ###
fiducial parameters:
Omega_m = 0.31
Omega_nu = 0
Omega_de = 0.69
Omega_k = 0
H_0 = 100
w_de = -1
zeff = 0
beta = 0
fgrowth = 0
b_1 = 2
gamma = 0.55
Lx = 3500 Ly = 3500 Lz = 3500
nx = 700 ny = 700 nz = 700
xoffset = -685.467585 yoffset = -31.7331281 zoffset = 572.489161
bins = 400 dk = 0.001
kx_ny = 0.628318531 ky_ny = 0.628318531 kz_ny = 0.628318531
############################
A(data) = 8.05419354 (not used)
A(ran) = 8.05160695 (used)
Ngal = 478848
weighted Ngal = 0
Nran = 23820508
weighted Nran = 0
SN(data) = 3490.9152
SN(ran) = 70.1324166
SN(data+ran) = 3561.04762
############################
13 columns: k_central k_mean P_0(k) sigma^{lin}_{P_0(k)} P^img_1(k) sigma^{lin}_{P_1(k)} P_2(k) sigma^{lin}_{P_2(k)} P^img_3(k) sigma^{lin}_{P_3(k)} P_4(k) sigma^{lin}_{P_4(k)} N_modes
### header ###
0.00050000 0 0 0 0 0 0 0 0 0 0 0 0
0.00150000 0.00179520 8108.03094587 0 6073.22552465 0 25166.50852680 0 -14776.68180997 0 -42964.82777978 0 3
0.00250000 0.00253879 18524.44231459 0 8551.35575929 0 16269.56336527 0 9543.66858186 0 40640.63607710 0 6
0.00350000 0.00331552 20296.23573207 0 -3277.60744817 0 11985.12727670 0 25280.77491893 0 40395.60552886 0 7
0.00450000 0.00420575 22396.98791991 0 -12998.35572085 0 21541.20793468 0 5346.30525566 0 4600.93849352 0 24
0.00550000 0.00557378 56382.04954852 0 -13886.13472481 0 29855.85953399 0 33859.05857217 0 -9904.40492445 0 45
0.00650000 0.00659388 70778.61844747 0 -14659.42589014 0 37135.58093251 0 12766.50123915 0 29390.71116836 0 40
0.00750000 0.00754703 67478.51203527 0 5424.30978401 0 23805.49836009 0 9051.86913039 0 -3412.91125745 0 57
0.00850000 0.00846663 85897.87798733 0 987.02357301 0 42780.36284830 0 -123.97903546 0 10221.46094563 0 75
0.00950000 0.00948925 74832.19656357 0 8516.64402098 0 66608.44875102 0 -5154.96441047 0 -23287.09211208 0 112
0.01050000 0.01054430 80215.33944390 0 7591.37412519 0 69717.88972984 0 6092.49136984 0 13018.39662877 0 105
0.01150000 0.01145670 77094.05107753 0 1282.54060072 0 58791.38742906 0 9137.17032079 0 -4186.86676227 0 144
0.01250000 0.01249090 83858.68792548 0 -9214.26691850 0 46513.72933065 0 34205.17944600 0 -1618.05418737 0 169
0.01350000 0.01339930 81533.38899031 0 -15201.63763651 0 39555.32679837 0 36894.42569796 0 -40786.90148795 0 180
0.01450000 0.01448870 109548.25307671 0 -3083.22171365 0 23789.66493560 0 8021.85504181 0 -34133.43078118 0 267
0.01550000 0.01550050 100999.42180748 0 507.96947463 0 4173.71284039 0 17849.91628664 0 -10779.71649066 0 238
0.01650000 0.01653350 92353.48624959 0 3175.17737127 0 -4510.97585436 0 7728.83703781 0 -11141.08395577 0 315
0.01750000 0.01747870 101242.79150699 0 -5483.76816828 0 -16088.42013124 0 13563.48717959 0 -17734.54266203 0 297
0.01850000 0.01844180 96975.73896838 0 4161.04610080 0 -17108.51341678 0 6651.78771340 0 -22313.28114428 0 388
0.01950000 0.01947590 85245.16443927 0 12774.03042002 0 -17603.11416643 0 -13499.37841889 0 -5298.17385967 0 399
0.02050000 0.02045430 75022.52982721 0 13323.66062402 0 -3053.06070084 0 -12042.26047276 0 1013.26941176 0 462
0.02150000 0.02154770 63892.62891950 0 10386.31678986 0 12756.86831656 0 -13933.30282854 0 -718.27942671 0 571
0.02250000 0.02255340 60793.26375627 0 5749.76969972 0 23375.44926413 0 -9600.40317423 0 -42.95962379 0 510
0.02350000 0.02348930 56773.67767735 0 116.47532093 0 26171.54345059 0 -10144.58579442 0 -1197.66015866 0 555
0.02450000 0.02439640 57868.39843217 0 -5170.00062757 0 28900.53934864 0 -4716.05745466 0 1949.68138802 0 592
0.02550000 0.02547300 70366.06362472 0 -10829.51980770 0 34824.56529636 0 -1087.29786826 0 -10669.19254432 0 837
0.02650000 0.02652900 74031.11386294 0 -3363.22973599 0 33430.89177144 0 3552.22324832 0 -9979.45314207 0 723
0.02750000 0.02749970 81759.92875610 0 2266.46060108 0 34244.70764561 0 3904.54462405 0 -13092.13831206 0 826
0.02850000 0.02848090 73484.58390990 0 1610.74645299 0 32314.57998322 0 25.06907207 0 -3528.36238833 0 831
0.02950000 0.02946900 75660.62790650 0 6955.90018687 0 31668.62055330 0 6012.48275070 0 -7890.03901484 0 996
0.03050000 0.03053250 69306.22069308 0 5263.76107413 0 30666.68588046 0 7669.17935169 0 -3468.27288154 0 1041
0.03150000 0.03150510 62725.82733011 0 5107.67451117 0 27958.50595307 0 5370.79723816 0 1439.98905964 0 1036
0.03250000 0.03246190 61247.89341332 0 5589.50887030 0 26362.87322345 0 3561.95582183 0 -7288.37995652 0 1059
0.03350000 0.03345080 52404.09541092 0 5958.50516721 0 23619.04041014 0 2924.93175804 0 4234.01272135 0 1302
0.03450000 0.03451200 49894.77443727 0 2202.51792525 0 17706.86184998 0 4652.87876924 0 -8212.39867961 0 1339
0.03550000 0.03553350 46064.30366626 0 -1219.98196549 0 16028.96174696 0 4460.33104064 0 -7659.46892282 0 1365
0.03650000 0.03647120 49740.64767580 0 -1571.55042313 0 12842.67883390 0 6244.44795565 0 -12519.69911894 0 1308
0.03750000 0.03744890 47644.87803412 0 -495.89731889 0 12487.47865372 0 2465.60743527 0 -13947.14323456 0 1579
0.03850000 0.03847530 46467.22556641 0 3651.63058054 0 8310.82057493 0 -2994.89777857 0 -7574.10129847 0 1662
0.03950000 0.03950240 44382.63897281 0 3691.85633661 0 14055.87346428 0 -2225.19404648 0 -196.87368590 0 1683
0.04050000 0.04050350 43643.78273766 0 239.21204154 0 15279.91897298 0 -125.18924056 0 3298.61164835 0 1822
0.04150000 0.04152450 44987.74152415 0 -889.69340892 0 18478.93505958 0 2093.95378040 0 -352.17411381 0 1887
0.04250000 0.04250150 45358.55368232 0 -285.71137685 0 17888.55870025 0 1824.45339432 0 1306.12465258 0 1920
0.04350000 0.04349210 45626.61466618 0 -101.43113175 0 20417.69913533 0 -88.86758623 0 998.66280086 0 2005
0.04450000 0.04448520 46283.75714417 0 -270.56554373 0 19519.62286929 0 226.13562593 0 6702.06714040 0 2151
0.04550000 0.04548030 46200.93615452 0 641.93353262 0 19975.69192857 0 230.49258575 0 -2239.21160970 0 2274
0.04650000 0.04648670 44614.05056152 0 2626.74297835 0 17863.64596941 0 2362.49087423 0 -3085.31438304 0 2311
0.04750000 0.04749250 42330.82646066 0 2067.18089899 0 18681.00498752 0 1981.83541929 0 -461.02946080 0 2568
0.04850000 0.04851840 39346.72419879 0 1682.29581597 0 14210.44311875 0 858.24689920 0 -540.18218923 0 2493
0.04950000 0.04949480 40113.15052274 0 1541.32297638 0 18638.70870672 0 2095.58141215 0 2612.26037749 0 2644
0.05050000 0.05050630 39169.89917144 0 226.86197044 0 13935.84946324 0 3437.42538460 0 2276.10459599 0 2829
0.05150000 0.05149060 38133.30812191 0 -346.40100365 0 14066.83506585 0 4061.35088813 0 4539.92998377 0 2784
0.05250000 0.05249300 39110.88368015 0 383.72138168 0 14457.90957844 0 2171.64828366 0 3993.71005581 0 3055
0.05350000 0.05348950 37975.19532350 0 1258.72403003 0 13403.49208596 0 2232.51285318 0 2626.70976138 0 3009
0.05450000 0.05448610 36143.83279850 0 1192.33437042 0 10898.04642600 0 436.61387734 0 3693.66112555 0 3336
0.05550000 0.05550870 34754.47748026 0 742.55771334 0 11808.41297259 0 1928.17893322 0 3711.47649618 0 3349
0.05650000 0.05647670 34066.44321603 0 953.35927663 0 14043.25101399 0 -699.47419023 0 4615.35466043 0 3324
0.05750000 0.05747970 33372.09772665 0 2337.64457734 0 12515.38091226 0 1058.50650204 0 2728.99589805 0 3639
0.05850000 0.05849280 32436.37555622 0 1112.51398080 0 12967.13176486 0 -1650.86148581 0 4904.78523119 0 3846
0.05950000 0.05951020 30987.34040721 0 15.58817250 0 12156.52686489 0 359.08435173 0 2777.54804238 0 3787
0.06050000 0.06049470 32134.32253517 0 -188.23062915 0 14677.91667259 0 -1460.07425686 0 5591.31365924 0 3930
0.06150000 0.06148310 31676.92479691 0 118.38529696 0 14291.27108992 0 115.02041745 0 1128.87887689 0 4083
0.06250000 0.06249100 32090.14395915 0 416.60065023 0 13571.90214646 0 1446.20063386 0 3493.18561239 0 4303
0.06350000 0.06350600 31101.27462959 0 486.57663585 0 10721.52035142 0 2459.15226990 0 1928.82112806 0 4470
0.06450000 0.06451750 31318.84581228 0 -314.60350123 0 10488.84651768 0 3605.22646722 0 3755.19003457 0 4479
0.06550000 0.06550280 31103.82126430 0 56.48989399 0 11148.61313665 0 2778.74385346 0 2123.92656369 0 4636
0.06650000 0.06648880 30401.94659405 0 1214.14685031 0 9647.59342261 0 2158.76009757 0 4482.12137589 0 4653
0.06750000 0.06749660 30846.83260526 0 369.67835212 0 10969.21932994 0 8.09585139 0 5698.88129486 0 5220
0.06850000 0.06852730 30326.65478528 0 -232.17115019 0 10829.89626674 0 1218.70864814 0 7775.14150020 0 5029
0.06950000 0.06949320 31177.89511734 0 -293.02575463 0 13126.01962601 0 -921.82308108 0 6870.61006879 0 5040
0.07050000 0.07048030 30798.33582255 0 969.33664134 0 12024.54475305 0 -598.91422900 0 7059.24926673 0 5475
0.07150000 0.07148790 30094.35741058 0 1174.49685514 0 14605.28222178 0 -2035.14866329 0 5463.94870686 0 5509
0.07250000 0.07249820 28911.16878046 0 1752.38363207 0 13380.79382009 0 -1697.83028769 0 5932.29697436 0 5916
0.07350000 0.07351270 27853.42959054 0 545.86782802 0 14358.36937832 0 1394.37108139 0 4515.95840053 0 5721
0.07450000 0.07449140 27445.85731396 0 72.45319685 0 13441.80232984 0 2504.39378911 0 3757.08340211 0 6028
0.07550000 0.07549160 27193.96192434 0 336.90980681 0 13425.30456586 0 2200.61348538 0 3184.97637873 0 6183
0.07650000 0.07648840 26772.88141149 0 762.20001756 0 10974.82192629 0 2051.52463170 0 1577.49626156 0 6330
0.07750000 0.07749960 26299.09663250 0 235.95677805 0 10125.65211898 0 473.20901810 0 3620.65021570 0 6583
0.07850000 0.07848650 25698.86590408 0 193.49994853 0 10710.63625612 0 887.71810617 0 2851.99835446 0 6549
0.07950000 0.07947320 25991.72889553 0 -271.94736987 0 10016.77794904 0 882.66691159 0 2154.44189089 0 6828
0.08050000 0.08048110 25581.94215399 0 595.92913023 0 9116.52043501 0 -278.43021605 0 1033.28596056 0 7147
0.08150000 0.08149960 24879.62459075 0 893.08596924 0 8987.48356157 0 156.49513175 0 1273.31735414 0 7386
0.08250000 0.08250610 24009.67202975 0 528.29272684 0 9174.30689823 0 170.41193682 0 201.35576299 0 7227
0.08350000 0.08350160 23853.55224980 0 443.54293821 0 9136.71635547 0 114.47787353 0 -372.30360033 0 7798
0.08450000 0.08449610 23729.76365833 0 649.72955652 0 8749.17391450 0 905.69845445 0 -198.79362703 0 7371
0.08550000 0.08548940 22892.80662529 0 244.59097694 0 7765.39785436 0 341.69637283 0 -998.64619237 0 8256
0.08650000 0.08650700 22662.17009932 0 263.43939548 0 7423.17443887 0 897.02550242 0 -635.48833234 0 8037
0.08750000 0.08749060 22718.30678615 0 378.99017729 0 6630.41812650 0 1178.67112159 0 -342.30867240 0 8155
0.08850000 0.08849210 22058.06405721 0 323.36171017 0 6411.26360136 0 651.40701373 0 -2005.55233905 0 8718
0.08950000 0.08949900 21423.17695211 0 652.63050562 0 5489.83580228 0 194.27279680 0 -936.44740770 0 8571
0.09050000 0.09049190 20780.53921964 0 950.05086597 0 5742.59483324 0 506.28869573 0 -53.40890889 0 8932
0.09150000 0.09150830 20474.50016165 0 334.09965078 0 4824.85411832 0 827.19567148 0 575.33349883 0 9285
0.09250000 0.09250820 20050.54084434 0 10.57694901 0 5782.12303284 0 698.12115214 0 205.49016908 0 9204
0.09350000 0.09350330 20224.59779049 0 188.28377631 0 4988.56951309 0 -86.17147513 0 464.78740784 0 9349
0.09450000 0.09448040 20011.45553773 0 187.21418973 0 5351.07742765 0 72.22942517 0 331.24188374 0 9564
0.09550000 0.09549270 19454.40687611 0 122.98363346 0 4974.50766057 0 -98.00867615 0 1027.72543904 0 10155
0.09650000 0.09649430 19605.87627963 0 397.02256549 0 5455.62231859 0 790.27611161 0 398.84949908 0 9913
0.09750000 0.09749140 19163.42617987 0 282.00768420 0 4225.58668216 0 304.41364070 0 72.86840903 0 10476
0.09850000 0.09850240 18730.27683297 0 707.72860839 0 4860.48485959 0 110.23772674 0 -80.62756210 0 10575
0.09950000 0.09950330 18415.93353137 0 674.02555887 0 4640.92065844 0 -332.92155541 0 -547.55635756 0 10882
0.10050000 0.10051200 17539.55902197 0 575.52062112 0 5042.63567518 0 -255.53154109 0 273.49749535 0 10875
0.10150000 0.10150300 17329.95991315 0 311.68705088 0 6048.32386613 0 -365.29038979 0 224.08835307 0 11118
0.10250000 0.10250800 17333.50305709 0 63.13804998 0 5993.84802803 0 -179.98396162 0 -366.93684449 0 11575
0.10350000 0.10349800 16820.30080175 0 710.41696885 0 6352.95673887 0 -262.75955474 0 -83.52231070 0 11364
0.10450000 0.10450100 16511.60438581 0 740.32442542 0 6471.14273398 0 -495.71573276 0 -32.13686917 0 12093
0.10550000 0.10551000 15952.56270571 0 258.92188695 0 6589.59446489 0 -76.76199206 0 297.67391659 0 12067
0.10650000 0.10649700 15877.38162019 0 147.50772570 0 6282.94642904 0 267.62141256 0 -75.42456594 0 12054
0.10750000 0.10749900 15897.75469786 0 -360.86478156 0 5696.77755314 0 1324.64865200 0 112.41067049 0 12807
0.10850000 0.10850100 16173.45558584 0 -509.80083716 0 4814.83366436 0 1375.66992477 0 417.33031644 0 12736
0.10950000 0.10950300 16487.79888745 0 -257.24664421 0 4552.22026431 0 1355.42971500 0 -19.84913526 0 12933
0.11050000 0.11050200 16321.38184542 0 187.85084841 0 3854.38699262 0 625.35051173 0 761.48031645 0 13428
0.11150000 0.11150900 16079.89444113 0 479.71954509 0 4015.42288478 0 642.94222141 0 531.23685801 0 13453
0.11250000 0.11250000 15636.44783214 0 429.62502592 0 3865.19358164 0 -782.90415774 0 1533.63878296 0 13668
0.11350000 0.11349100 15299.95988090 0 635.90022282 0 4354.08101168 0 -346.57816085 0 625.24753911 0 13791
0.11450000 0.11448600 14990.93129521 0 340.54706552 0 4862.99827732 0 -1199.90784060 0 1192.73297411 0 14205
0.11550000 0.11549300 14539.18044261 0 704.13896068 0 5214.95426633 0 -520.61074788 0 541.40125219 0 14776
0.11650000 0.11649800 13999.51533095 0 444.66235025 0 5122.88788547 0 65.15398816 0 248.45632554 0 14553
0.11750000 0.11747300 13936.29235624 0 225.88317693 0 4915.45895231 0 445.04545269 0 -768.56771157 0 14568
0.11850000 0.11849100 13580.64928306 0 128.07468841 0 4814.73401344 0 398.38999760 0 -355.42273391 0 16015
0.11950000 0.11950300 13607.11213938 0 219.80336337 0 4177.43314153 0 301.40418282 0 -1437.63065445 0 15270
0.12050000 0.12050700 13287.34339862 0 8.21135788 0 3662.26001237 0 433.42726226 0 -166.20334616 0 15999
0.12150000 0.12150000 13298.63716993 0 -96.55764798 0 3260.42320005 0 545.36071555 0 -623.18476500 0 15670
0.12250000 0.12250700 13736.54761651 0 -186.49891755 0 3401.03065292 0 322.82138072 0 -642.72188214 0 16887
0.12350000 0.12352200 13514.76895039 0 -62.62418339 0 3796.17978105 0 253.50419842 0 -108.65726310 0 16407
0.12450000 0.12449800 13565.25875156 0 342.33967491 0 3815.25739671 0 5.61508594 0 -390.73016329 0 16306
0.12550000 0.12549900 13408.14246239 0 319.22730408 0 3773.84690189 0 -209.78955280 0 224.28322599 0 17523
0.12650000 0.12650100 12970.56418556 0 340.87037740 0 4137.77207403 0 -27.79430338 0 607.40670213 0 17154
0.12750000 0.12750600 13045.63454783 0 316.82793129 0 4465.35787611 0 57.32928694 0 774.07730040 0 18007
0.12850000 0.12850300 12469.98438050 0 146.86774532 0 4350.51572309 0 451.39210928 0 1098.94816844 0 17496
0.12950000 0.12949900 12665.85380655 0 82.84158417 0 4157.20400408 0 421.12923108 0 539.53445823 0 18405
0.13050000 0.13049000 12530.10710427 0 0.00589693 0 4314.20957001 0 214.75991941 0 1343.32766397 0 18100
0.13150000 0.13148800 12564.87420420 0 143.01125459 0 4024.00393652 0 454.38828037 0 726.71764545 0 19059
0.13250000 0.13249300 12477.07066839 0 32.53226189 0 4201.67046056 0 -133.90316019 0 2085.31736704 0 18957
0.13350000 0.13349100 12443.41080094 0 68.93241901 0 4076.66391335 0 552.32520786 0 1263.83944410 0 19468
0.13450000 0.13450700 12368.22971542 0 -2.03359854 0 3961.85497731 0 401.46256774 0 1270.34997109 0 19953
0.13550000 0.13551000 12471.20233623 0 70.53314501 0 3800.54227703 0 156.37665788 0 928.53180269 0 19956
0.13650000 0.13649900 12244.10895420 0 287.54052491 0 3593.30157340 0 207.98144216 0 938.18354823 0 19723
0.13750000 0.13749600 12113.01262835 0 82.08855536 0 3319.41654668 0 -191.66415708 0 1115.66959338 0 20946
0.13850000 0.13851100 11987.23101841 0 83.37670963 0 3208.17289923 0 303.23554534 0 705.63593899 0 20955
0.13950000 0.13949800 11911.82848640 0 86.92915432 0 3089.45543252 0 209.26583184 0 362.35843818 0 20506
0.14050000 0.14048300 11818.82095792 0 194.49977946 0 3244.03615932 0 168.42999068 0 250.11606703 0 21447
0.14150000 0.14148400 11407.37336766 0 328.79932888 0 3267.89701930 0 -268.52934320 0 575.45861610 0 21771
0.14250000 0.14249400 11352.56535981 0 201.37569317 0 3141.06353850 0 7.92755205 0 1016.34862529 0 22470
0.14350000 0.14350900 11252.80371319 0 205.34622885 0 3508.34362506 0 342.49136576 0 1238.11843355 0 22519
0.14450000 0.14449900 11042.27452909 0 95.89895538 0 3196.77947699 0 297.88207629 0 1268.57839912 0 22218
0.14550000 0.14550500 10949.23378364 0 106.98102384 0 3102.96366880 0 569.33783494 0 1492.32793906 0 23559
0.14650000 0.14650700 10949.42201316 0 49.57777378 0 2862.08524237 0 121.27738820 0 1170.34473333 0 23044
0.14750000 0.14750500 10728.20803561 0 327.20380688 0 2663.31486723 0 5.51928819 0 682.43166787 0 23649
0.14850000 0.14849900 10388.55339947 0 421.97404947 0 2533.44756943 0 -539.10374479 0 479.38073195 0 23640
0.14950000 0.14949500 10256.52699833 0 276.36190578 0 2512.96376852 0 -316.82350236 0 419.30561918 0 24457
0.15050000 0.15050000 9954.35218171 0 77.88284350 0 2846.22967323 0 -113.23998762 0 163.42529986 0 24591
0.15150000 0.15149900 9944.58639122 0 69.35571399 0 2496.60994476 0 123.60589811 0 -319.39781788 0 25020
0.15250000 0.15250500 9927.90039772 0 -36.22853608 0 2578.54514842 0 461.30626892 0 107.59819523 0 25297
0.15350000 0.15350100 10055.68609845 0 19.37601482 0 2445.88762476 0 396.06259493 0 -242.18717522 0 25452
0.15450000 0.15450400 9830.68538581 0 76.94800711 0 2668.06489457 0 174.99034313 0 170.63449055 0 26061
0.15550000 0.15549900 9760.85223318 0 297.17344751 0 2609.76910440 0 140.76689435 0 582.42532288 0 26128
0.15650000 0.15649500 9751.96115635 0 129.20295831 0 2502.96545920 0 210.01653546 0 571.41057415 0 26331
0.15750000 0.15749700 9392.28775694 0 137.87591034 0 2647.25999624 0 -173.59412297 0 928.72446114 0 27345
0.15850000 0.15849900 9380.68396053 0 234.16195419 0 2726.83679471 0 101.65390693 0 199.54986681 0 26980
0.15950000 0.15949700 9309.54427357 0 101.02466671 0 2791.46595468 0 -149.96578181 0 597.76159998 0 27777
0.16050000 0.16050000 9266.65008722 0 128.34706760 0 2817.18696523 0 -384.95151697 0 295.70304277 0 28224
0.16150000 0.16150500 9236.50014674 0 34.29885131 0 2907.61464203 0 -186.07816920 0 284.72040378 0 28075
0.16250000 0.16249700 9217.88756872 0 126.62421386 0 3034.06059146 0 -224.85455795 0 -47.19401297 0 28590
0.16350000 0.16349900 9275.58545335 0 31.99403618 0 3159.26644050 0 48.61016331 0 -126.84233866 0 29163
0.16450000 0.16449100 9057.88140277 0 163.02005277 0 3227.37231046 0 9.01331530 0 -63.98463994 0 28996
0.16550000 0.16550500 9083.45847310 0 187.97264398 0 3106.96077806 0 169.21058958 0 -19.26230204 0 30777
0.16650000 0.16650700 8766.81212793 0 131.68094460 0 3115.01035820 0 100.61344056 0 395.13584134 0 29211
0.16750000 0.16749900 8740.70358601 0 186.65614456 0 2998.80630923 0 305.10787547 0 222.37103550 0 30922
0.16850000 0.16850800 8470.33955859 0 236.66208514 0 3000.26785611 0 365.98573179 0 435.26305371 0 30867
0.16950000 0.16949900 8400.14101924 0 35.95261375 0 2667.25661486 0 331.68809843 0 478.86697608 0 30852
0.17050000 0.17049200 8320.66387169 0 -24.40783283 0 2502.87688061 0 272.19760441 0 367.46277992 0 31257
0.17150000 0.17149500 8332.33410205 0 76.18667406 0 2484.87328045 0 209.65779214 0 191.83356365 0 32608
0.17250000 0.17250900 8213.81593719 0 154.15001336 0 2355.76997306 0 -113.16469581 0 261.77633229 0 32361
0.17350000 0.17350400 8183.89851553 0 58.50361771 0 2374.24968319 0 -25.38042584 0 302.22907102 0 32508
0.17450000 0.17449800 8069.04529019 0 3.16242205 0 2300.98410986 0 90.14555396 0 349.78913504 0 32791
0.17550000 0.17549800 8102.63872369 0 72.16708798 0 2281.90649420 0 102.65739173 0 399.91797843 0 33633
0.17650000 0.17650100 8056.38962292 0 47.55131689 0 2408.25279271 0 224.31312127 0 315.04196530 0 33984
0.17750000 0.17750300 8034.08996073 0 158.30988579 0 2328.23310124 0 115.25293627 0 625.52434723 0 34069
0.17850000 0.17849800 7941.45889130 0 170.78064524 0 2500.00914848 0 56.44593686 0 561.33254410 0 34536
