### header ###
fiducial parameters:
Omega_m = 0.31
Omega_nu = 0
Omega_de = 0.69
Omega_k = 0
H_0 = 100
w_de = -1
zeff = 0
beta = 0
fgrowth = 0
b_1 = 2
gamma = 0.55
Lx = 3500 Ly = 3500 Lz = 3500
nx = 700 ny = 700 nz = 700
xoffset = -685.467585 yoffset = -31.7331281 zoffset = 572.489161
bins = 400 dk = 0.001
kx_ny = 0.628318531 ky_ny = 0.628318531 kz_ny = 0.628318531
############################
A(data) = 8.0318554 (not used)
A(ran) = 8.03072595 (used)
Ngal = 477032
weighted Ngal = 0
Nran = 23820508
weighted Nran = 0
SN(data) = 3488.50344
SN(ran) = 69.9505355
SN(data+ran) = 3558.45397
############################
13 columns: k_central k_mean P_0(k) sigma^{lin}_{P_0(k)} P^img_1(k) sigma^{lin}_{P_1(k)} P_2(k) sigma^{lin}_{P_2(k)} P^img_3(k) sigma^{lin}_{P_3(k)} P_4(k) sigma^{lin}_{P_4(k)} N_modes
### header ###
0.00050000 0 0 0 0 0 0 0 0 0 0 0 0
0.00150000 0.00179520 15796.88581876 0 -28018.73940008 0 16450.04225981 0 1355.89475264 0 -24445.25728811 0 3
0.00250000 0.00253879 44960.61432834 0 -45064.58345839 0 10318.95276566 0 -38159.88170148 0 8023.33873334 0 6
0.00350000 0.00331552 59559.14243198 0 -28502.71071790 0 -10812.08089611 0 15844.71826198 0 20760.83048146 0 7
0.00450000 0.00420575 75643.13363329 0 3285.13662904 0 5335.35472641 0 -34888.00971757 0 28969.40920901 0 24
0.00550000 0.00557378 70616.63033537 0 12914.98111497 0 4039.51626359 0 -15665.67876966 0 34241.93956440 0 45
0.00650000 0.00659388 64981.81351191 0 -1252.95534880 0 6577.84672826 0 -10422.74473851 0 1579.87681140 0 40
0.00750000 0.00754703 71878.32174845 0 -9486.42466255 0 3055.75127577 0 23129.86509966 0 -8897.56521172 0 57
0.00850000 0.00846663 77497.08370092 0 -10928.76105505 0 10215.49296256 0 12637.17648527 0 -12450.60781207 0 75
0.00950000 0.00948925 79526.53011693 0 -8515.39284828 0 1080.41198946 0 -2307.33962431 0 -13204.30096248 0 112
0.01050000 0.01054430 78359.72852755 0 13339.60477176 0 2948.52688223 0 -9414.72028702 0 -1805.29827238 0 105
0.01150000 0.01145670 72809.94715870 0 9551.26419668 0 5124.99162718 0 -15337.27361554 0 10139.38180175 0 144
0.01250000 0.01249090 68429.07112095 0 804.97240834 0 -2226.22377269 0 -7820.13942826 0 -12041.92830302 0 169
0.01350000 0.01339930 67561.00085517 0 1562.65934631 0 8920.81709384 0 -20301.21827824 0 -29294.71411218 0 180
0.01450000 0.01448870 71184.52987532 0 3585.84989879 0 11885.03346033 0 -17286.66712311 0 -37278.63536916 0 267
0.01550000 0.01550050 59606.42125896 0 -222.07208273 0 19564.24433831 0 -19737.19405197 0 -8465.78883309 0 238
0.01650000 0.01653350 65331.25608319 0 1274.20314013 0 19392.29113387 0 -1705.48126414 0 -31999.35089563 0 315
0.01750000 0.01747870 74610.52862070 0 -5644.49403535 0 14798.82645961 0 34647.51882251 0 -18253.39180303 0 297
0.01850000 0.01844180 67833.38004571 0 -6394.95406691 0 1902.26969314 0 15010.08641715 0 -24738.45244931 0 388
0.01950000 0.01947590 80192.75190127 0 -3718.77315824 0 -3515.90602291 0 16675.47479312 0 -11832.66136394 0 399
0.02050000 0.02045430 81273.52152682 0 -2196.60530380 0 -9301.05180043 0 5330.47183117 0 -2288.22879167 0 462
0.02150000 0.02154770 78329.83325054 0 4767.65448831 0 -4863.56296589 0 -8427.89933756 0 1146.39529475 0 571
0.02250000 0.02255340 76961.73679594 0 4648.00694632 0 4959.98077041 0 -19336.26517029 0 9419.94642434 0 510
0.02350000 0.02348930 76854.77813820 0 3980.24610883 0 13942.38213489 0 -13294.42968650 0 15769.20500672 0 555
0.02450000 0.02439640 70118.92933477 0 -2212.73768106 0 20140.33739862 0 -7750.54986678 0 14874.33971487 0 592
0.02550000 0.02547300 75686.53714658 0 983.78823969 0 31958.60474030 0 -559.61854822 0 3139.65735325 0 837
0.02650000 0.02652900 72535.79639619 0 1535.64287375 0 32594.26690814 0 -5288.75131125 0 -5878.14223367 0 723
0.02750000 0.02749970 72428.94846169 0 2710.92586395 0 36785.80619149 0 4173.52461087 0 -7921.56192360 0 826
0.02850000 0.02848090 68819.25984756 0 4942.56400347 0 35872.78228694 0 -2851.31187032 0 -4221.60064523 0 831
0.02950000 0.02946900 68096.12631365 0 6187.89052047 0 36229.64331584 0 -7454.30981626 0 -12936.46142511 0 996
0.03050000 0.03053250 60521.77035171 0 5073.51638910 0 36024.03024396 0 2698.74630665 0 -10438.89926042 0 1041
0.03150000 0.03150510 56439.73636082 0 6155.51504270 0 37347.06233654 0 1445.81310249 0 -7144.70546968 0 1036
0.03250000 0.03246190 55856.33556613 0 1450.05380290 0 26586.86635453 0 6594.86489151 0 -15236.84762944 0 1059
0.03350000 0.03345080 51807.07565670 0 -2831.39275797 0 29313.31561788 0 11287.46008987 0 -7555.68802230 0 1302
0.03450000 0.03451200 57263.40660408 0 -1726.28616248 0 23804.05895786 0 6121.21298042 0 -14045.13330920 0 1339
0.03550000 0.03553350 57140.50379860 0 -2153.34573073 0 27033.52393772 0 5696.67790222 0 -4112.85934319 0 1365
0.03650000 0.03647120 57548.85113791 0 1549.23968862 0 21884.22855756 0 1886.01552031 0 -10846.43832002 0 1308
0.03750000 0.03744890 55549.29999891 0 3553.93945867 0 23164.74292283 0 403.90512259 0 -3975.19712872 0 1579
0.03850000 0.03847530 54518.35583504 0 1937.93365138 0 19855.22503454 0 2967.05088165 0 2617.07683878 0 1662
0.03950000 0.03950240 52627.97781876 0 1475.80803043 0 19827.54422249 0 1965.01655789 0 979.65715530 0 1683
0.04050000 0.04050350 51258.77413168 0 -348.53353341 0 18788.51726151 0 1930.68127863 0 -2169.22344452 0 1822
0.04150000 0.04152450 52301.34423661 0 2274.74270004 0 16897.14273599 0 -1699.69043826 0 -4894.69834328 0 1887
0.04250000 0.04250150 48379.63750909 0 1680.63496725 0 17557.60691142 0 499.69955523 0 -6510.05088340 0 1920
0.04350000 0.04349210 46507.86099850 0 3191.71942455 0 17979.79465676 0 745.41437314 0 -1967.04279333 0 2005
0.04450000 0.04448520 45745.08854174 0 2474.22170397 0 18993.57671715 0 2278.36335026 0 -1424.53209419 0 2151
0.04550000 0.04548030 43303.08730299 0 718.56730715 0 17171.95783799 0 4248.67247941 0 -745.51070236 0 2274
0.04650000 0.04648670 43366.53172420 0 -121.08915868 0 16196.59674472 0 5589.32064078 0 -1313.60954416 0 2311
0.04750000 0.04749250 43549.22508371 0 -185.67513658 0 16865.03299402 0 2830.00871737 0 1947.79909280 0 2568
0.04850000 0.04851840 42755.00722447 0 1045.89069514 0 17165.53588960 0 652.25626104 0 144.33882634 0 2493
0.04950000 0.04949480 41458.54871145 0 1645.60213152 0 16083.10541532 0 -1894.34190857 0 4308.03121276 0 2644
0.05050000 0.05050630 40102.07819792 0 1950.04677474 0 17329.95991315 0 554.59835614 0 1475.66409021 0 2829
0.05150000 0.05149060 38698.99319690 0 521.41459866 0 17100.43061966 0 1561.08707618 0 2627.78377688 0 2784
0.05250000 0.05249300 38803.51594319 0 170.67435092 0 16917.73726015 0 3256.71397123 0 -588.41434337 0 3055
0.05350000 0.05348950 37812.32142542 0 524.63775242 0 14760.18404599 0 3429.29829818 0 3620.78308360 0 3009
0.05450000 0.05448610 38170.28968681 0 148.76664903 0 13691.70470099 0 1878.03237411 0 -811.94797297 0 3336
0.05550000 0.05550870 37001.05218596 0 1508.24994215 0 14340.76438186 0 2644.35904714 0 4240.99935831 0 3349
0.05650000 0.05647670 36612.19213833 0 2054.24842360 0 14072.03905851 0 -1439.15863528 0 6418.32774460 0 3324
0.05750000 0.05747970 34279.47474554 0 1475.14369094 0 13349.68058735 0 -673.07666063 0 4241.60833618 0 3639
0.05850000 0.05849280 34200.41834633 0 872.60438280 0 14493.00884812 0 56.19238062 0 6165.29190552 0 3846
0.05950000 0.05951020 33221.62483236 0 1066.22059074 0 13682.07177840 0 444.93030051 0 2822.65669369 0 3787
0.06050000 0.06049470 32719.93779483 0 -421.11040813 0 13486.42379886 0 2368.50314661 0 2017.59902845 0 3930
0.06150000 0.06148310 33671.38266650 0 -1337.21574067 0 12795.73217667 0 1690.95437398 0 -1035.17268471 0 4083
0.06250000 0.06249100 33736.26648993 0 359.68004280 0 11471.26068186 0 756.99491767 0 -2270.75666311 0 4303
0.06350000 0.06350600 33041.03521457 0 1375.93566056 0 10836.44001071 0 -958.90761859 0 -3959.25298098 0 4470
0.06450000 0.06451750 31566.97661146 0 1045.68474990 0 10742.28096045 0 -1309.28026516 0 -2641.98956963 0 4479
0.06550000 0.06550280 30910.16630322 0 609.02769049 0 9741.07706105 0 1617.13518441 0 -973.46772573 0 4636
0.06650000 0.06648880 31312.75603363 0 -231.06502494 0 10149.92265498 0 2220.31115123 0 -2124.32516738 0 4653
0.06750000 0.06749660 31094.07761846 0 -267.98569205 0 8662.72120231 0 2852.57411535 0 -622.82269998 0 5220
0.06850000 0.06852730 30999.85213425 0 -154.78667203 0 7560.37161569 0 2369.74324699 0 334.82931698 0 5029
0.06950000 0.06949320 31295.48320691 0 67.27334186 0 6611.79447616 0 887.47340779 0 -1313.81991833 0 5040
0.07050000 0.07048030 30822.03059767 0 761.12046589 0 7304.54555076 0 -764.42666208 0 -2028.91494442 0 5475
0.07150000 0.07148790 29444.96555997 0 1869.22987588 0 8184.79537384 0 -2821.43873796 0 -2106.98590671 0 5509
0.07250000 0.07249820 28042.65562169 0 1558.39650125 0 8231.25484878 0 -2277.62150449 0 -2099.66710001 0 5916
0.07350000 0.07351270 27619.13919738 0 526.22995273 0 10646.05138545 0 -2232.60143178 0 -1830.72033016 0 5721
0.07450000 0.07449140 27407.54707009 0 473.99072423 0 10650.45817073 0 -875.61051898 0 -4951.27792310 0 6028
0.07550000 0.07549160 27013.70447629 0 849.19305920 0 12108.36225193 0 917.87136835 0 -3374.47921800 0 6183
0.07650000 0.07648840 26281.60235928 0 677.71817920 0 11430.51452653 0 399.22927982 0 -1330.93773250 0 6330
0.07750000 0.07749960 25576.40599158 0 274.41871277 0 10462.15114254 0 2951.58284388 0 -1800.91363175 0 6583
0.07850000 0.07848650 25856.75725599 0 -618.56317662 0 10020.99650479 0 2406.99054768 0 -143.20391304 0 6549
0.07950000 0.07947320 25767.62504120 0 -327.08311854 0 8494.54366064 0 3399.35873187 0 -29.91897179 0 6828
0.08050000 0.08048110 25798.95972044 0 4.64354480 0 8423.94651760 0 1510.77443221 0 172.02738901 0 7147
0.08150000 0.08149960 25970.69147838 0 731.49424638 0 7381.36534035 0 347.38090440 0 2090.01203277 0 7386
0.08250000 0.08250610 24852.71884144 0 943.35986008 0 8279.90664403 0 -536.50174846 0 3189.31673006 0 7227
0.08350000 0.08350160 24641.34816065 0 819.33099916 0 7945.27884336 0 376.32396147 0 4678.48905655 0 7798
0.08450000 0.08449610 24011.55432496 0 156.38883744 0 9181.47069239 0 603.92445598 0 4429.84893042 0 7371
0.08550000 0.08548940 23599.55311846 0 601.97572681 0 8102.20690302 0 701.93667527 0 4591.03983513 0 8256
0.08650000 0.08650700 23242.47064306 0 748.15920246 0 8611.25703656 0 -9.22000238 0 1376.85466352 0 8037
0.08750000 0.08749060 22200.78632412 0 1063.13694827 0 8483.00629818 0 -837.87935770 0 3261.80724065 0 8155
0.08850000 0.08849210 21587.26880592 0 971.99289206 0 8798.44575994 0 -309.94648142 0 2761.28279722 0 8718
0.08950000 0.08949900 21379.33054583 0 -118.24800013 0 8117.56421754 0 -317.57420598 0 1960.21116892 0 8571
0.09050000 0.09049190 21283.00131991 0 -376.05822568 0 8141.45829450 0 1248.43784028 0 1738.42143048 0 8932
0.09150000 0.09150830 21327.51206568 0 521.30387541 0 8225.37544430 0 527.89633761 0 2412.95853075 0 9285
0.09250000 0.09250820 21259.41726804 0 251.38384822 0 8121.51703750 0 1396.56340170 0 2542.33864626 0 9204
0.09350000 0.09350330 20529.52961600 0 452.53145150 0 7368.45500961 0 1632.32641406 0 3151.03970316 0 9349
0.09450000 0.09448040 19933.17420126 0 737.64713728 0 7611.33752683 0 1104.41900413 0 3282.60106666 0 9564
0.09550000 0.09549270 19847.91730016 0 698.51532690 0 7380.39097577 0 139.91986150 0 2820.98477265 0 10155
0.09650000 0.09649430 18860.37664959 0 360.73744982 0 7149.48871400 0 -401.95639343 0 2377.67103156 0 9913
0.09750000 0.09749140 18483.25326626 0 482.02148142 0 7036.31848203 0 -562.49624544 0 2476.03756524 0 10476
0.09850000 0.09850240 18387.36693333 0 263.21352005 0 6700.98205257 0 -149.25826025 0 1714.77094466 0 10575
0.09950000 0.09950330 17905.05646423 0 -60.72439390 0 6604.46459713 0 472.61000533 0 1490.01382317 0 10882
0.10050000 0.10051200 17966.28642048 0 165.20905139 0 6437.10640749 0 1560.76597876 0 729.00408052 0 10875
0.10150000 0.10150300 17548.19543533 0 416.83649075 0 5757.59783337 0 1787.18394898 0 1158.33126090 0 11118
0.10250000 0.10250800 17329.40629691 0 414.05955169 0 5521.27013244 0 742.95410256 0 1631.14167531 0 11575
0.10350000 0.10349800 16750.10226240 0 322.17697141 0 5174.90566747 0 293.31917124 0 2574.24908639 0 11364
0.10450000 0.10450100 16638.05033524 0 397.05246076 0 5590.04034189 0 56.19614521 0 3142.75760420 0 12093
0.10550000 0.10551000 16472.51907920 0 191.97861110 0 5216.38259624 0 10.01739800 0 3083.99677639 0 12067
0.10650000 0.10649700 16455.13552923 0 -47.35710831 0 5690.72099147 0 18.27221476 0 2324.36885988 0 12054
0.10750000 0.10749900 16312.85615531 0 -31.60805494 0 5191.61380562 0 -316.12262420 0 1920.29543795 0 12807
0.10850000 0.10850100 16617.23436458 0 216.47280806 0 5586.35325773 0 -445.56031579 0 999.01379355 0 12736
0.10950000 0.10950300 15993.97320053 0 506.20565329 0 5511.27182313 0 -521.91617498 0 603.98646100 0 12933
0.11050000 0.11050200 15972.16072064 0 356.05717812 0 5787.78099083 0 -391.87614891 0 163.55152436 0 13428
0.11150000 0.11150900 15270.50749688 0 267.50847485 0 4959.54894974 0 100.55165699 0 494.49888426 0 13453
0.11250000 0.11250000 15521.73854702 0 384.85186605 0 5728.58834235 0 880.05937910 0 -245.29739126 0 13668
0.11350000 0.11349100 14758.85536701 0 215.54384001 0 4576.10326895 0 717.93729187 0 225.24319655 0 13791
0.11450000 0.11448600 14884.41553046 0 155.63591935 0 4949.32919393 0 872.00979895 0 260.63588284 0 14205
0.11550000 0.11549300 14454.58788100 0 339.12648624 0 4547.51452627 0 35.98981676 0 142.07453591 0 14776
0.11650000 0.11649800 14360.80528978 0 201.79533428 0 4523.28827956 0 -110.78636044 0 297.21995127 0 14553
0.11750000 0.11747300 14180.65856498 0 53.76776294 0 4703.95540363 0 -257.33522281 0 -34.34302989 0 14568
0.11850000 0.11849100 14085.21512505 0 302.70960991 0 4529.51092611 0 179.69165225 0 -33.31352513 0 16015
0.11950000 0.11950300 13906.72924897 0 229.26245046 0 4601.15994001 0 220.44445098 0 72.66512115 0 15270
0.12050000 0.12050700 13702.00196307 0 61.15422155 0 4194.17449665 0 437.35904480 0 143.92029246 0 15999
0.12150000 0.12150000 13650.84782241 0 -119.51799579 0 4235.82858262 0 544.30109406 0 231.19235668 0 15670
0.12250000 0.12250700 13729.46132863 0 150.77738322 0 3933.12229440 0 673.53284042 0 174.06691124 0 16887
0.12350000 0.12352200 13549.20388058 0 165.78481228 0 3782.70476174 0 288.19822101 0 643.90108474 0 16407
0.12450000 0.12449800 13324.87857975 0 222.28467136 0 3527.84198907 0 158.52247443 0 644.60196290 0 16306
0.12550000 0.12549900 13470.92254411 0 155.42554518 0 3839.98189803 0 -71.74999350 0 1022.57570077 0 17523
0.12650000 0.12650100 13190.12838671 0 355.45927258 0 3812.03535019 0 -470.20177468 0 627.61480216 0 17154
0.12750000 0.12750600 12688.77351892 0 543.73529826 0 4012.42228476 0 122.15542356 0 1128.04845252 0 18007
0.12850000 0.12850300 12562.88118573 0 138.41181086 0 4189.69020510 0 -30.67487940 0 920.80553443 0 17496
0.12950000 0.12949900 12362.13993677 0 122.35140371 0 4482.01065264 0 14.57760141 0 713.69437700 0 18405
0.13050000 0.13049000 12492.12903014 0 59.67174798 0 4392.55734043 0 2.16167212 0 703.45136931 0 18100
0.13150000 0.13148800 12396.02125072 0 226.38807494 0 4492.36327634 0 135.87735571 0 873.04506132 0 19059
0.13250000 0.13249300 12301.24215027 0 64.64676496 0 4325.04937601 0 182.02459109 0 1499.50280554 0 18957
0.13350000 0.13349100 12396.35342046 0 -166.30521154 0 4508.09704991 0 661.18055485 0 982.87255843 0 19468
0.13450000 0.13450700 12377.19829852 0 -34.87870896 0 4146.85138038 0 272.23082139 0 688.25571073 0 19953
0.13550000 0.13551000 12445.07164966 0 234.31696674 0 4173.40281529 0 120.08932775 0 593.66262534 0 19956
0.13650000 0.13649900 12050.01110013 0 380.72521059 0 3807.31853981 0 -63.84435358 0 1051.20208935 0 19723
0.13750000 0.13749600 11821.81048562 0 153.20222235 0 3848.00933352 0 -131.85920903 0 879.26549341 0 20946
0.13850000 0.13851100 11818.04589518 0 69.19915131 0 3929.55700581 0 57.46746955 0 512.56227497 0 20955
0.13950000 0.13949800 11600.58543574 0 326.26598097 0 4023.41710330 0 369.76139455 0 285.83760136 0 20506
0.14050000 0.14048300 11265.09399374 0 259.47328873 0 3796.89948216 0 -72.40414645 0 260.23949361 0 21447
0.14150000 0.14148400 11307.05810480 0 82.74093674 0 3702.92866142 0 194.51528072 0 309.38843625 0 21771
0.14250000 0.14249400 11155.03508504 0 -78.06985506 0 3730.63161812 0 130.34230053 0 -100.39210479 0 22470
0.14350000 0.14350900 11350.35089484 0 -83.24428462 0 3778.72979713 0 40.18611714 0 390.36920550 0 22519
0.14450000 0.14449900 11315.25162517 0 263.63980456 0 3722.63739960 0 -181.60605721 0 -112.00210170 0 22218
0.14550000 0.14550500 11158.57822898 0 301.13401809 0 3814.12801958 0 -21.84835423 0 560.12787516 0 23559
0.14650000 0.14650700 10908.98588292 0 200.91397723 0 3846.04953203 0 219.32393171 0 897.43960736 0 23044
0.14750000 0.14750500 10861.83992384 0 -29.10648459 0 3588.50725675 0 573.56857026 0 460.67403917 0 23649
0.14850000 0.14849900 10759.64236577 0 45.56317024 0 3503.07319845 0 649.30991541 0 366.57920840 0 23640
0.14950000 0.14949500 10709.49580666 0 123.66347420 0 3237.03845003 0 310.30411751 0 449.33597856 0 24457
0.15050000 0.15050000 10441.76699255 0 225.23876762 0 3326.67999176 0 -60.82282686 0 199.93518372 0 24591
0.15150000 0.15149900 10355.91218591 0 308.80713919 0 3048.50997534 0 -310.01623706 0 305.78107282 0 25020
0.15250000 0.15250500 10122.50757873 0 286.10112269 0 3355.03621562 0 -263.51358006 0 759.30128293 0 25297
0.15350000 0.15350100 9992.23060491 0 52.63827508 0 2972.95243078 0 185.11155525 0 667.99335631 0 25452
0.15450000 0.15450400 9927.10319033 0 4.79536852 0 3217.32971185 0 524.48938326 0 718.74224988 0 26061
0.15550000 0.15549900 9888.81509111 0 256.16487807 0 2998.97239410 0 448.58306047 0 156.32904688 0 26128
0.15650000 0.15649500 9542.63885565 0 366.40869460 0 2866.64704020 0 -57.85688321 0 304.71812964 0 26331
0.15750000 0.15749700 9370.54171099 0 304.77238403 0 3068.96055928 0 -235.96120698 0 351.89509122 0 27345
0.15850000 0.15849900 8975.51437844 0 260.79643155 0 3343.06703249 0 -526.93525982 0 378.85730939 0 26980
0.15950000 0.15949700 9097.71962746 0 132.01754328 0 3412.16941169 0 -7.98890380 0 420.26891144 0 27777
0.16050000 0.16050000 8963.97701598 0 -77.67988778 0 3270.62081121 0 304.86760602 0 239.48442073 0 28224
0.16150000 0.16150500 9131.08054214 0 -171.45494982 0 2985.15413273 0 349.10486537 0 168.69461924 0 28075
0.16250000 0.16249700 9138.86438649 0 30.46428378 0 3237.96852532 0 372.66898705 0 26.88747997 0 28590
0.16350000 0.16349900 9175.41413072 0 185.90101201 0 2948.92548592 0 37.81376083 0 106.49672036 0 29163
0.16450000 0.16449100 8810.54781097 0 291.11799306 0 3053.35965361 0 7.27593466 0 252.65162941 0 28996
0.16550000 0.16550500 8720.85090761 0 322.14929060 0 2863.93432062 0 48.63374736 0 365.75321297 0 30777
0.16650000 0.16650700 8446.37904768 0 21.27060032 0 2718.39968320 0 245.84104241 0 229.54700921 0 29211
0.16750000 0.16749900 8508.70516409 0 -65.79097901 0 2439.72033984 0 215.74867802 0 -41.60271038 0 30922
0.16850000 0.16850800 8371.44155331 0 46.93337044 0 2141.74193432 0 44.72433092 0 -442.73244404 0 30867
0.16950000 0.16949900 8396.96326202 0 154.99040281 0 2188.20140926 0 4.07653105 0 -315.28002028 0 30852
0.17050000 0.17049200 8149.25321117 0 188.82521299 0 2083.80045854 0 -13.52960587 0 -363.52878291 0 31257
0.17150000 0.17149500 8120.03334598 0 39.13136748 0 1942.92726988 0 247.71115808 0 -168.39677370 0 32608
0.17250000 0.17250900 8101.69757608 0 -107.37586295 0 2061.20184359 0 473.76595604 0 -29.93945559 0 32361
0.17350000 0.17350400 8259.66643426 0 -24.77875571 0 2012.42825276 0 215.43643846 0 129.73332267 0 32508
0.17450000 0.17449800 8133.53050993 0 179.09485394 0 2167.36329395 0 96.20886975 0 250.72947382 0 32791
0.17550000 0.17549800 8134.58238079 0 290.66402774 0 2223.76571658 0 -467.29971834 0 566.18554407 0 33633
0.17650000 0.17650100 7879.12170257 0 246.03702256 0 2457.83466324 0 -281.39759910 0 617.46480200 0 33984
0.17750000 0.17750300 7704.33398299 0 115.22414823 0 2472.66050618 0 -105.40089237 0 934.47764111 0 34069
0.17850000 0.17849800 7786.73422429 0 -21.69478108 0 2608.09718336 0 32.45353766 0 560.10240881 0 34536
