### header ###
fiducial parameters:
Omega_m = 0.31
Omega_nu = 0
Omega_de = 0.69
Omega_k = 0
H_0 = 100
w_de = -1
zeff = 0
beta = 0
fgrowth = 0
b_1 = 2
gamma = 0.55
Lx = 3500 Ly = 3500 Lz = 3500
nx = 700 ny = 700 nz = 700
xoffset = -685.467585 yoffset = -31.7331281 zoffset = 572.489161
bins = 400 dk = 0.001
kx_ny = 0.628318531 ky_ny = 0.628318531 kz_ny = 0.628318531
############################
A(data) = 8.10506507 (not used)
A(ran) = 8.1067076 (used)
Ngal = 481302
weighted Ngal = 0
Nran = 23820508
weighted Nran = 0
SN(data) = 3482.2198
SN(ran) = 70.6123632
SN(data+ran) = 3552.83216
############################
13 columns: k_central k_mean P_0(k) sigma^{lin}_{P_0(k)} P^img_1(k) sigma^{lin}_{P_1(k)} P_2(k) sigma^{lin}_{P_2(k)} P^img_3(k) sigma^{lin}_{P_3(k)} P_4(k) sigma^{lin}_{P_4(k)} N_modes
### header ###
0.00050000 0 0 0 0 0 0 0 0 0 0 0 0
0.00150000 0.00179520 2991.57608113 0 -6644.91179969 0 -6676.92189074 0 -8425.72916189 0 11439.26166314 0 3
0.00250000 0.00253879 14419.26716483 0 -17197.20273858 0 -6953.73001120 0 -4534.30524276 0 -13701.44834683 0 6
0.00350000 0.00331552 27024.00173837 0 -27620.02498336 0 -23186.22323298 0 23195.85615557 0 39901.33694896 0 7
0.00450000 0.00420575 44799.51200223 0 -24224.47513123 0 -4995.76652422 0 -30190.57591326 0 -29487.37256403 0 24
0.00550000 0.00557378 77826.04247129 0 -21274.47562980 0 -5009.49620700 0 -27555.03043668 0 9288.49578409 0 45
0.00650000 0.00659388 65769.94159250 0 -4694.89824193 0 13332.62920712 0 -23734.63548125 0 4153.17367785 0 40
0.00750000 0.00754703 96071.79437019 0 -59.05125489 0 -11415.45616478 0 -23478.75405469 0 -17729.89228560 0 57
0.00850000 0.00846663 94119.85422791 0 -687.69212939 0 11965.41853852 0 -11167.65753533 0 2797.02426174 0 75
0.00950000 0.00948925 88567.63694760 0 13419.10406396 0 9348.59636320 0 -32415.89175531 0 -14982.84849810 0 112
0.01050000 0.01054430 98149.62684566 0 -7430.18322048 0 22965.55179935 0 -21599.44836322 0 -23684.03495683 0 105
0.01150000 0.01145670 82573.30173728 0 -7595.69233187 0 18732.71274443 0 -396.12570718 0 -26711.76217849 0 144
0.01250000 0.01249090 101960.83177148 0 882.06900605 0 26034.02517634 0 5754.98476471 0 -34996.18633105 0 169
0.01350000 0.01339930 92281.18396853 0 -2477.11158075 0 2393.08370770 0 8821.86372693 0 -25874.25152921 0 180
0.01450000 0.01448870 95702.20016774 0 3604.00851149 0 9580.40655561 0 13178.05955266 0 -21185.01124526 0 267
0.01550000 0.01550050 86280.98042605 0 5171.01928145 0 5088.89584827 0 -3487.66052230 0 -697.94510218 0 238
0.01650000 0.01653350 91105.74596578 0 -2565.50194978 0 9963.84116408 0 17643.52815202 0 -11120.71087810 0 315
0.01750000 0.01747870 87452.65383836 0 169.50511342 0 -3161.90165381 0 1801.99871959 0 -2904.51439108 0 297
0.01850000 0.01844180 87237.85073688 0 6940.19963028 0 8726.28741910 0 -1127.82700603 0 8814.09095491 0 388
0.01950000 0.01947590 86580.15464265 0 4982.10327540 0 4094.59000723 0 -1864.18089577 0 17662.79399720 0 399
0.02050000 0.02045430 82047.14486190 0 -459.71406861 0 5824.19786716 0 -4280.76007674 0 16756.08131780 0 462
0.02150000 0.02154770 83384.23880700 0 782.62292069 0 10257.46814594 0 -4553.83682374 0 10105.42298153 0 571
0.02250000 0.02255340 83296.21382469 0 5412.09700973 0 14281.85961383 0 1574.22992574 0 10435.20110393 0 510
0.02350000 0.02348930 79337.41480903 0 2934.91899503 0 20963.67547214 0 -9260.13956023 0 11702.78299382 0 555
0.02450000 0.02439640 73278.30649852 0 8996.69573582 0 22862.24700879 0 -5114.51720790 0 2276.22639157 0 592
0.02550000 0.02547300 70353.55189768 0 3931.77147078 0 29688.66742923 0 -8040.88836817 0 -7885.25577052 0 837
0.02650000 0.02652900 67095.40959654 0 814.21447786 0 35011.90903229 0 -3293.46301731 0 -14748.33665844 0 723
0.02750000 0.02749970 66996.86590566 0 1260.14128761 0 39997.88762137 0 -1103.61847504 0 -11278.38078352 0 826
0.02850000 0.02848090 66902.19752846 0 1384.78244809 0 29997.91746141 0 6374.03844532 0 -17739.63593144 0 831
0.02950000 0.02946900 65061.09135761 0 3178.68729824 0 28342.60490103 0 4683.20586692 0 -15892.10781220 0 996
0.03050000 0.03053250 64224.24504782 0 1480.27017733 0 21494.37200069 0 6723.77996937 0 -16580.03135319 0 1041
0.03150000 0.03150510 60846.96453164 0 870.73426713 0 18841.44297415 0 2233.74188124 0 -16872.00855865 0 1036
0.03250000 0.03246190 58377.06103434 0 3606.93160525 0 16687.54362717 0 3775.81777571 0 -16438.19487226 0 1059
0.03350000 0.03345080 56712.00482811 0 1451.10567376 0 16789.74118525 0 2801.18745587 0 -10714.24583401 0 1302
0.03450000 0.03451200 57730.54798818 0 -359.32572841 0 16965.79114987 0 4811.20194182 0 -5131.33606930 0 1339
0.03550000 0.03553350 54709.57488466 0 114.31400313 0 17952.22456796 0 5193.27465434 0 176.43306706 0 1365
0.03650000 0.03647120 56679.67363964 0 1959.73505895 0 17922.55073745 0 4741.61238034 0 -29.96315036 0 1308
0.03750000 0.03744890 55067.21097630 0 928.41665051 0 17711.95511940 0 -392.14077747 0 5732.98405530 0 1579
0.03850000 0.03847530 51964.96700862 0 3193.54635814 0 22931.78120865 0 1400.70445118 0 6898.12479597 0 1662
0.03950000 0.03950240 50846.99437168 0 4058.41672205 0 23435.57198790 0 -1036.38067535 0 10055.63073682 0 1683
0.04050000 0.04050350 48693.64864095 0 2599.85937369 0 24534.16805640 0 -2377.22813856 0 9669.81557852 0 1822
0.04150000 0.04152450 47452.88392177 0 671.21872453 0 21042.62114809 0 -1312.62410725 0 8665.76609164 0 1887
0.04250000 0.04250150 47234.86984609 0 1222.66146810 0 27790.20661582 0 -342.75820878 0 4441.25342498 0 1920
0.04350000 0.04349210 46904.36095025 0 1447.31893867 0 23319.86619354 0 63.98486139 0 2092.41472725 0 2005
0.04450000 0.04448520 43488.77019020 0 1701.38450396 0 25498.89971785 0 3466.05841658 0 -2361.33935245 0 2151
0.04550000 0.04548030 43167.78349370 0 2547.77515774 0 23173.93295243 0 1821.98426588 0 -1097.43125994 0 2274
0.04650000 0.04648670 39950.94096414 0 738.74661913 0 18842.66092988 0 5552.07334009 0 -2413.76681046 0 2311
0.04750000 0.04749250 39587.87943334 0 484.95343303 0 18248.07708711 0 5586.18717285 0 877.70761730 0 2568
0.04850000 0.04851840 39188.94357012 0 915.72444457 0 13681.07526917 0 6290.34274202 0 167.47112735 0 2493
0.04950000 0.04949480 37099.26370710 0 -501.86530196 0 13383.45117804 0 3897.92337381 0 1462.91984434 0 2644
0.05050000 0.05050630 37663.50937986 0 1474.18039868 0 11115.28543894 0 3745.61247360 0 3517.78831813 0 2829
0.05150000 0.05149060 36374.46932447 0 620.67245450 0 12185.31490942 0 344.04259846 0 5004.69081803 0 2784
0.05250000 0.05249300 35507.72773767 0 1109.22550033 0 12044.25349123 0 573.79776738 0 5061.64685690 0 3055
0.05350000 0.05348950 35257.49319677 0 1363.99969441 0 12432.78136911 0 -2122.50930611 0 6947.09768864 0 3009
0.05450000 0.05448610 34339.70819255 0 808.63734785 0 15418.43375646 0 -939.89090072 0 5881.54143739 0 3336
0.05550000 0.05550870 33580.58960298 0 -372.33792454 0 14470.42130549 0 299.71011712 0 6461.18871397 0 3349
0.05650000 0.05647670 34998.29007276 0 -839.82255070 0 13483.65571765 0 1631.46277273 0 4382.14935510 0 3324
0.05750000 0.05747970 35510.38509563 0 -1027.49402745 0 14174.56878633 0 2049.87485530 0 3338.93705534 0 3639
0.05850000 0.05849280 37328.79300059 0 -257.91209093 0 13947.14323456 0 733.83936477 0 3639.84962693 0 3846
0.05950000 0.05951020 35362.12666630 0 1829.69060396 0 14846.21600983 0 430.74665242 0 4377.60970192 0 3787
0.06050000 0.06049470 34879.15185771 0 1557.05674995 0 13786.26235494 0 -100.07288967 0 5675.41903857 0 3930
0.06150000 0.06148310 33102.70806381 0 1659.14358477 0 14496.44126881 0 2688.40475527 0 3820.48353402 0 4083
0.06250000 0.06249100 31967.35187691 0 1283.49282065 0 13207.84410642 0 1801.61118822 0 3790.27823192 0 4303
0.06350000 0.06350600 30256.12407618 0 1093.92244020 0 11611.98993031 0 1602.70794517 0 2743.43420962 0 4470
0.06450000 0.06451750 29915.65008801 0 895.22514240 0 11482.44372993 0 837.55493858 0 2964.55960857 0 4479
0.06550000 0.06550280 28141.08858933 0 113.39942910 0 9529.48493377 0 1998.51034047 0 2326.79369901 0 4636
0.06650000 0.06648880 29295.93206791 0 -499.66965995 0 8965.61572005 0 123.08660608 0 357.23416625 0 4653
0.06750000 0.06749660 28780.07245461 0 231.68839683 0 8332.93200759 0 1310.13283417 0 480.51675248 0 5220
0.06850000 0.06852730 29501.87730954 0 259.93721914 0 7778.48534230 0 -1204.81288049 0 -1015.24139281 0 5029
0.06950000 0.06949320 28991.55385865 0 291.97166931 0 8947.71177082 0 -1906.62111680 0 -70.78216159 0 5040
0.07050000 0.07048030 28727.70035822 0 21.29861330 0 9352.74848501 0 -135.52857748 0 -755.35842806 0 5475
0.07150000 0.07148790 29182.66218502 0 208.16967168 0 8824.47679559 0 139.37178142 0 -763.39693588 0 5509
0.07250000 0.07249820 28870.20117863 0 477.11865599 0 9091.48590859 0 873.47688199 0 147.90743662 0 5916
0.07350000 0.07351270 28199.10757138 0 311.98489641 0 8954.87556498 0 931.30320559 0 -311.55196851 0 5721
0.07450000 0.07449140 28011.98528194 0 472.47049403 0 9175.25911817 0 76.43768366 0 1414.25697676 0 6028
0.07550000 0.07549160 27655.01352979 0 749.90198639 0 10181.48985304 0 525.26776770 0 -1.27288553 0 6183
0.07650000 0.07648840 27147.90105309 0 765.30026851 0 9408.15439840 0 1217.04779942 0 2814.26387148 0 6330
0.07750000 0.07749960 26395.86875141 0 611.22111803 0 9917.99066700 0 382.05831849 0 2200.64670236 0 6583
0.07850000 0.07848650 25564.00498779 0 650.01854420 0 9387.00625800 0 1317.18590508 0 3792.23803341 0 6549
0.07950000 0.07947320 25914.11189855 0 335.75164164 0 11463.73150099 0 718.78543195 0 2976.76131052 0 6828
0.08050000 0.08048110 25049.91694646 0 221.57825704 0 10150.53163284 0 -44.27623393 0 4136.19980390 0 7147
0.08150000 0.08149960 24906.30889356 0 616.18151955 0 10564.90231686 0 343.07598451 0 3462.05023500 0 7386
0.08250000 0.08250610 24954.14133678 0 -11.00393107 0 10244.43601963 0 -183.77180395 0 5478.07699332 0 7227
0.08350000 0.08350160 24563.95261017 0 276.76936733 0 11320.67706433 0 1158.46412880 0 4398.89071023 0 7798
0.08450000 0.08449610 24101.12943275 0 809.11456505 0 10302.53250795 0 838.79836066 0 2991.55393648 0 7371
0.08550000 0.08548940 23643.39952474 0 854.38487231 0 9815.56059011 0 1302.19397727 0 3462.96923796 0 8256
0.08650000 0.08650700 22289.25419942 0 940.08023747 0 8550.31496075 0 328.92998232 0 2782.19841881 0 8037
0.08750000 0.08749060 21674.62944874 0 595.04112978 0 7983.11297727 0 1088.69630289 0 3045.27685650 0 8155
0.08850000 0.08849210 21268.82874414 0 221.98018243 0 7159.04413032 0 536.74312514 0 1538.56596750 0 8718
0.08950000 0.08949900 20665.05487178 0 211.93647659 0 6901.22504691 0 7.47169337 0 532.14146695 0 8571
0.09050000 0.09049190 20675.24141061 0 189.59695403 0 6674.03201396 0 582.07765188 0 684.08144427 0 8932
0.09150000 0.09150830 20458.44529066 0 108.26463846 0 6658.07679390 0 -496.79417720 0 422.52545124 0 9285
0.09250000 0.09250820 20365.99137843 0 166.81453849 0 6610.25542301 0 160.34940802 0 -370.22975389 0 9204
0.09350000 0.09350330 20576.25482673 0 363.82109229 0 8057.54114470 0 -437.15531402 0 180.03932325 0 9349
0.09450000 0.09448040 19943.47146335 0 931.25891629 0 8154.52363779 0 -852.93661222 0 704.36372887 0 9564
0.09550000 0.09549270 19577.64185134 0 567.63491139 0 9083.11523103 0 -1132.00127248 0 614.59153371 0 10155
0.09650000 0.09649430 19133.53090286 0 993.23182553 0 10060.82365716 0 -224.66189950 0 1349.10741753 0 9913
0.09750000 0.09749140 18566.62787215 0 515.56730393 0 10017.34263760 0 -415.21550240 0 578.97407923 0 10476
0.09850000 0.09850240 18225.82171423 0 -60.34560966 0 9548.67327268 0 830.59266074 0 1416.82575612 0 10575
0.09950000 0.09950330 18533.07872795 0 -152.41498006 0 9239.97685673 0 1335.78741077 0 -303.06503154 0 10882
0.10050000 0.10051200 18344.07414329 0 -155.61709640 0 8150.06149089 0 1277.45840363 0 -189.91030082 0 10875
0.10150000 0.10150300 18351.04970793 0 233.03036260 0 7992.92305706 0 689.95309812 0 -1264.93560426 0 11118
0.10250000 0.10250800 17598.90668300 0 1058.29723510 0 6851.87569520 0 238.85551269 0 -331.34707083 0 11575
0.10350000 0.10349800 17125.67552025 0 631.89536294 0 6818.80266096 0 486.03298470 0 -307.96785697 0 11364
0.10450000 0.10450100 16439.52355124 0 102.75615686 0 6702.04499575 0 737.92283817 0 -349.89321490 0 12093
0.10550000 0.10551000 16436.09113054 0 129.77650473 0 6566.55295695 0 387.27227625 0 -140.16123818 0 12067
0.10650000 0.10649700 16434.09811208 0 115.27397369 0 6586.60493719 0 313.77639857 0 -593.41681973 0 12054
0.10750000 0.10749900 16445.17043689 0 -17.75657659 0 6675.23889737 0 49.68982570 0 82.55403589 0 12807
0.10850000 0.10850100 16208.11196253 0 212.88205313 0 6449.36347107 0 -14.51836447 0 112.83806223 0 12736
0.10950000 0.10950300 16098.27450033 0 259.81210187 0 6694.72618905 0 -5.48549545 0 295.73072358 0 12933
0.11050000 0.11050200 16037.70888357 0 349.96186331 0 6676.81116749 0 83.81284850 0 -323.33292212 0 13428
0.11150000 0.11150900 15657.48524930 0 196.77846391 0 6064.62232827 0 683.73377327 0 -668.27902229 0 13453
0.11250000 0.11250000 15170.96729676 0 270.75488049 0 5689.81306083 0 403.33711233 0 80.45859842 0 13668
0.11350000 0.11349100 15267.07507619 0 204.45269224 0 5491.88418237 0 282.19259203 0 -188.03797070 0 13791
0.11450000 0.11448600 15052.49342121 0 2.14664697 0 6084.67430851 0 268.50830578 0 425.98665998 0 14205
0.11550000 0.11549300 15067.88395270 0 238.69828567 0 5754.70795659 0 426.41848065 0 249.55027123 0 14776
0.11650000 0.11649800 14841.45491016 0 145.85905653 0 5425.46130579 0 415.58863974 0 1395.23472272 0 14553
0.11750000 0.11747300 14728.96009000 0 38.73265306 0 5918.82195506 0 793.22024278 0 1152.75080919 0 14568
0.11850000 0.11849100 14723.31320435 0 131.91235619 0 5691.83929627 0 1027.79851638 0 1536.93833575 0 16015
0.11950000 0.11950300 14479.16844210 0 290.81018243 0 5414.25611307 0 975.13743231 0 1318.03847409 0 15270
0.12050000 0.12050700 14170.47202615 0 188.41000081 0 4481.61204895 0 598.56102184 0 1796.88330552 0 15999
0.12150000 0.12150000 13957.77266639 0 309.49915949 0 4227.23645856 0 516.36340408 0 1756.81256200 0 15670
0.12250000 0.12250700 13734.22242830 0 285.41353132 0 3520.09136169 0 151.35425134 0 1593.28539675 0 16887
0.12350000 0.12352200 13538.02083251 0 105.04746376 0 3873.13243854 0 196.13959077 0 1619.38286635 0 16407
0.12450000 0.12449800 13541.23180671 0 -38.53213326 0 3454.33282460 0 -203.06975887 0 1263.35226181 0 16306
0.12550000 0.12549900 13583.19591777 0 12.92704995 0 4000.15414886 0 -290.83786324 0 1176.65595848 0 17523
0.12650000 0.12650100 13567.03032354 0 86.32670913 0 4302.31789316 0 -434.42709319 0 907.60400155 0 17154
0.12750000 0.12750600 13710.52765319 0 76.47355799 0 4430.83436733 0 -317.49448524 0 396.74022120 0 18007
0.12850000 0.12850300 13575.88818339 0 123.65350911 0 4288.69893363 0 189.86933322 0 610.54570622 0 17496
0.12950000 0.12949900 13316.24216639 0 307.90585195 0 4071.86959671 0 27.32295451 0 14.82805740 0 18405
0.13050000 0.13049000 13176.06653419 0 349.76034700 0 4088.02411862 0 327.26470466 0 -17.50457048 0 18100
0.13150000 0.13148800 12918.85642865 0 -11.86986438 0 3555.37886089 0 343.70821425 0 -519.44593931 0 19059
0.13250000 0.13249300 12634.85129705 0 127.12579017 0 3489.04456290 0 122.43001722 0 -750.28951776 0 18957
0.13350000 0.13349100 12716.01143797 0 103.48814826 0 3117.77843941 0 -16.03438719 0 -914.53195519 0 19468
0.13450000 0.13450700 12593.77297198 0 282.97319093 0 3668.20585079 0 83.14042621 0 -937.40184210 0 19953
0.13550000 0.13551000 12189.19022310 0 483.17853937 0 3654.95227799 0 -519.43818868 0 -235.17617915 0 19956
0.13650000 0.13649900 12052.22556510 0 343.76357588 0 3724.40897157 0 -54.76061830 0 110.07208476 0 19723
0.13750000 0.13749600 11655.83633659 0 239.22532833 0 4105.83948925 0 101.03573903 0 188.73109823 0 20946
0.13850000 0.13851100 11745.30072112 0 127.08039364 0 4249.92365212 0 118.49602021 0 -8.31276930 0 20955
0.13950000 0.13949800 11431.62175901 0 172.83456149 0 4006.58716958 0 184.17483657 0 -40.84746710 0 20506
0.14050000 0.14048300 11465.61379620 0 273.09667719 0 3789.52531383 0 171.89119941 0 -40.43535517 0 21447
0.14150000 0.14148400 10929.12644177 0 206.23533654 0 3608.60352629 0 199.14129803 0 47.72293792 0 21771
0.14250000 0.14249400 10948.61373345 0 66.26753187 0 3160.99372318 0 717.69812965 0 -227.67357185 0 22470
0.14350000 0.14350900 10853.67962045 0 -96.26544933 0 2814.60711355 0 550.12513692 0 -344.31054872 0 22519
0.14450000 0.14449900 10870.19952908 0 139.76595619 0 2566.46524204 0 273.78205409 0 -150.43635561 0 22218
0.14550000 0.14550500 10627.87062810 0 126.94863298 0 2446.18657753 0 216.27018452 0 127.13243357 0 23559
0.14650000 0.14650700 10542.99018604 0 370.27515042 0 2836.90677573 0 -135.81756516 0 532.91763692 0 23044
0.14750000 0.14750500 10344.12015997 0 248.77077956 0 2925.86183333 0 -54.05807929 0 493.16134742 0 23649
0.14850000 0.14849900 10095.80113127 0 188.00032479 0 3229.39854591 0 252.85868188 0 1114.44056532 0 23640
0.14950000 0.14949500 10137.90918255 0 96.76348250 0 3158.43601614 0 16.13791342 0 1279.15246932 0 24457
0.15050000 0.15050000 10008.94981539 0 23.84845898 0 3367.68081057 0 228.94246028 0 1011.00401410 0 24591
0.15150000 0.15149900 10082.35932894 0 138.66536710 0 3404.77309871 0 227.62153192 0 1473.08423852 0 25020
0.15250000 0.15250500 9976.70720552 0 167.04927177 0 3254.15626420 0 -52.44439867 0 1310.16605114 0 25297
0.15350000 0.15350100 9843.48499330 0 95.40025787 0 3422.64383097 0 -100.66226952 0 1588.83432218 0 25452
0.15450000 0.15450400 9819.67949494 0 74.18302616 0 3461.87307780 0 -226.92176100 0 1399.84080985 0 26061
0.15550000 0.15549900 9808.70682104 0 97.84524864 0 3552.65506899 0 124.44960926 0 1336.07529122 0 26128
0.15650000 0.15649500 9817.53146392 0 66.26841766 0 3388.81787864 0 -46.24965438 0 1336.42960561 0 26331
0.15750000 0.15749700 9667.86684935 0 -16.37120731 0 3236.98308841 0 495.45664036 0 1416.49358637 0 27345
0.15850000 0.15849900 9618.17425556 0 98.60004902 0 2933.28029096 0 264.82232885 0 960.34480636 0 26980
0.15950000 0.15949700 9559.91168237 0 115.37694631 0 2935.14044153 0 184.07961457 0 946.93179207 0 27777
0.16050000 0.16050000 9321.05949138 0 221.63361866 0 2865.58409701 0 -71.06749540 0 570.00549613 0 28224
0.16150000 0.16150500 9250.25197417 0 243.17593383 0 2872.28285353 0 -44.49103703 0 548.43328568 0 28075
0.16250000 0.16249700 9086.11583105 0 51.52738873 0 2776.46295455 0 -113.19126939 0 449.22414808 0 28590
0.16350000 0.16349900 9039.84458564 0 41.15771365 0 2607.04531250 0 -14.57505478 0 -151.62220160 0 29163
0.16450000 0.16449100 9073.71482726 0 -16.69186183 0 2843.97091897 0 -72.09799667 0 64.12758365 0 28996
0.16550000 0.16550500 8982.65602795 0 212.05052153 0 2687.75148810 0 75.26844616 0 -239.15557269 0 30777
0.16650000 0.16650700 8785.44685060 0 278.72584712 0 2698.75737897 0 0.44696539 0 -61.72566423 0 29211
0.16750000 0.16749900 8600.52795381 0 186.13353083 0 2657.22508858 0 124.47729008 0 -159.22667429 0 30922
0.16850000 0.16850800 8450.77476063 0 41.72118426 0 2711.05873185 0 407.59331399 0 172.24551381 0 30867
0.16950000 0.16949900 8450.19899974 0 -22.84597069 0 2458.05610974 0 480.00188938 0 451.47293725 0 30852
0.17050000 0.17049200 8588.63627695 0 -103.13781990 0 2558.94713349 0 247.14204058 0 659.34476339 0 31257
0.17150000 0.17149500 8408.85493887 0 203.98433290 0 2383.53936371 0 164.99978445 0 505.79487004 0 32608
0.17250000 0.17250900 8245.83710057 0 418.19838670 0 2503.31977360 0 -3.03526747 0 706.26263258 0 32361
0.17350000 0.17350400 7975.39556687 0 276.00537692 0 2322.94052998 0 -231.11152871 0 885.37077331 0 32508
0.17450000 0.17449800 7768.42059904 0 84.99725509 0 2233.15504802 0 109.65753692 0 760.43176729 0 32791
0.17550000 0.17549800 7832.71758926 0 -28.07852995 0 2214.38745746 0 186.47123674 0 619.09907714 0 33633
0.17650000 0.17650100 7831.83180327 0 -14.53585875 0 2183.34065866 0 232.70594348 0 393.98985572 0 33984
0.17750000 0.17750300 7929.94367349 0 -54.48868200 0 1840.67435018 0 86.90280219 0 310.70050674 0 34069
0.17850000 0.17849800 7861.69386331 0 -24.96665306 0 1986.75153151 0 26.90010242 0 316.30642479 0 34536
