### header ###
fiducial parameters:
Omega_m = 0.31
Omega_nu = 0
Omega_de = 0.69
Omega_k = 0
H_0 = 100
w_de = -1
zeff = 0
beta = 0
fgrowth = 0
b_1 = 2
gamma = 0.55
Lx = 3500 Ly = 3500 Lz = 3500
nx = 700 ny = 700 nz = 700
xoffset = -685.467585 yoffset = -31.7331281 zoffset = 572.489161
bins = 400 dk = 0.001
kx_ny = 0.628318531 ky_ny = 0.628318531 kz_ny = 0.628318531
############################
A(data) = 8.05962855 (not used)
A(ran) = 8.05648518 (used)
Ngal = 478534
weighted Ngal = 0
Nran = 23820508
weighted Nran = 0
SN(data) = 3490.12258
SN(ran) = 70.1749078
SN(data+ran) = 3560.29749
############################
13 columns: k_central k_mean P_0(k) sigma^{lin}_{P_0(k)} P^img_1(k) sigma^{lin}_{P_1(k)} P_2(k) sigma^{lin}_{P_2(k)} P^img_3(k) sigma^{lin}_{P_3(k)} P_4(k) sigma^{lin}_{P_4(k)} N_modes
### header ###
0.00050000 0 0 0 0 0 0 0 0 0 0 0 0
0.00150000 0.00179520 16850.63897175 0 -30551.64442559 0 -27433.78847991 0 8520.89579371 0 16604.72263753 0 3
0.00250000 0.00253879 19229.30651254 0 -14093.85153841 0 -9292.75862914 0 -3531.58443486 0 -4623.59247010 0 6
0.00350000 0.00331552 43149.51415775 0 -23251.10705642 0 -27916.20967226 0 -15548.31212658 0 -34746.83757613 0 7
0.00450000 0.00420575 51213.70976967 0 -23626.01597478 0 -34911.59376943 0 -14628.53410390 0 -759.20827540 0 24
0.00550000 0.00557378 72080.17022990 0 -19582.84584400 0 -39925.03172407 0 -36261.42088807 0 -26057.27705846 0 45
0.00650000 0.00659388 98808.98378861 0 -26110.20277109 0 -45812.85116963 0 -31041.81624532 0 -3484.85922412 0 40
0.00750000 0.00754703 104287.45938563 0 -12944.54422223 0 -30086.38533671 0 -30615.53173980 0 -26748.19012714 0 57
0.00850000 0.00846663 111537.06406063 0 12.48792155 0 -17827.99308350 0 -61188.21358255 0 -7916.87833020 0 75
0.00950000 0.00948925 117326.78270830 0 10886.65300376 0 -12275.33291019 0 -13488.19537083 0 -5368.87065364 0 112
0.01050000 0.01054430 85433.61540768 0 18871.33825116 0 -10902.82967032 0 -8619.42841227 0 -809.24632572 0 105
0.01150000 0.01145670 90417.71170155 0 4268.39228991 0 9289.74695679 0 -12711.02889181 0 -33991.70502350 0 144
0.01250000 0.01249090 79882.50535985 0 2938.96039359 0 7160.58318347 0 6094.87191967 0 -5931.16759723 0 169
0.01350000 0.01339930 85290.11807803 0 609.45065330 0 -327.69431087 0 1986.12040899 0 -17444.11558203 0 180
0.01450000 0.01448870 85796.45549199 0 -2487.51956608 0 11644.43184203 0 -114.46347951 0 9387.10590892 0 267
0.01550000 0.01550050 87855.90790826 0 -6820.56316061 0 2228.91434762 0 18948.95524813 0 5016.00673399 0 238
0.01650000 0.01653350 86608.94268718 0 1782.32319838 0 7328.70536351 0 7343.60871272 0 1242.20412140 0 315
0.01750000 0.01747870 86314.75101675 0 4058.83747040 0 1317.03089253 0 3219.14557312 0 4860.37413634 0 297
0.01850000 0.01844180 76818.12874305 0 11087.82607339 0 8706.83334439 0 6518.79802000 0 -4553.01747170 0 388
0.01950000 0.01947590 65855.53066335 0 9391.22481376 0 9700.99524521 0 -22747.42700042 0 1120.71857349 0 399
0.02050000 0.02045430 62369.96281044 0 4108.51899186 0 15780.60950128 0 -13099.33532320 0 -6749.95494524 0 462
0.02150000 0.02154770 61145.58513200 0 519.65409902 0 31787.64804510 0 -15023.15176044 0 -6733.67862776 0 571
0.02250000 0.02255340 65318.74435614 0 2736.58044055 0 40367.26037732 0 -9143.27117177 0 -12345.53144954 0 510
0.02350000 0.02348930 66138.98217871 0 -65.97754768 0 43938.30657783 0 2142.45056311 0 299.51192251 0 555
0.02450000 0.02439640 66722.71514315 0 -2761.59282232 0 45149.39746650 0 15670.55059258 0 1363.36857189 0 592
0.02550000 0.02547300 69116.99466193 0 -1183.32149802 0 48312.09632770 0 12292.93790665 0 7394.97322755 0 837
0.02650000 0.02652900 68731.12414200 0 4647.35367916 0 44494.80162322 0 14672.26978693 0 13589.39641967 0 723
0.02750000 0.02749970 65534.87613660 0 6969.39735082 0 41921.81478186 0 14165.37875674 0 28585.42098430 0 826
0.02850000 0.02848090 58846.97049965 0 4479.20935446 0 29446.95857844 0 10632.48778755 0 26736.89635583 0 831
0.02950000 0.02946900 55762.88514466 0 2192.41996502 0 24179.30004597 0 10071.97348826 0 17960.75025807 0 996
0.03050000 0.03053250 53204.73521856 0 -2454.20294070 0 14267.46559156 0 7723.68840677 0 11013.98473918 0 1041
0.03150000 0.03150510 57455.40071644 0 -5474.56706636 0 9250.29626346 0 7437.26950836 0 -1627.05598745 0 1036
0.03250000 0.03246190 56849.30165586 0 -3382.21877305 0 1398.33497367 0 -3278.59288507 0 -5861.05763648 0 1059
0.03350000 0.03345080 61014.15663640 0 -709.28537726 0 7022.21234021 0 -3152.23551424 0 -9670.85637705 0 1302
0.03450000 0.03451200 59130.97563124 0 2786.41697456 0 4186.06955489 0 -3047.25880264 0 -8759.79227400 0 1339
0.03550000 0.03553350 58141.88485519 0 3563.69417683 0 8516.62187633 0 106.68273541 0 -2314.37055057 0 1365
0.03650000 0.03647120 52550.25009853 0 3107.82441940 0 4548.43352923 0 -277.61750741 0 901.50647227 0 1308
0.03750000 0.03744890 54890.05377921 0 1218.91902231 0 8841.76069463 0 5923.25088498 0 -7433.01773563 0 1579
0.03850000 0.03847530 50036.72164145 0 2337.26811829 0 9180.99458242 0 559.42478253 0 -6169.66547382 0 1662
0.03950000 0.03950240 47397.52229768 0 6878.41605779 0 9058.96649060 0 -5713.69606547 0 -1730.84796030 0 1683
0.04050000 0.04050350 43860.35741111 0 3128.21964171 0 11971.28687067 0 -3788.58416622 0 4029.07506128 0 1822
0.04150000 0.04152450 41533.39762722 0 1513.19927134 0 16957.92979925 0 -1830.15564160 0 -440.07619331 0 1887
0.04250000 0.04250150 40255.54061990 0 2111.90201893 0 16849.64246252 0 1090.45901700 0 1399.79652055 0 1920
0.04350000 0.04349210 38992.85269759 0 1210.06116246 0 19973.47746360 0 1825.06237218 0 622.45399156 0 2005
0.04450000 0.04448520 37664.72733559 0 2166.24498914 0 17810.16664054 0 -30.14850108 0 5946.93458777 0 2151
0.04550000 0.04548030 36756.79670046 0 1155.55210737 0 18240.65862949 0 2429.68881355 0 8775.75856639 0 2274
0.04650000 0.04648670 36391.29925820 0 -1223.22615666 0 17045.29044207 0 6502.51063020 0 8548.00084487 0 2311
0.04750000 0.04749250 37710.34531384 0 -1655.25719876 0 15652.28125663 0 4709.66872324 0 2407.38915137 0 2568
0.04850000 0.04851840 38501.02002914 0 -1108.68295642 0 13398.28809330 0 3178.97517868 0 574.02032111 0 2493
0.04950000 0.04949480 39343.40250134 0 -553.73582204 0 13402.27413023 0 -1606.87113931 0 1284.41182361 0 2644
0.05050000 0.05050630 39416.47984515 0 354.32657375 0 12322.39029067 0 -1440.91913492 0 2422.45858545 0 2829
0.05150000 0.05149060 39788.39923581 0 691.45450537 0 13150.15729411 0 1180.65306774 0 4922.19092580 0 2784
0.05250000 0.05249300 38542.87341696 0 1268.67805005 0 13863.21501243 0 196.80282302 0 3065.79387439 0 3055
0.05350000 0.05348950 37309.41643216 0 1446.83175638 0 16023.20413806 0 2860.83406967 0 4211.15944293 0 3009
0.05450000 0.05448610 36598.01956256 0 1982.33367391 0 13722.70721049 0 57.50932294 0 5588.30198689 0 3336
0.05550000 0.05550870 35320.60544823 0 780.62879499 0 16359.69208929 0 1190.19741173 0 6747.61868471 0 3349
0.05650000 0.05647670 35255.94307129 0 232.07482097 0 14328.91699431 0 -962.43636851 0 8852.36798181 0 3324
0.05750000 0.05747970 35705.14728919 0 371.19858231 0 14703.16157318 0 1968.23860441 0 5842.58899868 0 3639
0.05850000 0.05849280 35324.81293166 0 -34.82677976 0 16912.75471399 0 3.77827583 0 6303.07591556 0 3846
0.05950000 0.05951020 34590.82851944 0 1017.59869076 0 13924.99858492 0 1487.01322314 0 3323.32507734 0 3787
0.06050000 0.06049470 34697.89790043 0 984.81021527 0 16831.59457307 0 763.96383891 0 4303.85694631 0 3930
0.06150000 0.06148310 34008.64568047 0 401.56886206 0 14634.84532905 0 917.49490931 0 4705.14014238 0 4083
0.06250000 0.06249100 33957.71298631 0 44.96448964 0 14999.67843182 0 1035.58900413 0 2312.51040000 0 4303
0.06350000 0.06350600 33127.73151790 0 36.95587710 0 11636.34904491 0 3803.45429845 0 5330.17287840 0 4470
0.06450000 0.06451750 33798.82512516 0 -762.86767875 0 11175.07599296 0 2112.05703148 0 3755.68828919 0 4479
0.06550000 0.06550280 33634.84399459 0 -489.21517086 0 12231.48650391 0 914.73568596 0 1171.46303814 0 4636
0.06650000 0.06648880 33699.06347854 0 1971.92568858 0 11573.34751669 0 280.07445629 0 416.64051060 0 4653
0.06750000 0.06749660 31447.61694992 0 2609.62516418 0 11276.38776505 0 -3271.16335512 0 2490.77482958 0 5220
0.06850000 0.06852730 30198.88015687 0 1287.77781036 0 12958.82752125 0 -1366.50203982 0 2044.98088773 0 5029
0.06950000 0.06949320 28793.69141414 0 896.51063931 0 13651.73360840 0 -707.61456344 0 2133.91380067 0 5040
0.07050000 0.07048030 28366.74256913 0 1363.04747447 0 15380.67712883 0 1251.68203145 0 -1288.81860889 0 5475
0.07150000 0.07148790 26968.86156078 0 910.20046172 0 11906.51377048 0 2070.38080086 0 -305.45001031 0 5509
0.07250000 0.07249820 26427.31415390 0 -251.65844187 0 11819.70674390 0 2845.06707913 0 -1136.23090056 0 5916
0.07350000 0.07351270 25443.64881701 0 123.19954379 0 9801.52088224 0 1011.69271270 0 -908.11554295 0 5721
0.07450000 0.07449140 26673.34121137 0 281.86374398 0 9621.89455670 0 1342.71868611 0 -2337.07988877 0 6028
0.07550000 0.07549160 25720.45693747 0 -367.90235121 0 8996.14211958 0 232.19108038 0 -429.28842724 0 6183
0.07650000 0.07648840 27062.75487524 0 11.08583305 0 9423.25704946 0 434.03956182 0 255.94010988 0 6330
0.07750000 0.07749960 26469.49971146 0 -431.62468778 0 9639.57705944 0 239.50767262 0 1125.64575804 0 6583
0.07850000 0.07848650 27331.92309158 0 466.21241605 0 10990.83250798 0 724.40574403 0 1904.73882158 0 6549
0.07950000 0.07947320 27022.34088965 0 613.33814654 0 11436.49358193 0 846.47148176 0 2564.81546564 0 6828
0.08050000 0.08048110 26047.86558236 0 659.07792036 0 11977.26592607 0 241.00575817 0 4974.74017939 0 7147
0.08150000 0.08149960 25723.88935817 0 865.53138170 0 11336.17831907 0 869.22178756 0 3322.73824413 0 7386
0.08250000 0.08250610 24903.43008911 0 862.51528042 0 10831.52389849 0 263.75052781 0 4226.80463789 0 7227
0.08350000 0.08350160 24344.16696252 0 784.53732565 0 11430.18235678 0 683.72048648 0 3239.68473566 0 7798
0.08450000 0.08449610 23372.57045968 0 593.07579212 0 9842.15631432 0 405.24376667 0 2666.84693884 0 7371
0.08550000 0.08548940 22870.32980591 0 649.56568611 0 9565.69143592 0 268.29350268 0 1272.19904934 0 8256
0.08650000 0.08650700 21740.28833492 0 1033.46865392 0 9096.98885403 0 82.13638780 0 488.88189388 0 8037
0.08750000 0.08749060 20871.88589939 0 1041.33664794 0 8495.25228943 0 699.52733739 0 -1054.78066473 0 8155
0.08850000 0.08849210 20507.05279661 0 216.23696755 0 7794.60664723 0 264.44586981 0 -1219.45049390 0 8718
0.08950000 0.08949900 20136.57280818 0 -478.70753460 0 7266.77785080 0 1199.23242878 0 -2327.26980898 0 8571
0.09050000 0.09049190 20617.99749130 0 -354.83922239 0 7082.32399165 0 552.91979170 0 -3358.33576842 0 8932
0.09150000 0.09150830 20311.18337057 0 508.11120039 0 6460.87868888 0 -154.28952465 0 -2628.96851564 0 9285
0.09250000 0.09250820 19790.45193435 0 1000.43326559 0 5988.15685307 0 580.84640936 0 -1640.27634328 0 9204
0.09350000 0.09350330 19094.44559625 0 409.44792840 0 5456.85134665 0 806.06524680 0 -805.46734126 0 9349
0.09450000 0.09448040 18615.01393160 0 223.20921048 0 4984.35095734 0 1718.60196905 0 -473.59322777 0 9564
0.09550000 0.09549270 18364.89011395 0 28.49938902 0 4156.25178415 0 1548.86322958 0 -791.58043147 0 10155
0.09650000 0.09649430 18093.83960239 0 227.55841967 0 3964.25767179 0 796.05032900 0 -117.07765540 0 9913
0.09750000 0.09749140 18044.12486396 0 175.73218889 0 3534.99471090 0 603.28669007 0 646.46211347 0 10476
0.09850000 0.09850240 17874.38612449 0 -64.39885561 0 3475.39238640 0 162.01468568 0 1155.25315460 0 10575
0.09950000 0.09950330 18214.63866616 0 -12.69663487 0 3851.81821326 0 4.90373336 0 505.98088510 0 10882
0.10050000 0.10051200 18146.54386853 0 260.50522940 0 3985.70476497 0 -724.02596329 0 555.41106479 0 10875
0.10150000 0.10150300 17661.35459497 0 593.07800659 0 4429.90429204 0 -1190.81746192 0 -147.39146629 0 11118
0.10250000 0.10250800 17414.22030502 0 641.24926294 0 5070.84795882 0 -1066.41767812 0 373.78397016 0 11575
0.10350000 0.10349800 17101.98074514 0 426.88573276 0 5988.22328702 0 -614.84619718 0 -111.34219114 0 11364
0.10450000 0.10450100 16368.10705616 0 499.39949523 0 5629.38031197 0 114.01615759 0 -649.28223460 0 12093
0.10550000 0.10551000 16356.03822210 0 590.51919232 0 5866.95918561 0 41.19535955 0 -1284.06858154 0 12067
0.10650000 0.10649700 15746.06384785 0 242.74522039 0 5793.70468460 0 655.01105546 0 -933.20875269 0 12054
0.10750000 0.10749900 15654.60644484 0 184.14937022 0 5713.74035476 0 167.43348144 0 -891.44283624 0 12807
0.10850000 0.10850100 15360.41477441 0 280.68121969 0 6021.84993749 0 -57.74383478 0 -1266.03176441 0 12736
0.10950000 0.10950300 15298.63120192 0 460.23003895 0 6076.19290770 0 -245.65281289 0 -711.55188215 0 12933
0.11050000 0.11050200 14960.03950897 0 123.51731951 0 5933.01667547 0 22.39399839 0 -368.98411735 0 13428
0.11150000 0.11150900 14958.71082999 0 0.33824402 0 6354.13040530 0 353.54376039 0 -718.19749150 0 13453
0.11250000 0.11250000 14948.08139817 0 124.43410801 0 5852.91947773 0 490.03341566 0 -0.43576020 0 13668
0.11350000 0.11349100 14859.05990662 0 225.60304711 0 5365.72611339 0 846.40836951 0 -128.03593527 0 13791
0.11450000 0.11448600 14570.73656835 0 72.25732743 0 4536.76329887 0 716.88209931 0 68.41954892 0 14205
0.11550000 0.11549300 14887.62650466 0 -275.76400024 0 4911.18503493 0 1007.47747864 0 -576.65221272 0 14776
0.11650000 0.11649800 14302.56486124 0 180.41024613 0 4534.90314830 0 -77.75529032 0 279.78103968 0 14553
0.11750000 0.11747300 14470.86419848 0 647.63135097 0 4621.43336676 0 -234.41883213 0 -661.36214098 0 14568
0.11850000 0.11849100 14009.03753030 0 239.98931875 0 4839.43637011 0 170.06537305 0 1178.00678211 0 16015
0.11950000 0.11950300 13840.51674656 0 233.82535552 0 4898.60687394 0 278.88639583 0 557.33654207 0 15270
0.12050000 0.12050700 13762.23541009 0 113.97851168 0 5025.72823518 0 462.42678819 0 1235.58287116 0 15999
0.12150000 0.12150000 13670.33511409 0 227.10888329 0 4973.43364507 0 425.77739304 0 1028.72084104 0 15670
0.12250000 0.12250700 13504.58241156 0 168.07899798 0 4673.51758270 0 208.61699361 0 1069.52678693 0 16887
0.12350000 0.12352200 13155.25056353 0 226.11348128 0 4515.73695404 0 301.86811323 0 1175.34942415 0 16407
0.12450000 0.12449800 13160.23310970 0 139.93536276 0 4398.50317886 0 97.13562334 0 1018.93401313 0 16306
0.12550000 0.12549900 13066.33979524 0 -14.21752941 0 4223.53830207 0 246.10124205 0 998.97614765 0 17523
0.12650000 0.12650100 12976.65396421 0 -101.34786787 0 3688.71179636 0 275.55362606 0 542.38336740 0 17154
0.12750000 0.12750600 13198.10046058 0 -45.17453164 0 3634.15845198 0 459.41954477 0 913.44022396 0 18007
0.12850000 0.12850300 13215.59473379 0 -57.78579889 0 3888.24616191 0 382.84998972 0 854.96949106 0 17496
0.12950000 0.12949900 13108.19318305 0 223.45169440 0 3543.59790728 0 294.65670807 0 652.61611160 0 18405
0.13050000 0.13049000 12829.94566036 0 426.45391209 0 3685.77763028 0 -158.06961634 0 1102.55331740 0 18100
0.13150000 0.13148800 12572.18193858 0 328.91890999 0 3605.13788863 0 -57.71715048 0 793.87129547 0 19059
0.13250000 0.13249300 12389.48857907 0 234.67681730 0 3694.18152482 0 -57.20793426 0 1052.46987054 0 18957
0.13350000 0.13349100 12205.57726383 0 129.79864938 0 3632.33151838 0 454.86992650 0 1140.79269839 0 19468
0.13450000 0.13450700 12017.12629542 0 68.19156975 0 3298.02481513 0 196.18498730 0 606.15552943 0 19953
0.13550000 0.13551000 11881.37959314 0 181.92494017 0 3245.79665896 0 232.61736488 0 500.63627391 0 19956
0.13650000 0.13649900 11759.25185040 0 277.82123819 0 3450.03676257 0 -229.08086434 0 605.13355385 0 19723
0.13750000 0.13749600 11596.15650582 0 320.70324498 0 3354.19471894 0 -119.39066405 0 1071.85086791 0 20946
0.13850000 0.13851100 11331.86011240 0 163.20385336 0 3657.88644406 0 -45.05461837 0 714.08744453 0 20955
0.13950000 0.13949800 11288.56732235 0 12.99924151 0 3400.80920642 0 -19.24226113 0 403.54416481 0 20506
0.14050000 0.14048300 11257.89698261 0 74.87881105 0 3592.31613649 0 130.05220562 0 44.49424801 0 21447
0.14150000 0.14148400 11237.96679793 0 95.94634493 0 3528.21844811 0 43.42355420 0 334.42074820 0 21771
0.14250000 0.14249400 11241.62066512 0 -34.50236064 0 3401.89429426 0 61.93127730 0 62.29367449 0 22470
0.14350000 0.14350900 11033.36130761 0 211.03740381 0 3232.87525590 0 307.02560213 0 311.08914534 0 22519
0.14450000 0.14449900 11014.56050007 0 179.78355255 0 3189.63782748 0 273.77208900 0 -133.69057156 0 22218
0.14550000 0.14550500 10741.91557373 0 285.33048888 0 3170.70415204 0 -11.66303335 0 -59.60509258 0 23559
0.14650000 0.14650700 10674.86157463 0 179.51117335 0 3276.41163709 0 -132.92990284 0 82.18200578 0 23044
0.14750000 0.14750500 10316.41720328 0 275.73299773 0 3146.22324187 0 -75.14155732 0 36.48762848 0 23649
0.14850000 0.14849900 10134.04494119 0 292.79766474 0 3085.01543027 0 32.42364238 0 -406.89243583 0 23640
0.14950000 0.14949500 10093.45379840 0 140.24760232 0 3081.71587747 0 343.03058797 0 -127.66611962 0 24457
0.15050000 0.15050000 9945.02928421 0 20.01522013 0 2602.72710582 0 86.66961903 0 -575.95797795 0 24591
0.15150000 0.15149900 9984.02601222 0 -52.18552772 0 2865.21871030 0 -7.17402499 0 -627.28927581 0 25020
0.15250000 0.15250500 9954.24145846 0 68.19876676 0 2598.59712866 0 8.43601535 0 -845.26570559 0 25297
0.15350000 0.15350100 9883.42286892 0 164.51924555 0 2604.39902687 0 161.46328390 0 -354.83036453 0 25452
0.15450000 0.15450400 9661.71063675 0 125.79157503 0 2588.24450496 0 205.83562561 0 -225.20887235 0 26061
0.15550000 0.15549900 9727.49131850 0 81.65230576 0 2583.06265694 0 509.45427339 0 -96.09493553 0 26128
0.15650000 0.15649500 9480.94386176 0 235.24593479 0 2819.13569440 0 16.59962937 0 -78.39903528 0 26331
0.15750000 0.15749700 9314.05070977 0 332.05902131 0 2767.84868584 0 -84.34066622 0 153.59750435 0 27345
0.15850000 0.15849900 9121.24831770 0 124.48393347 0 2679.69083563 0 -184.53690159 0 436.21305918 0 26980
0.15950000 0.15949700 9153.43556595 0 -0.05760255 0 2962.66624102 0 -115.27618815 0 430.38458740 0 27777
0.16050000 0.16050000 9203.36067856 0 -29.78411087 0 2870.41163064 0 76.61096555 0 199.11361721 0 28224
0.16150000 0.16150500 9237.65166852 0 51.24903049 0 2885.29283519 0 12.18930095 0 83.00235432 0 28075
0.16250000 0.16249700 9183.59657876 0 142.89942411 0 2942.80249030 0 85.92356578 0 310.70382843 0 28590
0.16350000 0.16349900 9076.25038964 0 114.74582379 0 2747.19880005 0 269.85802218 0 221.65022715 0 29163
0.16450000 0.16449100 8959.13841003 0 86.82917123 0 2636.82986626 0 521.09460847 0 422.91298261 0 28996
0.16550000 0.16550500 8858.08130141 0 54.54913690 0 2415.26157432 0 174.86079693 0 168.80644972 0 30777
0.16650000 0.16650700 8821.67549741 0 136.35568014 0 2556.62194528 0 127.34834390 0 264.19120634 0 29211
0.16750000 0.16749900 8634.17674893 0 205.04173992 0 2576.20888788 0 -96.02883375 0 147.41250371 0 30922
0.16850000 0.16850800 8596.55298920 0 119.67854450 0 2356.22393838 0 -92.98184068 0 338.74338380 0 30867
0.16950000 0.16949900 8538.35684995 0 -32.17329712 0 2667.59985693 0 106.80873847 0 363.42359582 0 30852
0.17050000 0.17049200 8526.06656940 0 137.44408967 0 2600.04760321 0 -22.36753554 0 346.43643509 0 31257
0.17150000 0.17149500 8439.71350814 0 302.70407375 0 2865.60624166 0 -51.29254472 0 253.03030292 0 32608
0.17250000 0.17250900 8206.87358953 0 129.94701854 0 2531.97495023 0 168.49421016 0 602.53266475 0 32361
0.17350000 0.17350400 8180.64325203 0 9.43884688 0 2495.85702667 0 146.33516650 0 463.40447447 0 32508
0.17450000 0.17449800 8275.24519528 0 -62.23166947 0 2465.88424339 0 275.29231920 0 355.25222011 0 32791
0.17550000 0.17549800 8135.85569814 0 -7.39672265 0 2208.92880132 0 240.22626650 0 276.39622998 0 33633
0.17650000 0.17650100 8246.97755002 0 46.25463693 0 1913.35309029 0 375.02739223 0 409.56418781 0 33984
0.17750000 0.17750300 7970.40194838 0 127.85434915 0 1675.07666019 0 441.40376506 0 487.70379852 0 34069
0.17850000 0.17849800 7958.82029662 0 136.80078760 0 1414.68879743 0 395.98176695 0 235.43970048 0 34536
