### header ###
fiducial parameters:
Omega_m = 0.31
Omega_nu = 0
Omega_de = 0.69
Omega_k = 0
H_0 = 100
w_de = -1
zeff = 0
beta = 0
fgrowth = 0
b_1 = 2
gamma = 0.55
Lx = 3500 Ly = 3500 Lz = 3500
nx = 700 ny = 700 nz = 700
xoffset = -685.467585 yoffset = -31.7331281 zoffset = 572.489161
bins = 400 dk = 0.001
kx_ny = 0.628318531 ky_ny = 0.628318531 kz_ny = 0.628318531
############################
A(data) = 8.04229976 (not used)
A(ran) = 8.04190448 (used)
Ngal = 477902
weighted Ngal = 0
Nran = 23820508
weighted Nran = 0
SN(data) = 3486.70445
SN(ran) = 70.0479046
SN(data+ran) = 3556.75236
############################
13 columns: k_central k_mean P_0(k) sigma^{lin}_{P_0(k)} P^img_1(k) sigma^{lin}_{P_1(k)} P_2(k) sigma^{lin}_{P_2(k)} P^img_3(k) sigma^{lin}_{P_3(k)} P_4(k) sigma^{lin}_{P_4(k)} N_modes
### header ###
0.00050000 0 0 0 0 0 0 0 0 0 0 0 0
0.00150000 0.00179520 6344.76321850 0 -10358.75777338 0 -11736.22141477 0 3658.22968613 0 10071.82954803 0 3
0.00250000 0.00253879 18461.21933987 0 -13231.31743503 0 -6279.28148953 0 -1381.66005249 0 34606.44049743 0 6
0.00350000 0.00331552 27612.05290949 0 -17984.99864942 0 -12701.61741571 0 -13053.27445195 0 -26741.10383926 0 7
0.00450000 0.00420575 39733.81267445 0 -19096.21716822 0 -18235.12246708 0 -11406.15541193 0 -7515.00830091 0 24
0.00550000 0.00557378 54285.06195111 0 -13969.95222369 0 -18158.05908634 0 -9295.46027640 0 -17049.94081849 0 45
0.00650000 0.00659388 54498.42565037 0 -1211.51163701 0 -4701.23161172 0 -26845.18369255 0 -11038.88639769 0 40
0.00750000 0.00754703 58885.05929702 0 10059.61677376 0 -12124.19567642 0 -13537.46721627 0 -7291.39162887 0 57
0.00850000 0.00846663 43741.77281230 0 397.12885981 0 -4971.60671147 0 -6369.54308145 0 3060.78918357 0 75
0.00950000 0.00948925 48694.75587343 0 -7367.56922363 0 -13686.27926183 0 -889.39445615 0 -14173.01866086 0 112
0.01050000 0.01054430 56849.96599535 0 -17491.94802525 0 -10533.45691437 0 4848.07278347 0 9952.14878907 0 105
0.01150000 0.01145670 65782.23187305 0 -8887.24580499 0 -7589.33681742 0 4696.33764415 0 10846.83692371 0 144
0.01250000 0.01249090 72810.39005169 0 1872.61800728 0 -15621.72164013 0 -2331.43300311 0 31341.54407816 0 169
0.01350000 0.01339930 68456.30904000 0 2492.95607757 0 -1725.24536394 0 -2599.68221649 0 15515.20587538 0 180
0.01450000 0.01448870 70658.59444643 0 3720.05754792 0 -6642.49803288 0 -479.35748007 0 29321.84130799 0 267
0.01550000 0.01550050 73220.50896297 0 3571.25657468 0 1285.25332030 0 638.53875783 0 19161.21171491 0 238
0.01650000 0.01653350 68330.41670682 0 500.06383471 0 7836.62611992 0 -3987.19952882 0 15190.56531169 0 315
0.01750000 0.01747870 69098.61460273 0 4124.55171819 0 16123.18723117 0 -8616.53853549 0 13586.29616872 0 297
0.01850000 0.01844180 70372.92846611 0 1943.89056214 0 22630.06035734 0 1836.55544534 0 10661.06545791 0 388
0.01950000 0.01947590 64584.09560443 0 5837.99398388 0 15945.69786433 0 -6777.49181707 0 14507.84576338 0 399
0.02050000 0.02045430 65581.93351708 0 3554.26055608 0 28727.25746523 0 -3291.49214349 0 4520.78593415 0 462
0.02150000 0.02154770 61430.69749608 0 2417.61997950 0 23907.36374842 0 3141.87181821 0 -2015.48421441 0 571
0.02250000 0.02255340 62051.74419515 0 -916.99111853 0 37829.37280564 0 10529.69232393 0 -9445.20239725 0 510
0.02350000 0.02348930 60108.32974299 0 -4701.32019032 0 28907.51491327 0 2000.86874565 0 -5352.98186752 0 555
0.02450000 0.02439640 64368.40671696 0 -464.39876924 0 25968.36629016 0 7515.87194225 0 -2910.58202508 0 592
0.02550000 0.02547300 61822.76851790 0 2990.97817559 0 27657.33871800 0 -1789.27661837 0 -177.02654367 0 837
0.02650000 0.02652900 59910.91019147 0 4375.39523696 0 22297.11555005 0 2103.52026905 0 832.93999360 0 723
0.02750000 0.02749970 56307.97569548 0 3102.31040164 0 29568.97559794 0 2811.52900725 0 1526.39748252 0 826
0.02850000 0.02848090 55901.06775840 0 1370.41057048 0 25639.96113604 0 7131.96122381 0 2677.96355296 0 831
0.02950000 0.02946900 54954.49470965 0 -273.61929092 0 26851.27347120 0 3857.54260519 0 5998.98558674 0 996
0.03050000 0.03053250 57061.77956913 0 -284.12692717 0 21953.09841793 0 9324.20403163 0 12647.58447060 0 1041
0.03150000 0.03150510 56733.26369177 0 -823.70235300 0 23442.76899903 0 8112.32700790 0 16071.14730452 0 1036
0.03250000 0.03246190 57366.37922490 0 -586.62727015 0 16806.68184222 0 7655.20607777 0 10785.79519699 0 1059
0.03350000 0.03345080 54652.66313509 0 1185.63561391 0 17608.31815909 0 4488.42152871 0 15849.70080815 0 1302
0.03450000 0.03451200 53055.48028000 0 3980.68900183 0 14168.36828444 0 4569.67024823 0 9536.02867773 0 1339
0.03550000 0.03553350 52117.32219812 0 1479.98229688 0 13141.63160400 0 -658.69813962 0 15533.47521133 0 1365
0.03650000 0.03647120 50525.67550544 0 813.52577926 0 11851.48431613 0 313.12313141 0 9514.55943991 0 1308
0.03750000 0.03744890 47635.35583478 0 4989.98677067 0 14918.07539791 0 -3975.99433610 0 7230.16167263 0 1579
0.03850000 0.03847530 47118.61043549 0 627.36899655 0 14556.67471583 0 -450.64804905 0 5860.34900769 0 1662
0.03950000 0.03950240 44881.44720589 0 -908.60161801 0 15699.22791386 0 -309.38290008 0 7290.37297499 0 1683
0.04050000 0.04050350 46472.20811258 0 402.16566037 0 18593.53362146 0 3206.00272356 0 9835.85616150 0 1822
0.04150000 0.04152450 46917.97990978 0 -792.65776867 0 15896.09384914 0 4517.87391273 0 2430.37529769 0 1887
0.04250000 0.04250150 46053.78495768 0 2489.37971665 0 16178.88102501 0 752.82729460 0 6778.75406210 0 1920
0.04350000 0.04349210 43829.35490162 0 2594.96540612 0 14116.88197403 0 -1429.39284479 0 1762.33765208 0 2005
0.04450000 0.04448520 42225.19648189 0 899.29975793 0 15835.97112537 0 -739.55046991 0 2684.31906741 0 2151
0.04550000 0.04548030 39937.10055812 0 1043.32191578 0 15335.28059707 0 406.74185221 0 4596.24382779 0 2274
0.04650000 0.04648670 40819.56484617 0 763.29617772 0 14857.73122765 0 3274.14181050 0 1188.00509142 0 2311
0.04750000 0.04749250 39862.58381209 0 138.43838444 0 11883.04044187 0 2756.58813150 0 1616.92481024 0 2568
0.04850000 0.04851840 40287.65036188 0 123.45642173 0 12278.10099140 0 102.79856387 0 557.82815329 0 2493
0.04950000 0.04949480 39771.68002533 0 1425.37359088 0 13229.98875606 0 -1360.01365747 0 989.80383377 0 2644
0.05050000 0.05050630 39032.93451343 0 1178.20608395 0 14791.85089497 0 -368.84460606 0 3315.09834000 0 2829
0.05150000 0.05149060 36682.72284742 0 1079.28925572 0 14373.20629358 0 1159.26133619 0 4703.22463019 0 2784
0.05250000 0.05249300 37643.24702544 0 720.11853986 0 15543.21885717 0 2742.32697713 0 1273.54987297 0 3055
0.05350000 0.05348950 37698.60864953 0 -1322.17952357 0 13368.61426279 0 3038.48952138 0 3748.98953267 0 3009
0.05450000 0.05448610 37133.47719079 0 428.30631203 0 12576.50014526 0 1507.15378199 0 1117.57403325 0 3336
0.05550000 0.05550870 36703.31737159 0 1034.09091858 0 11492.63026876 0 -1707.64036748 0 1455.39066346 0 3349
0.05650000 0.05647670 35565.52527322 0 1320.72904902 0 11774.31021215 0 42.05922233 0 1555.89415584 0 3324
0.05750000 0.05747970 34787.25156172 0 1534.81244939 0 10860.63304044 0 -725.18855739 0 71.76305885 0 3639
0.05850000 0.05849280 32860.88848977 0 1515.14800051 0 11799.88728248 0 1389.98644076 0 -1963.66573426 0 3846
0.05950000 0.05951020 32188.46620353 0 982.56696227 0 9727.02628086 0 1434.56362048 0 -1612.49588031 0 3787
0.06050000 0.06049470 30960.76682764 0 -321.31886624 0 7790.07806638 0 2317.20506572 0 -1191.09427004 0 3930
0.06150000 0.06148310 32158.34948003 0 -1280.16005088 0 6232.54520647 0 2258.31137001 0 -1888.58429967 0 4083
0.06250000 0.06249100 32919.23964157 0 -499.10164969 0 7272.46902576 0 -154.48550480 0 -3718.35240990 0 4303
0.06350000 0.06350600 33062.29407822 0 958.10930397 0 6995.55018204 0 -1318.71388590 0 -2071.41052707 0 4470
0.06450000 0.06451750 31129.17688814 0 1657.68203790 0 7229.97344311 0 -3018.75863856 0 -13.17307701 0 4479
0.06550000 0.06550280 31316.74207056 0 1223.89049615 0 8655.62384210 0 -223.83258237 0 1102.64411046 0 4636
0.06650000 0.06648880 30819.92685595 0 8.61704786 0 9088.24171742 0 1655.63365781 0 -269.00545317 0 4653
0.06750000 0.06749660 29939.12341663 0 695.52579920 0 8947.34638410 0 3265.80434991 0 32.77851039 0 5220
0.06850000 0.06852730 29794.85102424 0 373.59574064 0 7860.71949872 0 1358.86213569 0 -1584.40539225 0 5029
0.06950000 0.06949320 28333.41487143 0 644.19339411 0 7709.37189078 0 1862.34288985 0 -319.24280533 0 5040
0.07050000 0.07048030 28804.09939947 0 460.29425843 0 7496.09677012 0 -733.03772846 0 1258.22577542 0 5475
0.07150000 0.07148790 28791.69839567 0 -281.34445194 0 8154.62328871 0 -191.10057574 0 2030.76402266 0 5509
0.07250000 0.07249820 28589.07485149 0 -104.66690796 0 8519.75534425 0 258.82334326 0 1673.00613545 0 5916
0.07350000 0.07351270 28683.18961245 0 1047.69437685 0 9028.15221063 0 -814.87660289 0 1557.45535364 0 5721
0.07450000 0.07449140 28068.01124552 0 1117.13114025 0 9499.67823535 0 -132.21352343 0 2337.44527549 0 6028
0.07550000 0.07549160 26872.31088836 0 713.04332430 0 9826.97615699 0 330.64619266 0 2560.25366782 0 6183
0.07650000 0.07648840 26371.39891356 0 671.58964741 0 9474.93158939 0 1138.77753527 0 2041.30487589 0 6330
0.07750000 0.07749960 25659.11625798 0 352.31583957 0 8833.30143847 0 1733.16207619 0 998.55207761 0 6583
0.07850000 0.07848650 25700.30530630 0 254.64354064 0 7748.43505274 0 652.11232082 0 520.96284781 0 6549
0.07950000 0.07947320 25272.13850557 0 -239.83098450 0 7218.22570647 0 439.55025788 0 -50.67891648 0 6828
0.08050000 0.08048110 24768.23700307 0 932.50012390 0 7752.26607713 0 -735.76484206 0 -593.96822150 0 7147
0.08150000 0.08149960 24623.41099444 0 683.91978833 0 7565.21022164 0 38.38941099 0 -1030.42819353 0 7386
0.08250000 0.08250610 23722.45592395 0 509.26161494 0 7599.29083743 0 -784.62147532 0 -556.06543918 0 7227
0.08350000 0.08350160 23964.16477474 0 438.52163891 0 6688.99072479 0 628.42086741 0 -1832.54726376 0 7798
0.08450000 0.08449610 23290.52453277 0 217.60772136 0 6699.27691455 0 204.82582959 0 -1695.67118435 0 7371
0.08550000 0.08548940 23088.56532808 0 502.90056433 0 6423.48744796 0 284.57867802 0 -1648.86846734 0 8256
0.08650000 0.08650700 22270.98486347 0 668.78834923 0 6287.68538406 0 941.99242797 0 -1925.96446825 0 8037
0.08750000 0.08749060 21884.22855756 0 576.74189855 0 5994.50129519 0 664.59525982 0 -433.87015525 0 8155
0.08850000 0.08849210 21269.82525337 0 480.68173012 0 5490.24547830 0 469.79431313 0 -391.16752012 0 8718
0.08950000 0.08949900 20844.53725709 0 869.79865569 0 5830.70839415 0 815.21098710 0 502.69351186 0 8571
0.09050000 0.09049190 20090.29049044 0 747.67312740 0 6381.97730222 0 -184.46825318 0 1247.54098197 0 8932
0.09150000 0.09150830 19595.68974079 0 444.15302331 0 6473.06931850 0 272.09131009 0 1849.73151188 0 9285
0.09250000 0.09250820 19586.05681820 0 -89.79544705 0 7630.84696316 0 -7.68764799 0 2124.61304783 0 9204
0.09350000 0.09350330 19312.79184168 0 285.89296298 0 7115.95064212 0 821.51889055 0 2232.40212994 0 9349
0.09450000 0.09448040 19337.92601901 0 152.08613201 0 7325.94835463 0 102.75837133 0 2420.64272418 0 9564
0.09550000 0.09549270 19245.58283003 0 -293.87721641 0 6134.16760045 0 1938.90801597 0 1889.68045982 0 10155
0.09650000 0.09649430 19190.33192918 0 -263.51136559 0 5820.53292764 0 1050.39491687 0 1207.18235800 0 9913
0.09750000 0.09749140 19316.22426237 0 536.87710027 0 5038.51677035 0 216.36208482 0 -436.38025129 0 10476
0.09850000 0.09850240 18646.12716434 0 1104.42343306 0 5291.74083895 0 -774.19577427 0 -208.80633036 0 10575
0.09950000 0.09950330 17575.65480088 0 671.92735332 0 4827.93222462 0 -561.99688359 0 1201.84549744 0 10882
0.10050000 0.10051200 17315.34444439 0 392.58145600 0 4632.22888345 0 864.16616405 0 1407.70216047 0 10875
0.10150000 0.10150300 17151.25259058 0 1.13133693 0 4590.87375026 0 1123.64166725 0 761.07839106 0 11118
0.10250000 0.10250800 17321.10205330 0 8.23405615 0 4333.40898125 0 1452.88831805 0 -436.70577764 0 11575
0.10350000 0.10349800 16821.40803423 0 307.19279423 0 4436.56983158 0 -339.72660625 0 488.16108553 0 11364
0.10450000 0.10450100 16546.03931599 0 586.48443716 0 4260.79667509 0 -604.21122919 0 526.97733465 0 12093
0.10550000 0.10551000 16086.75928251 0 419.60014302 0 4683.80377246 0 -1098.31704592 0 286.95701339 0 12067
0.10650000 0.10649700 16038.59466955 0 449.26511568 0 5126.36459546 0 -616.26124029 0 -304.62401488 0 12054
0.10750000 0.10749900 15656.37801681 0 77.99755278 0 5010.62558413 0 -109.88784128 0 -55.73553650 0 12807
0.10850000 0.10850100 15606.33110863 0 295.90234462 0 4942.01038723 0 528.14435769 0 -616.44504088 0 12736
0.10950000 0.10950300 15214.59225655 0 352.18740060 0 4876.61723685 0 516.90926969 0 54.01899399 0 12933
0.11050000 0.11050200 15004.32880824 0 219.63506403 0 4388.69309907 0 1053.50181122 0 -122.80315456 0 13428
0.11150000 0.11150900 14844.77660761 0 132.68077553 0 4475.34511310 0 471.68989513 0 -82.03042565 0 13453
0.11250000 0.11250000 14518.91808819 0 287.24489384 0 4391.40581865 0 24.05418278 0 256.45718745 0 13668
0.11350000 0.11349100 14219.96531809 0 473.34077876 0 4386.62257433 0 142.11107458 0 356.57425569 0 13791
0.11450000 0.11448600 14112.56376735 0 77.39112155 0 3886.16456485 0 -339.13312964 0 697.67272299 0 14205
0.11550000 0.11549300 14186.63762039 0 -114.92630269 0 4216.30807397 0 308.69641594 0 -423.69358151 0 14776
0.11650000 0.11649800 14108.02411417 0 80.38330661 0 4118.37336095 0 -357.28399171 0 47.03490366 0 14553
0.11750000 0.11747300 14048.89789964 0 275.52040909 0 4111.70782140 0 227.68907311 0 -558.12599883 0 14568
0.11850000 0.11849100 13841.95614878 0 246.47105770 0 3760.79263093 0 -23.92563308 0 -114.96616306 0 16015
0.11950000 0.11950300 13896.21054039 0 124.29348948 0 4384.38596471 0 -141.08134837 0 -11.44634795 0 15270
0.12050000 0.12050700 13637.11813964 0 128.26513240 0 4145.57806302 0 181.48869057 0 454.58204606 0 15999
0.12150000 0.12150000 13859.22897550 0 -131.50821634 0 4487.62432132 0 219.90633599 0 1238.76062839 0 15670
0.12250000 0.12250700 14150.87401122 0 -235.13410431 0 4659.26750066 0 164.68643766 0 1033.18520241 0 16887
0.12350000 0.12352200 14176.34035831 0 54.06760149 0 4610.67106703 0 545.43157843 0 828.64836050 0 16407
0.12450000 0.12449800 14015.79164844 0 258.54210621 0 4666.04376345 0 64.66392707 0 1596.44100933 0 16306
0.12550000 0.12549900 13765.33566104 0 349.68837689 0 4535.67821104 0 59.59800629 0 1651.74727180 0 17523
0.12650000 0.12650100 13585.41038273 0 238.19449489 0 4658.52565490 0 356.82006130 0 903.01230844 0 17154
0.12750000 0.12750600 13276.27107380 0 201.06788254 0 4394.20711683 0 -10.65120002 0 579.67495739 0 18007
0.12850000 0.12850300 13001.12380205 0 379.48289574 0 4495.75140774 0 -76.63067428 0 10.62924360 0 17496
0.12950000 0.12949900 12696.74559279 0 106.92865175 0 4150.90385126 0 -256.92443956 0 -197.46162635 0 18405
0.13050000 0.13049000 12717.89373319 0 74.70907231 0 3736.06812961 0 -68.79235410 0 -413.55133198 0 18100
0.13150000 0.13148800 12527.44974631 0 92.60648887 0 3674.11847225 0 427.89552878 0 -1205.97547460 0 19059
0.13250000 0.13249300 12662.31066260 0 45.20298752 0 3649.36075395 0 333.61136125 0 -1006.89396713 0 18957
0.13350000 0.13349100 12505.08365018 0 113.80246172 0 3294.54810514 0 525.06071523 0 -686.32580451 0 19468
0.13450000 0.13450700 12228.82914595 0 188.78313816 0 3723.82213836 0 290.83675601 0 -383.90961120 0 19953
0.13550000 0.13551000 12178.67151453 0 210.70523407 0 3461.99487337 0 182.48852150 0 -104.99907770 0 19956
0.13650000 0.13649900 12153.42661394 0 251.33512999 0 3745.73426917 0 270.60872580 0 178.98080900 0 19723
0.13750000 0.13749600 11831.00051522 0 274.62355078 0 3605.29290117 0 -223.09184384 0 458.21819753 0 20946
0.13850000 0.13851100 11675.10218177 0 384.65477866 0 3554.63701513 0 -139.06397079 0 411.94473765 0 20955
0.13950000 0.13949800 11439.04021664 0 128.96158163 0 3525.00747391 0 123.73212262 0 496.24056095 0 20506
0.14050000 0.14048300 11236.19522596 0 -34.71107397 0 3255.60673875 0 597.34528057 0 -44.78423219 0 21447
0.14150000 0.14148400 11348.13642988 0 4.82765542 0 3075.23856746 0 227.25171628 0 -424.02242956 0 21771
0.14250000 0.14249400 11127.35427299 0 101.89450855 0 2760.23092637 0 397.24511922 0 -259.85085501 0 22470
0.14350000 0.14350900 11093.91585204 0 -2.57976310 0 2574.95771517 0 -90.85119322 0 -53.87793257 0 22519
0.14450000 0.14449900 11250.58924823 0 49.72182472 0 2673.33532119 0 323.96958080 0 545.05290492 0 22218
0.14550000 0.14550500 11202.09246552 0 203.90571940 0 2831.28203473 0 16.83845941 0 398.13090520 0 23559
0.14650000 0.14650700 11033.42774156 0 233.60723072 0 2868.11965940 0 194.85409386 0 242.23035729 0 23044
0.14750000 0.14750500 10668.26246904 0 292.08571425 0 2710.51618793 0 95.41697708 0 301.07754924 0 23649
0.14850000 0.14849900 10548.64814402 0 389.90859679 0 2916.29534468 0 -238.15684899 0 338.38353325 0 23640
0.14950000 0.14949500 10320.87935018 0 -3.19260521 0 2667.03516837 0 221.76537933 0 453.75605063 0 24457
0.15050000 0.15050000 10195.06452326 0 85.91703311 0 2637.59385667 0 160.21543289 0 394.60879868 0 24591
0.15150000 0.15149900 10326.60374211 0 123.92810277 0 2424.62876111 0 -18.33576990 0 406.88911413 0 25020
0.15250000 0.15250500 10071.92919896 0 157.80388055 0 2551.22972309 0 56.22814423 0 124.01335967 0 25297
0.15350000 0.15350100 9822.31470825 0 289.86460589 0 2556.45586040 0 -74.23628404 0 177.52258382 0 25452
0.15450000 0.15450400 9810.35659744 0 222.48286598 0 3032.37759808 0 -289.40842611 0 171.19696465 0 26061
0.15550000 0.15549900 9499.10247446 0 312.13105110 0 2979.15293268 0 -83.72836666 0 315.65426486 0 26128
0.15650000 0.15649500 9437.44069755 0 213.39248730 0 3101.01493963 0 127.48564073 0 547.07028250 0 26331
0.15750000 0.15749700 9275.03183711 0 45.93774699 0 2875.75956352 0 120.47243019 0 332.28821843 0 27345
0.15850000 0.15849900 9219.24946467 0 24.28548364 0 2819.11354975 0 366.44855497 0 482.47323228 0 26980
0.15950000 0.15949700 9146.46000132 0 86.01657331 0 2902.94212095 0 361.98308637 0 500.32624881 0 27777
0.16050000 0.16050000 8951.57601218 0 167.09023937 0 2543.06941970 0 511.55247895 0 362.88326637 0 28224
0.16150000 0.16150500 8904.39683613 0 8.17071138 0 2260.21580988 0 343.66060326 0 525.80256099 0 28075
0.16250000 0.16249700 8879.20729717 0 -32.72082358 0 2291.94909281 0 278.86978735 0 957.66641098 0 28590
0.16350000 0.16349900 8952.29571330 0 -40.47986592 0 2314.90202216 0 -70.50657143 0 303.27319125 0 29163
0.16450000 0.16449100 8992.11179334 0 81.95579818 0 2551.69476073 0 -67.51870457 0 604.17690498 0 28996
0.16550000 0.16550500 8951.63137381 0 272.53752478 0 2585.90824442 0 -302.03198364 0 406.94226129 0 30777
0.16650000 0.16650700 8700.71034877 0 183.64668667 0 2503.80695589 0 -375.87110339 0 567.76002866 0 29211
0.16750000 0.16749900 8671.75621937 0 124.26691590 0 2630.86188318 0 92.96733594 0 301.26467153 0 30922
0.16850000 0.16850800 8442.43730005 0 88.95450398 0 2455.73092153 0 190.43070009 0 369.76028732 0 30867
0.16950000 0.16949900 8421.93135448 0 86.19959884 0 2510.95967772 0 381.28989915 0 192.11480070 0 30852
0.17050000 0.17049200 8292.59552828 0 106.25312921 0 2250.08463267 0 203.26463179 0 -48.96680289 0 31257
0.17150000 0.17149500 8245.87031754 0 200.06472992 0 2160.74204371 0 70.57477695 0 75.41581880 0 32608
0.17250000 0.17250900 8013.99369119 0 220.75779777 0 2249.53101643 0 -128.94829484 0 39.65165602 0 32361
0.17350000 0.17350400 7900.98954409 0 166.22659804 0 2168.55910503 0 -50.18243344 0 501.61617465 0 32508
0.17450000 0.17449800 7941.65819315 0 -7.36934080 0 2372.28988169 0 50.64891048 0 418.28475084 0 32791
0.17550000 0.17549800 7958.07845085 0 -121.29731839 0 2207.68870094 0 311.78338010 0 361.18698621 0 33633
0.17650000 0.17650100 8002.21273758 0 -42.63775130 0 2143.02632400 0 214.98025868 0 45.80642922 0 33984
0.17750000 0.17750300 8081.83382535 0 95.71238671 0 2023.85489198 0 -31.25174752 0 53.48696878 0 34069
0.17850000 0.17849800 7923.47743580 0 156.88930652 0 1922.44346896 0 -172.10268082 0 66.98834022 0 34536
