### header ###
fiducial parameters:
Omega_m = 0.31
Omega_nu = 0
Omega_de = 0.69
Omega_k = 0
H_0 = 100
w_de = -1
zeff = 0
beta = 0
fgrowth = 0
b_1 = 2
gamma = 0.55
Lx = 3500 Ly = 3500 Lz = 3500
nx = 700 ny = 700 nz = 700
xoffset = -685.467585 yoffset = -31.7331281 zoffset = 572.489161
bins = 400 dk = 0.001
kx_ny = 0.628318531 ky_ny = 0.628318531 kz_ny = 0.628318531
############################
A(data) = 8.04295779 (not used)
A(ran) = 8.04298454 (used)
Ngal = 477931
weighted Ngal = 0
Nran = 23820508
weighted Nran = 0
SN(data) = 3487.84947
SN(ran) = 70.0573122
SN(data+ran) = 3557.90678
############################
13 columns: k_central k_mean P_0(k) sigma^{lin}_{P_0(k)} P^img_1(k) sigma^{lin}_{P_1(k)} P_2(k) sigma^{lin}_{P_2(k)} P^img_3(k) sigma^{lin}_{P_3(k)} P_4(k) sigma^{lin}_{P_4(k)} N_modes
### header ###
0.00050000 0 0 0 0 0 0 0 0 0 0 0 0
0.00150000 0.00179520 92134.25421818 0 -63614.82428980 0 74222.33291256 0 63427.03766088 0 -204343.07622556 0 3
0.00250000 0.00253879 147554.22946321 0 -36652.93829366 0 41041.12206579 0 -29431.12515395 0 115774.44276873 0 6
0.00350000 0.00331552 129341.36236902 0 14987.05598153 0 6148.91593711 0 -77924.80760867 0 69476.29160230 0 7
0.00450000 0.00420575 85600.14317295 0 57346.78120997 0 -5629.87856659 0 -56867.68171506 0 54072.14114485 0 24
0.00550000 0.00557378 50130.83640241 0 11490.19435730 0 14069.38170056 0 -13951.46144124 0 3513.76906422 0 45
0.00650000 0.00659388 44941.01631341 0 -14671.16255445 0 15422.86268639 0 -30152.26566939 0 -22641.13268216 0 40
0.00750000 0.00754703 50044.14009908 0 355.12931730 0 622.93895939 0 963.38305229 0 -23180.68707057 0 57
0.00850000 0.00846663 59264.61859180 0 -1600.67063741 0 14074.47496997 0 -28292.89016259 0 -12364.46512498 0 75
0.00950000 0.00948925 56438.40768184 0 -3420.56223390 0 9712.48831837 0 -17930.41208807 0 -18783.42399210 0 112
0.01050000 0.01054430 65109.25597058 0 2761.42673745 0 19931.84552229 0 -2143.19240887 0 -10977.95539422 0 105
0.01150000 0.01145670 68544.66619206 0 -5415.76194925 0 45396.53175645 0 -7043.05045552 0 16484.58791325 0 144
0.01250000 0.01249090 75659.52067402 0 -139.30645471 0 40795.98079430 0 25823.09738854 0 17906.82803620 0 169
0.01350000 0.01339930 75661.73513899 0 -2970.87083372 0 65196.83805989 0 18135.69299021 0 41702.25058071 0 180
0.01450000 0.01448870 90930.36034065 0 -3314.21255402 0 55958.09023121 0 35211.98594176 0 25789.21607460 0 267
0.01550000 0.01550050 84809.46845766 0 2887.93912082 0 54322.92930199 0 18622.10021949 0 42277.23640854 0 238
0.01650000 0.01653350 83292.33851100 0 9008.66491895 0 46897.38538562 0 22152.62171116 0 30372.60493328 0 315
0.01750000 0.01747870 77416.03428325 0 3675.66859772 0 50576.94036935 0 17921.77567471 0 48422.15523639 0 297
0.01850000 0.01844180 73507.17145253 0 4285.99728637 0 35077.12502547 0 11893.22698070 0 11603.35351695 0 388
0.01950000 0.01947590 67672.60988934 0 4153.80480036 0 24133.12845147 0 -0.25022790 0 16748.33069043 0 399
0.02050000 0.02045430 67892.50626024 0 2155.71520824 0 25510.41493566 0 -5.95239324 0 -26.08174690 0 462
0.02150000 0.02154770 68093.02606270 0 -2341.02163641 0 22461.53957360 0 -7365.49869889 0 -5185.31365279 0 571
0.02250000 0.02255340 72816.92272333 0 -5367.14337097 0 30991.54789064 0 840.30530407 0 -22088.18078072 0 510
0.02350000 0.02348930 77273.09056984 0 -2360.36498786 0 31227.72057902 0 -10780.17045598 0 -20351.81880266 0 555
0.02450000 0.02439640 78001.64954291 0 6354.26327320 0 35662.96173163 0 -4240.46788672 0 -14889.95169287 0 592
0.02550000 0.02547300 74585.39444337 0 7379.61591303 0 40546.96420913 0 1986.65188059 0 -5072.35379499 0 837
0.02650000 0.02652900 66737.10916541 0 2011.47603283 0 36726.34780721 0 4219.29760167 0 -69.73040146 0 723
0.02750000 0.02749970 67932.25590634 0 2143.14811957 0 40496.69585445 0 14953.28539083 0 -5700.58643288 0 826
0.02850000 0.02848090 63175.14227125 0 2883.68734809 0 37962.01925697 0 5762.90147696 0 6409.94599471 0 831
0.02950000 0.02946900 61924.08029000 0 4288.74322293 0 35772.24557759 0 15558.16649567 0 1755.32887047 0 996
0.03050000 0.03053250 56720.08762523 0 1303.43407765 0 31599.97213942 0 3168.10215571 0 13291.32943555 0 1041
0.03150000 0.03150510 59538.10501482 0 2718.39968320 0 34253.01188922 0 3734.85017388 0 14693.86082033 0 1036
0.03250000 0.03246190 59139.16915161 0 416.66154802 0 32668.45148442 0 2205.48530830 0 14695.30022256 0 1059
0.03350000 0.03345080 57375.23708475 0 1999.16360763 0 41701.91841096 0 -414.24778121 0 25183.55990702 0 1302
0.03450000 0.03451200 60776.10165280 0 767.53355643 0 35923.27208811 0 4640.56634404 0 12948.75170566 0 1339
0.03550000 0.03553350 57045.83542140 0 858.22254009 0 40872.71200530 0 4226.56104675 0 21103.74038109 0 1365
0.03650000 0.03647120 56077.56061601 0 2792.17458347 0 35315.73362531 0 2965.02464621 0 8636.83410689 0 1308
0.03750000 0.03744890 53452.64457125 0 3286.24386152 0 34518.74768487 0 121.63059537 0 6308.39063147 0 1579
0.03850000 0.03847530 51396.51385243 0 3862.95697203 0 32957.32843894 0 3393.73399086 0 -466.13712424 0 1662
0.03950000 0.03950240 48338.55918401 0 2707.50451558 0 32144.39835076 0 1817.96501197 0 979.89299582 0 1683
0.04050000 0.04050350 47584.75531036 0 -1189.84309734 0 29652.57165032 0 2452.86318940 0 -1743.47041059 0 1822
0.04150000 0.04152450 50586.90546169 0 -1356.54801981 0 28473.03688739 0 1878.55277338 0 -11543.89513267 0 1887
0.04250000 0.04250150 49531.93435297 0 -1237.78626380 0 28113.51850053 0 3455.05252571 0 -7487.79252651 0 1920
0.04350000 0.04349210 50535.64059778 0 -1303.93233227 0 21177.81423413 0 4220.86987179 0 -8934.86787403 0 2005
0.04450000 0.04448520 50242.33471333 0 385.05781129 0 23303.92204580 0 4824.64374415 0 -7062.96956787 0 2151
0.04550000 0.04548030 47494.07297009 0 2754.50653443 0 17918.56470051 0 5439.56744761 0 -6186.49540755 0 2274
0.04650000 0.04648670 45460.64051715 0 4132.20269464 0 14554.68169736 0 5452.82102041 0 -4703.43500436 0 2311
0.04750000 0.04749250 40932.17038957 0 2876.41283069 0 12076.58467970 0 1281.18977709 0 -4419.38558346 0 2568
0.04850000 0.04851840 39901.55839545 0 2362.75661003 0 13670.22439085 0 688.85361627 0 -2664.87606503 0 2493
0.04950000 0.04949480 35619.77966483 0 1856.20882190 0 14486.69762297 0 272.28729024 0 -904.66762100 0 2644
0.05050000 0.05050630 36962.07760260 0 1483.79117662 0 15475.23478278 0 1144.83409695 0 746.78734142 0 2829
0.05150000 0.05149060 36093.45372058 0 -1198.93347601 0 17338.70704976 0 3973.97917299 0 2413.20212190 0 2784
0.05250000 0.05249300 36532.47139963 0 200.73903450 0 15631.35456272 0 1041.16391967 0 1451.95824277 0 3055
0.05350000 0.05348950 37730.38622176 0 502.29047924 0 18383.27017315 0 -1105.82961831 0 2658.73092475 0 3009
0.05450000 0.05448610 37164.03680729 0 310.39048164 0 19724.57160168 0 -993.82087321 0 3829.06458576 0 3336
0.05550000 0.05550870 36755.91091447 0 176.58365067 0 17829.76465547 0 791.26376298 0 2516.65085268 0 3349
0.05650000 0.05647670 36474.67386408 0 1201.35831515 0 20101.91643150 0 -223.74843270 0 1667.00493540 0 3324
0.05750000 0.05747970 36082.38139576 0 1164.28817166 0 19659.02343875 0 499.17915596 0 440.04076187 0 3639
0.05850000 0.05849280 34755.03109650 0 1104.31492427 0 17749.82247028 0 4137.47312126 0 722.20899478 0 3846
0.05950000 0.05951020 33595.98013448 0 623.95096988 0 14149.87750199 0 1476.56094852 0 61.60320432 0 3787
0.06050000 0.06049470 33429.00947622 0 -169.33902854 0 14841.78707991 0 2970.07362633 0 2227.00990775 0 3930
0.06150000 0.06148310 33571.17812689 0 629.55467347 0 13219.69149397 0 1922.00057597 0 -2462.48503967 0 4083
0.06250000 0.06249100 32764.33781735 0 1353.68028768 0 12634.74057381 0 -1076.31080034 0 1447.96113351 0 4303
0.06350000 0.06350600 30608.55617516 0 2200.86814885 0 12906.78759460 0 -252.09801317 0 440.00643767 0 4470
0.06450000 0.06451750 30132.33548471 0 178.01862397 0 11715.18399762 0 2007.02495825 0 2290.08894224 0 4479
0.06550000 0.06550280 31121.97987700 0 -1143.57185192 0 13547.87520160 0 926.48895876 0 -1731.99948208 0 4636
0.06650000 0.06648880 31086.76988408 0 -684.37153918 0 11184.26602256 0 1524.73663380 0 -1725.97613738 0 4653
0.06750000 0.06749660 30755.81809525 0 987.26273522 0 10897.60353301 0 443.49754168 0 -1379.75561263 0 5220
0.06850000 0.06852730 30181.60733016 0 1428.65099903 0 9642.85446758 0 262.17161429 0 -279.89619186 0 5029
0.06950000 0.06949320 29769.49540041 0 273.46427837 0 10551.44944220 0 960.36362931 0 -324.83322213 0 5040
0.07050000 0.07048030 29184.54448024 0 122.13992231 0 10650.26994121 0 348.06628130 0 -2458.90867875 0 5475
0.07150000 0.07148790 28573.68431999 0 340.65778877 0 11220.14035498 0 -20.86657118 0 -390.43010329 0 5509
0.07250000 0.07249820 28556.30077003 0 965.97619076 0 12512.83427755 0 -1215.19872117 0 -1789.60878811 0 5916
0.07350000 0.07351270 28331.20040646 0 1117.10899560 0 13515.98690612 0 -1133.01992637 0 -1272.15476004 0 5721
0.07450000 0.07449140 27383.63084848 0 1108.67188409 0 13774.41496739 0 -1739.58402458 0 -47.43882207 0 6028
0.07550000 0.07549160 26038.23265977 0 1266.23106626 0 13889.12425251 0 -137.98663359 0 -903.60578505 0 6183
0.07650000 0.07648840 25798.51682745 0 -56.09682646 0 13866.20454014 0 1326.36486235 0 -502.02585067 0 6330
0.07750000 0.07749960 25694.99059039 0 -443.99579630 0 12063.74078291 0 2942.62533310 0 -2725.98422570 0 6583
0.07850000 0.07848650 26222.80831450 0 -158.80814041 0 11507.24573752 0 1659.98508146 0 -4306.39250869 0 6549
0.07950000 0.07947320 25436.34108263 0 675.96985911 0 10226.90852944 0 -407.87676551 0 -4950.38106479 0 6828
0.08050000 0.08048110 25088.67008332 0 1035.48713874 0 9963.48684968 0 -394.09947174 0 -3608.82497279 0 7147
0.08150000 0.08149960 24174.20677655 0 456.26725389 0 10191.12277563 0 298.22864006 0 -3428.00283618 0 7386
0.08250000 0.08250610 24164.13096097 0 156.07438341 0 10260.05906995 0 1458.20303397 0 -2899.83079768 0 7227
0.08350000 0.08350160 23148.24515885 0 353.91357604 0 9393.19568757 0 2094.46310734 0 -2985.35343458 0 7798
0.08450000 0.08449610 23333.15298333 0 357.26073983 0 8425.46342610 0 1460.76074100 0 -2057.81371220 0 7371
0.08550000 0.08548940 22513.91166999 0 611.24326268 0 8384.44046265 0 1081.39853360 0 -506.81906009 0 8256
0.08650000 0.08650700 22286.26467172 0 935.11540702 0 8580.35417799 0 -250.33862075 0 -1144.12546816 0 8037
0.08750000 0.08749060 21071.51991587 0 992.90962088 0 8765.29521943 0 -567.18537500 0 1590.77197902 0 8155
0.08850000 0.08849210 20705.69030386 0 688.70524711 0 8901.06406636 0 -457.66679575 0 155.08894650 0 8718
0.08950000 0.08949900 20351.48663291 0 322.64754522 0 10157.28575098 0 223.90344525 0 1247.81779009 0 8571
0.09050000 0.09049190 20145.54139129 0 331.38693119 0 10062.62844611 0 593.33931345 0 819.55023119 0 8932
0.09150000 0.09150830 19825.32975753 0 331.57516072 0 9430.35440967 0 1203.76100963 0 1341.51180270 0 9285
0.09250000 0.09250820 19454.18542961 0 360.07200310 0 9190.99289174 0 1782.63322348 0 2445.69939524 0 9204
0.09350000 0.09350330 19129.32341943 0 313.10984462 0 8908.21678819 0 1654.53749765 0 2828.02677123 0 9349
0.09450000 0.09448040 18929.91084945 0 174.07134017 0 8059.08019785 0 1163.20308382 0 3101.69035145 0 9564
0.09550000 0.09549270 18641.58751117 0 672.54851074 0 7681.59142781 0 477.70991814 0 2665.08643920 0 10155
0.09650000 0.09649430 18026.07697450 0 665.11344462 0 8122.10387072 0 -46.06131414 0 3722.18343428 0 9913
0.09750000 0.09749140 17580.30517730 0 250.66193264 0 7428.28985293 0 -493.52341244 0 2052.78687673 0 10476
0.09850000 0.09850240 17176.60821441 0 258.84216622 0 7495.80888968 0 -493.18792100 0 1327.30600996 0 10575
0.09950000 0.09950330 17605.88224763 0 -39.16480590 0 7701.65448038 0 164.86913101 0 580.55852891 0 10882
0.10050000 0.10051200 17226.76584584 0 -5.74820850 0 7142.54636634 0 226.47776077 0 104.48122507 0 10875
0.10150000 0.10150300 17435.58989192 0 -16.39667365 0 6671.05355858 0 784.78645296 0 472.80155655 0 11118
0.10250000 0.10250800 17220.78679044 0 345.07786083 0 6481.31820049 0 1045.29500406 0 -204.01422818 0 11575
0.10350000 0.10349800 16768.59304485 0 262.69422802 0 5830.97412994 0 1119.29024359 0 328.21471013 0 11364
0.10450000 0.10450100 16451.70310854 0 345.54511294 0 6001.05611148 0 828.49334795 0 596.90570928 0 12093
0.10550000 0.10551000 16381.94746218 0 351.51973941 0 6078.67310846 0 -304.97500757 0 601.20620024 0 12067
0.10650000 0.10649700 15898.19759085 0 338.52415177 0 6463.39210661 0 171.28775771 0 673.27596248 0 12054
0.10750000 0.10749900 15568.02086476 0 232.67936990 0 6587.61251875 0 -992.29289239 0 1205.78724508 0 12807
0.10850000 0.10850100 15488.18940282 0 472.54800031 0 6939.59065241 0 -755.32964001 0 -385.12424524 0 12736
0.10950000 0.10950300 15228.65410907 0 335.16591566 0 7635.47519494 0 -870.20168831 0 737.08466318 0 12933
0.11050000 0.11050200 15136.64308983 0 91.42706483 0 7384.60953152 0 -82.04282666 0 47.81184869 0 13428
0.11150000 0.11150900 15235.74039695 0 138.12614488 0 7900.42485552 0 212.83333490 0 462.80989063 0 13453
0.11250000 0.11250000 15302.72796211 0 138.83145197 0 8178.68345054 0 58.02972220 0 415.32622564 0 13668
0.11350000 0.11349100 14976.53727295 0 232.05046185 0 8075.07970721 0 894.77560601 0 754.75055743 0 13791
0.11450000 0.11448600 14936.78762685 0 85.53802743 0 7832.46292579 0 899.20232147 0 1258.90118723 0 14205
0.11550000 0.11549300 14868.47138272 0 0.30189026 0 7373.11645836 0 1291.58669010 0 1144.63479510 0 14776
0.11650000 0.11649800 14861.38509484 0 -102.56050888 0 6755.73469880 0 1338.14581596 0 1203.56170779 0 14553
0.11750000 0.11747300 14964.57916215 0 89.57189681 0 6093.76468719 0 237.08283348 0 529.52175489 0 14568
0.11850000 0.11849100 14627.98048766 0 276.11831463 0 5868.32108156 0 -88.57837710 0 275.86808009 0 16015
0.11950000 0.11950300 14147.44159053 0 517.06649671 0 5942.62745342 0 -523.43640517 0 423.93052926 0 15270
0.12050000 0.12050700 14049.78368563 0 344.36591035 0 5337.71313160 0 324.92290797 0 403.10127181 0 15999
0.12150000 0.12150000 13963.97316828 0 -267.45311323 0 5492.53744954 0 104.27151524 0 -578.53782963 0 15670
0.12250000 0.12250700 13893.99607543 0 225.62519176 0 5080.37015816 0 285.48550143 0 -388.62752881 0 16887
0.12350000 0.12352200 13853.36064335 0 373.61456359 0 5357.03433841 0 371.44106623 0 -475.75343834 0 16407
0.12450000 0.12449800 13507.68266251 0 58.50372843 0 5141.21258304 0 262.00663665 0 369.22438680 0 16306
0.12550000 0.12549900 13535.14202806 0 43.96488016 0 4988.18198172 0 783.82316070 0 328.38411670 0 17523
0.12650000 0.12650100 13482.32703867 0 -44.58548396 0 4906.66752641 0 564.23017150 0 345.45985604 0 17154
0.12750000 0.12750600 13373.15391596 0 385.55495867 0 5081.47739065 0 472.27672835 0 796.86193041 0 18007
0.12850000 0.12850300 12939.22950632 0 431.45195951 0 4632.98180154 0 383.54976065 0 1508.28315912 0 17496
0.12950000 0.12949900 12783.44189612 0 143.89039718 0 4486.20706375 0 677.98391499 0 1461.56902071 0 18405
0.13050000 0.13049000 12464.44821809 0 53.24238112 0 4313.29056705 0 523.44083410 0 1696.57911499 0 18100
0.13150000 0.13148800 12632.41538559 0 -127.72148125 0 4110.99919262 0 560.43457856 0 1505.39328234 0 19059
0.13250000 0.13249300 12673.60443392 0 15.98223654 0 3671.51647591 0 230.99748376 0 1541.64407380 0 18957
0.13350000 0.13349100 12609.27422672 0 156.10317146 0 3577.66745075 0 -524.28011633 0 1087.66214775 0 19468
0.13450000 0.13450700 12462.12302988 0 171.80483528 0 3720.06862024 0 -598.72378501 0 839.64982244 0 19953
0.13550000 0.13551000 12248.09499114 0 295.52145664 0 3859.01522439 0 -436.47879498 0 608.15519129 0 19956
0.13650000 0.13649900 12159.95928558 0 230.88676051 0 3927.42004712 0 -201.39119443 0 381.39065731 0 19723
0.13750000 0.13749600 12044.80710747 0 134.03713532 0 3708.15479874 0 188.94368687 0 24.13323917 0 20946
0.13850000 0.13851100 11961.54322483 0 176.88924684 0 4186.50137555 0 136.99566052 0 -129.41001078 0 20955
0.13950000 0.13949800 11839.52620533 0 245.47565569 0 4083.57304404 0 -99.39116663 0 80.36226919 0 20506
0.14050000 0.14048300 11510.78888146 0 298.76675505 0 4059.82290730 0 167.73797038 0 365.73439001 0 21447
0.14150000 0.14148400 11363.30551488 0 247.22951195 0 4074.91448603 0 158.73506307 0 756.06927131 0 21771
0.14250000 0.14249400 11412.79880682 0 64.01043846 0 4192.08182726 0 387.70298969 0 872.33200360 0 22470
0.14350000 0.14350900 11106.87047208 0 169.72102375 0 4254.60724551 0 293.20291183 0 710.63287919 0 22519
0.14450000 0.14449900 10987.09006219 0 281.95896597 0 4060.31008960 0 240.94043145 0 655.00551930 0 22218
0.14550000 0.14550500 10810.55291528 0 152.79143910 0 4368.43074465 0 -119.44491845 0 688.71078328 0 23559
0.14650000 0.14650700 10714.88802885 0 104.32698759 0 4400.81729474 0 -115.98703141 0 705.70458741 0 23044
0.14750000 0.14750500 10620.08678375 0 182.53834696 0 4602.66577619 0 99.30568828 0 448.12245176 0 23649
0.14850000 0.14849900 10485.18157816 0 170.39200663 0 4354.66784490 0 39.19348322 0 650.88218553 0 23640
0.14950000 0.14949500 10321.88693174 0 252.79999856 0 4553.99183629 0 390.65487148 0 821.08817711 0 24457
0.15050000 0.15050000 10103.51854166 0 140.29299885 0 4136.03371903 0 281.85931505 0 546.16788803 0 24591
0.15150000 0.15149900 9953.41103410 0 85.89798871 0 3902.39659303 0 626.16543484 0 528.27279665 0 25020
0.15250000 0.15250500 9855.89706942 0 20.30498287 0 3588.33009955 0 345.97139745 0 709.90099852 0 25297
0.15350000 0.15350100 9842.73207521 0 -18.26767510 0 3290.70600843 0 284.66061323 0 713.08318467 0 25452
0.15450000 0.15450400 9843.25247448 0 128.32824465 0 3172.42036239 0 347.69203672 0 469.56068707 0 26061
0.15550000 0.15549900 9651.19192817 0 74.37789908 0 3045.31007347 0 60.86578748 0 419.02659660 0 26128
0.15650000 0.15649500 9626.75530730 0 232.64172400 0 2823.70856455 0 160.77458530 0 686.95028363 0 26331
0.15750000 0.15749700 9509.80941256 0 112.88345876 0 3099.34301859 0 -113.36842659 0 455.96830112 0 27345
0.15850000 0.15849900 9524.35844738 0 147.95836932 0 3052.71745877 0 45.79004218 0 538.64202885 0 26980
0.15950000 0.15949700 9362.96824082 0 211.45372322 0 3128.96148748 0 -235.73311709 0 179.11146243 0 27777
0.16050000 0.16050000 9180.57383408 0 198.03738724 0 3037.30478263 0 21.32695845 0 583.95441094 0 28224
0.16150000 0.16150500 9049.98683517 0 62.20786398 0 3270.33293076 0 150.14847517 0 628.26364039 0 28075
0.16250000 0.16249700 8924.84742007 0 113.55444164 0 3026.50926593 0 332.91934095 0 486.75932921 0 28590
0.16350000 0.16349900 8989.16655494 0 14.66440844 0 2930.73365625 0 471.96448879 0 583.01215609 0 29163
0.16450000 0.16449100 8849.97635965 0 119.80919793 0 2998.20840369 0 402.18559055 0 716.28972994 0 28996
0.16550000 0.16550500 8869.76260410 0 98.29124188 0 2672.80384960 0 96.14343231 0 847.34951712 0 30777
0.16650000 0.16650700 8740.13889745 0 -6.71137897 0 2713.57214958 0 85.85602460 0 1066.60812211 0 29211
0.16750000 0.16749900 8731.00422947 0 65.67217296 0 2586.53936694 0 105.78609855 0 943.70642385 0 30922
0.16850000 0.16850800 8647.10922432 0 169.81956744 0 2604.59832871 0 59.94301993 0 1097.36482599 0 30867
0.16950000 0.16949900 8605.79838042 0 185.45258285 0 2762.86613967 0 22.48844532 0 859.48257065 0 30852
0.17050000 0.17049200 8426.12776559 0 128.23302265 0 2599.36111908 0 5.00227705 0 859.90553346 0 31257
0.17150000 0.17149500 8326.63185477 0 76.06631789 0 2500.42989682 0 129.21845956 0 1020.12650252 0 32608
0.17250000 0.17250900 8300.02505823 0 57.42240519 0 2433.63056119 0 180.29952288 0 830.48636642 0 32361
0.17350000 0.17350400 8359.87097387 0 36.52549583 0 2574.55911148 0 180.10243550 0 914.11452854 0 32508
0.17450000 0.17449800 8191.61592593 0 58.91949423 0 2375.05796290 0 -56.71100832 0 581.85177645 0 32791
0.17550000 0.17549800 8113.72212083 0 189.53937794 0 2583.90415363 0 -47.92146471 0 776.24193990 0 33633
0.17650000 0.17650100 8073.38564152 0 87.44800346 0 2524.24646751 0 -225.38049338 0 583.87469020 0 33984
0.17750000 0.17750300 8033.75779099 0 -18.83391379 0 2714.18112744 0 13.57754903 0 712.11989241 0 34069
0.17850000 0.17849800 8020.74780933 0 45.93154649 0 2748.78214250 0 -128.25184561 0 512.28657408 0 34536
