### header ###
fiducial parameters:
Omega_m = 0.31
Omega_nu = 0
Omega_de = 0.69
Omega_k = 0
H_0 = 100
w_de = -1
zeff = 0
beta = 0
fgrowth = 0
b_1 = 2
gamma = 0.55
Lx = 3500 Ly = 3500 Lz = 3500
nx = 700 ny = 700 nz = 700
xoffset = -685.467585 yoffset = -31.7331281 zoffset = 572.489161
bins = 400 dk = 0.001
kx_ny = 0.628318531 ky_ny = 0.628318531 kz_ny = 0.628318531
############################
A(data) = 8.02957124 (not used)
A(ran) = 8.02741379 (used)
Ngal = 477648
weighted Ngal = 0
Nran = 23820508
weighted Nran = 0
SN(data) = 3486.36404
SN(ran) = 69.9216854
SN(data+ran) = 3556.28572
############################
13 columns: k_central k_mean P_0(k) sigma^{lin}_{P_0(k)} P^img_1(k) sigma^{lin}_{P_1(k)} P_2(k) sigma^{lin}_{P_2(k)} P^img_3(k) sigma^{lin}_{P_3(k)} P_4(k) sigma^{lin}_{P_4(k)} N_modes
### header ###
0.00050000 0 0 0 0 0 0 0 0 0 0 0 0
0.00150000 0.00179520 30149.16541844 0 -23914.00714331 0 14083.77572282 0 11815.83143022 0 -12064.07295265 0 3
0.00250000 0.00253879 47720.39128939 0 -10355.41393129 0 5973.06527434 0 -355.91102344 0 24377.05176723 0 6
0.00350000 0.00331552 46210.23690737 0 -3740.20917909 0 4689.40636882 0 -21358.95746816 0 36233.96152252 0 7
0.00450000 0.00420575 42000.20684158 0 -4086.54042709 0 -19275.92100003 0 -8509.65738402 0 1954.68607883 0 24
0.00550000 0.00557378 49024.60042978 0 -9019.74831609 0 -19759.22797836 0 -10812.78952490 0 -10396.47011172 0 45
0.00650000 0.00659388 58731.26470529 0 -9322.94178660 0 -8000.41902096 0 -50052.77651244 0 -28746.41258716 0 40
0.00750000 0.00754703 67013.69583938 0 -27362.81487782 0 -25956.62962586 0 -32539.79107003 0 5454.93583445 0 57
0.00850000 0.00846663 86237.68763601 0 -18834.02451652 0 13531.70960736 0 -41451.79459331 0 8088.18933980 0 75
0.00950000 0.00948925 105637.50795076 0 8131.54856379 0 21172.38879497 0 -29640.17064652 0 -12711.36106155 0 112
0.01050000 0.01054430 87993.75835225 0 19297.17986368 0 49493.73483234 0 -16872.56217489 0 1775.42514002 0 105
0.01150000 0.01145670 83106.65562380 0 26950.14933183 0 36232.96501329 0 -2988.38725158 0 9026.42492796 0 144
0.01250000 0.01249090 73461.11058128 0 3690.11798161 0 64813.29272817 0 7657.57555528 0 9161.44085679 0 169
0.01350000 0.01339930 64404.05960288 0 -4209.88612557 0 50201.69928125 0 27223.30358511 0 -5704.25137240 0 180
0.01450000 0.01448870 77117.19223640 0 -360.66880141 0 59451.96232774 0 30618.52126750 0 5148.70854694 0 267
0.01550000 0.01550050 70444.56640769 0 -634.38663602 0 39750.31043843 0 17050.27298823 0 5526.79522253 0 238
0.01650000 0.01653350 69174.79219749 0 2874.46410152 0 33256.61337879 0 12837.58556448 0 9043.80847792 0 315
0.01750000 0.01747870 75259.36685508 0 -175.84844830 0 22163.25114299 0 3434.82338827 0 9848.08000810 0 297
0.01850000 0.01844180 71756.74762195 0 -896.80405592 0 38642.74578682 0 -15362.40779288 0 -541.70684836 0 388
0.01950000 0.01947590 82580.27730192 0 -4405.11335677 0 28145.84968900 0 -3796.08013012 0 -1129.50999940 0 399
0.02050000 0.02045430 77922.37169721 0 2300.06510690 0 34192.99988870 0 -9178.01612705 0 -18388.36344257 0 462
0.02150000 0.02154770 80553.59896711 0 1385.30284736 0 37539.05644890 0 -1875.72933055 0 -9548.90579150 0 571
0.02250000 0.02255340 75785.52373046 0 1882.47237637 0 36353.09973757 0 8187.47487645 0 -11847.71972570 0 510
0.02350000 0.02348930 76916.45098743 0 -1266.49680206 0 34302.39445791 0 15058.36175336 0 -22006.46702356 0 555
0.02450000 0.02439640 73541.60638271 0 1074.32663974 0 24315.93253423 0 21071.74136237 0 -1895.86988940 0 592
0.02550000 0.02547300 74603.77450256 0 5948.71723207 0 19678.95362343 0 5576.83105838 0 -13265.86308847 0 837
0.02650000 0.02652900 66256.57026828 0 5091.27639811 0 10339.11546916 0 -685.97038288 0 3371.84400470 0 723
0.02750000 0.02749970 60945.39749927 0 7927.55205133 0 17022.59217619 0 -166.41261309 0 -2295.43687513 0 826
0.02850000 0.02848090 57838.39243191 0 2569.51013136 0 13706.09872326 0 -2723.23828915 0 172.66847662 0 831
0.02950000 0.02946900 56792.38990630 0 2554.70643308 0 15350.11751233 0 -4222.39785262 0 -6608.53921266 0 996
0.03050000 0.03053250 51820.25172324 0 1574.59531246 0 14531.76198498 0 1137.86960464 0 -5343.03891984 0 1041
0.03150000 0.03150510 53487.85456417 0 -350.91076155 0 17130.76878967 0 -197.28557639 0 -9560.15527351 0 1036
0.03250000 0.03246190 53998.62090806 0 -87.32166824 0 18577.92164346 0 3141.56179312 0 -15605.55604590 0 1059
0.03350000 0.03345080 49746.73745445 0 3981.79623431 0 17774.95664761 0 -568.00583427 0 -5508.28229543 0 1302
0.03450000 0.03451200 48634.74387291 0 6148.59483969 0 14731.28527822 0 2756.93137357 0 781.73159854 0 1339
0.03550000 0.03553350 46210.34763062 0 -918.40173271 0 15514.87370563 0 7439.87150469 0 2834.58158752 0 1365
0.03650000 0.03647120 45943.83677224 0 -2932.72667471 0 13247.37230602 0 10404.02143724 0 1240.99723800 0 1308
0.03750000 0.03744890 49273.39556845 0 -1447.42966192 0 11054.12191664 0 4394.61679285 0 -2685.62560174 0 1579
0.03850000 0.03847530 48779.68060479 0 2107.10770229 0 9365.35986298 0 -729.81789640 0 1685.38499460 0 1662
0.03950000 0.03950240 46418.61806046 0 1918.77852945 0 9531.90977290 0 -2313.50690923 0 5150.23652777 0 1683
0.04050000 0.04050350 44684.69199386 0 2715.55409572 0 11577.11210713 0 -4189.88950695 0 6086.10263842 0 1822
0.04150000 0.04152450 43214.39798119 0 961.49964983 0 15717.05435682 0 -2446.79555540 0 1832.49190214 0 1887
0.04250000 0.04250150 42591.57971014 0 148.09345168 0 21056.24010762 0 266.99139728 0 3292.22291693 0 1920
0.04350000 0.04349210 42243.24437135 0 1592.24459822 0 20024.63160427 0 1307.70799503 0 3179.26305913 0 2005
0.04450000 0.04448520 42424.94122162 0 1642.47973592 0 21889.76471997 0 1458.12552769 0 4677.75828311 0 2151
0.04550000 0.04548030 41469.73175952 0 772.91692076 0 22539.82091007 0 -150.81724359 0 5764.70626590 0 2274
0.04650000 0.04648670 40983.76742323 0 -351.03920052 0 20862.36370005 0 1979.07841041 0 7046.63788876 0 2311
0.04750000 0.04749250 41667.92637377 0 -235.24482756 0 18071.47350626 0 2342.93714860 0 3486.44256657 0 2568
0.04850000 0.04851840 40575.30936067 0 -65.56333201 0 17678.18452870 0 2379.95193047 0 2539.71450528 0 2493
0.04950000 0.04949480 41691.39970239 0 -32.44733716 0 16744.45537674 0 2413.76681046 0 1796.50684648 0 2644
0.05050000 0.05050630 40287.42891538 0 2017.49937753 0 17188.12343223 0 965.36942736 0 290.30749889 0 2829
0.05150000 0.05149060 38722.68797201 0 2836.02098975 0 16957.92979925 0 1147.42502096 0 2923.12696910 0 2784
0.05250000 0.05249300 36280.57601001 0 2100.63039227 0 15137.08598282 0 360.81938503 0 3044.84503583 0 3055
0.05350000 0.05348950 35327.13811988 0 982.71090249 0 18596.63387241 0 839.08291941 0 2814.08671428 0 3009
0.05450000 0.05448610 34285.12163119 0 1445.75774087 0 17902.17765978 0 -7.78833971 0 276.47152179 0 3336
0.05550000 0.05550870 33799.15729490 0 910.41747928 0 16865.58661026 0 -1024.12139731 0 1356.92447885 0 3349
0.05650000 0.05647670 32483.21149021 0 -171.62989255 0 17461.16696225 0 210.73180765 0 273.43216863 0 3324
0.05750000 0.05747970 32857.78823882 0 -352.96799950 0 15443.67865705 0 1255.46876654 0 -2435.76751988 0 3639
0.05850000 0.05849280 33690.42706518 0 -1222.53967253 0 15472.02380858 0 2213.78955192 0 -3477.88365949 0 3846
0.05950000 0.05951020 33599.52327842 0 568.96248313 0 14034.39315413 0 1252.39066024 0 -4801.15934321 0 3787
0.06050000 0.06049470 33403.10023614 0 599.45455845 0 14153.30992268 0 1104.47658022 0 -2968.66744108 0 3930
0.06150000 0.06148310 33708.03206165 0 677.11252303 0 14358.36937832 0 1299.62519791 0 -1041.73192993 0 4083
0.06250000 0.06249100 33419.48727687 0 1048.72742476 0 14149.43460900 0 351.33593882 0 2022.49299602 0 4303
0.06350000 0.06350600 32989.65962741 0 -346.88154255 0 13599.91512825 0 2084.21013456 0 3823.99346099 0 4470
0.06450000 0.06451750 33591.10831156 0 -1025.67041555 0 14075.13930946 0 1814.88690567 0 2999.59244429 0 4479
0.06550000 0.06550280 34284.90018470 0 -5.46806761 0 14345.74692803 0 1259.75375624 0 3732.99002331 0 4636
0.06650000 0.06648880 33747.33881475 0 907.48442044 0 13618.73808044 0 1737.96746516 0 3540.82982608 0 4653
0.06750000 0.06749660 32363.85182866 0 1777.90534078 0 13247.92592226 0 -160.54538817 0 4443.19108182 0 5220
0.06850000 0.06852730 31297.25477888 0 1347.65694298 0 12817.65537981 0 1114.89453064 0 3503.68217631 0 5029
0.06950000 0.06949320 30830.00267154 0 -33.15430510 0 14046.01909519 0 1692.00624484 0 3303.70491776 0 5040
0.07050000 0.07048030 30245.71609086 0 -214.38567484 0 12272.56482899 0 1666.91635680 0 2534.51051261 0 5475
0.07150000 0.07148790 31164.49760431 0 115.02706084 0 11701.12214510 0 1597.84719458 0 2738.31879555 0 5509
0.07250000 0.07249820 30585.19356979 0 78.79819259 0 10977.77823702 0 556.54265638 0 411.49852296 0 5916
0.07350000 0.07351270 29539.96610691 0 1424.04491190 0 9664.26834378 0 -189.40872451 0 1561.57425847 0 5721
0.07450000 0.07449140 28196.45021342 0 1508.37173772 0 10437.34913495 0 180.91514414 0 1769.45715694 0 6028
0.07550000 0.07549160 27260.94948949 0 736.58530133 0 10122.54079570 0 1039.37352475 0 1474.55685772 0 6183
0.07650000 0.07648840 26656.84344739 0 539.98842355 0 9518.62298312 0 728.59883344 0 2367.45127575 0 6330
0.07750000 0.07749960 26335.08168816 0 412.96560599 0 9321.02627441 0 124.97775916 0 1857.31605438 0 6583
0.07850000 0.07848650 25851.99615632 0 1160.03639892 0 9780.10700604 0 -207.66588090 0 2840.95924662 0 6549
0.07950000 0.07947320 25247.11505148 0 752.71767859 0 9911.57979093 0 425.61684433 0 2687.05393164 0 6828
0.08050000 0.08048110 24174.42822305 0 550.07752592 0 9511.40382734 0 701.20036567 0 4016.82907003 0 7147
0.08150000 0.08149960 24498.84734023 0 -33.59066542 0 9286.62456119 0 1908.93523268 0 2845.50997212 0 7386
0.08250000 0.08250610 24398.42135413 0 20.37185971 0 8887.83263820 0 725.92154530 0 2340.70053899 0 7227
0.08350000 0.08350160 23786.45396140 0 686.03460237 0 9032.33754941 0 -235.93131170 0 1965.52588483 0 7798
0.08450000 0.08449610 23538.65533196 0 838.36764722 0 9595.32097714 0 -900.13793292 0 1984.23811378 0 7371
0.08550000 0.08548940 22728.16115524 0 655.36647709 0 9274.01318323 0 -611.90317324 0 2692.03647781 0 8256
0.08650000 0.08650700 23001.75830150 0 -133.08823709 0 9543.73501581 0 706.41543066 0 2112.09024846 0 8037
0.08750000 0.08749060 22876.75175430 0 -158.41839458 0 9124.44821958 0 102.04165974 0 1079.96245307 0 8155
0.08850000 0.08849210 22832.24100853 0 399.24478108 0 8353.93620777 0 1110.94171068 0 -1268.84413492 0 8718
0.08950000 0.08949900 22131.47357076 0 483.17743213 0 8290.19283379 0 -210.58343849 0 -331.09794352 0 8571
0.09050000 0.09049190 21558.37003815 0 1125.78969826 0 7653.63380764 0 -23.64572471 0 -1618.10954900 0 8932
0.09150000 0.09150830 20491.21937212 0 713.01121456 0 8026.36147801 0 432.93122211 0 -1638.10616762 0 9285
0.09250000 0.09250820 20343.18238930 0 699.61148706 0 8087.36998776 0 343.09591469 0 -2252.48732716 0 9204
0.09350000 0.09350330 19314.67413689 0 295.29004505 0 7343.15474740 0 827.61974152 0 -882.10222302 0 9349
0.09450000 0.09448040 18994.35177989 0 494.60407135 0 7741.21589696 0 751.95147371 0 -819.79271511 0 9564
0.09550000 0.09549270 18899.01906320 0 259.66594718 0 6954.57150789 0 1096.50561358 0 46.54716775 0 10155
0.09650000 0.09649430 18820.40555699 0 -248.85271476 0 7233.60516565 0 1070.57976502 0 160.94509910 0 9913
0.09750000 0.09749140 18956.04153602 0 238.98948782 0 6952.30168130 0 675.99864715 0 302.50587914 0 10476
0.09850000 0.09850240 18593.31217496 0 150.43081945 0 6138.67403665 0 173.50665161 0 -53.40492285 0 10575
0.09950000 0.09950330 18558.65579828 0 55.16132574 0 6521.03462962 0 59.35065056 0 290.63302523 0 10882
0.10050000 0.10051200 18374.74448304 0 327.26913359 0 6484.61775329 0 216.15392511 0 378.79641160 0 10875
0.10150000 0.10150300 18294.91302110 0 556.93018775 0 6499.23322205 0 619.82099272 0 351.66921580 0 11118
0.10250000 0.10250800 17557.82835792 0 694.58354436 0 6208.26359814 0 -21.29772751 0 873.86109166 0 11575
0.10350000 0.10349800 17012.62708385 0 646.14876667 0 5743.44740225 0 125.99198411 0 69.32847607 0 11364
0.10450000 0.10450100 16296.24766808 0 587.50087657 0 6242.69852833 0 445.48059506 0 589.18497718 0 12093
0.10550000 0.10551000 16313.07760181 0 108.79766018 0 6000.48035059 0 1.58815891 0 401.17800899 0 12067
0.10650000 0.10649700 15780.72022453 0 -48.55613037 0 5888.91560572 0 448.61184851 0 -71.74290722 0 12054
0.10750000 0.10749900 15975.48241809 0 107.45602658 0 5673.60317730 0 753.26243697 0 50.77613149 0 12807
0.10850000 0.10850100 15832.98159767 0 104.20009874 0 5642.97712685 0 522.25277365 0 338.81424668 0 12736
0.10950000 0.10950300 15713.62193613 0 314.72086788 0 4956.88051946 0 764.69018342 0 934.27280311 0 12933
0.11050000 0.11050200 15562.81687210 0 215.86272297 0 5417.74389539 0 479.47595395 0 1081.62219456 0 13428
0.11150000 0.11150900 15322.87959328 0 326.12314798 0 4657.08625267 0 202.63018758 0 827.87440499 0 13453
0.11250000 0.11250000 15043.41411485 0 404.81305323 0 5542.91652746 0 124.83492617 0 2736.13754756 0 13668
0.11350000 0.11349100 14814.99205385 0 35.65808991 0 4908.20657956 0 73.74633367 0 2128.92018218 0 13791
0.11450000 0.11448600 14956.16419528 0 -206.56086289 0 4895.70592484 0 548.62705137 0 2320.26102737 0 14205
0.11550000 0.11549300 15119.03809337 0 -247.30923268 0 4695.80617256 0 301.83600349 0 1050.88874256 0 14776
0.11650000 0.11649800 15007.65050569 0 103.86161777 0 4496.26073468 0 515.44329389 0 1242.17090443 0 14553
0.11750000 0.11747300 14785.42894658 0 242.36211796 0 4144.40439659 0 88.92737678 0 690.23876410 0 14568
0.11850000 0.11849100 14600.29967561 0 423.74229974 0 4173.82356364 0 -201.18414195 0 470.71442332 0 16015
0.11950000 0.11950300 14247.42468364 0 314.92459865 0 4181.51882939 0 6.82038600 0 664.84881606 0 15270
0.12050000 0.12050700 14059.41660822 0 413.44060873 0 4041.50928205 0 -450.66244307 0 584.32201212 0 15999
0.12150000 0.12150000 13821.91524086 0 239.27515380 0 4269.53273937 0 46.58337425 0 957.85353327 0 15670
0.12250000 0.12250700 13492.07068451 0 235.66557591 0 4336.29885803 0 307.41977689 0 462.60062369 0 16887
0.12350000 0.12352200 13603.90116518 0 78.39006670 0 4246.60195467 0 482.03033928 0 475.04591679 0 16407
0.12450000 0.12449800 13256.89450537 0 -24.01764410 0 3774.36730115 0 691.73020626 0 540.26855336 0 16306
0.12550000 0.12549900 13434.49459546 0 93.48640653 0 3636.18468742 0 594.45208210 0 464.16182149 0 17523
0.12650000 0.12650100 13216.92341277 0 195.60147578 0 2933.11420608 0 339.53394780 0 572.84444021 0 17154
0.12750000 0.12750600 13063.23954429 0 349.01739400 0 3141.63929939 0 77.60415308 0 721.65537854 0 18007
0.12850000 0.12850300 12901.47287869 0 19.67474614 0 3125.19689704 0 270.55004248 0 1163.70133844 0 17496
0.12950000 0.12949900 12758.75061177 0 -49.96497298 0 3089.56615577 0 371.42777944 0 835.71914713 0 18405
0.13050000 0.13049000 13004.66694600 0 102.40837514 0 2903.94970251 0 359.16739416 0 985.83219086 0 18100
0.13150000 0.13148800 12643.48771041 0 320.46408276 0 3213.57619374 0 -79.54646030 0 1157.72228304 0 19059
0.13250000 0.13249300 12413.62624718 0 452.57241910 0 3027.95974048 0 -405.57040025 0 1547.15809156 0 18957
0.13350000 0.13349100 12225.95034150 0 181.04911927 0 3328.36298513 0 -19.67995013 0 1323.91787857 0 19468
0.13450000 0.13450700 12093.74678317 0 195.46417895 0 3650.21332296 0 -205.44145085 0 1213.78146359 0 19953
0.13550000 0.13551000 12015.35472345 0 164.06860193 0 3546.59850731 0 -317.47012613 0 584.59771301 0 19956
0.13650000 0.13649900 11819.81746715 0 23.17492946 0 3982.49379077 0 138.28447913 0 762.54768856 0 19723
0.13750000 0.13749600 11722.49173200 0 141.72797214 0 3337.03261547 0 336.96627567 0 992.01276257 0 20946
0.13850000 0.13851100 11810.18454456 0 85.81505700 0 3601.08541774 0 211.64970337 0 876.42322763 0 20955
0.13950000 0.13949800 11651.62885316 0 108.94879741 0 3219.76562331 0 457.35344896 0 969.75738968 0 20506
0.14050000 0.14048300 11679.64183495 0 115.86745030 0 3484.25024626 0 228.96017599 0 1185.18164859 0 21447
0.14150000 0.14148400 11404.93745620 0 158.89671901 0 3378.02236195 0 149.70115325 0 1410.31522913 0 21771
0.14250000 0.14249400 11396.07959634 0 178.49694840 0 3180.74675065 0 70.29664015 0 1014.76417561 0 22470
0.14350000 0.14350900 11241.39921863 0 155.18859743 0 3392.30566096 0 -55.70896292 0 968.29141388 0 22519
0.14450000 0.14449900 11025.67711419 0 379.91028748 0 3200.84302020 0 -135.09011341 0 1048.69199332 0 22218
0.14550000 0.14550500 10931.66200415 0 243.91777959 0 3128.56288378 0 222.94568915 0 1491.67467189 0 23559
0.14650000 0.14650700 10672.33708457 0 44.08080740 0 2752.34743109 0 174.38247250 0 1189.78773571 0 23044
0.14750000 0.14750500 10700.69330843 0 2.31609783 0 2787.45777309 0 414.30646453 0 667.88263306 0 23649
0.14850000 0.14849900 10768.36735772 0 17.46371360 0 2745.42722808 0 34.89310299 0 269.28669022 0 23640
0.14950000 0.14949500 10497.73759451 0 175.19739561 0 2974.15931419 0 -253.59277702 0 433.34864875 0 24457
0.15050000 0.15050000 10575.35459149 0 146.41820894 0 3139.92308905 0 -413.24905751 0 304.30734639 0 24591
0.15150000 0.15149900 10419.55590896 0 106.64641819 0 3388.41927495 0 -324.64942154 0 316.63748730 0 25020
0.15250000 0.15250500 10355.52465454 0 309.89887042 0 3432.67535725 0 -146.36506178 0 344.30944149 0 25297
0.15350000 0.15350100 10062.04161289 0 193.53316551 0 3459.26000914 0 145.48924088 0 548.12326059 0 25452
0.15450000 0.15450400 9937.03506569 0 167.81104772 0 3378.42096564 0 643.72503477 0 332.66135578 0 26061
0.15550000 0.15549900 9923.16144269 0 1.65197979 0 3006.34656243 0 547.49435254 0 301.43407810 0 26128
0.15650000 0.15649500 9553.32364910 0 140.23874446 0 2906.31918002 0 447.81242666 0 260.69124446 0 26331
0.15750000 0.15749700 9541.08873018 0 275.57466348 0 2627.76163223 0 -40.10351760 0 523.20388635 0 27345
0.15850000 0.15849900 9252.22284798 0 153.95181874 0 2631.11654665 0 58.94108526 0 371.90499664 0 26980
0.15950000 0.15949700 9199.07568885 0 204.32536051 0 2673.11387469 0 -145.53463742 0 670.73486393 0 27777
0.16050000 0.16050000 9033.24548004 0 114.49005309 0 2890.96186550 0 -94.00547711 0 518.72402373 0 28224
0.16150000 0.16150500 9138.46578280 0 103.50774627 0 2982.82894452 0 -228.82177193 0 554.51531371 0 28075
0.16250000 0.16249700 9076.69328263 0 83.55342393 0 3001.47473951 0 53.12091772 0 855.99035940 0 28590
0.16350000 0.16349900 9008.72028057 0 -41.27186932 0 2975.39941457 0 215.06883728 0 780.03310392 0 29163
0.16450000 0.16449100 9174.01901779 0 -71.01124799 0 2990.23632982 0 162.99901535 0 861.14231214 0 28996
0.16550000 0.16550500 9048.75780712 0 123.56603774 0 3003.22416684 0 195.14751046 0 407.99523938 0 30777
0.16650000 0.16650700 8959.49272443 0 220.40791230 0 2916.38392328 0 -127.82002494 0 705.86292165 0 29211
0.16750000 0.16749900 8829.03859341 0 162.51847646 0 2695.41353688 0 80.21965765 0 604.34963325 0 30922
0.16850000 0.16850800 8682.57388071 0 1.47874220 0 2814.37459473 0 78.39682082 0 316.18905815 0 30867
0.16950000 0.16949900 8706.09149863 0 -0.98918932 0 2740.78792398 0 153.76580369 0 113.08497507 0 30852
0.17050000 0.17049200 8503.24650795 0 188.36460428 0 2404.12281555 0 275.76842917 0 -28.79258418 0 31257
0.17150000 0.17149500 8453.24388907 0 232.59300577 0 2346.74602834 0 11.69979347 0 -78.38010161 0 32608
0.17250000 0.17250900 8221.57763689 0 155.56727093 0 2044.62657334 0 291.01944937 0 -147.60626939 0 32361
0.17350000 0.17350400 8127.38536966 0 67.98496017 0 2015.17418932 0 212.70268146 0 -40.11071461 0 32508
0.17450000 0.17449800 8096.48251109 0 47.87617890 0 1925.39977969 0 120.51782672 0 -32.71716971 0 32791
0.17550000 0.17549800 8130.52990990 0 13.05039565 0 2010.26914942 0 103.57849843 0 20.99622811 0 33633
0.17650000 0.17650100 8116.12481532 0 9.15189651 0 1861.74498431 0 81.27728612 0 279.00486971 0 33984
0.17750000 0.17750300 8125.07125377 0 2.49073054 0 1926.62880774 0 -32.66202954 0 514.22423093 0 34069
0.17850000 0.17849800 8052.71361108 0 170.70867512 0 2157.94074553 0 -28.07808706 0 235.05991974 0 34536
