### header ###
fiducial parameters:
Omega_m = 0.31
Omega_nu = 0
Omega_de = 0.69
Omega_k = 0
H_0 = 100
w_de = -1
zeff = 0
beta = 0
fgrowth = 0
b_1 = 2
gamma = 0.55
Lx = 3500 Ly = 3500 Lz = 3500
nx = 700 ny = 700 nz = 700
xoffset = -685.467585 yoffset = -31.7331281 zoffset = 572.489161
bins = 400 dk = 0.001
kx_ny = 0.628318531 ky_ny = 0.628318531 kz_ny = 0.628318531
############################
A(data) = 8.01621984 (not used)
A(ran) = 8.01922339 (used)
Ngal = 476483
weighted Ngal = 0
Nran = 23820508
weighted Nran = 0
SN(data) = 3482.65592
SN(ran) = 69.8503441
SN(data+ran) = 3552.50626
############################
13 columns: k_central k_mean P_0(k) sigma^{lin}_{P_0(k)} P^img_1(k) sigma^{lin}_{P_1(k)} P_2(k) sigma^{lin}_{P_2(k)} P^img_3(k) sigma^{lin}_{P_3(k)} P_4(k) sigma^{lin}_{P_4(k)} N_modes
### header ###
0.00050000 0 0 0 0 0 0 0 0 0 0 0 0
0.00150000 0.00179520 18865.91281200 0 -26700.57913042 0 -7381.30997873 0 -16919.50883213 0 -10116.17420893 0 3
0.00250000 0.00253879 31337.11514823 0 -23955.19619164 0 -15396.84272307 0 -18962.57420766 0 -14035.38966336 0 6
0.00350000 0.00331552 45122.15954744 0 -21074.17727383 0 -33226.05376229 0 9782.98581049 0 34749.27348759 0 7
0.00450000 0.00420575 50186.86236599 0 -9246.75311952 0 -24963.55281287 0 -21736.52374448 0 6471.95101370 0 24
0.00550000 0.00557378 49068.44683606 0 4247.12235394 0 -19057.24258486 0 -18631.17952584 0 2328.69813888 0 45
0.00650000 0.00659388 34508.56114603 0 8137.46118524 0 -11156.47448727 0 -16548.25378096 0 12533.98241796 0 40
0.00750000 0.00754703 36971.82124844 0 3801.98167925 0 -13028.36172111 0 -944.98970630 0 17247.13892351 0 57
0.00850000 0.00846663 34086.26267745 0 -7862.86752974 0 -7089.17776071 0 -9348.25312113 0 7289.15501926 0 75
0.00950000 0.00948925 47824.02824969 0 -8640.97515637 0 -8292.39622643 0 -1347.44656881 0 -2945.51520988 0 112
0.01050000 0.01054430 61068.63247451 0 -11420.54943419 0 2321.78900820 0 -24306.85322788 0 -20904.10636461 0 105
0.01150000 0.01145670 67772.92515220 0 -12497.00085306 0 2119.39798284 0 -33853.07951677 0 -27703.28886600 0 144
0.01250000 0.01249090 76509.54305035 0 897.79281453 0 26098.35538353 0 -36128.99588324 0 -37999.77588460 0 169
0.01350000 0.01339930 85864.10739663 0 985.10916804 0 40435.57662146 0 -27456.26529929 0 -28019.62518607 0 180
0.01450000 0.01448870 80407.33355626 0 2330.53614480 0 43335.52921471 0 -4733.47422160 0 -23925.63308437 0 267
0.01550000 0.01550050 74193.98776103 0 7853.01316065 0 38298.50720821 0 5948.13039885 0 -6698.16968207 0 238
0.01650000 0.01653350 76413.65671742 0 5712.83242413 0 48951.74453247 0 13131.44506517 0 -18762.71874469 0 315
0.01750000 0.01747870 63815.23336902 0 10883.92921186 0 45699.02767050 0 8767.55397370 0 -2083.44614415 0 297
0.01850000 0.01844180 64044.54121601 0 3121.98592284 0 50291.49583553 0 13523.95897999 0 -3375.87433093 0 388
0.01950000 0.01947590 60980.49676895 0 -2158.04039645 0 39465.19807435 0 9174.17403034 0 3341.89336606 0 399
0.02050000 0.02045430 66383.45911070 0 -4496.06143283 0 37107.56795071 0 12870.13819945 0 -1391.95731458 0 462
0.02150000 0.02154770 72016.94725518 0 -1284.35646199 0 43767.46060588 0 -8876.98175988 0 -10319.66139445 0 571
0.02250000 0.02255340 70279.47804464 0 379.92025257 0 34878.48751823 0 3540.13226962 0 5778.86776935 0 510
0.02350000 0.02348930 72685.93712073 0 1570.07780393 0 37293.80445416 0 10210.67650126 0 4407.63784683 0 555
0.02450000 0.02439640 70079.84402816 0 -815.15673271 0 30079.29904883 0 15703.10322755 0 10651.21108882 0 592
0.02550000 0.02547300 70879.93021956 0 -743.63505054 0 25917.98721224 0 21910.02707439 0 3049.79436502 0 837
0.02650000 0.02652900 67032.96168457 0 5246.94221274 0 17732.77109005 0 15203.07703874 0 6611.47337874 0 723
0.02750000 0.02749970 65905.90974128 0 -658.03933630 0 12470.42727350 0 2449.59685358 0 7647.76547549 0 826
0.02850000 0.02848090 62776.20640804 0 6.83600905 0 16738.14415160 0 2898.12565966 0 19068.75780267 0 831
0.02950000 0.02946900 64658.39090396 0 476.58275547 0 13686.83287807 0 -1091.18093258 0 10651.52111391 0 996
0.03050000 0.03053250 63735.84480007 0 1294.74230267 0 13744.29824388 0 -4376.10386575 0 -743.87864169 0 1041
0.03150000 0.03150510 61456.16384316 0 5059.29952403 0 17552.07074901 0 -12607.05976176 0 -6440.39488796 0 1036
0.03250000 0.03246190 57246.90884010 0 7890.36011226 0 21657.13517553 0 -10248.96460048 0 -8494.18934625 0 1059
0.03350000 0.03345080 53430.49992161 0 3604.17459637 0 21220.22123818 0 -6791.39865704 0 681.03101878 0 1302
0.03450000 0.03451200 52165.15464134 0 -1388.32559204 0 23781.47141523 0 4977.03215063 0 -7517.31134447 0 1339
0.03550000 0.03553350 52097.39201345 0 -321.09852697 0 22734.02948739 0 9209.10721514 0 -8065.80109902 0 1365
0.03650000 0.03647120 54825.39140226 0 -156.29472268 0 20949.06000338 0 7519.94655778 0 -17794.88683229 0 1308
0.03750000 0.03744890 50575.61169037 0 3927.98473569 0 13969.50933069 0 2519.49644016 0 -9715.42248445 0 1579
0.03850000 0.03847530 49027.03634124 0 2537.09036429 0 18945.52282744 0 -2934.96328433 0 -4500.62323066 0 1662
0.03950000 0.03950240 48533.09993108 0 -609.54808975 0 16896.25695001 0 -3439.63984956 0 -7409.72156421 0 1683
0.04050000 0.04050350 48206.46634893 0 922.41655769 0 21459.16200777 0 -4883.08347454 0 -7235.79748596 0 1822
0.04150000 0.04152450 49279.81751685 0 1474.42398983 0 23511.08524316 0 -4706.09236232 0 -11824.80001332 0 1887
0.04250000 0.04250150 46439.98764736 0 2094.40774572 0 27875.35279368 0 -812.22478109 0 -7577.05760920 0 1920
0.04350000 0.04349210 46923.62679544 0 777.96147194 0 24817.73029501 0 2334.85435148 0 -5065.61074918 0 2005
0.04450000 0.04448520 44159.75307421 0 310.72818755 0 23937.03757894 0 7751.08133837 0 -7032.85284436 0 2151
0.04550000 0.04548030 44393.82202087 0 1440.37659101 0 21723.79057094 0 4357.54664935 0 -6941.27364578 0 2274
0.04650000 0.04648670 43200.88974491 0 1891.04235578 0 20554.66379334 0 5574.22906205 0 -1305.86998911 0 2311
0.04750000 0.04749250 40399.03794955 0 1671.42279300 0 16089.52736372 0 3800.13260101 0 -1585.41297381 0 2568
0.04850000 0.04851840 39067.59089011 0 457.78526963 0 13806.52470936 0 2863.00424533 0 -2292.92345739 0 2493
0.04950000 0.04949480 38921.10403276 0 -1388.89028060 0 11484.87964139 0 2714.90082856 0 -2418.66077803 0 2644
0.05050000 0.05050630 39527.42453983 0 -571.69845459 0 12026.20560177 0 2074.36683780 0 -5295.51650171 0 2829
0.05150000 0.05149060 39420.79805183 0 84.28663328 0 7369.06398748 0 2445.90976941 0 -4635.71666577 0 2784
0.05250000 0.05249300 38407.45888442 0 1146.87140472 0 6960.40662307 0 1074.35542778 0 -3375.06605122 0 3055
0.05350000 0.05348950 38128.54702224 0 795.97835889 0 5781.68013985 0 2069.19606211 0 -1192.92120364 0 3009
0.05450000 0.05448610 37221.28072660 0 -119.71065424 0 4595.22517391 0 2529.87120851 0 -2449.49720265 0 3336
0.05550000 0.05550870 36395.39601838 0 322.40506130 0 5008.04573245 0 799.89464018 0 685.46327041 0 3349
0.05650000 0.05647670 35876.32543088 0 1551.11091152 0 6861.46432849 0 -2811.50686260 0 -1622.22845383 0 3324
0.05750000 0.05747970 35370.98452616 0 2369.27820934 0 9765.27009078 0 -4515.18333780 0 1324.98082175 0 3639
0.05850000 0.05849280 32890.11942729 0 2498.58081858 0 12748.56407294 0 -5438.54879372 0 2389.68450398 0 3846
0.05950000 0.05951020 33291.49120197 0 1409.31871989 0 13860.11476149 0 -2313.79478968 0 3214.22946090 0 3787
0.06050000 0.06049470 32230.65176109 0 -1537.42551804 0 14627.53759467 0 929.84719488 0 3581.87493418 0 3930
0.06150000 0.06148310 34318.44932890 0 -883.52390953 0 14505.96346816 0 3265.53861411 0 -2402.21837568 0 4083
0.06250000 0.06249100 34346.35158744 0 20.81253824 0 14028.85699172 0 2405.86117054 0 -1535.74252467 0 4303
0.06350000 0.06350600 33264.80689916 0 1412.75114059 0 12880.76763128 0 -483.02352682 0 -1962.23740436 0 4470
0.06450000 0.06451750 32629.80907081 0 809.67150299 0 11757.14810868 0 1058.20201310 0 608.81510185 0 4479
0.06550000 0.06550280 32251.91062475 0 222.18723490 0 12918.41353566 0 469.47543017 0 -460.01966478 0 4636
0.06650000 0.06648880 32658.26494559 0 114.50112541 0 11675.65579801 0 866.66518776 0 -2535.30772000 0 4653
0.06750000 0.06749660 32102.54496294 0 863.74763017 0 12787.98154930 0 -446.65979765 0 239.48663520 0 5220
0.06850000 0.06852730 31280.20339866 0 1284.52254686 0 12820.53418426 0 942.69884229 0 374.06299274 0 5029
0.06950000 0.06949320 29846.33733465 0 615.54707534 0 11432.50754500 0 1275.33251726 0 433.32207517 0 5040
0.07050000 0.07048030 29635.96316309 0 655.24246705 0 12063.29788992 0 2425.83564452 0 -496.31474553 0 5475
0.07150000 0.07148790 28471.59748516 0 954.39896793 0 10572.69723353 0 2330.08217949 0 -792.58358410 0 5509
0.07250000 0.07249820 28025.60424147 0 932.67728110 0 8070.50683706 0 319.38674556 0 -1781.47062937 0 5916
0.07350000 0.07351270 26697.25743298 0 210.75395230 0 8138.46876680 0 1500.92006312 0 -726.76636368 0 5721
0.07450000 0.07449140 27222.63924562 0 -212.43030227 0 7318.97279000 0 -753.72636738 0 -2697.05224095 0 6028
0.07550000 0.07549160 26868.98919091 0 -471.43744613 0 7220.75019653 0 677.07266266 0 -2499.56625548 0 6183
0.07650000 0.07648840 27268.81084011 0 252.63391369 0 7115.13129009 0 145.39180443 0 -2857.91097592 0 6330
0.07750000 0.07749960 26572.69377877 0 1440.48731426 0 7586.46908529 0 -1307.12116182 0 -2449.74079380 0 6583
0.07850000 0.07848650 25850.33530760 0 1193.14265013 0 8730.18487743 0 -575.11315957 0 -1421.64221741 0 6549
0.07950000 0.07947320 25081.91596518 0 321.46502092 0 8922.15684514 0 -483.05452933 0 -2226.15733874 0 6828
0.08050000 0.08048110 24751.29634610 0 363.59853856 0 9232.82413490 0 -823.37904112 0 -1309.06989098 0 7147
0.08150000 0.08149960 24937.97574254 0 616.79381912 0 10207.18871894 0 646.69906122 0 -3210.67524464 0 7386
0.08250000 0.08250610 23839.37967403 0 423.07906748 0 9380.82790075 0 854.86430397 0 -1444.35155562 0 7227
0.08350000 0.08350160 23383.31061475 0 698.60501274 0 9114.09559587 0 1426.59154661 0 -1292.07387239 0 7798
0.08450000 0.08449610 22800.24198980 0 509.87170004 0 8393.88515572 0 1457.43904355 0 -1276.35117114 0 7371
0.08550000 0.08548940 21943.02260235 0 426.89348338 0 8413.44995367 0 1408.26684903 0 -1451.00602283 0 8256
0.08650000 0.08650700 21417.41934320 0 1228.02047331 0 7388.46270056 0 1379.12449011 0 -0.58375843 0 8037
0.08750000 0.08749060 20726.39555127 0 465.54475486 0 7011.94829510 0 526.46247155 0 281.83495593 0 8155
0.08850000 0.08849210 20083.09347931 0 422.32393493 0 6472.54891924 0 1286.06160001 0 798.98892401 0 8718
0.08950000 0.08949900 20239.10253600 0 -73.74865886 0 5804.61092455 0 418.52723475 0 164.25129529 0 8571
0.09050000 0.09049190 20067.14933157 0 225.44028394 0 5643.70790029 0 548.34913602 0 747.97983080 0 8932
0.09150000 0.09150830 19801.08136618 0 398.88271606 0 5504.83880241 0 -273.24172464 0 676.56444295 0 9285
0.09250000 0.09250820 19540.88173294 0 238.11034522 0 5623.85522189 0 -132.95315472 0 790.64260556 0 9204
0.09350000 0.09350330 19188.11746422 0 525.99189774 0 5656.02032549 0 258.14903868 0 203.17051703 0 9349
0.09450000 0.09448040 19106.62515355 0 264.28421386 0 5986.17490693 0 -64.70423033 0 1028.24140938 0 9564
0.09550000 0.09549270 18962.57420766 0 -189.94794673 0 6062.09783821 0 191.21240622 0 -3.43920803 0 10155
0.09650000 0.09649430 18589.10469153 0 158.75720771 0 6409.27058290 0 -99.63741513 0 878.29887945 0 9913
0.09750000 0.09749140 19058.57126384 0 419.32112044 0 6627.81613017 0 -39.94928012 0 584.81694504 0 10476
0.09850000 0.09850240 18389.69212155 0 -16.68953665 0 6564.22776873 0 888.42784219 0 1120.79607977 0 10575
0.09950000 0.09950330 18623.42889847 0 286.54512291 0 5803.43725812 0 130.45302378 0 889.81188280 0 10882
0.10050000 0.10051200 18433.53852783 0 421.13587448 0 5839.63268795 0 561.26057399 0 592.41809603 0 10875
0.10150000 0.10150300 17997.51037647 0 433.96094831 0 6652.49634219 0 -353.66887766 0 890.44189808 0 11118
0.10250000 0.10250800 17104.52737984 0 804.81296686 0 5633.68744633 0 957.54461541 0 274.98340134 0 11575
0.10350000 0.10349800 16786.86238080 0 308.10626103 0 5603.83645861 0 417.43328906 0 1139.37544081 0 11364
0.10450000 0.10450100 16577.48471848 0 704.21425249 0 5485.57295723 0 258.69601153 0 560.04593995 0 12093
0.10550000 0.10551000 15952.23053597 0 412.74083780 0 5633.99747142 0 -52.69574045 0 926.71151249 0 12067
0.10650000 0.10649700 15540.89366896 0 178.69403578 0 5052.00286198 0 136.02351040 0 647.13420358 0 12054
0.10750000 0.10749900 15255.11696539 0 420.98086193 0 5550.65608251 0 -86.94565208 0 1103.35716818 0 12807
0.10850000 0.10850100 14987.49887452 0 355.64418041 0 5786.81769857 0 380.83150490 0 1061.76508723 0 12736
0.10950000 0.10950300 15079.84206351 0 -129.73000097 0 5108.05097021 0 879.43489998 0 949.19276080 0 12933
0.11050000 0.11050200 14921.95071159 0 -99.04216695 0 4896.62492780 0 419.57467668 0 792.58136963 0 13428
0.11150000 0.11150900 15193.00122315 0 172.21340407 0 5007.45889923 0 142.77541407 0 317.92409145 0 13453
0.11250000 0.11250000 14780.66784691 0 270.89549901 0 5008.14538337 0 -551.48703287 0 1224.11194265 0 13668
0.11350000 0.11349100 14589.00590430 0 378.21400732 0 5153.46964662 0 -144.75957468 0 1033.55058913 0 13791
0.11450000 0.11448600 14433.99335684 0 112.95653610 0 5108.38313995 0 -11.71684485 0 1699.40255782 0 14205
0.11550000 0.11549300 14495.22331308 0 -178.62981630 0 5096.11500406 0 760.35093932 0 595.05884550 0 14776
0.11650000 0.11649800 14816.65290257 0 -176.24483753 0 4978.99195212 0 515.74778282 0 1008.26582817 0 14553
0.11750000 0.11747300 14793.29029720 0 -221.25051622 0 4680.07239900 0 351.66810857 0 877.94013613 0 14568
0.11850000 0.11849100 14739.03590559 0 383.77120714 0 4524.22942717 0 -87.37337599 0 931.85460736 0 16015
0.11950000 0.11950300 14293.37483164 0 647.62470757 0 4556.50525402 0 49.71717435 0 955.28032498 0 15270
0.12050000 0.12050700 13859.89331499 0 351.15767439 0 4828.92873386 0 -260.99684063 0 322.31094654 0 15999
0.12150000 0.12150000 13570.24129773 0 278.75574240 0 5372.60202710 0 -235.18614424 0 752.03119445 0 15670
0.12250000 0.12250700 13499.93203513 0 123.67011760 0 5132.52080806 0 -0.09307418 0 -195.95468294 0 16887
0.12350000 0.12352200 13317.57084537 0 135.59944036 0 4770.90975181 0 422.00948091 0 403.29503750 0 16407
0.12450000 0.12449800 13396.84869107 0 -84.57783542 0 4552.26455361 0 472.62772105 0 225.79570556 0 16306
0.12550000 0.12549900 13310.26311099 0 40.97524173 0 4199.90996091 0 418.07326943 0 -481.48447367 0 17523
0.12650000 0.12650100 13245.93290379 0 387.17262533 0 4013.96133791 0 275.01440385 0 -717.00057319 0 17154
0.12750000 0.12750600 12910.99507803 0 249.08191189 0 3957.85786805 0 24.77067291 0 -122.69353855 0 18007
0.12850000 0.12850300 12758.52916528 0 -29.38273909 0 3608.90247906 0 106.45420263 0 -791.22943877 0 17496
0.12950000 0.12949900 12776.35560824 0 12.74225285 0 4128.49346583 0 -126.74600943 0 -698.31602506 0 18405
0.13050000 0.13049000 12756.09325382 0 384.62820509 0 4153.46155830 0 -309.71396259 0 -439.74623803 0 18100
0.13150000 0.13148800 12631.19742986 0 254.59039349 0 4588.64821297 0 100.20066430 0 -272.67371438 0 19059
0.13250000 0.13249300 12420.15891882 0 92.65432131 0 4230.59137298 0 298.31611143 0 443.12661880 0 18957
0.13350000 0.13349100 12428.35243919 0 -139.05511293 0 4261.66031642 0 950.61887623 0 -356.44138779 0 19468
0.13450000 0.13450700 12363.46861575 0 26.98425209 0 3782.14007318 0 436.13333844 0 79.79204447 0 19953
0.13550000 0.13551000 12283.08353757 0 301.24141964 0 3610.92871451 0 479.49145520 0 204.16481180 0 19956
0.13650000 0.13649900 12001.40359418 0 258.02170695 0 3410.59714156 0 -139.42160688 0 384.63041955 0 19723
0.13750000 0.13749600 11699.23984988 0 331.55523053 0 3601.84940816 0 53.08448977 0 1257.11854293 0 20946
0.13850000 0.13851100 11675.65579801 0 149.04788608 0 3505.29873574 0 299.97917461 0 977.78150348 0 20955
0.13950000 0.13949800 11456.53448985 0 -41.93742676 0 3499.08716151 0 379.39985331 0 1221.44351237 0 20506
0.14050000 0.14048300 11526.06868971 0 188.73995609 0 3483.37553260 0 116.17636816 0 989.45173384 0 21447
0.14150000 0.14148400 11322.44863630 0 219.01501384 0 3653.84504550 0 -39.04090659 0 1062.31981070 0 21771
0.14250000 0.14249400 11203.64259100 0 285.23415965 0 3345.96798160 0 -148.41012017 0 1166.43620267 0 22470
0.14350000 0.14350900 10905.40952201 0 207.86518275 0 3233.89390978 0 22.82747991 0 1030.81240320 0 22519
0.14450000 0.14449900 10823.27501650 0 188.81746236 0 3061.39816143 0 -9.49384312 0 546.60856655 0 22218
0.14550000 0.14550500 10564.23797737 0 227.22182100 0 2887.69552968 0 58.62663124 0 98.91118135 0 23559
0.14650000 0.14650700 10479.28002903 0 158.63098321 0 2915.91888564 0 262.05535488 0 159.37061451 0 23044
0.14750000 0.14750500 10223.78613384 0 91.43005436 0 2761.60389464 0 346.99448026 0 271.87207806 0 23649
0.14850000 0.14849900 10214.23071753 0 135.87071231 0 2552.15979837 0 500.61302203 0 440.97526609 0 23640
0.14950000 0.14949500 10115.57630339 0 62.24274180 0 2585.69787025 0 319.96361368 0 574.59276030 0 24457
0.15050000 0.15050000 10058.65348150 0 133.70496558 0 2835.87704953 0 181.21077521 0 1166.24797315 0 24591
0.15150000 0.15149900 10018.30592986 0 53.97813711 0 2553.21166923 0 252.00500564 0 1711.74819999 0 25020
0.15250000 0.15250500 9891.26207489 0 -41.47249984 0 2561.06194753 0 300.23826701 0 1368.45076899 0 25297
0.15350000 0.15350100 9979.40885277 0 75.11177277 0 2549.72388691 0 122.98695516 0 1578.39311987 0 25452
0.15450000 0.15450400 9803.02671841 0 330.00953399 0 2714.56865881 0 103.95650760 0 1122.76695359 0 26061
0.15550000 0.15549900 9558.05153180 0 224.63864762 0 2291.04116218 0 -216.24361094 0 1461.60223769 0 26128
0.15650000 0.15649500 9573.08774890 0 3.23031755 0 2308.43578447 0 -31.64924398 0 1078.31046221 0 26331
0.15750000 0.15749700 9462.70774279 0 29.93945559 0 2266.59346898 0 127.24869298 0 1076.99728448 0 27345
0.15850000 0.15849900 9434.04149383 0 208.02019530 0 2207.26795260 0 79.57048725 0 725.85843304 0 26980
0.15950000 0.15949700 9355.15117950 0 100.11153208 0 2117.10601160 0 151.65763304 0 758.54172144 0 27777
0.16050000 0.16050000 9160.98689148 0 117.25591983 0 2206.94685518 0 132.91993775 0 863.94028862 0 28224
0.16150000 0.16150500 9101.66137510 0 145.51692170 0 2037.72851497 0 -66.41224716 0 489.79093175 0 28075
0.16250000 0.16249700 9027.96398111 0 107.86548115 0 2168.43730946 0 196.88697269 0 617.14481181 0 28590
0.16350000 0.16349900 8974.69502640 0 141.74347340 0 2375.41227729 0 -260.15534394 0 605.54876603 0 29163
0.16450000 0.16449100 8841.16278909 0 154.63055225 0 2431.42716855 0 -243.08846246 0 444.13641482 0 28996
0.16550000 0.16550500 8774.97243132 0 182.98677612 0 2659.90459118 0 -101.62002561 0 586.88414808 0 30777
0.16650000 0.16650700 8698.72840262 0 106.13698052 0 2610.77668596 0 -185.51458787 0 789.99598179 0 29211
0.16750000 0.16749900 8683.80290877 0 86.20602079 0 2787.07024173 0 18.93035374 0 394.10832959 0 30922
0.16850000 0.16850800 8633.50133712 0 36.70298520 0 2880.75318202 0 -103.12132214 0 768.19568145 0 30867
0.16950000 0.16949900 8531.97919085 0 223.69971447 0 2993.85698004 0 74.38354596 0 494.46013112 0 30852
0.17050000 0.17049200 8442.03869635 0 91.66810934 0 2649.82877560 0 158.61326749 0 726.62906685 0 31257
0.17150000 0.17149500 8279.97307798 0 42.36559356 0 2422.96791239 0 637.99621391 0 717.63391017 0 32608
0.17250000 0.17250900 8316.68890708 0 -4.64561532 0 2122.52037844 0 411.66682229 0 530.62345121 0 32361
0.17350000 0.17350400 8282.58614664 0 -18.45789764 0 1961.26303978 0 541.37024968 0 311.75902099 0 32508
0.17450000 0.17449800 8124.29619103 0 117.90254360 0 1794.87921473 0 -32.76920964 0 -12.05344352 0 32791
0.17550000 0.17549800 7977.85362298 0 315.14825962 0 1608.75343453 0 -157.19822438 0 339.39443650 0 33633
0.17650000 0.17650100 7692.39801683 0 303.84120151 0 1794.49168336 0 -209.50720852 0 244.49907665 0 33984
0.17750000 0.17750300 7667.88388968 0 61.35584858 0 1871.51077480 0 -146.64186990 0 154.09686620 0 34069
0.17850000 0.17849800 7573.20444016 0 -81.16600925 0 1925.05653762 0 84.12475589 0 195.53725630 0 34536
