### header ###
fiducial parameters:
Omega_m = 0.31
Omega_nu = 0
Omega_de = 0.69
Omega_k = 0
H_0 = 100
w_de = -1
zeff = 0
beta = 0
fgrowth = 0
b_1 = 2
gamma = 0.55
Lx = 3500 Ly = 3500 Lz = 3500
nx = 700 ny = 700 nz = 700
xoffset = -685.467585 yoffset = -31.7331281 zoffset = 572.489161
bins = 400 dk = 0.001
kx_ny = 0.628318531 ky_ny = 0.628318531 kz_ny = 0.628318531
############################
A(data) = 7.99941808 (not used)
A(ran) = 7.99328415 (used)
Ngal = 475167
weighted Ngal = 0
Nran = 23820508
weighted Nran = 0
SN(data) = 3490.72029
SN(ran) = 69.6244038
SN(data+ran) = 3560.34469
############################
13 columns: k_central k_mean P_0(k) sigma^{lin}_{P_0(k)} P^img_1(k) sigma^{lin}_{P_1(k)} P_2(k) sigma^{lin}_{P_2(k)} P^img_3(k) sigma^{lin}_{P_3(k)} P_4(k) sigma^{lin}_{P_4(k)} N_modes
### header ###
0.00050000 0 0 0 0 0 0 0 0 0 0 0 0
0.00150000 0.00179520 52903.34653700 0 -32702.99713786 0 -5883.24657541 0 15979.24700853 0 -128667.05778756 0 3
0.00250000 0.00253879 87918.02365049 0 -19337.92601901 0 40365.93169835 0 -67901.36412009 0 11775.08527489 0 6
0.00350000 0.00331552 97437.78708307 0 -5724.87911353 0 10824.50404456 0 -3062.64933414 0 64132.45547507 0 7
0.00450000 0.00420575 90077.79132962 0 19330.06466839 0 51036.88474232 0 -20744.22199423 0 56780.09962575 0 24
0.00550000 0.00557378 85272.84525132 0 16893.71031530 0 78785.12724708 0 27899.93335478 0 15683.61593587 0 45
0.00650000 0.00659388 68932.08683746 0 7887.91312848 0 86224.40084623 0 60591.85816782 0 17315.01227465 0 40
0.00750000 0.00754703 76680.05685256 0 5544.40021899 0 53804.74450048 0 63431.35586756 0 -15371.48709923 0 57
0.00850000 0.00846663 67816.21794224 0 1991.95552417 0 50045.24733156 0 52344.85847314 0 1723.72845544 0 75
0.00950000 0.00948925 70447.22376564 0 -6017.65352639 0 23607.96808532 0 39872.77035092 0 -4769.71394073 0 112
0.01050000 0.01054430 70030.90435246 0 -29.16394996 0 5827.20953951 0 22701.47685242 0 -22492.32063660 0 105
0.01150000 0.01145670 75690.74463001 0 -9985.47648677 0 -9341.58758159 0 -7662.05984683 0 6405.70529431 0 144
0.01250000 0.01249090 73138.13086632 0 -89.49527632 0 -14132.38322878 0 9496.06865746 0 -10942.02570018 0 169
0.01350000 0.01339930 73980.18116878 0 1917.81523719 0 -9824.55131786 0 -23020.13836070 0 713.84163892 0 180
0.01450000 0.01448870 71731.17055161 0 4091.32367141 0 -2518.49993092 0 -8957.59935688 0 -20179.64415173 0 267
0.01550000 0.01550050 67024.65744095 0 7798.55946719 0 -2332.15270423 0 -12287.73391399 0 -6938.80451735 0 238
0.01650000 0.01653350 61491.81672908 0 2087.97472500 0 13817.26486444 0 -3682.94311513 0 -7657.47590435 0 315
0.01750000 0.01747870 59387.18922755 0 2950.45346675 0 19097.54584720 0 6485.08279093 0 5273.16147791 0 297
0.01850000 0.01844180 62005.68332391 0 -2300.12046853 0 15272.61123860 0 7077.76219382 0 -458.50386351 0 388
0.01950000 0.01947590 63317.64309167 0 -4654.88286003 0 12694.97402082 0 11029.51921090 0 10801.31859639 0 399
0.02050000 0.02045430 70951.90033088 0 -3218.27085946 0 7782.00634159 0 3598.12910702 0 3445.99536401 0 462
0.02150000 0.02154770 66253.80218708 0 3516.88038750 0 9037.28687860 0 -4184.05439177 0 1439.45758805 0 571
0.02250000 0.02255340 69396.12797061 0 5345.81807337 0 16707.03091886 0 -8749.35107169 0 6705.69886294 0 510
0.02350000 0.02348930 64085.84098759 0 3573.37138872 0 13395.74145859 0 307.51832058 0 8666.65187762 0 555
0.02450000 0.02439640 63620.36045221 0 1308.59378102 0 13688.93661979 0 6161.49409811 0 6757.97130841 0 592
0.02550000 0.02547300 65061.31280411 0 -2362.03690891 0 17893.43052317 0 3314.54472376 0 -3833.13920129 0 837
0.02650000 0.02652900 67250.75431375 0 -2050.94887081 0 22642.01846815 0 -5845.46780313 0 -5739.05168930 0 723
0.02750000 0.02749970 66061.80807472 0 3100.50561269 0 28366.85329238 0 1451.12781841 0 -2602.02954936 0 826
0.02850000 0.02848090 64352.13039948 0 4828.96195083 0 32779.94979535 0 -13524.06970324 0 -4430.31396806 0 831
0.02950000 0.02946900 60620.42476585 0 5218.88494164 0 34777.17574613 0 -1487.13501872 0 3192.83772935 0 996
0.03050000 0.03053250 60379.04808480 0 924.07076302 0 39783.08451989 0 2610.67703504 0 5790.16154066 0 1041
0.03150000 0.03150510 56610.91450252 0 -306.24943216 0 33475.84541020 0 4811.79984736 0 2032.05948467 0 1036
0.03250000 0.03246190 58956.03289911 0 3345.60259488 0 35150.64526227 0 12137.70391270 0 951.07173432 0 1059
0.03350000 0.03345080 59462.81320606 0 176.36552587 0 27667.85742658 0 6257.61294986 0 2233.35434987 0 1302
0.03450000 0.03451200 55394.73034444 0 -794.16692655 0 28394.75555092 0 2764.71521792 0 -532.98739256 0 1339
0.03550000 0.03553350 57344.23457526 0 2683.93153604 0 24703.79607263 0 6364.20622089 0 -2322.71908348 0 1365
0.03650000 0.03647120 52082.00148195 0 2423.20043121 0 23128.42569743 0 3476.93143955 0 -118.51262870 0 1308
0.03750000 0.03744890 52647.90800343 0 98.84928705 0 19416.98241822 0 6161.70447228 0 1308.13981570 0 1579
0.03850000 0.03847530 52898.47471408 0 -1481.68743491 0 16693.19051283 0 4117.74223843 0 -557.78829292 0 1662
0.03950000 0.03950240 52014.46030055 0 201.27050609 0 16006.70637408 0 1921.09264533 0 -1971.17277049 0 1683
0.04050000 0.04050350 50498.43758639 0 2999.51493802 0 16074.24755547 0 -4839.21492361 0 -1473.52713152 0 1822
0.04150000 0.04152450 46892.51356270 0 4751.77677452 0 16952.28291359 0 -4175.08580867 0 -2005.29767558 0 1887
0.04250000 0.04250150 45223.69276603 0 2395.29817267 0 16598.07924264 0 -1982.32260158 0 618.97063817 0 1920
0.04350000 0.04349210 44958.28914013 0 -814.54664761 0 19506.88969575 0 -824.66010910 0 -3485.20246619 0 2005
0.04450000 0.04448520 45068.23732558 0 -557.70967942 0 16374.97189754 0 3564.61317979 0 -5694.09805054 0 2151
0.04550000 0.04548030 46812.12848451 0 88.17910907 0 17230.53043628 0 2019.87992737 0 -9738.98439166 0 2274
0.04650000 0.04648670 42808.48655334 0 2066.58299345 0 16024.20064729 0 -1249.31255394 0 -7269.47949806 0 2311
0.04750000 0.04749250 43756.72045081 0 3123.97894131 0 15484.42481238 0 761.40170294 0 -7971.16593879 0 2568
0.04850000 0.04851840 38188.33757626 0 1447.77290399 0 14044.02607672 0 1125.19179272 0 -5461.05883008 0 2493
0.04950000 0.04949480 39822.16982650 0 -435.30069962 0 12045.25000046 0 2661.91975430 0 -4118.37336095 0 2644
0.05050000 0.05050630 39107.00836647 0 -744.95930059 0 11709.53711196 0 4034.13511372 0 -5976.30946551 0 2829
0.05150000 0.05149060 39006.80382686 0 800.17698446 0 9813.52328234 0 2247.91445701 0 -7502.02046390 0 2784
0.05250000 0.05249300 38112.15998151 0 1669.28583431 0 9610.14682007 0 -1438.58287439 0 -7378.44224660 0 3055
0.05350000 0.05348950 36894.53642120 0 2262.37491322 0 13025.70436315 0 -3134.49764989 0 -6049.51967721 0 3009
0.05450000 0.05448610 35524.88984114 0 1330.05194652 0 11975.82652385 0 -2632.77739538 0 -3827.49231563 0 3336
0.05550000 0.05550870 37059.62478425 0 -793.67531533 0 14666.18000828 0 -957.40731858 0 -1192.01327300 0 3349
0.05650000 0.05647670 36758.45754918 0 -948.94806242 0 14960.37167871 0 331.28395857 0 -4044.16664001 0 3324
0.05750000 0.05747970 38216.23983481 0 197.72514768 0 16911.09386526 0 249.55470016 0 -1597.79183295 0 3639
0.05850000 0.05849280 36975.25366913 0 2106.29942258 0 16845.54570234 0 3591.56321840 0 -1272.89660580 0 3846
0.05950000 0.05951020 35175.00437687 0 1554.98622521 0 17233.18779424 0 1910.60715373 0 1356.74732165 0 3787
0.06050000 0.06049470 33514.26637732 0 1354.03460207 0 16295.69405184 0 2887.57373410 0 259.45003685 0 3930
0.06150000 0.06148310 33290.60541598 0 399.87479636 0 15727.01944916 0 2449.46398568 0 2095.69213540 0 4083
0.06250000 0.06249100 32814.71689528 0 141.57185236 0 15236.29401319 0 -58.93909224 0 3926.67820136 0 4303
0.06350000 0.06350600 32493.17658254 0 675.38966929 0 15566.58146253 0 -346.18841501 0 2873.47866461 0 4470
0.06450000 0.06451750 31282.41786363 0 1343.26123002 0 15207.83813841 0 -592.82666481 0 4153.59442619 0 4479
0.06550000 0.06550280 31623.99908428 0 644.08267086 0 16474.62282091 0 820.29761312 0 3590.71064939 0 4636
0.06650000 0.06648880 30922.45658377 0 210.41956809 0 16081.88745959 0 1304.88455220 0 1699.60185966 0 4653
0.06750000 0.06749660 30417.78001854 0 -207.78103308 0 14384.16789515 0 2224.91723836 0 2649.95057117 0 5220
0.06850000 0.06852730 31019.22870269 0 -29.88132588 0 13889.78859200 0 1787.36110617 0 -319.92375331 0 5029
0.06950000 0.06949320 30390.54209948 0 273.40670228 0 12289.50548596 0 -391.74660271 0 1351.44367806 0 5040
0.07050000 0.07048030 31422.70421908 0 110.07961394 0 10574.53523945 0 1899.80056471 0 -1058.24630240 0 5475
0.07150000 0.07148790 30122.48111562 0 501.74793532 0 9986.43977903 0 479.49256243 0 2692.20256268 0 5509
0.07250000 0.07249820 29605.51426984 0 506.65186798 0 9278.70784895 0 1452.22397856 0 -2229.37938526 0 5916
0.07350000 0.07351270 29020.56334967 0 1180.83022493 0 10283.15593952 0 1331.21454062 0 -245.29628403 0 5721
0.07450000 0.07449140 27857.85852047 0 766.70645376 0 9412.97085970 0 38.12024278 0 -1511.32804845 0 6028
0.07550000 0.07549160 27460.25133623 0 819.59009156 0 10138.73960691 0 655.92120056 0 2563.48678666 0 6183
0.07650000 0.07648840 26868.98919091 0 142.99464610 0 10007.74293198 0 1337.95758644 0 1741.07878843 0 6330
0.07750000 0.07749960 27069.95188637 0 7.71099952 0 9151.24324564 0 1869.04164636 0 1821.28670942 0 6583
0.07850000 0.07848650 25977.11342677 0 440.71728092 0 8527.60562255 0 865.78715240 0 1780.30803527 0 6549
0.07950000 0.07947320 25959.06553732 0 926.08703337 0 8743.79276464 0 286.34692830 0 483.67347229 0 6828
0.08050000 0.08048110 25221.20581140 0 923.68655335 0 8174.43167781 0 -1166.67979382 0 838.69649527 0 7147
0.08150000 0.08149960 23616.60449868 0 1090.81776032 0 7562.86288878 0 506.42488532 0 118.97877357 0 7386
0.08250000 0.08250610 23135.73343181 0 683.02071555 0 6391.43306761 0 237.43493341 0 -677.82004459 0 7227
0.08350000 0.08350160 22695.49779702 0 21.73608085 0 6733.30216872 0 261.93909547 0 -2204.49987139 0 7798
0.08450000 0.08449610 22431.31212685 0 136.14198427 0 6180.41670122 0 939.17230684 0 -3833.44922639 0 7371
0.08550000 0.08548940 22572.92716128 0 206.39699248 0 6207.95357304 0 172.68508510 0 -2409.37109751 0 8256
0.08650000 0.08650700 22059.39273619 0 376.81557269 0 5007.64712875 0 1023.44819996 0 -2602.39493608 0 8037
0.08750000 0.08749060 21996.94482421 0 783.49099096 0 6546.86636342 0 -955.02455428 0 -1654.37141278 0 8155
0.08850000 0.08849210 21491.60391949 0 522.68570155 0 6262.62871300 0 -617.49469728 0 -1914.05064675 0 8718
0.08950000 0.08949900 20743.44693149 0 659.09674332 0 7137.69668807 0 -544.58786728 0 623.07625622 0 8571
0.09050000 0.09049190 20546.13810322 0 806.99200038 0 7589.17073255 0 786.22474795 0 -979.37591825 0 8932
0.09150000 0.09150830 20064.60269686 0 -25.28498240 0 6939.47992916 0 1472.19845254 0 240.43664067 0 9285
0.09250000 0.09250820 19464.26124519 0 219.34386189 0 6681.50583321 0 1701.45093791 0 -464.85273456 0 9204
0.09350000 0.09350330 19590.04285513 0 416.49878484 0 5801.75426475 0 522.28709786 0 -1513.01104182 0 9349
0.09450000 0.09448040 18716.65787344 0 559.77577523 0 5403.18378825 0 -100.60015377 0 -449.76337030 0 9564
0.09550000 0.09549270 18348.94596621 0 666.98356029 0 5202.17680349 0 -10.75319827 0 -181.60384275 0 10155
0.09650000 0.09649430 17944.03104759 0 -166.73924668 0 5120.33017843 0 -516.41876570 0 -105.21266285 0 9913
0.09750000 0.09749140 18095.50045111 0 154.14336996 0 5714.40469425 0 -210.95546861 0 -1088.73062709 0 10476
0.09850000 0.09850240 17564.13958307 0 783.23854195 0 6001.27755798 0 -125.88236810 0 -425.59137798 0 10575
0.09950000 0.09950330 17389.52902068 0 458.90357443 0 5716.04339833 0 927.56629596 0 363.93181553 0 10882
0.10050000 0.10051200 16873.66940738 0 287.39437023 0 6111.73507037 0 372.55494210 0 -31.04690951 0 10875
0.10150000 0.10150300 16743.34814426 0 344.00163086 0 6070.77854087 0 618.82891242 0 496.20623675 0 11118
0.10250000 0.10250800 16685.32916221 0 210.87906957 0 6163.86357562 0 141.03152291 0 427.17139874 0 11575
0.10350000 0.10349800 16220.40224308 0 42.60973832 0 5809.56025375 0 6.20525193 0 1143.40576705 0 11364
0.10450000 0.10450100 16409.40682773 0 -73.74090823 0 5597.19306372 0 119.70954701 0 88.35925579 0 12093
0.10550000 0.10551000 16643.91866739 0 340.77958434 0 5712.82135180 0 -237.22898817 0 182.62028216 0 12067
0.10650000 0.10649700 16184.97080366 0 227.99577650 0 5963.27733920 0 -443.34363637 0 -455.94172754 0 12054
0.10750000 0.10749900 15954.33427768 0 271.99940980 0 6014.71936031 0 320.12637685 0 623.32538353 0 12807
0.10850000 0.10850100 15820.35914738 0 105.83525967 0 5300.53226486 0 639.42011488 0 -512.61874383 0 12736
0.10950000 0.10950300 15610.87076181 0 174.48765958 0 5182.78916274 0 1031.18221885 0 -374.78158662 0 12933
0.11050000 0.11050200 15591.49419338 0 141.22750306 0 5531.20200780 0 392.17620891 0 -392.56816921 0 13428
0.11150000 0.11150900 15236.62618294 0 310.96402807 0 5441.18400703 0 -239.27736826 0 -2.06286269 0 13453
0.11250000 0.11250000 15253.67756316 0 191.16700969 0 5632.38091200 0 -489.51080193 0 501.39362093 0 13668
0.11350000 0.11349100 15109.07300103 0 143.15519481 0 6102.53396845 0 -592.15568193 0 309.12602215 0 13791
0.11450000 0.11448600 15127.23161373 0 421.85668282 0 6173.75116168 0 -289.01535858 0 448.79675634 0 14205
0.11550000 0.11549300 14716.00546997 0 396.93952305 0 6272.05126142 0 -18.76803346 0 603.85580756 0 14776
0.11650000 0.11649800 14321.94142967 0 393.11846376 0 6394.53331856 0 54.89093957 0 1374.92807901 0 14553
0.11750000 0.11747300 14467.98539403 0 -200.46222638 0 6457.20267704 0 944.52466865 0 82.41286375 0 14568
0.11850000 0.11849100 14255.61820401 0 -194.06685156 0 6277.43241128 0 532.50906813 0 451.14519643 0 16015
0.11950000 0.11950300 14404.31952632 0 269.26676003 0 6017.42100757 0 793.52030278 0 292.74783928 0 15270
0.12050000 0.12050700 14091.30490370 0 331.26513562 0 5735.98465533 0 240.53186266 0 1275.43216818 0 15999
0.12150000 0.12150000 13951.23999474 0 184.09290136 0 5167.76401796 0 498.25350961 0 639.47769097 0 15670
0.12250000 0.12250700 13539.34951149 0 327.57030083 0 5441.32794725 0 97.38541499 0 686.79527108 0 16887
0.12350000 0.12352200 13471.47616035 0 271.94404817 0 4802.08941850 0 237.41721769 0 410.61273697 0 16407
0.12450000 0.12449800 12922.73174234 0 205.23329114 0 5037.81921389 0 356.14686395 0 937.23464999 0 16306
0.12550000 0.12549900 12828.94915112 0 44.34311077 0 4380.65459125 0 745.01134051 0 343.63181521 0 17523
0.12650000 0.12650100 12780.67381492 0 124.97443746 0 4048.86130573 0 867.33617065 0 -228.31798116 0 17154
0.12750000 0.12750600 12438.64970127 0 576.30897065 0 3292.21184460 0 398.89711008 0 118.41629947 0 18007
0.12850000 0.12850300 12018.78714414 0 120.80902886 0 3161.75771359 0 198.82905847 0 675.15272154 0 17496
0.12950000 0.12949900 12047.02157243 0 152.43712471 0 3206.37918261 0 182.58152903 0 888.67475504 0 18405
0.13050000 0.13049000 11973.83350538 0 -58.31184504 0 3250.21451656 0 129.34911300 0 1414.20161514 0 18100
0.13150000 0.13148800 11968.62951272 0 -76.18789201 0 3395.21768239 0 260.03465560 0 616.65320059 0 19059
0.13250000 0.13249300 12272.34338249 0 1.34362662 0 3649.16145211 0 -411.50959528 0 1418.02156720 0 18957
0.13350000 0.13349100 12338.22371516 0 34.79323062 0 3905.16467424 0 -306.68568176 0 941.91824339 0 19468
0.13450000 0.13450700 12283.52643056 0 353.63898238 0 4180.34516296 0 -620.39121745 0 1288.97362144 0 19953
0.13550000 0.13551000 12027.31283425 0 337.51214128 0 3990.18905652 0 -352.79527123 0 1013.44989065 0 19956
0.13650000 0.13649900 11677.75953973 0 243.26894136 0 4382.48152484 0 313.56270270 0 1045.71907410 0 19723
0.13750000 0.13749600 11628.59841754 0 129.67242488 0 3870.75188870 0 351.36361963 0 1028.77177373 0 20946
0.13850000 0.13851100 11660.48671301 0 -116.69676743 0 3757.52629511 0 550.17274791 0 356.90310374 0 20955
0.13950000 0.13949800 11649.52511144 0 -29.24079189 0 3303.27309710 0 352.20290185 0 381.22567967 0 20506
0.14050000 0.14048300 11465.06017996 0 233.11340503 0 3239.96154378 0 204.74389438 0 -128.89182598 0 21447
0.14150000 0.14148400 11279.15584626 0 199.15015589 0 3353.29786063 0 -66.03722751 0 121.23752783 0 21771
0.14250000 0.14249400 11242.28500461 0 119.26001062 0 3250.90100070 0 -256.10951645 0 -5.44911179 0 22470
0.14350000 0.14350900 10993.86632498 0 92.12174249 0 3199.06037590 0 63.44408904 0 26.68208835 0 22519
0.14450000 0.14449900 11065.98037653 0 268.09973700 0 3195.63902753 0 227.02805531 0 -307.83388184 0 22218
0.14550000 0.14550500 10722.42828205 0 121.80110917 0 3205.13908223 0 -86.69674622 0 -52.76062427 0 23559
0.14650000 0.14650700 10749.67727343 0 187.91506789 0 2691.49393389 0 351.91612864 0 -194.11889149 0 23044
0.14750000 0.14750500 10553.92964296 0 107.71268307 0 3218.13799157 0 67.61636248 0 -259.00382216 0 23649
0.14850000 0.14849900 10498.82268234 0 183.54482129 0 2809.70207365 0 -11.78715411 0 -384.51748184 0 23640
0.14950000 0.14949500 10239.64170298 0 217.48149686 0 3086.33303692 0 -41.46308836 0 -718.78653918 0 24457
0.15050000 0.15050000 9911.44692304 0 437.57163344 0 2845.01171750 0 114.90194357 0 1.94600538 0 24591
0.15150000 0.15149900 10042.08928357 0 146.92310695 0 3037.26049333 0 229.98215158 0 -276.69407552 0 25020
0.15250000 0.15250500 9715.10138703 0 -161.46106944 0 2765.30205113 0 429.05147949 0 -299.77212214 0 25297
0.15350000 0.15350100 9756.11327815 0 68.15879567 0 2496.75388498 0 305.50205023 0 -356.66615599 0 25452
0.15450000 0.15450400 9714.79136193 0 213.10349962 0 2583.53876691 0 3.72220558 0 -393.31112221 0 26061
0.15550000 0.15549900 9593.51618819 0 131.87471029 0 2354.44129409 0 -104.62948350 0 -182.59703028 0 26128
0.15650000 0.15649500 9295.83673544 0 297.69716847 0 2693.07727634 0 -71.99668490 0 145.14156989 0 26331
0.15750000 0.15749700 9198.42242169 0 192.84668137 0 2770.14065708 0 235.49174041 0 445.37430074 0 27345
0.15850000 0.15849900 9156.85691432 0 -65.82917853 0 2771.98973532 0 553.68046042 0 411.69339587 0 26980
0.15950000 0.15949700 9155.42858442 0 -1.65396174 0 2747.61954840 0 535.53181281 0 334.53368591 0 27777
0.16050000 0.16050000 9131.89989418 0 64.47868707 0 2510.79359285 0 234.71335597 0 686.56828842 0 28224
0.16150000 0.16150500 9117.21799147 0 110.14649079 0 2478.89422505 0 -1.88739956 0 477.11644153 0 28075
0.16250000 0.16249700 8965.77073260 0 102.39564197 0 2457.56892745 0 -422.34607958 0 672.57176262 0 28590
0.16350000 0.16349900 8827.90921628 0 201.89055628 0 2686.54460470 0 -368.44268067 0 58.23943204 0 29163
0.16450000 0.16449100 8636.92268549 0 198.38395101 0 2554.78393936 0 -332.61263755 0 184.86685687 0 28996
0.16550000 0.16550500 8608.01284538 0 207.97258430 0 2578.41228052 0 -48.32239359 0 -216.63667847 0 30777
0.16650000 0.16650700 8395.72316164 0 86.18963375 0 2398.70844871 0 108.29674820 0 -51.04452465 0 29211
0.16750000 0.16749900 8402.86481114 0 26.67389483 0 2615.90317235 0 285.16772570 0 -395.55437522 0 30922
0.16850000 0.16850800 8414.39110128 0 -90.46687282 0 2276.38140412 0 181.93269079 0 -539.62857299 0 30867
0.16950000 0.16949900 8398.83448491 0 25.29849064 0 2354.30842619 0 56.06825986 0 -713.29355884 0 30852
0.17050000 0.17049200 8499.30476031 0 175.93591967 0 2315.77673582 0 -47.26255066 0 -482.14659869 0 31257
0.17150000 0.17149500 8269.88619007 0 67.74136903 0 2376.25377398 0 75.68875161 0 -289.47153836 0 32608
0.17250000 0.17250900 8207.26112090 0 73.26380175 0 2442.35555315 0 150.26584181 0 -226.78778587 0 32361
0.17350000 0.17350400 8235.94951450 0 66.50713698 0 2188.15711996 0 340.50166899 0 34.80053835 0 32508
0.17450000 0.17449800 8152.45311305 0 81.13268156 0 2315.78780814 0 259.55743840 0 -66.44336039 0 32791
0.17550000 0.17549800 8097.00291035 0 217.20247427 0 2173.32020470 0 56.08398256 0 215.38329130 0 33633
0.17650000 0.17650100 7910.25707996 0 111.12517358 0 2194.57906835 0 107.32614821 0 484.43635547 0 33984
0.17750000 0.17750300 7938.07075991 0 22.71421003 0 2173.82953164 0 195.66126634 0 766.97883296 0 34069
0.17850000 0.17849800 7935.82307797 0 -118.32993534 0 2057.31545758 0 179.48902871 0 592.43138282 0 34536
