### header ###
fiducial parameters:
Omega_m = 0.31
Omega_nu = 0
Omega_de = 0.69
Omega_k = 0
H_0 = 100
w_de = -1
zeff = 0
beta = 0
fgrowth = 0
b_1 = 2
gamma = 0.55
Lx = 3500 Ly = 3500 Lz = 3500
nx = 700 ny = 700 nz = 700
xoffset = -685.467585 yoffset = -31.7331281 zoffset = 572.489161
bins = 400 dk = 0.001
kx_ny = 0.628318531 ky_ny = 0.628318531 kz_ny = 0.628318531
############################
A(data) = 8.03134311 (not used)
A(ran) = 8.03481214 (used)
Ngal = 477797
weighted Ngal = 0
Nran = 23820508
weighted Nran = 0
SN(data) = 3483.46769
SN(ran) = 69.9861277
SN(data+ran) = 3553.45382
############################
13 columns: k_central k_mean P_0(k) sigma^{lin}_{P_0(k)} P^img_1(k) sigma^{lin}_{P_1(k)} P_2(k) sigma^{lin}_{P_2(k)} P^img_3(k) sigma^{lin}_{P_3(k)} P_4(k) sigma^{lin}_{P_4(k)} N_modes
### header ###
0.00050000 0 0 0 0 0 0 0 0 0 0 0 0
0.00150000 0.00179520 26447.13361532 0 -16534.63482143 0 3189.16171751 0 44079.92161226 0 -21041.62463886 0 3
0.00250000 0.00253879 50193.06286789 0 -15612.86378028 0 25086.78778810 0 -63024.78010022 0 4471.14870199 0 6
0.00350000 0.00331552 48045.80691581 0 8160.97880316 0 13676.53561599 0 -51306.49585165 0 11764.23439656 0 7
0.00450000 0.00420575 47381.91031968 0 18343.63125030 0 34706.64503704 0 -34012.63171741 0 44872.25717629 0 24
0.00550000 0.00557378 40042.39836715 0 -6007.62200010 0 49500.82112023 0 10762.91977391 0 21004.53235072 0 45
0.00650000 0.00659388 66457.53296374 0 -23768.84896494 0 86122.97835089 0 33125.29560644 0 5044.38510250 0 40
0.00750000 0.00754703 65570.75046902 0 -4184.63015266 0 52417.60364720 0 50431.89291423 0 -7943.66228394 0 57
0.00850000 0.00846663 71798.93317950 0 10316.26219073 0 43876.96589834 0 32164.43925868 0 4139.51042902 0 75
0.00950000 0.00948925 62669.46919679 0 380.89572439 0 10488.53649258 0 21045.05705955 0 12886.41451693 0 112
0.01050000 0.01054430 59196.63451742 0 -814.66955041 0 4960.29079551 0 15819.03046840 0 -3480.44136652 0 105
0.01150000 0.01145670 65492.46913255 0 -3213.62048304 0 8494.92011969 0 -7469.13565919 0 -272.20535504 0 144
0.01250000 0.01249090 68854.69128698 0 1690.22360054 0 8296.45976964 0 -25809.92132201 0 -19436.91260289 0 169
0.01350000 0.01339930 78120.12341847 0 2946.87710583 0 30727.25149722 0 -38335.59949635 0 6977.17012285 0 180
0.01450000 0.01448870 79108.43913178 0 -6725.36331182 0 33786.97773760 0 -21264.39981421 0 -8851.13895375 0 267
0.01550000 0.01550050 86961.48550941 0 -9152.93731133 0 68068.55622485 0 -7172.44164335 0 -21716.81500630 0 238
0.01650000 0.01653350 87487.64238479 0 5800.04912673 0 55929.19146344 0 8157.07027250 0 -25907.02561067 0 315
0.01750000 0.01747870 85682.52126961 0 5147.16949379 0 54148.20801636 0 16432.43726335 0 -25501.22490607 0 297
0.01850000 0.01844180 84414.51863137 0 3441.66608500 0 49082.39796533 0 19039.63758840 0 -18408.18290399 0 388
0.01950000 0.01947590 81771.00108092 0 3873.96286290 0 24853.38318093 0 28744.30884545 0 -14338.99280989 0 399
0.02050000 0.02045430 69195.16527515 0 4067.69533025 0 5735.84071510 0 18503.29417418 0 -21506.33011150 0 462
0.02150000 0.02154770 75378.61579337 0 -2747.73027164 0 7525.83703458 0 13283.68953143 0 -25607.07633133 0 571
0.02250000 0.02255340 72787.35961607 0 -4013.82847001 0 1017.45475054 0 -113.91318497 0 -25738.83699667 0 510
0.02350000 0.02348930 78689.01946765 0 3121.47659590 0 5294.15460576 0 -8848.97985041 0 -3592.13897929 0 555
0.02450000 0.02439640 74727.12020104 0 -3393.67862924 0 13066.78268823 0 -9784.72416549 0 5253.74062017 0 592
0.02550000 0.02547300 82603.75063053 0 224.26661750 0 26149.39880095 0 206.91074835 0 6554.45090592 0 837
0.02650000 0.02652900 78194.97233424 0 8206.92895115 0 26647.09980155 0 -2551.37366331 0 13504.80385805 0 723
0.02750000 0.02749970 72426.95544322 0 12424.69857200 0 31815.88247339 0 -677.67942606 0 -1724.18242076 0 826
0.02850000 0.02848090 66503.59383499 0 3492.66521312 0 33781.33085195 0 759.24924300 0 16569.29119811 0 831
0.02950000 0.02946900 65170.26448033 0 575.37889536 0 32616.19011128 0 4653.74241058 0 2989.93737705 0 996
0.03050000 0.03053250 62017.30926497 0 3892.60865789 0 29510.62444615 0 1818.14216917 0 -2998.14196974 0 1041
0.03150000 0.03150510 59734.19588736 0 1551.68667241 0 30241.84077717 0 -1113.33333284 0 -3295.46710810 0 1036
0.03250000 0.03246190 55785.80485703 0 3737.13107279 0 26584.76261282 0 -3079.33532764 0 -2674.17681787 0 1059
0.03350000 0.03345080 56665.05817088 0 1956.10333641 0 29574.17959060 0 8861.49157746 0 9145.27526256 0 1302
0.03450000 0.03451200 53910.81737224 0 -2854.00244525 0 29713.35871357 0 10936.16844035 0 2475.17392391 0 1339
0.03550000 0.03553350 54497.42914114 0 1807.90026871 0 23503.66678553 0 10284.62855872 0 -983.36195519 0 1365
0.03650000 0.03647120 52951.06825696 0 3829.25281528 0 25292.40085999 0 1045.57734834 0 286.97915804 0 1308
0.03750000 0.03744890 48210.00949287 0 2966.85157981 0 21619.82144089 0 -1144.05903421 0 5026.21541748 0 1579
0.03850000 0.03847530 47501.60215097 0 2005.28660326 0 20549.01690768 0 2100.98470666 0 4077.70471189 0 1662
0.03950000 0.03950240 45777.30900696 0 -986.69693942 0 18201.46259963 0 685.22078649 0 -172.52453639 0 1683
0.04050000 0.04050350 47752.50103136 0 -1529.27628698 0 16734.49028441 0 4131.81516327 0 182.60145921 0 1822
0.04150000 0.04152450 47595.16329569 0 799.01549759 0 17812.93472174 0 -3079.32425531 0 -6550.97419593 0 1887
0.04250000 0.04250150 48363.80408460 0 3965.12131313 0 20023.41364854 0 287.43755229 0 -3836.60483896 0 1920
0.04350000 0.04349210 45016.75101517 0 900.73030230 0 18754.08233133 0 1160.19141147 0 816.27835921 0 2005
0.04450000 0.04448520 44835.27561139 0 609.32664326 0 17939.15922467 0 1300.88744294 0 5309.16867822 0 2151
0.04550000 0.04548030 44719.34837054 0 30.62682551 0 18588.55107529 0 3854.33163099 0 -4032.03137201 0 2274
0.04650000 0.04648670 44473.21058982 0 750.74459031 0 17765.87734126 0 2903.37394162 0 -7026.30910039 0 2311
0.04750000 0.04749250 42116.13408243 0 2432.25759291 0 15384.77388901 0 -710.98497911 0 -4769.23783076 0 2568
0.04850000 0.04851840 40389.07285722 0 1747.40108590 0 13981.57816475 0 -673.36011215 0 -8882.26325882 0 2493
0.04950000 0.04949480 39202.89469940 0 -45.82669158 0 14431.66816862 0 -2131.71040803 0 -7579.75925645 0 2644
0.05050000 0.05050630 39284.05484032 0 489.89722607 0 14067.27795884 0 -871.58351445 0 -12537.08266891 0 2829
0.05150000 0.05149060 38223.54756919 0 1314.61712572 0 15499.92606713 0 -2888.91348541 0 -9487.78655850 0 2784
0.05250000 0.05249300 38657.91487182 0 1634.40801113 0 16310.64169035 0 -2191.71133623 0 -9861.63253368 0 3055
0.05350000 0.05348950 37236.11764186 0 912.78695679 0 18517.46674995 0 402.79567565 0 -8080.33906150 0 3009
0.05450000 0.05448610 36610.86345935 0 256.79600059 0 18111.22315236 0 322.69404898 0 -9400.82451937 0 3336
0.05550000 0.05550870 37441.61999049 0 70.94558911 0 18965.78518186 0 2147.73206205 0 -9260.34993440 0 3349
0.05650000 0.05647670 36825.33439109 0 132.29324417 0 17933.06944602 0 168.10003540 0 -10559.39937142 0 3324
0.05750000 0.05747970 36601.23053676 0 498.43952466 0 17498.48069689 0 2571.89068120 0 -6995.32873555 0 3639
0.05850000 0.05849280 36022.92301148 0 -97.89839580 0 15863.31976767 0 1240.46576641 0 -8610.95808379 0 3846
0.05950000 0.05951020 35815.53836763 0 186.03941607 0 15311.58582196 0 1246.93200410 0 -7994.16315744 0 3787
0.06050000 0.06049470 36182.36448887 0 902.35682682 0 15646.41292448 0 1619.03962428 0 -8602.91957597 0 3930
0.06150000 0.06148310 34798.43460979 0 1636.09100450 0 13355.54891950 0 1619.00640731 0 -4769.16032449 0 4083
0.06250000 0.06249100 33913.42368703 0 600.22740672 0 12696.30269980 0 2777.57018703 0 -2317.69224801 0 4303
0.06350000 0.06350600 33581.03249598 0 -51.35875722 0 12431.23124364 0 4112.89256016 0 1008.63010766 0 4470
0.06450000 0.06451750 33737.81661541 0 -533.72923833 0 10722.64972855 0 3003.00272034 0 188.20294834 0 4479
0.06550000 0.06550280 33494.44691589 0 -152.99074095 0 9873.47992123 0 3390.36800412 0 1407.12639958 0 4636
0.06650000 0.06648880 33110.12652144 0 1244.06427197 0 7670.00977605 0 1138.03568951 0 970.76497124 0 4653
0.06750000 0.06749660 32263.97945880 0 792.89914536 0 8545.67565666 0 -48.65400972 0 2590.53647619 0 5220
0.06850000 0.06852730 31376.53262458 0 192.06718970 0 9024.95230876 0 -189.92026592 0 1514.11827430 0 5029
0.06950000 0.06949320 31425.02940729 0 987.65801722 0 9653.69427358 0 -628.59138121 0 2323.19519345 0 5040
0.07050000 0.07048030 30511.23044001 0 1182.88967735 0 9069.25268035 0 -185.97076765 0 1027.48738406 0 5475
0.07150000 0.07148790 29442.52964851 0 899.42598244 0 9447.51651313 0 -589.15286744 0 3239.68473566 0 5509
0.07250000 0.07249820 29291.83530773 0 1031.05045818 0 10782.01953423 0 721.44611160 0 2219.70217337 0 5916
0.07350000 0.07351270 28041.99128220 0 931.43607349 0 9595.96317198 0 789.91515382 0 1815.15264147 0 5721
0.07450000 0.07449140 27568.20650321 0 138.42399042 0 9340.28104727 0 1211.89916838 0 758.08443443 0 6028
0.07550000 0.07549160 26732.46742590 0 824.29140068 0 8762.18389616 0 2242.35614995 0 1016.80259061 0 6183
0.07650000 0.07648840 26185.49457986 0 235.91027428 0 7094.45925965 0 821.09924944 0 -685.25621793 0 6330
0.07750000 0.07749960 26108.76336886 0 212.62185349 0 6978.54309112 0 1501.31866681 0 725.26163474 0 6583
0.07850000 0.07848650 25953.75082140 0 385.08992103 0 7010.47567590 0 -326.21394104 0 1755.61675092 0 6549
0.07950000 0.07947320 26234.10208581 0 -110.25821054 0 6766.77380664 0 -711.03923351 0 526.14248136 0 6828
0.08050000 0.08048110 26235.98438103 0 799.78280970 0 8065.50214625 0 -452.84369106 0 676.80581963 0 7147
0.08150000 0.08149960 25365.14603404 0 1179.75620943 0 9300.78606464 0 -1333.30721001 0 2364.57247130 0 7386
0.08250000 0.08250610 24495.96853578 0 1088.26116052 0 10271.67393869 0 132.80478557 0 2734.77565161 0 7227
0.08350000 0.08350160 23786.12179166 0 875.30270835 0 10876.28930773 0 -159.28314314 0 1821.28670942 0 7798
0.08450000 0.08449610 23213.23970554 0 948.98017216 0 10576.83828301 0 318.91727898 0 1507.09842037 0 7371
0.08550000 0.08548940 22003.25604936 0 825.75848372 0 10267.46645525 0 1026.39786729 0 2617.54187643 0 8256
0.08650000 0.08650700 21600.33414921 0 654.29578328 0 8936.76124157 0 816.05469825 0 3190.22466070 0 8037
0.08750000 0.08749060 21223.21076588 0 -59.70485423 0 8863.30743873 0 1733.90392195 0 2186.06445057 0 8155
0.08850000 0.08849210 20646.12119634 0 166.22770527 0 7002.38180646 0 1858.62258871 0 638.11690225 0 8718
0.08950000 0.08949900 20227.58731819 0 669.67745691 0 7003.72155776 0 251.12364858 0 834.39378985 0 8571
0.09050000 0.09049190 19766.31426625 0 506.06503477 0 6532.11802676 0 -254.29144071 0 946.76349273 0 8932
0.09150000 0.09150830 19634.99649390 0 291.99159949 0 6974.09201655 0 219.89747813 0 1752.71580182 0 9285
0.09250000 0.09250820 19279.90703696 0 47.17297555 0 6640.39429116 0 365.85840005 0 414.68181634 0 9204
0.09350000 0.09350330 19244.58632079 0 -322.10943023 0 6861.94043846 0 -313.12313141 0 636.72511102 0 9349
0.09450000 0.09448040 19533.35255206 0 242.60570910 0 6879.45685632 0 716.46577990 0 114.77129014 0 9564
0.09550000 0.09549270 19045.83809030 0 364.02593030 0 6645.42112663 0 -43.63946453 0 484.45517842 0 10155
0.09650000 0.09649430 19027.56875435 0 348.66307961 0 7075.14912517 0 801.36393768 0 1357.20128697 0 9913
0.09750000 0.09749140 18604.16305328 0 645.48996335 0 7070.80877384 0 238.01844493 0 552.27981133 0 10476
0.09850000 0.09850240 17908.04599193 0 600.18643912 0 5798.66508612 0 656.64422337 0 1503.83208454 0 10575
0.09950000 0.09950330 17345.90406089 0 313.23274742 0 6247.16067523 0 827.45365665 0 1521.08276661 0 10882
0.10050000 0.10051200 17412.00584006 0 22.18561724 0 5746.29298973 0 293.67127116 0 845.46168573 0 10875
0.10150000 0.10150300 16928.25596873 0 388.33411220 0 6624.39478180 0 -7.77982509 0 1237.17728594 0 11118
0.10250000 0.10250800 16882.85943698 0 693.83726967 0 6776.82747758 0 -772.48067116 0 895.97473879 0 11575
0.10350000 0.10349800 16327.36090082 0 363.51217442 0 6366.28781795 0 -304.00175022 0 1436.08052898 0 11364
0.10450000 0.10450100 16371.31803035 0 79.76159557 0 7365.46548191 0 -248.74088428 0 932.85775999 0 12093
0.10550000 0.10551000 16411.73201594 0 211.26660093 0 7044.84417214 0 32.25822185 0 518.92111111 0 12067
0.10650000 0.10649700 16005.93131134 0 254.72104692 0 6848.99689075 0 134.06038721 0 -142.74884049 0 12054
0.10750000 0.10749900 16020.87894984 0 136.35900184 0 6322.08709728 0 1498.51736863 0 563.41192670 0 12807
0.10850000 0.10850100 15641.76254805 0 -138.21361625 0 5137.60300515 0 1279.70608556 0 150.36549273 0 12736
0.10950000 0.10950300 15770.31223920 0 70.31280574 0 4993.48562531 0 1531.43539032 0 76.11747203 0 12933
0.11050000 0.11050200 15266.30001345 0 274.75641868 0 3941.49297197 0 238.94852021 0 768.96520803 0 13428
0.11150000 0.11150900 15240.16932688 0 244.66516152 0 4586.46696498 0 216.50602504 0 93.28898697 0 13453
0.11250000 0.11250000 14743.02194252 0 226.92176100 0 4053.76634563 0 -269.50038609 0 1396.82913750 0 13668
0.11350000 0.11349100 14936.89835010 0 306.48305821 0 4538.20270109 0 -79.49187374 0 277.16354209 0 13791
0.11450000 0.11448600 14751.32618614 0 87.13986066 0 4499.12846681 0 -593.31495434 0 865.80929705 0 14205
0.11550000 0.11549300 14726.74562504 0 20.21496487 0 4745.43233240 0 -84.75809287 0 -516.66900024 0 14776
0.11650000 0.11649800 14423.03175527 0 129.47201580 0 3925.64847515 0 242.37319028 0 319.08336386 0 14553
0.11750000 0.11747300 14585.46276035 0 -13.20186505 0 4196.18965977 0 98.96643225 0 -935.28813529 0 14568
0.11850000 0.11849100 14401.99433811 0 25.67273522 0 3814.53769560 0 369.44694053 0 -1189.37805969 0 16015
0.11950000 0.11950300 14478.28265611 0 197.72293322 0 3763.42784423 0 18.84598263 0 -1419.08451038 0 15270
0.12050000 0.12050700 14068.49591457 0 85.47126131 0 3222.81051264 0 -71.46067366 0 -964.62425990 0 15999
0.12150000 0.12150000 14063.51336840 0 266.57286340 0 3462.48205566 0 310.20668105 0 -745.21507129 0 15670
0.12250000 0.12250700 14001.72979592 0 216.06313205 0 3611.29410123 0 265.23311210 0 -670.54441995 0 16887
0.12350000 0.12352200 13625.49219858 0 281.85931505 0 3447.91087620 0 179.23215077 0 -634.37888539 0 16407
0.12450000 0.12449800 13523.40536375 0 404.09224488 0 3966.53857071 0 -285.47996526 0 -680.83503863 0 16306
0.12550000 0.12549900 13093.02409805 0 600.61161639 0 4050.16784006 0 -92.55245593 0 464.76526319 0 17523
0.12650000 0.12650100 12821.19852375 0 387.76278024 0 3950.39512112 0 571.29763644 0 223.53141514 0 17154
0.12750000 0.12750600 12750.66781466 0 -224.30979957 0 3925.83670467 0 423.23297280 0 567.25845234 0 18007
0.12850000 0.12850300 12807.57956422 0 -282.13280147 0 3741.94753409 0 631.60194633 0 -427.38177291 0 17496
0.12950000 0.12949900 12884.75366821 0 -104.06379842 0 3569.15283297 0 266.16429462 0 -508.23299597 0 18405
0.13050000 0.13049000 13088.37372163 0 -4.68166681 0 3500.46012979 0 -13.13465604 0 -590.82368125 0 18100
0.13150000 0.13148800 12896.71177901 0 417.22070042 0 3674.70530546 0 -422.15895729 0 -256.41954155 0 19059
0.13250000 0.13249300 12665.96452979 0 400.69968456 0 3547.17426820 0 -180.49661026 0 317.24092901 0 18957
0.13350000 0.13349100 12546.82631475 0 84.81024352 0 3826.59545732 0 -41.77964613 0 -98.73745657 0 19468
0.13450000 0.13450700 12413.51552393 0 109.68311399 0 4057.68594861 0 39.05696146 0 -300.59147418 0 19953
0.13550000 0.13551000 12347.85663775 0 208.85615582 0 4145.89916044 0 76.44222332 0 -412.47953093 0 19956
0.13650000 0.13649900 12287.29102100 0 175.11546040 0 3895.37673910 0 -122.23735877 0 -515.40896968 0 19723
0.13750000 0.13749600 12036.17069411 0 290.54555387 0 3964.18016552 0 21.19276187 0 -211.80693039 0 20946
0.13850000 0.13851100 11847.94117219 0 281.79620280 0 4135.29187327 0 144.26796346 0 -156.35340600 0 20955
0.13950000 0.13949800 11539.24475625 0 279.38243599 0 4051.08684302 0 215.04447816 0 -149.56053472 0 20506
0.14050000 0.14048300 11635.68470542 0 224.46481212 0 3740.88459090 0 392.09870264 0 488.68369927 0 21447
0.14150000 0.14148400 11177.06901143 0 258.24204621 0 3984.32072437 0 307.61022088 0 636.99970468 0 21771
0.14250000 0.14249400 10984.73165701 0 444.29917800 0 4047.44404816 0 164.10071167 0 1064.56195648 0 22470
0.14350000 0.14350900 10587.11340044 0 259.86967796 0 4011.33719692 0 -55.44367002 0 929.25261103 0 22519
0.14450000 0.14449900 10474.82895446 0 207.23627470 0 4068.44824834 0 112.44720916 0 1136.77344448 0 22218
0.14550000 0.14550500 10229.03441581 0 138.20697285 0 4040.14738610 0 56.89359096 0 1085.41446581 0 23559
0.14650000 0.14650700 10148.32824021 0 -81.88670688 0 3729.65725354 0 258.29962230 0 658.42243874 0 23044
0.14750000 0.14750500 10321.83157011 0 -114.84879641 0 3439.45162004 0 196.97222959 0 331.54747990 0 23649
0.14850000 0.14849900 10329.52683586 0 102.50071833 0 3402.03823448 0 323.14690706 0 16.20600822 0 23640
0.14950000 0.14949500 10108.71146200 0 241.78967876 0 2922.26332776 0 42.79863218 0 29.25784327 0 24457
0.15050000 0.15050000 9933.44763245 0 66.59405473 0 3015.97948503 0 57.63344370 0 -13.01540710 0 24591
0.15150000 0.15149900 9908.05879164 0 129.92265942 0 3000.54466423 0 125.50258735 0 -450.53178964 0 25020
0.15250000 0.15250500 9732.91675766 0 180.96939853 0 2854.40104895 0 86.86227748 0 -671.16447014 0 25297
0.15350000 0.15350100 9607.38981119 0 190.92784748 0 2889.37852305 0 -268.19495899 0 -298.12013128 0 25452
0.15450000 0.15450400 9559.75666982 0 78.33514797 0 2909.48586492 0 10.35680904 0 -449.97817340 0 26061
0.15550000 0.15549900 9484.68630755 0 3.08923399 0 2902.06740729 0 -1.17052189 0 -467.32186299 0 26128
0.15650000 0.15649500 9416.19290622 0 17.64153513 0 2783.56031476 0 402.85989513 0 -651.73696901 0 26331
0.15750000 0.15749700 9419.13814462 0 236.43953141 0 2701.55867715 0 219.50994676 0 -225.63737132 0 27345
0.15850000 0.15849900 9370.30919217 0 126.43376987 0 2619.31344840 0 150.36106380 0 -75.28461176 0 26980
0.15950000 0.15949700 9156.89013129 0 148.73786099 0 2569.89766273 0 251.72044689 0 308.71745336 0 27777
0.16050000 0.16050000 9135.59805067 0 119.87120295 0 2665.77292334 0 91.44068379 0 379.36774356 0 28224
0.16150000 0.16150500 8933.99316037 0 73.82118258 0 2579.47522370 0 334.33770576 0 543.52603133 0 28075
0.16250000 0.16249700 9042.51301592 0 -28.35555952 0 2687.77363275 0 36.58894026 0 571.93429511 0 28590
0.16350000 0.16349900 9035.69246383 0 65.63696297 0 2747.04378751 0 130.16292887 0 420.74502141 0 29163
0.16450000 0.16449100 8968.17342709 0 137.62678303 0 2624.93818941 0 -173.44132489 0 420.19472687 0 28996
0.16550000 0.16550500 8924.91385402 0 205.87770045 0 2907.72536527 0 68.38157085 0 763.10684097 0 30777
0.16650000 0.16650700 8725.55664566 0 101.69177428 0 2696.10002102 0 40.08735201 0 727.09078280 0 29211
0.16750000 0.16749900 8664.14953221 0 74.53114005 0 2733.52447890 0 95.90404865 0 364.52307768 0 30922
0.16850000 0.16850800 8652.40179558 0 144.27128515 0 2782.28699740 0 17.74639005 0 127.61518693 0 30867
0.16950000 0.16949900 8344.32542983 0 270.61758366 0 2643.47326115 0 -255.65222944 0 214.11661734 0 30852
0.17050000 0.17049200 8221.77693874 0 289.20026640 0 2720.49235259 0 -264.27978493 0 74.45706620 0 31257
0.17150000 0.17149500 8098.48660188 0 109.94718894 0 2804.53129796 0 -192.51672609 0 -178.21238965 0 32608
0.17250000 0.17250900 7996.80944307 0 48.76550803 0 2888.61453264 0 -31.91841220 0 -170.94894457 0 32361
0.17350000 0.17350400 7923.94247344 0 64.04841653 0 2720.89095628 0 271.93961924 0 -191.41613700 0 32508
0.17450000 0.17449800 7978.57332409 0 4.43194160 0 2704.61463880 0 509.51738564 0 -201.11660077 0 32791
0.17550000 0.17549800 7869.44449068 0 -5.54611643 0 2494.92695139 0 465.95664534 0 235.62460830 0 33633
0.17650000 0.17650100 7873.87342061 0 155.85293691 0 2171.05037812 0 465.03542792 0 111.81387218 0 33984
0.17750000 0.17750300 7741.24911393 0 87.82634480 0 2005.09837373 0 172.87995802 0 476.53514447 0 34069
0.17850000 0.17849800 7753.57261145 0 -6.59840804 0 1893.91008790 0 396.30397161 0 488.25741476 0 34536
