### header ###
fiducial parameters:
Omega_m = 0.31
Omega_nu = 0
Omega_de = 0.69
Omega_k = 0
H_0 = 100
w_de = -1
zeff = 0
beta = 0
fgrowth = 0
b_1 = 2
gamma = 0.55
Lx = 3500 Ly = 3500 Lz = 3500
nx = 700 ny = 700 nz = 700
xoffset = -685.467585 yoffset = -31.7331281 zoffset = 572.489161
bins = 400 dk = 0.001
kx_ny = 0.628318531 ky_ny = 0.628318531 kz_ny = 0.628318531
############################
A(data) = 8.0301346 (not used)
A(ran) = 8.0276658 (used)
Ngal = 476881
weighted Ngal = 0
Nran = 23820508
weighted Nran = 0
SN(data) = 3489.51865
SN(ran) = 69.9238805
SN(data+ran) = 3559.44253
############################
13 columns: k_central k_mean P_0(k) sigma^{lin}_{P_0(k)} P^img_1(k) sigma^{lin}_{P_1(k)} P_2(k) sigma^{lin}_{P_2(k)} P^img_3(k) sigma^{lin}_{P_3(k)} P_4(k) sigma^{lin}_{P_4(k)} N_modes
### header ###
0.00050000 0 0 0 0 0 0 0 0 0 0 0 0
0.00150000 0.00179520 6633.76196860 0 -17132.76180813 0 -1424.32172002 0 17579.53011456 0 -14969.45098507 0 3
0.00250000 0.00253879 11498.38787767 0 -18860.48737283 0 -4621.03476306 0 -13112.17921999 0 -9371.59358185 0 6
0.00350000 0.00331552 21770.62650492 0 -18045.67498943 0 -10434.33746260 0 -5640.37513052 0 -24751.29634610 0 7
0.00450000 0.00420575 32078.07512509 0 -21796.64646824 0 -24817.84101826 0 9305.44751339 0 9709.44342904 0 24
0.00550000 0.00557378 55066.10374382 0 -21807.94023956 0 -32461.73118006 0 -20586.77353531 0 -23577.85136182 0 45
0.00650000 0.00659388 72210.60221626 0 -16353.15941765 0 -43165.01541250 0 -33476.06685670 0 1847.51704691 0 40
0.00750000 0.00754703 73183.63812132 0 2650.41560881 0 -27104.16537006 0 -30346.03135371 0 5650.20735496 0 57
0.00850000 0.00846663 73717.76707058 0 13396.40579808 0 -30297.86674075 0 -34035.66215303 0 29969.35086338 0 75
0.00950000 0.00948925 66401.06410717 0 -7224.84695671 0 -42870.15940258 0 6442.35468946 0 15076.18819632 0 112
0.01050000 0.01054430 75960.79863234 0 -10472.47054927 0 -27008.94337662 0 3695.04516615 0 -18763.71525392 0 105
0.01150000 0.01145670 82085.67655227 0 -7652.32727331 0 -1587.83781294 0 -21095.32541423 0 -31558.78309110 0 144
0.01250000 0.01249090 81941.51488313 0 7324.34286753 0 1155.16457600 0 -35119.19985978 0 -16143.56030883 0 169
0.01350000 0.01339930 74762.99453346 0 15995.19115626 0 6992.64923294 0 -36344.02043122 0 8798.36825367 0 180
0.01450000 0.01448870 77397.98639380 0 5282.70582190 0 51187.57908310 0 -31142.35295467 0 -6233.72994522 0 267
0.01550000 0.01550050 76328.28909307 0 2228.18357418 0 73833.91575792 0 -4932.94215320 0 4039.36125104 0 238
0.01650000 0.01653350 82628.44191488 0 1256.50956507 0 70154.13932769 0 18846.31479707 0 -12207.90245205 0 315
0.01750000 0.01747870 76885.00558495 0 643.41279521 0 67070.05397271 0 10546.44475138 0 2454.42438720 0 297
0.01850000 0.01844180 80309.23275836 0 -655.05423753 0 50657.32544753 0 12119.87746974 0 -13190.34983321 0 388
0.01950000 0.01947590 78020.91538809 0 3491.66870388 0 58401.97376518 0 16559.87972202 0 -5193.96113848 0 399
0.02050000 0.02045430 75736.03043852 0 5405.38718089 0 47634.58077204 0 7715.24022293 0 -13739.75859071 0 462
0.02150000 0.02154770 71051.88342399 0 1397.81457441 0 36257.43485114 0 6214.92913768 0 -16214.53391092 0 571
0.02250000 0.02255340 71786.20000596 0 -5230.94270337 0 34560.15817969 0 -478.70532014 0 -4791.92502431 0 510
0.02350000 0.02348930 75740.68081494 0 -3379.52819812 0 36552.18013781 0 9638.27052511 0 -21685.14815732 0 555
0.02450000 0.02439640 76054.91339330 0 1391.33726439 0 32270.84430019 0 6546.85529109 0 -20463.31711358 0 592
0.02550000 0.02547300 72030.89838446 0 7161.81221152 0 30412.02240963 0 -2590.20430645 0 -22446.03831886 0 837
0.02650000 0.02652900 65842.57604331 0 9950.65402522 0 30844.28597055 0 4480.82591388 0 -4398.44781723 0 723
0.02750000 0.02749970 57058.90076468 0 4928.16998121 0 24664.60004277 0 7073.00109415 0 729.81568193 0 826
0.02850000 0.02848090 57474.77728487 0 -1607.84550389 0 17062.00965254 0 16582.68871114 0 105.87423426 0 831
0.02950000 0.02946900 56419.91689940 0 -5551.78545964 0 11108.75276730 0 13313.91697818 0 -9833.35381609 0 996
0.03050000 0.03053250 58196.47141655 0 -146.93196481 0 6368.76801871 0 5697.94014725 0 -10617.00867745 0 1041
0.03150000 0.03150510 57390.73833950 0 1387.99342229 0 56.58921275 0 -1012.49656348 0 -11885.03346033 0 1036
0.03250000 0.03246190 54191.72225289 0 1825.22845705 0 899.35401232 0 -4068.08286162 0 -5423.19147920 0 1059
0.03350000 0.03345080 56012.67679257 0 86.49113315 0 398.56494033 0 -6247.79179774 0 -14772.91721953 0 1302
0.03450000 0.03451200 55880.14106449 0 2281.47467353 0 5627.83018650 0 -7941.58068687 0 -17374.47065892 0 1339
0.03550000 0.03553350 52357.37020019 0 3141.89396286 0 7103.27283021 0 -6233.23169061 0 -15648.95955919 0 1365
0.03650000 0.03647120 50265.36514895 0 1505.60365651 0 6120.88081067 0 -4479.40865631 0 -15506.90163176 0 1308
0.03750000 0.03744890 51304.94572618 0 672.45107428 0 12481.38887507 0 -942.53165019 0 -20126.27554610 0 1579
0.03850000 0.03847530 48630.31494298 0 2777.82485050 0 9046.79800562 0 -766.37871295 0 -22619.87381851 0 1662
0.03950000 0.03950240 48700.73492883 0 1990.70435147 0 10973.31609012 0 -2479.33711804 0 -19944.80014232 0 1683
0.04050000 0.04050350 46290.40053906 0 -270.29759347 0 11522.08265278 0 -1958.40637997 0 -17776.94966608 0 1822
0.04150000 0.04152450 46943.66770336 0 1495.20674351 0 16245.97931341 0 430.25171950 0 -15972.04999739 0 1887
0.04250000 0.04250150 47128.24335809 0 2041.33809286 0 16666.39548677 0 -1000.18192382 0 -16180.09898074 0 1920
0.04350000 0.04349210 42933.93599353 0 2342.84857000 0 15062.34779029 0 1478.63147326 0 -11100.66997018 0 2005
0.04450000 0.04448520 42722.01169651 0 2130.52566928 0 16114.99371080 0 1395.11292715 0 -9499.63394606 0 2151
0.04550000 0.04548030 40789.11595291 0 1157.82193396 0 17769.42048520 0 1846.81949045 0 -10445.44300439 0 2274
0.04650000 0.04648670 39213.96702421 0 1018.81221756 0 14316.84816025 0 2982.37497920 0 -2165.70244523 0 2311
0.04750000 0.04749250 39009.01829182 0 -118.01105238 0 14051.55525760 0 1580.25327044 0 -2593.66994412 0 2568
0.04850000 0.04851840 38844.48354502 0 -120.68834052 0 13259.99475631 0 4083.31838057 0 -1430.36720937 0 2493
0.04950000 0.04949480 39200.90168093 0 1157.67799374 0 15510.22332921 0 1455.60103763 0 -307.28801623 0 2644
0.05050000 0.05050630 38020.92402501 0 1814.15613224 0 12717.45084020 0 -660.42320783 0 1899.82270936 0 2829
0.05150000 0.05149060 38510.76367498 0 144.92123062 0 14910.98911002 0 1020.63361499 0 2211.57508695 0 2784
0.05250000 0.05249300 37110.33603192 0 -347.24803650 0 11738.98949598 0 2167.16399210 0 268.78179221 0 3055
0.05350000 0.05348950 39208.76303155 0 -1456.53111292 0 13627.92811004 0 350.93401343 0 787.33419490 0 3009
0.05450000 0.05448610 37917.72995770 0 -286.01254409 0 10697.05051357 0 1256.04452743 0 -5055.32455942 0 3336
0.05550000 0.05550870 38910.47460094 0 635.06536953 0 10342.76933635 0 -194.28497636 0 -3477.39647719 0 3349
0.05650000 0.05647670 37810.66057670 0 1606.35074004 0 8507.35434046 0 -674.18610758 0 -6021.45133380 0 3324
0.05750000 0.05747970 37219.50915463 0 280.17964337 0 10252.34165955 0 1538.59918447 0 -3289.66520989 0 3639
0.05850000 0.05849280 35717.88046273 0 1398.92180689 0 8392.95508043 0 1625.28441548 0 -1629.21509079 0 3846
0.05950000 0.05951020 34716.94229912 0 1238.10736122 0 10028.75820449 0 3534.11999724 0 -1259.70946694 0 3787
0.06050000 0.06049470 35230.03383122 0 93.61240958 0 10766.76187063 0 252.01275627 0 -1093.97115843 0 3930
0.06150000 0.06148310 33741.13831285 0 960.44556451 0 10605.19450687 0 1063.86550725 0 830.03018663 0 4083
0.06250000 0.06249100 33264.47472941 0 1266.27535556 0 11176.95828818 0 309.10609196 0 4383.83234847 0 4303
0.06350000 0.06350600 32202.52805605 0 -119.04631475 0 9916.09729946 0 1930.14980704 0 6351.12980527 0 4470
0.06450000 0.06451750 32874.95034229 0 -584.29100961 0 8471.71252687 0 3362.33287768 0 5608.15466529 0 4479
0.06550000 0.06550280 32945.92394438 0 701.75619638 0 7861.47241681 0 2414.02147394 0 1746.50422759 0 4636
0.06650000 0.06648880 31038.60527112 0 1786.67462204 0 5696.92149337 0 830.27931394 0 2494.35119050 0 4653
0.06750000 0.06749660 30111.18734431 0 1701.70560138 0 6555.22596866 0 -1784.50444637 0 1016.09285458 0 5220
0.06850000 0.06852730 28789.48393071 0 950.52365424 0 6996.67955918 0 -1959.48039548 0 1198.34664280 0 5029
0.06950000 0.06949320 27882.54980481 0 549.85054326 0 8789.49932149 0 -2377.44958506 0 385.73322310 0 5040
0.07050000 0.07048030 27865.38770134 0 648.45513193 0 8865.99801366 0 -98.60148842 0 109.09805235 0 5475
0.07150000 0.07148790 27179.12500908 0 512.97305822 0 9690.60940453 0 -34.32808225 0 718.74003542 0 5509
0.07250000 0.07249820 27191.85818262 0 353.79178047 0 9346.58120009 0 1043.43485349 0 198.52678400 0 5916
0.07350000 0.07351270 26766.90235608 0 211.28210219 0 10374.51369160 0 105.36081055 0 1516.02271417 0 5721
0.07450000 0.07449140 26725.27041477 0 -91.67132032 0 9710.39564898 0 924.28113719 0 489.42443780 0 6028
0.07550000 0.07549160 26699.80406768 0 128.43343173 0 9343.75775726 0 241.85721994 0 1124.29493441 0 6183
0.07650000 0.07648840 27012.48652056 0 448.24424733 0 9203.22781066 0 662.09402165 0 502.47427983 0 6330
0.07750000 0.07749960 26672.89831837 0 246.13667349 0 8981.50450617 0 -564.07183726 0 -883.98673271 0 6583
0.07850000 0.07848650 25365.36748054 0 1427.11194588 0 8800.61593560 0 -100.23930671 0 -65.63408417 0 6549
0.07950000 0.07947320 25192.63921337 0 1268.11336148 0 8964.19846248 0 -115.88295155 0 -740.45618608 0 6828
0.08050000 0.08048110 23503.33461579 0 567.32710076 0 8790.93872371 0 1503.27846830 0 -981.66235333 0 7147
0.08150000 0.08149960 23028.22115782 0 73.79981300 0 7756.72822403 0 2090.66529993 0 598.97955571 0 7386
0.08250000 0.08250610 23557.25683766 0 -267.45864939 0 7477.05237143 0 2145.55081406 0 -1350.58003673 0 7227
0.08350000 0.08350160 23154.55638400 0 285.08468327 0 6267.75519939 0 879.14148337 0 -709.43706811 0 7798
0.08450000 0.08449610 22758.38860199 0 440.30206874 0 6423.22171217 0 -1772.23631047 0 -1167.54343515 0 7371
0.08550000 0.08548940 22258.80530617 0 799.21147773 0 7121.20999641 0 -1024.29966174 0 1167.56557980 0 8256
0.08650000 0.08650700 22128.15187331 0 502.59828987 0 7508.60849717 0 -1136.39698544 0 -198.56996607 0 8037
0.08750000 0.08749060 21602.10572118 0 323.45582493 0 8479.36350332 0 -1029.49811824 0 541.98697818 0 8155
0.08850000 0.08849210 21801.85046091 0 462.11787033 0 9033.47799887 0 -597.33642271 0 91.64098215 0 8718
0.08950000 0.08949900 21453.18295237 0 511.34321201 0 9339.14059781 0 396.60624607 0 797.25721240 0 8571
0.09050000 0.09049190 21353.53202900 0 -102.57224555 0 9355.12903485 0 841.63509028 0 1401.59023717 0 8932
0.09150000 0.09150830 21150.79776157 0 60.52509205 0 8856.34294642 0 2125.49883381 0 707.71199990 0 9285
0.09250000 0.09250820 21213.46712004 0 17.72690276 0 8557.11336819 0 1470.06149385 0 1093.64341761 0 9204
0.09350000 0.09350330 20950.94229859 0 63.11668040 0 7406.96455533 0 1457.43904355 0 1233.89987779 0 9349
0.09450000 0.09448040 20478.48619858 0 385.24161188 0 7358.81101469 0 250.90109486 0 708.16153629 0 9564
0.09550000 0.09549270 20253.60728152 0 1071.05255329 0 6492.72269506 0 -531.70853905 0 -164.92670710 0 10155
0.09650000 0.09649430 18983.39017832 0 908.86513934 0 7099.57467372 0 -423.73787081 0 -37.79073039 0 9913
0.09750000 0.09749140 18356.03225410 0 593.85085486 0 7229.18730804 0 -493.86333282 0 588.71329614 0 10476
0.09850000 0.09850240 18249.29504284 0 207.48650924 0 6885.32518848 0 640.29482854 0 832.01877617 0 10575
0.09950000 0.09950330 17918.89687026 0 20.93378020 0 7247.46771632 0 1379.13556244 0 92.69429241 0 10882
0.10050000 0.10051200 17906.71731296 0 75.40197840 0 6599.99137790 0 629.76394041 0 165.76377486 0 10875
0.10150000 0.10150300 17715.94115633 0 401.96303682 0 6502.36668997 0 842.25292600 0 335.33310776 0 11118
0.10250000 0.10250800 17505.67770802 0 206.23201484 0 6179.49769826 0 107.18220799 0 898.02311888 0 11575
0.10350000 0.10349800 16971.65948202 0 419.07199313 0 5790.71515690 0 183.97774919 0 945.47578136 0 11364
0.10450000 0.10450100 16780.21898591 0 497.99663167 0 5243.31049019 0 872.76271704 0 224.72722622 0 12093
0.10550000 0.10551000 16164.59772599 0 415.00291376 0 5087.98791764 0 280.29147385 0 -193.36265170 0 12067
0.10650000 0.10649700 15809.72971555 0 344.22418459 0 4200.48572180 0 363.66165081 0 -448.07484076 0 12054
0.10750000 0.10749900 15617.29271020 0 165.51354032 0 4491.83180475 0 281.10196803 0 -387.06854548 0 12807
0.10850000 0.10850100 15163.54883914 0 433.37190063 0 4433.66888248 0 193.33497089 0 -740.41078955 0 12736
0.10950000 0.10950300 15214.14936356 0 118.09741652 0 4996.98447995 0 -124.92129030 0 135.80206390 0 12933
0.11050000 0.11050200 14931.91580393 0 91.19044925 0 4570.78855304 0 -159.24549724 0 761.78701985 0 13428
0.11150000 0.11150900 15205.95584319 0 -77.17200024 0 5399.04273877 0 648.97553120 0 631.87543275 0 13453
0.11250000 0.11250000 15363.40430211 0 -245.63620440 0 4958.56351283 0 70.79943442 0 1504.17532661 0 13668
0.11350000 0.11349100 15381.78436131 0 139.44042984 0 4965.15154610 0 280.76536936 0 480.32520126 0 13791
0.11450000 0.11448600 15140.85057326 0 425.20938278 0 5185.91155833 0 -191.49253604 0 1056.60538386 0 14205
0.11550000 0.11549300 14919.51480013 0 528.94710124 0 5474.82172983 0 -471.81833410 0 1292.98180302 0 14776
0.11650000 0.11649800 14560.99292251 0 284.24650828 0 5592.88592937 0 -3.65840684 0 1081.23355596 0 14553
0.11750000 0.11747300 14390.81129004 0 30.78039866 0 5328.15771528 0 348.42945356 0 950.30885114 0 14568
0.11850000 0.11849100 14327.92048507 0 187.05142656 0 5653.35189520 0 183.51049708 0 694.26023248 0 16015
0.11950000 0.11950300 14120.09294823 0 367.98317919 0 5210.91286778 0 300.82510023 0 727.60564590 0 15270
0.12050000 0.12050700 13775.19003013 0 191.81252623 0 5233.06858974 0 512.86012051 0 1636.00242590 0 15999
0.12150000 0.12150000 13773.52918140 0 -88.28064229 0 4273.61842723 0 526.30745900 0 1043.73823519 0 15670
0.12250000 0.12250700 13812.17159502 0 -53.49870544 0 4806.99445839 0 284.20332621 0 573.16775210 0 16887
0.12350000 0.12352200 13764.67132155 0 203.58683644 0 4193.16691510 0 34.74063707 0 231.82237196 0 16407
0.12450000 0.12449800 13430.84072827 0 407.24010683 0 4431.12224777 0 -1.53196686 0 1246.20123066 0 16306
0.12550000 0.12549900 13256.78378212 0 93.73453732 0 4386.57828503 0 536.49510507 0 1310.06640022 0 17523
0.12650000 0.12650100 13206.40470419 0 95.37025187 0 3669.14699840 0 875.05690274 0 1185.93456668 0 17154
0.12750000 0.12750600 13192.67502142 0 18.48978594 0 3799.08073015 0 770.44114893 0 870.64790300 0 18007
0.12850000 0.12850300 12996.03053264 0 144.56248730 0 3323.69046406 0 224.31644297 0 1423.84561005 0 17496
0.12950000 0.12949900 12764.72966718 0 317.25200133 0 3383.83533248 0 245.93072824 0 1324.80366455 0 18405
0.13050000 0.13049000 12734.17005068 0 4.41648463 0 2699.80924983 0 -369.16127455 0 1398.54534784 0 18100
0.13150000 0.13148800 12730.07329049 0 -5.38612134 0 3372.29797002 0 -351.86076702 0 277.14029021 0 19059
0.13250000 0.13249300 12570.07819686 0 414.86893863 0 3288.77942391 0 -567.90729058 0 -311.85977914 0 18957
0.13350000 0.13349100 12426.24869747 0 373.67767584 0 3521.14323255 0 -707.99545141 0 -6.81112954 0 19468
0.13450000 0.13450700 12066.61958736 0 179.18453977 0 3425.65550332 0 -145.48924088 0 -172.76037691 0 19953
0.13550000 0.13551000 12017.56918841 0 -1.02333858 0 3493.87209652 0 636.75611353 0 -373.53041392 0 19956
0.13650000 0.13649900 12039.04949856 0 -7.68160250 0 3280.46410797 0 612.42467974 0 -1163.49096427 0 19723
0.13750000 0.13749600 11851.59503938 0 363.02609936 0 3314.48936214 0 96.04234199 0 -589.58579534 0 20946
0.13850000 0.13851100 11681.41340692 0 337.13457501 0 3233.14099169 0 -34.29851914 0 -400.15271171 0 20955
0.13950000 0.13949800 11462.07065226 0 152.30757851 0 3377.33587781 0 -346.96458498 0 126.98738611 0 20506
0.14050000 0.14048300 11397.29755207 0 53.32697368 0 3524.50921930 0 194.68247282 0 -32.84693736 0 21447
0.14150000 0.14148400 11349.46510886 0 59.96771122 0 3457.74310064 0 281.84602826 0 -250.68961345 0 21771
0.14250000 0.14249400 11277.60572078 0 123.13975324 0 3175.06664802 0 217.94653450 0 20.61733315 0 22470
0.14350000 0.14350900 11202.97825151 0 112.55793241 0 3131.03201222 0 211.79253636 0 225.28859308 0 22519
0.14450000 0.14449900 11022.48828464 0 190.54142334 0 3077.16515197 0 239.01384693 0 3.95250994 0 22218
0.14550000 0.14550500 10811.04009758 0 256.82921756 0 3149.46743304 0 124.25030742 0 486.94645150 0 23559
0.14650000 0.14650700 10658.91742689 0 394.73059425 0 3122.04128446 0 65.08223950 0 574.49643108 0 23044
0.14750000 0.14750500 10296.78597137 0 154.57629786 0 3037.72553097 0 337.14786180 0 699.79860935 0 23649
0.14850000 0.14849900 10218.30533306 0 29.66198313 0 2977.43672233 0 307.68329822 0 716.30301673 0 23640
0.14950000 0.14949500 10365.86620592 0 -144.93341018 0 2697.98231623 0 519.54780470 0 297.76803135 0 24457
0.15050000 0.15050000 10403.47889333 0 -118.22806995 0 2453.95934956 0 239.51099431 0 81.65474167 0 24591
0.15150000 0.15149900 10236.43072879 0 194.22629304 0 2450.82588163 0 -36.04672851 0 354.98094815 0 25020
0.15250000 0.15250500 10273.06905161 0 324.28957099 0 2263.06139736 0 -51.47357723 0 177.10183547 0 25297
0.15350000 0.15350100 9887.90716047 0 248.05993631 0 2181.63552064 0 -52.68854344 0 618.25315153 0 25452
0.15450000 0.15450400 9780.78241785 0 155.31703639 0 2402.56161775 0 121.14009138 0 480.76366532 0 26061
0.15550000 0.15549900 9549.44833541 0 377.67257063 0 2461.86498948 0 99.55392980 0 628.71649848 0 26128
0.15650000 0.15649500 9306.62117982 0 249.12287949 0 2483.32315498 0 88.06273894 0 428.89978864 0 26331
0.15750000 0.15749700 9142.56254298 0 130.07324304 0 2405.20790338 0 -143.49511518 0 842.14220275 0 27345
0.15850000 0.15849900 8904.75115052 0 196.59577055 0 2657.29152253 0 -132.76492520 0 604.70616211 0 26980
0.15950000 0.15949700 9008.37703850 0 137.40312207 0 2820.84083242 0 -102.92733500 0 221.08000242 0 27777
0.16050000 0.16050000 8814.20167816 0 39.77079424 0 2788.35463140 0 -107.36523352 0 299.56617690 0 28224
0.16150000 0.16150500 8851.70364232 0 0.28138653 0 2646.39635490 0 225.62629899 0 252.04265154 0 28075
0.16250000 0.16249700 8830.07939195 0 -4.54434784 0 2541.45286027 0 286.79646469 0 284.54435382 0 28590
0.16350000 0.16349900 8899.77967668 0 65.29936779 0 2427.77330136 0 407.10502447 0 -71.25760722 0 29163
0.16450000 0.16449100 8713.64282415 0 203.19044721 0 2569.94195203 0 20.77898909 0 347.25357266 0 28996
0.16550000 0.16550500 8519.88821215 0 308.19705409 0 2499.21194109 0 -209.70983207 0 669.66749182 0 30777
0.16650000 0.16650700 8450.91870086 0 90.27288569 0 2601.39842684 0 -14.87843648 0 1055.80706924 0 29211
0.16750000 0.16749900 8372.74808764 0 51.28191529 0 2795.04231559 0 34.22843133 0 1171.55161674 0 30922
0.16850000 0.16850800 8411.32406731 0 -38.03454298 0 2576.55212995 0 416.26183709 0 1110.52096234 0 30867
0.16950000 0.16949900 8522.78916126 0 -44.91654648 0 2511.54651094 0 531.38854886 0 849.72010186 0 30852
0.17050000 0.17049200 8464.60409433 0 -6.32921767 0 2297.93922054 0 244.55333104 0 584.74276046 0 31257
0.17150000 0.17149500 8424.66621871 0 45.55829842 0 2020.26745874 0 239.22532833 0 567.50536518 0 32608
0.17250000 0.17250900 8319.53449456 0 117.05661798 0 1720.46211962 0 66.41014341 0 394.58665403 0 32361
0.17350000 0.17350400 8280.78135769 0 129.06898318 0 1529.17663605 0 123.38998778 0 526.57873096 0 32508
0.17450000 0.17449800 8123.93080431 0 60.81895155 0 1530.17314529 0 212.05052153 0 322.25337045 0 32791
0.17550000 0.17549800 8060.33137055 0 150.57475967 0 1329.05543728 0 108.00144930 0 226.67484815 0 33633
0.17650000 0.17650100 7883.48419855 0 189.98005647 0 1341.81075547 0 -82.11047856 0 131.25355287 0 33984
0.17750000 0.17750300 7909.55952350 0 42.96017740 0 1380.71890489 0 -20.88284750 0 354.25128195 0 34069
0.17850000 0.17849800 7777.90958141 0 18.96545301 0 1519.64336438 0 -64.00678459 0 420.51139536 0 34536
