### header ###
fiducial parameters:
Omega_m = 0.31
Omega_nu = 0
Omega_de = 0.69
Omega_k = 0
H_0 = 100
w_de = -1
zeff = 0
beta = 0
fgrowth = 0
b_1 = 2
gamma = 0.55
Lx = 3500 Ly = 3500 Lz = 3500
nx = 700 ny = 700 nz = 700
xoffset = -685.467585 yoffset = -31.7331281 zoffset = 572.489161
bins = 400 dk = 0.001
kx_ny = 0.628318531 ky_ny = 0.628318531 kz_ny = 0.628318531
############################
A(data) = 7.99663208 (not used)
A(ran) = 7.99026 (used)
Ngal = 474585
weighted Ngal = 0
Nran = 23820508
weighted Nran = 0
SN(data) = 3492.2557
SN(ran) = 69.5980624
SN(data+ran) = 3561.85376
############################
13 columns: k_central k_mean P_0(k) sigma^{lin}_{P_0(k)} P^img_1(k) sigma^{lin}_{P_1(k)} P_2(k) sigma^{lin}_{P_2(k)} P^img_3(k) sigma^{lin}_{P_3(k)} P_4(k) sigma^{lin}_{P_4(k)} N_modes
### header ###
0.00050000 0 0 0 0 0 0 0 0 0 0 0 0
0.00150000 0.00179520 21533.67875380 0 -34346.57303394 0 -20397.87967390 0 -31635.95719508 0 -7000.96454888 0 3
0.00250000 0.00253879 42484.28888265 0 -40938.70306121 0 -35836.68650803 0 -3580.91164192 0 2216.31404197 0 6
0.00350000 0.00331552 55546.97481070 0 -25904.14680622 0 -23431.91812071 0 -28622.84544219 0 -3978.19772874 0 7
0.00450000 0.00420575 65624.56196763 0 -7072.09316352 0 -36457.17959087 0 -11218.14733651 0 19882.68440009 0 24
0.00550000 0.00557378 50761.40530083 0 3791.28581348 0 -36969.71750672 0 5271.95459450 0 9554.78519598 0 45
0.00650000 0.00659388 39524.87790512 0 -3240.95805302 0 -65968.24693001 0 14968.01158284 0 18969.10687930 0 40
0.00750000 0.00754703 47389.21805406 0 -15535.91112279 0 -49836.97690172 0 3272.44774480 0 -246.18982065 0 57
0.00850000 0.00846663 54420.47648365 0 -16202.02218388 0 -66779.18399972 0 -9947.54270194 0 28549.32520539 0 75
0.00950000 0.00948925 63797.62837256 0 -8903.48890549 0 -41088.06872302 0 -26522.75759383 0 29875.12537918 0 112
0.01050000 0.01054430 73702.04436933 0 -2813.88741244 0 -37742.23360932 0 -33998.34841839 0 35756.85504609 0 105
0.01150000 0.01145670 74619.82937355 0 2728.77445156 0 -18979.18269489 0 -25096.30998745 0 23339.24276198 0 144
0.01250000 0.01249090 70760.01694177 0 5227.24454688 0 -1995.03363047 0 -27466.56256137 0 19355.19884573 0 169
0.01350000 0.01339930 71923.49683371 0 -4642.22719276 0 5333.52779282 0 -158.69077377 0 31485.81647054 0 180
0.01450000 0.01448870 79365.20634433 0 -5344.51153904 0 17641.53513355 0 -3708.42053453 0 2640.45051648 0 267
0.01550000 0.01550050 86486.81494443 0 404.33583603 0 21500.68322584 0 -1421.77508531 0 11935.85543125 0 238
0.01650000 0.01653350 84332.69415096 0 6436.82959937 0 23606.30723660 0 -466.93100993 0 -6247.64785752 0 315
0.01750000 0.01747870 91099.87763362 0 4992.58876700 0 30517.54166515 0 -11443.35842332 0 5486.28158602 0 297
0.01850000 0.01844180 85261.66220325 0 -3400.73170015 0 40293.18652429 0 -2403.38096979 0 -2095.48176123 0 388
0.01950000 0.01947590 87019.28304496 0 181.33367802 0 49069.66479179 0 4827.26788513 0 1034.84162220 0 399
0.02050000 0.02045430 88118.54345296 0 7048.36517143 0 49472.25452219 0 19863.75072465 0 5565.80302286 0 462
0.02150000 0.02154770 80443.31861192 0 4407.52712358 0 45992.22283169 0 16435.09462131 0 14773.80300552 0 571
0.02250000 0.02255340 78438.12058726 0 2547.68657915 0 31587.90330537 0 20099.70196654 0 1785.99921022 0 510
0.02350000 0.02348930 73310.19479400 0 6055.50980494 0 39972.97489053 0 13168.20518357 0 16731.72220320 0 555
0.02450000 0.02439640 70897.09232303 0 5713.85107801 0 35138.02281197 0 3193.78994929 0 9577.33952163 0 592
0.02550000 0.02547300 66817.93713659 0 1669.50728081 0 35228.26225925 0 1439.29150318 0 19661.45935021 0 837
0.02650000 0.02652900 69111.01560653 0 -1092.38117259 0 32457.30225013 0 108.45054279 0 16720.98204813 0 723
0.02750000 0.02749970 67106.26047487 0 865.15824435 0 34617.62354550 0 1374.77306646 0 11725.25981320 0 826
0.02850000 0.02848090 68763.45533047 0 457.32798261 0 30736.44152682 0 -987.14426135 0 14421.48162979 0 831
0.02950000 0.02946900 66953.01949938 0 3977.42266600 0 23370.68816446 0 13427.40830757 0 6379.08742544 0 996
0.03050000 0.03053250 61566.22275186 0 352.08221351 0 19110.94336023 0 5625.54928758 0 467.59092049 0 1041
0.03150000 0.03150510 61185.55622459 0 834.27753044 0 14499.76296626 0 4393.35454782 0 -11689.49620404 0 1036
0.03250000 0.03246190 56611.46811876 0 2395.57498079 0 15158.67701622 0 -5189.44362995 0 -9101.25169908 0 1059
0.03350000 0.03345080 55781.70809685 0 2981.75492901 0 8032.15230389 0 -7260.62163820 0 -7223.44077146 0 1302
0.03450000 0.03451200 53380.23156693 0 324.28292759 0 14542.61286331 0 -3345.51401628 0 -14835.69730126 0 1339
0.03550000 0.03553350 53589.60922926 0 769.35273940 0 15554.06973549 0 -2187.28240630 0 -8468.59013127 0 1365
0.03650000 0.03647120 54307.76021699 0 2402.83842587 0 20415.37394712 0 -1731.03618982 0 -13733.22591906 0 1308
0.03750000 0.03744890 51573.11743328 0 2670.14649164 0 22073.01169572 0 1474.44613448 0 -6097.16389091 0 1579
0.03850000 0.03847530 49549.98224242 0 3357.52748871 0 20331.00283200 0 3493.24097401 0 -5050.66311068 0 1662
0.03950000 0.03950240 47012.98045672 0 2919.90492257 0 20372.74549656 0 3139.62413628 0 -3839.89331943 0 1683
0.04050000 0.04050350 45478.79912985 0 1950.41216145 0 18164.37031149 0 1640.95175510 0 -1830.22207555 0 1822
0.04150000 0.04152450 42849.12198542 0 2490.38729821 0 17359.41229717 0 -359.06442154 0 -504.13402132 0 1887
0.04250000 0.04250150 40872.82272854 0 2687.89542832 0 16853.84994595 0 -2202.63972082 0 -5810.20244858 0 1920
0.04350000 0.04349210 39331.33366729 0 -634.17626185 0 16164.81917249 0 685.54742008 0 -7006.72215779 0 2005
0.04450000 0.04448520 40726.44659444 0 -420.45049757 0 17147.48800014 0 883.81289721 0 -7036.62850712 0 2151
0.04550000 0.04548030 40946.56441184 0 2.77788021 0 18107.45856192 0 613.07683967 0 -10246.28509788 0 2274
0.04650000 0.04648670 41368.86288042 0 520.15235363 0 17441.90111707 0 515.47208193 0 -5618.13082996 0 2311
0.04750000 0.04749250 39866.79129552 0 1248.82537165 0 13223.56680766 0 3494.02710907 0 -2407.74346576 0 2568
0.04850000 0.04851840 39684.31938251 0 -459.08848226 0 13873.40155127 0 5821.96125754 0 -3856.43537271 0 2493
0.04950000 0.04949480 39466.08386033 0 -176.11750580 0 12445.40381941 0 4152.39861511 0 -2513.69454195 0 2644
0.05050000 0.05050630 39345.61696631 0 854.03055791 0 10995.59360765 0 3419.24462725 0 -1259.17799535 0 2829
0.05150000 0.05149060 38259.31117835 0 994.78195101 0 8551.82079693 0 419.45177387 0 -1234.37598776 0 2784
0.05250000 0.05249300 38301.16456616 0 208.82626054 0 8070.89436843 0 175.99128129 0 -1832.27045564 0 3055
0.05350000 0.05348950 38753.46903501 0 554.84526899 0 12299.35985505 0 -869.00477000 0 2658.62020150 0 3009
0.05450000 0.05448610 37342.30123687 0 374.59778603 0 10429.35491643 0 1177.91820351 0 1487.11287407 0 3336
0.05550000 0.05550870 38342.02144475 0 38.86485662 0 11931.42650133 0 1032.32266830 0 3830.03895034 0 3349
0.05650000 0.05647670 37841.33091645 0 -220.58617673 0 10524.47725894 0 2554.86144563 0 4531.36000436 0 3324
0.05750000 0.05747970 37586.88889211 0 638.34388491 0 12064.62656889 0 2707.40486466 0 3469.02579963 0 3639
0.05850000 0.05849280 36974.70005289 0 74.09256527 0 8086.67243130 0 902.91819368 0 5428.97123275 0 3846
0.05950000 0.05951020 35984.28059786 0 1353.12667144 0 8961.99506984 0 1154.35629629 0 3081.71587747 0 3787
0.06050000 0.06049470 35725.63109010 0 1073.56929272 0 7322.62665719 0 -262.88688647 0 3715.56218404 0 3930
0.06150000 0.06148310 34468.92222318 0 1149.26302688 0 7021.48156677 0 -1230.32351687 0 3414.30637038 0 4083
0.06250000 0.06249100 33388.81693712 0 1374.79521111 0 7735.31434783 0 1051.33163555 0 3177.12610044 0 4303
0.06350000 0.06350600 32556.95317350 0 87.43139497 0 8027.77873559 0 1176.08019759 0 679.73998571 0 4470
0.06450000 0.06451750 30666.13226422 0 1115.01632621 0 8000.44116561 0 -349.07275563 0 1586.86344836 0 4479
0.06550000 0.06550280 32051.28009903 0 904.45060344 0 8440.00138859 0 133.65514012 0 593.05807640 0 4636
0.06650000 0.06648880 30743.97070769 0 -199.19333795 0 10567.32715599 0 -736.35831867 0 4835.29532063 0 4653
0.06750000 0.06749660 30906.95532902 0 125.31989399 0 9017.03559651 0 48.74734942 0 2214.59783163 0 5220
0.06850000 0.06852730 31257.28368629 0 -413.06525692 0 10129.17311827 0 687.57697722 0 3053.61431708 0 5029
0.06950000 0.06949320 31856.96079846 0 1127.76057208 0 9012.55130496 0 -1453.53051289 0 -348.98306980 0 5040
0.07050000 0.07048030 30374.59795174 0 1645.10387690 0 10931.99417389 0 -1564.57485850 0 1455.97749668 0 5475
0.07150000 0.07148790 28788.26597498 0 1869.31845448 0 11251.03214122 0 -933.92402487 0 90.31130666 0 5509
0.07250000 0.07249820 27491.14312247 0 1382.24688571 0 11697.24683141 0 69.83270974 0 369.85883101 0 5916
0.07350000 0.07351270 26285.25622647 0 490.39769515 0 11866.09978490 0 1011.79125639 0 -292.99475212 0 5721
0.07450000 0.07449140 26844.63007631 0 262.72523053 0 12258.39225322 0 2282.44903812 0 434.81130286 0 6028
0.07550000 0.07549160 25330.71110386 0 969.87364909 0 11732.34610109 0 611.62304342 0 584.05295463 0 6183
0.07650000 0.07648840 25654.35515831 0 640.10659902 0 12568.19590165 0 677.38379499 0 1698.54998880 0 6330
0.07750000 0.07749960 24834.56022873 0 805.22817904 0 12099.50439207 0 464.86491412 0 1071.33379034 0 6583
0.07850000 0.07848650 24507.15158385 0 570.94996544 0 11963.86841304 0 -914.84308751 0 1755.52817232 0 6549
0.07950000 0.07947320 24102.90100472 0 665.63052219 0 12855.52273069 0 -749.78129805 0 679.19744179 0 6828
0.08050000 0.08048110 23849.45548962 0 186.77461844 0 12098.39715959 0 293.46089699 0 2133.02801469 0 7147
0.08150000 0.08149960 23788.11481012 0 -384.76107298 0 11734.00694981 0 1763.87670523 0 361.01757964 0 7386
0.08250000 0.08250610 23920.31836846 0 188.96472428 0 11349.68655535 0 1645.30317875 0 -826.84578602 0 7227
0.08350000 0.08350160 23552.93863098 0 501.81990543 0 10727.57691309 0 882.37792391 0 -2073.38140089 0 7798
0.08450000 0.08449610 22340.18689359 0 395.30192621 0 10778.21065449 0 985.88201632 0 -1336.13065284 0 7371
0.08550000 0.08548940 22814.63601207 0 249.78057558 0 10501.55754657 0 -98.94794147 0 233.40349994 0 8256
0.08650000 0.08650700 22236.66065654 0 454.71159226 0 10724.13342007 0 434.15471400 0 147.50108230 0 8037
0.08750000 0.08749060 21951.43756921 0 736.78681764 0 10309.26448144 0 786.01769548 0 1679.05162480 0 8155
0.08850000 0.08849210 22011.33884648 0 -192.94854675 0 10322.18588451 0 1361.50842132 0 918.10610164 0 8718
0.08950000 0.08949900 21045.72139904 0 304.78567082 0 9578.60176666 0 754.63761971 0 -224.11160496 0 8571
0.09050000 0.09049190 21220.44268468 0 883.16184451 0 9467.98924172 0 491.62229427 0 -401.22561999 0 8932
0.09150000 0.09150830 20068.14584080 0 726.48401940 0 7782.93641687 0 710.14348243 0 -795.76355579 0 9285
0.09250000 0.09250820 19766.86788249 0 108.69579479 0 7374.60014989 0 1152.66223060 0 255.31784523 0 9204
0.09350000 0.09350330 18994.68394964 0 278.76127856 0 6512.80789228 0 1471.85521047 0 -939.46572344 0 9349
0.09450000 0.09448040 19253.66562714 0 454.99836547 0 6071.81933940 0 997.59099981 0 -460.71500677 0 9564
0.09550000 0.09549270 18440.73553896 0 172.48356879 0 5688.14113978 0 853.67956522 0 51.29409485 0 10155
0.09650000 0.09649430 18636.60496500 0 112.49924909 0 5290.02462860 0 352.37230842 0 483.16968151 0 9913
0.09750000 0.09749140 18729.72321673 0 -68.71285481 0 6364.69340318 0 -272.28175408 0 431.41431361 0 10476
0.09850000 0.09850240 18864.80557951 0 57.45473638 0 6844.80047964 0 -381.53349030 0 703.59641676 0 10575
0.09950000 0.09950330 19147.92492513 0 297.05718809 0 7263.50044266 0 -931.90443283 0 1003.30099772 0 10882
0.10050000 0.10051200 18403.20035782 0 684.52765896 0 7929.10217680 0 -280.59042662 0 1037.66174333 0 10875
0.10150000 0.10150300 17714.39103086 0 579.92519193 0 7266.15780061 0 465.62447560 0 330.63954927 0 11118
0.10250000 0.10250800 17505.23481503 0 547.95939018 0 7272.50224273 0 740.99097937 0 136.67124140 0 11575
0.10350000 0.10349800 16588.88921304 0 455.98380238 0 6543.43394273 0 344.45891788 0 -527.24639214 0 11364
0.10450000 0.10450100 16639.48973746 0 90.02674791 0 6762.25629812 0 3.62657391 0 -634.06553860 0 12093
0.10550000 0.10551000 16513.59740427 0 168.07678351 0 6929.72521100 0 -54.28384400 0 8.04649096 0 12067
0.10650000 0.10649700 16491.89564763 0 145.94542067 0 7014.14061542 0 -405.56375685 0 -252.12126505 0 12054
0.10750000 0.10749900 16474.62282091 0 9.63157177 0 7256.80168614 0 347.21149783 0 -225.68719678 0 12807
0.10850000 0.10850100 16268.78830253 0 348.24897466 0 7334.30795987 0 684.94619284 0 172.80466621 0 12736
0.10950000 0.10950300 16074.24755547 0 275.89354644 0 6962.28891829 0 541.88289832 0 362.36508157 0 12933
0.11050000 0.11050200 15749.71771504 0 303.25104660 0 6595.80603912 0 718.61270368 0 1181.17346700 0 13428
0.11150000 0.11150900 15724.14064470 0 -36.24126926 0 6331.63144127 0 975.95789158 0 708.47709754 0 13453
0.11250000 0.11250000 15528.82483490 0 -113.18794769 0 5838.69154034 0 466.11608682 0 1433.20172453 0 13668
0.11350000 0.11349100 15863.20904443 0 158.53022506 0 5967.49589496 0 -247.43656442 0 -194.01481163 0 13791
0.11450000 0.11448600 15447.00035449 0 445.87476982 0 6200.52404309 0 -661.59244533 0 1141.63419508 0 14205
0.11550000 0.11549300 15277.81523126 0 609.13509204 0 6320.72520132 0 77.40795149 0 1368.28468411 0 14776
0.11650000 0.11649800 14612.58995616 0 428.25980827 0 5942.25099437 0 275.50822953 0 1265.13490610 0 14553
0.11750000 0.11747300 14449.60533483 0 275.27238901 0 5760.84202454 0 804.06669217 0 920.12458645 0 14568
0.11850000 0.11849100 13881.26290189 0 325.73893830 0 5394.75774906 0 857.26699846 0 508.92723073 0 16015
0.11950000 0.11950300 13663.91316570 0 318.88184754 0 4645.82569833 0 771.87833669 0 419.04209785 0 15270
0.12050000 0.12050700 13257.33739836 0 21.98255080 0 4353.12879175 0 327.76738821 0 -274.13969018 0 15999
0.12150000 0.12150000 13272.28503686 0 82.42747922 0 3451.77511756 0 475.19207147 0 -134.33940979 0 15670
0.12250000 0.12250700 13206.62615069 0 -41.14420541 0 3230.61650164 0 156.59588991 0 -565.39055114 0 16887
0.12350000 0.12352200 13389.43023344 0 15.52184927 0 3094.74800379 0 3.63069281 0 -50.28142002 0 16407
0.12450000 0.12449800 13340.60128099 0 75.21629551 0 3498.27888180 0 145.72508140 0 -666.90494678 0 16306
0.12550000 0.12549900 13367.06413731 0 124.17723007 0 3495.25613713 0 -428.56097550 0 -149.50628033 0 17523
0.12650000 0.12650100 13279.37132475 0 248.95679462 0 3943.90673878 0 -335.54126747 0 33.09462527 0 17154
0.12750000 0.12750600 13257.11595186 0 172.33962857 0 4573.67842981 0 -484.70319849 0 215.21499196 0 18007
0.12850000 0.12850300 13018.17518228 0 22.53074160 0 4687.30262710 0 177.02543643 0 202.25705023 0 17496
0.12950000 0.12949900 12981.85795687 0 164.80048260 0 4775.02865664 0 186.73032914 0 43.93476343 0 18405
0.13050000 0.13049000 12889.29332139 0 316.19237985 0 3937.51800736 0 433.92662411 0 321.48052218 0 18100
0.13150000 0.13148800 12594.43731147 0 135.33702626 0 4499.41634725 0 466.83910963 0 -287.07659450 0 19059
0.13250000 0.13249300 12365.12946447 0 94.01976041 0 3671.76006706 0 343.43694229 0 -735.10160980 0 18957
0.13350000 0.13349100 12190.62962533 0 99.31078155 0 3594.55274610 0 -49.96043332 0 -466.00093464 0 19468
0.13450000 0.13450700 12273.67206147 0 161.07796700 0 3493.89424117 0 -58.55288955 0 -629.08409966 0 19953
0.13550000 0.13551000 12078.24552842 0 125.41622322 0 3546.79780916 0 229.35102906 0 -336.56435028 0 19956
0.13650000 0.13649900 11897.21301764 0 354.37861368 0 3744.61596437 0 219.10469967 0 -413.22359116 0 19723
0.13750000 0.13749600 11544.44874891 0 461.39816922 0 3457.76524529 0 288.74076492 0 255.03439371 0 20946
0.13850000 0.13851100 11248.48550651 0 298.56966766 0 3751.75761387 0 651.91080451 0 316.72828037 0 20955
0.13950000 0.13949800 11044.06824571 0 33.23889766 0 3110.98003197 0 653.68237648 0 735.29094656 0 20506
0.14050000 0.14048300 11138.75876756 0 -82.26371954 0 3204.49688739 0 829.38799180 0 900.82663153 0 21447
0.14150000 0.14148400 10945.17024043 0 101.10040141 0 2904.23758296 0 -117.36332138 0 517.12628726 0 21771
0.14250000 0.14249400 10887.90417647 0 165.00753507 0 2814.56282425 0 -93.52327737 0 699.40775628 0 22470
0.14350000 0.14350900 10770.86970313 0 68.76367678 0 2738.86133947 0 -216.06756098 0 616.90122067 0 22519
0.14450000 0.14449900 10789.74801695 0 13.02005748 0 2962.90983217 0 -130.60139293 0 821.49563866 0 22218
0.14550000 0.14550500 10638.98724222 0 262.51042743 0 3186.70366140 0 125.69413857 0 665.16437732 0 23559
0.14650000 0.14650700 10594.73115992 0 301.75406828 0 3300.02890592 0 275.48387042 0 1180.58663379 0 23044
0.14750000 0.14750500 10528.33042798 0 34.70243755 0 3054.48903075 0 70.09800264 0 1106.46516975 0 23649
0.14850000 0.14849900 10426.52040127 0 84.84036024 0 3477.33004324 0 -126.20789445 0 1374.34124579 0 23640
0.14950000 0.14949500 10616.77615863 0 90.48082395 0 3432.48712773 0 -93.57099909 0 1141.12486813 0 24457
0.15050000 0.15050000 10155.92385503 0 206.79670341 0 3301.77833325 0 -376.06929800 0 1504.62929193 0 24591
0.15150000 0.15149900 10289.84362371 0 150.54929333 0 3282.46819876 0 80.27346915 0 677.96177034 0 25020
0.15250000 0.15250500 9969.69842391 0 77.59119846 0 3262.01761482 0 -18.07745256 0 479.17367948 0 25297
0.15350000 0.15350100 9877.10057145 0 383.25412958 0 2961.20469415 0 124.21819768 0 11.17939420 0 25452
0.15450000 0.15450400 9509.08971145 0 53.94757749 0 2779.18674645 0 426.42623128 0 44.41319859 0 26061
0.15550000 0.15549900 9519.89630047 0 -26.76911682 0 2693.50909701 0 316.71056465 0 -272.61060213 0 26128
0.15650000 0.15649500 9497.58556596 0 55.99717554 0 2604.55403941 0 250.74608231 0 -405.65012099 0 26331
0.15750000 0.15749700 9386.05403807 0 310.93413279 0 2760.51880681 0 -34.71506000 0 -428.85217764 0 27345
0.15850000 0.15849900 9098.17359278 0 350.01833217 0 2627.65090899 0 -190.32440577 0 12.83592472 0 26980
0.15950000 0.15949700 8964.34240270 0 272.32382891 0 2912.27609077 0 -95.09200435 0 518.73177436 0 27777
0.16050000 0.16050000 8921.40392705 0 0.99219546 0 2835.30128864 0 182.23053633 0 399.27024743 0 28224
0.16150000 0.16150500 8951.60922916 0 -118.69421482 0 3173.32829302 0 111.65221624 0 484.46957244 0 28075
0.16250000 0.16249700 9062.42105594 0 49.00256650 0 3090.86161777 0 53.25788238 0 218.07940240 0 28590
0.16350000 0.16349900 9029.14871986 0 210.60115421 0 3159.41038073 0 -391.76099673 0 -116.74991459 0 29163
0.16450000 0.16449100 8769.39197962 0 246.13003009 0 3200.88730950 0 -335.82914791 0 163.89365920 0 28996
0.16550000 0.16550500 8701.44112220 0 124.29348948 0 3254.96454391 0 40.33891523 0 247.51185623 0 30777
0.16650000 0.16650700 8536.81779680 0 -18.81586590 0 3193.51314117 0 315.75391578 0 -4.46704087 0 29211
0.16750000 0.16749900 8691.91892286 0 -87.31247821 0 3011.47304883 0 461.02503187 0 -443.20523231 0 30922
0.16850000 0.16850800 8630.73325591 0 99.71514285 0 2879.86739603 0 192.62966380 0 -493.87219068 0 30867
0.16950000 0.16949900 8576.23527315 0 138.74508784 0 2746.64518381 0 141.16771251 0 -456.67028652 0 30852
0.17050000 0.17049200 8316.02456759 0 119.46041970 0 2442.03445573 0 45.32899058 0 -303.01520608 0 31257
0.17150000 0.17149500 8257.27481210 0 129.37125765 0 2556.43371575 0 280.92370360 0 -131.19265508 0 32608
0.17250000 0.17250900 8143.51774692 0 122.06795220 0 2150.46692628 0 217.74723265 0 -308.21809151 0 32361
0.17350000 0.17350400 8128.14936007 0 32.76876675 0 2009.23942322 0 372.53058299 0 -45.56505254 0 32508
0.17450000 0.17449800 8144.68034102 0 62.48278980 0 1887.00095722 0 218.66955731 0 181.11333876 0 32791
0.17550000 0.17549800 8098.43124026 0 83.46971715 0 1888.61751664 0 -71.64502786 0 33.36102540 0 33633
0.17650000 0.17650100 7894.99941636 0 215.87490252 0 2062.79625836 0 -252.27849206 0 -86.99027355 0 33984
0.17750000 0.17750300 7811.43658096 0 215.14412909 0 2305.70092023 0 -243.84470225 0 156.88819929 0 34069
0.17850000 0.17849800 7712.63822660 0 214.72891691 0 2387.83542574 0 -203.97768951 0 206.38924185 0 34536
