### header ###
fiducial parameters:
Omega_m = 0.31
Omega_nu = 0
Omega_de = 0.69
Omega_k = 0
H_0 = 100
w_de = -1
zeff = 0
beta = 0
fgrowth = 0
b_1 = 2
gamma = 0.55
Lx = 3500 Ly = 3500 Lz = 3500
nx = 700 ny = 700 nz = 700
xoffset = -685.467585 yoffset = -31.7331281 zoffset = 572.489161
bins = 400 dk = 0.001
kx_ny = 0.628318531 ky_ny = 0.628318531 kz_ny = 0.628318531
############################
A(data) = 8.03772632 (not used)
A(ran) = 8.02924988 (used)
Ngal = 477583
weighted Ngal = 0
Nran = 23820508
weighted Nran = 0
SN(data) = 3493.5301
SN(ran) = 69.9376784
SN(data+ran) = 3563.46778
############################
13 columns: k_central k_mean P_0(k) sigma^{lin}_{P_0(k)} P^img_1(k) sigma^{lin}_{P_1(k)} P_2(k) sigma^{lin}_{P_2(k)} P^img_3(k) sigma^{lin}_{P_3(k)} P_4(k) sigma^{lin}_{P_4(k)} N_modes
### header ###
0.00050000 0 0 0 0 0 0 0 0 0 0 0 0
0.00150000 0.00179520 65927.50077467 0 -20113.09947957 0 59863.40991800 0 9779.66411304 0 -87775.07993708 0 3
0.00250000 0.00253879 98849.17632770 0 13036.88741122 0 59124.55368285 0 -6293.48728227 0 86305.22881741 0 6
0.00350000 0.00331552 85462.51417546 0 32485.86884816 0 51258.88485493 0 -28697.03001847 0 -8905.69229813 0 7
0.00450000 0.00420575 65920.30376354 0 19268.94543539 0 34429.83691657 0 49133.99499898 0 83871.97471526 0 24
0.00550000 0.00557378 67910.00053345 0 847.84112834 0 51017.06528089 0 71704.26480231 0 -28356.77747679 0 45
0.00650000 0.00659388 90067.71551403 0 -15389.86715843 0 45777.41973021 0 82558.79699177 0 -10292.55634329 0 40
0.00750000 0.00754703 93519.51277624 0 -7727.28691233 0 17072.19619137 0 46801.16688294 0 -16467.64725628 0 57
0.00850000 0.00846663 75071.69094940 0 10220.80767847 0 2544.97385957 0 -5060.68356464 0 -8611.54491700 0 75
0.00950000 0.00948925 71106.13781560 0 21506.66228124 0 5588.81131384 0 -5813.35806116 0 5142.43053877 0 112
0.01050000 0.01054430 51897.31510397 0 9842.27810989 0 10288.75853588 0 1585.74514355 0 21193.31548887 0 105
0.01150000 0.01145670 50704.49355126 0 -2404.33318972 0 10216.02443415 0 20186.17682337 0 8455.34763078 0 144
0.01250000 0.01249090 52151.53568181 0 -6725.60690297 0 13050.28492425 0 15498.26521840 0 6786.78149759 0 169
0.01350000 0.01339930 57812.70463834 0 -6422.24734758 0 10836.01926237 0 21497.25080515 0 3918.07500498 0 180
0.01450000 0.01448870 65723.21638177 0 -765.44642320 0 11296.20722648 0 -1485.17521722 0 -2897.60526039 0 267
0.01550000 0.01550050 63309.44957130 0 9939.89172549 0 13876.61252546 0 -12487.03576072 0 16435.31606781 0 238
0.01650000 0.01653350 59433.69299179 0 1210.99123774 0 19946.46099105 0 -3426.66308487 0 13781.16908553 0 315
0.01750000 0.01747870 50576.94036935 0 3404.20841014 0 24371.40488157 0 13059.80712359 0 14507.84576338 0 297
0.01850000 0.01844180 64536.70605420 0 -9069.29696965 0 20213.30401918 0 4545.90903917 0 -15791.01748661 0 388
0.01950000 0.01947590 62898.44487404 0 -11363.41623813 0 19352.20931803 0 7271.50573350 0 -2557.35271871 0 399
0.02050000 0.02045430 73900.68187658 0 -4508.13026689 0 18529.75703050 0 -10617.37406417 0 -13873.73372101 0 462
0.02150000 0.02154770 76929.29488422 0 4864.48196885 0 23074.06058257 0 -5343.60360840 0 -7935.83415029 0 571
0.02250000 0.02255340 74046.72584094 0 3339.54603320 0 15681.84436390 0 -11060.80960083 0 590.08183549 0 510
0.02350000 0.02348930 72609.64880273 0 2433.44233167 0 15534.13955082 0 5638.90251132 0 -3349.57755949 0 555
0.02450000 0.02439640 75178.64960715 0 -7423.38481304 0 18432.32057210 0 329.13260586 0 3522.44976688 0 592
0.02550000 0.02547300 78501.01139223 0 -2934.47610204 0 19935.27794298 0 10639.87302820 0 -15361.18983715 0 837
0.02650000 0.02652900 75091.84258057 0 3964.09158692 0 13899.86440758 0 3331.54074236 0 -11708.76204922 0 723
0.02750000 0.02749970 70451.32052583 0 9039.62313914 0 11856.13469256 0 414.36957678 0 -1593.82794067 0 826
0.02850000 0.02848090 66575.12105332 0 4575.11783204 0 20898.90237195 0 -10020.83041992 0 1010.06175926 0 831
0.02950000 0.02946900 62957.79253506 0 6326.03991724 0 24673.23645613 0 -4881.16796235 0 -2806.43573783 0 996
0.03050000 0.03053250 62709.99390562 0 2529.63868969 0 30423.31618095 0 -3493.71708398 0 1465.40004510 0 1041
0.03150000 0.03150510 62959.45338379 0 -1094.87244567 0 38863.41722046 0 -8209.58630911 0 5309.31261844 0 1036
0.03250000 0.03246190 60038.46337338 0 3964.37946737 0 40806.05660989 0 606.22528508 0 -1534.56885824 0 1059
0.03350000 0.03345080 60544.57934084 0 5053.97373580 0 44336.91027131 0 1922.70920476 0 -539.63521638 0 1302
0.03450000 0.03451200 53199.42050265 0 2846.81650645 0 37950.83620890 0 4995.37899286 0 2607.98646011 0 1339
0.03550000 0.03553350 55064.88578809 0 -369.73703544 0 37114.10062236 0 9982.64197162 0 -657.17901666 0 1365
0.03650000 0.03647120 54197.25841530 0 -1269.46418511 0 33536.85391995 0 11692.81790148 0 -2277.30040708 0 1308
0.03750000 0.03744890 54209.99158884 0 954.11551641 0 28142.41726831 0 7166.45151562 0 1173.36747801 0 1579
0.03850000 0.03847530 50163.05686763 0 2917.32507089 0 23676.28432946 0 6417.68554976 0 -1123.17662960 0 1662
0.03950000 0.03950240 48335.45893306 0 3079.74500366 0 21204.71998344 0 7202.51407755 0 -1256.44313112 0 1683
0.04050000 0.04050350 44948.76694078 0 2043.92901687 0 19115.26156691 0 5567.03205092 0 77.95315276 0 1822
0.04150000 0.04152450 43604.14381481 0 18.60217003 0 10918.37521437 0 4499.63779375 0 -705.93710623 0 1887
0.04250000 0.04250150 43485.33776950 0 -1100.33442350 0 11951.68885574 0 5158.37468651 0 4165.84041744 0 1920
0.04350000 0.04349210 44056.22683715 0 -1342.05434662 0 9858.27761926 0 4373.54615872 0 -1566.77825114 0 2005
0.04450000 0.04448520 44824.53545632 0 2291.99338211 0 10748.80255977 0 -3080.32076455 0 3326.52497921 0 2151
0.04550000 0.04548030 43250.16159036 0 2471.08823605 0 11066.00252117 0 -5466.60606481 0 3240.75875117 0 2274
0.04650000 0.04648670 41807.43766649 0 2372.48918354 0 15347.46015437 0 -3118.44277890 0 12306.11397319 0 2311
0.04750000 0.04749250 41540.37319186 0 1113.00116310 0 19092.89547078 0 953.55857847 0 11707.32264700 0 2568
0.04850000 0.04851840 40447.09183927 0 -1132.07877876 0 18287.93745646 0 3652.84853627 0 12544.94401953 0 2493
0.04950000 0.04949480 42484.28888265 0 929.89259141 0 19729.33270135 0 7109.06365609 0 12865.70926952 0 2644
0.05050000 0.05050630 39811.65111792 0 1101.97202034 0 20134.91195946 0 2832.11245909 0 13061.46797232 0 2829
0.05150000 0.05149060 39702.58871846 0 976.00660981 0 17224.55138088 0 3521.56398090 0 13280.25711073 0 2784
0.05250000 0.05249300 37095.05622367 0 2095.43747193 0 17043.40814685 0 -536.62132957 0 14120.64656447 0 3055
0.05350000 0.05348950 36694.01661874 0 2242.13470345 0 17656.81494180 0 -1996.16300760 0 10802.75799861 0 3009
0.05450000 0.05448610 34684.61111065 0 1786.99571946 0 20110.22067511 0 -972.06375494 0 11518.87167858 0 3336
0.05550000 0.05550870 34391.08377971 0 794.90102168 0 19392.40185712 0 -1268.25730170 0 8413.33923042 0 3349
0.05650000 0.05647670 32734.44254034 0 133.87880108 0 18189.83665857 0 1486.10529251 0 2258.44423791 0 3324
0.05750000 0.05747970 33935.34689017 0 -93.55483349 0 18813.09782261 0 2077.16813598 0 5015.82957680 0 3639
0.05850000 0.05849280 32614.52926256 0 390.19647724 0 17412.78090280 0 3146.69935184 0 3966.10675004 0 3846
0.05950000 0.05951020 32273.50165814 0 1349.07420055 0 15084.04954694 0 2209.28311571 0 3744.63810902 0 3787
0.06050000 0.06049470 31731.17918852 0 40.12643731 0 14001.06545643 0 3059.83696363 0 -25.15156089 0 3930
0.06150000 0.06148310 31185.42429821 0 107.74390702 0 10456.45996758 0 1783.40828621 0 2452.30957316 0 4083
0.06250000 0.06249100 31205.79737588 0 -36.12910661 0 10826.02095306 0 775.77247333 0 2824.25110847 0 4303
0.06350000 0.06350600 31153.20383299 0 194.37909112 0 10436.04260062 0 1813.66894994 0 2404.06745392 0 4470
0.06450000 0.06451750 31863.27202361 0 -966.36261489 0 8843.26653081 0 336.15467426 0 777.71788080 0 4479
0.06550000 0.06550280 31363.24583480 0 -740.54587192 0 9710.06347923 0 1176.58952453 0 461.71926663 0 4636
0.06650000 0.06648880 32675.64849556 0 -297.79792662 0 8867.11631847 0 -268.64449538 0 1101.24124691 0 4653
0.06750000 0.06749660 31949.85760369 0 1311.30650060 0 9881.66236927 0 30.17762129 0 -742.17903983 0 5220
0.06850000 0.06852730 31077.35840798 0 1848.21460338 0 8260.46364165 0 -819.62995193 0 -185.00636816 0 5029
0.06950000 0.06949320 29203.36743243 0 1773.53177248 0 9332.36433502 0 -726.30021880 0 561.63149687 0 5040
0.07050000 0.07048030 28611.44094762 0 1114.00874465 0 9250.10803394 0 -373.20931650 0 -428.86103550 0 5475
0.07150000 0.07148790 27651.80255559 0 -602.22596135 0 8858.40239883 0 2021.20860634 0 -179.12253475 0 5509
0.07250000 0.07249820 27725.54423888 0 -20.40230860 0 8076.67412199 0 2089.25911468 0 -2274.36624100 0 5916
0.07350000 0.07351270 27979.21120048 0 37.20079693 0 7693.52739396 0 1136.24197289 0 -229.27463002 0 5721
0.07450000 0.07449140 27618.80702763 0 280.97685076 0 7270.58673054 0 611.38941737 0 -649.38077829 0 6028
0.07550000 0.07549160 27512.51270937 0 599.94838414 0 7765.17640786 0 -162.25938405 0 209.64229088 0 6183
0.07650000 0.07648840 26734.46044437 0 1199.92998525 0 8097.02505500 0 -676.70173978 0 1622.07344128 0 6330
0.07750000 0.07749960 25998.70446017 0 1117.27508048 0 7348.59125889 0 62.10466991 0 684.57084103 0 6583
0.07850000 0.07848650 24989.12988320 0 352.99789478 0 8609.64047713 0 503.33570670 0 1253.02178275 0 6549
0.07950000 0.07947320 24580.22892765 0 303.17354032 0 8419.69474487 0 657.33070751 0 -1244.03105500 0 6828
0.08050000 0.08048110 24687.51975514 0 890.37767859 0 8657.52828197 0 -283.52569993 0 -500.79128646 0 7147
0.08150000 0.08149960 23778.03899454 0 824.81290718 0 8488.69747314 0 -804.16080693 0 -1421.36540929 0 7386
0.08250000 0.08250610 23013.60568906 0 858.62446548 0 9298.71553990 0 -1023.86451938 0 -714.66541988 0 7227
0.08350000 0.08350160 22949.93982135 0 326.49296362 0 9970.72815011 0 -966.18767216 0 -54.50595483 0 7798
0.08450000 0.08449610 22481.35903503 0 152.74161364 0 10573.87089996 0 657.51893703 0 -269.88348852 0 7371
0.08550000 0.08548940 23140.05163849 0 384.86958177 0 10716.31635875 0 905.13598034 0 281.44742457 0 8256
0.08650000 0.08650700 21924.64254315 0 777.48204028 0 11162.34281942 0 257.57549226 0 830.90600753 0 8037
0.08750000 0.08749060 21399.81434674 0 1050.78244824 0 11067.17618761 0 984.27874368 0 2817.58556893 0 8155
0.08850000 0.08849210 20562.74659045 0 548.65916111 0 10410.05585427 0 1609.79423306 0 3205.51554127 0 8718
0.08950000 0.08949900 20207.32496377 0 175.20182454 0 9515.46737055 0 2357.92907640 0 2775.88719366 0 8571
0.09050000 0.09049190 19914.12980258 0 177.03429429 0 8305.31762949 0 718.97366147 0 1323.34211767 0 8932
0.09150000 0.09150830 19342.35494894 0 628.79732645 0 7866.44389066 0 212.36165386 0 133.05502011 0 9285
0.09250000 0.09250820 18529.42486076 0 669.37407521 0 7072.34782699 0 -200.26735346 0 1143.02930800 0 9204
0.09350000 0.09350330 18269.44667401 0 447.69173832 0 6680.87471070 0 -135.72898656 0 -20.62973416 0 9349
0.09450000 0.09448040 18282.40129405 0 -379.95568401 0 6618.39358175 0 605.62405784 0 -798.08874400 0 9564
0.09550000 0.09549270 18379.28413622 0 -283.10273713 0 6631.93503500 0 653.49525419 0 -572.44030036 0 10155
0.09650000 0.09649430 18786.41351980 0 176.30905702 0 6638.43448967 0 259.85196224 0 -464.81619589 0 9913
0.09750000 0.09749140 18872.11331389 0 -185.52344573 0 6746.06855923 0 -216.06313205 0 -265.72361609 0 10476
0.09850000 0.09850240 19027.12586135 0 425.42640034 0 7074.07510966 0 360.67765927 0 818.40092388 0 10575
0.09950000 0.09950330 18407.96145750 0 620.56726741 0 6930.81029883 0 329.64082557 0 733.97887607 0 10882
0.10050000 0.10051200 17769.53120845 0 555.68676567 0 6577.99066848 0 718.73449926 0 1091.93052897 0 10875
0.10150000 0.10150300 17298.62523392 0 199.91746800 0 6483.66553335 0 1085.34138847 0 902.90601413 0 11118
0.10250000 0.10250800 17216.02569077 0 341.32766442 0 6313.19602045 0 863.68230346 0 212.15570862 0 11575
0.10350000 0.10349800 16611.58747892 0 623.70184257 0 5697.50832658 0 -416.69697946 0 137.76075816 0 11364
0.10450000 0.10450100 16266.79528407 0 668.28345122 0 6091.64987315 0 -551.38848918 0 899.26543373 0 12093
0.10550000 0.10551000 15810.06188530 0 260.39450615 0 6609.07068425 0 -249.80936363 0 1092.43985591 0 12067
0.10650000 0.10649700 15775.95912486 0 67.94288534 0 6991.88524253 0 339.77089555 0 1342.76297541 0 12054
0.10750000 0.10749900 15878.26740618 0 -3.78034636 0 6616.21233376 0 725.21513097 0 1374.80628343 0 12807
0.10850000 0.10850100 16025.75077276 0 -140.52330320 0 6918.24321016 0 1056.23999714 0 2268.54219814 0 12736
0.10950000 0.10950300 15889.89334724 0 77.81519159 0 5780.28502692 0 1479.17401717 0 1897.23178535 0 12933
0.11050000 0.11050200 15920.12079399 0 156.92141626 0 5658.44516462 0 788.93857477 0 2261.21231911 0 13428
0.11150000 0.11150900 15669.77552984 0 -13.94160707 0 5344.92121506 0 596.84481149 0 1695.91477550 0 13453
0.11250000 0.11250000 15479.11009647 0 282.13944487 0 4706.72348483 0 143.64016264 0 2144.85325759 0 13668
0.11350000 0.11349100 15597.03035579 0 0.82413971 0 4662.67777670 0 -444.56823549 0 1240.23324759 0 13791
0.11450000 0.11448600 15295.42022773 0 282.77610354 0 5253.04306371 0 -748.11380593 0 1140.01763565 0 14205
0.11550000 0.11549300 15126.12438125 0 336.16685382 0 5199.57480716 0 -804.77421372 0 777.44660884 0 14776
0.11650000 0.11649800 14923.39011382 0 477.99004796 0 6358.07215294 0 -857.17177646 0 674.33336950 0 14553
0.11750000 0.11747300 14607.27524025 0 492.13605014 0 6490.50823009 0 -122.95152372 0 628.45076268 0 14568
0.11850000 0.11849100 14382.06415344 0 129.57941735 0 6339.82496163 0 701.42734833 0 575.34900009 0 16015
0.11950000 0.11950300 14224.28352477 0 149.53728284 0 6705.15631903 0 362.60645825 0 1360.91051578 0 15270
0.12050000 0.12050700 14135.37275648 0 229.60347807 0 6107.16220022 0 794.52566987 0 737.29171565 0 15999
0.12150000 0.12150000 14027.41758949 0 193.52984381 0 5888.74952085 0 396.66382216 0 1396.71841425 0 15670
0.12250000 0.12250700 13804.53169090 0 -51.59803016 0 5138.95382878 0 706.41653789 0 960.76223300 0 16887
0.12350000 0.12352200 13859.67186849 0 -250.89888039 0 4677.50361964 0 620.20409516 0 665.32492603 0 16407
0.12450000 0.12449800 14107.47049793 0 -62.01564842 0 4289.15289895 0 546.20442670 0 -150.96782720 0 16306
0.12550000 0.12549900 13796.22744728 0 350.41361416 0 4213.34069091 0 -261.12195790 0 -293.00139551 0 17523
0.12650000 0.12650100 13502.47866984 0 515.70902968 0 4329.63331848 0 -658.47337143 0 -433.45272861 0 17154
0.12750000 0.12750600 13158.24009123 0 348.34530389 0 4293.90292630 0 -342.28984944 0 -383.47225437 0 18007
0.12850000 0.12850300 13117.82610564 0 294.02447833 0 4735.91013306 0 -30.41545483 0 -417.95258109 0 17496
0.12950000 0.12949900 12876.33870135 0 -0.68100002 0 4432.41770978 0 298.31168250 0 6.20785392 0 18405
0.13050000 0.13049000 12886.41451693 0 -43.52929490 0 4590.54158051 0 474.65063479 0 -88.42048575 0 18100
0.13150000 0.13148800 13094.02060728 0 -86.93236530 0 4638.61761487 0 625.87866163 0 -73.80678856 0 19059
0.13250000 0.13249300 12838.02845748 0 110.75314346 0 4258.59328245 0 474.03612076 0 40.26805235 0 18957
0.13350000 0.13349100 12775.58054550 0 215.25042340 0 4140.26334711 0 134.02052684 0 -24.76867990 0 19468
0.13450000 0.13450700 12678.03336385 0 106.44755923 0 4287.80207532 0 -262.61450728 0 -47.26830827 0 19953
0.13550000 0.13551000 12413.07263094 0 183.46288608 0 4256.98779535 0 30.56249530 0 121.97383743 0 19956
0.13650000 0.13649900 12349.07459348 0 253.56288174 0 4271.79149363 0 155.76768001 0 152.25664581 0 19723
0.13750000 0.13749600 12165.49544799 0 57.54143268 0 4181.83992681 0 444.91147756 0 -130.64789670 0 20946
0.13850000 0.13851100 12097.95426660 0 196.19495239 0 3471.70530224 0 248.10090391 0 -541.12555130 0 20955
0.13950000 0.13949800 11719.05931130 0 383.45121696 0 3588.96122207 0 184.37192395 0 -8.47010704 0 20506
0.14050000 0.14048300 11667.24083115 0 353.72645375 0 3346.54374249 0 385.14306819 0 111.65885963 0 21447
0.14150000 0.14148400 11324.66310126 0 67.62787770 0 3036.59615384 0 178.91437505 0 64.16744402 0 21771
0.14250000 0.14249400 11132.66898891 0 151.63881009 0 3278.10570278 0 346.93911863 0 -101.91111703 0 22470
0.14350000 0.14350900 11017.72718497 0 217.60661413 0 3112.64088069 0 -175.59821376 0 -70.23851044 0 22519
0.14450000 0.14449900 10869.15873055 0 485.60780743 0 3362.98614484 0 -276.49477367 0 -90.32503634 0 22218
0.14550000 0.14550500 10448.86435276 0 352.76205426 0 3534.98363858 0 -372.14526608 0 214.03136044 0 23559
0.14650000 0.14650700 10246.19651928 0 155.45876215 0 3320.46841754 0 344.01270319 0 747.17265832 0 23044
0.14750000 0.14750500 10216.50054411 0 -59.41553438 0 3290.77244238 0 623.46932375 0 224.99296201 0 23649
0.14850000 0.14849900 10260.28051645 0 -135.54518596 0 3319.52726993 0 420.04303602 0 329.38616210 0 23640
0.14950000 0.14949500 10218.10603121 0 160.87202176 0 3032.30009181 0 332.40890678 0 227.44548196 0 24457
0.15050000 0.15050000 10151.97103507 0 171.44055579 0 3253.39227379 0 38.60565350 0 669.91108297 0 24591
0.15150000 0.15149900 10016.75580439 0 227.09006033 0 3056.38239829 0 -310.27865116 0 698.26177067 0 25020
0.15250000 0.15250500 9759.64534977 0 260.90051140 0 3455.98260099 0 -257.28096842 0 917.07305373 0 25297
0.15350000 0.15350100 9876.92341425 0 41.40041901 0 3561.63472441 0 -141.82097967 0 980.89614845 0 25452
0.15450000 0.15450400 9725.01111774 0 -10.17675090 0 3765.57587525 0 409.91075158 0 816.78104276 0 26061
0.15550000 0.15549900 9817.90792297 0 80.11059525 0 3417.52841690 0 233.31049242 0 367.09074980 0 26128
0.15650000 0.15649500 9697.16422082 0 134.19989850 0 3360.36200386 0 51.97659295 0 283.36736569 0 26331
0.15750000 0.15749700 9450.51711316 0 290.14695018 0 3220.87285580 0 -121.36485957 0 575.98012260 0 27345
0.15850000 0.15849900 9339.72743102 0 155.85072245 0 2978.94255851 0 304.53986521 0 490.03120120 0 26980
0.15950000 0.15949700 9160.62150476 0 -67.10116721 0 2994.34416233 0 223.64435285 0 397.20193715 0 27777
0.16050000 0.16050000 9252.36678821 0 57.97801445 0 2778.72170881 0 612.82106897 0 179.06274420 0 28224
0.16150000 0.16150500 9158.13023167 0 48.31608236 0 2645.18947150 0 291.02830723 0 167.11349126 0 28075
0.16250000 0.16249700 8974.55108618 0 258.90860016 0 2417.94107692 0 120.28198620 0 501.02159081 0 28590
0.16350000 0.16349900 8768.42868736 0 320.13966364 0 2407.57738089 0 -76.52991613 0 546.95734479 0 29163
0.16450000 0.16449100 8633.23560132 0 211.08058588 0 2524.15788891 0 146.01406908 0 686.86170503 0 28996
0.16550000 0.16550500 8429.62662023 0 44.31775515 0 2317.39329524 0 233.22966444 0 782.11137928 0 30777
0.16650000 0.16650700 8443.96528087 0 50.43222508 0 2350.84278852 0 373.81386543 0 788.49900347 0 29211
0.16750000 0.16749900 8450.77476063 0 -15.63866230 0 2096.83258486 0 120.62412104 0 748.22895811 0 30922
0.16850000 0.16850800 8390.37522875 0 49.72071749 0 2237.06357868 0 114.22763899 0 876.67235493 0 30867
0.16950000 0.16949900 8462.07960427 0 83.99941717 0 2186.57377751 0 64.97926688 0 844.40095702 0 30852
0.17050000 0.17049200 8390.84026639 0 38.47101403 0 2254.28104378 0 -198.35516296 0 1142.49783641 0 31257
0.17150000 0.17149500 8333.26417733 0 146.02624864 0 2483.86569889 0 -16.97066297 0 1035.89792199 0 32608
0.17250000 0.17250900 8375.15078212 0 -34.44423094 0 2299.71079251 0 -130.70658002 0 948.42877039 0 32361
0.17350000 0.17350400 8344.75725050 0 -6.78328264 0 2392.47472984 0 198.72054968 0 981.90373001 0 32508
0.17450000 0.17449800 8440.41106460 0 48.34774921 0 2231.73779045 0 -144.49716058 0 553.62731326 0 32791
0.17550000 0.17549800 8302.77099478 0 166.54105206 0 2317.85833289 0 -77.08165007 0 479.29104612 0 33633
0.17650000 0.17650100 8154.46827616 0 227.47205554 0 2191.74455320 0 -75.76271474 0 316.01854435 0 33984
0.17750000 0.17750300 7968.75217198 0 110.73764221 0 2187.57028674 0 29.03916486 0 566.35495064 0 34069
0.17850000 0.17849800 7935.70128240 0 131.33548807 0 2317.52616314 0 179.23547247 0 187.59507770 0 34536
