### header ###
fiducial parameters:
Omega_m = 0.31
Omega_nu = 0
Omega_de = 0.69
Omega_k = 0
H_0 = 100
w_de = -1
zeff = 0
beta = 0
fgrowth = 0
b_1 = 2
gamma = 0.55
Lx = 3500 Ly = 3500 Lz = 3500
nx = 700 ny = 700 nz = 700
xoffset = -685.467585 yoffset = -31.7331281 zoffset = 572.489161
bins = 400 dk = 0.001
kx_ny = 0.628318531 ky_ny = 0.628318531 kz_ny = 0.628318531
############################
A(data) = 8.06949288 (not used)
A(ran) = 8.07655615 (used)
Ngal = 479658
weighted Ngal = 0
Nran = 23820508
weighted Nran = 0
SN(data) = 3477.64022
SN(ran) = 70.3497332
SN(data+ran) = 3547.98996
############################
13 columns: k_central k_mean P_0(k) sigma^{lin}_{P_0(k)} P^img_1(k) sigma^{lin}_{P_1(k)} P_2(k) sigma^{lin}_{P_2(k)} P^img_3(k) sigma^{lin}_{P_3(k)} P_4(k) sigma^{lin}_{P_4(k)} N_modes
### header ###
0.00050000 0 0 0 0 0 0 0 0 0 0 0 0
0.00150000 0.00179520 89785.92484740 0 -60995.66585395 0 67935.90977353 0 22698.70877122 0 -174141.09581774 0 3
0.00250000 0.00253879 124244.77125499 0 -14869.02499896 0 35461.44541993 0 56155.50978273 0 145772.69239989 0 6
0.00350000 0.00331552 110790.78936786 0 27504.98352850 0 38314.89424894 0 -14104.03807724 0 61602.65070051 0 7
0.00450000 0.00420575 80178.80077200 0 41045.32954922 0 3417.35125970 0 15372.92650146 0 33154.08365097 0 24
0.00550000 0.00557378 64795.24483872 0 5883.03620124 0 18983.72234807 0 40820.56135540 0 -10426.24359315 0 45
0.00650000 0.00659388 64039.00505360 0 5698.22802769 0 13186.91741251 0 25326.06072743 0 42469.78413714 0 40
0.00750000 0.00754703 40738.29398200 0 3084.47288635 0 -3981.68551106 0 38774.28500567 0 11862.66736420 0 57
0.00850000 0.00846663 59060.77709189 0 -20547.68822870 0 -39147.97596830 0 44697.86806039 0 48.61160271 0 75
0.00950000 0.00948925 76572.76602506 0 -32978.14440960 0 -52069.60047815 0 18614.01742237 0 -21626.79700552 0 112
0.01050000 0.01054430 92956.92795221 0 -15320.55440506 0 -45794.58183368 0 -34407.58154369 0 -17899.74174832 0 105
0.01150000 0.01145670 97492.15219793 0 11278.93439976 0 -39099.36846234 0 -58153.73224275 0 1276.97122133 0 144
0.01250000 0.01249090 74201.40621865 0 17497.81635740 0 -29158.41379366 0 -33394.02092979 0 26606.57509271 0 169
0.01350000 0.01339930 68895.88033530 0 10127.78907767 0 -15128.00667647 0 133.75036211 0 12613.92460315 0 180
0.01450000 0.01448870 68172.85752465 0 -10285.62506796 0 -23179.91200784 0 17307.92598676 0 -7267.07680357 0 267
0.01550000 0.01550050 77216.17882028 0 -7552.77600087 0 -5545.44101752 0 3659.82410091 0 57.06941947 0 238
0.01650000 0.01653350 84093.64265813 0 -4564.12301349 0 -11865.32472216 0 -7746.84063796 0 8457.50673412 0 315
0.01750000 0.01747870 74880.58262303 0 6632.82082099 0 3843.62469290 0 -15845.38260147 0 22486.23085795 0 297
0.01850000 0.01844180 85758.03452487 0 10727.92015516 0 16297.68707031 0 -14263.14738488 0 26590.85239147 0 388
0.01950000 0.01947590 68697.90716755 0 8538.93261084 0 24876.74578629 0 -7007.47507587 0 30535.03593837 0 399
0.02050000 0.02045430 77294.57087999 0 -3690.16227091 0 36073.08064291 0 -1476.00733227 0 7020.34111731 0 462
0.02150000 0.02154770 77218.06111549 0 -3178.64300894 0 41963.00383019 0 694.61565410 0 -2648.06827595 0 571
0.02250000 0.02255340 85845.50589094 0 3175.39881777 0 50510.61714369 0 -1840.76292878 0 -3249.50588778 0 510
0.02350000 0.02348930 80157.98480134 0 -494.14346263 0 46285.63943939 0 -4065.83517968 0 -633.99356849 0 555
0.02450000 0.02439640 80939.35876379 0 5709.72110086 0 40409.77810463 0 -2722.72896220 0 5958.18406979 0 592
0.02550000 0.02547300 78303.25967097 0 1949.61495407 0 39986.70457331 0 9893.47653985 0 2117.50461529 0 837
0.02650000 0.02652900 77713.10475814 0 -756.97388025 0 32680.74176497 0 20479.48270782 0 1556.12667466 0 723
0.02750000 0.02749970 70909.16115708 0 2224.39683909 0 29292.61037047 0 10163.69662705 0 6361.12811459 0 826
0.02850000 0.02848090 72949.12628167 0 6294.25127268 0 24952.25904156 0 14837.46887323 0 8307.22206936 0 831
0.02950000 0.02946900 62915.27480776 0 7206.83228423 0 19152.68602480 0 6733.32431336 0 19631.78551970 0 996
0.03050000 0.03053250 58618.76988513 0 3541.09556188 0 16092.95978441 0 6446.67289613 0 19862.08987593 0 1041
0.03150000 0.03150510 55129.99105803 0 -1185.91242203 0 15099.66152493 0 10183.49394383 0 22985.59270727 0 1036
0.03250000 0.03246190 57707.51755256 0 -1195.33497045 0 14945.09187046 0 7513.43603079 0 17814.04195422 0 1059
0.03350000 0.03345080 55796.98790510 0 -787.75383601 0 12975.43600848 0 1422.24012296 0 21271.70754859 0 1302
0.03450000 0.03451200 55023.91818626 0 4136.44339505 0 9835.02573714 0 3850.11307524 0 14331.68507551 0 1339
0.03550000 0.03553350 53822.57094344 0 2512.98591316 0 11378.58532313 0 -1379.47880451 0 21518.39894555 0 1365
0.03650000 0.03647120 52721.31751698 0 507.54097566 0 15003.44302226 0 1529.69703532 0 16307.09854641 0 1308
0.03750000 0.03744890 56109.67035798 0 -812.10741445 0 21097.42915595 0 -6461.89734276 0 15735.76658576 0 1579
0.03850000 0.03847530 53084.93266402 0 4068.39288671 0 20225.92646947 0 -1136.13124964 0 14030.62856369 0 1662
0.03950000 0.03950240 50100.38750916 0 4458.61483030 0 24756.50033876 0 -4898.70652486 0 16608.93012096 0 1683
0.04050000 0.04050350 46405.33127068 0 3171.55672105 0 23169.39329926 0 2364.07421668 0 9932.59506344 0 1822
0.04150000 0.04152450 47088.60443524 0 630.74384115 0 25695.65492988 0 1390.85008209 0 8730.39525160 0 1887
0.04250000 0.04250150 44873.80730176 0 161.31380752 0 19505.33957027 0 4519.66762935 0 3499.43040358 0 1920
0.04350000 0.04349210 43949.60034915 0 314.96113733 0 16865.03299402 0 468.92845732 0 1853.98328461 0 2005
0.04450000 0.04448520 43788.16585329 0 681.42630078 0 16961.25149669 0 2534.13405357 0 2085.32843937 0 2151
0.04550000 0.04548030 43129.91614282 0 1223.31473526 0 18581.02189441 0 -2861.52055381 0 874.58079278 0 2274
0.04650000 0.04648670 40968.48761498 0 2431.96971247 0 15438.36394113 0 1714.80416164 0 159.38833023 0 2311
0.04750000 0.04749250 39493.54322588 0 1074.14948254 0 16392.02327776 0 -1001.62464774 0 790.66585744 0 2568
0.04850000 0.04851840 39361.67183729 0 702.08282996 0 17688.59251403 0 4500.21355464 0 -280.55167349 0 2493
0.04950000 0.04949480 38826.43565556 0 -109.67658132 0 16690.53315488 0 582.86489417 0 1404.63512649 0 2644
0.05050000 0.05050630 38073.07467490 0 1966.05735642 0 16615.68423910 0 3198.85000173 0 2087.49861503 0 2829
0.05150000 0.05149060 38090.90111786 0 524.43180718 0 15981.01858050 0 -471.04327136 0 4644.93991235 0 2784
0.05250000 0.05249300 36558.82353270 0 350.10026737 0 18099.70793454 0 1008.01559363 0 3529.46962082 0 3055
0.05350000 0.05348950 37419.47534086 0 357.09465496 0 17668.99449910 0 1142.91858476 0 5705.34753255 0 3009
0.05450000 0.05448610 36852.12941715 0 269.44723893 0 18368.54398114 0 1109.51338078 0 3640.65790664 0 3336
0.05550000 0.05550870 36229.86476234 0 2507.82620980 0 20118.52491873 0 -1637.80721485 0 6425.53582806 0 3349
0.05650000 0.05647670 35123.51806646 0 1563.97695296 0 21073.18076459 0 467.70164373 0 6980.28144612 0 3324
0.05750000 0.05747970 33281.63683288 0 816.62160128 0 19023.58271741 0 2658.59805685 0 5620.76604326 0 3639
0.05850000 0.05849280 33612.03500547 0 147.78453382 0 19319.54595982 0 3579.89298804 0 5666.83798683 0 3846
0.05950000 0.05951020 32469.70325393 0 -27.42559496 0 16561.98346373 0 4201.85869008 0 17.46005973 0 3787
0.06050000 0.06049470 33133.93201980 0 -395.69277928 0 14716.66980946 0 2796.44850085 0 3629.60772648 0 3930
0.06150000 0.06148310 32488.74765262 0 -1267.79226406 0 9901.60362627 0 3090.87269010 0 -58.88948823 0 4083
0.06250000 0.06249100 33949.96235893 0 -1078.16430752 0 9396.32915550 0 2363.01127350 0 -1653.48562679 0 4303
0.06350000 0.06350600 34268.29169747 0 -626.00156443 0 7608.04904636 0 -1167.34413331 0 -3155.32469287 0 4470
0.06450000 0.06451750 34538.56714629 0 529.43206906 0 8513.98666302 0 -2894.95897476 0 -3633.68234201 0 4479
0.06550000 0.06550280 33677.25099865 0 800.89668557 0 8722.52282866 0 -2864.32185199 0 -3731.77206758 0 4636
0.06650000 0.06648880 32807.18771440 0 778.10098324 0 9714.00522687 0 -525.02417655 0 -5264.83508964 0 4653
0.06750000 0.06749660 33336.44484073 0 -235.89698749 0 9671.80859699 0 613.93715931 0 -4867.59329212 0 5220
0.06850000 0.06852730 32668.23003793 0 504.05430058 0 9194.97892867 0 2343.20288440 0 -8021.09105140 0 5029
0.06950000 0.06949320 31708.92381564 0 1894.90659714 0 8251.69436040 0 -640.38119268 0 -6175.00233438 0 5040
0.07050000 0.07048030 30623.06092067 0 1923.16317008 0 8057.09825171 0 335.38293322 0 -6679.81176752 0 5475
0.07150000 0.07148790 28269.08466423 0 1674.31266978 0 8813.29374752 0 -1115.40385758 0 -1822.91434117 0 5509
0.07250000 0.07249820 27789.54227633 0 890.76299550 0 8069.59890643 0 1916.98481283 0 -3916.23699906 0 5916
0.07350000 0.07351270 26414.35953386 0 1015.01441015 0 8999.64097422 0 2001.30056632 0 -938.56775790 0 5721
0.07450000 0.07449140 26796.57618660 0 89.22079339 0 8605.75409112 0 1636.67783772 0 -675.31105578 0 6028
0.07550000 0.07549160 26534.82642789 0 -128.07358118 0 9150.36853198 0 951.99073728 0 1393.93926072 0 6183
0.07650000 0.07648840 26547.33815493 0 901.25955943 0 9995.91768908 0 553.92405156 0 1447.42966192 0 6330
0.07750000 0.07749960 25950.42912396 0 715.93430831 0 10563.47398696 0 -874.97053861 0 2871.26419965 0 6583
0.07850000 0.07848650 25339.23679397 0 783.59728528 0 10534.27626641 0 -740.33660498 0 3000.51144725 0 6549
0.07950000 0.07947320 24727.82301748 0 648.38426906 0 11375.48507218 0 246.85526737 0 2807.65369356 0 6828
0.08050000 0.08048110 23753.12626370 0 567.22855706 0 9885.26087484 0 1877.88843389 0 1224.58805262 0 7147
0.08150000 0.08149960 23210.91451733 0 467.20892528 0 8450.66403739 0 1786.89606853 0 823.18306097 0 7386
0.08250000 0.08250610 23110.70997772 0 302.98420357 0 7799.33452993 0 1788.28010913 0 668.64440901 0 7227
0.08350000 0.08350160 22610.46234241 0 175.60374993 0 6789.23955370 0 1362.13954384 0 361.00872178 0 7798
0.08450000 0.08449610 22224.59182248 0 17.39772254 0 5632.25911642 0 500.33732114 0 434.88659467 0 7371
0.08550000 0.08548940 22377.38990498 0 548.91050288 0 6610.87547320 0 -186.75025932 0 1034.87373194 0 8256
0.08650000 0.08650700 21798.75020996 0 456.80426165 0 5986.21919623 0 -48.18520749 0 517.34662652 0 8037
0.08750000 0.08749060 21309.13200648 0 245.99162603 0 7047.00327548 0 -389.87980875 0 256.51476354 0 8155
0.08850000 0.08849210 21152.68005679 0 464.06327780 0 6726.52590593 0 85.92290144 0 -436.42454059 0 8718
0.08950000 0.08949900 20780.98211263 0 642.38196177 0 7451.86283247 0 -65.94189480 0 339.68453141 0 8571
0.09050000 0.09049190 20278.74145885 0 681.63335325 0 7006.10210760 0 141.74015170 0 1384.95960529 0 8932
0.09150000 0.09150830 20058.51291821 0 164.60450245 0 7626.49553951 0 425.15069946 0 1152.04218041 0 9285
0.09250000 0.09250820 20175.65811479 0 -43.04831311 0 7360.40542947 0 352.67236843 0 1459.74208712 0 9204
0.09350000 0.09350330 19875.48738896 0 359.70440192 0 7504.45637536 0 -50.35305796 0 1135.69942897 0 9349
0.09450000 0.09448040 20121.73589293 0 203.63112574 0 7692.05477476 0 -542.96687892 0 912.42489177 0 9564
0.09550000 0.09549270 19610.63737930 0 325.34476354 0 7924.13070296 0 -468.97385386 0 827.97737761 0 10155
0.09650000 0.09649430 19468.91162162 0 455.43461507 0 7886.04190558 0 271.18005776 0 -109.07690421 0 9913
0.09750000 0.09749140 18539.27922985 0 535.90605738 0 7007.79617329 0 833.26662718 0 -107.96568569 0 10476
0.09850000 0.09850240 18293.14144913 0 563.44957260 0 6618.60395592 0 1444.13010912 0 -445.72750790 0 10575
0.09950000 0.09950330 17622.38001161 0 259.93721914 0 5677.30133379 0 1160.93325724 0 286.39343206 0 10882
0.10050000 0.10051200 17643.74959851 0 363.69486778 0 5709.79860713 0 1303.31228208 0 390.82095636 0 10875
0.10150000 0.10150300 17248.24615599 0 -131.85367287 0 5532.56390376 0 613.21081480 0 401.17579453 0 11118
0.10250000 0.10250800 17088.25106236 0 218.82456986 0 5233.71078458 0 -144.12291600 0 699.73549710 0 11575
0.10350000 0.10349800 17233.63068723 0 283.43490687 0 5756.82277063 0 -250.82358858 0 1093.99773201 0 11364
0.10450000 0.10450100 16842.11328164 0 -12.64869170 0 5647.40605678 0 419.20596826 0 1693.29063452 0 12093
0.10550000 0.10551000 16910.20807928 0 150.74970241 0 5791.86667868 0 68.71351915 0 1934.99948531 0 12067
0.10650000 0.10649700 16668.94212148 0 329.01413199 0 5782.56592584 0 468.13678610 0 1370.33306421 0 12054
0.10750000 0.10749900 16764.27483817 0 401.89771010 0 5536.64959162 0 117.62573548 0 1160.05854357 0 12807
0.10850000 0.10850100 16071.25802777 0 436.75117417 0 5368.56062854 0 63.34023063 0 1315.27039288 0 12736
0.10950000 0.10950300 15983.67593845 0 451.87043371 0 5684.07759658 0 -903.18614394 0 821.33841165 0 12933
0.11050000 0.11050200 15478.99937322 0 255.03992987 0 5584.89171085 0 368.51797247 0 892.41609359 0 13428
0.11150000 0.11150900 15439.91406661 0 45.55818770 0 5737.83373357 0 437.39779794 0 507.42028732 0 13453
0.11250000 0.11250000 15417.21580073 0 10.65938246 0 5484.96397936 0 1028.42853167 0 660.53946724 0 13668
0.11350000 0.11349100 15381.56291482 0 166.99391015 0 5363.96561374 0 946.60958742 0 361.08733529 0 13791
0.11450000 0.11448600 14940.22004754 0 447.30088526 0 4593.17679382 0 187.35702272 0 517.25915516 0 14205
0.11550000 0.11549300 14594.54206671 0 492.37078343 0 4697.69954011 0 230.14491475 0 537.26573887 0 14776
0.11650000 0.11649800 14250.96782758 0 18.78231676 0 4567.23433677 0 -407.63981776 0 1040.19619848 0 14553
0.11750000 0.11747300 14562.32160148 0 71.79483642 0 4986.86437507 0 -180.18326347 0 905.24338190 0 14568
0.11850000 0.11849100 14447.83376286 0 124.53818786 0 4576.30257079 0 -142.60379304 0 511.60230441 0 16015
0.11950000 0.11950300 14370.65965887 0 -17.85932776 0 4871.88935415 0 201.53292019 0 685.18535505 0 15270
0.12050000 0.12050700 14341.53944460 0 160.00284426 0 4668.62361513 0 13.76976459 0 180.56415145 0 15999
0.12150000 0.12150000 14243.66009320 0 127.46349608 0 4992.86557512 0 211.87890050 0 223.76282672 0 15670
0.12250000 0.12250700 14099.49842406 0 135.23405364 0 4673.40685945 0 549.61359551 0 252.76235266 0 16887
0.12350000 0.12352200 14089.64405498 0 50.72730254 0 4635.28484510 0 227.63038978 0 668.87249890 0 16407
0.12450000 0.12449800 13930.31330084 0 95.22033259 0 4355.08859324 0 245.61959592 0 381.20907118 0 16306
0.12550000 0.12549900 13907.72575821 0 90.52444891 0 4312.39370874 0 67.11733280 0 1006.25841568 0 17523
0.12650000 0.12650100 13847.04941820 0 158.50365148 0 4322.70204315 0 499.98632844 0 420.36524067 0 17154
0.12750000 0.12750600 13699.56605161 0 14.56785776 0 3797.72990652 0 740.76510395 0 881.77337498 0 18007
0.12850000 0.12850300 13713.29573439 0 -146.70941108 0 3319.39440203 0 900.82220260 0 636.14492120 0 17496
0.12950000 0.12949900 13691.37253125 0 8.35560813 0 2758.33755882 0 336.06277397 0 487.50006774 0 18405
0.13050000 0.13049000 13720.38202227 0 85.04586259 0 2768.75661648 0 -258.69601153 0 -169.30691880 0 18100
0.13150000 0.13148800 13487.86320108 0 468.16557414 0 2820.84083242 0 -352.41991942 0 192.52226225 0 19059
0.13250000 0.13249300 12898.59407423 0 669.70403049 0 3202.51494125 0 -816.73675346 0 -542.14752689 0 18957
0.13350000 0.13349100 12510.06619635 0 488.40578391 0 3420.27435345 0 -583.73739337 0 -578.53782963 0 19468
0.13450000 0.13450700 12313.20026107 0 230.54130398 0 3717.84308296 0 -408.74705024 0 -808.18670423 0 19953
0.13550000 0.13551000 12174.46403109 0 103.91122179 0 3924.67411057 0 108.80673948 0 -646.37907103 0 19956
0.13650000 0.13649900 12121.98121145 0 -64.11673277 0 3907.51200710 0 40.80948903 0 -814.15800901 0 19723
0.13750000 0.13749600 12257.72791373 0 -110.30094972 0 3888.74441653 0 419.84705587 0 -526.79464129 0 20946
0.13850000 0.13851100 12131.50341080 0 171.48705956 0 3923.55580576 0 538.80479202 0 -183.32226756 0 20955
0.13950000 0.13949800 12219.19622336 0 149.62253974 0 3715.37395452 0 394.03968118 0 80.14159776 0 20506
0.14050000 0.14048300 11947.03847932 0 210.56240108 0 3774.79912182 0 566.36048680 0 541.20748651 0 21447
0.14150000 0.14148400 11771.54213094 0 242.17278120 0 3723.46782396 0 213.50321055 0 288.55917880 0 21771
0.14250000 0.14249400 11502.04174486 0 305.54523230 0 3483.30909865 0 132.31649605 0 293.33799419 0 22470
0.14350000 0.14350900 11335.29253309 0 285.25962600 0 3388.50785355 0 -99.29328728 0 286.87064926 0 22519
0.14450000 0.14449900 10971.66631372 0 106.73566113 0 3263.45701705 0 140.82557767 0 465.20704895 0 22218
0.14550000 0.14550500 11058.83872702 0 127.20218921 0 3114.99928588 0 122.58060083 0 127.65726176 0 23559
0.14650000 0.14650700 10727.62120239 0 247.82298856 0 3065.78280206 0 173.37378371 0 450.54396920 0 23044
0.14750000 0.14750500 10670.94197165 0 282.17709077 0 3281.02879654 0 -85.15448210 0 95.87548205 0 23649
0.14850000 0.14849900 10431.09327142 0 263.10611850 0 3074.90639771 0 -34.36639250 0 329.90434690 0 23640
0.14950000 0.14949500 10139.59217592 0 264.62302700 0 3698.37793592 0 -83.50182690 0 485.52919393 0 24457
0.15050000 0.15050000 10165.96645364 0 99.34565937 0 3631.70039587 0 -40.63565353 0 371.40231309 0 24591
0.15150000 0.15149900 9882.44850434 0 10.32281701 0 3621.71315888 0 252.93508092 0 723.57753413 0 25020
0.15250000 0.15250500 10026.38872698 0 37.78895882 0 3406.55574300 0 210.49485989 0 669.03526207 0 25297
0.15350000 0.15350100 10096.14437334 0 -73.48347668 0 3354.29436986 0 200.16216637 0 506.66294031 0 25452
0.15450000 0.15450400 10137.51057886 0 33.56962800 0 3186.50435956 0 216.03545123 0 77.00912635 0 26061
0.15550000 0.15549900 9988.00097683 0 281.43635224 0 3025.35774415 0 -343.78461329 0 578.77256292 0 26128
0.15650000 0.15649500 9911.53550163 0 205.22554051 0 3051.42199677 0 8.77864844 0 497.69324997 0 26331
0.15750000 0.15749700 9807.86532436 0 51.31203201 0 3096.33134624 0 177.60009009 0 584.30872533 0 27345
0.15850000 0.15849900 9756.26829070 0 -33.62343950 0 2821.69340143 0 347.01662491 0 24.13434641 0 26980
0.15950000 0.15949700 9653.25138059 0 -13.83730577 0 2790.66874729 0 321.58128034 0 -143.28031208 0 27777
0.16050000 0.16050000 9670.45777336 0 240.15540362 0 2753.08927686 0 -155.76546555 0 -330.61629739 0 28224
0.16150000 0.16150500 9532.51875077 0 174.32711087 0 2723.27150612 0 -9.10200462 0 -351.74229314 0 28075
0.16250000 0.16249700 9269.90535072 0 255.08754087 0 2828.05998820 0 77.49741587 0 81.18959330 0 28590
0.16350000 0.16349900 9128.50069046 0 252.80332026 0 2715.45444480 0 18.67812618 0 50.19904192 0 29163
0.16450000 0.16449100 8888.71842419 0 165.42717619 0 2841.86717725 0 379.28691559 0 223.40961956 0 28996
0.16550000 0.16550500 8873.00679527 0 183.99325044 0 3035.77680180 0 212.09591806 0 481.69927677 0 30777
0.16650000 0.16650700 8705.10606172 0 124.06318513 0 3032.23365786 0 1.03655340 0 756.83879789 0 29211
0.16750000 0.16749900 8572.94679268 0 189.33121824 0 3106.97185039 0 7.07841546 0 587.42890646 0 30922
0.16850000 0.16850800 8478.86524870 0 138.09846407 0 3190.68969834 0 -264.08380478 0 447.03847116 0 30867
0.16950000 0.16949900 8326.70936104 0 220.55517423 0 3206.58955678 0 -91.26374804 0 520.02170020 0 30852
0.17050000 0.17049200 8256.25615822 0 61.79154456 0 3058.65222488 0 -58.58610653 0 490.71989980 0 31257
0.17150000 0.17149500 8106.95693037 0 21.23007561 0 2860.73441874 0 262.87581415 0 -22.87442657 0 32608
0.17250000 0.17250900 8199.04545588 0 63.13716420 0 2733.67949145 0 426.52366773 0 -246.69914759 0 32361
0.17350000 0.17350400 8070.87222378 0 -3.57362605 0 2368.48100196 0 344.74901279 0 56.99257754 0 32508
0.17450000 0.17449800 8051.67281255 0 13.51831209 0 2177.11801212 0 316.94640517 0 134.48224278 0 32791
0.17550000 0.17549800 8047.55390771 0 -23.57475111 0 2027.05479385 0 265.28958096 0 1.85578807 0 33633
0.17650000 0.17650100 8017.19359306 0 99.46612627 0 2297.85064194 0 8.26235701 0 -158.98861930 0 33984
0.17750000 0.17750300 7965.85122288 0 211.89550898 0 2288.93742046 0 -310.49234703 0 90.31783933 0 34069
0.17850000 0.17849800 7890.02794252 0 129.56945226 0 2551.18543379 0 -214.87950052 0 464.56596135 0 34536
