### header ###
fiducial parameters:
Omega_m = 0.31
Omega_nu = 0
Omega_de = 0.69
Omega_k = 0
H_0 = 100
w_de = -1
zeff = 0
beta = 0
fgrowth = 0
b_1 = 2
gamma = 0.55
Lx = 3500 Ly = 3500 Lz = 3500
nx = 700 ny = 700 nz = 700
xoffset = -685.467585 yoffset = -31.7331281 zoffset = 572.489161
bins = 400 dk = 0.001
kx_ny = 0.628318531 ky_ny = 0.628318531 kz_ny = 0.628318531
############################
A(data) = 8.03520385 (not used)
A(ran) = 8.0340021 (used)
Ngal = 477495
weighted Ngal = 0
Nran = 23820508
weighted Nran = 0
SN(data) = 3489.11324
SN(ran) = 69.979072
SN(data+ran) = 3559.09231
############################
13 columns: k_central k_mean P_0(k) sigma^{lin}_{P_0(k)} P^img_1(k) sigma^{lin}_{P_1(k)} P_2(k) sigma^{lin}_{P_2(k)} P^img_3(k) sigma^{lin}_{P_3(k)} P_4(k) sigma^{lin}_{P_4(k)} N_modes
### header ###
0.00050000 0 0 0 0 0 0 0 0 0 0 0 0
0.00150000 0.00179520 6142.06216805 0 -7733.28811239 0 -3090.66231593 0 2706.41942775 0 -2901.09304271 0 3
0.00250000 0.00253879 6853.97943691 0 -485.49044079 0 -381.27882683 0 5934.41178840 0 19572.99147491 0 6
0.00350000 0.00331552 11171.20067928 0 748.79143221 0 7172.08732895 0 -3207.46427044 0 2169.71062681 0 7
0.00450000 0.00420575 13117.60465915 0 -2300.40834897 0 8906.21269740 0 272.34043740 0 9247.39531436 0 24
0.00550000 0.00557378 22761.93174593 0 -9498.44920730 0 13741.86233242 0 11606.89666089 0 4025.77550849 0 45
0.00650000 0.00659388 42994.16944055 0 -20252.05715604 0 -5983.19645155 0 30319.34705090 0 27046.58928100 0 40
0.00750000 0.00754703 59742.05723798 0 -23795.53326775 0 9394.49114958 0 8862.55452064 0 18360.23973753 0 57
0.00850000 0.00846663 71441.51853436 0 -10518.87466259 0 8677.21487550 0 14484.37243476 0 31441.52717127 0 75
0.00950000 0.00948925 82555.36457108 0 88.50518904 0 33470.19852454 0 6660.56806698 0 14941.21655678 0 112
0.01050000 0.01054430 85499.38501711 0 1976.50963105 0 11324.44165477 0 13351.34143607 0 42571.76024872 0 105
0.01150000 0.01145670 88619.12325801 0 7238.43269927 0 42085.68518918 0 15023.15176044 0 32269.07272821 0 144
0.01250000 0.01249090 80831.18215032 0 470.15084198 0 15994.52681678 0 12360.03619505 0 18976.19316719 0 169
0.01350000 0.01339930 85300.41534011 0 -9645.45646392 0 23622.36210759 0 5845.00276549 0 6785.60783116 0 180
0.01450000 0.01448870 93560.48037807 0 4921.10583797 0 23458.04880728 0 -6772.64213880 0 -6888.35900548 0 267
0.01550000 0.01550050 82998.47901032 0 1681.56504253 0 26601.26037680 0 -2663.53631372 0 2366.98623811 0 238
0.01650000 0.01653350 84208.13049675 0 6792.11835815 0 17053.92685542 0 -5429.49163202 0 -13405.37438118 0 315
0.01750000 0.01747870 71321.93742632 0 4122.94623110 0 14834.59006877 0 1253.32073552 0 2044.29440359 0 297
0.01850000 0.01844180 75924.92429993 0 -1652.57769616 0 12183.32189095 0 13417.77538498 0 -34507.45391355 0 388
0.01950000 0.01947590 75066.81912648 0 -1367.74214020 0 9635.50244391 0 11938.84495895 0 -24058.72242869 0 399
0.02050000 0.02045430 71948.96318080 0 2270.60165056 0 -2711.13623812 0 -7661.81625568 0 -35442.06885149 0 462
0.02150000 0.02154770 70440.24820101 0 3909.64896579 0 1436.80023009 0 -11608.88967936 0 -26912.72487395 0 571
0.02250000 0.02255340 70979.02752668 0 -143.44086079 0 8054.24159190 0 -7350.06387809 0 -20805.11978073 0 510
0.02350000 0.02348930 64770.11066138 0 1050.27090684 0 5909.94195055 0 -1197.84838818 0 -16396.00931470 0 555
0.02450000 0.02439640 71158.39918875 0 -2566.70883318 0 7985.11706806 0 452.07084279 0 -5310.56379114 0 592
0.02550000 0.02547300 71096.61561626 0 -1423.61309123 0 11357.21573623 0 -98.09659041 0 -16800.59206357 0 837
0.02650000 0.02652900 69046.46395284 0 5691.93894720 0 17428.39288079 0 651.10695373 0 -17197.20273858 0 723
0.02750000 0.02749970 66145.07195736 0 5831.52774619 0 19861.97915268 0 -13027.25448863 0 -6897.21686533 0 826
0.02850000 0.02848090 64397.08403824 0 3975.11962244 0 25778.47591952 0 -9860.68031374 0 -5892.90164266 0 831
0.02950000 0.02946900 60365.20767878 0 1182.35820576 0 31948.30747822 0 -1330.83808158 0 -5672.21913669 0 996
0.03050000 0.03053250 59811.81288434 0 2513.26272129 0 28824.14030739 0 6696.06594035 0 -2434.88173389 0 1041
0.03150000 0.03150510 58657.41229875 0 1666.53989775 0 27924.18174613 0 8928.93310793 0 -3620.50627547 0 1036
0.03250000 0.03246190 56198.80257277 0 1037.69274584 0 22057.95333396 0 14181.87652071 0 -6801.00943498 0 1059
0.03350000 0.03345080 54253.50582538 0 1694.04355260 0 20288.70655119 0 4625.49690996 0 -532.02410030 0 1302
0.03450000 0.03451200 51924.77446952 0 2303.45323830 0 16290.71150567 0 2124.90092827 0 -5317.31790928 0 1339
0.03550000 0.03553350 51463.39069433 0 1170.98692817 0 19324.86067573 0 -3009.85648940 0 -287.09873915 0 1365
0.03650000 0.03647120 48293.05192901 0 1457.43904355 0 17266.29404545 0 -5444.59428307 0 284.73258334 0 1308
0.03750000 0.03744890 48734.94841252 0 2400.08141699 0 21900.94776803 0 -5393.38478079 0 -5941.57558256 0 1579
0.03850000 0.03847530 47296.32124883 0 4319.44677965 0 24291.35197313 0 -1733.54960756 0 -10190.97883541 0 1662
0.03950000 0.03950240 42898.17238437 0 1897.15427908 0 21508.43385321 0 118.20481807 0 -7190.04663981 0 1683
0.04050000 0.04050350 41699.59322275 0 -31.93989251 0 22033.70494261 0 4000.86277764 0 -11906.84594023 0 1822
0.04150000 0.04152450 43174.64833509 0 -663.69729428 0 20335.09959218 0 4230.28134789 0 -9026.15919216 0 1887
0.04250000 0.04250150 43127.59095461 0 -1107.32106046 0 21368.92256050 0 2687.39717371 0 -7823.04037737 0 1920
0.04350000 0.04349210 45185.05035241 0 278.39699908 0 18874.43850211 0 2900.76087296 0 -3568.58814440 0 2005
0.04450000 0.04448520 45993.55151067 0 -410.82089668 0 19679.17506992 0 1285.27546495 0 3996.63314956 0 2151
0.04550000 0.04548030 44842.36189928 0 715.50913104 0 17107.51690755 0 2934.62004226 0 1682.60584107 0 2274
0.04650000 0.04648670 47739.54641132 0 -750.26515864 0 20596.40645790 0 5075.42082897 0 11289.12093860 0 2311
0.04750000 0.04749250 45685.85160396 0 1313.64276113 0 19782.92275348 0 4918.59242024 0 10431.77975556 0 2568
0.04850000 0.04851840 45185.05035241 0 2084.98519730 0 17454.19139762 0 3337.92947378 0 11858.90277376 0 2493
0.04950000 0.04949480 42684.14434563 0 872.77821829 0 20250.61775382 0 2773.73916264 0 11185.15180855 0 2644
0.05050000 0.05050630 41927.57239077 0 2026.95514293 0 18404.86120655 0 -1076.73265592 0 7676.32100119 0 2829
0.05150000 0.05149060 39054.63627007 0 2617.17648971 0 19752.80602997 0 -2374.54863596 0 6514.62375355 0 2784
0.05250000 0.05249300 37175.10913211 0 2569.20010627 0 17479.10412846 0 -930.85034750 0 5192.96462924 0 3055
0.05350000 0.05348950 36098.32554350 0 474.99276963 0 17791.45441159 0 505.03641579 0 4896.59171082 0 3009
0.05450000 0.05448610 35441.29378876 0 -545.60319946 0 14069.27097731 0 4226.40603420 0 -1126.62012262 0 3336
0.05550000 0.05550870 36260.75654858 0 -371.55843287 0 13980.36020902 0 3767.81248486 0 -1183.13326850 0 3349
0.05650000 0.05647670 35372.97754463 0 493.68396115 0 9689.55753367 0 3073.00195784 0 -4159.45168602 0 3324
0.05750000 0.05747970 34941.37832319 0 1112.48076383 0 9658.17856513 0 472.90231470 0 -4535.04708852 0 3639
0.05850000 0.05849280 33885.85359823 0 1158.23160998 0 9490.45498878 0 -318.40573758 0 -1986.24220457 0 3846
0.05950000 0.05951020 33159.39836688 0 -255.71644892 0 9521.28034108 0 -676.04293645 0 -1768.41635841 0 3787
0.06050000 0.06049470 33554.23746991 0 -786.67539158 0 10403.68926750 0 773.51925523 0 -1160.24677310 0 3930
0.06150000 0.06148310 34037.76589475 0 259.23855544 0 11872.41101004 0 -752.47630191 0 -186.02723651 0 4083
0.06250000 0.06249100 33935.45761342 0 808.44247494 0 12424.03423251 0 82.74237614 0 -1520.21912528 0 4303
0.06350000 0.06350600 32998.73893376 0 1319.99827558 0 11525.29362698 0 -2723.19399985 0 -1819.76980092 0 4470
0.06450000 0.06451750 32400.39050056 0 1559.93555440 0 14417.93848585 0 -1395.63332642 0 -277.80795140 0 4479
0.06550000 0.06550280 31802.81713010 0 170.00447527 0 14929.92278546 0 -736.40150074 0 -2095.90250957 0 4636
0.06650000 0.06648880 31797.50241419 0 -126.19682212 0 13891.78161047 0 1358.76248477 0 -1820.25698321 0 4653
0.06750000 0.06749660 32034.78233505 0 1236.98905641 0 13661.58797749 0 2274.47696425 0 -3057.17960568 0 5220
0.06850000 0.06852730 30922.23513727 0 168.82084374 0 11116.83556442 0 2926.09435215 0 -3205.15015455 0 5029
0.06950000 0.06949320 30163.55944070 0 423.57732210 0 11393.53296164 0 1872.52942868 0 -1967.13137193 0 5040
0.07050000 0.07048030 30001.23915886 0 170.46840568 0 9263.90415067 0 2172.68908219 0 -4522.62394007 0 5475
0.07150000 0.07148790 29016.79875923 0 1687.04584332 0 9566.97582560 0 620.58830483 0 -3895.04456935 0 5509
0.07250000 0.07249820 28089.38083242 0 850.70886047 0 8419.76117882 0 -1230.26815525 0 -3551.31531768 0 5916
0.07350000 0.07351270 26711.87290174 0 106.44955225 0 8150.42687760 0 789.88747300 0 -615.98664664 0 5721
0.07450000 0.07449140 28395.41989041 0 -412.27801462 0 9302.84551705 0 846.12602522 0 -1917.44985047 0 6028
0.07550000 0.07549160 27641.94818650 0 -369.44804776 0 8272.33317386 0 1939.00766689 0 -1689.03886179 0 6183
0.07650000 0.07648840 27544.95462109 0 600.21854886 0 8604.06002542 0 951.07062709 0 -47.30296464 0 6330
0.07750000 0.07749960 27344.10264888 0 744.63598870 0 7338.63723888 0 1646.35504961 0 1401.03662093 0 6583
0.07850000 0.07848650 26776.42455543 0 450.71780470 0 8783.17702402 0 297.03172175 0 2760.30843264 0 6549
0.07950000 0.07947320 26433.84682554 0 501.98931200 0 8468.37975710 0 809.85308912 0 1734.74541864 0 6828
0.08050000 0.08048110 26502.27379292 0 149.73879915 0 8271.60240042 0 497.11859631 0 5060.87179416 0 7147
0.08150000 0.08149960 25449.62787241 0 977.47812178 0 8333.12023711 0 935.19623499 0 4118.67231372 0 7386
0.08250000 0.08250610 25281.10708867 0 621.62467443 0 7295.68769090 0 259.22416142 0 3015.52551971 0 7227
0.08350000 0.08350160 24278.50807634 0 617.85565507 0 7340.79634222 0 198.89217072 0 3017.13100681 0 7798
0.08450000 0.08449610 23526.91866765 0 1319.26750214 0 7328.91573768 0 -249.81932872 0 2177.74913463 0 7371
0.08550000 0.08548940 22459.65727838 0 934.05578554 0 7468.48239202 0 -772.77630223 0 1535.33284865 0 8256
0.08650000 0.08650700 21661.89627520 0 442.50989031 0 7013.32126338 0 396.12017101 0 985.45573181 0 8037
0.08750000 0.08749060 21499.46527011 0 -157.06535648 0 7118.68550635 0 -21.41088667 0 725.33803378 0 8155
0.08850000 0.08849210 21944.68345107 0 -272.37808331 0 7602.46859465 0 323.85664309 0 -762.39267602 0 8718
0.08950000 0.08949900 22296.89410355 0 61.63464972 0 6832.97523673 0 535.81969325 0 -819.29778219 0 8571
0.09050000 0.09049190 21612.18153676 0 323.87546604 0 6751.16182865 0 239.94613668 0 -1294.45442222 0 8932
0.09150000 0.09150830 21177.59278763 0 1112.91258450 0 6679.77855054 0 143.78521009 0 -676.98186960 0 9285
0.09250000 0.09250820 20124.17180439 0 1265.37849725 0 7200.79786721 0 225.10147080 0 325.25286325 0 9204
0.09350000 0.09350330 19367.71057278 0 656.85570477 0 6372.43295823 0 1022.59009479 0 301.54923027 0 9349
0.09450000 0.09448040 18688.42344515 0 396.38037065 0 6457.88916118 0 956.51931813 0 1316.42191466 0 9564
0.09550000 0.09549270 18617.33911982 0 377.41015654 0 6322.62964119 0 509.78644314 0 376.43579195 0 10155
0.09650000 0.09649430 18494.43631433 0 98.23743038 0 7287.61596611 0 212.85215785 0 2028.90387209 0 9913
0.09750000 0.09749140 18001.38569016 0 357.28842064 0 6774.36942147 0 -94.46287485 0 1075.33422129 0 10476
0.09850000 0.09850240 18025.41263501 0 245.86983046 0 7137.85170061 0 173.89418297 0 1169.34822410 0 10575
0.09950000 0.09950330 17794.33321605 0 61.88311269 0 6476.81176429 0 629.88130705 0 2065.21002517 0 10882
0.10050000 0.10051200 17710.40499392 0 73.86137512 0 5703.25486316 0 724.89624802 0 1120.19817423 0 10875
0.10150000 0.10150300 17684.27430735 0 337.67158276 0 5670.45863705 0 307.67001143 0 708.37080323 0 11118
0.10250000 0.10250800 17389.63974392 0 352.29701661 0 4807.59236393 0 568.91819383 0 572.93080435 0 11575
0.10350000 0.10349800 16614.02339038 0 393.62004007 0 5314.82663620 0 -301.72085131 0 344.68590053 0 11364
0.10450000 0.10450100 16339.31901163 0 555.53396759 0 5029.82499537 0 -133.53555901 0 -145.96645808 0 12093
0.10550000 0.10551000 16140.01716489 0 361.87014865 0 5667.34731377 0 -332.70121615 0 -395.11037499 0 12067
0.10650000 0.10649700 15600.57349973 0 541.55958644 0 5677.92138398 0 163.67553440 0 -187.78884339 0 12054
0.10750000 0.10749900 15147.38324490 0 331.08465673 0 5639.64435708 0 -217.01313752 0 356.60636543 0 12807
0.10850000 0.10850100 14958.04649050 0 106.27948134 0 5625.30569644 0 1068.18260669 0 848.74905897 0 12736
0.10950000 0.10950300 14903.90282214 0 70.83630526 0 5217.04693572 0 1242.71344835 0 1261.99036585 0 12933
0.11050000 0.11050200 14857.28833465 0 -65.28718823 0 4871.05892979 0 1009.41513549 0 1233.74486524 0 13428
0.11150000 0.11150900 14886.18710243 0 170.48279970 0 4200.00961183 0 904.38859842 0 1240.88651475 0 13453
0.11250000 0.11250000 14649.35007456 0 489.64699153 0 4429.70499020 0 -398.55829694 0 2072.99386952 0 13668
0.11350000 0.11349100 14594.32062021 0 -78.04549595 0 4230.02668442 0 -29.46556008 0 1511.41662704 0 13791
0.11450000 0.11448600 14486.58689972 0 -10.00097774 0 4362.27453205 0 254.24604418 0 2306.59777855 0 14205
0.11550000 0.11549300 14840.34767768 0 -44.91089959 0 4212.02308426 0 33.09672901 0 621.62578167 0 14776
0.11650000 0.11649800 14625.65529945 0 -11.03578615 0 4466.40974697 0 -10.47754167 0 996.79822136 0 14553
0.11750000 0.11747300 14662.08324810 0 234.82518645 0 4179.49259394 0 -61.96748380 0 780.16486458 0 14568
0.11850000 0.11849100 14552.24578590 0 131.52371759 0 4170.53508317 0 -190.78944342 0 231.29643653 0 16015
0.11950000 0.11950300 14412.84521643 0 166.88983029 0 4433.65781016 0 -101.70162865 0 489.00811838 0 15270
0.12050000 0.12050700 14293.04266189 0 317.43690916 0 4263.84156441 0 -324.43572567 0 -88.65754423 0 15999
0.12150000 0.12150000 14049.78368563 0 247.01692331 0 4314.79640323 0 25.25896244 0 189.43861979 0 15670
0.12250000 0.12250700 13861.22199397 0 43.47670136 0 4420.16064620 0 -77.29346365 0 -526.34731937 0 16887
0.12350000 0.12352200 13883.25592036 0 182.71882585 0 4343.76160495 0 235.54267310 0 -631.06383134 0 16407
0.12450000 0.12449800 13667.45630964 0 240.41671048 0 4448.99298003 0 -181.23181263 0 -904.81488293 0 16306
0.12550000 0.12549900 13413.34645505 0 138.39963130 0 4586.42267568 0 -214.68794930 0 -483.79637509 0 17523
0.12650000 0.12650100 13162.66902116 0 375.39942235 0 4433.76853340 0 650.35735734 0 -567.72459722 0 17154
0.12750000 0.12750600 13183.04209882 0 -216.45952127 0 4186.43494161 0 940.37808301 0 -488.57297602 0 18007
0.12850000 0.12850300 13097.12085823 0 7.07693177 0 3779.67094474 0 729.20227514 0 -414.60873900 0 17496
0.12950000 0.12949900 13162.66902116 0 258.12357233 0 3768.22216088 0 378.71558363 0 -358.41669054 0 18405
0.13050000 0.13049000 12857.95864215 0 253.11888152 0 3309.37394807 0 -74.31611550 0 -183.36766409 0 18100
0.13150000 0.13148800 12565.31709719 0 326.31912813 0 3193.26955002 0 -268.16949264 0 -193.78561451 0 19059
0.13250000 0.13249300 12608.05627099 0 233.05140002 0 3098.06970123 0 265.33054856 0 34.76898223 0 18957
0.13350000 0.13349100 12312.97881458 0 -30.70798565 0 3140.95281525 0 -43.91959435 0 -175.47420373 0 19468
0.13450000 0.13450700 12403.32898510 0 199.11361721 0 3161.93487079 0 127.86763594 0 -319.39228172 0 19953
0.13550000 0.13551000 12337.44865242 0 197.56349174 0 3605.52542000 0 49.82324722 0 137.36104724 0 19956
0.13650000 0.13649900 11929.98709910 0 278.83103421 0 3321.95210906 0 66.38401273 0 -284.82337640 0 19723
0.13750000 0.13749600 11960.65743885 0 177.25463356 0 3471.33991552 0 164.70193891 0 634.80516990 0 20946
0.13850000 0.13851100 11806.97357036 0 37.09992805 0 3759.72968774 0 -156.93138135 0 10.83875413 0 20955
0.13950000 0.13949800 11706.76903075 0 294.01783493 0 3805.15943648 0 -153.14686073 0 351.33926052 0 20506
0.14050000 0.14048300 11739.54311222 0 87.37149370 0 3798.81499435 0 -36.90394790 0 168.98582138 0 21447
0.14150000 0.14148400 11412.57736032 0 133.34400779 0 3662.26001237 0 -37.17610564 0 61.89274561 0 21771
0.14250000 0.14249400 11359.54092444 0 273.98135594 0 3739.87700934 0 14.02697470 0 -508.06026770 0 22470
0.14350000 0.14350900 11159.68546147 0 272.11899091 0 3581.40989654 0 -75.71266783 0 -458.26802299 0 22519
0.14450000 0.14449900 10869.26945380 0 228.67672448 0 3236.94987143 0 274.92028908 0 -530.96780052 0 22218
0.14550000 0.14550500 10756.37602995 0 162.74324465 0 3313.42641895 0 -54.60892745 0 -692.38568788 0 23559
0.14650000 0.14650700 10671.20770744 0 146.04507159 0 3448.65272196 0 218.37724793 0 -448.60963405 0 23044
0.14750000 0.14750500 10492.71075904 0 34.54033872 0 3329.31520507 0 233.04475662 0 -684.50551431 0 23649
0.14850000 0.14849900 10531.34210033 0 91.37934311 0 3430.82627901 0 275.74407005 0 -407.45380270 0 23640
0.14950000 0.14949500 10365.03578156 0 230.56012693 0 3354.70404588 0 206.94396533 0 -45.29023744 0 24457
0.15050000 0.15050000 10206.04826949 0 144.24692604 0 3272.63597432 0 288.84484478 0 456.37354821 0 24591
0.15150000 0.15149900 10049.76240467 0 154.18433756 0 3266.33582150 0 366.98224102 0 507.38153419 0 25020
0.15250000 0.15250500 9969.80914715 0 120.65069462 0 3265.85971153 0 175.09110129 0 509.54506646 0 25297
0.15350000 0.15350100 9905.97719457 0 191.18251095 0 3348.30424213 0 245.57419939 0 253.45548019 0 25452
0.15450000 0.15450400 9644.98035395 0 183.47063671 0 3028.41370580 0 59.34577873 0 548.77763499 0 26061
0.15550000 0.15549900 9456.18614347 0 117.05661798 0 2816.40083017 0 14.33589256 0 219.32836064 0 26128
0.15650000 0.15649500 9524.64632782 0 55.97469872 0 2793.35932222 0 40.18722438 0 -58.17853425 0 26331
0.15750000 0.15749700 9394.25863076 0 91.60588288 0 2552.11550907 0 64.61742330 0 -261.35558395 0 27345
0.15850000 0.15849900 9238.64817776 0 162.95140436 0 2447.31595467 0 129.50966171 0 70.96175470 0 26980
0.15950000 0.15949700 9282.08490802 0 26.26056494 0 2318.64446795 0 166.69606461 0 -159.39829532 0 27777
0.16050000 0.16050000 9099.45798246 0 25.42017549 0 2378.01427363 0 -78.52525978 0 -154.73241764 0 28224
0.16150000 0.16150500 9141.83176954 0 248.78738805 0 2677.03347768 0 -96.93222473 0 -343.77796990 0 28075
0.16250000 0.16249700 8935.29969470 0 235.47402469 0 2710.23937981 0 -305.11673333 0 30.54433669 0 28590
0.16350000 0.16349900 8837.18782448 0 113.52897530 0 3009.43574106 0 -137.73639905 0 -96.85914739 0 29163
0.16450000 0.16449100 8803.86012678 0 95.55748488 0 3020.65200610 0 -26.44602638 0 91.07762226 0 28996
0.16550000 0.16550500 8797.20565956 0 49.62405610 0 3013.47713962 0 239.99042598 0 -570.57018469 0 30777
0.16650000 0.16650700 8646.05735346 0 23.56799699 0 2707.37164768 0 223.47051735 0 27.32229017 0 29211
0.16750000 0.16749900 8648.28289075 0 107.54615530 0 2500.38560752 0 482.61717250 0 -181.13216171 0 30922
0.16850000 0.16850800 8673.23991089 0 -30.24372307 0 2130.11599326 0 595.41315989 0 -206.23422930 0 30867
0.16950000 0.16949900 8552.64014897 0 -39.60969191 0 2050.07415715 0 297.86325334 0 -117.67445371 0 30852
0.17050000 0.17049200 8586.51039059 0 96.01255743 0 1879.26140217 0 333.58589490 0 185.66960042 0 31257
0.17150000 0.17149500 8418.95289911 0 160.32394168 0 1773.23281971 0 140.50780195 0 380.38196852 0 32608
0.17250000 0.17250900 8348.64363651 0 85.56703692 0 1643.11085844 0 281.35220257 0 483.43320284 0 32361
0.17350000 0.17350400 8264.74863136 0 -38.31511570 0 1587.71601737 0 98.88427560 0 583.16163248 0 32508
0.17450000 0.17449800 8383.80934013 0 11.42243173 0 1525.66670909 0 99.38253021 0 459.33207340 0 32791
0.17550000 0.17549800 8237.41106138 0 171.28000708 0 1556.77994183 0 -88.50817856 0 461.90195999 0 33633
0.17650000 0.17650100 8215.67608776 0 198.86116821 0 1437.90746257 0 -130.42755743 0 217.57118269 0 33984
0.17750000 0.17750300 8085.41018627 0 73.14322414 0 1458.75665021 0 -226.74017487 0 355.26439967 0 34069
0.17850000 0.17849800 7911.33109547 0 146.69280259 0 1674.12444025 0 -50.80901630 0 89.09058285 0 34536
