### header ###
fiducial parameters:
Omega_m = 0.31
Omega_nu = 0
Omega_de = 0.69
Omega_k = 0
H_0 = 100
w_de = -1
zeff = 0
beta = 0
fgrowth = 0
b_1 = 2
gamma = 0.55
Lx = 3500 Ly = 3500 Lz = 3500
nx = 700 ny = 700 nz = 700
xoffset = -685.467585 yoffset = -31.7331281 zoffset = 572.489161
bins = 400 dk = 0.001
kx_ny = 0.628318531 ky_ny = 0.628318531 kz_ny = 0.628318531
############################
A(data) = 8.05526909 (not used)
A(ran) = 8.05355104 (used)
Ngal = 478505
weighted Ngal = 0
Nran = 23820508
weighted Nran = 0
SN(data) = 3487.04721
SN(ran) = 70.1493504
SN(data+ran) = 3557.19656
############################
13 columns: k_central k_mean P_0(k) sigma^{lin}_{P_0(k)} P^img_1(k) sigma^{lin}_{P_1(k)} P_2(k) sigma^{lin}_{P_2(k)} P^img_3(k) sigma^{lin}_{P_3(k)} P_4(k) sigma^{lin}_{P_4(k)} N_modes
### header ###
0.00050000 0 0 0 0 0 0 0 0 0 0 0 0
0.00150000 0.00179520 16642.58998841 0 -3014.15255143 0 19486.73806458 0 -3879.68725483 0 -38495.59458998 0 3
0.00250000 0.00253879 37064.16443743 0 -4883.43778894 0 14651.01092328 0 -15889.33973100 0 23244.13149178 0 6
0.00350000 0.00331552 40708.39870499 0 -8875.48699603 0 -631.89868463 0 11469.71055639 0 79541.36703219 0 7
0.00450000 0.00420575 40446.64894627 0 -1880.90010624 0 16361.13149152 0 -20574.59397801 0 130.44859485 0 24
0.00550000 0.00557378 54452.91839537 0 -6332.49508261 0 18891.82205207 0 23001.75830150 0 5462.71967880 0 45
0.00650000 0.00659388 62146.85546535 0 -14955.49985579 0 46967.03030873 0 5839.57732633 0 -1731.29085329 0 40
0.00750000 0.00754703 63348.20270817 0 -7303.25008876 0 -18834.13523977 0 34466.37558848 0 10933.92075841 0 57
0.00850000 0.00846663 73294.80426250 0 -6864.70851966 0 11205.85705596 0 23281.44522642 0 -14983.73428408 0 75
0.00950000 0.00948925 82399.57696088 0 -15299.40626466 0 -29603.96414437 0 4273.66271653 0 -32173.40784178 0 112
0.01050000 0.01054430 79909.85400216 0 6206.40344757 0 -11145.51288570 0 -17568.78995949 0 -22590.31071124 0 105
0.01150000 0.01145670 78534.11764344 0 13699.34460512 0 -16599.51864487 0 -47690.93890537 0 -30845.28247978 0 144
0.01250000 0.01249090 63938.13617451 0 8014.62481370 0 -6431.86919785 0 -25509.63987293 0 -15706.75709474 0 169
0.01350000 0.01339930 58981.05635320 0 221.19626183 0 -4039.68234846 0 -19994.73632726 0 -14392.69358526 0 180
0.01450000 0.01448870 64147.40311358 0 -2578.09118310 0 8326.46576990 0 -1431.31942931 0 -36126.44924853 0 267
0.01550000 0.01550050 63146.68639647 0 -5536.26206025 0 12452.93300028 0 1060.01565991 0 -22630.06035734 0 238
0.01650000 0.01653350 66488.53547323 0 -57.91346279 0 13542.67120893 0 -944.94430977 0 -21218.56038946 0 315
0.01750000 0.01747870 68841.84739019 0 8773.28943795 0 13062.24303505 0 3598.39484281 0 -19216.79478550 0 297
0.01850000 0.01844180 58898.78897980 0 3032.94228665 0 15905.50532523 0 -13978.36719055 0 -7364.87864870 0 388
0.01950000 0.01947590 65115.89936547 0 -936.17502851 0 19074.84758132 0 -1369.58014612 0 8064.62743258 0 399
0.02050000 0.02045430 63932.48928885 0 -1243.37778783 0 24308.95696959 0 -1020.11321573 0 1674.73341812 0 462
0.02150000 0.02154770 71681.56653643 0 -5561.69519035 0 22203.33295883 0 8073.14205037 0 -9084.16710189 0 571
0.02250000 0.02255340 73808.11724110 0 -3854.67487306 0 24689.73422011 0 13118.93333812 0 -3617.19565035 0 510
0.02350000 0.02348930 77302.32150736 0 3998.32721526 0 14631.41290835 0 6187.06009611 0 -13973.60609088 0 555
0.02450000 0.02439640 69988.38662516 0 3509.28477267 0 15474.68116654 0 10285.94616538 0 1752.99260994 0 592
0.02550000 0.02547300 69277.76481830 0 2643.78328625 0 6877.09845113 0 1875.24214826 0 2564.53865752 0 837
0.02650000 0.02652900 64297.87600786 0 2785.50904393 0 12725.64436057 0 2899.56506188 0 10461.29857353 0 723
0.02750000 0.02749970 66708.09967439 0 208.59817065 0 10966.26301921 0 -7516.96810240 0 -12500.87616675 0 826
0.02850000 0.02848090 62835.00045283 0 3518.45265762 0 12450.05419583 0 -1115.04954319 0 2071.74269682 0 831
0.02950000 0.02946900 62805.21589906 0 5021.98578939 0 16992.25400618 0 -14041.59016526 0 -503.10318788 0 996
0.03050000 0.03053250 58276.85649473 0 638.15565539 0 14765.49876191 0 -2786.59413176 0 -5138.86525018 0 1041
0.03150000 0.03150510 60310.95328717 0 -2390.08310768 0 20249.39979808 0 4100.64656891 0 -4429.67177322 0 1036
0.03250000 0.03246190 59153.89534362 0 -668.95000517 0 10766.34112228 0 8851.59291907 0 -4218.48932196 0 1059
0.03350000 0.03345080 61221.31983376 0 1166.66872149 0 10869.30267077 0 11302.96134462 0 -11544.11657917 0 1302
0.03450000 0.03451200 58437.51592785 0 1440.37659101 0 7121.27643036 0 1485.37451907 0 -8795.01333925 0 1339
0.03550000 0.03553350 55435.47649977 0 4222.70787771 0 7685.33387360 0 -1943.68018796 0 -10331.98489197 0 1365
0.03650000 0.03647120 52438.64106436 0 2170.28638770 0 6514.60160890 0 -7535.00491953 0 -2380.57198066 0 1308
0.03750000 0.03744890 52674.14941325 0 1946.75829426 0 16343.08360207 0 -6061.09025665 0 -688.19813464 0 1579
0.03850000 0.03847530 51699.23121297 0 1553.96757132 0 18609.80993894 0 -2815.48182721 0 2909.09833355 0 1662
0.03950000 0.03950240 50633.18777943 0 4254.35258204 0 24575.91072097 0 282.92115100 0 4689.77175554 0 1683
0.04050000 0.04050350 47240.07383875 0 2693.69732653 0 25452.61740011 0 4539.61995867 0 9256.47462071 0 1822
0.04150000 0.04152450 46595.11091807 0 1286.77022880 0 25952.97575867 0 5671.73195440 0 9170.74160964 0 1887
0.04250000 0.04250150 45295.33070761 0 -198.98407101 0 22819.28638849 0 7714.28800300 0 9569.38959241 0 1920
0.04350000 0.04349210 44686.79573557 0 1447.33001099 0 24243.63025316 0 6383.57171699 0 7295.49946138 0 2005
0.04450000 0.04448520 42199.95158131 0 2793.25967130 0 20441.72608018 0 1836.34507117 0 8441.04218712 0 2151
0.04550000 0.04548030 40338.69377929 0 920.50104550 0 15979.68990152 0 4771.82875477 0 11074.76073011 0 2274
0.04650000 0.04648670 39833.35287457 0 -408.45252640 0 14258.60773171 0 2005.19802466 0 3472.45822032 0 2311
0.04750000 0.04749250 41889.59431664 0 -2344.14403201 0 12270.12891753 0 1970.66344355 0 1154.47809187 0 2568
0.04850000 0.04851840 42331.93369314 0 -443.66473379 0 12643.70915691 0 -1601.30175992 0 -3051.13411633 0 2493
0.04950000 0.04949480 42008.40036194 0 1785.12449656 0 9926.75994826 0 -2648.58867522 0 1337.30431927 0 2644
0.05050000 0.05050630 40094.10612405 0 1573.12269326 0 12094.30039941 0 -2370.38544183 0 -1014.93247494 0 2829
0.05150000 0.05149060 40072.18292091 0 1693.86639541 0 12870.80253894 0 829.28612641 0 298.93394715 0 2784
0.05250000 0.05249300 38668.43358040 0 923.98661335 0 13011.86395713 0 1745.62951393 0 -2956.18893101 0 3055
0.05350000 0.05348950 37220.61638711 0 925.97298842 0 13595.26475182 0 1422.66087130 0 2382.11103381 0 3009
0.05450000 0.05448610 38018.04522055 0 266.04139181 0 14911.21055652 0 2840.89281267 0 5419.47117806 0 3336
0.05550000 0.05550870 37047.33450370 0 -761.62425667 0 16913.97266972 0 1503.18988970 0 6462.18522321 0 3349
0.05650000 0.05647670 38085.47567870 0 445.05873948 0 13710.74909968 0 3607.89489751 0 10514.52323893 0 3324
0.05750000 0.05747970 37655.53730599 0 327.35217603 0 16936.00659611 0 1748.30901654 0 7901.63173893 0 3639
0.05850000 0.05849280 37066.71107213 0 1435.69299761 0 14687.10670219 0 -411.87498200 0 9484.30984851 0 3846
0.05950000 0.05951020 36054.70058371 0 1201.87871441 0 14531.76198498 0 1743.37075967 0 6607.12195508 0 3787
0.06050000 0.06049470 34213.15151987 0 1515.38051933 0 13690.92963826 0 -45.09890767 0 6146.93399097 0 3930
0.06150000 0.06148310 33587.23299787 0 1632.17140152 0 14488.91208794 0 -711.62606672 0 662.60113412 0 4083
0.06250000 0.06249100 31764.83905597 0 2059.61850114 0 13065.34328600 0 1145.18841134 0 2989.57199033 0 4303
0.06350000 0.06350600 30450.55410000 0 808.36607589 0 10732.33801276 0 1542.66272768 0 982.99103231 0 4470
0.06450000 0.06451750 30113.73397902 0 -534.82650572 0 11305.06508633 0 2236.46567314 0 724.83867193 0 4479
0.06550000 0.06550280 31133.82726456 0 -1023.23228963 0 10316.82687930 0 1792.10006120 0 -869.35465546 0 4636
0.06650000 0.06648880 30331.63733145 0 276.34972622 0 10463.88949754 0 -150.26030565 0 1210.03901781 0 4653
0.06750000 0.06749660 30102.21876121 0 1510.28724991 0 11364.41274736 0 29.40875906 0 3769.19652546 0 5220
0.06850000 0.06852730 29587.24493389 0 -90.43000198 0 11321.89502006 0 852.87571443 0 3446.84793302 0 5029
0.06950000 0.06949320 29639.72775353 0 -264.01626360 0 12722.21193987 0 1399.70794195 0 5503.57655738 0 5040
0.07050000 0.07048030 29680.36318562 0 792.88807303 0 12314.52894005 0 461.44245851 0 3685.32366496 0 5475
0.07150000 0.07148790 28910.72588747 0 1122.35727757 0 13012.63901987 0 1001.42534590 0 5540.39203740 0 5509
0.07250000 0.07249820 28780.40462436 0 -159.54666447 0 12470.09510375 0 -476.26276528 0 4319.65715382 0 5916
0.07350000 0.07351270 29029.53193278 0 106.81659982 0 12908.55916657 0 935.83178644 0 5697.55261588 0 5721
0.07450000 0.07449140 29105.59880428 0 600.52525226 0 13588.28918719 0 42.55315874 0 4410.10697527 0 6028
0.07550000 0.07549160 28226.12404393 0 600.05467845 0 12356.16088137 0 -614.27707968 0 4374.95234397 0 6183
0.07650000 0.07648840 27241.68364431 0 645.22201309 0 11834.76510566 0 1924.44755975 0 5080.80197883 0 6330
0.07750000 0.07749960 27111.91599743 0 634.52614731 0 10826.28668885 0 2371.61446988 0 3883.02002460 0 6583
0.07850000 0.07848650 26336.52109038 0 387.13276496 0 9760.74150993 0 2308.11468705 0 3720.96547855 0 6549
0.07950000 0.07947320 25716.69234704 0 173.84435751 0 8623.35908758 0 1567.26543343 0 2740.76577933 0 6828
0.08050000 0.08048110 24898.55826619 0 662.02980216 0 7813.75069684 0 758.82960189 0 2983.07253567 0 7147
0.08150000 0.08149960 24290.02329415 0 800.04965272 0 7511.70874812 0 309.51687521 0 2301.60416005 0 7386
0.08250000 0.08250610 23882.00812459 0 1109.04834313 0 8299.73717778 0 -956.09081916 0 3437.66897574 0 7227
0.08350000 0.08350160 22979.94582161 0 847.17789608 0 8600.00755454 0 -1323.03209258 0 3113.19449693 0 7798
0.08450000 0.08449610 23178.02971262 0 745.14199395 0 9689.38037647 0 -1313.28844674 0 3234.28144115 0 7371
0.08550000 0.08548940 22449.02784656 0 620.74110291 0 9433.63181781 0 -871.55915533 0 3126.37056347 0 8256
0.08650000 0.08650700 22621.64539048 0 -4.22243107 0 10989.10522531 0 173.04161396 0 2736.14861988 0 8037
0.08750000 0.08749060 22511.58648178 0 -200.32603678 0 10639.83981123 0 786.12952596 0 2318.63339562 0 8155
0.08850000 0.08849210 22392.00537374 0 -187.75562641 0 9595.73065316 0 2014.63164540 0 462.97708273 0 8718
0.08950000 0.08949900 22212.96588142 0 346.47961716 0 8370.76614150 0 1348.47629501 0 771.96248636 0 8571
0.09050000 0.09049190 21580.07179479 0 452.69421468 0 9162.18270256 0 1041.84929658 0 651.85433565 0 8932
0.09150000 0.09150830 20898.01658596 0 1305.82569981 0 8726.56422722 0 -52.71002375 0 -11.45299135 0 9285
0.09250000 0.09250820 19611.74461178 0 1105.04016155 0 7704.66615273 0 40.62602061 0 1134.78042601 0 9204
0.09350000 0.09350330 18887.83601514 0 603.29665516 0 8020.58172446 0 737.09684273 0 1452.04682137 0 9349
0.09450000 0.09448040 18759.50777049 0 176.27584004 0 7338.55973260 0 274.40431875 0 1409.62874499 0 9564
0.09550000 0.09549270 18562.75255846 0 42.58205751 0 7808.21453443 0 1194.68170328 0 57.26318516 0 10155
0.09650000 0.09649430 18022.75527706 0 603.00766748 0 6240.27368919 0 227.83190610 0 1120.18710190 0 9913
0.09750000 0.09749140 17897.30583686 0 540.52210960 0 6643.45025281 0 467.08048631 0 888.09567245 0 10476
0.09850000 0.09850240 17297.73944793 0 315.94878870 0 5945.01907558 0 459.85025821 0 801.14581288 0 10575
0.09950000 0.09950330 16961.91583618 0 205.54553070 0 6248.42292026 0 722.75596763 0 866.53342710 0 10882
0.10050000 0.10051200 16832.03746606 0 111.93345329 0 5537.95612594 0 617.93316134 0 1118.95807385 0 10875
0.10150000 0.10150300 16937.11382859 0 -148.12777589 0 5687.98612724 0 467.75257643 0 1215.38695069 0 11118
0.10250000 0.10250800 17088.80467860 0 -169.20948234 0 5152.74994550 0 35.23390914 0 565.77918975 0 11575
0.10350000 0.10349800 17099.10194068 0 469.43667703 0 5926.90475217 0 -511.26016957 0 637.12371471 0 11364
0.10450000 0.10450100 16816.42548806 0 641.96010620 0 6253.06222436 0 -835.08691738 0 969.70645699 0 12093
0.10550000 0.10551000 16051.43856634 0 777.22294788 0 6049.04356725 0 -208.21174652 0 1380.59710931 0 12067
0.10650000 0.10649700 15952.23053597 0 129.76432518 0 6337.05688043 0 272.29061194 0 1714.02909890 0 12054
0.10750000 0.10749900 15920.78513348 0 -354.73846424 0 6759.65430178 0 1549.79330487 0 1656.91804749 0 12807
0.10850000 0.10850100 16168.25159318 0 77.52243932 0 6347.05518974 0 1223.91264080 0 934.47874835 0 12736
0.10950000 0.10950300 16064.83607937 0 -157.59350638 0 6036.84186530 0 360.08750436 0 1188.89087740 0 12933
0.11050000 0.11050200 15951.34474998 0 232.62732997 0 5243.48764739 0 103.04403731 0 1585.13616569 0 13428
0.11150000 0.11150900 15694.90970718 0 187.51978590 0 5180.10966013 0 -53.46316328 0 652.33598178 0 13453
0.11250000 0.11250000 15585.95803097 0 164.60339522 0 4848.46031484 0 93.67851136 0 1086.45858604 0 13668
0.11350000 0.11349100 15394.62825810 0 412.59136141 0 4920.60758336 0 -431.72987486 0 -290.08826685 0 13791
0.11450000 0.11448600 15043.96773109 0 339.09659097 0 4899.90233594 0 -192.56765878 0 -156.61471286 0 14205
0.11550000 0.11549300 14590.00241353 0 454.56322310 0 4948.25517843 0 168.78651954 0 148.34036453 0 14776
0.11650000 0.11649800 14431.22527563 0 496.40000243 0 5290.36787067 0 524.54363766 0 725.82300160 0 14553
0.11750000 0.11747300 14127.28995936 0 134.50881636 0 5245.63567841 0 637.48356527 0 1302.82509979 0 14568
0.11850000 0.11849100 14131.38671954 0 -188.90604096 0 5245.21493006 0 793.83697127 0 1900.56455512 0 16015
0.11950000 0.11950300 14088.53682249 0 189.10423558 0 4723.18803184 0 1203.94923916 0 2585.44320678 0 15270
0.12050000 0.12050700 14373.09557033 0 -169.07550721 0 4965.42835422 0 313.16409901 0 2458.77581085 0 15999
0.12150000 0.12150000 13972.16668865 0 194.85630832 0 4609.96243824 0 83.76379810 0 1770.06613481 0 15670
0.12250000 0.12250700 14000.29039369 0 479.43498634 0 4772.54845588 0 -597.10944005 0 1170.27829938 0 16887
0.12350000 0.12352200 13512.00086919 0 414.16363154 0 4634.14439565 0 -620.15426970 0 1630.89808416 0 16407
0.12450000 0.12449800 13075.75127133 0 159.55441510 0 4142.25636558 0 -359.67339941 0 550.48830917 0 16306
0.12550000 0.12549900 13108.30390630 0 74.23406958 0 4281.13653578 0 527.28957421 0 -135.56843785 0 17523
0.12650000 0.12650100 13033.56571377 0 139.62865936 0 3817.13969193 0 606.66153467 0 -244.17576476 0 17154
0.12750000 0.12750600 12828.72770463 0 89.65272478 0 3551.66963208 0 826.43057384 0 93.14892206 0 18007
0.12850000 0.12850300 12814.33368236 0 179.27090391 0 3385.20830075 0 673.87718972 0 507.30624238 0 17496
0.12950000 0.12949900 12640.49818271 0 111.19825092 0 3356.89636619 0 460.95416899 0 692.86622678 0 18405
0.13050000 0.13049000 12583.69715639 0 145.15042775 0 3676.15578001 0 194.00816824 0 1089.72270740 0 18100
0.13150000 0.13148800 12366.79031319 0 184.03975421 0 3831.17939980 0 -415.10256468 0 965.90643511 0 19059
0.13250000 0.13249300 12502.42629222 0 280.33354869 0 4329.02434062 0 -494.76683452 0 702.08725889 0 18957
0.13350000 0.13349100 12277.65809840 0 136.43540088 0 4577.96341952 0 -865.77165115 0 903.07099177 0 19468
0.13450000 0.13450700 12140.25054740 0 367.14168250 0 4645.34958836 0 -458.54372388 0 597.77045784 0 19953
0.13550000 0.13551000 12053.88641382 0 81.42576599 0 4946.53896808 0 12.01767991 0 588.52285216 0 19956
0.13650000 0.13649900 11949.25294428 0 97.84901323 0 4284.72396902 0 895.68907281 0 590.84693314 0 19723
0.13750000 0.13749600 11778.40697233 0 236.57793547 0 4318.54992134 0 543.16618077 0 821.64179335 0 20946
0.13850000 0.13851100 11639.22784936 0 194.58282190 0 3939.07920516 0 674.36547924 0 483.52510313 0 20955
0.13950000 0.13949800 11199.32438432 0 300.27591292 0 3817.50507865 0 278.62841067 0 720.78287935 0 20506
0.14050000 0.14048300 11092.58717306 0 262.03763916 0 3510.53594538 0 -139.00528747 0 567.73345508 0 21447
0.14150000 0.14148400 10761.15927427 0 96.32501844 0 3543.36538846 0 -42.99372655 0 489.64034813 0 21771
0.14250000 0.14249400 10732.68125483 0 73.34474045 0 3681.90231659 0 -24.31471458 0 372.97901214 0 22470
0.14350000 0.14350900 10637.18245327 0 -62.43827905 0 3336.10254018 0 90.29525179 0 -38.95443173 0 22519
0.14450000 0.14449900 10728.49591605 0 59.56301775 0 3492.51020057 0 235.27915177 0 125.97980455 0 22218
0.14550000 0.14550500 10779.49504417 0 -112.09732370 0 3048.96394066 0 355.95641997 0 -17.65293963 0 23559
0.14650000 0.14650700 10777.28057920 0 93.08503475 0 2882.05971634 0 496.81410738 0 792.64337465 0 23044
0.14750000 0.14750500 10849.11782263 0 121.12680459 0 3024.80412791 0 235.65671805 0 351.37469196 0 23649
0.14850000 0.14849900 10648.02225927 0 262.14946964 0 3144.61775477 0 196.94676325 0 480.11150539 0 23640
0.14950000 0.14949500 10385.70781199 0 337.36487936 0 2823.66427525 0 -84.88143857 0 883.26038820 0 24457
0.15050000 0.15050000 10190.39200219 0 75.10424358 0 2892.91059467 0 -182.11095522 0 974.14092308 0 24591
0.15150000 0.15149900 10372.95249380 0 -247.44985121 0 2985.12091576 0 246.23300271 0 619.35927678 0 25020
0.15250000 0.15250500 10308.63335893 0 26.87076076 0 3050.66907868 0 104.26210376 0 76.34666915 0 25297
0.15350000 0.15350100 10211.32976842 0 403.37254377 0 2914.28018157 0 -219.88640581 0 209.48838557 0 25452
0.15450000 0.15450400 9995.12048169 0 371.50971464 0 2992.35114386 0 -170.38093431 0 283.10716606 0 26061
0.15550000 0.15549900 9682.77019856 0 120.02842996 0 2865.51766307 0 434.20343223 0 472.59782577 0 26128
0.15650000 0.15649500 9688.04062517 0 44.97877294 0 2723.82512236 0 545.96415725 0 322.40395407 0 26331
0.15750000 0.15749700 9634.15162028 0 87.22456395 0 2690.50849698 0 279.00819141 0 278.94065023 0 27345
0.15850000 0.15849900 9410.74532241 0 217.33423494 0 2516.66192500 0 109.19991774 0 203.97215334 0 26980
0.15950000 0.15949700 9432.36957278 0 224.62757529 0 2612.51504096 0 -229.32666995 0 238.15463452 0 27777
0.16050000 0.16050000 9000.59319415 0 118.39526205 0 2540.20168757 0 32.30882237 0 381.77597421 0 28224
0.16150000 0.16150500 9144.79915259 0 172.17797263 0 2678.67218175 0 -120.18233528 0 322.42166979 0 28075
0.16250000 0.16249700 8961.48574289 0 111.93345329 0 2749.96688126 0 -18.58545082 0 408.24325946 0 28590
0.16350000 0.16349900 8825.76118527 0 174.96598402 0 2798.43044699 0 197.08738177 0 275.10962584 0 29163
0.16450000 0.16449100 8683.83612574 0 233.46550496 0 2750.67551005 0 -76.39693751 0 140.07376682 0 28996
0.16550000 0.16550500 8436.82363136 0 247.44320781 0 3006.47943033 0 49.75028060 0 540.71919698 0 30777
0.16650000 0.16650700 8454.19610900 0 76.25410452 0 2898.39139545 0 136.58709173 0 808.42033029 0 29211
0.16750000 0.16749900 8409.56356766 0 -128.80214015 0 2674.66400017 0 369.01954879 0 756.65499729 0 30922
0.16850000 0.16850800 8488.67532849 0 2.20915025 0 2755.56947762 0 323.42150072 0 866.77701824 0 30867
0.16950000 0.16949900 8482.80699634 0 -8.54453521 0 2458.31077321 0 161.67919423 0 551.33866372 0 30852
0.17050000 0.17049200 8406.62940158 0 104.64232740 0 2462.40753339 0 239.89188229 0 1072.38676843 0 31257
0.17150000 0.17149500 8430.82243131 0 119.93874413 0 2428.89160617 0 140.32953752 0 847.78355225 0 32608
0.17250000 0.17250900 8287.51333118 0 131.15500917 0 2253.37311314 0 162.37453623 0 847.85552236 0 32361
0.17350000 0.17350400 8277.82504697 0 151.28781739 0 2442.56592732 0 37.52909136 0 1040.76199428 0 32508
0.17450000 0.17449800 8039.63719547 0 97.67838870 0 2247.79266143 0 -68.47003872 0 892.31865713 0 32791
0.17550000 0.17549800 8037.33415191 0 162.12762339 0 2346.61316044 0 -8.00733922 0 938.62422676 0 33633
0.17650000 0.17650100 7916.49079884 0 74.07285653 0 2276.54748899 0 -240.21851587 0 648.20489739 0 33984
0.17750000 0.17750300 7877.94803614 0 69.76649724 0 2224.15324795 0 215.50840857 0 532.59321780 0 34069
0.17850000 0.17849800 7864.19620872 0 55.79654501 0 2347.41036783 0 -41.65176078 0 527.52984366 0 34536
