### header ###
fiducial parameters:
Omega_m = 0.31
Omega_nu = 0
Omega_de = 0.69
Omega_k = 0
H_0 = 100
w_de = -1
zeff = 0
beta = 0
fgrowth = 0
b_1 = 2
gamma = 0.55
Lx = 3500 Ly = 3500 Lz = 3500
nx = 700 ny = 700 nz = 700
xoffset = -685.467585 yoffset = -31.7331281 zoffset = 572.489161
bins = 400 dk = 0.001
kx_ny = 0.628318531 ky_ny = 0.628318531 kz_ny = 0.628318531
############################
A(data) = 8.05073891 (not used)
A(ran) = 8.05275901 (used)
Ngal = 478340
weighted Ngal = 0
Nran = 23820508
weighted Nran = 0
SN(data) = 3482.48565
SN(ran) = 70.1424514
SN(data+ran) = 3552.6281
############################
13 columns: k_central k_mean P_0(k) sigma^{lin}_{P_0(k)} P^img_1(k) sigma^{lin}_{P_1(k)} P_2(k) sigma^{lin}_{P_2(k)} P^img_3(k) sigma^{lin}_{P_3(k)} P_4(k) sigma^{lin}_{P_4(k)} N_modes
### header ###
0.00050000 0 0 0 0 0 0 0 0 0 0 0 0
0.00150000 0.00179520 1216.11772413 0 -4800.19605095 0 6569.91894369 0 -9897.15255169 0 -38732.32089460 0 3
0.00250000 0.00253879 8048.98223762 0 -9573.28705075 0 -8616.72676502 0 20953.04604031 0 38909.36736845 0 6
0.00350000 0.00331552 10358.61383316 0 -5330.88150719 0 4439.27147884 0 -877.45184660 0 -11294.10348476 0 7
0.00450000 0.00420575 21244.91252253 0 -9475.91702629 0 -11726.14559919 0 3246.81531285 0 -4345.66604482 0 24
0.00550000 0.00557378 32381.34610188 0 -10567.93613386 0 -16992.03255969 0 3062.36145369 0 3292.99797966 0 45
0.00650000 0.00659388 36899.40824412 0 3566.75013848 0 -916.05661431 0 -23043.61168932 0 28505.92169210 0 40
0.00750000 0.00754703 35347.06830455 0 -3959.18654703 0 -6956.55345403 0 5211.01251870 0 16793.61649894 0 57
0.00850000 0.00846663 38127.32906651 0 -4602.04572600 0 16710.68478605 0 -6341.45259338 0 15506.79090851 0 75
0.00950000 0.00948925 48074.04134409 0 -5568.33858525 0 9465.24330517 0 1415.35313692 0 11773.09225642 0 112
0.01050000 0.01054430 55003.76655509 0 -8264.05107489 0 34633.89986298 0 -12511.17342883 0 245.18556078 0 105
0.01150000 0.01145670 63293.28397707 0 -912.36731568 0 31704.38416246 0 -11928.10480388 0 6423.01133800 0 144
0.01250000 0.01249090 74434.36793284 0 -3041.76692953 0 44341.33920123 0 -11309.82618601 0 -9398.11179979 0 169
0.01350000 0.01339930 70214.37277471 0 -4050.96504745 0 38974.58336164 0 824.68114652 0 -13824.57259882 0 180
0.01450000 0.01448870 84708.71030181 0 -956.93010138 0 41555.65300011 0 -3558.96629413 0 -47969.85076755 0 267
0.01550000 0.01550050 81237.53647116 0 1977.21825984 0 22247.62225811 0 -15855.12624731 0 -49671.22419918 0 238
0.01650000 0.01653350 78071.84808226 0 5570.63055648 0 31132.94147857 0 -1116.37822216 0 -46655.67653483 0 315
0.01750000 0.01747870 72764.88279668 0 -3595.60461696 0 18365.55445344 0 1352.03051128 0 -35023.42425010 0 297
0.01850000 0.01844180 75038.36325170 0 -2010.65668079 0 17297.73944793 0 13908.94371394 0 -40628.23507330 0 388
0.01950000 0.01947590 73962.57617232 0 71.02575274 0 20222.93694177 0 13277.48902953 0 -23668.09080909 0 399
0.02050000 0.02045430 72818.69429530 0 2162.87900240 0 15049.39317026 0 14831.60054107 0 -18864.80557951 0 462
0.02150000 0.02154770 75525.98843671 0 1038.42462651 0 10598.04178504 0 5890.15570610 0 10069.93618049 0 571
0.02250000 0.02255340 72926.31729254 0 2.41551624 0 14636.06328478 0 966.79554279 0 12279.09750063 0 510
0.02350000 0.02348930 76434.02979509 0 2398.22126642 0 17687.81745129 0 -536.77966381 0 11451.77339018 0 555
0.02450000 0.02439640 71631.96252124 0 4240.89970739 0 13377.47212264 0 -3503.44965749 0 15585.40441473 0 592
0.02550000 0.02547300 65710.15103848 0 7391.46330059 0 11289.12093860 0 -3772.34106571 0 2347.56538037 0 837
0.02650000 0.02652900 62432.41072242 0 2842.48722744 0 6880.04368954 0 4898.68438021 0 7732.11444596 0 723
0.02750000 0.02749970 60843.64283419 0 -2304.90371285 0 3850.53382358 0 7110.84630038 0 -13577.10613912 0 826
0.02850000 0.02848090 61600.98985179 0 676.75267247 0 2418.99294778 0 -5957.64152587 0 -9293.12401586 0 831
0.02950000 0.02946900 59205.04948428 0 5111.35052301 0 5504.46234337 0 -10178.53354231 0 -17267.73344767 0 996
0.03050000 0.03053250 56130.37560539 0 4771.38586177 0 9492.00511426 0 -15926.65346564 0 -13294.98330274 0 1041
0.03150000 0.03150510 52786.20134041 0 2461.59925368 0 21847.68988566 0 -6306.07651559 0 -3395.85987723 0 1036
0.03250000 0.03246190 53042.63638321 0 2849.00882676 0 22351.59138815 0 -4379.89060084 0 -18891.60060557 0 1059
0.03350000 0.03345080 50466.32784441 0 1591.10414876 0 27891.07549492 0 59.85289121 0 -11309.27256977 0 1302
0.03450000 0.03451200 52215.64444251 0 -865.80597536 0 25779.36170551 0 2756.44419128 0 -17704.53666177 0 1339
0.03550000 0.03553350 50995.03135450 0 -585.26537419 0 26270.19786472 0 -540.03935624 0 -16293.36886363 0 1365
0.03650000 0.03647120 51076.30221867 0 -60.65629910 0 22818.51132576 0 2876.35746906 0 -19405.35647716 0 1308
0.03750000 0.03744890 50668.50849560 0 1758.51770002 0 21035.42413696 0 2101.57153988 0 -17787.46837466 0 1579
0.03850000 0.03847530 48364.24697759 0 1675.74099968 0 19439.90213059 0 -378.94810245 0 -13466.93650717 0 1662
0.03950000 0.03950240 48948.20138853 0 1652.11265852 0 22218.39132058 0 4559.12939500 0 -12783.10972638 0 1683
0.04050000 0.04050350 46148.45333488 0 865.35754620 0 20843.54074785 0 1153.20477451 0 -9257.01716463 0 1822
0.04150000 0.04152450 45163.12714927 0 1683.32554218 0 22751.19159086 0 1694.48644560 0 -9904.05061006 0 1887
0.04250000 0.04250150 44207.58551742 0 2810.85359544 0 23378.10662209 0 565.94195292 0 -5736.15074020 0 1920
0.04350000 0.04349210 42734.19125381 0 816.21856866 0 21929.73581256 0 602.67771220 0 -4249.18180635 0 2005
0.04450000 0.04448520 42803.72545367 0 -661.49168718 0 20652.43242148 0 4195.25958449 0 -6299.68778417 0 2151
0.04550000 0.04548030 43045.54502771 0 -922.68007902 0 19519.62286929 0 2824.66078448 0 -6965.23415669 0 2274
0.04650000 0.04648670 43020.41085037 0 585.27201759 0 15672.32216455 0 4610.61570541 0 -9504.58327525 0 2311
0.04750000 0.04749250 41785.18229360 0 776.24415436 0 12698.40644151 0 3390.73339084 0 -2711.35768462 0 2568
0.04850000 0.04851840 41103.56997776 0 20.96234679 0 11457.53099909 0 2566.69776086 0 -5105.21645506 0 2493
0.04950000 0.04949480 41302.53965476 0 1137.85853231 0 14836.02947100 0 1504.85073843 0 -2228.65968415 0 2644
0.05050000 0.05050630 39530.52479078 0 2126.88287441 0 15497.49015567 0 1463.56203918 0 -1736.39519503 0 2829
0.05150000 0.05149060 38246.35655831 0 2795.72879973 0 15365.61876708 0 -1733.00706364 0 -30.75792184 0 2784
0.05250000 0.05249300 35865.03165957 0 2468.94020504 0 17310.36189822 0 -2100.90720039 0 4207.92632408 0 3055
0.05350000 0.05348950 35585.34473465 0 963.63217959 0 16473.18341869 0 1369.44727822 0 3316.09484924 0 3009
0.05450000 0.05448610 33800.37525063 0 -255.66994515 0 15937.17217421 0 739.82949250 0 3606.75444805 0 3336
0.05550000 0.05550870 35517.13921376 0 -696.49352039 0 16043.46649247 0 2332.35200607 0 1986.61866361 0 3349
0.05650000 0.05647670 35508.17063066 0 -1669.17511106 0 13183.48499182 0 4711.05276384 0 -452.66099770 0 3324
0.05750000 0.05747970 36238.94406869 0 -313.46194455 0 10988.03120980 0 1833.48841137 0 -2092.60295678 0 3639
0.05850000 0.05849280 36279.13660778 0 1070.34171003 0 11500.27017289 0 -1997.63562681 0 -3371.50076263 0 3846
0.05950000 0.05951020 34671.32432087 0 1820.06875369 0 12111.57322612 0 -699.09773119 0 -1713.27618081 0 3787
0.06050000 0.06049470 33758.63258607 0 1490.98818775 0 12685.00892848 0 -2446.92842330 0 -1293.26968347 0 3930
0.06150000 0.06148310 33761.28994402 0 594.48087014 0 15788.69229840 0 -1761.00897311 0 -904.68644396 0 4083
0.06250000 0.06249100 33757.85752333 0 226.12012468 0 15976.70037382 0 -297.21552234 0 -2578.12440007 0 4303
0.06350000 0.06350600 33794.50691848 0 -410.01593866 0 15779.39154555 0 1063.93747736 0 -3534.98363858 0 4470
0.06450000 0.06451750 33931.69302298 0 19.22775639 0 16363.45667973 0 1378.50443992 0 -2658.66449080 0 4479
0.06550000 0.06550280 34013.62822664 0 -490.31243825 0 13640.88273008 0 2662.29621334 0 -3627.20503199 0 4636
0.06650000 0.06648880 34353.99149157 0 339.07998248 0 13763.56408907 0 2246.82936917 0 -2644.07116669 0 4653
0.06750000 0.06749660 33564.53473200 0 400.65428803 0 12773.91969678 0 1912.69982312 0 -1223.45867549 0 5220
0.06850000 0.06852730 32238.84528146 0 2051.09281103 0 13275.16384132 0 1403.33966449 0 -1339.69594143 0 5029
0.06950000 0.06949320 31244.88268249 0 2065.27645912 0 12551.36596792 0 196.57694760 0 1823.08042604 0 5040
0.07050000 0.07048030 29622.56565006 0 813.34419313 0 12663.86078808 0 670.62303345 0 1234.35384311 0 5475
0.07150000 0.07148790 28938.84959251 0 582.40649993 0 13845.27784623 0 895.69350174 0 2651.53391362 0 5509
0.07250000 0.07249820 28923.12689127 0 185.36068256 0 12343.42770783 0 1525.43419026 0 -133.47576846 0 5916
0.07350000 0.07351270 28633.47487401 0 28.96354088 0 12091.86448795 0 -430.10445758 0 1034.21935755 0 5721
0.07450000 0.07449140 28050.51697231 0 915.61261409 0 10806.95440972 0 -63.66930013 0 -1058.08686092 0 6028
0.07550000 0.07549160 27329.70862662 0 748.08723235 0 11219.14384574 0 517.96446225 0 -144.71749984 0 6183
0.07650000 0.07648840 26224.02627023 0 806.33319706 0 9676.93508338 0 1278.23346636 0 -1214.84440678 0 6330
0.07750000 0.07749960 25415.08221898 0 1091.87738181 0 9598.36586646 0 1623.03673354 0 -528.35916079 0 6583
0.07850000 0.07848650 24690.73072934 0 550.73522201 0 8336.65230873 0 1524.02800501 0 -990.87784928 0 6549
0.07950000 0.07947320 24081.42069457 0 557.62220805 0 7395.03966150 0 2026.05828462 0 -431.46413907 0 6828
0.08050000 0.08048110 23467.23883688 0 146.84560067 0 7237.92337233 0 1078.84193380 0 -681.93119879 0 7147
0.08150000 0.08149960 23536.55159024 0 25.62899953 0 6337.76550922 0 550.07641869 0 -737.94609005 0 7386
0.08250000 0.08250610 23934.93383722 0 106.48299067 0 6865.45036543 0 -620.67466896 0 -641.66336789 0 7227
0.08350000 0.08350160 22935.54579909 0 189.38990156 0 6265.92826580 0 309.10830643 0 251.57539944 0 7798
0.08450000 0.08449610 23223.31552113 0 943.63666820 0 6850.89025829 0 -940.78000840 0 -1145.60915969 0 7371
0.08550000 0.08548940 22303.31605194 0 308.07082959 0 7242.34122993 0 -210.22026624 0 229.31449039 0 8256
0.08650000 0.08650700 22030.71541491 0 795.23762036 0 7962.02019849 0 68.77873514 0 -1184.18513935 0 8037
0.08750000 0.08749060 21437.90314412 0 757.19532675 0 7080.86244477 0 671.14453995 0 624.47469084 0 8155
0.08850000 0.08849210 20763.82000916 0 7.94737151 0 7387.46619133 0 707.71199990 0 -1478.06678469 0 8718
0.08950000 0.08949900 20968.76874155 0 243.27890645 0 6887.72788296 0 180.98822149 0 -1058.99811326 0 8571
0.09050000 0.09049190 20668.70873897 0 509.53842306 0 6890.97207413 0 -354.82372114 0 -2238.46976394 0 8932
0.09150000 0.09150830 19696.66934314 0 1051.11461799 0 6920.62376000 0 -891.14720517 0 -460.28097164 0 9285
0.09250000 0.09250820 19170.62319100 0 977.64309942 0 7265.33844858 0 304.77902742 0 -132.07844106 0 9204
0.09350000 0.09350330 18603.60943704 0 98.94738785 0 6951.49340159 0 1452.14647229 0 87.02969103 0 9349
0.09450000 0.09448040 18524.11014484 0 -167.05923686 0 7030.36157127 0 1666.42917451 0 -76.13109099 0 9564
0.09550000 0.09549270 18309.63921311 0 403.58956134 0 7165.46607871 0 349.80352907 0 690.21440499 0 10155
0.09650000 0.09649430 18217.40674737 0 674.16728463 0 7663.26673023 0 -195.89599962 0 953.31277286 0 9913
0.09750000 0.09749140 17838.06889908 0 136.11098176 0 7422.84226912 0 -181.79207227 0 2170.27531538 0 10476
0.09850000 0.09850240 17698.77905286 0 137.68435912 0 7772.39556365 0 -671.44902888 0 1683.90130307 0 10575
0.09950000 0.09950330 17763.33070655 0 175.67572004 0 8000.87298628 0 65.27633735 0 599.86866340 0 10882
0.10050000 0.10051200 17076.40367481 0 425.29463968 0 7306.30605040 0 37.48613074 0 727.99428450 0 10875
0.10150000 0.10150300 16993.02906892 0 433.79707791 0 6966.85071611 0 940.84422788 0 -5.72312969 0 11118
0.10250000 0.10250800 16272.66361622 0 288.10742794 0 5731.13497705 0 1247.30846315 0 875.24956119 0 11575
0.10350000 0.10349800 16353.49158740 0 -54.62254641 0 5536.59422999 0 1177.91820351 0 -113.58433692 0 11364
0.10450000 0.10450100 16401.76692361 0 -114.96948475 0 4416.76144248 0 764.24839765 0 -222.54597823 0 12093
0.10550000 0.10551000 16406.08513028 0 59.45428752 0 5034.48644412 0 -72.98865448 0 -433.62988580 0 12067
0.10650000 0.10649700 16049.00265488 0 413.12172577 0 4728.87920680 0 -555.17079534 0 92.64834226 0 12054
0.10750000 0.10749900 16179.98825749 0 311.53314556 0 5500.45416178 0 -3.11308377 0 606.20203319 0 12807
0.10850000 0.10850100 15845.60404796 0 113.84896548 0 5556.83443976 0 504.60127343 0 616.72517070 0 12736
0.10950000 0.10950300 15872.17762753 0 -59.92951170 0 5567.15384649 0 867.63069449 0 551.07846408 0 12933
0.11050000 0.11050200 16113.00069234 0 -66.48908909 0 5190.70587498 0 629.93556144 0 525.09393220 0 13428
0.11150000 0.11150900 15975.15024834 0 59.35751540 0 4852.90031709 0 286.36132232 0 86.03528554 0 13453
0.11250000 0.11250000 15836.41401837 0 567.22191367 0 5195.52233628 0 -667.60250324 0 384.31817999 0 13668
0.11350000 0.11349100 15265.96784371 0 474.94294417 0 4551.40091228 0 -437.63142399 0 220.60389245 0 13791
0.11450000 0.11448600 15220.57131195 0 145.82473233 0 5125.10235043 0 -31.61193025 0 270.31863089 0 14205
0.11550000 0.11549300 14863.71028305 0 21.02014433 0 4621.36693281 0 400.85137541 0 -807.38617515 0 14776
0.11650000 0.11649800 15099.55080168 0 168.37462905 0 4740.57158180 0 493.68396115 0 -1121.85902295 0 14553
0.11750000 0.11747300 14771.92071030 0 306.93702353 0 4223.19506000 0 353.89253862 0 -409.38924508 0 14568
0.11850000 0.11849100 14596.53508517 0 260.03576283 0 4190.19953204 0 61.29550441 0 -239.35044560 0 16015
0.11950000 0.11950300 14224.94786426 0 113.84896548 0 3921.76208914 0 615.09089556 0 262.60122049 0 15270
0.12050000 0.12050700 14374.64569581 0 129.63699344 0 3983.72281883 0 582.34006598 0 -21.23682973 0 15999
0.12150000 0.12150000 13958.65845237 0 152.30314958 0 3441.75466360 0 748.19131220 0 603.88127391 0 15670
0.12250000 0.12250700 13572.34503945 0 464.21053972 0 3538.99182016 0 507.26306031 0 399.40422256 0 16887
0.12350000 0.12352200 13351.45215932 0 265.56860354 0 3108.01264892 0 81.30529910 0 354.36532689 0 16407
0.12450000 0.12449800 12985.51182406 0 402.97283284 0 3403.82087877 0 269.10842579 0 424.97132779 0 16306
0.12550000 0.12549900 12895.82599303 0 170.89911911 0 3455.28504453 0 -615.79841711 0 517.00227722 0 17523
0.12650000 0.12650100 12815.88380784 0 81.07488402 0 3604.01958382 0 -126.35404913 0 791.13310955 0 17154
0.12750000 0.12750600 12936.90431811 0 -185.68731614 0 3924.39730245 0 -478.09191334 0 550.12513692 0 18007
0.12850000 0.12850300 13172.74483674 0 -212.90641224 0 3960.63702158 0 -136.17852294 0 1030.53780954 0 17496
0.12950000 0.12949900 13417.44321524 0 38.73331740 0 4661.45982097 0 -88.31230914 0 305.23188551 0 18405
0.13050000 0.13049000 13235.30347197 0 359.52945919 0 4259.73373190 0 -44.18798750 0 1393.66245260 0 18100
0.13150000 0.13148800 13062.57520480 0 88.51703642 0 4428.26558797 0 478.73078649 0 719.39551705 0 19059
0.13250000 0.13249300 12895.16165354 0 215.10648318 0 3966.50535373 0 92.86513838 0 1122.10261410 0 18957
0.13350000 0.13349100 12877.44593383 0 250.94759862 0 4512.54812449 0 391.68791939 0 -86.72874524 0 19468
0.13450000 0.13450700 12361.14342754 0 393.18489771 0 3902.79519673 0 -19.41089264 0 837.57819046 0 19953
0.13550000 0.13551000 12032.29538042 0 440.19466719 0 3988.72750964 0 24.83766048 0 788.39049469 0 19956
0.13650000 0.13649900 11799.11221974 0 -8.71157230 0 3547.11890658 0 382.92749599 0 622.27240544 0 19723
0.13750000 0.13749600 11875.17909125 0 54.27022504 0 3905.23110819 0 505.46602199 0 583.52369750 0 20946
0.13850000 0.13851100 11730.02091287 0 335.35303794 0 3784.19952559 0 74.97790836 0 538.95648287 0 20955
0.13950000 0.13949800 11436.16141219 0 386.71755278 0 4004.22876439 0 -15.91347740 0 1231.82935305 0 20506
0.14050000 0.14048300 11298.97530768 0 182.99784844 0 4210.73869458 0 -19.48707023 0 1097.99151957 0 21447
0.14150000 0.14148400 11192.45954293 0 -8.73180144 0 4182.61498954 0 -7.16504533 0 931.44050242 0 21771
0.14250000 0.14249400 11320.67706433 0 -55.89608521 0 3950.57227832 0 165.76377486 0 779.87698414 0 22470
0.14350000 0.14350900 11180.05853913 0 179.31519321 0 3671.26181244 0 330.46128484 0 532.62975647 0 22519
0.14450000 0.14449900 11160.57124745 0 70.48730558 0 3773.02754985 0 -75.93500012 0 148.13441928 0 22218
0.14550000 0.14550500 11042.93886858 0 131.22587205 0 3217.71724322 0 108.94182185 0 13.23463913 0 23559
0.14650000 0.14650700 10854.78685293 0 168.23290329 0 3260.06888565 0 33.95095887 0 -357.94943843 0 23044
0.14750000 0.14750500 10680.84063003 0 277.07496349 0 3081.88196235 0 -126.62864279 0 -808.67167206 0 23649
0.14850000 0.14849900 10549.38998979 0 239.65272007 0 3155.28040357 0 -187.79437955 0 -727.47056354 0 23640
0.14950000 0.14949500 10164.09523075 0 282.73624317 0 2896.85234230 0 227.53738226 0 -705.62597390 0 24457
0.15050000 0.15050000 10111.12522881 0 156.50398961 0 2854.00244525 0 313.34568514 0 -604.52900491 0 24591
0.15150000 0.15149900 9938.75127604 0 82.67970678 0 2802.89259389 0 727.63443394 0 -641.62793645 0 25020
0.15250000 0.15250500 9733.25999973 0 33.04535342 0 2419.51334705 0 496.67570332 0 -558.02966961 0 25297
0.15350000 0.15350100 9734.65511266 0 171.67861078 0 2216.74586264 0 224.87448814 0 -471.38872790 0 25452
0.15450000 0.15450400 9432.28099418 0 245.27856831 0 2432.03614642 0 -183.09528490 0 -514.57633085 0 26061
0.15550000 0.15549900 9253.34115279 0 243.98864247 0 2174.40529254 0 -132.44382778 0 -478.63113556 0 26128
0.15650000 0.15649500 9178.64724956 0 142.29930410 0 2453.54967354 0 -112.26119410 0 -580.69361128 0 26331
0.15750000 0.15749700 8979.06859471 0 142.68019208 0 2246.88473080 0 -77.02994232 0 -516.65239176 0 27345
0.15850000 0.15849900 8935.60971979 0 66.45376837 0 2263.38249478 0 258.11028554 0 -853.38282691 0 26980
0.15950000 0.15949700 9032.29326011 0 -89.25478543 0 2192.15422922 0 252.76235266 0 -879.51240625 0 27777
0.16050000 0.16050000 9028.81655012 0 -65.59776694 0 2070.72404293 0 75.49454303 0 -856.91711299 0 28224
0.16150000 0.16150500 9004.42421854 0 170.07976707 0 1961.88308997 0 15.98367594 0 -942.43642819 0 28075
0.16250000 0.16249700 8860.35112800 0 168.47870891 0 1783.79581758 0 104.85945569 0 -422.13238371 0 28590
0.16350000 0.16349900 8881.08959239 0 -11.85292372 0 2005.66306230 0 151.52365791 0 -506.84563367 0 29163
0.16450000 0.16449100 8784.16246092 0 42.10030066 0 1976.76429452 0 267.32910319 0 -200.06030099 0 28996
0.16550000 0.16550500 8848.66982532 0 180.63058539 0 2124.20337181 0 17.87294672 0 -113.69616740 0 30777
0.16650000 0.16650700 8847.80618398 0 98.55277019 0 2182.13377526 0 53.53856581 0 534.79218151 0 29211
0.16750000 0.16749900 8591.10540539 0 143.19173348 0 2193.50505285 0 99.49236768 0 520.03830869 0 30922
0.16850000 0.16850800 8545.74209060 0 195.87164051 0 2528.16607049 0 36.33483040 0 1032.21526675 0 30867
0.16950000 0.16949900 8434.64238337 0 154.68812834 0 2360.96289340 0 213.70472686 0 1079.99124111 0 30852
0.17050000 0.17049200 8231.80846502 0 100.12160790 0 2539.50413111 0 174.36364955 0 954.09226453 0 31257
0.17150000 0.17149500 8277.13856283 0 149.49852970 0 2545.31710164 0 -60.48202071 0 932.36614877 0 32608
0.17250000 0.17250900 8111.46336657 0 82.26272303 0 2520.19399662 0 27.97865758 0 816.59724216 0 32361
0.17350000 0.17350400 8114.81828099 0 2.11302032 0 2185.97587197 0 19.30227313 0 837.99229541 0 32508
0.17450000 0.17449800 8084.08150729 0 -0.25517391 0 2300.86231429 0 -36.19055801 0 428.86435720 0 32791
0.17550000 0.17549800 8160.35875297 0 78.12698826 0 2202.68401012 0 -82.13151598 0 337.94064025 0 33633
0.17650000 0.17650100 8045.95949294 0 235.58031900 0 2276.53641666 0 -223.19481646 0 196.16948604 0 33984
0.17750000 0.17750300 7850.02363295 0 257.23003572 0 2180.16290144 0 -68.35599378 0 598.93637365 0 34069
0.17850000 0.17849800 7696.16260727 0 81.29168014 0 2336.30482603 0 218.43925295 0 580.23964596 0 34536
