### header ###
fiducial parameters:
Omega_m = 0.31
Omega_nu = 0
Omega_de = 0.69
Omega_k = 0
H_0 = 100
w_de = -1
zeff = 0
beta = 0
fgrowth = 0
b_1 = 2
gamma = 0.55
Lx = 3500 Ly = 3500 Lz = 3500
nx = 700 ny = 700 nz = 700
xoffset = -685.467585 yoffset = -31.7331281 zoffset = 572.489161
bins = 400 dk = 0.001
kx_ny = 0.628318531 ky_ny = 0.628318531 kz_ny = 0.628318531
############################
A(data) = 8.06609873 (not used)
A(ran) = 8.06231746 (used)
Ngal = 478827
weighted Ngal = 0
Nran = 23820508
weighted Nran = 0
SN(data) = 3493.0697
SN(ran) = 70.2257091
SN(data+ran) = 3563.29541
############################
13 columns: k_central k_mean P_0(k) sigma^{lin}_{P_0(k)} P^img_1(k) sigma^{lin}_{P_1(k)} P_2(k) sigma^{lin}_{P_2(k)} P^img_3(k) sigma^{lin}_{P_3(k)} P_4(k) sigma^{lin}_{P_4(k)} N_modes
### header ###
0.00050000 0 0 0 0 0 0 0 0 0 0 0 0
0.00150000 0.00179520 13313.58480844 0 -26139.10153887 0 5768.93589399 0 -71181.31890112 0 -35731.27797576 0 3
0.00250000 0.00253879 21547.40843657 0 -23296.72503467 0 -24073.55934395 0 42205.93063671 0 35451.48032759 0 6
0.00350000 0.00331552 35625.53727374 0 -21795.42851251 0 1157.74442769 0 -37270.66329529 0 -44036.73954547 0 7
0.00450000 0.00420575 47116.61741703 0 -18855.72627316 0 -24031.04161665 0 7539.44492179 0 14052.88393658 0 24
0.00550000 0.00557378 63936.03243279 0 -10829.27621655 0 -23042.61518008 0 -3050.99017610 0 -7581.81870887 0 45
0.00650000 0.00659388 66509.01927415 0 -360.63447720 0 -39541.81856209 0 -8404.73603404 0 37980.95293241 0 40
0.00750000 0.00754703 68726.14159583 0 5771.59325194 0 -8995.34491219 0 -9999.04008468 0 -10862.86965005 0 57
0.00850000 0.00846663 62039.23246811 0 3221.22717019 0 -9461.58943798 0 -18965.67445861 0 8043.90004052 0 75
0.00950000 0.00948925 61086.90181046 0 1703.95328332 0 -9608.84028574 0 -9064.83482275 0 -9393.84895474 0 112
0.01050000 0.01054430 66436.05265359 0 789.57523345 0 9627.15391099 0 -16995.57570363 0 3667.71866850 0 105
0.01150000 0.01145670 68066.89537613 0 -2314.14910407 0 14080.34330213 0 -11200.54234005 0 -10401.62981508 0 144
0.01250000 0.01249090 71684.11317114 0 1582.68918190 0 23849.89838261 0 -10668.52820484 0 -7846.90123735 0 169
0.01350000 0.01339930 70760.12766502 0 -1524.58162125 0 25885.76674702 0 -2547.84159169 0 -4175.76122048 0 180
0.01450000 0.01448870 73313.73793794 0 438.54821249 0 30398.95706635 0 12827.17757915 0 -18958.36672423 0 267
0.01550000 0.01550050 74082.37872685 0 -3037.21620403 0 44480.29687771 0 14439.19734950 0 16399.88462839 0 238
0.01650000 0.01653350 72683.16903952 0 3707.04756626 0 29427.13911701 0 9561.25143367 0 9427.19879709 0 315
0.01750000 0.01747870 71127.17523276 0 4733.18634115 0 27198.50157752 0 9384.75857606 0 13916.80506456 0 297
0.01850000 0.01844180 72179.48898352 0 -1036.98079536 0 16397.78088667 0 13954.34024569 0 16891.38512709 0 388
0.01950000 0.01947590 70653.50117702 0 748.85897339 0 19335.71155405 0 956.31558735 0 18248.96287310 0 399
0.02050000 0.02045430 70182.59520248 0 423.83530727 0 19296.62624744 0 -8079.95153013 0 1479.01900463 0 462
0.02150000 0.02154770 66406.82171607 0 2155.01765178 0 18216.18879164 0 -6576.86129135 0 -282.43396871 0 571
0.02250000 0.02255340 67651.79391868 0 4800.58358232 0 20972.75477849 0 -2320.44925689 0 -2251.61261350 0 510
0.02350000 0.02348930 63973.67833717 0 -1495.77143208 0 16960.14426421 0 3757.22734234 0 -2053.32942064 0 555
0.02450000 0.02439640 66697.80241231 0 1227.58865264 0 19817.35768366 0 9041.71580853 0 1621.67483759 0 592
0.02550000 0.02547300 64259.34431750 0 2071.21122523 0 16934.89936362 0 1029.10394348 0 -7670.34194579 0 837
0.02650000 0.02652900 62202.43853594 0 3638.94169630 0 24591.63342221 0 3418.94567448 0 5074.16965627 0 723
0.02750000 0.02749970 59060.33419890 0 2542.84797320 0 18547.91564320 0 -4952.82804858 0 -2135.92896379 0 826
0.02850000 0.02848090 59502.11995916 0 2954.74952878 0 30734.33778510 0 -1918.65673387 0 1782.81038067 0 831
0.02950000 0.02946900 59842.81539383 0 1759.61386018 0 30462.18004106 0 -7410.77343507 0 -5603.78109699 0 996
0.03050000 0.03053250 58456.56032654 0 -299.92713469 0 30537.25040333 0 1232.43833091 0 7769.08493853 0 1041
0.03150000 0.03150510 61474.65462561 0 -912.61644299 0 33327.14408788 0 5182.14696790 0 -355.14260409 0 1036
0.03250000 0.03246190 61423.72193144 0 -3739.56698425 0 30136.65369139 0 9813.95510301 0 -1637.82935950 0 1059
0.03350000 0.03345080 62470.94241279 0 3999.26836287 0 34226.10613991 0 6256.53893435 0 2399.70495795 0 1302
0.03450000 0.03451200 58107.11775526 0 3202.47065195 0 28231.10659010 0 4772.83633633 0 7736.34407404 0 1339
0.03550000 0.03553350 56921.05032069 0 1773.59820643 0 30201.42679158 0 8866.10873691 0 8264.58254648 0 1365
0.03650000 0.03647120 53803.85871450 0 349.80574353 0 22806.77466145 0 2393.75911952 0 12403.55043159 0 1308
0.03750000 0.03744890 54324.36870422 0 1517.93822636 0 21306.47464852 0 6050.63798202 0 -72.90306541 0 1579
0.03850000 0.03847530 51898.86522945 0 1980.49566799 0 17123.12888554 0 124.63451709 0 -2962.43372220 0 1662
0.03950000 0.03950240 48931.59290130 0 2260.20473756 0 15377.79832438 0 -94.95581475 0 -5532.10993844 0 1683
0.04050000 0.04050350 46586.03161172 0 -17.94624551 0 9491.48471499 0 -1337.66970599 0 -5383.94008772 0 1822
0.04150000 0.04152450 47778.41027144 0 388.39611722 0 10822.14563937 0 2041.91385376 0 -11018.24758423 0 1887
0.04250000 0.04250150 46353.18062078 0 1796.32968928 0 10336.03736286 0 -868.82207664 0 -12291.49850443 0 1920
0.04350000 0.04349210 44017.03080729 0 2624.77210453 0 9076.20610034 0 1193.59661545 0 -7597.09851712 0 2005
0.04450000 0.04448520 42777.70549034 0 2185.47761735 0 11571.68666797 0 330.21105030 0 -3182.31902078 0 2151
0.04550000 0.04548030 43061.26772895 0 -189.12970192 0 12908.00555033 0 4346.98365148 0 548.91050288 0 2274
0.04650000 0.04648670 42498.01856542 0 -532.66850961 0 13857.34668028 0 5447.00804988 0 4743.12928884 0 2311
0.04750000 0.04749250 43513.68292104 0 703.65067115 0 14194.60969426 0 2507.16187031 0 1987.02833963 0 2568
0.04850000 0.04851840 41442.71528696 0 1428.04202116 0 12343.64915432 0 695.08733514 0 3598.48342141 0 2493
0.04950000 0.04949480 38815.03116100 0 2944.81765342 0 14239.34188652 0 -304.32063318 0 6082.26054170 0 2644
0.05050000 0.05050630 37535.95619795 0 1888.86110779 0 10425.97785736 0 2512.49873087 0 5534.11402923 0 2829
0.05150000 0.05149060 35759.73385054 0 -240.16536871 0 10120.44812631 0 1535.12247448 0 4566.96860097 0 2784
0.05250000 0.05249300 36330.06930195 0 -241.83507529 0 9634.72738117 0 -695.89340039 0 -1041.19270772 0 3055
0.05350000 0.05348950 36185.13257007 0 2096.66649998 0 9253.80619043 0 -1655.11325854 0 485.00879466 0 3009
0.05450000 0.05448610 35037.26465612 0 1715.60136903 0 10526.43706044 0 -3467.54210811 0 1276.09650767 0 3336
0.05550000 0.05550870 33477.50625892 0 332.34579452 0 13054.16023794 0 -2383.10754304 0 1568.46124451 0 3349
0.05650000 0.05647670 35099.49112161 0 187.15993534 0 15412.01180807 0 977.68185256 0 847.74479911 0 3324
0.05750000 0.05747970 34159.56146775 0 -332.54398914 0 15594.81589082 0 1174.61865071 0 2301.53772610 0 3639
0.05850000 0.05849280 35002.27610970 0 -548.55508126 0 16324.48209637 0 2375.77766401 0 4282.63129963 0 3846
0.05950000 0.05951020 35246.53159520 0 521.01599497 0 15119.25953986 0 2710.81514070 0 3073.71058663 0 3787
0.06050000 0.06049470 34891.66358476 0 778.25267409 0 14639.60642872 0 2384.05976298 0 4561.98605480 0 3930
0.06150000 0.06148310 32875.72540503 0 1066.82624690 0 12379.41276349 0 1668.32254205 0 4172.98206695 0 4083
0.06250000 0.06249100 31817.87549185 0 1618.59673129 0 11057.42146944 0 2526.92597011 0 6459.67180547 0 4303
0.06350000 0.06350600 30956.67006746 0 35.78365007 0 11406.93047467 0 293.17855271 0 2951.89286898 0 4470
0.06450000 0.06451750 30738.54526853 0 737.62388540 0 10730.52215149 0 1134.27109907 0 3741.49356877 0 4479
0.06550000 0.06550280 29530.88680056 0 1436.68950684 0 11192.34881968 0 -1796.99402877 0 2407.62167019 0 4636
0.06650000 0.06648880 30031.90949861 0 294.43415434 0 11586.30213673 0 -83.85293032 0 2273.13721294 0 4653
0.06750000 0.06749660 29450.94461537 0 -543.85487937 0 11669.67674261 0 -452.50377069 0 5526.13088304 0 5220
0.06850000 0.06852730 30580.76463987 0 103.62323062 0 12565.75999019 0 1724.51459050 0 2959.39990520 0 5029
0.06950000 0.06949320 30537.58257307 0 -590.21691785 0 11677.31664674 0 2235.05948789 0 2788.00031701 0 5040
0.07050000 0.07048030 29893.39471513 0 848.41578200 0 10565.54451170 0 529.35345556 0 4097.03699102 0 5475
0.07150000 0.07148790 29236.80585338 0 1081.05529153 0 9721.80014354 0 989.93005827 0 3997.67394810 0 5509
0.07250000 0.07249820 28171.31603608 0 423.78105288 0 8082.15492277 0 872.95869719 0 1952.90343454 0 5916
0.07350000 0.07351270 27313.32158588 0 1344.36846251 0 8302.71563316 0 1357.61096299 0 1978.14833512 0 5721
0.07450000 0.07449140 26697.70032597 0 707.97219953 0 8464.51551573 0 -241.90372371 0 1948.55201088 0 6028
0.07550000 0.07549160 26565.05387464 0 258.95842563 0 8466.13207516 0 -241.35453640 0 2438.71275828 0 6183
0.07650000 0.07648840 26401.07274408 0 562.03674396 0 7974.54299786 0 553.70703400 0 2305.26909957 0 6330
0.07750000 0.07749960 25959.39770706 0 -177.00107732 0 8406.57403996 0 -53.62526212 0 2258.78747998 0 6583
0.07850000 0.07848650 26079.97532434 0 127.51110708 0 9866.49328427 0 -54.43487051 0 2783.22814501 0 6549
0.07950000 0.07947320 25943.01066633 0 574.83524421 0 9706.38746739 0 -231.85005277 0 1876.36045307 0 6828
0.08050000 0.08048110 25381.75452127 0 545.41275547 0 10488.90187930 0 854.18335599 0 1940.33634587 0 7147
0.08150000 0.08149960 24907.85901903 0 416.31055532 0 9388.17992443 0 19.39373054 0 -27.69863849 0 7386
0.08250000 0.08250610 24169.55640013 0 803.62712087 0 9637.20758193 0 632.08359246 0 294.49173043 0 7227
0.08350000 0.08350160 23631.21996744 0 646.43996882 0 8174.88564313 0 357.84646581 0 12.93524347 0 7798
0.08450000 0.08449610 23373.34552242 0 150.94125363 0 7695.65328033 0 1672.03177086 0 -707.50716189 0 7371
0.08550000 0.08548940 22707.23446133 0 321.66764447 0 6888.76868149 0 1176.37915036 0 -192.44697044 0 8256
0.08650000 0.08650700 22250.16889281 0 856.36571122 0 6213.42330151 0 979.98046719 0 492.08733192 0 8037
0.08750000 0.08749060 21954.42709691 0 429.74128533 0 6504.99083095 0 -282.15937505 0 1656.80732424 0 8155
0.08850000 0.08849210 21407.23280437 0 165.27216364 0 6516.42854249 0 942.49289705 0 812.38422257 0 8718
0.08950000 0.08949900 21687.03045254 0 402.44136125 0 7286.50873363 0 -763.17438215 0 1684.03417097 0 8571
0.09050000 0.09049190 21036.19919970 0 870.98007274 0 6750.39783824 0 -486.91212729 0 1217.57927101 0 8932
0.09150000 0.09150830 19866.85097560 0 1197.33906124 0 7491.23601953 0 -178.84904833 0 1510.60834733 0 9285
0.09250000 0.09250820 19452.63530414 0 649.62990560 0 6613.93143485 0 248.78849528 0 1023.93427502 0 9204
0.09350000 0.09350330 18720.31174063 0 76.77439306 0 6845.97414607 0 1239.92322249 0 -388.42490527 0 9349
0.09450000 0.09448040 18753.08582209 0 180.42464015 0 6122.88490146 0 1200.93756680 0 -705.66140534 0 9564
0.09550000 0.09549270 18465.09465356 0 -181.93158356 0 5218.49741028 0 562.50178160 0 -1182.82324340 0 10155
0.09650000 0.09649430 18486.24279396 0 -7.48571093 0 4742.19921355 0 413.93775611 0 -1011.28857285 0 9913
0.09750000 0.09749140 18970.43555828 0 272.08798840 0 5619.79167868 0 -500.22438342 0 -677.28968023 0 10476
0.09850000 0.09850240 17927.09039062 0 372.14858778 0 5431.16355307 0 -457.78526963 0 -422.88751626 0 10575
0.09950000 0.09950330 18208.21671777 0 756.96723685 0 5673.39280313 0 -84.79230635 0 -117.43639872 0 10882
0.10050000 0.10051200 17521.62185576 0 280.53395777 0 6234.36106774 0 224.60985957 0 105.59554384 0 10875
0.10150000 0.10150300 17127.33636897 0 158.58005052 0 6189.67316477 0 876.71664423 0 487.84995321 0 11118
0.10250000 0.10250800 17255.77533687 0 176.18836868 0 5917.38255283 0 610.81476371 0 -367.52035601 0 11575
0.10350000 0.10349800 16871.67638891 0 385.24271911 0 5647.47249073 0 180.65273004 0 992.55862818 0 11364
0.10450000 0.10450100 16885.40607168 0 128.38249904 0 5385.72273201 0 -44.55448145 0 595.06548889 0 12093
0.10550000 0.10551000 16775.79005598 0 -176.10200454 0 5375.58048248 0 363.57417944 0 1098.74443766 0 12067
0.10650000 0.10649700 17031.00714305 0 -334.04871808 0 4928.05925796 0 532.28429994 0 53.19831327 0 12054
0.10750000 0.10749900 16998.89740107 0 282.22802346 0 5198.32363446 0 252.54312063 0 -160.30844042 0 12807
0.10850000 0.10850100 16854.07139245 0 413.28670341 0 4780.63125300 0 413.44171596 0 238.17677917 0 12736
0.10950000 0.10950300 16472.07618620 0 292.55185913 0 5616.48105356 0 -497.33893558 0 1101.55570093 0 12933
0.11050000 0.11050200 16350.61278294 0 543.12189147 0 5811.80793568 0 156.96238386 0 1148.97514643 0 13428
0.11150000 0.11150900 15977.91832955 0 359.85055661 0 6111.84579362 0 -169.20173172 0 1697.60884119 0 13453
0.11250000 0.11250000 15663.57502795 0 266.27944680 0 6177.07285913 0 304.50554100 0 2062.03226795 0 13668
0.11350000 0.11349100 15443.23576406 0 282.39964450 0 6291.73785495 0 532.15364650 0 2544.94064259 0 13791
0.11450000 0.11448600 15505.13005979 0 -19.77096464 0 6223.93093776 0 251.94742955 0 2196.10704918 0 14205
0.11550000 0.11549300 15087.81413738 0 67.58237044 0 5644.52725232 0 506.69837175 0 1510.87408313 0 14776
0.11650000 0.11649800 15461.83726975 0 52.14832471 0 5687.77575306 0 -268.54816615 0 800.77599723 0 14553
0.11750000 0.11747300 14937.78413608 0 594.11326896 0 5426.88963569 0 -278.38260506 0 1253.17679530 0 14568
0.11850000 0.11849100 14717.88776519 0 552.44478897 0 5400.13889893 0 -636.80593899 0 553.89526352 0 16015
0.11950000 0.11950300 14352.61176942 0 127.69933660 0 5331.02544741 0 -89.37779895 0 827.43926263 0 15270
0.12050000 0.12050700 14233.58427762 0 185.89658308 0 5543.13797396 0 646.21741509 0 432.69648882 0 15999
0.12150000 0.12150000 14139.13734691 0 0.29092644 0 5217.30159920 0 1147.60217815 0 446.25565779 0 15670
0.12250000 0.12250700 14015.68092519 0 -119.21129239 0 4633.25860966 0 1005.53539287 0 0.59394386 0 16887
0.12350000 0.12352200 13901.85742605 0 329.97520978 0 4581.15224907 0 610.89669892 0 722.32082526 0 16407
0.12450000 0.12449800 13735.44038403 0 443.84521268 0 4536.60828632 0 296.65415547 0 925.86669410 0 16306
0.12550000 0.12549900 13448.11355498 0 303.36841324 0 4492.13075752 0 48.40322156 0 1460.87146425 0 17523
0.12650000 0.12650100 13404.48859520 0 1.39221198 0 4743.90435157 0 -150.56258012 0 1516.08914812 0 17154
0.12750000 0.12750600 13286.45761263 0 -162.17966332 0 4685.65285070 0 -18.34595644 0 1334.90162479 0 18007
0.12850000 0.12850300 13691.04036150 0 -268.22485427 0 4904.07660240 0 36.26972513 0 886.83453465 0 17496
0.12950000 0.12949900 13692.47976373 0 92.58556218 0 4472.63239352 0 -180.71805676 0 1028.40970871 0 18405
0.13050000 0.13049000 13471.14399061 0 372.26595443 0 4646.72255664 0 281.52935977 0 795.52217911 0 18100
0.13150000 0.13148800 13344.91948767 0 229.37206648 0 4166.57119088 0 278.89857539 0 224.32972976 0 19059
0.13250000 0.13249300 12922.39957259 0 30.28258693 0 3956.92779276 0 662.91337368 0 338.82531901 0 18957
0.13350000 0.13349100 12906.67687135 0 47.34227140 0 3301.30222328 0 1081.61222947 0 124.60683628 0 19468
0.13450000 0.13450700 12807.02594798 0 118.35318722 0 3148.59271938 0 310.50120489 0 -72.52970662 0 19953
0.13550000 0.13551000 12679.02987308 0 322.80587946 0 2846.68363855 0 346.40653981 0 283.45040812 0 19956
0.13650000 0.13649900 12296.59177384 0 371.14875685 0 2855.36434121 0 -129.59491861 0 904.92671341 0 19723
0.13750000 0.13749600 12176.23560307 0 293.68455795 0 2908.91010403 0 -236.58236440 0 745.03459240 0 20946
0.13850000 0.13851100 11876.39704698 0 121.26299418 0 3213.00043285 0 -401.63751047 0 378.30812208 0 20955
0.13950000 0.13949800 11853.92022759 0 179.53110354 0 3362.20000978 0 -305.33264366 0 30.81549793 0 20506
0.14050000 0.14048300 11851.48431613 0 221.06007224 0 3758.78854013 0 -476.37238130 0 -140.95512387 0 21447
0.14150000 0.14148400 11630.92360575 0 110.14017956 0 3551.81357230 0 -129.82965189 0 -162.55058620 0 21771
0.14250000 0.14249400 11475.68961179 0 237.33417526 0 3547.80539072 0 -1.65299844 0 -758.60704816 0 22470
0.14350000 0.14350900 11344.26111619 0 376.50886930 0 3848.18649072 0 204.58556014 0 -625.14788819 0 22519
0.14450000 0.14449900 10989.72527550 0 215.80625411 0 3281.64884672 0 399.35771879 0 -448.26528475 0 22218
0.14550000 0.14550500 10839.99422698 0 183.64115051 0 3396.45778277 0 433.92662411 0 -334.62669344 0 23559
0.14650000 0.14650700 10717.08034916 0 57.84348570 0 3487.36156953 0 152.56556368 0 136.59816406 0 23044
0.14750000 0.14750500 10717.15785544 0 45.56615977 0 3421.33729664 0 367.61557800 0 211.35407230 0 23649
0.14850000 0.14849900 10567.94720618 0 104.91813901 0 3206.84422025 0 598.02955024 0 901.09568902 0 23640
0.14950000 0.14949500 10599.53654889 0 -3.33998893 0 3233.91605443 0 302.49591405 0 1021.13076238 0 24457
0.15050000 0.15050000 10693.31914010 0 -27.24888066 0 3232.24413338 0 576.84265670 0 1023.07838431 0 24591
0.15150000 0.15149900 10346.78859025 0 299.72894007 0 2900.83837924 0 132.51911959 0 932.85775999 0 25020
0.15250000 0.15250500 10302.98647327 0 258.63954267 0 2691.95897153 0 24.47227376 0 982.79726662 0 25297
0.15350000 0.15350100 10035.34623776 0 181.42557832 0 2730.93355490 0 -0.30667904 0 791.12203722 0 25452
0.15450000 0.15450400 9900.11993475 0 90.59918711 0 2653.20583467 0 -17.31999482 0 1059.20848743 0 26061
0.15550000 0.15549900 9902.12402554 0 22.15550052 0 2491.78241114 0 12.63086526 0 452.27789526 0 26128
0.15650000 0.15649500 9813.45684839 0 103.50077071 0 2451.08054510 0 34.58628887 0 331.68588396 0 26331
0.15750000 0.15749700 9783.93803042 0 125.73178448 0 2600.90017222 0 -332.65692685 0 -60.54668308 0 27345
0.15850000 0.15849900 9459.95073391 0 239.45231099 0 2511.64616186 0 -0.41774110 0 348.35526898 0 26980
0.15950000 0.15949700 9539.90399142 0 215.62577522 0 2506.61932639 0 27.99615186 0 322.70733577 0 27777
0.16050000 0.16050000 9380.07498266 0 0.96564513 0 2556.00189509 0 313.42319141 0 494.56199651 0 28224
0.16150000 0.16150500 9423.89924430 0 -7.94292044 0 2579.04340303 0 295.04091775 0 411.74100687 0 28075
0.16250000 0.16249700 9236.30084489 0 213.13560936 0 2404.87573364 0 49.27206689 0 465.72191206 0 28590
0.16350000 0.16349900 9070.16061099 0 309.39286517 0 2736.94582727 0 -317.02391144 0 672.45882491 0 29163
0.16450000 0.16449100 9045.10393993 0 214.91936089 0 2818.64851211 0 22.25504072 0 996.32211139 0 28996
0.16550000 0.16550500 8878.76440417 0 18.34097389 0 2866.42559370 0 -50.17988680 0 1090.58081257 0 30777
0.16650000 0.16650700 8870.29407569 0 108.27238909 0 2929.78143631 0 133.59313510 0 1079.28593402 0 29211
0.16750000 0.16749900 8870.88090890 0 119.56560679 0 3061.97392232 0 53.64164916 0 769.48892899 0 30922
0.16850000 0.16850800 8666.25327393 0 206.35602488 0 2943.14573237 0 -52.41627497 0 829.66147822 0 30867
0.16950000 0.16949900 8535.96522779 0 180.39806657 0 2922.47370193 0 68.93053671 0 780.65536857 0 30852
0.17050000 0.17049200 8344.28114053 0 46.34742301 0 2617.68581665 0 311.54200342 0 622.57910883 0 31257
0.17150000 0.17149500 8312.04960298 0 92.52986838 0 2758.37077580 0 387.42507433 0 620.83521767 0 32608
0.17250000 0.17250900 8273.49576796 0 24.40030365 0 2187.75851627 0 300.31798775 0 463.95698348 0 32361
0.17350000 0.17350400 8208.78910172 0 102.16323387 0 2183.78355166 0 214.21737550 0 593.80102940 0 32508
0.17450000 0.17449800 8094.21268450 0 272.49877165 0 2110.34082113 0 160.76351297 0 670.24325271 0 32791
0.17550000 0.17549800 7965.17581106 0 127.57754103 0 2136.40507376 0 49.30262651 0 811.03561341 0 33633
0.17650000 0.17650100 7768.59775623 0 48.73140527 0 2196.70495472 0 -170.30232080 0 895.58720742 0 33984
0.17750000 0.17750300 7886.31871370 0 0.95578079 0 2396.13966935 0 -80.71259755 0 920.09136948 0 34069
0.17850000 0.17849800 7893.56001414 0 37.02906517 0 2482.57023689 0 -42.79254241 0 1086.55048634 0 34536
