### header ###
fiducial parameters:
Omega_m = 0.31
Omega_nu = 0
Omega_de = 0.69
Omega_k = 0
H_0 = 100
w_de = -1
zeff = 0
beta = 0
fgrowth = 0
b_1 = 2
gamma = 0.55
Lx = 3500 Ly = 3500 Lz = 3500
nx = 700 ny = 700 nz = 700
xoffset = -685.467585 yoffset = -31.7331281 zoffset = 572.489161
bins = 400 dk = 0.001
kx_ny = 0.628318531 ky_ny = 0.628318531 kz_ny = 0.628318531
############################
A(data) = 8.09152353 (not used)
A(ran) = 8.08409851 (used)
Ngal = 480018
weighted Ngal = 0
Nran = 23820508
weighted Nran = 0
SN(data) = 3498.74615
SN(ran) = 70.4154299
SN(data+ran) = 3569.16158
############################
13 columns: k_central k_mean P_0(k) sigma^{lin}_{P_0(k)} P^img_1(k) sigma^{lin}_{P_1(k)} P_2(k) sigma^{lin}_{P_2(k)} P^img_3(k) sigma^{lin}_{P_3(k)} P_4(k) sigma^{lin}_{P_4(k)} N_modes
### header ###
0.00050000 0 0 0 0 0 0 0 0 0 0 0 0
0.00150000 0.00179520 14762.95212720 0 -21858.87293372 0 3247.59037558 0 -47898.65571897 0 -37004.26316016 0 3
0.00250000 0.00253879 26754.72279878 0 -19357.96692694 0 -19150.02866684 0 4214.21540458 0 27262.05672197 0 6
0.00350000 0.00331552 50390.59314265 0 -29700.62554003 0 -22507.15755186 0 9319.07754524 0 -21239.15491362 0 7
0.00450000 0.00420575 65577.72603365 0 -22953.48296529 0 -26100.01623226 0 -21995.72686848 0 798.28140245 0 24
0.00550000 0.00557378 87158.24072143 0 1964.90583464 0 -3065.08524560 0 -41442.93673346 0 -24402.29666781 0 45
0.00650000 0.00659388 74478.10361587 0 6555.38098120 0 -499.91435833 0 -38197.63832911 0 23545.63089660 0 40
0.00750000 0.00754703 58073.45788781 0 26927.22961946 0 10390.83429838 0 -549.49290717 0 -8255.03820249 0 57
0.00850000 0.00846663 45781.73793689 0 3159.97506929 0 -4633.61292406 0 17830.98261120 0 2700.92755464 0 75
0.00950000 0.00948925 57072.96261720 0 -18406.30060877 0 -4228.65371614 0 18543.37599003 0 -33523.23496042 0 112
0.01050000 0.01054430 55260.09087464 0 -8677.31452642 0 -24684.53022744 0 7510.74545586 0 -11031.96619468 0 105
0.01150000 0.01145670 73119.64008387 0 -13874.06589076 0 -22593.18951570 0 -11255.68251764 0 -8159.18508654 0 144
0.01250000 0.01249090 76407.23476903 0 -8128.32651727 0 -10818.02673454 0 -24514.57004148 0 -3821.69041743 0 169
0.01350000 0.01339930 84686.89782191 0 5687.59859587 0 3520.96607536 0 -30309.82485156 0 -11220.25107822 0 180
0.01450000 0.01448870 82723.22101533 0 7227.78112279 0 21190.99030066 0 -19669.54214733 0 6169.78726940 0 267
0.01550000 0.01550050 81520.65581677 0 3163.60679183 0 26997.98177505 0 -12845.44691510 0 3419.27784422 0 238
0.01650000 0.01653350 79728.26787513 0 -4346.12001014 0 40845.58480949 0 -451.99776544 0 -11185.48397829 0 315
0.01750000 0.01747870 90580.03198339 0 -8374.76325075 0 46184.65983704 0 14039.70787004 0 -8355.90708159 0 297
0.01850000 0.01844180 90617.45644128 0 1703.34430545 0 27833.72085236 0 12913.20954299 0 -27432.90269393 0 388
0.01950000 0.01947590 84570.74913457 0 7096.72908624 0 25875.46948494 0 -1490.29063129 0 -17186.24113701 0 399
0.02050000 0.02045430 75148.20071390 0 9977.63728080 0 15449.98988219 0 2671.33123040 0 -17619.94410015 0 462
0.02150000 0.02154770 71781.99252253 0 2682.94609913 0 8729.58697189 0 3993.41110304 0 -13665.68473767 0 571
0.02250000 0.02255340 66132.11733732 0 226.56744660 0 2912.77434539 0 10898.61111457 0 -20264.34743659 0 510
0.02350000 0.02348930 70062.23903170 0 993.25507741 0 5503.67620831 0 -4199.27883839 0 -19261.52697777 0 555
0.02450000 0.02439640 65246.22062858 0 5331.92230572 0 11759.03040390 0 -489.53294658 0 -1847.58348086 0 592
0.02550000 0.02547300 68126.90737665 0 -651.78679447 0 13894.99258466 0 -3382.93847417 0 -5711.10514146 0 837
0.02650000 0.02652900 65617.58640300 0 707.91351621 0 22144.53891404 0 2067.83416616 0 13745.62692286 0 723
0.02750000 0.02749970 72450.20732534 0 1139.19828362 0 33322.93660445 0 -559.32623884 0 1487.30110359 0 826
0.02850000 0.02848090 64020.73571765 0 5935.91762458 0 32021.16337553 0 4752.88400700 0 9237.57416225 0 831
0.02950000 0.02946900 61474.32245586 0 6963.71724819 0 31455.81047029 0 3569.45178574 0 10205.49465324 0 996
0.03050000 0.03053250 54746.44572631 0 1979.43272480 0 22974.40965920 0 9516.69639860 0 6572.78667582 0 1041
0.03150000 0.03150510 58356.68795668 0 -4897.51071378 0 20191.82370903 0 9819.11480637 0 -2425.38167920 0 1036
0.03250000 0.03246190 58287.37520331 0 -1229.67024971 0 16454.91408273 0 9732.00882702 0 -5593.00772494 0 1059
0.03350000 0.03345080 58302.10139532 0 3193.38027327 0 7019.48854830 0 2030.04432155 0 -8667.90305033 0 1302
0.03450000 0.03451200 53154.35614063 0 3956.89457579 0 8119.60152531 0 -3486.79688096 0 -7368.05640592 0 1339
0.03550000 0.03553350 50186.30874975 0 2491.85991741 0 8049.43620293 0 -2620.58676575 0 481.84543146 0 1365
0.03650000 0.03647120 48171.47780250 0 2097.30869482 0 13917.80157379 0 1562.58184003 0 -2406.10476169 0 1308
0.03750000 0.03744890 48634.63314966 0 1276.58368997 0 16678.79649057 0 -1103.71369704 0 3009.62397058 0 1579
0.03850000 0.03847530 46678.48552395 0 1653.66278399 0 14859.94569261 0 4893.22572408 0 1816.31523558 0 1662
0.03950000 0.03950240 46868.15444810 0 535.87616211 0 19815.91828143 0 40.05114550 0 10706.91595498 0 1683
0.04050000 0.04050350 45924.68165030 0 552.61308830 0 17057.24855287 0 2143.07061330 0 4946.55004041 0 1822
0.04150000 0.04152450 48091.97851030 0 667.22382973 0 25044.93440029 0 2307.33962431 0 9590.32735864 0 1887
0.04250000 0.04250150 44594.00965359 0 2527.93355167 0 19286.88260160 0 1584.59362177 0 7907.92081943 0 1920
0.04350000 0.04349210 43097.80640085 0 2855.64114933 0 21468.01986763 0 445.11410110 0 8843.14473523 0 2005
0.04450000 0.04448520 40942.35692840 0 801.07162830 0 19152.79674805 0 2076.71417066 0 7952.15475708 0 2151
0.04550000 0.04548030 41650.32137731 0 390.86635289 0 20216.07210038 0 5327.36050789 0 2861.71985565 0 2274
0.04650000 0.04648670 40279.56756476 0 109.77988611 0 16331.01476801 0 1902.22540384 0 4296.36098240 0 2311
0.04750000 0.04749250 39863.69104457 0 193.72582396 0 17043.74031659 0 -462.58512244 0 -209.33558749 0 2568
0.04850000 0.04851840 40085.13754095 0 768.32079872 0 15250.90948196 0 -759.27913828 0 655.43844720 0 2493
0.04950000 0.04949480 39065.15497865 0 755.73045817 0 16582.13509490 0 -895.91937717 0 -178.20796072 0 2644
0.05050000 0.05050630 38331.39201292 0 963.75065347 0 13166.43361160 0 -872.51248250 0 -3248.17720880 0 2829
0.05150000 0.05149060 37626.52781496 0 1099.64351043 0 13579.54205058 0 628.11859294 0 -2766.40928361 0 2784
0.05250000 0.05249300 37261.91615869 0 -320.93687103 0 13233.53190000 0 1623.33568631 0 -2432.49011173 0 3055
0.05350000 0.05348950 36280.79745651 0 451.43418411 0 15311.80726846 0 2403.91244138 0 -606.11899076 0 3009
0.05450000 0.05448610 36745.61365239 0 865.97870362 0 13169.09096955 0 2224.55185164 0 -1827.52042829 0 3336
0.05550000 0.05550870 35920.83617665 0 652.67147322 0 13849.81749940 0 3411.73759102 0 1844.64931479 0 3349
0.05650000 0.05647670 35210.54653954 0 768.37616035 0 10992.17225928 0 517.33444697 0 3173.09577420 0 3324
0.05750000 0.05747970 35343.19299086 0 650.78474908 0 12968.68189034 0 1761.36328750 0 4152.28789186 0 3639
0.05850000 0.05849280 34370.26780905 0 240.76548872 0 13017.17867304 0 -1072.65582592 0 3797.06556703 0 3846
0.05950000 0.05951020 33822.85207002 0 935.93143736 0 14919.07190714 0 209.20050512 0 551.11389552 0 3787
0.06050000 0.06049470 33149.43327455 0 1259.45480347 0 13843.28482776 0 -1995.35472789 0 969.05318983 0 3930
0.06150000 0.06148310 32342.37151851 0 1230.84391614 0 15023.81609992 0 -1360.48976744 0 -1110.53203466 0 4083
0.06250000 0.06249100 31741.91934360 0 693.24600752 0 14040.81510253 0 -1035.00106368 0 -2699.47708009 0 4303
0.06350000 0.06350600 31622.89185180 0 -541.20970097 0 13858.23246627 0 231.86223233 0 -4169.61608021 0 4470
0.06450000 0.06451750 31982.29951541 0 310.73815264 0 13713.96007388 0 261.29247170 0 -5597.93490949 0 4479
0.06550000 0.06550280 31405.98500860 0 1161.77475392 0 14102.26650527 0 -1392.06803782 0 -6484.27451122 0 4636
0.06650000 0.06648880 31090.42375127 0 671.81773730 0 13560.82982164 0 1896.63387981 0 -3876.53164226 0 4653
0.06750000 0.06749660 30296.09516878 0 246.19646404 0 13450.10657345 0 1945.16387949 0 -3665.10559984 0 5220
0.06850000 0.06852730 30174.63176552 0 -247.20958176 0 11773.64587266 0 3674.12954457 0 -2563.29855714 0 5029
0.06950000 0.06949320 30683.18364444 0 -745.35015365 0 10439.95113128 0 5011.72174429 0 -2230.76342586 0 5040
0.07050000 0.07048030 30125.91353632 0 -33.18796496 0 8760.82200021 0 2223.01279849 0 -313.89044352 0 5475
0.07150000 0.07148790 30178.06418621 0 1107.39856674 0 8445.93615469 0 651.61185174 0 1460.42857125 0 5509
0.07250000 0.07249820 29751.33678770 0 569.96452853 0 10124.99885181 0 -499.16808364 0 -143.53386832 0 5916
0.07350000 0.07351270 28861.45404203 0 679.18415500 0 9797.02551836 0 -163.87262178 0 3121.67589775 0 5721
0.07450000 0.07449140 28581.21350087 0 1029.74060216 0 9981.16935242 0 -1560.04627765 0 1022.24906718 0 6028
0.07550000 0.07549160 28046.53093538 0 1057.78790815 0 11801.21596146 0 -994.73323278 0 1127.24017281 0 6183
0.07650000 0.07648840 27125.31351046 0 1327.37244391 0 12158.51988336 0 -1092.81188602 0 1129.19997430 0 6330
0.07750000 0.07749960 25912.34032658 0 1210.59263405 0 13268.07755343 0 -869.66025163 0 765.40434837 0 6583
0.07850000 0.07848650 25922.41614217 0 523.66892400 0 13488.85971032 0 -173.94290120 0 966.46115859 0 6549
0.07950000 0.07947320 25040.17330062 0 439.52146984 0 13128.78770721 0 1096.39821203 0 -1111.46210995 0 6828
0.08050000 0.08048110 25195.62874107 0 393.79719727 0 13015.07493133 0 856.10772605 0 -992.60291748 0 7147
0.08150000 0.08149960 24040.23164624 0 -157.52817966 0 11440.14744912 0 2060.85860152 0 -1634.50766205 0 7386
0.08250000 0.08250610 24420.67672701 0 -241.59591308 0 10375.28875434 0 1896.83318166 0 -187.44449409 0 7227
0.08350000 0.08350160 24727.26940124 0 -127.63290265 0 9663.17218363 0 1624.88581179 0 -957.24676987 0 7798
0.08450000 0.08449610 23895.18419112 0 724.01267650 0 9428.21745098 0 1748.28687189 0 -1094.58567246 0 7371
0.08550000 0.08548940 23601.32469043 0 697.70372549 0 8137.21759410 0 872.23788884 0 772.39873595 0 8256
0.08650000 0.08650700 22863.46496452 0 466.11940852 0 8223.70352325 0 44.61958672 0 559.39710172 0 8037
0.08750000 0.08749060 22227.24918044 0 1041.88472802 0 8899.82396598 0 -45.85880132 0 778.19177630 0 8155
0.08850000 0.08849210 21677.95114619 0 693.96349417 0 8984.09543017 0 -9.45404918 0 780.93882009 0 8718
0.08950000 0.08949900 20858.15621661 0 643.42718923 0 9213.25933695 0 -1016.44384728 0 361.72288673 0 8571
0.09050000 0.09049190 20778.32475467 0 513.39934273 0 9580.35119398 0 -3.37626186 0 -189.88594171 0 8932
0.09150000 0.09150830 20197.35987144 0 584.20685994 0 9934.16733356 0 609.49162090 0 829.53746818 0 9285
0.09250000 0.09250820 19640.42193306 0 420.02642753 0 8593.79598032 0 583.28232082 0 244.93200455 0 9204
0.09350000 0.09350330 19616.17354171 0 66.62860038 0 8899.56930251 0 1040.43757516 0 -189.48955248 0 9349
0.09450000 0.09448040 19160.65809867 0 864.84157586 0 8168.48583938 0 641.28912331 0 466.63648609 0 9564
0.09550000 0.09549270 18517.46674995 0 781.65962843 0 7604.76056589 0 872.75607365 0 300.81292067 0 10155
0.09650000 0.09649430 17663.79050643 0 319.75545397 0 7205.06071226 0 552.62526786 0 1524.49304266 0 9913
0.09750000 0.09749140 17570.00791522 0 168.25504794 0 6534.39892567 0 624.62527446 0 -12.14611888 0 10476
0.09850000 0.09850240 17595.36353906 0 -94.22703433 0 6708.10155743 0 622.81273489 0 -369.26867610 0 10575
0.09950000 0.09950330 17110.28498875 0 363.93956616 0 6071.36537408 0 5.06190152 0 -540.02496222 0 10882
0.10050000 0.10051200 16907.88289107 0 485.76614168 0 6259.31808788 0 -169.12754714 0 -619.41906733 0 10875
0.10150000 0.10150300 16637.60744224 0 -132.37296490 0 6183.63874774 0 192.52115502 0 551.39956150 0 11118
0.10250000 0.10250800 16850.97114150 0 92.88839026 0 6500.00828479 0 27.15454445 0 -1089.94969006 0 11575
0.10350000 0.10349800 17054.25902517 0 -118.17049386 0 6432.31209085 0 333.78298229 0 -174.74675199 0 11364
0.10450000 0.10450100 16827.38708963 0 275.60345153 0 6427.46241257 0 -5.38172562 0 -535.57610211 0 12093
0.10550000 0.10551000 16891.38512709 0 80.89506946 0 6669.93525378 0 -37.84332393 0 -522.13429978 0 12067
0.10650000 0.10649700 16643.47577440 0 296.00642447 0 6465.96088597 0 -107.66972245 0 -949.22376331 0 12054
0.10750000 0.10749900 16344.96589729 0 600.12221964 0 6593.24833208 0 421.87107685 0 114.24314025 0 12807
0.10850000 0.10850100 15899.85843958 0 265.54092273 0 6177.74827094 0 388.41826187 0 -522.00696804 0 12736
0.10950000 0.10950300 15664.57153718 0 200.95826653 0 5741.89727678 0 1333.09683584 0 -698.77884823 0 12933
0.11050000 0.11050200 15369.71552726 0 35.52378261 0 5207.12613269 0 1513.84146618 0 -552.03289848 0 13428
0.11150000 0.11150900 15331.95889963 0 25.37123581 0 4357.50236005 0 690.01953207 0 -1176.72239243 0 13453
0.11250000 0.11250000 15325.86912098 0 191.02085500 0 4332.44568899 0 -143.22273599 0 -856.48418509 0 13668
0.11350000 0.11349100 14986.05947229 0 123.06667589 0 4105.02013721 0 -338.56511937 0 -1503.90959082 0 13791
0.11450000 0.11448600 14940.33077079 0 281.36881106 0 4406.14308298 0 -533.42032046 0 -239.05924346 0 14205
0.11550000 0.11549300 14889.06590688 0 149.57271428 0 4571.20930138 0 -441.47019901 0 -478.54698589 0 14776
0.11650000 0.11649800 15017.72632127 0 200.79661059 0 4917.00907779 0 358.97695018 0 -595.23489546 0 14553
0.11750000 0.11747300 14709.36207508 0 201.94591790 0 4794.62667157 0 -206.00503218 0 -62.56638585 0 14568
0.11850000 0.11849100 14847.32324232 0 309.15259573 0 5436.36754573 0 -223.75064717 0 176.14740107 0 16015
0.11950000 0.11950300 14625.32312970 0 61.84524534 0 5646.35418592 0 6.56020851 0 277.33848482 0 15270
0.12050000 0.12050700 14514.04626527 0 39.13845377 0 5787.44882108 0 -241.02458112 0 -22.18008108 0 15999
0.12150000 0.12150000 14606.83234725 0 272.90180427 0 5850.80466369 0 19.83595919 0 130.32569205 0 15670
0.12250000 0.12250700 14456.47017622 0 197.57345683 0 5783.97211109 0 320.65231228 0 -446.92774791 0 16887
0.12350000 0.12352200 14044.46896972 0 327.97111899 0 5310.82952694 0 468.54867658 0 -234.46755036 0 16407
0.12450000 0.12449800 13912.04396488 0 110.53977976 0 5104.19780117 0 648.03549082 0 -240.85738901 0 16306
0.12550000 0.12549900 13684.95058285 0 19.84105246 0 4987.97160755 0 1035.63218619 0 -70.64165379 0 17523
0.12650000 0.12650100 13460.07166579 0 74.87205693 0 4434.13392012 0 765.71769516 0 136.73656812 0 17154
0.12750000 0.12750600 13536.47070704 0 226.59623465 0 4086.05324480 0 648.67768566 0 59.41343064 0 18007
0.12850000 0.12850300 13138.08846006 0 176.79623931 0 4054.60784231 0 322.96089201 0 605.03611739 0 17496
0.12950000 0.12949900 12978.53625942 0 233.03257706 0 3737.21965139 0 151.20698942 0 498.84255729 0 18405
0.13050000 0.13049000 13013.52480585 0 91.60366841 0 4253.69931488 0 -143.77081607 0 1073.68112320 0 18100
0.13150000 0.13148800 13023.93279118 0 168.96035504 0 4254.19756950 0 73.78386885 0 941.92599402 0 19059
0.13250000 0.13249300 12726.41942330 0 286.17641450 0 3970.44710137 0 -206.10579034 0 919.38274069 0 18957
0.13350000 0.13349100 12489.25022569 0 343.17784989 0 3912.08487725 0 149.94142269 0 839.93881012 0 19468
0.13450000 0.13450700 12366.23669695 0 85.78649040 0 4004.21769206 0 496.26049114 0 950.05197320 0 19953
0.13550000 0.13551000 12323.27607666 0 65.16594627 0 3978.95064683 0 187.93721254 0 354.85361642 0 19956
0.13650000 0.13649900 12190.74034858 0 175.07449280 0 3868.70350861 0 60.45821521 0 671.34273457 0 19723
0.13750000 0.13749600 12051.89339535 0 147.65941655 0 3612.37918906 0 -27.38573459 0 829.03367740 0 20946
0.13850000 0.13851100 11949.47439078 0 256.28999534 0 3850.76634240 0 72.85733671 0 689.08502786 0 20955
0.13950000 0.13949800 11866.98557088 0 20.61467579 0 3750.04140353 0 -143.23602278 0 433.58116757 0 20506
0.14050000 0.14048300 11820.92469963 0 182.81404785 0 4150.04020993 0 -394.61765654 0 393.16275306 0 21447
0.14150000 0.14148400 11801.65885445 0 57.77572307 0 4304.55450277 0 -437.98795285 0 341.20476161 0 21771
0.14250000 0.14249400 11739.65383547 0 198.25883374 0 4443.45681762 0 -79.35911657 0 -98.50205894 0 22470
0.14350000 0.14350900 11430.29308003 0 205.27204428 0 4218.42288801 0 -28.21405521 0 -236.50596536 0 22519
0.14450000 0.14449900 11332.41372864 0 387.59448090 0 4391.95943489 0 187.82759653 0 -459.34757466 0 22218
0.14550000 0.14550500 10887.30627093 0 395.59423559 0 4104.03470030 0 718.41229460 0 22.58344587 0 23559
0.14650000 0.14650700 10610.99640508 0 147.95726209 0 3946.76339858 0 538.75164486 0 -389.09588815 0 23044
0.14750000 0.14750500 10468.18555957 0 196.17723667 0 3555.67781366 0 440.47922594 0 -269.09846069 0 23649
0.14850000 0.14849900 10214.13106660 0 198.44152710 0 3488.81204408 0 66.29997378 0 141.51870520 0 23640
0.14950000 0.14949500 10308.65550358 0 98.17608970 0 3512.63968709 0 -19.41820037 0 337.03160239 0 24457
0.15050000 0.15050000 10059.78285863 0 -3.50178881 0 3577.85568027 0 85.60091824 0 825.13179014 0 24591
0.15150000 0.15149900 10216.86593083 0 44.95153502 0 3461.30838923 0 280.13867577 0 496.02243616 0 25020
0.15250000 0.15250500 10189.24048041 0 131.47832106 0 3762.65278150 0 58.25216521 0 756.62067309 0 25297
0.15350000 0.15350100 10034.17257133 0 144.09855689 0 3446.47147398 0 139.18244467 0 493.54777156 0 25452
0.15450000 0.15450400 9958.67038839 0 20.93256224 0 3383.71353690 0 146.27759041 0 357.50100928 0 26061
0.15550000 0.15549900 9846.31950845 0 181.03361802 0 3360.24020829 0 -21.06022614 0 551.90556675 0 26128
0.15650000 0.15649500 9910.72722192 0 12.79672869 0 3366.20819136 0 90.18120684 0 -43.45699262 0 26331
0.15750000 0.15749700 9647.40519309 0 90.62664647 0 3254.12304723 0 -102.46229736 0 163.84051204 0 27345
0.15850000 0.15849900 9736.40453998 0 212.34504537 0 3284.80445930 0 26.89290541 0 -222.31567387 0 26980
0.15950000 0.15949700 9502.85599258 0 158.86018034 0 3310.87978425 0 -75.34849907 0 -138.18814990 0 27777
0.16050000 0.16050000 9356.04803781 0 189.29025063 0 3271.96056251 0 60.71254651 0 -527.21206794 0 28224
0.16150000 0.16150500 9218.56298053 0 179.79019594 0 3125.82801955 0 -26.75394774 0 -359.85166384 0 28075
0.16250000 0.16249700 8947.68962617 0 301.53040732 0 3248.33222135 0 202.39213259 0 -334.56358119 0 28590
0.16350000 0.16349900 8830.79909306 0 206.01056834 0 3248.86369294 0 414.90990623 0 -288.54810647 0 29163
0.16450000 0.16449100 8665.98753813 0 118.49491298 0 2778.10165862 0 418.02898013 0 -284.21439854 0 28996
0.16550000 0.16550500 8635.46113861 0 45.80919730 0 2791.38844840 0 362.00412378 0 -288.62561275 0 30777
0.16650000 0.16650700 8599.75289107 0 -2.54157466 0 2541.50822190 0 202.91031739 0 -145.45713114 0 29211
0.16750000 0.16749900 8594.32745191 0 9.74644714 0 2545.71570533 0 264.56212922 0 -141.25518387 0 30922
0.16850000 0.16850800 8605.75409112 0 44.80194791 0 2435.30248224 0 -0.98953699 0 82.12144016 0 30867
0.16950000 0.16949900 8472.72010843 0 112.46381765 0 2272.12963138 0 125.89454765 0 183.74633760 0 30852
0.17050000 0.17049200 8528.08173252 0 -2.18067223 0 2382.63143307 0 71.89005841 0 356.96400153 0 31257
0.17150000 0.17149500 8350.52593173 0 115.63271701 0 2293.31098876 0 93.85921170 0 282.52144007 0 32608
0.17250000 0.17250900 8360.81212148 0 12.83160651 0 2380.91522273 0 143.07658131 0 -81.73678760 0 32361
0.17350000 0.17350400 8281.96609645 0 40.22918849 0 2158.01825180 0 14.87489333 0 287.56156233 0 32508
0.17450000 0.17449800 8254.98284087 0 251.98728992 0 2132.18651800 0 -110.71881926 0 125.82257754 0 32791
0.17550000 0.17549800 8109.35962485 0 257.95970193 0 2252.75306295 0 -129.06787595 0 48.14446133 0 33633
0.17650000 0.17650100 7951.73400873 0 144.19267165 0 2294.18570242 0 -224.11049772 0 51.27139658 0 33984
0.17750000 0.17750300 7762.25331411 0 121.68484976 0 2378.18035850 0 36.46127635 0 21.69123794 0 34069
0.17850000 0.17849800 7752.37680037 0 53.30936869 0 2390.38206045 0 219.48780211 0 -140.88868992 0 34536
