### header ###
fiducial parameters:
Omega_m = 0.31
Omega_nu = 0
Omega_de = 0.69
Omega_k = 0
H_0 = 100
w_de = -1
zeff = 0
beta = 0
fgrowth = 0
b_1 = 2
gamma = 0.55
Lx = 3500 Ly = 3500 Lz = 3500
nx = 700 ny = 700 nz = 700
xoffset = -685.467585 yoffset = -31.7331281 zoffset = 572.489161
bins = 400 dk = 0.001
kx_ny = 0.628318531 ky_ny = 0.628318531 kz_ny = 0.628318531
############################
A(data) = 8.06434873 (not used)
A(ran) = 8.05983335 (used)
Ngal = 479073
weighted Ngal = 0
Nran = 23820508
weighted Nran = 0
SN(data) = 3488.75756
SN(ran) = 70.2040715
SN(data+ran) = 3558.96163
############################
13 columns: k_central k_mean P_0(k) sigma^{lin}_{P_0(k)} P^img_1(k) sigma^{lin}_{P_1(k)} P_2(k) sigma^{lin}_{P_2(k)} P^img_3(k) sigma^{lin}_{P_3(k)} P_4(k) sigma^{lin}_{P_4(k)} N_modes
### header ###
0.00050000 0 0 0 0 0 0 0 0 0 0 0 0
0.00150000 0.00179520 10374.36975138 0 -18383.15944990 0 6972.28722760 0 -14296.03218960 0 -10039.49835956 0 3
0.00250000 0.00253879 16098.16377708 0 -16936.22804260 0 1437.15454449 0 22960.79069968 0 744.63488147 0 6
0.00350000 0.00331552 31526.11973288 0 -10747.08634942 0 19175.82718367 0 -17453.74850462 0 -29960.27155703 0 7
0.00450000 0.00420575 36400.48928780 0 307.22047505 0 15431.16693000 0 -225.62187006 0 -4468.18131894 0 24
0.00550000 0.00557378 56715.32652556 0 -3831.78837766 0 30698.46345269 0 6792.32873232 0 9105.82456923 0 45
0.00650000 0.00659388 51076.30221867 0 -3635.11067191 0 29231.60186072 0 18344.95992928 0 61224.64153120 0 40
0.00750000 0.00754703 63589.02577297 0 5578.27046061 0 41200.67426642 0 38307.58651456 0 -14526.22582257 0 57
0.00850000 0.00846663 68557.17791910 0 -7062.11699885 0 18332.22675574 0 40781.14387905 0 21725.67286616 0 75
0.00950000 0.00948925 78568.10968063 0 -15762.00799558 0 11285.02417841 0 48231.82197276 0 11505.58488880 0 112
0.01050000 0.01054430 82046.48052241 0 -18517.24530346 0 -8167.69970432 0 24801.45397753 0 -1362.48278591 0 105
0.01150000 0.01145670 97130.19789960 0 -11601.91411472 0 -7510.01468242 0 2614.30875758 0 10391.15539580 0 144
0.01250000 0.01249090 92255.49617495 0 6536.02655742 0 -8752.08593592 0 -1096.60747897 0 -2091.93861729 0 169
0.01350000 0.01339930 88526.22645278 0 13654.05879661 0 2994.06735421 0 -14146.44508130 0 34695.12981923 0 180
0.01450000 0.01448870 72633.78647083 0 14683.78500474 0 5168.15154933 0 -8052.58074318 0 5896.95411354 0 267
0.01550000 0.01550050 73001.05548507 0 4268.10440947 0 19694.56560142 0 5044.71727225 0 19107.40021629 0 238
0.01650000 0.01653350 69429.89856131 0 -295.26457871 0 26401.62636032 0 5942.43922389 0 14320.61275069 0 315
0.01750000 0.01747870 76655.58701471 0 -2891.49333709 0 26475.25732036 0 11135.87996311 0 19175.49501392 0 297
0.01850000 0.01844180 75440.73153561 0 -224.77262275 0 31880.54485033 0 9891.50566604 0 27953.63413015 0 388
0.01950000 0.01947590 79061.16030481 0 2584.65707172 0 31630.31030943 0 -428.38160384 0 18857.16567539 0 399
0.02050000 0.02045430 77376.39536040 0 2008.35363723 0 33390.47778585 0 -1179.77835408 0 22080.43015334 0 462
0.02150000 0.02154770 74651.05332954 0 6929.34875195 0 31158.29710241 0 -285.53975582 0 10033.29785766 0 571
0.02250000 0.02255340 65261.83260658 0 3957.10494996 0 21266.94644892 0 -2205.26386180 0 15375.47313617 0 510
0.02350000 0.02348930 70524.84076262 0 -11.86388532 0 20530.19395549 0 7186.64743609 0 -7780.55586704 0 555
0.02450000 0.02439640 64776.42188653 0 -4835.94858779 0 21174.04964369 0 2302.11348699 0 -13396.18435158 0 592
0.02550000 0.02547300 70200.97526168 0 212.84219276 0 14830.05041560 0 1967.76249445 0 -31797.50241419 0 837
0.02650000 0.02652900 67928.04842291 0 -900.41695551 0 11883.26188836 0 -5208.72054746 0 -23227.08011156 0 723
0.02750000 0.02749970 69309.09949754 0 1333.89404323 0 14933.13375966 0 -6261.58791447 0 -32044.63670414 0 826
0.02850000 0.02848090 65083.90034674 0 4398.18208144 0 13532.70611660 0 -2664.23387019 0 -22080.09798360 0 831
0.02950000 0.02946900 63970.24591648 0 3878.44715445 0 17784.81101670 0 -7180.29192164 0 -29063.85613971 0 996
0.03050000 0.03053250 59956.52816972 0 5638.72535412 0 22460.10017138 0 -5086.39350286 0 -18942.20113000 0 1041
0.03150000 0.03150510 59340.90690980 0 4697.23450246 0 26711.20856225 0 -1485.76205044 0 -18864.91630276 0 1036
0.03250000 0.03246190 57013.28278643 0 -157.26133663 0 30650.63100947 0 225.98725678 0 -10777.02591573 0 1059
0.03350000 0.03345080 56915.84632802 0 80.56301044 0 25741.27290813 0 3849.70339922 0 -12711.69323130 0 1302
0.03450000 0.03451200 57068.31224078 0 899.79358362 0 31068.27910163 0 8053.88727751 0 -7202.29263106 0 1339
0.03550000 0.03553350 54817.53005164 0 1173.15710383 0 27783.67394418 0 6498.09277259 0 -820.68514449 0 1365
0.03650000 0.03647120 53389.75376628 0 2235.85669528 0 23279.67365445 0 11362.75189864 0 -4977.60791152 0 1308
0.03750000 0.03744890 51925.54953226 0 3149.68887954 0 23244.90655452 0 5063.67309234 0 -1333.19648676 0 1579
0.03850000 0.03847530 48177.34613465 0 2756.54384220 0 18342.63474107 0 7539.15704134 0 2605.10765566 0 1662
0.03950000 0.03950240 47751.28307563 0 885.35859375 0 16005.04552535 0 2584.45776987 0 7880.95970849 0 1683
0.04050000 0.04050350 46255.52271588 0 -1199.44280295 0 15338.49157127 0 5320.88319787 0 6948.81389899 0 1822
0.04150000 0.04152450 47633.25209306 0 401.81798937 0 14367.00579168 0 2068.91925399 0 3141.06353850 0 1887
0.04250000 0.04250150 43943.39984725 0 3537.20917586 0 13275.49601106 0 19.64706533 0 159.29975163 0 1920
0.04350000 0.04349210 41906.31352712 0 3100.70491454 0 13132.33085116 0 -1821.37528802 0 1373.40009818 0 2005
0.04450000 0.04448520 39561.19513053 0 3295.65533762 0 13194.66803988 0 -1141.81135227 0 1752.67151252 0 2151
0.04550000 0.04548030 38347.22543741 0 185.72939097 0 14846.65890283 0 580.61167607 0 -2878.84874215 0 2274
0.04650000 0.04648670 38705.30442205 0 0.60347271 0 11992.21356458 0 -651.34390148 0 -5211.72114749 0 2311
0.04750000 0.04749250 37267.45232110 0 917.04980185 0 12916.53124044 0 -3168.20180663 0 -2621.63863661 0 2568
0.04850000 0.04851840 37416.37508991 0 1375.45955060 0 16132.15581427 0 1045.10013114 0 -1728.94352043 0 2493
0.04950000 0.04949480 36103.41881291 0 -93.85223614 0 15768.42994398 0 -285.25741154 0 -449.45445243 0 2644
0.05050000 0.05050630 37981.39582540 0 1150.21524681 0 17781.60004251 0 4163.79203735 0 2318.42302145 0 2829
0.05150000 0.05149060 34228.09915838 0 992.67156590 0 16322.71052440 0 2831.85779562 0 4567.58865116 0 2784
0.05250000 0.05249300 36051.48960951 0 779.40530310 0 16721.20349462 0 3121.78662099 0 6436.76316542 0 3055
0.05350000 0.05348950 34335.38998587 0 318.12007160 0 15692.36307247 0 2996.31503615 0 7706.48201400 0 3009
0.05450000 0.05448610 33962.36336273 0 1050.42149045 0 17044.07248634 0 1088.68633779 0 7574.71027633 0 3336
0.05550000 0.05550870 33016.01176048 0 819.05751274 0 14468.87118001 0 1922.01164829 0 8116.33518949 0 3349
0.05650000 0.05647670 33404.31819187 0 -1801.63333287 0 13192.23212842 0 -403.79661381 0 5367.96272300 0 3324
0.05750000 0.05747970 33576.60356605 0 -901.78992378 0 14066.39217286 0 1516.98600643 0 4916.07900250 0 3639
0.05850000 0.05849280 34917.46210159 0 616.84585904 0 13796.55961703 0 433.08291296 0 839.73729380 0 3846
0.05950000 0.05951020 34440.02345541 0 851.14178837 0 10350.40924047 0 1003.18695278 0 58.70380534 0 3787
0.06050000 0.06049470 33041.81027731 0 548.81749536 0 12441.86067546 0 -633.66139874 0 2797.06855104 0 3930
0.06150000 0.06148310 34299.84782320 0 546.48012759 0 11898.87386636 0 295.70415000 0 -934.64372599 0 4083
0.06250000 0.06249100 33250.74504664 0 -592.08371182 0 12566.09215993 0 -2055.57710258 0 -1528.62301981 0 4303
0.06350000 0.06350600 33713.01460781 0 676.53565491 0 13456.74996834 0 -600.25840923 0 -1734.69005701 0 4470
0.06450000 0.06451750 33469.53418505 0 347.79279488 0 13615.96999923 0 -2158.50543410 0 -2239.13410343 0 4479
0.06550000 0.06550280 33257.38844153 0 320.34893058 0 13954.56169219 0 1135.11259576 0 -2056.27465905 0 4636
0.06650000 0.06648880 32885.57977412 0 112.60997234 0 13905.73273974 0 2431.23893903 0 -644.81455153 0 4653
0.06750000 0.06749660 32745.07197217 0 1325.92196936 0 13734.66532129 0 2976.99382934 0 239.73465528 0 5220
0.06850000 0.06852730 31964.25162596 0 14.17279721 0 13246.37579679 0 3269.73502522 0 -61.72699291 0 5029
0.06950000 0.06949320 31183.20983325 0 0.64314817 0 12870.35964595 0 1680.01491706 0 3126.28198487 0 5040
0.07050000 0.07048030 31031.85115298 0 914.00380529 0 11983.79859772 0 363.51217442 0 -104.30960404 0 5475
0.07150000 0.07148790 29773.81360708 0 1603.87053928 0 11710.42289794 0 1078.54740996 0 1571.83830358 0 5509
0.07250000 0.07249820 28388.00143278 0 1175.83660644 0 9170.69732034 0 192.32960380 0 2431.28322833 0 5916
0.07350000 0.07351270 27739.93826115 0 143.68445194 0 9194.76855450 0 1642.13649385 0 108.77363323 0 5721
0.07450000 0.07449140 27752.78215794 0 152.25886028 0 8184.11996203 0 771.23724908 0 -2146.23729820 0 6028
0.07550000 0.07549160 26688.62101962 0 924.54465852 0 7031.22521261 0 504.59905896 0 -2660.28105023 0 6183
0.07650000 0.07648840 26232.10906734 0 667.24375992 0 6470.03550150 0 -361.03308090 0 -1507.50809638 0 6330
0.07750000 0.07749960 25952.97575867 0 539.08492184 0 7920.63184832 0 -1200.00749152 0 -1411.55532951 0 6583
0.07850000 0.07848650 25183.67063027 0 915.63808044 0 7841.97405281 0 499.72612881 0 258.06710348 0 6549
0.07950000 0.07947320 24574.58204199 0 1155.37495018 0 8543.81550609 0 -796.02707712 0 640.60042471 0 6828
0.08050000 0.08048110 24115.52345501 0 500.83225406 0 9060.14015703 0 170.55255534 0 1863.58299023 0 7147
0.08150000 0.08149960 23891.53032393 0 508.99809361 0 10599.50333192 0 318.73790732 0 1570.89715597 0 7386
0.08250000 0.08250610 23491.26578174 0 -81.69803446 0 9076.82615053 0 485.33764271 0 388.30310969 0 7227
0.08350000 0.08350160 23855.21309853 0 -136.93697719 0 9918.93181461 0 -158.97090358 0 1477.98927842 0 7798
0.08450000 0.08449610 23781.91430823 0 587.67360484 0 9711.99006375 0 756.60295737 0 1117.69582882 0 7371
0.08550000 0.08548940 23064.98127622 0 804.03126073 0 9193.51738179 0 894.04593981 0 1009.80266686 0 8256
0.08650000 0.08650700 22168.34441240 0 1015.97659517 0 9398.37753559 0 1547.19130853 0 1277.62448850 0 8037
0.08750000 0.08749060 21831.96718441 0 260.82632682 0 8640.52119105 0 878.94771768 0 2202.07503226 0 8155
0.08850000 0.08849210 20912.29988498 0 205.85887749 0 8225.47509522 0 2151.04268717 0 1443.16681686 0 8718
0.08950000 0.08949900 20924.47944228 0 12.98529038 0 7840.87789265 0 2442.48842104 0 2824.19574684 0 8571
0.09050000 0.09049190 21066.42664645 0 -484.46182181 0 6092.56887611 0 1965.88019923 0 2875.87028677 0 8932
0.09150000 0.09150830 20558.53910702 0 349.13254618 0 5062.94231890 0 990.34969938 0 2366.94194881 0 9285
0.09250000 0.09250820 20823.94273292 0 482.73011021 0 4089.19778505 0 52.25406541 0 2376.66345000 0 9204
0.09350000 0.09350330 19936.82806845 0 602.41529811 0 4908.12907328 0 -1248.05030891 0 2125.67599101 0 9349
0.09450000 0.09448040 19465.81137067 0 795.88535136 0 4423.36054807 0 -442.17218440 0 2307.98181915 0 9564
0.09550000 0.09549270 19210.37283710 0 -19.30371254 0 5143.86994100 0 -1053.43537727 0 -8.13246757 0 10155
0.09650000 0.09649430 18917.73129215 0 368.19576782 0 5081.10093160 0 -738.87173640 0 -564.45161800 0 9913
0.09750000 0.09749140 18774.78757874 0 504.25028073 0 5137.12689518 0 -153.54103549 0 -1151.31140697 0 10476
0.09850000 0.09850240 18471.51660195 0 151.03647562 0 5030.63327508 0 -446.81481020 0 -1313.00056629 0 10575
0.09950000 0.09950330 18171.56732262 0 587.57173945 0 5198.81081675 0 -150.59690432 0 -2194.35762186 0 10882
0.10050000 0.10051200 17802.85890616 0 614.10324418 0 5478.48666934 0 -227.48423510 0 -2315.79888047 0 10875
0.10150000 0.10150300 17231.52694551 0 455.91293950 0 4636.11526947 0 853.48690676 0 -1681.29930674 0 11118
0.10250000 0.10250800 16900.24298694 0 -66.21338820 0 4600.88313189 0 822.65269661 0 -1736.02980832 0 11575
0.10350000 0.10349800 17064.22411750 0 -112.24347838 0 4783.26646630 0 1007.84175813 0 -1960.05615637 0 11364
0.10450000 0.10450100 17080.83260473 0 225.24430379 0 4415.25560631 0 725.54840795 0 -1227.88760541 0 12093
0.10550000 0.10551000 17049.05503250 0 275.26242392 0 4479.54152420 0 -534.53087464 0 4.53338624 0 12067
0.10650000 0.10649700 16406.08513028 0 558.16585920 0 5308.32718153 0 87.14783274 0 654.12305501 0 12054
0.10750000 0.10749900 16393.46267999 0 401.19572471 0 5314.83770852 0 594.01693973 0 1832.30367261 0 12807
0.10850000 0.10850100 15937.17217421 0 217.24565634 0 5373.12242637 0 630.81027510 0 2204.90954741 0 12736
0.10950000 0.10950300 16198.14687019 0 116.99572020 0 5678.81824229 0 213.36702095 0 1422.95982407 0 12933
0.11050000 0.11050200 15638.44085061 0 157.65883309 0 5791.01410967 0 23.14425912 0 2458.03396509 0 13428
0.11150000 0.11150900 15994.08392378 0 192.07715479 0 5871.68706830 0 -409.03603792 0 1791.25856451 0 13453
0.11250000 0.11250000 15472.46670158 0 201.14317435 0 5510.74035154 0 -585.20669087 0 1461.38079119 0 13668
0.11350000 0.11349100 15649.95606842 0 312.77324594 0 6364.41659506 0 -291.78122532 0 369.93301559 0 13791
0.11450000 0.11448600 14965.57567138 0 536.88817260 0 5560.45508998 0 -282.71631299 0 349.82456648 0 14205
0.11550000 0.11549300 14801.04092457 0 214.41446288 0 5580.11953885 0 82.10826409 0 -455.16887927 0 14776
0.11650000 0.11649800 14361.13745953 0 241.56491057 0 5184.94826608 0 815.67713197 0 -643.37072038 0 14553
0.11750000 0.11747300 14371.98833785 0 131.53589715 0 4782.70177774 0 385.75093882 0 -1339.23090379 0 14568
0.11850000 0.11849100 13940.83200941 0 94.79515532 0 4451.53961474 0 1082.59434468 0 -546.51002286 0 16015
0.11950000 0.11950300 13945.48238584 0 129.23063912 0 3753.59561979 0 760.37308397 0 -169.52504360 0 15270
0.12050000 0.12050700 13860.22548473 0 -1.42908282 0 3949.87472185 0 265.18328664 0 -483.56164180 0 15999
0.12150000 0.12150000 13848.59954367 0 61.36337776 0 3974.13418553 0 380.54805339 0 52.65665514 0 15670
0.12250000 0.12250700 13763.56408907 0 33.32625830 0 3829.65141897 0 -287.69332300 0 -177.82042935 0 16887
0.12350000 0.12352200 13768.76808173 0 306.78865438 0 4117.77545540 0 -696.00412364 0 378.03242119 0 16407
0.12450000 0.12449800 13707.87029523 0 153.89313542 0 4487.73504457 0 -133.93194824 0 66.10377219 0 16306
0.12550000 0.12549900 13443.68462506 0 207.68027493 0 4308.89485410 0 -139.68623545 0 977.89001226 0 17523
0.12650000 0.12650100 13475.57292053 0 271.68163408 0 4637.27786357 0 340.65335984 0 -50.40210836 0 17154
0.12750000 0.12750600 13066.45051848 0 325.49756162 0 4609.48632828 0 228.93138795 0 134.24750950 0 18007
0.12850000 0.12850300 12657.88173268 0 659.96038465 0 4061.31767115 0 321.21367915 0 576.95559442 0 17496
0.12950000 0.12949900 12152.65155120 0 339.04122934 0 4419.93919971 0 -43.59218570 0 873.93306177 0 18405
0.13050000 0.13049000 12152.65155120 0 -19.87139063 0 4469.26640677 0 184.22244757 0 813.72175941 0 18100
0.13150000 0.13148800 12311.98230534 0 -187.16657873 0 4272.31189290 0 625.98274148 0 765.24047796 0 19059
0.13250000 0.13249300 12035.61707787 0 168.87066920 0 3978.55204314 0 408.60089555 0 579.38375525 0 18957
0.13350000 0.13349100 12151.54431872 0 148.18424475 0 3739.11301893 0 356.11032528 0 814.88988968 0 19468
0.13450000 0.13450700 12015.24400020 0 -135.08900618 0 3510.96776604 0 455.60291441 0 526.31520963 0 19953
0.13550000 0.13551000 12001.95721042 0 233.23520061 0 3394.44261965 0 144.78836272 0 554.59060552 0 19956
0.13650000 0.13649900 11981.58413275 0 175.40887701 0 3574.31253633 0 -167.85533702 0 110.66976886 0 19723
0.13750000 0.13749600 11481.33649745 0 321.55913569 0 3421.96841915 0 -242.07313028 0 434.78583651 0 20946
0.13850000 0.13851100 11522.63626902 0 183.92903096 0 3608.73639419 0 -483.49631509 0 431.65458305 0 20955
0.13950000 0.13949800 11516.32504387 0 -23.41752410 0 3724.58612877 0 -209.24147273 0 -89.92543614 0 20506
0.14050000 0.14048300 11536.03378205 0 128.22637926 0 3791.61798322 0 -181.12662555 0 -136.49629867 0 21447
0.14150000 0.14148400 11387.33245974 0 157.00667316 0 3539.09147108 0 57.41354733 0 -593.48325367 0 21771
0.14250000 0.14249400 11359.20875470 0 -23.25830407 0 3598.41698746 0 -4.88778921 0 -805.73861322 0 22470
0.14350000 0.14350900 11348.57932287 0 40.79753092 0 3345.69117348 0 499.45928578 0 -1051.54754589 0 22519
0.14450000 0.14449900 11015.05875468 0 278.35049531 0 3194.69787992 0 278.67491443 0 -1181.29526258 0 22218
0.14550000 0.14550500 10835.11133173 0 284.96399493 0 2998.30805462 0 361.34310599 0 -1147.49145491 0 23559
0.14650000 0.14650700 10576.83828301 0 238.90865984 0 2875.53811703 0 64.45333145 0 -711.55188215 0 23044
0.14750000 0.14750500 10297.84891456 0 207.06576090 0 2772.77587038 0 323.40157054 0 -426.12284958 0 23649
0.14850000 0.14849900 10299.84193302 0 -47.47314628 0 2951.88179665 0 425.95233577 0 -174.74343029 0 23640
0.14950000 0.14949500 10275.20601030 0 -76.57210169 0 2610.32272065 0 557.92891145 0 -96.49453573 0 24457
0.15050000 0.15050000 10396.58083496 0 53.45818073 0 2639.86368326 0 206.74798518 0 -121.39143315 0 24591
0.15150000 0.15149900 10407.32099004 0 66.11584102 0 2336.28268138 0 160.94177740 0 73.92659112 0 25020
0.15250000 0.15250500 10299.01150866 0 133.61306528 0 2448.73321224 0 -117.76967570 0 43.65186553 0 25297
0.15350000 0.15350100 10089.19095335 0 317.81447543 0 2536.60318200 0 -193.25967908 0 141.17989207 0 25452
0.15450000 0.15450400 9978.84416421 0 199.91414630 0 2637.64921830 0 -17.95842507 0 492.10947656 0 26061
0.15550000 0.15549900 9761.20654757 0 112.62436636 0 2743.33455869 0 492.01204011 0 399.38872130 0 26128
0.15650000 0.15649500 9808.79539964 0 -29.27400886 0 2433.07694495 0 398.05007723 0 118.45948154 0 26331
0.15750000 0.15749700 9684.49748123 0 118.61006515 0 2361.93725799 0 -67.51748662 0 155.92712149 0 27345
0.15850000 0.15849900 9682.91413878 0 183.64225774 0 2601.29877592 0 -200.95937376 0 200.79439612 0 26980
0.15950000 0.15949700 9515.65560007 0 159.39608086 0 2535.52916650 0 -178.45155187 0 427.35187763 0 27777
0.16050000 0.16050000 9474.89837241 0 148.86851442 0 2661.12254691 0 -188.88721801 0 -16.68676856 0 28224
0.16150000 0.16150500 9293.07972656 0 184.31656233 0 2495.22590416 0 1.60468989 0 -18.05663659 0 28075
0.16250000 0.16249700 9235.10503381 0 4.86876696 0 2649.91735420 0 84.43898847 0 -575.18955861 0 28590
0.16350000 0.16349900 9218.50761891 0 -27.04437482 0 2213.08092313 0 264.99284265 0 -603.56681989 0 29163
0.16450000 0.16449100 9183.56336178 0 113.38171338 0 2374.95831198 0 40.31920649 0 -662.39851058 0 28996
0.16550000 0.16550500 9031.47390807 0 210.63769288 0 2044.16153569 0 72.11914481 0 -550.89466349 0 30777
0.16650000 0.16650700 8869.82903805 0 279.57509444 0 2104.35069341 0 326.25380141 0 -199.93186202 0 29211
0.16750000 0.16749900 8576.00275433 0 239.34712391 0 2039.50008695 0 83.49894809 0 -307.22822567 0 30922
0.16850000 0.16850800 8472.64260215 0 140.77021605 0 1922.25523944 0 434.16467909 0 48.37543003 0 30867
0.16950000 0.16949900 8388.67009073 0 89.61164645 0 2154.09864882 0 -119.51356686 0 80.41619142 0 30852
0.17050000 0.17049200 8323.71983334 0 44.69454636 0 2174.44958183 0 -132.42057590 0 239.04484944 0 31257
0.17150000 0.17149500 8253.29984749 0 146.60422399 0 2297.90600356 0 -213.95385417 0 272.01491105 0 32608
0.17250000 0.17250900 8367.77661379 0 58.25814427 0 2667.55556763 0 -336.31522297 0 405.72541279 0 32361
0.17350000 0.17350400 8250.58712791 0 9.80133265 0 2436.65330587 0 -5.44999758 0 321.63664196 0 32508
0.17450000 0.17449800 8273.32968309 0 64.67322782 0 2758.80259646 0 139.72277412 0 278.74467008 0 32791
0.17550000 0.17549800 8209.70810468 0 47.67444114 0 2426.93180467 0 384.74778619 0 140.12137781 0 33633
0.17650000 0.17650100 8035.70652016 0 197.27450406 0 2251.22508213 0 523.36664953 0 173.24313027 0 33984
0.17750000 0.17750300 7887.08270412 0 154.57629786 0 2034.37360055 0 231.59760377 0 295.07081302 0 34069
0.17850000 0.17849800 7696.24011354 0 182.41544415 0 1914.08386372 0 125.54798389 0 434.79247991 0 34536
