### header ###
fiducial parameters:
Omega_m = 0.31
Omega_nu = 0
Omega_de = 0.69
Omega_k = 0
H_0 = 100
w_de = -1
zeff = 0
beta = 0
fgrowth = 0
b_1 = 2
gamma = 0.55
Lx = 3500 Ly = 3500 Lz = 3500
nx = 700 ny = 700 nz = 700
xoffset = -685.467585 yoffset = -31.7331281 zoffset = 572.489161
bins = 400 dk = 0.001
kx_ny = 0.628318531 ky_ny = 0.628318531 kz_ny = 0.628318531
############################
A(data) = 8.06325381 (not used)
A(ran) = 8.05779925 (used)
Ngal = 479239
weighted Ngal = 0
Nran = 23820508
weighted Nran = 0
SN(data) = 3495.26898
SN(ran) = 70.1863537
SN(data+ran) = 3565.45533
############################
13 columns: k_central k_mean P_0(k) sigma^{lin}_{P_0(k)} P^img_1(k) sigma^{lin}_{P_1(k)} P_2(k) sigma^{lin}_{P_2(k)} P^img_3(k) sigma^{lin}_{P_3(k)} P_4(k) sigma^{lin}_{P_4(k)} N_modes
### header ###
0.00050000 0 0 0 0 0 0 0 0 0 0 0 0
0.00150000 0.00179520 17905.94225022 0 -21496.47574241 0 6839.99509067 0 -8570.52195355 0 -28814.06449180 0 3
0.00250000 0.00253879 30290.89117612 0 -14758.96609026 0 10429.36598875 0 -17310.14045173 0 8886.65897177 0 6
0.00350000 0.00331552 34929.97382863 0 723.89530985 0 8471.00389808 0 -8778.22769482 0 17532.58345733 0 7
0.00450000 0.00420575 30205.63427501 0 14303.22920073 0 10719.95915362 0 -11423.53896189 0 30301.96350093 0 24
0.00550000 0.00557378 27526.46383864 0 -2574.79163030 0 11148.94530639 0 -2829.14507604 0 -14670.94110795 0 45
0.00650000 0.00659388 32998.40676402 0 -16196.48602147 0 33369.77253844 0 -12833.93169729 0 -12391.03870455 0 40
0.00750000 0.00754703 46736.50450600 0 -4369.72620665 0 21603.98801640 0 -2142.04088709 0 -24498.40444724 0 57
0.00850000 0.00846663 51227.66089894 0 -4638.17472188 0 31995.25413545 0 -13564.15151908 0 -1637.17609233 0 75
0.00950000 0.00948925 53597.69202637 0 -11820.48180664 0 15479.77443596 0 4807.28233884 0 8007.43887490 0 112
0.01050000 0.01054430 76236.72096682 0 -19572.65930517 0 -1614.25637996 0 25412.75703076 0 -11209.84309289 0 105
0.01150000 0.01145670 90737.92333530 0 -21402.69315120 0 -7359.99575345 0 13053.60662169 0 -17277.03420052 0 144
0.01250000 0.01249090 94082.31904678 0 -62.24683856 0 -9802.11878778 0 -2298.96894675 0 -13703.44136530 0 169
0.01350000 0.01339930 95407.45488107 0 11775.97106087 0 -19024.57922665 0 -16995.46498038 0 -4616.88264126 0 180
0.01450000 0.01448870 86860.50590706 0 8974.57323083 0 -9677.28939777 0 -15988.10486838 0 3501.41234973 0 267
0.01550000 0.01550050 69839.35313310 0 9834.91501389 0 -5567.48601624 0 -7720.67673442 0 19126.99823122 0 238
0.01650000 0.01653350 82415.29966212 0 -1980.11920894 0 11936.40904749 0 2030.90796289 0 -1511.79308609 0 315
0.01750000 0.01747870 68887.24392195 0 -409.03825238 0 12139.14331492 0 7348.94557328 0 13543.33554842 0 297
0.01850000 0.01844180 83311.71507944 0 5991.96573281 0 22329.77890826 0 8954.41052734 0 21483.52112237 0 388
0.01950000 0.01947590 75276.52895855 0 527.85758447 0 15731.33765584 0 10362.38949592 0 29122.87163100 0 399
0.02050000 0.02045430 76183.24163794 0 -2906.21952910 0 20875.42904333 0 9704.80412494 0 27842.57871222 0 462
0.02150000 0.02154770 79428.87221203 0 -4173.09279020 0 26273.51956217 0 6200.38010287 0 21702.97460028 0 571
0.02250000 0.02255340 82170.04766739 0 436.11008656 0 25155.76837172 0 12494.01132536 0 26473.26430189 0 510
0.02350000 0.02348930 80254.09258077 0 3682.50022213 0 23941.90940186 0 5802.99436513 0 30783.83107704 0 555
0.02450000 0.02439640 81134.45312710 0 -2651.85501104 0 17670.65534782 0 7393.34559580 0 34691.25450554 0 592
0.02550000 0.02547300 81089.38876509 0 845.71413474 0 23614.27931047 0 8607.40386752 0 16202.46507687 0 837
0.02650000 0.02652900 78637.53315725 0 8938.41101797 0 17979.46248701 0 -2861.24374569 0 19496.81388016 0 723
0.02750000 0.02749970 69316.29650867 0 9665.78525228 0 21878.36022540 0 -3754.28210393 0 10226.78673387 0 826
0.02850000 0.02848090 61128.20158203 0 9822.15969570 0 23119.12494458 0 -1621.11014902 0 12764.28677418 0 831
0.02950000 0.02946900 56517.13191131 0 1192.91013131 0 22389.45873903 0 3654.96335031 0 7656.75620324 0 996
0.03050000 0.03053250 54591.54390209 0 354.96766136 0 20474.94305464 0 6981.37760628 0 6510.40519779 0 1041
0.03150000 0.03150510 53299.95721200 0 1982.09008276 0 15184.91842604 0 -2573.02005833 0 -8790.83907279 0 1036
0.03250000 0.03246190 51852.69363495 0 1676.21710965 0 12460.90507415 0 -1221.27742750 0 140.89090439 0 1059
0.03350000 0.03345080 53012.63038296 0 -488.22087609 0 16798.48832186 0 -2891.07258875 0 -4213.31854627 0 1302
0.03450000 0.03451200 52017.11765851 0 -657.80903194 0 13861.99705670 0 -1979.73167757 0 -1237.16621361 0 1339
0.03550000 0.03553350 53201.74569086 0 257.24553698 0 18497.09367229 0 2912.67469447 0 -9443.47511458 0 1365
0.03650000 0.03647120 54072.14114485 0 837.97679416 0 15709.74662244 0 -4071.93603066 0 -6268.33096028 0 1308
0.03750000 0.03744890 52363.34925559 0 1056.35514932 0 21156.11247748 0 -1375.20488713 0 -10554.74899500 0 1579
0.03850000 0.03847530 52044.57702406 0 1845.50188380 0 18624.31468445 0 -548.46207373 0 -3964.50126294 0 1662
0.03950000 0.03950240 50183.98356154 0 2215.83793201 0 19807.06042158 0 1050.31298167 0 -2124.45803528 0 1683
0.04050000 0.04050350 51062.12964290 0 1053.69114797 0 19376.23626289 0 2227.34207749 0 -2313.09723321 0 1822
0.04150000 0.04152450 48241.34417210 0 1092.64912285 0 20026.29245299 0 1922.29952874 0 -4182.50426629 0 1887
0.04250000 0.04250150 47491.08344239 0 3963.08400536 0 20453.01985150 0 -1078.51197852 0 -2062.77411371 0 1920
0.04350000 0.04349210 45312.82498082 0 2070.58010271 0 23302.48264358 0 2715.46551712 0 -1691.24225442 0 2005
0.04450000 0.04448520 43044.43779522 0 215.95905219 0 20462.32060435 0 2931.14333227 0 -2103.48705207 0 2151
0.04550000 0.04548030 42135.28920437 0 1060.17288692 0 19431.59788698 0 5029.49282562 0 -6169.16721921 0 2274
0.04650000 0.04648670 42409.99358312 0 501.91069849 0 18636.27279526 0 1882.28414685 0 -2946.87710583 0 2311
0.04750000 0.04749250 41679.88448457 0 950.55687122 0 16442.29163244 0 1285.93980444 0 -2287.42051196 0 2568
0.04850000 0.04851840 40132.08419818 0 450.50189436 0 12759.63639776 0 2610.27843135 0 -1433.56711124 0 2493
0.04950000 0.04949480 40473.44397234 0 -313.17074240 0 11038.80889142 0 2249.35385923 0 -2352.57007119 0 2644
0.05050000 0.05050630 40770.18227747 0 694.89910562 0 11765.12018255 0 566.43134968 0 -4263.78620279 0 2829
0.05150000 0.05149060 38966.27911802 0 2102.05872217 0 9091.48590859 0 3097.58251894 0 -4375.29558604 0 2784
0.05250000 0.05249300 37076.01182498 0 1166.69086614 0 9792.58551611 0 659.87069882 0 -3415.41360286 0 3055
0.05350000 0.05348950 36670.98618312 0 1047.67444667 0 9935.86139926 0 429.83650732 0 -1058.96600352 0 3009
0.05450000 0.05448610 35791.17925303 0 -329.48692026 0 10032.35671005 0 613.47322890 0 -3044.21391331 0 3336
0.05550000 0.05550870 35419.25986237 0 570.28562595 0 9650.49437171 0 -236.27012484 0 -358.99466590 0 3349
0.05650000 0.05647670 36788.90644243 0 -323.99283268 0 11611.21486757 0 166.36943103 0 -2225.24940810 0 3324
0.05750000 0.05747970 36373.36209199 0 862.98696146 0 12459.02277893 0 -1438.33928324 0 -777.33145666 0 3639
0.05850000 0.05849280 35749.65803496 0 318.97153338 0 10941.57173486 0 -245.30514189 0 1909.93174192 0 3846
0.05950000 0.05951020 35861.82068537 0 400.27007836 0 13786.48380144 0 -468.66715046 0 324.49551623 0 3787
0.06050000 0.06049470 35507.72773767 0 812.11405785 0 13955.66892467 0 3239.19755337 0 1139.54152569 0 3930
0.06150000 0.06148310 34552.62899881 0 1025.46114861 0 14435.98637530 0 2317.27149967 0 -1768.82603443 0 4083
0.06250000 0.06249100 33116.21630009 0 1470.54867614 0 12022.88390433 0 -740.32221095 0 792.62012277 0 4303
0.06350000 0.06350600 32710.96921173 0 1757.88657751 0 12765.72617641 0 -2391.42285898 0 363.78676808 0 4470
0.06450000 0.06451750 30883.37127716 0 437.96248650 0 13242.27903660 0 -145.39401889 0 2658.21052549 0 4479
0.06550000 0.06550280 31285.85028432 0 279.48873030 0 12634.74057381 0 -215.17845329 0 1070.26641823 0 4636
0.06650000 0.06648880 31101.16390634 0 -446.33427130 0 13731.12217735 0 2033.21100645 0 -1725.57753369 0 4653
0.06750000 0.06749660 30867.87002241 0 -594.37236136 0 10824.18294714 0 1615.46326337 0 -2971.84519830 0 5220
0.06850000 0.06852730 31456.80697952 0 -187.55521734 0 10461.64181560 0 1618.12062132 0 -2088.94908959 0 5029
0.06950000 0.06949320 31076.25117550 0 989.37644203 0 10415.49236575 0 2184.96829041 0 -3763.83752025 0 5040
0.07050000 0.07048030 30837.86402216 0 919.40488534 0 9980.94790592 0 97.07970810 0 -40.50610733 0 5475
0.07150000 0.07148790 29940.56281885 0 710.21988147 0 9244.81546268 0 260.45983287 0 1582.86633910 0 5509
0.07250000 0.07249820 29558.67833586 0 337.71476483 0 9943.75596686 0 -542.64799597 0 879.73274551 0 5916
0.07350000 0.07351270 29890.84808042 0 153.50006789 0 10718.78548719 0 -4.30297116 0 1288.67466867 0 5721
0.07450000 0.07449140 28738.10834355 0 493.72160706 0 11130.23307745 0 516.60478076 0 935.09769130 0 6028
0.07550000 0.07549160 29013.25561529 0 1029.74060216 0 11878.50078869 0 -67.76938201 0 1540.83579409 0 6183
0.07650000 0.07648840 27800.61460115 0 998.37049148 0 11989.55620662 0 -321.27900587 0 1017.08604212 0 6330
0.07750000 0.07749960 26816.17420153 0 678.11899736 0 11889.13022052 0 974.31032965 0 1504.31926684 0 6583
0.07850000 0.07848650 25973.45955958 0 598.53555549 0 10895.26727247 0 1841.25011107 0 2270.95596495 0 6549
0.07950000 0.07947320 25663.54518791 0 343.49119669 0 10342.44823893 0 1791.66824053 0 1013.44656895 0 6828
0.08050000 0.08048110 25874.80514545 0 466.65752350 0 10203.64557500 0 1840.88472435 0 1576.14543793 0 7147
0.08150000 0.08149960 25095.42420146 0 794.33301142 0 10042.67611679 0 249.74625138 0 1719.52097201 0 7386
0.08250000 0.08250610 24465.96253552 0 660.44203078 0 9111.23893607 0 -509.11103132 0 858.60785699 0 7227
0.08350000 0.08350160 23226.63721857 0 1115.11597714 0 9775.21303847 0 -74.56192111 0 2016.81289339 0 7798
0.08450000 0.08449610 23053.35533516 0 877.00009575 0 9290.23413909 0 156.46302201 0 557.73293130 0 7371
0.08550000 0.08548940 22226.69556420 0 136.13091195 0 10029.97616022 0 1047.01675057 0 1325.68945054 0 8256
0.08650000 0.08650700 22049.42764385 0 392.48623401 0 8779.02490221 0 1725.94292041 0 -769.67826575 0 8037
0.08750000 0.08749060 21540.76504168 0 356.30519820 0 8808.01224858 0 647.37779473 0 294.19056320 0 8155
0.08850000 0.08849210 21448.08968295 0 273.08339040 0 7683.23013188 0 918.32090474 0 377.76447093 0 8718
0.08950000 0.08949900 21174.93542968 0 -313.50844831 0 7513.11493337 0 745.20953513 0 564.54351830 0 8571
0.09050000 0.09049190 21455.39741733 0 165.62869250 0 7652.13904379 0 270.30202240 0 140.66945789 0 8932
0.09150000 0.09150830 21281.78336418 0 642.78720886 0 8245.50493082 0 -444.58484398 0 370.97049242 0 9285
0.09250000 0.09250820 20090.40121369 0 1154.16806677 0 7718.81658385 0 -184.06522055 0 620.31924734 0 9204
0.09350000 0.09350330 19078.50144851 0 1113.86480443 0 6983.06059965 0 -26.88947299 0 665.28728012 0 9349
0.09450000 0.09448040 18915.62755043 0 100.23321693 0 7525.61558809 0 759.80064478 0 1055.41400171 0 9564
0.09550000 0.09549270 18630.84735610 0 -14.57439044 0 7267.39790099 0 1513.46500714 0 1482.49571462 0 10155
0.09650000 0.09649430 18604.38449978 0 -30.30761039 0 6620.29802162 0 1470.22757872 0 621.16517295 0 9913
0.09750000 0.09749140 18409.40085972 0 134.50881636 0 6453.07269988 0 673.90044160 0 527.48112543 0 10476
0.09850000 0.09850240 17992.41710705 0 728.33641934 0 6442.93045035 0 -245.60520189 0 711.87519403 0 10575
0.09950000 0.09950330 17413.88813528 0 743.95061180 0 6293.59800552 0 -53.22001503 0 1339.36377169 0 10882
0.10050000 0.10051200 16987.05001352 0 291.86758945 0 6247.92466564 0 161.62272538 0 1510.58620268 0 10875
0.10150000 0.10150300 16817.97561354 0 -106.19688180 0 5518.72349773 0 995.90357751 0 1797.74694685 0 11118
0.10250000 0.10250800 16986.60712053 0 -288.60125363 0 5325.66644220 0 1442.34746483 0 1666.06378779 0 11575
0.10350000 0.10349800 17097.21964546 0 -31.04613445 0 4358.86425601 0 1276.24044790 0 1097.99484127 0 11364
0.10450000 0.10450100 17081.49694422 0 0.65224962 0 4259.20226031 0 61.80505280 0 1202.13337789 0 12093
0.10550000 0.10551000 16730.06135448 0 739.99447014 0 4626.70379337 0 -532.03960156 0 1148.17793904 0 12067
0.10650000 0.10649700 16402.87415609 0 740.99540830 0 4824.07905559 0 -1338.37833478 0 1807.13627830 0 12054
0.10750000 0.10749900 16366.77837718 0 303.04288689 0 5613.29222401 0 -1218.74186511 0 1374.08658232 0 12807
0.10850000 0.10850100 16120.30842672 0 191.32645117 0 6179.55305989 0 -1012.57628422 0 671.57636062 0 12736
0.10950000 0.10950300 16039.03756255 0 -26.62119056 0 6558.53659378 0 -330.99497090 0 166.60194985 0 12933
0.11050000 0.11050200 16063.95029339 0 -153.83998826 0 6351.45090269 0 450.10550513 0 -553.29625075 0 13428
0.11150000 0.11150900 16307.54143940 0 -66.18758968 0 6346.13618678 0 450.01581930 0 -808.18338254 0 13453
0.11250000 0.11250000 15866.19857213 0 167.46005502 0 5529.07612144 0 519.03737052 0 -920.78671148 0 13668
0.11350000 0.11349100 16031.84055141 0 207.64595072 0 5900.99551210 0 979.84317036 0 123.89267133 0 13791
0.11450000 0.11448600 15392.63523963 0 376.75799660 0 4942.98475181 0 828.51992153 0 -811.93579342 0 14205
0.11550000 0.11549300 15310.36786623 0 342.33856767 0 5562.48132542 0 67.70361240 0 62.68264526 0 14776
0.11650000 0.11649800 15126.34582775 0 416.11125347 0 5732.76260880 0 -327.61016120 0 558.50910127 0 14553
0.11750000 0.11747300 14817.87085830 0 153.14796796 0 5672.80596991 0 -83.31968715 0 754.19583395 0 14568
0.11850000 0.11849100 15029.02009259 0 -205.71715174 0 5709.66573923 0 144.36872161 0 976.23248524 0 16015
0.11950000 0.11950300 14938.66992207 0 -220.07684979 0 5394.55844722 0 682.18364780 0 436.77885498 0 15270
0.12050000 0.12050700 15320.11151207 0 4.84467358 0 5086.65923866 0 476.26719421 0 -361.69742039 0 15999
0.12150000 0.12150000 14948.74573765 0 407.10059554 0 4906.57894781 0 357.15223105 0 229.99654560 0 15670
0.12250000 0.12250700 14499.32007327 0 703.17899012 0 4514.30862414 0 20.06858873 0 155.66138570 0 16887
0.12350000 0.12352200 13909.82949992 0 584.64864570 0 4346.95043450 0 92.34186031 0 587.45105111 0 16407
0.12450000 0.12449800 13652.28722464 0 44.79032197 0 4338.69048019 0 401.49135578 0 427.80473572 0 16306
0.12550000 0.12549900 13458.18937057 0 -66.85414364 0 3523.55699936 0 956.76512374 0 252.19766409 0 17523
0.12650000 0.12650100 13777.18304859 0 -273.26608376 0 3747.26225000 0 667.17400427 0 -481.36710703 0 17154
0.12750000 0.12750600 13468.15446291 0 149.28704830 0 3034.45919515 0 309.07951838 0 -357.74681489 0 18007
0.12850000 0.12850300 13491.95996127 0 522.66466413 0 3618.21430424 0 -325.88620022 0 -254.19511149 0 17496
0.12950000 0.12949900 13039.98766217 0 531.90562643 0 3015.21549461 0 -89.17949362 0 619.61615471 0 18405
0.13050000 0.13049000 12726.41942330 0 292.14771927 0 3687.93673362 0 91.93716684 0 270.68291038 0 18100
0.13150000 0.13148800 12497.88663905 0 174.98369974 0 3398.66117541 0 198.19129256 0 309.12380768 0 19059
0.13250000 0.13249300 12662.64283235 0 11.53957693 0 3387.44491037 0 253.63263739 0 213.37477158 0 18957
0.13350000 0.13349100 12236.57977333 0 91.90616433 0 3344.49536240 0 555.84620715 0 500.57316166 0 19468
0.13450000 0.13450700 12259.83165545 0 70.07176123 0 2792.99393550 0 33.87832442 0 278.04711361 0 19953
0.13550000 0.13551000 12042.48191926 0 53.10652370 0 2636.19874375 0 626.25290621 0 241.65348917 0 19956
0.13650000 0.13649900 11954.56766020 0 103.27367733 0 2185.64370223 0 509.60042808 0 523.49176680 0 19723
0.13750000 0.13749600 11998.41406648 0 2.20703543 0 2021.56292074 0 673.29478543 0 121.55862525 0 20946
0.13850000 0.13851100 12029.19512947 0 8.70081000 0 1697.40953935 0 -139.30202578 0 -149.03902822 0 20955
0.13950000 0.13949800 11846.94466296 0 344.85752157 0 2164.52877880 0 -307.55596649 0 384.93269402 0 20506
0.14050000 0.14048300 11729.35657338 0 318.87409692 0 2462.99436661 0 -490.50177500 0 826.24012985 0 21447
0.14150000 0.14148400 11465.50307296 0 342.76153048 0 3053.35965361 0 -340.24921998 0 1376.69965098 0 21771
0.14250000 0.14249400 11248.48550651 0 296.99407584 0 3075.16106118 0 266.84967152 0 1257.62786988 0 22470
0.14350000 0.14350900 11148.28096690 0 231.29200760 0 3284.11797516 0 213.79662716 0 1616.13867518 0 22519
0.14450000 0.14449900 10859.29328914 0 77.53827275 0 3341.64977492 0 125.58562979 0 1636.22387240 0 22218
0.14550000 0.14550500 11059.00481189 0 25.31675997 0 3351.42663773 0 3.80509300 0 1304.93991383 0 23559
0.14650000 0.14650700 10779.80506926 0 186.67718198 0 3122.48417746 0 200.50208675 0 1318.16026966 0 23044
0.14750000 0.14750500 10585.99509564 0 232.21101056 0 2923.93524881 0 -135.65590921 0 885.48260379 0 23649
0.14850000 0.14849900 10392.91589545 0 264.48462294 0 2745.57116831 0 231.64300030 0 848.00278428 0 23640
0.14950000 0.14949500 10078.91583592 0 107.70936137 0 2760.52987914 0 304.71923687 0 1059.34135533 0 24457
0.15050000 0.15050000 10009.37056373 0 145.51470723 0 2627.11943740 0 507.11801286 0 805.76186510 0 24591
0.15150000 0.15149900 9917.23774892 0 103.22595561 0 2300.22011945 0 384.21077844 0 969.63559411 0 25020
0.15250000 0.15250500 9867.64480605 0 41.38746439 0 2429.75524750 0 216.50491781 0 1224.54376332 0 25297
0.15350000 0.15350100 9968.43617888 0 -135.90171482 0 2184.45896347 0 103.47818316 0 1268.46767587 0 25452
0.15450000 0.15450400 9970.35169107 0 -29.53110825 0 2243.50767173 0 180.40581720 0 1195.87751436 0 26061
0.15550000 0.15549900 10128.09910276 0 39.14631512 0 2044.73729658 0 -324.34382538 0 801.55105997 0 26128
0.15650000 0.15649500 9849.01008338 0 310.29747411 0 2175.18035527 0 -98.74642515 0 466.15594719 0 26331
0.15750000 0.15749700 9812.21674801 0 294.46294239 0 2216.12581245 0 -289.58004714 0 675.73623305 0 27345
0.15850000 0.15849900 9426.87769967 0 218.76588653 0 2356.83291625 0 30.75305001 0 490.71768534 0 26980
0.15950000 0.15949700 9259.17626797 0 260.51187280 0 2258.79855230 0 8.00062940 0 398.71884565 0 27777
0.16050000 0.16050000 9188.87807770 0 169.90150264 0 2410.94336764 0 30.34016302 0 271.40593319 0 28224
0.16150000 0.16150500 9021.25415227 0 153.55432228 0 2512.94162387 0 -122.63817692 0 516.11427677 0 28075
0.16250000 0.16249700 8985.14730103 0 200.49765782 0 2542.82582855 0 -196.79728686 0 371.37463228 0 28590
0.16350000 0.16349900 8779.65602472 0 54.42457324 0 2769.59811316 0 -46.21621596 0 718.81754169 0 29163
0.16450000 0.16449100 8852.52299435 0 2.06461212 0 2614.36411920 0 73.38371503 0 242.37429751 0 28996
0.16550000 0.16550500 8828.51819415 0 -27.88886103 0 2658.62020150 0 55.70840931 0 148.37579596 0 30777
0.16650000 0.16650700 8883.37049130 0 17.78680404 0 2413.08032633 0 205.63300207 0 -177.23138167 0 29211
0.16750000 0.16749900 8783.80814653 0 135.55404382 0 2503.79588357 0 -57.97923240 0 -138.81705795 0 30922
0.16850000 0.16850800 8730.38417928 0 147.05708208 0 2224.27504352 0 97.96593698 0 -30.27096099 0 30867
0.16950000 0.16949900 8675.41008656 0 78.85510434 0 2263.91396637 0 220.61275031 0 45.16445583 0 30852
0.17050000 0.17049200 8679.58435301 0 -27.77271234 0 2227.66317491 0 165.37513626 0 211.81689548 0 31257
0.17150000 0.17149500 8708.77100123 0 86.34066026 0 2314.49234614 0 77.55211316 0 513.85330804 0 32608
0.17250000 0.17250900 8599.57573387 0 221.59707999 0 2396.90365977 0 103.31730229 0 487.76691077 0 32361
0.17350000 0.17350400 8319.54556688 0 271.58973378 0 2508.29124744 0 121.49772747 0 701.67869010 0 32508
0.17450000 0.17449800 8197.79428318 0 188.14205055 0 2396.98116604 0 18.08498174 0 840.85006245 0 32791
0.17550000 0.17549800 8056.07959782 0 11.94681703 0 2284.92923888 0 179.66618590 0 566.53985846 0 33633
0.17650000 0.17650100 7950.70428253 0 -25.24047166 0 1945.29674739 0 273.73222863 0 446.89010201 0 33984
0.17750000 0.17750300 8078.34604303 0 9.34665871 0 1856.90637836 0 214.29598901 0 96.21562387 0 34069
0.17850000 0.17849800 7969.19506497 0 163.81726016 0 1906.00106661 0 -210.23466026 0 0.46198611 0 34536
