### header ###
fiducial parameters:
Omega_m = 0.31
Omega_nu = 0
Omega_de = 0.69
Omega_k = 0
H_0 = 100
w_de = -1
zeff = 0
beta = 0
fgrowth = 0
b_1 = 2
gamma = 0.55
Lx = 3500 Ly = 3500 Lz = 3500
nx = 700 ny = 700 nz = 700
xoffset = -685.467585 yoffset = -31.7331281 zoffset = 572.489161
bins = 400 dk = 0.001
kx_ny = 0.628318531 ky_ny = 0.628318531 kz_ny = 0.628318531
############################
A(data) = 8.04937654 (not used)
A(ran) = 8.04775476 (used)
Ngal = 477790
weighted Ngal = 0
Nran = 23820508
weighted Nran = 0
SN(data) = 3485.85644
SN(ran) = 70.0988627
SN(data+ran) = 3555.9553
############################
13 columns: k_central k_mean P_0(k) sigma^{lin}_{P_0(k)} P^img_1(k) sigma^{lin}_{P_1(k)} P_2(k) sigma^{lin}_{P_2(k)} P^img_3(k) sigma^{lin}_{P_3(k)} P_4(k) sigma^{lin}_{P_4(k)} N_modes
### header ###
0.00050000 0 0 0 0 0 0 0 0 0 0 0 0
0.00150000 0.00179520 30008.98978623 0 -31050.23121218 0 3921.14203895 0 -45594.94781720 0 -23691.67486095 0 3
0.00250000 0.00253879 29353.06526398 0 -2834.98019122 0 -4408.36862027 0 8797.69284185 0 34212.59790363 0 6
0.00350000 0.00331552 46419.72529294 0 -2724.92128252 0 10760.04096946 0 -17465.04227594 0 -14476.84325388 0 7
0.00450000 0.00420575 42827.97384502 0 -3368.86554932 0 9794.02491833 0 3407.69619246 0 21830.74922868 0 24
0.00550000 0.00557378 53814.70959282 0 2592.31912049 0 30320.23283688 0 15369.38335751 0 -11597.15301505 0 45
0.00650000 0.00659388 52218.30180047 0 -3042.42019669 0 18008.58270129 0 -3685.05792917 0 29108.58833198 0 40
0.00750000 0.00754703 52568.29798798 0 802.63504057 0 34896.97830067 0 25299.48714787 0 -15249.13790998 0 57
0.00850000 0.00846663 53787.25022727 0 -2499.59947246 0 42120.78445885 0 3727.99640481 0 17735.42844801 0 75
0.00950000 0.00948925 61625.34896639 0 1958.42852462 0 57205.05545229 0 6330.59064274 0 -991.43810891 0 112
0.01050000 0.01054430 52954.50067766 0 3850.12414756 0 36865.85909992 0 -5567.87354760 0 21084.03164291 0 105
0.01150000 0.01145670 55539.99924606 0 4189.34696303 0 53105.52718818 0 8309.34795573 0 14819.31026052 0 144
0.01250000 0.01249090 62219.48991616 0 -1544.36786570 0 44939.68763443 0 338.68248602 0 9350.05791008 0 169
0.01350000 0.01339930 64991.66788100 0 -773.88574918 0 50848.76594365 0 18193.93341875 0 -6574.13749945 0 180
0.01450000 0.01448870 66782.61642042 0 -10.89417111 0 34824.78674285 0 6579.48543233 0 -12664.52512757 0 267
0.01550000 0.01550050 63886.20697111 0 -1058.28948447 0 27428.14159425 0 13161.89395842 0 -19254.99430612 0 238
0.01650000 0.01653350 60698.59537907 0 -3426.95096532 0 21612.73515300 0 14397.12251519 0 -11192.57026618 0 315
0.01750000 0.01747870 67753.54858376 0 210.14497443 0 16249.85462709 0 16362.23872400 0 -34794.33784960 0 297
0.01850000 0.01844180 67252.30443922 0 -4339.52090455 0 8909.05828488 0 4916.74334199 0 -12664.85729731 0 388
0.01950000 0.01947590 70529.60186230 0 -138.51699795 0 8744.61211667 0 -8078.53427256 0 -6976.60543428 0 399
0.02050000 0.02045430 72789.13118804 0 -200.09462519 0 23130.41871590 0 -17418.42778845 0 4351.43472605 0 462
0.02150000 0.02154770 74981.78367187 0 1315.41433310 0 38461.82399928 0 -8004.08396048 0 8246.26892123 0 571
0.02250000 0.02255340 81367.19339479 0 5980.90448031 0 54798.70709945 0 6301.75830891 0 24201.22324911 0 510
0.02350000 0.02348930 74049.60464539 0 4262.53503008 0 55600.34341632 0 946.45457487 0 23389.17894691 0 555
0.02450000 0.02439640 76671.08826945 0 7337.37499385 0 63364.81119540 0 18920.27792685 0 36673.31137133 0 592
0.02550000 0.02547300 68287.12391677 0 5511.39361870 0 59714.04425619 0 13251.24761971 0 31550.81101723 0 837
0.02650000 0.02652900 63802.72164197 0 3833.43815406 0 47576.78323649 0 21109.94088299 0 21085.13887540 0 723
0.02750000 0.02749970 61801.17748451 0 -2218.18526487 0 47615.20420361 0 7370.25979856 0 16026.08294251 0 826
0.02850000 0.02848090 61426.60073589 0 151.29999695 0 35408.74115379 0 5225.63905978 0 11944.93473760 0 831
0.02950000 0.02946900 58833.57298661 0 4301.03350348 0 32416.55609480 0 1487.35646521 0 4449.73482579 0 996
0.03050000 0.03053250 54625.09304630 0 2777.19372799 0 23841.48341575 0 5107.05446098 0 4889.69365246 0 1041
0.03150000 0.03150510 56425.34233856 0 -1154.61095976 0 28864.66501623 0 8467.81506853 0 8900.13399107 0 1036
0.03250000 0.03246190 55207.94022475 0 50.53254035 0 22983.04607256 0 8204.84735409 0 4259.53443006 0 1059
0.03350000 0.03345080 57146.92574699 0 1103.07482390 0 27823.31286703 0 5980.20692385 0 5863.02851029 0 1302
0.03450000 0.03451200 54655.20976980 0 2549.45815112 0 25334.25424780 0 652.25847551 0 12466.55195981 0 1339
0.03550000 0.03553350 54658.75291374 0 1141.99958180 0 28574.01648974 0 1637.91793810 0 16207.77979278 0 1365
0.03650000 0.03647120 52071.26132687 0 2274.73162772 0 27764.74026874 0 -1646.17789241 0 13952.23650398 0 1308
0.03750000 0.03744890 52503.74633429 0 1573.06733163 0 28168.88012462 0 3720.03540327 0 7175.01042271 0 1579
0.03850000 0.03847530 49468.71137825 0 1578.59242172 0 27296.15948242 0 2060.52643178 0 10592.59420123 0 1662
0.03950000 0.03950240 46734.29004104 0 3980.75543577 0 21140.50049949 0 2160.79740533 0 721.27781227 0 1683
0.04050000 0.04050350 45917.15246942 0 -321.59345989 0 23691.23196796 0 3707.01434928 0 4641.38569608 0 1822
0.04150000 0.04152450 43538.48492863 0 1580.24219812 0 16829.49083135 0 5053.35368561 0 -2972.90814148 0 1887
0.04250000 0.04250150 42382.53421757 0 992.41579519 0 17512.98544240 0 51.86221583 0 2716.74990680 0 1920
0.04350000 0.04349210 44296.27483922 0 -2224.87294906 0 16698.72667524 0 -1938.09973626 0 -6745.73638949 0 2005
0.04450000 0.04448520 41928.67962325 0 1250.41978642 0 16318.72448747 0 1155.54103505 0 2221.85020438 0 2151
0.04550000 0.04548030 43809.31399370 0 3227.29480419 0 17760.89479509 0 1633.68831002 0 31.36900344 0 2274
0.04650000 0.04648670 40426.94020810 0 71.66086129 0 15269.06809466 0 311.27294593 0 -1542.26412399 0 2311
0.04750000 0.04749250 41034.03577790 0 335.35857411 0 17807.28783608 0 668.13951100 0 -491.63336660 0 2568
0.04850000 0.04851840 39449.80754285 0 2202.78366105 0 16624.09920596 0 1757.21116569 0 -2221.93878298 0 2493
0.04950000 0.04949480 39422.68034705 0 1254.50547428 0 17999.83556468 0 334.94889809 0 -107.33013425 0 2644
0.05050000 0.05050630 38042.40433515 0 -359.17293033 0 16468.20087252 0 3628.25690285 0 5388.24722207 0 2829
0.05150000 0.05149060 37513.59010181 0 429.91954976 0 15601.68073221 0 4672.86431554 0 3166.09806492 0 2784
0.05250000 0.05249300 37653.21211778 0 680.09872903 0 15894.65444691 0 3866.92086431 0 4052.24943713 0 3055
0.05350000 0.05348950 36443.00701510 0 1860.73740275 0 14033.50736815 0 2376.20948468 0 3180.55852113 0 3009
0.05450000 0.05448610 34875.94088352 0 2286.11397763 0 12302.12793625 0 31.77358619 0 5322.66584217 0 3336
0.05550000 0.05550870 32012.19479242 0 1577.47411691 0 11553.97094826 0 869.59824661 0 5996.73790480 0 3349
0.05650000 0.05647670 31604.62251585 0 -332.35354515 0 11350.90451108 0 419.80830273 0 5376.61020869 0 3324
0.05750000 0.05747970 32010.64466695 0 -711.49984222 0 10113.17360891 0 1885.08544502 0 -425.00675923 0 3639
0.05850000 0.05849280 32377.58151144 0 251.88653176 0 10327.58917902 0 -199.56868976 0 1784.64838659 0 3846
0.05950000 0.05951020 32401.71917954 0 902.18299132 0 11213.05406709 0 -1428.17488906 0 3797.80741280 0 3787
0.06050000 0.06049470 32249.80688303 0 371.83745545 0 11785.82542996 0 -1621.60840364 0 4768.68421452 0 3930
0.06150000 0.06148310 32848.26603948 0 -1032.32156107 0 13856.01800130 0 1924.95688670 0 5882.83689939 0 4083
0.06250000 0.06249100 34236.40340199 0 -188.36460428 0 15473.90610380 0 434.31858441 0 5274.43479526 0 4303
0.06350000 0.06350600 33605.50233383 0 1195.11352395 0 16454.80335949 0 164.12949972 0 5136.25218152 0 4470
0.06450000 0.06451750 32452.87332020 0 712.70783286 0 14115.99618804 0 764.94927582 0 8213.69414162 0 4479
0.06550000 0.06550280 32896.20920594 0 -408.48574337 0 13967.07341923 0 1605.85248542 0 5849.73064819 0 4636
0.06650000 0.06648880 33433.65985264 0 -1048.75178387 0 13622.28122438 0 2389.97238443 0 4725.85646212 0 4653
0.06750000 0.06749660 33162.27717133 0 831.40758384 0 12050.23254663 0 948.33797732 0 1463.38488198 0 5220
0.06850000 0.06852730 32012.63768541 0 1875.99506635 0 12254.40621629 0 -261.69107539 0 1461.56902071 0 5029
0.06950000 0.06949320 30843.06801482 0 1348.44307804 0 11895.55216891 0 -627.70116629 0 860.80128454 0 5040
0.07050000 0.07048030 29984.51994838 0 284.26643846 0 12564.87420420 0 -902.93701664 0 1372.62503544 0 5475
0.07150000 0.07148790 28822.03656567 0 807.80138733 0 12468.21280853 0 322.42720595 0 213.26072663 0 5509
0.07250000 0.07249820 28568.59105057 0 771.08998716 0 11996.42104801 0 1959.24787666 0 -31.04325565 0 5916
0.07350000 0.07351270 27797.40362696 0 448.70042711 0 10771.03578801 0 2480.92046049 0 -919.05278541 0 5721
0.07450000 0.07449140 27421.49819936 0 359.54938937 0 10110.73769745 0 1425.37359088 0 -879.72831658 0 6028
0.07550000 0.07549160 26723.27739630 0 564.03751305 0 9042.70124544 0 1045.13666982 0 -1122.67837499 0 6183
0.07650000 0.07648840 26114.29953127 0 972.82995982 0 8266.65307123 0 1011.62074259 0 1326.06590958 0 6330
0.07750000 0.07749960 25483.95207935 0 340.48506050 0 8914.50586869 0 328.86797730 0 1070.33506664 0 6583
0.07850000 0.07848650 25124.43369249 0 324.62616966 0 7959.07496009 0 1717.00755428 0 2618.44980706 0 6549
0.07950000 0.07947320 24521.65632936 0 661.92904401 0 7762.89550895 0 1492.38330068 0 1505.83617534 0 6828
0.08050000 0.08048110 24312.72156003 0 410.27503106 0 7774.61002861 0 1056.53562822 0 3220.61819232 0 7147
0.08150000 0.08149960 24016.75831763 0 -8.17894919 0 7647.66582456 0 -89.98079776 0 2566.14414462 0 7386
0.08250000 0.08250610 24097.03267256 0 -115.50427804 0 7018.29273722 0 390.22747975 0 2339.21684746 0 7227
0.08350000 0.08350160 24007.78973453 0 297.52222574 0 6311.38015918 0 34.84039872 0 2500.44096915 0 7798
0.08450000 0.08449610 23672.40901577 0 739.17511810 0 6294.32877896 0 -165.04185928 0 457.73987310 0 7371
0.08550000 0.08548940 22814.52528882 0 987.69455589 0 5849.43169542 0 36.01639034 0 837.48629017 0 8256
0.08650000 0.08650700 21920.54578296 0 716.60529119 0 5528.73287937 0 65.34830746 0 924.98533705 0 8037
0.08750000 0.08749060 21450.96848740 0 553.49665982 0 6183.35086730 0 160.13571215 0 193.28071650 0 8155
0.08850000 0.08849210 20797.14770686 0 794.52566987 0 6002.16334397 0 524.79387220 0 -59.29584255 0 8718
0.08950000 0.08949900 20904.32781111 0 -18.30842126 0 5947.79822911 0 443.70237969 0 618.79126651 0 8571
0.09050000 0.09049190 20752.96913084 0 -141.83315923 0 5849.84137144 0 -153.50560405 0 148.89176630 0 8932
0.09150000 0.09150830 20564.18599268 0 445.86369749 0 5981.24772238 0 -702.41389247 0 1106.09535411 0 9285
0.09250000 0.09250820 20778.76764766 0 443.16315747 0 6527.77767543 0 308.55801188 0 686.69562016 0 9204
0.09350000 0.09350330 19824.11180180 0 511.93004522 0 5766.17888511 0 723.76354919 0 1203.26275502 0 9349
0.09450000 0.09448040 19650.05485565 0 317.56313366 0 5714.18324776 0 774.27549501 0 30.92433888 0 9564
0.09550000 0.09549270 19056.79969187 0 527.84097599 0 5679.91440244 0 1337.94651411 0 803.97479187 0 10155
0.09650000 0.09649430 18721.19752662 0 224.72390452 0 5266.47379372 0 829.91171276 0 350.90633262 0 9913
0.09750000 0.09749140 18129.38176506 0 401.51128597 0 5031.33083154 0 518.53800867 0 611.95853487 0 10476
0.09850000 0.09850240 18216.63168463 0 395.25763691 0 5375.89050757 0 -818.54707857 0 1070.92743602 0 10575
0.09950000 0.09950330 17297.40727819 0 542.26378630 0 5850.88216997 0 -731.33480490 0 1027.63353874 0 10882
0.10050000 0.10051200 17200.63515927 0 654.83057656 0 6320.31552530 0 -578.39610388 0 315.73066390 0 10875
0.10150000 0.10150300 16739.80500032 0 459.13387879 0 6569.13280863 0 -1096.11254605 0 691.56744308 0 11118
0.10250000 0.10250800 16578.14905797 0 207.34699795 0 6936.06965312 0 133.28311000 0 365.91708337 0 11575
0.10350000 0.10349800 16259.04465669 0 103.04093706 0 6632.78760401 0 220.27725887 0 750.03817598 0 11364
0.10450000 0.10450100 16594.75754519 0 -72.23496133 0 6381.21331181 0 587.06684144 0 256.96983609 0 12093
0.10550000 0.10551000 16529.87372176 0 78.07948799 0 6821.93612889 0 164.30222798 0 367.55246575 0 12067
0.10650000 0.10649700 16443.62031142 0 336.96073951 0 6886.38813166 0 35.99324918 0 -343.19888731 0 12054
0.10750000 0.10749900 15962.63852130 0 440.35521590 0 6155.60362130 0 206.45346134 0 811.05111466 0 12807
0.10850000 0.10850100 16119.09047099 0 134.09471141 0 6439.75269312 0 918.30872518 0 73.39622676 0 12736
0.10950000 0.10950300 15766.99054175 0 -230.96426679 0 6137.60002115 0 1041.87587016 0 1036.80142369 0 12933
0.11050000 0.11050200 15920.34224049 0 -148.02591050 0 5517.15122761 0 1508.10600192 0 579.48894234 0 13428
0.11150000 0.11150900 15956.65946590 0 142.33030661 0 5314.60518970 0 314.38205474 0 710.95840554 0 13453
0.11250000 0.11250000 15785.59204745 0 544.23576735 0 5419.95836035 0 306.26714788 0 1072.90716769 0 13668
0.11350000 0.11349100 15038.21012219 0 896.99449991 0 5292.72627586 0 -439.50929028 0 1527.27219618 0 13791
0.11450000 0.11448600 14667.84085701 0 511.37310728 0 5353.85658118 0 -751.75438633 0 1866.89361535 0 14205
0.11550000 0.11549300 14368.44519391 0 84.09353193 0 5958.46087791 0 -6.68972150 0 1767.05446246 0 14776
0.11650000 0.11649800 14563.31811072 0 -192.37389310 0 5383.53041170 0 854.77240367 0 1449.94307965 0 14553
0.11750000 0.11747300 14638.60991948 0 -227.76879384 0 5412.59526435 0 449.05363427 0 1470.80333961 0 14568
0.11850000 0.11849100 14635.50966853 0 -125.45054743 0 4687.02581898 0 920.43128985 0 1410.82455607 0 16015
0.11950000 0.11950300 14812.77758888 0 -136.39221881 0 4659.86540620 0 726.54823888 0 1701.59487813 0 15270
0.12050000 0.12050700 14717.00197920 0 72.08781013 0 3626.26388438 0 859.87342372 0 1680.94499234 0 15999
0.12150000 0.12150000 14560.43930626 0 346.53165708 0 4138.19282237 0 618.70158068 0 1917.46092279 0 15670
0.12250000 0.12250700 14155.52438765 0 527.55973894 0 3827.76912375 0 -149.80634033 0 1486.04993088 0 16887
0.12350000 0.12352200 13579.43132733 0 507.78124511 0 3836.43875409 0 -234.72885723 0 2189.41936499 0 16407
0.12450000 0.12449800 13448.33500148 0 484.60133311 0 4015.86577777 0 -783.94052734 0 1212.07632557 0 16306
0.12550000 0.12549900 13095.68145601 0 225.27198460 0 4342.51043225 0 -592.75690917 0 1337.00536650 0 17523
0.12650000 0.12650100 12996.25197913 0 200.70913922 0 4739.64150652 0 -140.29964224 0 1133.29673449 0 17154
0.12750000 0.12750600 12762.40447896 0 -13.17274484 0 4531.78075270 0 62.42421720 0 818.36659967 0 18007
0.12850000 0.12850300 12936.35070187 0 -207.87846954 0 4391.05150425 0 290.99066133 0 171.21135867 0 17496
0.12950000 0.12949900 13148.38572214 0 -66.57866420 0 4505.12966686 0 328.18038593 0 157.86256387 0 18405
0.13050000 0.13049000 13199.31841631 0 -73.43940882 0 4649.74530132 0 -146.53336111 0 -88.96801221 0 18100
0.13150000 0.13148800 13138.64207630 0 234.42436829 0 4693.58063527 0 -233.03922046 0 79.48235154 0 19059
0.13250000 0.13249300 13083.39117546 0 139.13261921 0 4458.32694985 0 111.14510376 0 608.89482259 0 18957
0.13350000 0.13349100 13141.52088075 0 -89.30593957 0 4581.00830884 0 324.21427918 0 954.40007516 0 19468
0.13450000 0.13450700 13151.81814284 0 86.60074917 0 4348.69986182 0 497.28689565 0 612.49111369 0 19953
0.13550000 0.13551000 12981.74723362 0 266.68026495 0 4458.72555355 0 1026.04133843 0 833.53347021 0 19956
0.13650000 0.13649900 12640.49818271 0 547.85863203 0 3966.36141351 0 147.68045397 0 1695.49402715 0 19723
0.13750000 0.13749600 12410.30454973 0 252.34381878 0 3948.65676612 0 607.87395424 0 1754.88597748 0 20946
0.13850000 0.13851100 11853.03444161 0 240.52964820 0 3999.97699166 0 104.08483584 0 2091.91647264 0 20955
0.13950000 0.13949800 11945.26690735 0 298.91069527 0 3918.94971864 0 -130.63571714 0 1352.14123453 0 20506
0.14050000 0.14048300 11367.40227506 0 268.54262999 0 3976.39293980 0 -183.55146468 0 1649.70996403 0 21447
0.14150000 0.14148400 11351.67957382 0 297.60858987 0 3791.96122529 0 -156.82951596 0 1096.87764369 0 21771
0.14250000 0.14249400 10927.78669046 0 301.75406828 0 3926.57855044 0 -463.61263418 0 795.22433357 0 22470
0.14350000 0.14350900 10904.18049395 0 169.30691880 0 3736.11241891 0 110.97901889 0 607.34801881 0 22519
0.14450000 0.14449900 10619.80997563 0 126.82462294 0 3708.81913823 0 240.73780790 0 700.11749231 0 22218
0.14550000 0.14550500 10616.06752984 0 -27.51284488 0 3328.27440654 0 579.73142625 0 141.74568786 0 23559
0.14650000 0.14650700 10641.81068505 0 14.69995060 0 3167.22744205 0 700.24260958 0 43.95757242 0 23044
0.14750000 0.14750500 10512.29770164 0 125.61441784 0 2867.20065644 0 230.07848080 0 -360.03989336 0 23649
0.14850000 0.14849900 10322.63984983 0 357.76563784 0 2704.74750670 0 51.99220493 0 59.60719632 0 23640
0.14950000 0.14949500 10191.97534464 0 297.88761246 0 2873.55617088 0 -291.80890613 0 -233.65484172 0 24457
0.15050000 0.15050000 9861.94255877 0 134.65718551 0 2880.34350600 0 -210.38524388 0 232.15232724 0 24591
0.15150000 0.15149900 9893.31045498 0 101.49302605 0 2870.69951108 0 81.11042618 0 -134.17221769 0 25020
0.15250000 0.15250500 9843.75072909 0 -46.49800663 0 2925.29714476 0 179.28086900 0 44.59511689 0 25297
0.15350000 0.15350100 9836.58693494 0 12.43953549 0 3118.95210584 0 135.71016360 0 -71.45967715 0 25452
0.15450000 0.15450400 9860.10455285 0 102.86023672 0 3017.36352563 0 22.11575087 0 -158.45714771 0 26061
0.15550000 0.15549900 9828.34912527 0 120.00517808 0 3065.63886184 0 -69.77635160 0 -75.78541301 0 26128
0.15650000 0.15649500 9643.43022848 0 51.60644513 0 2892.77772677 0 -7.64185285 0 238.97287933 0 26331
0.15750000 0.15749700 9747.88654081 0 102.52751336 0 2995.92750478 0 -74.85101952 0 168.16536211 0 27345
0.15850000 0.15849900 9639.73207199 0 69.03262355 0 2847.73550941 0 226.40911236 0 -139.55779648 0 26980
0.15950000 0.15949700 9566.27826914 0 120.14026044 0 2860.82299734 0 145.67304148 0 104.49617271 0 27777
0.16050000 0.16050000 9405.18701535 0 243.58782431 0 2806.46895481 0 226.35485797 0 -52.77346817 0 28224
0.16150000 0.16150500 9336.71575867 0 205.33183483 0 3082.70131438 0 -62.75129368 0 326.58929285 0 28075
0.16250000 0.16249700 9099.79015220 0 193.33718536 0 2828.01569890 0 -35.53230830 0 370.22089603 0 28590
0.16350000 0.16349900 8987.47248924 0 185.06394425 0 3276.92096403 0 73.45169911 0 453.78040974 0 29163
0.16450000 0.16449100 8890.46785151 0 198.71944245 0 3147.91730757 0 -31.22528467 0 509.86284218 0 28996
0.16550000 0.16550500 8771.42928738 0 25.68823647 0 3197.44381648 0 157.63558121 0 361.67749020 0 30777
0.16650000 0.16650700 8655.81207163 0 68.94116614 0 2820.51973500 0 136.44758044 0 375.56439999 0 29211
0.16750000 0.16749900 8644.50722799 0 95.15854902 0 2911.63389594 0 209.01338283 0 57.12921003 0 30922
0.16850000 0.16850800 8576.04704363 0 7.00469592 0 2785.63083950 0 174.18317065 0 157.70865855 0 30867
0.16950000 0.16949900 8538.44542855 0 17.79721202 0 2661.85332035 0 280.96134951 0 2.82698597 0 30852
0.17050000 0.17049200 8535.27874365 0 174.47548003 0 2550.12249061 0 109.48569444 0 174.70799885 0 31257
0.17150000 0.17149500 8438.56198636 0 124.17612284 0 2301.07268846 0 197.80154672 0 280.86723474 0 32608
0.17250000 0.17250900 8285.85248246 0 65.95363146 0 2320.61534177 0 112.39738370 0 208.83511840 0 32361
0.17350000 0.17350400 8286.48360498 0 143.65344943 0 2264.51187191 0 124.43632247 0 39.74632440 0 32508
0.17450000 0.17449800 8118.97040279 0 141.05809649 0 2163.23331679 0 -22.96588397 0 -58.37584308 0 32791
0.17550000 0.17549800 7992.18121130 0 234.45979973 0 2043.75185968 0 -231.98845683 0 -122.76772312 0 33633
0.17650000 0.17650100 7795.00525093 0 129.26385610 0 2197.53537908 0 -87.26364925 0 -212.91859180 0 33984
0.17750000 0.17750300 7833.41514572 0 -76.44089464 0 2146.95699931 0 -29.39170768 0 -479.20689645 0 34069
0.17850000 0.17849800 7817.85852935 0 53.30206095 0 2066.45012555 0 102.27473218 0 -366.10420566 0 34536
