### header ###
fiducial parameters:
Omega_m = 0.31
Omega_nu = 0
Omega_de = 0.69
Omega_k = 0
H_0 = 100
w_de = -1
zeff = 0
beta = 0
fgrowth = 0
b_1 = 2
gamma = 0.55
Lx = 3500 Ly = 3500 Lz = 3500
nx = 700 ny = 700 nz = 700
xoffset = -685.467585 yoffset = -31.7331281 zoffset = 572.489161
bins = 400 dk = 0.001
kx_ny = 0.628318531 ky_ny = 0.628318531 kz_ny = 0.628318531
############################
A(data) = 8.07599358 (not used)
A(ran) = 8.07264996 (used)
Ngal = 479614
weighted Ngal = 0
Nran = 23820508
weighted Nran = 0
SN(data) = 3488.34035
SN(ran) = 70.3157089
SN(data+ran) = 3558.65606
############################
13 columns: k_central k_mean P_0(k) sigma^{lin}_{P_0(k)} P^img_1(k) sigma^{lin}_{P_1(k)} P_2(k) sigma^{lin}_{P_2(k)} P^img_3(k) sigma^{lin}_{P_3(k)} P_4(k) sigma^{lin}_{P_4(k)} N_modes
### header ###
0.00050000 0 0 0 0 0 0 0 0 0 0 0 0
0.00150000 0.00179520 42849.01126218 0 -43433.85145910 0 -29445.96206920 0 38350.99002785 0 26284.03827074 0 3
0.00250000 0.00253879 82267.04123280 0 -49069.99696153 0 4238.20913246 0 -86830.94279980 0 -21129.87106766 0 6
0.00350000 0.00331552 93932.39976873 0 -15899.85843958 0 -12914.75966847 0 -67381.73991635 0 24957.24158773 0 7
0.00450000 0.00420575 114814.47220695 0 1142.09923272 0 16120.75131971 0 -69977.09285384 0 54230.25394326 0 24
0.00550000 0.00557378 106767.99231475 0 2248.88882159 0 43457.21406446 0 -59084.47186701 0 6971.24642907 0 45
0.00650000 0.00659388 117760.81784119 0 17441.67967057 0 104303.73570311 0 -16150.64659672 0 16953.27942282 0 40
0.00750000 0.00754703 97352.75162846 0 15875.49932498 0 85168.87612127 0 1687.21192819 0 -28680.42153124 0 57
0.00850000 0.00846663 82492.36304286 0 23318.75896106 0 91128.99784790 0 12948.08736617 0 -12747.89973345 0 75
0.00950000 0.00948925 73648.45431721 0 14261.04364317 0 73707.46980849 0 7556.93919500 0 -44995.60287477 0 112
0.01050000 0.01054430 59519.28206263 0 1953.76707587 0 69206.23759997 0 27684.79808355 0 -16397.44871693 0 105
0.01150000 0.01145670 69515.59835540 0 -4866.37533639 0 42693.22365198 0 22599.50074084 0 -27813.67994444 0 144
0.01250000 0.01249090 73817.97161018 0 -8797.62640790 0 38328.07031547 0 10880.09818747 0 -25821.76870957 0 169
0.01350000 0.01339930 88138.03074464 0 -4773.02456585 0 28085.17334899 0 5700.96289192 0 -25746.14473105 0 180
0.01450000 0.01448870 88268.68417750 0 198.33191108 0 22997.55081807 0 4300.10342819 0 -21836.28539109 0 267
0.01550000 0.01550050 90388.37004078 0 -2673.43497211 0 25394.81986456 0 11026.77327434 0 -4973.69938086 0 238
0.01650000 0.01653350 89047.84367498 0 1103.67605113 0 27718.67939750 0 -1771.99271933 0 -30353.56053459 0 315
0.01750000 0.01747870 84910.66950650 0 10086.55574004 0 20715.65539620 0 -3257.00185168 0 -21972.14281662 0 297
0.01850000 0.01844180 71186.41217054 0 7635.41983331 0 25655.68383729 0 6162.02556970 0 -11809.74165157 0 388
0.01950000 0.01947590 70393.41226703 0 8475.22245383 0 34831.65158424 0 -9190.99289174 0 -5327.36050789 0 399
0.02050000 0.02045430 60597.28360698 0 10643.68190794 0 27051.23965743 0 9560.99677020 0 -18007.91836180 0 462
0.02150000 0.02154770 54717.65768178 0 4162.98375764 0 32798.88347079 0 -2508.96665926 0 -4065.52515459 0 571
0.02250000 0.02255340 52685.22173807 0 -1029.68524053 0 26910.95330198 0 -2963.30843586 0 -10282.98985465 0 510
0.02350000 0.02348930 58275.19564601 0 -3672.02580286 0 37668.93481902 0 -3771.98675132 0 -7596.23487578 0 555
0.02450000 0.02439640 59074.61749792 0 -1079.60370974 0 38465.14569673 0 -2382.95253049 0 -4822.48464081 0 592
0.02550000 0.02547300 62747.19691701 0 1509.74470600 0 41658.95779067 0 5371.16262488 0 1605.64211125 0 837
0.02650000 0.02652900 63825.08773811 0 -2688.52655084 0 32584.85543204 0 16755.52770156 0 9737.53391711 0 723
0.02750000 0.02749970 62237.09491262 0 -1452.21290624 0 36721.69743079 0 22087.07354824 0 6451.43399581 0 826
0.02850000 0.02848090 63882.33165742 0 106.06512114 0 24815.84799979 0 16971.32731228 0 12176.12487982 0 831
0.02950000 0.02946900 64926.23044132 0 2390.44849440 0 22340.85123308 0 8652.74503765 0 14185.64111115 0 996
0.03050000 0.03053250 58901.99995399 0 2894.33892457 0 15587.28670995 0 -3299.63030223 0 14253.40373904 0 1041
0.03150000 0.03150510 58191.93176337 0 2613.45618857 0 17800.53371794 0 -3937.71730920 0 20947.17770816 0 1036
0.03250000 0.03246190 59131.52924748 0 1250.99554731 0 25002.41667299 0 -2687.54111393 0 16850.97114150 0 1059
0.03350000 0.03345080 56353.81512023 0 2046.76353203 0 26098.13393704 0 960.07021270 0 14065.83855662 0 1302
0.03450000 0.03451200 55852.34952919 0 3383.39243948 0 24971.96777973 0 2845.07815145 0 12077.02757269 0 1339
0.03550000 0.03553350 51632.79726406 0 2728.99589805 0 30044.08905591 0 6901.60150596 0 14676.14510062 0 1365
0.03650000 0.03647120 51091.24985718 0 75.88650333 0 28037.78379877 0 7821.19129912 0 15992.09090532 0 1308
0.03750000 0.03744890 52587.89600291 0 -572.99502383 0 26655.07187542 0 7881.90085610 0 10394.35529768 0 1579
0.03850000 0.03847530 51124.68827813 0 2219.13748480 0 23788.00408688 0 1805.05468123 0 13746.62343209 0 1662
0.03950000 0.03950240 51015.40443217 0 -202.45524484 0 23382.64627527 0 -1482.71716111 0 13935.07440051 0 1683
0.04050000 0.04050350 51799.43575258 0 -921.06684129 0 24605.14165849 0 -295.19482306 0 15394.40681160 0 1822
0.04150000 0.04152450 51690.59479961 0 374.95431489 0 25239.80731710 0 1895.41592408 0 6730.14655614 0 1887
0.04250000 0.04250150 50148.10922912 0 2429.30128219 0 23830.41109093 0 1582.48988006 0 7475.41366736 0 1920
0.04350000 0.04349210 49577.55233122 0 3076.06899182 0 23695.32872814 0 4720.17635949 0 7777.85421978 0 2005
0.04450000 0.04448520 45990.67270622 0 1798.82096236 0 23257.97189781 0 6340.37857788 0 14675.59148438 0 2151
0.04550000 0.04548030 45428.64149842 0 640.68125268 0 20493.10166734 0 4598.05968906 0 11408.48060014 0 2274
0.04650000 0.04648670 44814.34891749 0 1379.68917868 0 21516.07375734 0 5086.61494936 0 12014.57966071 0 2311
0.04750000 0.04749250 42943.90108587 0 1252.96642113 0 18052.65055407 0 -2705.35648456 0 8985.40196450 0 2568
0.04850000 0.04851840 42737.73439775 0 -159.38168683 0 18125.39572812 0 -276.58556674 0 7234.42451768 0 2493
0.04950000 0.04949480 41816.40624959 0 272.99481180 0 16295.36188210 0 -1271.61221612 0 4815.32084665 0 2644
0.05050000 0.05050630 41267.10821534 0 1861.39066991 0 14862.71377381 0 1196.99581917 0 -2836.00991742 0 2829
0.05150000 0.05149060 39902.22273494 0 1158.49734577 0 12349.51748648 0 2289.32495183 0 -2448.21281298 0 2784
0.05250000 0.05249300 37991.58236424 0 612.44460993 0 7879.18813652 0 4869.08805597 0 -7681.71322338 0 3055
0.05350000 0.05348950 38044.95096986 0 418.37332943 0 7365.08902287 0 2131.95399918 0 -1778.49217400 0 3009
0.05450000 0.05448610 36736.09145305 0 517.24586837 0 7333.80970525 0 3902.07549561 0 -4040.14738610 0 3336
0.05550000 0.05550870 36911.80924792 0 1530.74890618 0 7375.51915285 0 -1009.68862191 0 -332.87726612 0 3349
0.05650000 0.05647670 36308.58899180 0 1133.17493891 0 8835.41625251 0 -669.89779618 0 1176.00269131 0 3324
0.05750000 0.05747970 35992.91701122 0 704.83873161 0 12670.17201323 0 -2701.95728084 0 2822.52382579 0 3639
0.05850000 0.05849280 35068.59933536 0 1604.11413043 0 14597.19942466 0 -2011.14386308 0 4760.03672884 0 3846
0.05950000 0.05951020 34988.32498043 0 626.74119573 0 16203.90447910 0 732.22501981 0 3281.34989395 0 3787
0.06050000 0.06049470 33332.90169679 0 684.80668155 0 14292.04615266 0 2412.29419126 0 1649.90926588 0 3930
0.06150000 0.06148310 33305.11016150 0 211.57662603 0 13586.40689197 0 1589.29935982 0 934.17093772 0 4083
0.06250000 0.06249100 32719.71634833 0 589.19162057 0 11896.43795490 0 1687.03477099 0 -47.03235703 0 4303
0.06350000 0.06350600 31982.29951541 0 310.28640179 0 10977.18033148 0 118.40744161 0 -458.86149960 0 4470
0.06450000 0.06451750 32710.30487224 0 -459.69856736 0 11460.40980354 0 39.64102659 0 -992.96719697 0 4479
0.06550000 0.06550280 31862.71840737 0 478.90019306 0 13267.52393719 0 -1261.46996659 0 -267.53504843 0 4636
0.06650000 0.06648880 33423.14114406 0 658.26410449 0 14487.14051597 0 -2239.17839272 0 -187.22083313 0 4653
0.06750000 0.06749660 31620.56666359 0 670.94523811 0 14527.66522480 0 -863.99232855 0 168.00702787 0 5220
0.06850000 0.06852730 31862.27551438 0 637.71054793 0 16133.04160026 0 285.81656394 0 1241.04152730 0 5029
0.06950000 0.06949320 31236.57843888 0 318.97928400 0 15340.70603623 0 2609.04940329 0 1192.99870991 0 5040
0.07050000 0.07048030 30967.63166903 0 889.16747349 0 14945.42404021 0 3013.28891010 0 -1216.85956989 0 5475
0.07150000 0.07148790 29193.62378659 0 1350.23679466 0 12230.82216442 0 1617.06875046 0 719.46637993 0 5509
0.07250000 0.07249820 28231.66020634 0 1139.17613897 0 11786.82193919 0 1389.53247544 0 438.75747943 0 5916
0.07350000 0.07351270 27278.55448595 0 760.50705910 0 11151.82411084 0 893.60747574 0 1745.29734419 0 5721
0.07450000 0.07449140 26983.69847603 0 454.82120827 0 10602.83610169 0 41.18760892 0 414.16030984 0 6028
0.07550000 0.07549160 26040.22567824 0 560.68702756 0 10421.57107208 0 -143.73981356 0 903.69547089 0 6183
0.07650000 0.07648840 26609.45389716 0 437.58934916 0 11396.63321258 0 -109.64148205 0 -87.74529538 0 6330
0.07750000 0.07749960 26010.44112447 0 -434.40494854 0 10051.89936336 0 438.70654673 0 -179.01624044 0 6583
0.07850000 0.07848650 26792.92231941 0 -488.43014303 0 12449.94347258 0 734.19589363 0 -642.47054037 0 6549
0.07950000 0.07947320 27069.28754688 0 -269.83698476 0 10314.90029478 0 345.44989095 0 -2292.82380647 0 6828
0.08050000 0.08048110 27133.17486109 0 210.38302941 0 10692.09011205 0 984.18462892 0 -1059.29595879 0 7147
0.08150000 0.08149960 26285.14550323 0 1560.28986879 0 9365.47058623 0 584.92102489 0 -303.01852778 0 7386
0.08250000 0.08250610 26013.09848243 0 580.27950633 0 9954.25253078 0 1369.10403615 0 239.54310406 0 7227
0.08350000 0.08350160 24843.97170483 0 130.23932791 0 9286.03772798 0 1449.34517411 0 393.92674347 0 7798
0.08450000 0.08449610 23944.34531332 0 1574.07491319 0 9265.55392706 0 1146.88247704 0 945.83784638 0 7371
0.08550000 0.08548940 23131.19377863 0 1607.86764854 0 9236.20119397 0 533.22655478 0 2180.76080698 0 8256
0.08650000 0.08650700 21751.36065973 0 763.22863654 0 9505.56871216 0 166.68609952 0 2045.11375563 0 8037
0.08750000 0.08749060 20832.46842303 0 938.49246609 0 9817.97435692 0 273.10110612 0 3342.12588488 0 8155
0.08850000 0.08849210 20486.34754920 0 537.42628758 0 9330.75884792 0 628.36329132 0 2299.84366041 0 8718
0.08950000 0.08949900 20278.96290535 0 -101.26261097 0 9221.70752078 0 944.69075353 0 2602.99284162 0 8571
0.09050000 0.09049190 19871.39062878 0 53.33716022 0 8178.03018338 0 1250.41978642 0 2028.97030604 0 8932
0.09150000 0.09150830 20213.19329593 0 -245.74249872 0 7954.95605526 0 847.26426022 0 924.82146664 0 9285
0.09250000 0.09250820 19749.48433252 0 198.40941736 0 7130.00142232 0 32.55972125 0 624.16909468 0 9204
0.09350000 0.09350330 19741.51225865 0 493.09602071 0 7208.55956691 0 -57.11448384 0 -484.20826557 0 9349
0.09450000 0.09448040 19522.61239699 0 155.14652259 0 6707.54794119 0 -350.02165386 0 753.20486088 0 9564
0.09550000 0.09549270 19187.56384798 0 293.22062754 0 6829.95249206 0 -150.98000676 0 -552.78249487 0 10155
0.09650000 0.09649430 19007.41712318 0 228.69222573 0 6394.33401672 0 413.61222976 0 24.73502003 0 9913
0.09750000 0.09749140 18599.95556985 0 338.07240092 0 6186.40682895 0 853.75817872 0 634.83617241 0 10476
0.09850000 0.09850240 18532.41438846 0 347.81604676 0 6206.89062986 0 1268.93271352 0 749.27418557 0 10575
0.09950000 0.09950330 18470.18792298 0 239.99817661 0 6135.78415988 0 727.10628405 0 -32.53569431 0 10882
0.10050000 0.10051200 17647.84635870 0 604.60651119 0 6186.52862452 0 58.23677468 0 144.52373416 0 10875
0.10150000 0.10150300 17344.35393542 0 823.86179448 0 6212.93611921 0 -542.42322777 0 844.49175008 0 11118
0.10250000 0.10250800 16922.83052957 0 366.59581689 0 6509.15402509 0 -211.95308507 0 1083.06491848 0 11575
0.10350000 0.10349800 16692.30472685 0 -57.04339951 0 6292.50184536 0 511.29338655 0 1539.78392323 0 11364
0.10450000 0.10450100 16803.80303777 0 59.78158544 0 5718.66753931 0 1125.65683036 0 401.92649815 0 12093
0.10550000 0.10551000 16651.00495527 0 -89.38676754 0 5247.59547990 0 1015.61120846 0 616.97097631 0 12067
0.10650000 0.10649700 16664.51319155 0 -23.90260265 0 5215.10927888 0 793.18813303 0 -111.58578229 0 12054
0.10750000 0.10749900 16196.48602147 0 442.46449378 0 4428.65311934 0 -415.73922336 0 -820.82576301 0 12807
0.10850000 0.10850100 16009.25300878 0 609.33328665 0 4670.14052363 0 -658.45676294 0 -985.24757211 0 12736
0.10950000 0.10950300 15452.53651690 0 459.49151488 0 5068.40097503 0 -961.48747028 0 -474.26310342 0 12933
0.11050000 0.11050200 15376.91253839 0 409.80445726 0 5309.00259334 0 -0.65698082 0 -329.44263096 0 13428
0.11150000 0.11150900 15199.31244830 0 -66.55020832 0 5392.93081547 0 689.40058911 0 -295.02873819 0 13453
0.11250000 0.11250000 15384.99533551 0 -83.99454535 0 5107.29805212 0 1149.96058334 0 558.60321603 0 13668
0.11350000 0.11349100 15493.72556523 0 -150.92353791 0 4859.52156733 0 1037.19116953 0 -199.27416592 0 13791
0.11450000 0.11448600 15548.42284983 0 184.12722557 0 4726.17755954 0 -347.02659000 0 145.53906635 0 14205
0.11550000 0.11549300 15229.31844856 0 473.66409065 0 5349.06226454 0 -481.05708193 0 991.72709659 0 14776
0.11650000 0.11649800 14962.36469718 0 464.95902888 0 5558.00810619 0 -222.52383358 0 1281.40015126 0 14553
0.11750000 0.11747300 14915.52876320 0 -22.37949365 0 5403.21700523 0 -50.96314306 0 860.82675089 0 14568
0.11850000 0.11849100 14578.37647247 0 268.44187183 0 5940.85588144 0 377.36697447 0 511.80824965 0 16015
0.11950000 0.11950300 14482.15796980 0 630.79255938 0 5303.46643093 0 292.62382924 0 713.78738453 0 15270
0.12050000 0.12050700 13786.81597119 0 426.99977770 0 5427.48754123 0 759.67552750 0 1276.66119624 0 15999
0.12150000 0.12150000 13479.55895747 0 199.01728799 0 5066.85084956 0 538.49587416 0 1964.61795420 0 15670
0.12250000 0.12250700 13600.91163748 0 -194.60718101 0 4697.98742055 0 724.00160417 0 1353.94602347 0 16887
0.12350000 0.12352200 13527.28067744 0 -133.90205296 0 4584.04212584 0 146.31302185 0 762.72927469 0 16407
0.12450000 0.12449800 13543.77844142 0 -88.24332855 0 4372.05139487 0 -287.41097871 0 601.57601588 0 16306
0.12550000 0.12549900 13937.51031197 0 -50.56221418 0 4553.33856912 0 -388.46255117 0 793.27671163 0 17523
0.12650000 0.12650100 13658.26628004 0 14.86038859 0 4396.69838991 0 4.01062857 0 385.18403579 0 17154
0.12750000 0.12750600 13675.98199975 0 356.28748248 0 4441.24235266 0 383.38810471 0 86.92837926 0 18007
0.12850000 0.12850300 13401.83123724 0 399.06098049 0 3926.68927368 0 235.08538608 0 97.48418012 0 17496
0.12950000 0.12949900 12917.08485668 0 298.77893460 0 4011.73580062 0 352.40331093 0 226.28288785 0 18405
0.13050000 0.13049000 12737.71319462 0 293.54172496 0 3644.32284616 0 367.77391225 0 -221.46089040 0 18100
0.13150000 0.13148800 12388.15990009 0 350.35714531 0 3570.73617541 0 230.30435623 0 -453.76601572 0 19059
0.13250000 0.13249300 12278.87605413 0 39.20101240 0 3224.91425435 0 71.89935917 0 -3.44730190 0 18957
0.13350000 0.13349100 12385.50254214 0 -169.07993614 0 3542.54603643 0 -85.25468664 0 -87.90794783 0 19468
0.13450000 0.13450700 12405.54345006 0 111.58688952 0 3185.02066803 0 -237.00089828 0 -200.44118896 0 19953
0.13550000 0.13551000 12529.11059504 0 135.40456744 0 3613.78537431 0 -208.59706342 0 -673.62141901 0 19956
0.13650000 0.13649900 12176.34632631 0 264.71603453 0 3832.88453782 0 -431.49957051 0 -470.81296701 0 19723
0.13750000 0.13749600 11991.99211808 0 537.55029762 0 4263.94121534 0 -328.04308910 0 -98.81053391 0 20946
0.13850000 0.13851100 11748.40097207 0 229.54147305 0 4284.96756017 0 302.50698637 0 -281.91467667 0 20955
0.13950000 0.13949800 11746.18650711 0 -23.50554908 0 4720.08778089 0 549.40654304 0 198.84677419 0 20506
0.14050000 0.14048300 11574.78691892 0 14.48226869 0 4136.79770944 0 852.24569915 0 304.22762565 0 21447
0.14150000 0.14148400 11660.48671301 0 153.65286597 0 4168.91852374 0 680.92251000 0 554.79101460 0 21771
0.14250000 0.14249400 11558.06770844 0 53.02613862 0 3691.44666059 0 220.71572293 0 878.17597664 0 22470
0.14350000 0.14350900 11410.69506510 0 133.27757384 0 4032.56284360 0 -51.58717929 0 691.89518389 0 22519
0.14450000 0.14449900 11329.75637068 0 362.05505648 0 3918.79470609 0 -391.49415371 0 844.64233370 0 22218
0.14550000 0.14550500 11070.95185037 0 123.09435671 0 3802.24741505 0 -269.91781273 0 950.27009800 0 23559
0.14650000 0.14650700 11012.76678345 0 -44.45018015 0 3805.83484829 0 89.17395745 0 598.48240833 0 23044
0.14750000 0.14750500 11095.90887051 0 -11.85646686 0 3904.25674360 0 253.08787901 0 36.54077564 0 23649
0.14850000 0.14849900 10877.40761254 0 281.32230729 0 3594.91813282 0 419.17607298 0 -377.16435092 0 23640
0.14950000 0.14949500 10498.92233326 0 432.90907746 0 3192.43912566 0 354.50373095 0 -382.00406410 0 24457
0.15050000 0.15050000 10209.30353298 0 255.31341630 0 2938.01924598 0 195.93585999 0 -7.10825538 0 24591
0.15150000 0.15149900 10048.13477292 0 11.01808150 0 3285.65702831 0 271.16898544 0 -171.36083506 0 25020
0.15250000 0.15250500 9903.68522334 0 264.35396951 0 3004.39783327 0 64.54146715 0 34.10264972 0 25297
0.15350000 0.15350100 9829.13526033 0 217.88120778 0 3189.01777729 0 68.51034199 0 433.98752189 0 25452
0.15450000 0.15450400 9707.94866519 0 56.91130667 0 3083.45423247 0 -153.16125475 0 596.44952949 0 26061
0.15550000 0.15549900 9792.98411980 0 -154.64716074 0 3207.84072948 0 226.32496269 0 374.07185060 0 26128
0.15650000 0.15649500 9828.23840202 0 60.68885173 0 3313.17175548 0 108.38787344 0 322.13046765 0 26331
0.15750000 0.15749700 9809.45973913 0 242.93455715 0 3002.41588712 0 212.66725002 0 174.86301140 0 27345
0.15850000 0.15849900 9532.47446147 0 197.19035439 0 3021.53779209 0 153.19779342 0 284.48345603 0 26980
0.15950000 0.15949700 9355.33940902 0 121.80110917 0 2601.57558404 0 201.28711458 0 411.42987454 0 27777
0.16050000 0.16050000 9273.18275886 0 72.90118312 0 2614.03194946 0 313.65017407 0 108.93307471 0 28224
0.16150000 0.16150500 9188.04765333 0 121.16112879 0 2454.85620787 0 92.70935077 0 92.85030146 0 28075
0.16250000 0.16249700 9094.01039865 0 61.37411792 0 2430.77390139 0 212.77575881 0 183.98549981 0 28590
0.16350000 0.16349900 8976.59946627 0 107.35061805 0 2429.15734196 0 116.73662780 0 444.19288368 0 29163
0.16450000 0.16449100 8947.05850366 0 96.35491372 0 2287.21013779 0 407.17920904 0 343.10587978 0 28996
0.16550000 0.16550500 8891.49757772 0 26.59162745 0 2298.02779914 0 113.07722444 0 429.57077152 0 30777
0.16650000 0.16650700 8764.75267552 0 217.72508800 0 2166.28927844 0 22.03702664 0 252.81217812 0 29211
0.16750000 0.16749900 8622.75010972 0 216.21482290 0 2466.22748546 0 -351.28611336 0 245.41143621 0 30922
0.16850000 0.16850800 8393.58620295 0 313.84726145 0 2232.24711739 0 -307.69769225 0 378.99903515 0 30867
0.16950000 0.16949900 8332.56662087 0 128.20423461 0 2734.06702282 0 -476.03799709 0 -157.13954106 0 30852
0.17050000 0.17049200 8138.05909078 0 196.66220450 0 2647.11605602 0 -212.88205313 0 51.37337269 0 31257
0.17150000 0.17149500 8179.38100700 0 118.55359630 0 2887.76196363 0 -68.30273589 0 -191.32645117 0 32608
0.17250000 0.17250900 8017.28217166 0 141.32936845 0 2845.39924887 0 267.14973153 0 42.39936415 0 32361
0.17350000 0.17350400 7999.75468147 0 -14.92494024 0 2569.43262509 0 421.24549049 0 163.82722525 0 32508
0.17450000 0.17449800 8054.11979633 0 -87.14971503 0 2453.48323959 0 463.69124769 0 -111.74522377 0 32791
0.17550000 0.17549800 8067.70553888 0 1.08385216 0 2224.41898374 0 131.56800689 0 293.87500194 0 33633
0.17650000 0.17650100 7993.33273308 0 83.21018186 0 2090.75387853 0 257.55666930 0 258.57421595 0 33984
0.17750000 0.17750300 7966.96952768 0 99.55703005 0 2087.21073459 0 168.49863909 0 533.81228076 0 34069
0.17850000 0.17849800 7913.86665785 0 13.53957096 0 2077.07955738 0 222.60023262 0 452.65103261 0 34536
