### header ###
fiducial parameters:
Omega_m = 0.31
Omega_nu = 0
Omega_de = 0.69
Omega_k = 0
H_0 = 100
w_de = -1
zeff = 0
beta = 0
fgrowth = 0
b_1 = 2
gamma = 0.55
Lx = 3500 Ly = 3500 Lz = 3500
nx = 700 ny = 700 nz = 700
xoffset = -685.467585 yoffset = -31.7331281 zoffset = 572.489161
bins = 400 dk = 0.001
kx_ny = 0.628318531 ky_ny = 0.628318531 kz_ny = 0.628318531
############################
A(data) = 8.01602832 (not used)
A(ran) = 8.01450717 (used)
Ngal = 476727
weighted Ngal = 0
Nran = 23820508
weighted Nran = 0
SN(data) = 3488.09821
SN(ran) = 69.809264
SN(data+ran) = 3557.90747
############################
13 columns: k_central k_mean P_0(k) sigma^{lin}_{P_0(k)} P^img_1(k) sigma^{lin}_{P_1(k)} P_2(k) sigma^{lin}_{P_2(k)} P^img_3(k) sigma^{lin}_{P_3(k)} P_4(k) sigma^{lin}_{P_4(k)} N_modes
### header ###
0.00050000 0 0 0 0 0 0 0 0 0 0 0 0
0.00150000 0.00179520 25573.63791038 0 -31463.89326740 0 1703.47717335 0 -49258.22648345 0 -79343.39386443 0 3
0.00250000 0.00253879 45875.63125135 0 -30726.03354149 0 -28855.03209363 0 21982.99369494 0 47422.98864476 0 6
0.00350000 0.00331552 63111.14423380 0 -41330.10974355 0 -35458.56661547 0 -7228.67798110 0 43611.00865620 0 7
0.00450000 0.00420575 71845.43694374 0 -28585.86387729 0 -38479.65044224 0 -32030.35340512 0 1256.48742042 0 24
0.00550000 0.00557378 105830.05567936 0 -16646.02240910 0 -35820.63163704 0 -33923.16733287 0 -19041.07699063 0 45
0.00650000 0.00659388 77685.86683908 0 9157.05621617 0 -8700.11244323 0 -61778.36849538 0 34599.02203980 0 40
0.00750000 0.00754703 89437.36806210 0 27329.37645687 0 -19187.78529447 0 -50536.74783026 0 19402.92056570 0 57
0.00850000 0.00846663 72914.02701199 0 10594.47649645 0 6877.10952346 0 -11899.98109884 0 49120.37603946 0 75
0.00950000 0.00948925 76593.58199572 0 -5455.06870235 0 3886.97284456 0 20172.55786384 0 18194.26558850 0 112
0.01050000 0.01054430 74993.07744319 0 -11423.31751540 0 2583.77128573 0 32797.33334531 0 -11541.12705147 0 105
0.01150000 0.01145670 91909.04313137 0 -1371.94962363 0 17167.52890806 0 8205.66670612 0 -7585.15147864 0 144
0.01250000 0.01249090 85978.15234226 0 4373.97797938 0 6990.31297241 0 -18803.02200703 0 -6402.52753708 0 169
0.01350000 0.01339930 79700.47633984 0 15181.48600534 0 23220.32599342 0 -21081.15283846 0 14438.75445651 0 180
0.01450000 0.01448870 70798.43790889 0 14334.23171022 0 31723.42856115 0 -6405.69422198 0 11170.97923278 0 267
0.01550000 0.01550050 63595.22627487 0 3247.35785676 0 40528.91631968 0 12330.69453429 0 15490.29314453 0 238
0.01650000 0.01653350 64877.84438187 0 -1970.97346864 0 36431.38107404 0 9948.72744070 0 -5604.30149626 0 315
0.01750000 0.01747870 62301.42511981 0 -3530.27790053 0 33931.25012999 0 18164.03814174 0 4246.53552072 0 297
0.01850000 0.01844180 69481.49559496 0 -4500.63430298 0 33013.90801876 0 -351.23628790 0 -7056.01614788 0 388
0.01950000 0.01947590 70057.47793203 0 3235.12293784 0 32283.35602723 0 2067.36912851 0 -11310.37980225 0 399
0.02050000 0.02045430 66233.42910941 0 2295.40365815 0 28638.01452719 0 -5634.36285814 0 -12475.52054291 0 462
0.02150000 0.02154770 65455.37684441 0 4004.36163229 0 26627.50178662 0 -1026.56063047 0 -11927.32974114 0 571
0.02250000 0.02255340 60975.51422278 0 3782.41688130 0 19631.89624295 0 3300.33893102 0 -6320.11622346 0 510
0.02350000 0.02348930 63909.34812998 0 -2231.12881258 0 19251.78333192 0 13772.64339542 0 -8736.30787306 0 555
0.02450000 0.02439640 64511.90404661 0 -4243.98888601 0 17739.30376170 0 10377.30391746 0 -6040.08605647 0 592
0.02550000 0.02547300 63727.31910996 0 -1195.19103022 0 8912.51285022 0 10710.22658010 0 -7612.62191651 0 837
0.02650000 0.02652900 63853.87578264 0 1890.93163253 0 10894.37041416 0 6457.98881210 0 -6743.09010385 0 723
0.02750000 0.02749970 64477.13694668 0 872.20577910 0 8538.92153852 0 -3345.22613583 0 -1199.77497270 0 826
0.02850000 0.02848090 64350.80172050 0 492.91111288 0 23109.71346849 0 -7650.17924230 0 9391.20266911 0 831
0.02950000 0.02946900 68072.65298504 0 -4335.91132666 0 23849.67693612 0 -1606.24001679 0 6236.90770245 0 996
0.03050000 0.03053250 69282.52591797 0 1829.44701281 0 28577.55963368 0 715.77486683 0 15113.39120771 0 1041
0.03150000 0.03150510 67638.83929864 0 5045.61413056 0 31510.61847814 0 2117.58212157 0 11084.61509920 0 1036
0.03250000 0.03246190 65199.16324810 0 8605.00117303 0 37600.17568190 0 3461.19766598 0 13837.30577236 0 1059
0.03350000 0.03345080 57209.37365897 0 4970.52162364 0 34622.71681491 0 4784.06367369 0 11340.49652575 0 1302
0.03450000 0.03451200 52879.87320838 0 2052.12253724 0 29527.45437987 0 6193.57062311 0 13452.54248491 0 1339
0.03550000 0.03553350 52394.01959534 0 754.20801351 0 30188.36144829 0 7011.89293348 0 6512.16569744 0 1365
0.03650000 0.03647120 50026.09220962 0 -11.11395676 0 22299.66218475 0 1609.00809800 0 1229.47094786 0 1308
0.03750000 0.03744890 49760.24569073 0 2626.46617023 0 25063.97879898 0 642.13394169 0 2163.87551163 0 1579
0.03850000 0.03847530 47248.37808237 0 3845.24125232 0 20329.78487627 0 -1183.58723381 0 3716.63619955 0 1662
0.03950000 0.03950240 44032.75350854 0 1635.28272479 0 19924.42706466 0 2091.62859219 0 -481.65609470 0 1683
0.04050000 0.04050350 45331.75865626 0 -1301.86180753 0 19519.06925305 0 6057.10421972 0 -1063.19895329 0 1822
0.04150000 0.04152450 43985.03178857 0 1316.92016928 0 16059.07847047 0 4107.85465237 0 -4809.06498313 0 1887
0.04250000 0.04250150 42311.11772249 0 3266.81193147 0 15333.84119485 0 3141.51750382 0 -2500.30810125 0 1920
0.04350000 0.04349210 40733.64360557 0 2991.55393648 0 15597.58397203 0 584.86455604 0 292.96264238 0 2005
0.04450000 0.04448520 36439.35314791 0 2258.74319068 0 12118.54879076 0 66.07974524 0 3332.21615417 0 2151
0.04550000 0.04548030 36645.63055928 0 198.48470916 0 11731.34959185 0 1372.84648194 0 303.88216911 0 2274
0.04650000 0.04648670 36233.07573654 0 -2537.06821965 0 12656.88522344 0 2401.65368711 0 10.29633201 0 2311
0.04750000 0.04749250 37911.86162554 0 -507.84214290 0 11307.16882805 0 909.63355869 0 -731.53299951 0 2568
0.04850000 0.04851840 38550.18115134 0 -75.78862398 0 9316.30946403 0 2960.38534211 0 324.13123674 0 2493
0.04950000 0.04949480 38162.87122918 0 -437.61702997 0 10382.18681270 0 2125.31060429 0 3982.25019962 0 2644
0.05050000 0.05050630 38792.22217187 0 564.97423173 0 8345.13370954 0 3164.59222874 0 3251.07815790 0 2829
0.05150000 0.05149060 39315.72168930 0 -647.13198912 0 9154.36564124 0 1390.52898467 0 2313.31867971 0 2784
0.05250000 0.05249300 39002.37489693 0 -162.01247121 0 7919.91214720 0 695.35085647 0 1704.20794679 0 3055
0.05350000 0.05348950 39360.45388156 0 886.02071878 0 10401.13156046 0 -2451.25770230 0 74.59724183 0 3009
0.05450000 0.05448610 38131.53654994 0 1150.33704238 0 11714.40893488 0 -3719.72537817 0 -89.63224098 0 3336
0.05550000 0.05550870 36644.96621979 0 2643.38468255 0 11939.73074494 0 -2065.53112259 0 1622.41668335 0 3349
0.05650000 0.05647670 35698.94678729 0 2033.04492158 0 13847.82448094 0 -1135.14581273 0 -710.52769210 0 3324
0.05750000 0.05747970 34153.25024260 0 1589.78654211 0 15103.53683862 0 1389.08958245 0 -1302.40435144 0 3639
0.05850000 0.05849280 33157.73751816 0 1261.49211124 0 15077.40615205 0 931.46264707 0 37.08232305 0 3846
0.05950000 0.05951020 31655.33376352 0 1617.14625674 0 14090.41911771 0 786.49934161 0 -629.19482291 0 3787
0.06050000 0.06049470 31941.66408333 0 72.23573639 0 12994.81257691 0 1528.58980284 0 719.51066923 0 3930
0.06150000 0.06148310 30949.14088658 0 -896.94467444 0 13633.68571894 0 2487.89602513 0 2477.48803980 0 4083
0.06250000 0.06249100 32882.47952317 0 -638.09807930 0 12627.32211618 0 1749.75949109 0 2153.83291302 0 4303
0.06350000 0.06350600 32242.05625566 0 -247.01803054 0 12358.81823932 0 1890.71018603 0 787.39952162 0 4470
0.06450000 0.06451750 33172.35298692 0 18.16392742 0 12629.09368815 0 785.66338109 0 2373.21995698 0 4479
0.06550000 0.06550280 31876.33736690 0 736.31070767 0 10443.92609589 0 1527.43828106 0 2534.34442774 0 4636
0.06650000 0.06648880 32660.47941055 0 531.65649912 0 12520.47418168 0 1284.01321992 0 2194.75622555 0 4653
0.06750000 0.06749660 30828.56326931 0 601.36010555 0 10186.36167596 0 263.80035327 0 4387.96232563 0 5220
0.06850000 0.06852730 30925.00321848 0 583.17713373 0 10719.99237059 0 2635.98836958 0 2647.52573204 0 5029
0.06950000 0.06949320 29964.58976371 0 -237.29763658 0 8491.62056689 0 1616.70336375 0 4167.93308683 0 5040
0.07050000 0.07048030 31126.51953018 0 -236.36091790 0 7563.90368731 0 1168.07490674 0 1829.77918256 0 5475
0.07150000 0.07148790 30750.61410259 0 384.56287837 0 8497.26745255 0 -735.15475696 0 2718.03429648 0 5509
0.07250000 0.07249820 30491.41097858 0 726.75307689 0 7198.90449966 0 272.55081157 0 4077.71578421 0 5916
0.07350000 0.07351270 29077.47509924 0 745.94473750 0 7271.73825232 0 -277.08603582 0 1793.81627154 0 5721
0.07450000 0.07449140 28788.37669822 0 1232.43833091 0 7436.74910909 0 348.84023681 0 2188.56679598 0 6028
0.07550000 0.07549160 27501.21893806 0 1461.32542956 0 8360.20314362 0 432.23145118 0 -1041.18938602 0 6183
0.07650000 0.07648840 25997.48650444 0 1085.09226116 0 7066.82273690 0 -733.65667141 0 1206.40729527 0 6330
0.07750000 0.07749960 25533.77754103 0 886.03954173 0 8449.18034586 0 -476.64254603 0 -917.20702886 0 6583
0.07850000 0.07848650 24680.98708350 0 670.93859471 0 8173.66768740 0 -786.15167061 0 -158.33092321 0 6549
0.07950000 0.07947320 24206.64868827 0 1425.62825435 0 9712.68762022 0 -551.68522748 0 -870.98893060 0 6828
0.08050000 0.08048110 22936.98520131 0 606.86526545 0 9161.34120587 0 120.85110370 0 653.65580290 0 7147
0.08150000 0.08149960 22935.10290610 0 32.54776314 0 9608.24238020 0 781.11487005 0 1333.80546463 0 7386
0.08250000 0.08250610 23241.47413383 0 -55.16331876 0 9701.98068212 0 1500.63218267 0 670.19785618 0 7227
0.08350000 0.08350160 23207.03920364 0 -274.63130141 0 9133.26179013 0 1451.01709516 0 1499.70210739 0 7798
0.08450000 0.08449610 22976.73484741 0 63.92828181 0 8595.71149251 0 917.67428097 0 2186.21946312 0 7371
0.08550000 0.08548940 23094.87655323 0 613.62713422 0 8153.64892413 0 1584.84828524 0 2725.75170688 0 8256
0.08650000 0.08650700 22242.08609570 0 446.95764319 0 7727.66337138 0 831.20496030 0 2187.21597235 0 8037
0.08750000 0.08749060 22070.79723075 0 520.24536116 0 6705.97567106 0 695.84246769 0 2439.87535239 0 8155
0.08850000 0.08849210 21880.46396712 0 -117.53494241 0 5827.15417788 0 382.84002463 0 1775.49157397 0 8718
0.08950000 0.08949900 21746.37811357 0 -288.70754795 0 5734.02485383 0 433.98530743 0 2089.56913977 0 8571
0.09050000 0.09049190 21961.51338479 0 438.51499551 0 6374.25989182 0 -653.69898497 0 396.00280437 0 8932
0.09150000 0.09150830 21505.11215577 0 844.70766041 0 5745.85009674 0 -858.33990673 0 73.32713545 0 9285
0.09250000 0.09250820 20484.90814698 0 823.72781935 0 6719.93787266 0 -279.80761326 0 74.06388794 0 9204
0.09350000 0.09350330 19728.77908511 0 818.95675458 0 6742.52541529 0 11.92290081 0 -785.60580500 0 9349
0.09450000 0.09448040 19127.21967772 0 666.07673688 0 7053.84597222 0 -167.85422979 0 -595.65675104 0 9564
0.09550000 0.09549270 18631.51169558 0 579.76132153 0 7088.92309724 0 256.54355158 0 -964.94535732 0 10155
0.09650000 0.09649430 18251.84167755 0 320.76525000 0 6099.24548798 0 -62.65175348 0 -261.95238226 0 9913
0.09750000 0.09749140 18328.68361179 0 48.35992877 0 7166.77261304 0 435.77459512 0 -50.75243672 0 10476
0.09850000 0.09850240 18143.00072459 0 471.88476805 0 6957.46138467 0 670.77583154 0 629.10070815 0 10575
0.09950000 0.09950330 17323.09507176 0 708.24900765 0 6868.38453150 0 519.33078713 0 594.22177774 0 10882
0.10050000 0.10051200 16836.57711923 0 582.12194118 0 6164.21789001 0 1416.60430962 0 1880.76723834 0 10875
0.10150000 0.10150300 16684.44337623 0 106.36219161 0 6336.93508486 0 542.74211073 0 2250.85969541 0 11118
0.10250000 0.10250800 16475.95149989 0 -18.70348181 0 5992.78508484 0 1291.55347312 0 2619.84491999 0 11575
0.10350000 0.10349800 16620.11316903 0 -203.71859711 0 5664.16955655 0 554.62825142 0 2469.38309803 0 11364
0.10450000 0.10450100 16445.05971365 0 -73.32093495 0 5238.13971450 0 -18.39102080 0 2157.54214184 0 12093
0.10550000 0.10551000 16464.32555883 0 451.06658293 0 5971.34906400 0 -147.98715736 0 2661.76474175 0 12067
0.10650000 0.10649700 16058.30340773 0 583.17934820 0 5524.64719151 0 -172.53450149 0 1413.29368450 0 12054
0.10750000 0.10749900 15609.87425258 0 311.50546475 0 5904.51651139 0 -40.92729857 0 2546.56827434 0 12807
0.10850000 0.10850100 15650.39896141 0 32.78626102 0 5687.24428147 0 555.42545881 0 2016.42536202 0 12736
0.10950000 0.10950300 15337.49506204 0 361.86461249 0 5422.15068067 0 353.40646356 0 1664.74618113 0 12933
0.11050000 0.11050200 15135.42513410 0 511.76838928 0 5308.82543615 0 376.95508399 0 1601.72250827 0 13428
0.11150000 0.11150900 14936.78762685 0 -54.14178607 0 5034.26499762 0 -203.00886108 0 1465.64363624 0 13453
0.11250000 0.11250000 14620.56203003 0 97.97158386 0 5034.71896294 0 166.73260328 0 912.44260749 0 13668
0.11350000 0.11349100 14681.23837004 0 197.57899299 0 4950.75752384 0 434.24661429 0 595.45523472 0 13791
0.11450000 0.11448600 14651.01092328 0 230.70628162 0 4628.81860741 0 318.96710445 0 821.97839203 0 14205
0.11550000 0.11549300 14196.60271272 0 350.59630752 0 4581.14117674 0 -64.01785691 0 696.86001434 0 14776
0.11650000 0.11649800 14192.06305955 0 315.06410995 0 4642.93582155 0 -344.62943168 0 1174.78473558 0 14553
0.11750000 0.11747300 14147.77376027 0 97.38895813 0 4616.34009734 0 181.05022650 0 909.20616695 0 14568
0.11850000 0.11849100 13904.84695375 0 -136.01575977 0 4635.05232628 0 -196.05876280 0 596.18600816 0 16015
0.11950000 0.11950300 14310.20476536 0 -185.32082219 0 5092.20647339 0 139.59544238 0 263.59883696 0 15270
0.12050000 0.12050700 14300.12894978 0 -52.88241984 0 4886.62661849 0 -109.51370742 0 63.21455975 0 15999
0.12150000 0.12150000 14168.14683794 0 371.74887686 0 5065.83219568 0 213.06253202 0 -77.03116027 0 15670
0.12250000 0.12250700 14184.75532517 0 330.46571377 0 4942.32041232 0 -244.41492698 0 -185.84343592 0 16887
0.12350000 0.12352200 14033.95026114 0 131.36316888 0 4867.95867884 0 -241.70552909 0 317.25643026 0 16407
0.12450000 0.12449800 13997.07941949 0 57.58295390 0 5339.68400542 0 94.09815247 0 -14.04956224 0 16306
0.12550000 0.12549900 13827.78357301 0 33.33356604 0 5233.20145764 0 -96.16247671 0 -417.90497010 0 17523
0.12650000 0.12650100 13800.87782371 0 166.90643878 0 5302.38134310 0 364.82978108 0 -491.38756099 0 17154
0.12750000 0.12750600 13462.95047024 0 255.68987534 0 4932.14494582 0 240.19083506 0 -221.68787305 0 18007
0.12850000 0.12850300 13348.24118512 0 380.63663199 0 5055.46849965 0 587.00483642 0 -358.05351829 0 17496
0.12950000 0.12949900 12991.71232596 0 266.26726724 0 4483.45005487 0 933.40694730 0 -591.16913779 0 18405
0.13050000 0.13049000 12629.86875089 0 132.36078535 0 4607.59296073 0 455.82878983 0 -220.75447607 0 18100
0.13150000 0.13148800 12408.86514751 0 140.63845538 0 3858.45053583 0 350.60073645 0 -496.72995771 0 19059
0.13250000 0.13249300 12407.97936152 0 41.54878816 0 3923.63331203 0 352.36012887 0 46.51605452 0 18957
0.13350000 0.13349100 12300.46708753 0 89.77595976 0 3666.09103675 0 -8.42049195 0 -3.30005105 0 19468
0.13450000 0.13450700 12211.88848898 0 317.22985668 0 3661.65103450 0 -220.68139873 0 -385.93695388 0 19953
0.13550000 0.13551000 12028.75223648 0 324.04930154 0 3676.06720141 0 -244.08718616 0 -300.92807285 0 19956
0.13650000 0.13649900 11771.98502394 0 197.83587093 0 3769.03044059 0 -557.56795366 0 -348.64647112 0 19723
0.13750000 0.13749600 11581.31959056 0 253.49312610 0 3862.32584951 0 407.17920904 0 -365.99680411 0 20946
0.13850000 0.13851100 11650.30017418 0 -25.20548311 0 3642.34090002 0 514.24416111 0 -341.51700117 0 20955
0.13950000 0.13949800 11315.69451816 0 57.64075143 0 3512.42931292 0 553.80336322 0 -463.87615551 0 20506
0.14050000 0.14048300 11509.90309548 0 269.67200712 0 3469.31368008 0 343.41258318 0 -325.61603550 0 21447
0.14150000 0.14148400 11116.17122493 0 277.36616564 0 3341.63870259 0 418.95241202 0 501.77229443 0 21771
0.14250000 0.14249400 10909.87166891 0 238.29303858 0 3152.77805816 0 117.51722670 0 715.79147532 0 22470
0.14350000 0.14350900 10785.76198001 0 126.26325607 0 3219.66597239 0 369.60527477 0 820.97966833 0 22519
0.14450000 0.14449900 10680.89599166 0 -17.92742256 0 3271.59517579 0 299.67025675 0 803.81977932 0 22218
0.14550000 0.14550500 10631.85666504 0 98.17332162 0 2922.37405101 0 247.08003556 0 1190.05347151 0 23559
0.14650000 0.14650700 10583.72526905 0 110.92144280 0 2766.29856037 0 221.86945918 0 1155.50781807 0 23044
0.14750000 0.14750500 10388.22122973 0 209.75855029 0 2682.04924082 0 133.33736440 0 1049.57999377 0 23649
0.14850000 0.14849900 10317.76802691 0 153.19557896 0 2716.47309868 0 -169.33127792 0 830.16305453 0 23640
0.14950000 0.14949500 10106.18697195 0 266.81645455 0 2832.66607533 0 -195.68894715 0 575.81071603 0 24457
0.15050000 0.15050000 10027.80598455 0 194.69797408 0 2771.79043348 0 -430.03802363 0 394.05075351 0 24591
0.15150000 0.15149900 9862.31901782 0 109.52311890 0 3153.82992902 0 -185.01079709 0 126.02520109 0 25020
0.15250000 0.15250500 9604.95389973 0 204.55123593 0 3019.29011015 0 16.31053097 0 75.69904887 0 25297
0.15350000 0.15350100 9642.09047717 0 145.66861255 0 2719.21903524 0 392.22160545 0 -35.69573581 0 25452
0.15450000 0.15450400 9420.67719777 0 143.10536935 0 2573.67332550 0 417.46982773 0 -114.18999309 0 26061
0.15550000 0.15549900 9245.45765752 0 271.71927998 0 2600.19154344 0 48.56963860 0 -176.26255325 0 26128
0.15650000 0.15649500 8910.73020593 0 308.06418620 0 2448.43425947 0 315.16708257 0 210.67423156 0 26331
0.15750000 0.15749700 8755.50728429 0 53.37668842 0 2506.87398986 0 20.56451816 0 507.33724489 0 27345
0.15850000 0.15849900 8888.08730167 0 -135.80649283 0 2661.69830780 0 72.78592021 0 181.64370311 0 26980
0.15950000 0.15949700 9012.55130496 0 -66.16489142 0 2881.24036431 0 -177.24466846 0 537.83042744 0 27777
0.16050000 0.16050000 9146.91396663 0 -2.37868969 0 3076.04684717 0 -293.51293692 0 481.45790009 0 28224
0.16150000 0.16150500 9147.57830612 0 157.64886800 0 3104.67987915 0 -313.69446337 0 962.46072763 0 28075
0.16250000 0.16249700 9177.55108941 0 91.82046453 0 3180.31492998 0 80.07250645 0 733.05433694 0 28590
0.16350000 0.16349900 9072.69617337 0 51.41655476 0 3358.19182820 0 104.62981567 0 930.62336484 0 29163
0.16450000 0.16449100 9030.76527929 0 93.52837064 0 3274.17502747 0 543.20271944 0 891.51369912 0 28996
0.16550000 0.16550500 8904.40790845 0 24.08308154 0 2903.17463977 0 620.74442461 0 691.43789688 0 30777
0.16650000 0.16650700 8795.71089571 0 84.18532151 0 2565.69017930 0 463.09002045 0 855.43009977 0 29211
0.16750000 0.16749900 8828.83929157 0 138.11728702 0 2549.20348765 0 28.24837942 0 521.11343143 0 30922
0.16850000 0.16850800 8598.41313977 0 225.16236858 0 2439.45460404 0 14.28739578 0 714.73739000 0 30867
0.16950000 0.16949900 8464.52658806 0 189.42201130 0 2420.97489392 0 -48.50087947 0 668.65880303 0 30852
0.17050000 0.17049200 8305.47264204 0 76.76819256 0 2175.66753756 0 -109.81055645 0 646.42446756 0 31257
0.17150000 0.17149500 8341.65699955 0 -4.30375730 0 2200.19273704 0 112.01428126 0 215.44529632 0 32608
0.17250000 0.17250900 8238.96118685 0 107.31773324 0 2116.71848023 0 200.23856542 0 75.27298581 0 32361
0.17350000 0.17350400 8183.94280483 0 162.09108472 0 2036.18946182 0 25.80549239 0 188.43435993 0 32508
0.17450000 0.17449800 7995.21502830 0 151.45833119 0 2121.98890684 0 -2.54515102 0 284.73036887 0 32791
0.17550000 0.17549800 8064.46134771 0 168.19415016 0 2186.91701958 0 -7.50341558 0 18.87100608 0 33633
0.17650000 0.17650100 7767.77840420 0 141.69032624 0 2281.30858866 0 -200.99480520 0 142.67908485 0 33984
0.17750000 0.17750300 7820.37194709 0 108.37890485 0 2364.84927942 0 -131.53921885 0 346.66784668 0 34069
0.17850000 0.17849800 7811.53623188 0 -30.13709658 0 2527.67888820 0 -22.60791571 0 318.58953817 0 34536
