### header ###
fiducial parameters:
Omega_m = 0.31
Omega_nu = 0
Omega_de = 0.69
Omega_k = 0
H_0 = 100
w_de = -1
zeff = 0
beta = 0
fgrowth = 0
b_1 = 2
gamma = 0.55
Lx = 3500 Ly = 3500 Lz = 3500
nx = 700 ny = 700 nz = 700
xoffset = -685.467585 yoffset = -31.7331281 zoffset = 572.489161
bins = 400 dk = 0.001
kx_ny = 0.628318531 ky_ny = 0.628318531 kz_ny = 0.628318531
############################
A(data) = 8.0408957 (not used)
A(ran) = 8.0380343 (used)
Ngal = 477476
weighted Ngal = 0
Nran = 23820508
weighted Nran = 0
SN(data) = 3489.8525
SN(ran) = 70.0141939
SN(data+ran) = 3559.8667
############################
13 columns: k_central k_mean P_0(k) sigma^{lin}_{P_0(k)} P^img_1(k) sigma^{lin}_{P_1(k)} P_2(k) sigma^{lin}_{P_2(k)} P^img_3(k) sigma^{lin}_{P_3(k)} P_4(k) sigma^{lin}_{P_4(k)} N_modes
### header ###
0.00050000 0 0 0 0 0 0 0 0 0 0 0 0
0.00150000 0.00179520 13469.70458838 0 -21490.93958000 0 9866.00610198 0 -85875.73333769 0 32579.20854638 0 3
0.00250000 0.00253879 26036.23964130 0 -21293.52002848 0 -20384.03926788 0 24871.43107038 0 -12054.77219980 0 6
0.00350000 0.00331552 36837.07105540 0 -22859.58965083 0 -14038.48991431 0 -14181.32290447 0 8110.13468759 0 7
0.00450000 0.00420575 46590.12837190 0 -22215.95540912 0 -30132.55693121 0 -4210.06328277 0 4099.72756595 0 24
0.00550000 0.00557378 54649.67360739 0 -5072.05484222 0 -21322.30807301 0 -13853.80353634 0 -7379.32803258 0 45
0.00650000 0.00659388 59812.14505409 0 -5389.12193573 0 -29157.41728443 0 -14476.28963764 0 4388.36092932 0 40
0.00750000 0.00754703 61434.01919352 0 -10704.13680145 0 -26734.34972112 0 -24479.58149505 0 -3229.08852081 0 57
0.00850000 0.00846663 69648.46625323 0 -8357.66758123 0 -22461.65029685 0 -39406.73619931 0 -15411.23674533 0 75
0.00950000 0.00948925 91416.10323045 0 -8085.49876487 0 10911.96433830 0 -52691.09007022 0 -16886.95619716 0 112
0.01050000 0.01054430 87287.01185908 0 13380.79382009 0 31661.31281892 0 -39763.26505847 0 -7683.20798723 0 105
0.01150000 0.01145670 79178.08405489 0 17494.71610645 0 28122.70853013 0 -7294.92370049 0 11385.45016452 0 144
0.01250000 0.01249090 71630.74456551 0 8379.53542275 0 46007.39191669 0 5415.87267249 0 -8069.96429315 0 169
0.01350000 0.01339930 70817.15013784 0 -2482.34879039 0 34997.95790302 0 17754.47284670 0 -33347.18499581 0 180
0.01450000 0.01448870 66574.56743707 0 3130.85485502 0 38671.31238485 0 18489.89666115 0 -40447.20256252 0 267
0.01550000 0.01550050 64266.54132863 0 7170.61470975 0 28489.86682111 0 -9882.53708293 0 -20769.13472507 0 238
0.01650000 0.01653350 63839.26031388 0 1218.40969537 0 24743.21354898 0 -3419.68752024 0 -27417.84433217 0 315
0.01750000 0.01747870 65899.93068587 0 -384.06794545 0 25838.48792004 0 -14452.59486253 0 -20924.70088877 0 297
0.01850000 0.01844180 68090.14725825 0 -1913.38630726 0 14168.58973093 0 2404.53249157 0 -35483.25789982 0 388
0.01950000 0.01947590 74494.93354960 0 -3988.94895614 0 18987.26549201 0 -4332.33496574 0 -48169.26333754 0 399
0.02050000 0.02045430 69658.32062232 0 1318.20455896 0 21524.48872420 0 -6330.15882207 0 -31419.82541462 0 462
0.02150000 0.02154770 70618.95552358 0 6085.52687753 0 19727.33968289 0 3466.20235680 0 -38586.71982324 0 571
0.02250000 0.02255340 64161.02207311 0 -1103.54318324 0 11853.69878110 0 13599.25078876 0 -25994.05408374 0 510
0.02350000 0.02348930 60939.41844387 0 -3119.72716858 0 1459.60921922 0 11184.26602256 0 -36934.61823705 0 555
0.02450000 0.02439640 68670.22635550 0 -3819.24343364 0 2988.32081763 0 4522.64608472 0 -34482.65190596 0 592
0.02550000 0.02547300 67057.87441541 0 1361.27590250 0 3157.16269879 0 -12264.26058537 0 -37696.28346132 0 837
0.02650000 0.02652900 66330.86556782 0 7805.80076762 0 6066.46033419 0 -16823.29032945 0 -18419.25522881 0 723
0.02750000 0.02749970 60631.60781391 0 2037.11953711 0 11350.24017159 0 -8739.60742585 0 -23202.27810397 0 826
0.02850000 0.02848090 59441.33289591 0 3732.33675614 0 19735.64392650 0 -6687.94992626 0 -16048.11686890 0 831
0.02950000 0.02946900 58000.04837427 0 2483.42280590 0 19731.43644307 0 2845.95286511 0 -14534.19789644 0 996
0.03050000 0.03053250 56081.76809944 0 -1069.44595896 0 20340.08213835 0 8912.14746350 0 -11802.10174744 0 1041
0.03150000 0.03150510 58399.20568398 0 -4303.95659723 0 14289.49951795 0 12905.23746913 0 -5338.10066297 0 1036
0.03250000 0.03246190 59511.19926552 0 1197.53836309 0 11192.68098943 0 3908.03240637 0 -12626.32560694 0 1059
0.03350000 0.03345080 59412.54485138 0 3758.42315342 0 9934.33341844 0 -2014.04481219 0 -946.79670971 0 1302
0.03450000 0.03451200 53388.20364080 0 3122.56168373 0 13018.61807527 0 -2254.55785190 0 3871.92555513 0 1339
0.03550000 0.03553350 52428.56524877 0 3379.12959443 0 14977.20161244 0 976.43289432 0 3350.18653735 0 1365
0.03650000 0.03647120 47835.54346750 0 2000.97946890 0 16768.70376810 0 4983.14407393 0 -2384.64659619 0 1308
0.03750000 0.03744890 46672.61719180 0 2217.08910471 0 14749.33316767 0 3592.89189738 0 -3937.66194758 0 1579
0.03850000 0.03847530 45502.27245847 0 890.45961380 0 15686.60546357 0 -1688.15307580 0 -623.46821652 0 1662
0.03950000 0.03950240 45160.91268431 0 2868.33003357 0 15298.74192517 0 -2494.76086651 0 -3085.29223839 0 1683
0.04050000 0.04050350 43919.48362564 0 1889.50330263 0 19939.59614966 0 -3574.98794815 0 1482.62858252 0 1822
0.04150000 0.04152450 42751.46408052 0 1426.03793037 0 18115.31991254 0 -3032.58797225 0 5013.79226903 0 1887
0.04250000 0.04250150 42999.70560296 0 -259.46110917 0 22438.61986123 0 3027.53899214 0 1243.00132879 0 1920
0.04350000 0.04349210 43413.81055117 0 -1441.63883604 0 20607.81095246 0 4791.89180734 0 -1680.07027868 0 2005
0.04450000 0.04448520 43196.46081498 0 1810.36939715 0 19759.44942486 0 3546.56529034 0 -1285.10938008 0 2151
0.04550000 0.04548030 41910.29956405 0 1100.54258321 0 17646.73912621 0 3265.12893810 0 943.33992990 0 2274
0.04650000 0.04648670 39643.68395043 0 1631.52920668 0 14773.80300552 0 5446.17762552 0 94.11786121 0 2311
0.04750000 0.04749250 39513.14124081 0 130.47406120 0 14412.62376994 0 3062.90399761 0 5545.50745147 0 2568
0.04850000 0.04851840 38437.46488468 0 754.01203336 0 10986.59180758 0 4906.08069319 0 -555.83956376 0 2493
0.04950000 0.04949480 38204.06027751 0 79.44614504 0 10103.68462654 0 4666.48665644 0 2117.95858061 0 2644
0.05050000 0.05050630 36922.54940300 0 890.83939454 0 6694.84798462 0 167.89630462 0 3424.59256013 0 2829
0.05150000 0.05149060 37579.69188098 0 -380.55912571 0 7018.06021840 0 2263.19426526 0 5184.99255537 0 2784
0.05250000 0.05249300 36677.18668501 0 -611.71605095 0 5821.18619480 0 2328.60956028 0 5199.98448318 0 3055
0.05350000 0.05348950 38481.75418396 0 -1318.94640472 0 7502.72909269 0 1442.19245228 0 5423.84474636 0 3009
0.05450000 0.05448610 38088.24375990 0 1166.17046687 0 6562.68871558 0 -1713.95159263 0 959.67493070 0 3336
0.05550000 0.05550870 36522.72775379 0 2770.02993383 0 9240.61905157 0 -2322.68586651 0 1870.40354231 0 3349
0.05650000 0.05647670 34417.76808252 0 3408.80342494 0 9939.30489228 0 -3265.11786577 0 3070.56604638 0 3324
0.05750000 0.05747970 33441.96409625 0 933.21539608 0 11423.09606890 0 -1887.41063324 0 3251.76464204 0 3639
0.05850000 0.05849280 32856.90245284 0 -942.77413410 0 11368.06661455 0 1471.81092117 0 763.08912525 0 3846
0.05950000 0.05951020 34149.59637541 0 -121.05704894 0 13388.98734045 0 -1555.75021562 0 -2075.73980608 0 3787
0.06050000 0.06049470 34005.98832252 0 905.65195068 0 14694.74660631 0 691.79331851 0 -81.33464076 0 3930
0.06150000 0.06148310 32917.24662310 0 375.70834021 0 14782.21797238 0 784.08557480 0 2902.94212095 0 4083
0.06250000 0.06249100 33549.69781674 0 531.98423993 0 14370.88110537 0 996.67088962 0 2723.07220427 0 4303
0.06350000 0.06350600 33643.48040795 0 129.81747234 0 14681.57053978 0 2565.64589000 0 4055.28325413 0 4470
0.06450000 0.06451750 32296.97498676 0 480.75370023 0 13017.95373578 0 1655.03575227 0 5803.60334299 0 4479
0.06550000 0.06550280 32385.55358531 0 46.41197467 0 11894.66638293 0 1031.62511184 0 4949.56171276 0 4636
0.06650000 0.06648880 32171.19337682 0 844.10089701 0 11646.86775349 0 577.26229782 0 4158.94235908 0 4653
0.06750000 0.06749660 30984.68304925 0 1215.82984369 0 10631.83452039 0 1299.80235511 0 1571.26254269 0 5220
0.06850000 0.06852730 29796.06897997 0 536.59143429 0 10890.86048719 0 -949.36438183 0 1936.63818938 0 5029
0.06950000 0.06949320 29659.87938470 0 336.30304341 0 9857.62435209 0 1099.62911641 0 294.28689242 0 5040
0.07050000 0.07048030 29527.89727286 0 686.14643285 0 9760.04395347 0 140.92965752 0 485.48933356 0 5475
0.07150000 0.07148790 29719.22704573 0 -5.78466967 0 11797.34064777 0 16.56475154 0 1055.87903936 0 5509
0.07250000 0.07249820 28765.45698585 0 965.83778670 0 11725.59198295 0 -111.15617609 0 3847.34499403 0 5916
0.07350000 0.07351270 28783.94776830 0 920.18880594 0 13369.50004877 0 -944.30211493 0 3282.95538105 0 5721
0.07450000 0.07449140 27777.14127254 0 541.77549677 0 12112.79118185 0 1600.48240789 0 5224.26609151 0 6028
0.07550000 0.07549160 27768.83702892 0 -28.24417193 0 13172.63411350 0 1456.29859410 0 3841.34379398 0 6183
0.07650000 0.07648840 27259.06719427 0 248.61133808 0 12221.07851858 0 1761.99441002 0 2451.20234068 0 6330
0.07750000 0.07749960 26863.78519825 0 809.62278476 0 10395.87220618 0 1278.05630917 0 -350.21984848 0 6583
0.07850000 0.07848650 25754.67042116 0 779.39755247 0 9170.55338012 0 1546.07300373 0 207.55847935 0 6549
0.07950000 0.07947320 25076.71197252 0 618.06824370 0 7526.29099990 0 -1029.63098614 0 -2524.88866234 0 6828
0.08050000 0.08048110 24466.07325877 0 491.53150121 0 7377.75576246 0 224.35187441 0 -1682.06329715 0 7147
0.08150000 0.08149960 23983.43061993 0 595.40651650 0 7328.98217163 0 -593.19426600 0 -3030.22956707 0 7386
0.08250000 0.08250610 23480.63634991 0 489.32035794 0 7749.19904315 0 7.60236894 0 -2105.07039452 0 7227
0.08350000 0.08350160 23386.07869596 0 540.64611964 0 8263.23172286 0 482.07019965 0 -1615.82865008 0 7798
0.08450000 0.08449610 22915.17272142 0 917.29228576 0 8235.91629753 0 417.18969791 0 -1450.79564866 0 7371
0.08550000 0.08548940 22456.88919718 0 358.38900973 0 8859.02244902 0 750.32937813 0 107.69817832 0 8256
0.08650000 0.08650700 21714.93271108 0 538.51026818 0 9410.65674381 0 438.01009750 0 479.77490672 0 8037
0.08750000 0.08749060 21424.06273810 0 916.60580162 0 9161.80624351 0 294.57366564 0 1695.58260575 0 8155
0.08850000 0.08849210 20917.61460089 0 317.54541794 0 8554.50029954 0 1393.85068212 0 2144.21106275 0 8718
0.08950000 0.08949900 20884.95124268 0 156.76418925 0 8967.14370088 0 673.34571813 0 1777.92748543 0 8571
0.09050000 0.09049190 20468.07821325 0 188.33581624 0 8310.32232031 0 748.69731745 0 615.39095556 0 8932
0.09150000 0.09150830 20417.25624234 0 283.28432325 0 7787.27676820 0 767.12720211 0 1877.09122651 0 9285
0.09250000 0.09250820 20163.70000399 0 -227.73336240 0 7137.09878253 0 1037.39047137 0 144.28567918 0 9204
0.09350000 0.09350330 20130.81519928 0 130.86491426 0 6295.22563727 0 -125.96208883 0 434.61200101 0 9349
0.09450000 0.09448040 20051.42663033 0 461.42917172 0 6173.28612404 0 765.38663265 0 -1006.44664520 0 9564
0.09550000 0.09549270 19562.25131984 0 426.83037113 0 5633.10061311 0 -947.66699444 0 -1023.86784107 0 10155
0.09650000 0.09649430 19081.82314596 0 501.69257370 0 5590.61610278 0 -440.13709110 0 -1461.91226278 0 9913
0.09750000 0.09749140 18962.24203792 0 541.74117256 0 6676.29076822 0 -728.02528701 0 -1404.48011395 0 10476
0.09850000 0.09850240 18366.32951618 0 448.15566873 0 6633.44087118 0 -399.23703045 0 -521.49099770 0 10575
0.09950000 0.09950330 18246.30551514 0 351.86741041 0 7396.05831538 0 549.53055307 0 -366.23596633 0 10882
0.10050000 0.10051200 17691.91421147 0 247.31919778 0 7485.02444530 0 700.23596618 0 411.57049307 0 10875
0.10150000 0.10150300 17527.04729492 0 535.17528395 0 7415.56775172 0 1427.66556212 0 922.29254765 0 11118
0.10250000 0.10250800 16996.46148961 0 402.30849336 0 7242.72876130 0 1547.76706942 0 1183.24399174 0 11575
0.10350000 0.10349800 16593.31814297 0 120.08379159 0 6610.14469976 0 1133.48496401 0 1822.41608655 0 11364
0.10450000 0.10450100 16302.44816998 0 10.94830371 0 5473.47090620 0 658.40029409 0 928.61263066 0 12093
0.10550000 0.10551000 16504.73954442 0 -69.51116943 0 5351.03313836 0 134.38812802 0 184.45828808 0 12067
0.10650000 0.10649700 16016.11785017 0 370.66932519 0 4555.22086434 0 -731.72565797 0 -740.82821620 0 12054
0.10750000 0.10749900 16102.48198376 0 206.85649396 0 4872.74192316 0 -690.95735798 0 -788.72155720 0 12807
0.10850000 0.10850100 15840.73222504 0 474.54434047 0 4970.21159854 0 -751.04132861 0 -1527.01753271 0 12736
0.10950000 0.10950300 15643.75556652 0 415.91416609 0 5328.19093225 0 -256.05526206 0 -1641.01818905 0 12933
0.11050000 0.11050200 15029.24153909 0 486.72611224 0 5595.43256408 0 66.40427508 0 -1168.90533110 0 13428
0.11150000 0.11150900 15097.88995296 0 311.45896099 0 5354.31054650 0 522.64251948 0 -60.56561676 0 13453
0.11250000 0.11250000 14850.64493976 0 30.75725750 0 5768.55943494 0 1281.79875496 0 518.78049259 0 13668
0.11350000 0.11349100 14875.33622411 0 29.20259237 0 5594.81251389 0 779.02773682 0 284.99278297 0 13791
0.11450000 0.11448600 14627.09470167 0 179.65732804 0 5050.07627746 0 1090.99934645 0 1576.76548812 0 14205
0.11550000 0.11549300 14497.43777805 0 175.71336594 0 4780.74197625 0 673.44979798 0 1641.76003481 0 14776
0.11650000 0.11649800 14346.18982102 0 -31.84035231 0 4341.99003298 0 490.37444327 0 1742.04208069 0 14553
0.11750000 0.11747300 14366.34145219 0 189.82172223 0 3956.72849092 0 590.21802509 0 1354.94253271 0 14568
0.11850000 0.11849100 13893.99607543 0 414.35739722 0 4093.82601682 0 -198.87445500 0 1254.72692077 0 16015
0.11950000 0.11950300 13795.34166130 0 356.28637525 0 3961.66674779 0 -268.65888940 0 1149.01943573 0 15270
0.12050000 0.12050700 13413.12500856 0 62.50017335 0 4063.74251029 0 -306.04902308 0 849.22516894 0 15999
0.12150000 0.12150000 13479.00534123 0 83.80587294 0 4194.39594315 0 -136.52176501 0 1284.03536457 0 15670
0.12250000 0.12250700 13448.11355498 0 10.31450169 0 4184.23154897 0 266.57618510 0 503.22609068 0 16887
0.12350000 0.12352200 13612.86974828 0 -30.14628661 0 4124.19740380 0 192.40489561 0 693.88155897 0 16407
0.12450000 0.12449800 13573.89516492 0 -1.32836895 0 4106.39310549 0 512.67853438 0 638.89639392 0 16306
0.12550000 0.12549900 13529.38441915 0 -72.35232797 0 3489.43209427 0 107.28540205 0 120.86992665 0 17523
0.12650000 0.12650100 13573.56299518 0 30.19843726 0 3568.10096211 0 105.04314555 0 2.17524679 0 17154
0.12750000 0.12750600 13618.84880369 0 210.29445082 0 3487.76017322 0 -37.82948353 0 -711.46883971 0 18007
0.12850000 0.12850300 13226.11344237 0 481.47450858 0 3304.87858419 0 44.87247862 0 -356.30409097 0 17496
0.12950000 0.12949900 12856.62996317 0 467.33514978 0 3433.64972184 0 -173.13240703 0 -636.82365471 0 18405
0.13050000 0.13049000 12611.48869169 0 288.09857008 0 3276.89881938 0 67.08821259 0 171.26229136 0 18100
0.13150000 0.13148800 12211.77776573 0 324.38479298 0 3560.21746684 0 425.20052492 0 -217.39513272 0 19059
0.13250000 0.13249300 12031.96321068 0 152.07616692 0 3284.80445930 0 542.95802106 0 194.77215865 0 18957
0.13350000 0.13349100 11889.13022052 0 166.66395487 0 3100.54990199 0 392.94462826 0 216.96663375 0 19468
0.13450000 0.13450700 11788.48278792 0 172.08385787 0 3153.12130023 0 88.54516013 0 -6.79487537 0 19953
0.13550000 0.13551000 11591.50612939 0 67.14379566 0 3111.67758843 0 -133.92751931 0 601.07997573 0 19956
0.13650000 0.13649900 11802.87681018 0 43.32866437 0 3233.90498211 0 29.09430503 0 846.65971128 0 19723
0.13750000 0.13749600 11700.23635911 0 -17.60377851 0 3261.77402368 0 178.81693859 0 1513.19927134 0 20946
0.13850000 0.13851100 11741.09323769 0 -83.90342012 0 3188.37558245 0 811.93911511 0 734.93995386 0 20955
0.13950000 0.13949800 11704.88673554 0 187.90621003 0 3276.99847030 0 95.91888556 0 904.62665340 0 20506
0.14050000 0.14048300 11427.41427558 0 312.37353502 0 2963.38594214 0 132.00204202 0 698.09790026 0 21447
0.14150000 0.14148400 11258.11842910 0 201.90605753 0 2899.10002424 0 50.40620512 0 1274.90069659 0 21771
0.14250000 0.14249400 11148.72385989 0 -59.88444734 0 2849.96104670 0 -166.62963066 0 552.35842483 0 22470
0.14350000 0.14350900 11359.54092444 0 -308.86139358 0 2918.95270264 0 69.18763609 0 297.36499872 0 22519
0.14450000 0.14449900 11389.76837120 0 28.78881959 0 2906.13095050 0 -192.27313494 0 -333.28804937 0 22218
0.14550000 0.14550500 11473.91803982 0 333.24043837 0 2900.18511207 0 -383.17219437 0 84.06607257 0 23559
0.14650000 0.14650700 11032.58624487 0 340.37876618 0 2793.23752665 0 3.13350114 0 515.45658068 0 23044
0.14750000 0.14750500 10982.81614481 0 308.48936347 0 3081.91517932 0 297.25759717 0 496.25827667 0 23649
0.14850000 0.14849900 10868.60511431 0 53.65870054 0 3000.12391589 0 184.34092144 0 384.71899815 0 23640
0.14950000 0.14949500 10511.94338725 0 280.53949393 0 3183.44839791 0 174.13334519 0 557.61777912 0 24457
0.15050000 0.15050000 10442.50883831 0 310.76140452 0 3131.50812218 0 -51.36152531 0 1134.64755812 0 24591
0.15150000 0.15149900 10298.19215663 0 142.05349849 0 3171.53457640 0 350.92294110 0 1264.52592824 0 25020
0.15250000 0.15250500 10102.66597265 0 83.56405336 0 2861.35446893 0 265.91516731 0 983.08957600 0 25297
0.15350000 0.15350100 9881.13089768 0 251.71491073 0 2833.29719784 0 288.63557784 0 1009.05196323 0 25452
0.15450000 0.15450400 9770.57373437 0 241.23495529 0 2855.44184748 0 284.05163536 0 805.38651329 0 26061
0.15550000 0.15549900 9371.88146230 0 243.78712616 0 2573.10863693 0 508.69692638 0 1219.51692785 0 26128
0.15650000 0.15649500 9146.74788176 0 225.05275257 0 2379.24330168 0 196.87590037 0 848.82213632 0 26331
0.15750000 0.15749700 9119.27744389 0 43.38457961 0 2323.29484437 0 143.74645696 0 1239.45818485 0 27345
0.15850000 0.15849900 9165.00614539 0 -121.74796201 0 2206.45967289 0 -2.33415680 0 630.65969149 0 26980
0.15950000 0.15949700 9195.04536262 0 69.09341061 0 2284.58599681 0 -344.53310245 0 785.22823872 0 27777
0.16050000 0.16050000 9065.83133199 0 302.14381412 0 2547.47620497 0 -640.07891821 0 388.14366822 0 28224
0.16150000 0.16150500 8968.54988613 0 300.80295558 0 2799.47124552 0 -334.39085292 0 815.32392481 0 28075
0.16250000 0.16249700 8879.97128758 0 -28.86765454 0 3047.08164544 0 15.89653674 0 961.64359006 0 28590
0.16350000 0.16349900 9026.69066375 0 -181.94819205 0 2910.51559113 0 462.77003026 0 672.28941834 0 29163
0.16450000 0.16449100 9162.64774020 0 -38.38763942 0 2843.91555734 0 308.63441092 0 491.76623450 0 28996
0.16550000 0.16550500 9033.28976934 0 143.79628242 0 2750.42084658 0 327.33667478 0 834.85772026 0 30777
0.16650000 0.16650700 8950.65700922 0 149.76647996 0 2457.83466324 0 237.58994596 0 1076.27204721 0 29211
0.16750000 0.16749900 8770.17811468 0 147.33942636 0 2313.66192178 0 340.52602810 0 1276.00792908 0 30922
0.16850000 0.16850800 8759.91406957 0 9.34953751 0 2046.67495343 0 448.94733996 0 1208.30066281 0 30867
0.16950000 0.16949900 8619.05195323 0 50.15884938 0 1972.65646201 0 149.76869443 0 979.91624770 0 30852
0.17050000 0.17049200 8569.20434689 0 243.63100638 0 1958.09635488 0 -5.61741113 0 829.52307416 0 31257
0.17150000 0.17149500 8327.56193005 0 224.27215367 0 1999.03073973 0 -79.02606104 0 867.47014578 0 32608
0.17250000 0.17250900 8190.11008975 0 126.57660286 0 1883.02599261 0 -223.32657713 0 573.54974730 0 32361
0.17350000 0.17350400 8199.58799980 0 37.32104237 0 1924.15967931 0 31.78377273 0 803.26837755 0 32508
0.17450000 0.17449800 8153.68214110 0 43.17675208 0 1936.74891263 0 -28.05273144 0 179.08378162 0 32791
0.17550000 0.17549800 8075.23471976 0 72.29652346 0 1895.10589899 0 -14.65001441 0 90.26214554 0 33633
0.17650000 0.17650100 8008.87827712 0 106.71008406 0 1904.34021788 0 -65.35052193 0 -106.53303758 0 33984
0.17750000 0.17750300 7931.42736502 0 170.48058523 0 1708.98011878 0 -74.67087279 0 -154.97490156 0 34069
0.17850000 0.17849800 7831.24497006 0 128.87521749 0 1893.76614768 0 -56.57725464 0 -32.52561849 0 34536
