### header ###
fiducial parameters:
Omega_m = 0.31
Omega_nu = 0
Omega_de = 0.69
Omega_k = 0
H_0 = 100
w_de = -1
zeff = 0
beta = 0
fgrowth = 0
b_1 = 2
gamma = 0.55
Lx = 3500 Ly = 3500 Lz = 3500
nx = 700 ny = 700 nz = 700
xoffset = -685.467585 yoffset = -31.7331281 zoffset = 572.489161
bins = 400 dk = 0.001
kx_ny = 0.628318531 ky_ny = 0.628318531 kz_ny = 0.628318531
############################
A(data) = 8.1060897 (not used)
A(ran) = 8.11122582 (used)
Ngal = 481539
weighted Ngal = 0
Nran = 23820508
weighted Nran = 0
SN(data) = 3483.39108
SN(ran) = 70.6517185
SN(data+ran) = 3554.0428
############################
13 columns: k_central k_mean P_0(k) sigma^{lin}_{P_0(k)} P^img_1(k) sigma^{lin}_{P_1(k)} P_2(k) sigma^{lin}_{P_2(k)} P^img_3(k) sigma^{lin}_{P_3(k)} P_4(k) sigma^{lin}_{P_4(k)} N_modes
### header ###
0.00050000 0 0 0 0 0 0 0 0 0 0 0 0
0.00150000 0.00179520 14653.55755799 0 -17742.51473590 0 3894.93384610 0 -44930.27615834 0 -8746.63835211 0 3
0.00250000 0.00253879 23541.09124342 0 -10232.88758485 0 -218.84228558 0 23651.26087537 0 -3128.23071404 0 6
0.00350000 0.00331552 34509.00403903 0 -5897.27521096 0 4675.07878050 0 -18119.19522623 0 -5925.38784367 0 7
0.00450000 0.00420575 40110.93605777 0 -2886.18969350 0 -8209.22092239 0 -3264.01063329 0 -6929.38196893 0 24
0.00550000 0.00557378 43294.00799664 0 -1283.83606272 0 661.66330821 0 -1513.69752596 0 -9131.94418348 0 45
0.00650000 0.00659388 44170.93612227 0 -7355.31216005 0 -14518.25374871 0 17193.88104113 0 18232.35438587 0 40
0.00750000 0.00754703 52303.22653183 0 -8009.77513543 0 -8167.37860690 0 11613.98294877 0 1228.89518697 0 57
0.00850000 0.00846663 63885.09973863 0 -25048.47754423 0 -27074.38081630 0 12471.64522923 0 -23301.92902734 0 75
0.00950000 0.00948925 69325.59726152 0 -9112.27973460 0 -6642.44267125 0 -18344.29558979 0 -18612.24585040 0 112
0.01050000 0.01054430 84602.52670679 0 5273.74831112 0 -14181.76579747 0 -28636.68584821 0 -13836.86287937 0 105
0.01150000 0.01145670 78501.56500847 0 4621.74339185 0 14013.46646022 0 -32415.33813907 0 15467.59487866 0 144
0.01250000 0.01249090 74280.35189461 0 12632.63683209 0 23112.03865670 0 -12321.17233494 0 22652.75862322 0 169
0.01350000 0.01339930 74219.67555461 0 5607.11386676 0 43407.27787953 0 12811.78704766 0 13553.30064076 0 180
0.01450000 0.01448870 80937.14429883 0 -8830.02403032 0 36014.39732137 0 16849.97463226 0 24877.41012578 0 267
0.01550000 0.01550050 82221.75542429 0 -2105.23647939 0 42599.55178401 0 19240.15739087 0 1760.01246387 0 238
0.01650000 0.01653350 86149.44120721 0 6388.34388899 0 41278.73415640 0 213.09353453 0 5237.86290638 0 315
0.01750000 0.01747870 76888.99162188 0 7244.23459747 0 36813.48700353 0 6285.98024604 0 20094.94086686 0 297
0.01850000 0.01844180 75123.62015280 0 817.44870394 0 38151.46673462 0 9376.28824758 0 12028.08789699 0 388
0.01950000 0.01947590 75866.35170163 0 -6846.52776231 0 25662.88084842 0 24795.36419888 0 -208.85394136 0 399
0.02050000 0.02045430 82373.99989055 0 -13482.76993167 0 25110.48256322 0 19941.14627513 0 -5269.02042842 0 462
0.02150000 0.02154770 82632.31722856 0 2388.32260803 0 12050.34326988 0 10798.67231075 0 -10139.48145268 0 571
0.02250000 0.02255340 81408.16099662 0 7506.26116430 0 9216.70282996 0 -1228.20870283 0 5332.74165775 0 510
0.02350000 0.02348930 78100.63612679 0 4223.91476112 0 9692.11524070 0 -7703.72500512 0 9249.69835792 0 555
0.02450000 0.02439640 74813.48433463 0 2623.49878718 0 8580.19916544 0 -7236.86042914 0 4858.65792600 0 592
0.02550000 0.02547300 73148.20668191 0 4260.08804630 0 15187.13289100 0 -5389.47625013 0 5273.72616647 0 837
0.02650000 0.02652900 70091.24852272 0 6615.04973965 0 18418.48016607 0 -6552.84541882 0 4642.86938760 0 723
0.02750000 0.02749970 63210.90588042 0 6415.53751874 0 27246.66619048 0 -955.99006100 0 6493.79671056 0 826
0.02850000 0.02848090 59688.57790911 0 2744.92897347 0 24905.53383082 0 7481.96848365 0 12842.12521766 0 831
0.02950000 0.02946900 59079.71076733 0 2202.03074296 0 30110.63372807 0 6905.03392665 0 8210.85962646 0 996
0.03050000 0.03053250 59882.01142369 0 1240.43254943 0 32406.59100246 0 4205.61220819 0 13003.11682052 0 1041
0.03150000 0.03150510 57195.20108320 0 444.14305822 0 32729.12782443 0 3246.21740731 0 12237.13338957 0 1036
0.03250000 0.03246190 57757.89663048 0 1297.86469827 0 27172.14944445 0 1464.55854841 0 15547.42634060 0 1059
0.03350000 0.03345080 55247.80059410 0 874.74355595 0 31024.76486510 0 3180.21527906 0 16253.50849428 0 1302
0.03450000 0.03451200 56464.42764517 0 2413.40142375 0 30974.38578717 0 -1872.04224639 0 3452.61661425 0 1339
0.03550000 0.03553350 52849.53503838 0 3117.43519734 0 29710.81207887 0 779.53595653 0 4735.45616774 0 1365
0.03650000 0.03647120 50366.45547455 0 3023.01041129 0 28016.52493512 0 -6789.52743414 0 -4246.33621887 0 1308
0.03750000 0.03744890 49964.19791389 0 -934.56621971 0 26198.11703015 0 -3227.91485438 0 -5583.02048796 0 1579
0.03850000 0.03847530 51716.06114669 0 -2906.18631212 0 29284.41685010 0 836.88174123 0 -9581.28126927 0 1662
0.03950000 0.03950240 53170.41101162 0 -665.56630271 0 25659.78059747 0 4659.07927114 0 -12842.45738740 0 1683
0.04050000 0.04050350 55072.19352247 0 1249.89938715 0 25614.71623546 0 1611.53258805 0 -9231.98263821 0 1822
0.04150000 0.04152450 50980.30516249 0 1982.69906063 0 22423.78294597 0 6878.20568362 0 -3260.99896094 0 1887
0.04250000 0.04250150 52593.21071883 0 1546.03978675 0 24675.34019784 0 7090.16319762 0 -2067.75665988 0 1920
0.04350000 0.04349210 48306.56016529 0 545.81689533 0 20259.25416717 0 7560.65949614 0 -1420.64570818 0 2005
0.04450000 0.04448520 49240.28931724 0 2028.02915843 0 21676.06885097 0 6642.64197310 0 -494.71479459 0 2151
0.04550000 0.04548030 45176.19249256 0 2269.33940553 0 14016.56671117 0 3332.49296229 0 3244.03615932 0 2274
0.04650000 0.04648670 44885.76541257 0 1120.87358604 0 15976.70037382 0 -1447.08641985 0 1992.89667178 0 2311
0.04750000 0.04749250 43487.77368096 0 699.59598581 0 13130.89144893 0 1078.73342501 0 2035.70227953 0 2568
0.04850000 0.04851840 42122.44530758 0 1379.00269454 0 13679.63586694 0 -485.69638603 0 -584.75383279 0 2493
0.04950000 0.04949480 40796.97730354 0 1711.57104279 0 13759.79949863 0 -883.93469278 0 1806.36121556 0 2644
0.05050000 0.05050630 39910.30553206 0 1355.64008917 0 15246.81272177 0 1326.94062324 0 878.37417126 0 2829
0.05150000 0.05149060 38188.78046926 0 55.01860347 0 12266.47505034 0 477.92361401 0 4034.93232111 0 2784
0.05250000 0.05249300 39084.19937734 0 1363.98862208 0 16444.72754390 0 292.56071699 0 2396.43862212 0 3055
0.05350000 0.05348950 36427.72720685 0 2136.91440070 0 13925.22003142 0 1044.41586147 0 700.65339283 0 3009
0.05450000 0.05448610 36269.39296194 0 2052.79794905 0 15608.21340385 0 -548.03357476 0 -1846.05550004 0 3336
0.05550000 0.05550870 34067.88261825 0 916.25702339 0 14245.32094193 0 -1842.86667049 0 -743.28516508 0 3349
0.05650000 0.05647670 33827.05955345 0 476.56393252 0 14504.85623567 0 3268.09632115 0 -1545.19829007 0 3324
0.05750000 0.05747970 32801.65155199 0 325.57174620 0 11244.83163932 0 3104.11519058 0 -1919.63109846 0 3639
0.05850000 0.05849280 32755.03706451 0 -0.34709745 0 12181.66104223 0 3659.82410091 0 631.01511311 0 3846
0.05950000 0.05951020 32378.79946717 0 790.64149833 0 11508.24224676 0 3399.61339534 0 1310.99647550 0 3787
0.06050000 0.06049470 31548.92872201 0 1697.52026260 0 11788.59351116 0 -562.70994131 0 3696.73923185 0 3930
0.06150000 0.06148310 30858.90143931 0 231.27982804 0 10826.26454420 0 746.24811920 0 4035.62987758 0 4083
0.06250000 0.06249100 31251.74752388 0 -941.48088656 0 12432.44919937 0 -633.49974280 0 6327.77827223 0 4303
0.06350000 0.06350600 32806.41265166 0 -503.94136287 0 14419.37788807 0 -501.78115229 0 4052.85841499 0 4470
0.06450000 0.06451750 32889.23364131 0 217.59664903 0 12044.03204473 0 -787.20021977 0 2717.36995699 0 4479
0.06550000 0.06550280 32383.11767385 0 609.93783559 0 12362.02921352 0 -259.14444068 0 4476.64057510 0 4636
0.06650000 0.06648880 31936.12792092 0 1016.00981215 0 11605.56798191 0 899.10267055 0 927.53197176 0 4653
0.06750000 0.06749660 30463.84088978 0 924.77939181 0 12877.66738033 0 1506.25692368 0 506.12814702 0 5220
0.06850000 0.06852730 29488.14762676 0 1666.63954868 0 11641.88520732 0 2435.46856711 0 380.94333539 0 5029
0.06950000 0.06949320 28200.10408061 0 1366.02592985 0 10482.45778626 0 1328.10321735 0 1948.70702343 0 5040
0.07050000 0.07048030 27656.12076227 0 -318.01599174 0 10093.83025745 0 1096.53550886 0 955.40544225 0 5475
0.07150000 0.07148790 27995.15534822 0 -548.98358023 0 10047.09397439 0 385.88823565 0 1332.93075097 0 5509
0.07250000 0.07249820 28689.39011435 0 -758.04457406 0 9430.84159196 0 232.54207307 0 -2945.38234198 0 5916
0.07350000 0.07351270 29222.52255436 0 -38.90549205 0 10409.33615316 0 -1700.38799472 0 -1779.27830906 0 5721
0.07450000 0.07449140 29101.39132085 0 618.60525146 0 9725.74189118 0 -748.33857412 0 -404.88834504 0 6028
0.07550000 0.07549160 28537.25637134 0 733.64781355 0 10718.50867907 0 -473.82906829 0 -376.17448509 0 6183
0.07650000 0.07648840 28196.11804368 0 776.19986506 0 10232.35611325 0 1827.93010431 0 -762.42035683 0 6330
0.07750000 0.07749960 27103.61175382 0 546.02284057 0 10345.81422567 0 1314.45104085 0 564.88676037 0 6583
0.07850000 0.07848650 26587.19852428 0 1195.87751436 0 10299.22188283 0 1927.11599004 0 1398.37926297 0 6549
0.07950000 0.07947320 25590.57856735 0 857.94019581 0 8806.22960429 0 838.06537276 0 2082.64893676 0 6828
0.08050000 0.08048110 24965.43510809 0 331.16880640 0 9285.74984753 0 1050.43034831 0 2933.82283487 0 7147
0.08150000 0.08149960 24851.50088571 0 536.85495562 0 9630.20987264 0 -851.39645184 0 1267.42687734 0 7386
0.08250000 0.08250610 24190.92598703 0 804.03347519 0 10064.12320996 0 -961.86835825 0 1688.57382414 0 7227
0.08350000 0.08350160 23628.45188624 0 461.22322648 0 9521.85610197 0 -419.52485122 0 2128.01225155 0 7798
0.08450000 0.08449610 23400.80488797 0 106.86653601 0 9477.87682779 0 840.96632186 0 48.70815339 0 7371
0.08550000 0.08548940 23000.20817603 0 377.29943329 0 9987.12626317 0 1297.62110712 0 88.14389908 0 8256
0.08650000 0.08650700 22811.97865411 0 776.67043887 0 8688.84081656 0 649.94768132 0 -952.88538113 0 8037
0.08750000 0.08749060 21660.23542648 0 816.00598002 0 8758.13142528 0 445.75186701 0 913.85765060 0 8155
0.08850000 0.08849210 21192.76187263 0 514.50878967 0 8559.30568851 0 517.32337464 0 234.17413375 0 8718
0.08950000 0.08949900 20362.89112748 0 403.59399027 0 7745.12442762 0 910.30121987 0 -554.47766780 0 8571
0.09050000 0.09049190 20223.37983476 0 467.52227207 0 6818.43727425 0 901.92389891 0 -443.63816021 0 8932
0.09150000 0.09150830 19617.83439043 0 259.40906925 0 5797.75715549 0 760.66760781 0 -930.26572875 0 9285
0.09250000 0.09250820 19659.24488525 0 -134.11353437 0 5822.19377636 0 1076.54774809 0 -1660.48333608 0 9204
0.09350000 0.09350330 19710.84191891 0 -99.10151461 0 5284.30023667 0 257.15806561 0 -2327.33624293 0 9349
0.09450000 0.09448040 19277.24967901 0 730.45898401 0 4829.74808589 0 93.57011330 0 -313.97791488 0 9564
0.09550000 0.09549270 19043.62362533 0 400.81262227 0 4945.46495257 0 322.85127599 0 -255.38760087 0 10155
0.09650000 0.09649430 18767.14767461 0 -177.00439902 0 4605.25670020 0 806.67422466 0 719.72657956 0 9913
0.09750000 0.09749140 19128.76980319 0 185.19238322 0 5622.64833848 0 271.94736987 0 174.68142527 0 10476
0.09850000 0.09850240 18783.53471534 0 318.45002688 0 5939.28361132 0 237.10276367 0 2080.68913527 0 10575
0.09950000 0.09950330 18495.98643980 0 819.03647532 0 6168.91255573 0 184.76499148 0 2269.06259741 0 10882
0.10050000 0.10051200 17684.38503060 0 399.42636721 0 5999.30668416 0 262.92453238 0 2968.71173038 0 10875
0.10150000 0.10150300 17839.50830131 0 449.40462697 0 6218.05153328 0 144.80386398 0 2530.13694431 0 11118
0.10250000 0.10250800 17478.66123547 0 287.39437023 0 5864.09145348 0 -70.97891680 0 1309.62350722 0 11575
0.10350000 0.10349800 16908.21506081 0 597.64534057 0 6891.59212432 0 -360.22258672 0 1919.88576193 0 11364
0.10450000 0.10450100 16359.80281254 0 649.35088301 0 6125.80799522 0 -679.52296814 0 1020.62032820 0 12093
0.10550000 0.10551000 16240.88604399 0 342.68402421 0 6218.48335395 0 -676.34410369 0 343.64842370 0 12067
0.10650000 0.10649700 16012.57470623 0 140.50226579 0 6386.72732957 0 -520.15899703 0 -321.29782882 0 12054
0.10750000 0.10749900 15747.83541982 0 158.38517760 0 6894.42663948 0 343.57645359 0 -571.18137702 0 12807
0.10850000 0.10850100 15617.07126371 0 229.65773246 0 6421.08475348 0 344.88741685 0 -803.14436751 0 12736
0.10950000 0.10950300 15653.38848911 0 -140.04165707 0 6324.78874453 0 996.06191176 0 -411.23278716 0 12933
0.11050000 0.11050200 15722.14762624 0 -146.71716171 0 6046.70730671 0 655.32661672 0 -245.74692765 0 13428
0.11150000 0.11150900 15712.84687339 0 488.20758930 0 5890.12248913 0 1064.58077943 0 -333.10867770 0 13453
0.11250000 0.11250000 15420.75894467 0 46.45094925 0 5276.74891115 0 358.63924427 0 208.43651471 0 13668
0.11350000 0.11349100 15075.96674982 0 43.93786368 0 4675.56596279 0 429.47554953 0 417.84185784 0 13791
0.11450000 0.11448600 15317.56487736 0 185.97630382 0 4904.41984447 0 167.05923686 0 285.26959109 0 14205
0.11550000 0.11549300 14969.89387806 0 82.86417171 0 4613.56094381 0 -9.06422584 0 -5.39576533 0 14776
0.11650000 0.11649800 14877.55068907 0 374.64761149 0 4669.86371551 0 77.38503177 0 -244.58876248 0 14553
0.11750000 0.11747300 14534.97295918 0 169.48629046 0 4988.44771752 0 -300.16408244 0 -97.52348688 0 14568
0.11850000 0.11849100 14669.94459872 0 112.28112429 0 4837.02260330 0 39.58621858 0 -390.71909097 0 16015
0.11950000 0.11950300 14648.90718157 0 -88.74224751 0 5259.15498701 0 -130.65786179 0 -206.52986038 0 15270
0.12050000 0.12050700 14661.30818536 0 129.47533750 0 5433.05692061 0 -302.78600896 0 -453.21793564 0 15999
0.12150000 0.12150000 14483.81881852 0 372.69888233 0 5595.23326223 0 299.46098981 0 -33.25727772 0 15670
0.12250000 0.12250700 14276.98779091 0 280.41991282 0 5515.86683793 0 684.71588848 0 344.87413006 0 16887
0.12350000 0.12352200 14096.06600337 0 21.14492943 0 4697.59988918 0 1073.47296349 0 981.21281694 0 16407
0.12450000 0.12449800 14104.59169348 0 21.95188046 0 4932.22245209 0 622.16611112 0 502.85959673 0 16306
0.12550000 0.12549900 14045.68692545 0 180.22976724 0 4698.49674749 0 44.67893438 0 311.15779375 0 17523
0.12650000 0.12650100 13710.63837643 0 506.68508496 0 4839.07098339 0 -448.95398335 0 685.15103085 0 17154
0.12750000 0.12750600 13391.75542166 0 286.33364151 0 4899.45944295 0 -510.35334617 0 721.64652068 0 18007
0.12850000 0.12850300 13196.99322810 0 285.30834423 0 4670.30660851 0 -68.66280790 0 428.65619749 0 17496
0.12950000 0.12949900 13153.14682181 0 237.35410544 0 4771.80661012 0 50.76439483 0 267.33906828 0 18405
0.13050000 0.13049000 12832.49229507 0 107.87478190 0 4045.97142896 0 694.02660642 0 -289.76274050 0 18100
0.13150000 0.13148800 12612.26375442 0 -53.05082990 0 4207.91525175 0 654.27363863 0 -495.51975261 0 19059
0.13250000 0.13249300 12717.67228670 0 -25.94467152 0 3498.63319620 0 426.52034604 0 -1021.42528622 0 18957
0.13350000 0.13349100 12693.42389534 0 112.32319912 0 3716.27081283 0 141.14556786 0 -1010.75820849 0 19468
0.13450000 0.13450700 12486.14997474 0 230.59666560 0 3448.20982897 0 -145.77379963 0 -816.50312740 0 19953
0.13550000 0.13551000 12424.69857200 0 143.24820234 0 3998.67045733 0 -253.36911606 0 -152.21457098 0 19956
0.13650000 0.13649900 12286.40523501 0 139.29870408 0 3909.93684623 0 272.82429800 0 0.39858708 0 19723
0.13750000 0.13749600 12260.27454844 0 236.34430942 0 4057.81881651 0 301.28681618 0 475.35926358 0 20946
0.13850000 0.13851100 12252.30247457 0 110.12622843 0 4194.71704057 0 134.65164935 0 479.45380930 0 20955
0.13950000 0.13949800 12004.17167538 0 262.84702610 0 3893.60516713 0 378.62257610 0 629.05531162 0 20506
0.14050000 0.14048300 11695.91815243 0 265.66271830 0 3945.95511887 0 309.67410223 0 762.81342436 0 21447
0.14150000 0.14148400 11489.64074106 0 239.01273970 0 3857.08863987 0 473.91321796 0 722.90544401 0 21771
0.14250000 0.14249400 11403.16588423 0 121.53094444 0 3530.83151677 0 436.47658051 0 817.79969664 0 22470
0.14350000 0.14350900 11223.90494541 0 30.93995086 0 3390.76660781 0 445.36876458 0 333.84388007 0 22519
0.14450000 0.14449900 11215.15780881 0 133.38497539 0 3266.97801634 0 11.04521977 0 222.78846214 0 22218
0.14550000 0.14550500 11075.97868584 0 112.93439145 0 3319.42761901 0 -375.37174154 0 431.91146099 0 23559
0.14650000 0.14650700 11071.77120241 0 132.77821199 0 3401.67284776 0 -414.53012549 0 764.87730570 0 23044
0.14750000 0.14750500 11024.37057986 0 -8.91492662 0 3653.84504550 0 -31.16604773 0 378.58714466 0 23649
0.14850000 0.14849900 10968.48855650 0 290.25103003 0 3752.30015779 0 -99.18843236 0 486.11602714 0 23640
0.14950000 0.14949500 10836.53966163 0 257.68067934 0 3667.69652385 0 168.16425488 0 230.53798228 0 24457
0.15050000 0.15050000 10601.88388175 0 231.98402790 0 3584.68730469 0 136.01133084 0 464.02784636 0 24591
0.15150000 0.15149900 10332.49421891 0 231.69504023 0 3401.48461824 0 225.43364054 0 496.03350848 0 25020
0.15250000 0.15250500 10254.41218429 0 103.78920477 0 3262.16155504 0 699.95583636 0 429.08358923 0 25297
0.15350000 0.15350100 10001.89674448 0 64.30872689 0 3192.39483636 0 217.66640468 0 373.00890742 0 25452
0.15450000 0.15450400 9928.94119625 0 290.55662619 0 2977.23742049 0 101.66719372 0 309.19024163 0 26061
0.15550000 0.15549900 9763.91926715 0 315.24237438 0 3205.48232430 0 -127.25201468 0 238.53441527 0 26128
0.15650000 0.15649500 9459.81786601 0 172.44149396 0 2943.69934861 0 -225.88096246 0 630.28433967 0 26331
0.15750000 0.15749700 9452.98624159 0 -20.58190171 0 2923.41484954 0 102.08971363 0 823.08230281 0 27345
0.15850000 0.15849900 9419.28208485 0 101.50830586 0 3115.03250285 0 -87.88082064 0 116.65026366 0 26980
0.15950000 0.15949700 9357.75317583 0 215.60584503 0 3260.85502072 0 -232.39702562 0 -8.47256510 0 27777
0.16050000 0.16050000 9063.31791425 0 337.14564733 0 3184.00201415 0 -220.23629127 0 157.72969597 0 28224
0.16150000 0.16150500 8974.31856736 0 108.43448792 0 3311.90951045 0 -66.71883983 0 244.32413391 0 28075
0.16250000 0.16249700 8924.95814332 0 -123.19068593 0 3521.12108790 0 203.02657680 0 -196.80946642 0 28590
0.16350000 0.16349900 8984.73762501 0 160.24864987 0 3295.41174647 0 246.73679349 0 -132.87011229 0 29163
0.16450000 0.16449100 8886.12750018 0 123.20507995 0 3118.29883868 0 56.42379221 0 -87.96231295 0 28996
0.16550000 0.16550500 8878.95263370 0 33.98317933 0 3254.35556605 0 254.11760522 0 232.16782849 0 30777
0.16650000 0.16650700 8635.16218584 0 141.43677000 0 2969.28749127 0 495.51421645 0 72.72502243 0 29211
0.16750000 0.16749900 8708.28381894 0 143.31685076 0 2751.56129603 0 260.25499486 0 -177.82264382 0 30922
0.16850000 0.16850800 8474.21487228 0 -41.21805782 0 2658.25481479 0 282.32213823 0 96.36033915 0 30867
0.16950000 0.16949900 8470.07382279 0 83.38368519 0 2581.57896542 0 9.47732321 0 102.40217464 0 30852
0.17050000 0.17049200 8508.57229619 0 232.84656201 0 2629.37819166 0 -57.86452312 0 83.24528113 0 31257
0.17150000 0.17149500 8309.31473875 0 129.89276414 0 2598.38675449 0 -54.99047977 0 263.81696176 0 32608
0.17250000 0.17250900 8167.92115082 0 96.63349341 0 2734.25525234 0 137.83162104 0 421.24106156 0 32361
0.17350000 0.17350400 8278.95442410 0 121.55419632 0 2690.22061654 0 202.31130462 0 384.75221512 0 32508
0.17450000 0.17449800 8159.30688211 0 64.10145297 0 2703.11987495 0 182.28811242 0 416.80216654 0 32791
0.17550000 0.17549800 8094.52270959 0 20.67335912 0 2512.33264600 0 277.71272940 0 646.09783398 0 33633
0.17650000 0.17650100 8026.50541823 0 74.25997882 0 2395.84071658 0 221.75873593 0 645.74905575 0 33984
0.17750000 0.17750300 8024.84456951 0 50.09883738 0 2189.33078639 0 353.12411928 0 478.08194825 0 34069
0.17850000 0.17849800 7823.11788364 0 118.11513224 0 2114.38221969 0 125.95765990 0 250.80365840 0 34536
