### header ###
fiducial parameters:
Omega_m = 0.31
Omega_nu = 0
Omega_de = 0.69
Omega_k = 0
H_0 = 100
w_de = -1
zeff = 0
beta = 0
fgrowth = 0
b_1 = 2
gamma = 0.55
Lx = 3500 Ly = 3500 Lz = 3500
nx = 700 ny = 700 nz = 700
xoffset = -685.467585 yoffset = -31.7331281 zoffset = 572.489161
bins = 400 dk = 0.001
kx_ny = 0.628318531 ky_ny = 0.628318531 kz_ny = 0.628318531
############################
A(data) = 8.0298818 (not used)
A(ran) = 8.0340021 (used)
Ngal = 478310
weighted Ngal = 0
Nran = 23820508
weighted Nran = 0
SN(data) = 3478.51555
SN(ran) = 69.979072
SN(data+ran) = 3548.49462
############################
13 columns: k_central k_mean P_0(k) sigma^{lin}_{P_0(k)} P^img_1(k) sigma^{lin}_{P_1(k)} P_2(k) sigma^{lin}_{P_2(k)} P^img_3(k) sigma^{lin}_{P_3(k)} P_4(k) sigma^{lin}_{P_4(k)} N_modes
### header ###
0.00050000 0 0 0 0 0 0 0 0 0 0 0 0
0.00150000 0.00179520 30087.27112270 0 -7157.58258344 0 3111.66651611 0 73127.16926475 0 8151.32373591 0 3
0.00250000 0.00253879 48395.58165683 0 6225.04924256 0 37499.86041904 0 -14715.78402347 0 -14994.47443916 0 6
0.00350000 0.00331552 43852.38533724 0 6203.59107707 0 17995.73880450 0 -24887.81811111 0 39851.29004078 0 7
0.00450000 0.00420575 40134.18793989 0 -3617.16243338 0 23436.12560414 0 5100.56607863 0 18217.96036361 0 24
0.00550000 0.00557378 50882.53653434 0 -19670.98154956 0 14662.19397135 0 7218.43608064 0 -19595.68974079 0 45
0.00650000 0.00659388 67515.49360016 0 -18976.63606018 0 2912.92935794 0 33509.83744739 0 -45542.68644406 0 40
0.00750000 0.00754703 76363.72053249 0 -18977.63256942 0 -9036.09106752 0 -20670.48031094 0 -40936.26714975 0 57
0.00850000 0.00846663 96942.85416367 0 -10741.00764310 0 -10804.41884733 0 -48632.75085444 0 -37852.29251802 0 75
0.00950000 0.00948925 86894.71939075 0 20038.80418003 0 -8955.77242329 0 -51681.07260027 0 -40282.99998545 0 112
0.01050000 0.01054430 68490.85469344 0 13606.55852314 0 -16820.74369474 0 -27095.19678696 0 -5188.96751998 0 105
0.01150000 0.01145670 62915.71770075 0 12355.27509538 0 -16204.01520234 0 -9282.60530729 0 -13655.05530584 0 144
0.01250000 0.01249090 59152.89883438 0 -449.26068675 0 -15574.77498290 0 8613.48257384 0 -17648.39997494 0 169
0.01350000 0.01339930 55287.77168669 0 -6507.02813872 0 -7046.84826293 0 10974.33474400 0 -18672.81146716 0 180
0.01450000 0.01448870 62619.20084211 0 -6818.24904472 0 -17379.89609808 0 14932.02652718 0 -6728.25318860 0 267
0.01550000 0.01550050 70735.43638067 0 -1476.73810571 0 -11989.99909962 0 -7949.89600281 0 11995.97815502 0 238
0.01650000 0.01653350 66792.58151275 0 7966.01730775 0 4718.33835357 0 -8146.36333440 0 22870.21908266 0 315
0.01750000 0.01747870 63709.93555999 0 5491.13126429 0 4471.14870199 0 -12256.17778826 0 44606.74282714 0 297
0.01850000 0.01844180 68159.68145811 0 1742.34103346 0 32378.02440443 0 6114.02704161 0 37958.69755952 0 388
0.01950000 0.01947590 66654.73106876 0 449.98038786 0 28416.34658432 0 6524.37847171 0 28001.13440362 0 399
0.02050000 0.02045430 69034.83801178 0 3403.22297323 0 32821.80318316 0 1988.61168208 0 27542.96160262 0 462
0.02150000 0.02154770 66816.16556462 0 -1114.70630112 0 30203.19836355 0 6067.00287810 0 20900.89539041 0 571
0.02250000 0.02255340 70223.67352756 0 -6538.16351611 0 24272.19685120 0 14590.00241353 0 14583.24829539 0 510
0.02350000 0.02348930 73941.98164815 0 -8237.47749533 0 19647.72966744 0 10391.39898695 0 8528.01529857 0 555
0.02450000 0.02439640 79738.01152097 0 -2008.57508373 0 24905.53383082 0 10281.81618822 0 5899.85506264 0 592
0.02550000 0.02547300 75629.07178077 0 7038.10112632 0 14406.75543778 0 -3374.24669918 0 -5915.40060669 0 837
0.02650000 0.02652900 70411.57087973 0 7710.61199116 0 19940.59265889 0 -10599.93515258 0 10283.64312181 0 723
0.02750000 0.02749970 67846.00249600 0 3966.11782236 0 23658.12571675 0 -6036.52076788 0 1752.21754720 0 826
0.02850000 0.02848090 65152.77020711 0 -2075.13082821 0 25224.41678560 0 7933.91863810 0 3574.45647655 0 831
0.02950000 0.02946900 67611.26920984 0 -3917.26672526 0 24106.11197892 0 7478.70214783 0 -4457.80655059 0 996
0.03050000 0.03053250 66531.93898652 0 2679.87906516 0 20176.32245428 0 4963.87822875 0 -6649.91649051 0 1041
0.03150000 0.03150510 66586.08265489 0 5381.68133345 0 21809.60108828 0 -1000.88723091 0 -2797.64431193 0 1036
0.03250000 0.03246190 59792.98993215 0 5710.27471710 0 17444.00485878 0 -3168.16858966 0 -3731.58383806 0 1059
0.03350000 0.03345080 59344.78222349 0 1862.53111937 0 20241.31700097 0 -3392.79284325 0 -6509.06544649 0 1302
0.03450000 0.03451200 55565.02270015 0 -976.48825594 0 18448.92905932 0 2573.35222808 0 -3470.83058858 0 1339
0.03550000 0.03553350 56579.24765354 0 1029.28774407 0 19476.55152574 0 5350.49059444 0 -15152.14434457 0 1365
0.03650000 0.03647120 55256.76917720 0 2746.83341333 0 19100.53537490 0 1189.68808479 0 -10975.12087906 0 1308
0.03750000 0.03744890 50782.77488773 0 4859.79837545 0 16053.09941507 0 776.10021414 0 -11524.51856424 0 1579
0.03850000 0.03847530 46731.41123659 0 3871.06191380 0 12759.96856750 0 -339.52287547 0 -5491.19769823 0 1662
0.03950000 0.03950240 46400.45944776 0 492.03529199 0 14432.22178486 0 -2268.04394353 0 -6866.56867023 0 1683
0.04050000 0.04050350 44688.12441455 0 -728.15926214 0 14394.57588048 0 2739.68069150 0 -4189.87843462 0 1822
0.04150000 0.04152450 46048.13807203 0 -1079.38890664 0 12110.79816339 0 3340.15501107 0 -9010.74651601 0 1887
0.04250000 0.04250150 45459.53328467 0 109.61978030 0 7188.34150179 0 3400.29987948 0 -6342.21658380 0 1920
0.04350000 0.04349210 44280.44141473 0 2955.97855683 0 7823.28396851 0 3666.23497698 0 -7228.77763202 0 2005
0.04450000 0.04448520 41791.38279550 0 2751.45057278 0 6638.84416569 0 -2347.38822318 0 -4363.37069221 0 2151
0.04550000 0.04548030 39844.09302964 0 2924.03489973 0 7066.87809853 0 -1430.19005217 0 -3908.28706984 0 2274
0.04650000 0.04648670 38758.00868818 0 2172.62264824 0 10813.01097139 0 -5015.87386609 0 -2003.03892132 0 2311
0.04750000 0.04749250 36763.55081860 0 623.54461556 0 12343.31698458 0 467.42815731 0 -1730.80367100 0 2568
0.04850000 0.04851840 37619.55225033 0 -816.75446918 0 11159.24256847 0 744.57509092 0 -4655.53612720 0 2493
0.04950000 0.04949480 37248.18647591 0 -275.46394023 0 11429.18584755 0 -573.35265992 0 -5683.61255893 0 2644
0.05050000 0.05050630 37545.47839729 0 1276.20723092 0 11656.27922958 0 1276.11865232 0 -9305.95684033 0 2829
0.05150000 0.05149060 36163.43081343 0 1727.32696101 0 12688.55207242 0 -1333.47329488 0 -5310.96239484 0 2784
0.05250000 0.05249300 34863.20770998 0 1614.21209066 0 11739.43238897 0 -1565.92568213 0 -3657.18888760 0 3055
0.05350000 0.05348950 34154.46819833 0 364.25955635 0 12622.67173975 0 2579.13198163 0 -2806.65718433 0 3009
0.05450000 0.05448610 34948.46461108 0 -1109.66839332 0 12243.00172172 0 1767.51950010 0 -5995.34279188 0 3336
0.05550000 0.05550870 35207.11411884 0 -946.41139280 0 11061.86147169 0 1123.87418607 0 -4631.49811002 0 3349
0.05650000 0.05647670 35209.66075355 0 624.78914487 0 12540.18291985 0 1059.66023828 0 -2469.18379618 0 3324
0.05750000 0.05747970 35662.51883863 0 1196.71901105 0 11103.88094438 0 1070.61630369 0 -994.73987617 0 3639
0.05850000 0.05849280 34059.02475840 0 327.37432068 0 9535.66329102 0 2180.80509628 0 312.46875701 0 3846
0.05950000 0.05951020 34230.86723958 0 212.11252655 0 9460.38255457 0 -117.29688743 0 -1817.33388946 0 3787
0.06050000 0.06049470 33279.42236792 0 547.77780406 0 10673.86506540 0 587.79540041 0 -1076.52228175 0 3930
0.06150000 0.06148310 33447.27881217 0 898.72731874 0 9492.73588769 0 -1733.50531826 0 -1047.74641678 0 4083
0.06250000 0.06249100 32422.42442695 0 351.12224295 0 10163.85163960 0 201.26939886 0 -420.75387927 0 4303
0.06350000 0.06350600 32261.87571708 0 377.55520399 0 9480.36810087 0 -948.09992234 0 -2196.67173775 0 4470
0.06450000 0.06451750 32667.56569844 0 352.43099175 0 11683.73859513 0 934.54186060 0 -432.00889745 0 4479
0.06550000 0.06550280 31774.80414831 0 256.27117239 0 10868.56082501 0 1192.21257485 0 -1163.76777239 0 4636
0.06650000 0.06648880 31868.91890927 0 896.89706345 0 12934.80057639 0 154.34488627 0 1496.34719297 0 4653
0.06750000 0.06749660 30856.35480460 0 810.37127392 0 11992.87790407 0 819.11841053 0 1172.85815106 0 5220
0.06850000 0.06852730 29964.03614747 0 943.59902230 0 13550.86472930 0 305.51090809 0 1639.57878682 0 5029
0.06950000 0.06949320 29803.48743760 0 530.94011970 0 12497.33302281 0 930.01881591 0 517.16393316 0 5040
0.07050000 0.07048030 29684.68139229 0 111.79615646 0 13697.90520289 0 -604.60540395 0 234.49301671 0 5475
0.07150000 0.07148790 28766.56421833 0 1136.72915518 0 11390.87560368 0 310.16017728 0 893.13025854 0 5509
0.07250000 0.07249820 28843.73832232 0 387.46272024 0 11442.58336058 0 970.86572940 0 1775.87910534 0 5916
0.07350000 0.07351270 27973.45359157 0 130.05331285 0 10460.47922149 0 1919.38750731 0 819.14166241 0 5721
0.07450000 0.07449140 27750.56769297 0 350.88750967 0 9388.71139602 0 1780.23052899 0 -1100.70423915 0 6028
0.07550000 0.07549160 27023.44812213 0 592.69490415 0 9520.61600159 0 819.72074500 0 -1509.16894511 0 6183
0.07650000 0.07648840 27197.28362179 0 651.93516362 0 8894.28780357 0 -36.50667288 0 -1560.30094112 0 6330
0.07750000 0.07749960 26044.32243842 0 370.62835758 0 8398.49124284 0 47.34503948 0 -35.44826935 0 6583
0.07850000 0.07848650 26200.11004862 0 536.36445163 0 8761.08773600 0 873.19121601 0 388.35514962 0 6549
0.07950000 0.07947320 24811.75123961 0 397.08899944 0 8457.84997619 0 1241.60621586 0 332.88944567 0 6828
0.08050000 0.08048110 24483.78897848 0 1240.22217526 0 7831.10102983 0 2147.98672552 0 1793.18514903 0 7147
0.08150000 0.08149960 23392.72209085 0 813.62764465 0 7186.91317189 0 1108.69402874 0 80.57020745 0 7386
0.08250000 0.08250610 22656.74466016 0 579.13573517 0 6778.05650563 0 -510.79181023 0 1924.90152507 0 7227
0.08350000 0.08350160 22535.05981040 0 -104.10498747 0 7232.36506527 0 229.35435076 0 955.83283399 0 7798
0.08450000 0.08449610 22416.69665809 0 73.02275724 0 7274.55062283 0 -243.15711088 0 1480.27017733 0 7371
0.08550000 0.08548940 22467.18645926 0 438.17950407 0 6943.89778677 0 606.90512582 0 979.23751419 0 8256
0.08650000 0.08650700 22460.98595736 0 -13.85391426 0 6143.84481234 0 728.03635934 0 -114.61517036 0 8037
0.08750000 0.08749060 22300.43724749 0 230.24456567 0 6252.47539114 0 186.41033895 0 -127.96950132 0 8155
0.08850000 0.08849210 21949.11238100 0 562.17182632 0 6918.53109061 0 -154.44453720 0 -1399.36469988 0 8718
0.08950000 0.08949900 21473.55603003 0 549.89483256 0 7036.20775878 0 -1123.67488422 0 976.59344303 0 8571
0.09050000 0.09049190 21067.75532543 0 820.94312966 0 8205.81064635 0 -805.61128148 0 1107.87467670 0 8932
0.09150000 0.09150830 20341.30009408 0 800.07290461 0 8130.31953573 0 70.33162869 0 1480.33661128 0 9285
0.09250000 0.09250820 20107.78476365 0 369.88429736 0 9036.91041956 0 620.93265413 0 1460.51714985 0 9204
0.09350000 0.09350330 19834.51978713 0 130.32126312 0 8977.44096296 0 1695.54938878 0 2447.22737607 0 9349
0.09450000 0.09448040 19833.19110815 0 -118.16274323 0 7600.45343154 0 1595.92061006 0 2417.68641345 0 9564
0.09550000 0.09549270 19604.76904714 0 52.82727967 0 7475.69047548 0 745.82626362 0 1140.07299728 0 10155
0.09650000 0.09649430 19491.94205724 0 776.99596522 0 7053.76846594 0 434.38391112 0 1635.39344804 0 9913
0.09750000 0.09749140 18173.00672484 0 1086.52834169 0 6131.00091556 0 -632.49548294 0 757.64929206 0 10476
0.09850000 0.09850240 17566.35404803 0 540.23201469 0 5558.04132316 0 -307.57478944 0 1147.31429771 0 10575
0.09950000 0.09950330 17085.04008816 0 32.90240971 0 5613.89012955 0 295.35537177 0 -116.82742086 0 10882
0.10050000 0.10051200 17281.68457694 0 -184.90118108 0 5430.01203129 0 476.24726403 0 -1369.02652988 0 10875
0.10150000 0.10150300 17335.16390582 0 -3.41724054 0 5384.29440211 0 -319.56168829 0 -1600.95851785 0 11118
0.10250000 0.10250800 17308.14743326 0 287.94798647 0 5733.40480364 0 -91.77949693 0 -571.57001563 0 11575
0.10350000 0.10349800 17116.15332090 0 153.29301542 0 5796.05201747 0 -255.33998988 0 498.32326525 0 11364
0.10450000 0.10450100 17115.59970466 0 272.22196353 0 6154.49638882 0 759.54708854 0 86.16106715 0 12093
0.10550000 0.10551000 16889.72427836 0 206.32723683 0 6239.00037184 0 640.66575142 0 994.84284879 0 12067
0.10650000 0.10649700 16617.01291808 0 550.73190032 0 5792.02169123 0 758.44428498 0 780.80705942 0 12054
0.10750000 0.10749900 16104.36427898 0 417.46096987 0 5842.82151750 0 401.31198412 0 1596.82854070 0 12807
0.10850000 0.10850100 15762.45088858 0 273.93042325 0 5248.75807401 0 390.93167960 0 1232.96980251 0 12736
0.10950000 0.10950300 15308.04267802 0 316.81132280 0 5256.61942463 0 -3.07149612 0 708.58228463 0 12933
0.11050000 0.11050200 15330.40877415 0 217.31762645 0 5286.19360422 0 -103.79385515 0 531.39076332 0 13428
0.11150000 0.11150900 15123.57774654 0 428.76470628 0 5436.66649850 0 -67.16405801 0 162.02686523 0 13453
0.11250000 0.11250000 14629.86278288 0 338.87182277 0 5310.82952694 0 -115.90177450 0 742.00077540 0 13668
0.11350000 0.11349100 14527.66522480 0 167.84426469 0 5085.74023570 0 434.87773681 0 174.25181907 0 13791
0.11450000 0.11448600 14601.51763134 0 -72.04551385 0 5092.42791989 0 729.49347728 0 1308.05123710 0 14205
0.11550000 0.11549300 14735.82493139 0 7.30968311 0 5270.59269855 0 -16.90123950 0 256.55462391 0 14776
0.11650000 0.11649800 14544.05226553 0 199.40592659 0 5338.89787035 0 -18.18020374 0 1039.75884165 0 14553
0.11750000 0.11747300 14563.09666422 0 85.23497790 0 5620.84354954 0 -3.20417579 0 1173.23461011 0 14568
0.11850000 0.11849100 14229.26607094 0 199.92521862 0 5238.97013887 0 -133.38276093 0 1737.04846220 0 16015
0.11950000 0.11950300 14488.69064144 0 68.31845860 0 5194.91335841 0 481.34274791 0 1275.66468701 0 15270
0.12050000 0.12050700 14119.20716224 0 179.85220096 0 5346.51562983 0 575.09987278 0 1431.21977838 0 15999
0.12150000 0.12150000 14163.05356852 0 200.13116386 0 4888.30961186 0 152.16474552 0 1579.43391841 0 15670
0.12250000 0.12250700 13827.78357301 0 276.97641980 0 5296.12547958 0 304.28298727 0 1434.77399465 0 16887
0.12350000 0.12352200 13532.37394685 0 485.54580241 0 4912.39191834 0 250.83687537 0 1906.87578027 0 16407
0.12450000 0.12449800 13354.10951727 0 147.36821441 0 4921.90304536 0 109.87366870 0 2032.96741530 0 16306
0.12550000 0.12549900 13408.58535538 0 -3.06649143 0 5137.97946420 0 700.32897371 0 2104.88216500 0 17523
0.12650000 0.12650100 13297.86210719 0 -187.49099785 0 4467.73842595 0 720.35880931 0 1606.73827141 0 17154
0.12750000 0.12750600 13303.17682311 0 105.43831683 0 4274.38241764 0 580.18428433 0 1815.60660679 0 18007
0.12850000 0.12850300 13292.99028427 0 97.66720565 0 3636.22897672 0 454.71380672 0 1630.27803397 0 17496
0.12950000 0.12949900 12859.28732113 0 232.52546459 0 3639.18528744 0 126.61646323 0 1472.30917579 0 18405
0.13050000 0.13049000 12708.15008735 0 441.52998956 0 3676.29972024 0 -306.09552684 0 1206.23013807 0 18100
0.13150000 0.13148800 12250.64162585 0 273.43106140 0 3436.72782813 0 -328.65428143 0 315.82367143 0 19059
0.13250000 0.13249300 12006.82903334 0 178.97416560 0 3379.27353465 0 116.22951532 0 713.12304504 0 18957
0.13350000 0.13349100 12250.42017935 0 -92.79959022 0 3414.40602130 0 476.29930396 0 415.28525804 0 19468
0.13450000 0.13450700 11951.46740925 0 -60.26566748 0 3060.08055478 0 800.97308461 0 914.97595541 0 19953
0.13550000 0.13551000 12070.60562430 0 346.93136801 0 2910.78132692 0 500.18784475 0 930.03542440 0 19956
0.13650000 0.13649900 11864.10676643 0 346.50951243 0 2623.81988460 0 340.19385836 0 1334.13763437 0 19723
0.13750000 0.13749600 11596.15650582 0 10.71419047 0 2794.27832518 0 99.15532611 0 1634.77339785 0 20946
0.13850000 0.13851100 11585.96996698 0 -32.25024978 0 2855.56364305 0 -232.62400828 0 1776.15591346 0 20955
0.13950000 0.13949800 11759.36257364 0 18.37740184 0 3297.46012657 0 95.72179818 0 1382.54583848 0 20506
0.14050000 0.14048300 11617.19392297 0 178.79257947 0 3087.98281332 0 -100.55675026 0 1656.59695007 0 21447
0.14150000 0.14148400 11569.69364950 0 273.17750516 0 3214.36232880 0 -300.34677580 0 804.11762486 0 21771
0.14250000 0.14249400 11224.12639191 0 388.83901021 0 3739.51162263 0 -329.52124446 0 932.31521608 0 22470
0.14350000 0.14350900 10908.45441133 0 435.15454493 0 3337.56408706 0 -356.24762211 0 353.90803988 0 22519
0.14450000 0.14449900 10721.43177282 0 357.09133326 0 3618.30288284 0 -152.60542405 0 814.82788466 0 22218
0.14550000 0.14550500 10420.34204403 0 146.08382473 0 3421.95734683 0 5.91719432 0 750.41463503 0 23559
0.14650000 0.14650700 10329.11715984 0 -33.51061251 0 3484.71528390 0 354.16381058 0 593.75563286 0 23044
0.14750000 0.14750500 10438.41207813 0 -33.73837023 0 2978.38894227 0 275.94337190 0 304.63508720 0 23649
0.14850000 0.14849900 10346.24604634 0 92.30011764 0 3158.61317334 0 295.37198026 0 323.89871792 0 23640
0.14950000 0.14949500 10299.26617213 0 88.58557411 0 2824.74936308 0 20.50284531 0 376.68270480 0 24457
0.15050000 0.15050000 10157.71757165 0 218.13587125 0 3170.59342879 0 -122.87844637 0 709.73048471 0 24591
0.15150000 0.15149900 10181.39020211 0 231.68618237 0 3148.02803081 0 -13.01640361 0 222.63898576 0 25020
0.15250000 0.15250500 10004.24407734 0 63.61072753 0 3322.29535113 0 100.29488978 0 1006.24845059 0 25297
0.15350000 0.15350100 9910.50577543 0 75.62685732 0 3434.74588199 0 177.46168603 0 901.16765913 0 25452
0.15450000 0.15450400 9896.06746386 0 45.89711156 0 3247.77860510 0 405.64237036 0 954.03247398 0 26061
0.15550000 0.15549900 9807.49993764 0 -17.19797780 0 3090.90590707 0 251.02621213 0 729.27424525 0 26128
0.15650000 0.15649500 9761.46121104 0 171.57453092 0 2807.18865592 0 184.31877679 0 512.45930235 0 26331
0.15750000 0.15749700 9607.41195584 0 112.71515942 0 2320.37175062 0 77.36543376 0 171.56124413 0 27345
0.15850000 0.15849900 9521.61251082 0 143.65677113 0 2183.00848892 0 -25.88310939 0 -216.89909257 0 26980
0.15950000 0.15949700 9187.30580757 0 261.36776351 0 2236.97500009 0 -324.55973571 0 -581.88277896 0 27777
0.16050000 0.16050000 9097.14386657 0 264.05833844 0 2248.15804815 0 94.46110328 0 -603.92113428 0 28224
0.16150000 0.16150500 8904.74007820 0 116.20737067 0 2262.96174643 0 -107.39213926 0 -684.98051705 0 28075
0.16250000 0.16249700 8844.27411236 0 145.97974487 0 2525.84088228 0 -6.56009779 0 -205.90870295 0 28590
0.16350000 0.16349900 8873.69327941 0 141.37144328 0 2706.69623587 0 223.27453720 0 -409.50218279 0 29163
0.16450000 0.16449100 8691.91892286 0 63.82763437 0 2585.66465327 0 331.22195355 0 285.72687811 0 28996
0.16550000 0.16550500 8572.82499711 0 97.99262128 0 2617.80761222 0 306.48527268 0 71.24686706 0 30777
0.16650000 0.16650700 8679.82794416 0 96.40662147 0 2398.38735129 0 312.15983915 0 211.28431665 0 29211
0.16750000 0.16749900 8494.99762596 0 23.02910694 0 2045.88881837 0 151.68642109 0 23.94047000 0 30922
0.16850000 0.16850800 8441.33006756 0 -78.51119793 0 1829.66845931 0 75.61345980 0 -108.42529789 0 30867
0.16950000 0.16949900 8407.21623480 0 -93.87128054 0 1672.40822991 0 -17.94104152 0 -359.87823742 0 30852
0.17050000 0.17049200 8583.41013964 0 165.25666238 0 1795.93108558 0 10.01956817 0 -451.49176020 0 31257
0.17150000 0.17149500 8433.83410366 0 84.91310542 0 1486.02778624 0 -118.32550641 0 -394.78152694 0 32608
0.17250000 0.17250900 8344.97869699 0 141.20092948 0 1858.73331196 0 106.58286304 0 -182.23828696 0 32361
0.17350000 0.17350400 8382.79068625 0 176.92135658 0 1835.23783869 0 127.10475276 0 -113.81353404 0 32508
0.17450000 0.17449800 8147.75844732 0 154.49104096 0 1930.82521885 0 150.35442041 0 382.30966027 0 32791
0.17550000 0.17549800 8047.63141399 0 132.05186748 0 1718.25872698 0 261.76968890 0 329.20679044 0 33633
0.17650000 0.17650100 7976.03776171 0 26.71453026 0 1695.98120945 0 387.95433146 0 734.14274647 0 33984
0.17750000 0.17750300 8007.72675534 0 23.94456676 0 1694.57502419 0 276.21242939 0 574.84078038 0 34069
0.17850000 0.17849800 7937.14068462 0 38.93881975 0 1524.41553638 0 157.35988032 0 824.77083235 0 34536
