### header ###
fiducial parameters:
Omega_m = 0.31
Omega_nu = 0
Omega_de = 0.69
Omega_k = 0
H_0 = 100
w_de = -1
zeff = 0
beta = 0
fgrowth = 0
b_1 = 2
gamma = 0.55
Lx = 3500 Ly = 3500 Lz = 3500
nx = 700 ny = 700 nz = 700
xoffset = -685.467585 yoffset = -31.7331281 zoffset = 572.489161
bins = 400 dk = 0.001
kx_ny = 0.628318531 ky_ny = 0.628318531 kz_ny = 0.628318531
############################
A(data) = 8.00144343 (not used)
A(ran) = 7.99584027 (used)
Ngal = 475371
weighted Ngal = 0
Nran = 23820508
weighted Nran = 0
SN(data) = 3488.62318
SN(ran) = 69.6466686
SN(data+ran) = 3558.26985
############################
13 columns: k_central k_mean P_0(k) sigma^{lin}_{P_0(k)} P^img_1(k) sigma^{lin}_{P_1(k)} P_2(k) sigma^{lin}_{P_2(k)} P^img_3(k) sigma^{lin}_{P_3(k)} P_4(k) sigma^{lin}_{P_4(k)} N_modes
### header ###
0.00050000 0 0 0 0 0 0 0 0 0 0 0 0
0.00150000 0.00179520 64055.28137109 0 -80705.84343337 0 -80389.72855980 0 108479.99517821 0 -72576.65327477 0 3
0.00250000 0.00253879 125406.25812847 0 -91275.04181226 0 -10128.64164668 0 -68858.23443092 0 5507.34114782 0 6
0.00350000 0.00331552 165328.63249458 0 -54517.69149555 0 482.74671870 0 -191334.20179614 0 112790.45123010 0 7
0.00450000 0.00420575 186379.33643979 0 24110.87307859 0 41811.75587316 0 -145770.47793492 0 44677.93787572 0 24
0.00550000 0.00557378 136778.64294970 0 59377.55630495 0 60626.18237475 0 -74041.63257152 0 69759.30022466 0 45
0.00650000 0.00659388 116869.49569329 0 32620.39759471 0 161712.41120881 0 68.10631285 0 18090.40718170 0 40
0.00750000 0.00754703 105597.97975116 0 -7490.88170513 0 125755.03636026 0 54187.29332297 0 -20010.90192149 0 57
0.00850000 0.00846663 116256.08889834 0 -12409.97237999 0 132089.51338901 0 98483.56816219 0 -80062.31991491 0 75
0.00950000 0.00948925 114263.07043098 0 5656.33035058 0 78515.18396800 0 53803.63726800 0 -66361.53590756 0 112
0.01050000 0.01054430 97936.37386965 0 19360.84573139 0 74849.91228328 0 37571.05546762 0 -21824.65945003 0 105
0.01150000 0.01145670 77505.83083753 0 19767.75366847 0 28036.67656629 0 19715.82446507 0 -16303.99829546 0 144
0.01250000 0.01249090 60720.18641246 0 17791.01151860 0 33840.78923622 0 7858.81505886 0 2386.78355488 0 169
0.01350000 0.01339930 51757.58236476 0 8015.99778198 0 14624.65879021 0 6837.37094969 0 -236.24798019 0 180
0.01450000 0.01448870 49187.91722085 0 -7372.20852773 0 14397.89757793 0 4002.36861382 0 -910.47948430 0 267
0.01550000 0.01550050 56743.11806085 0 -8310.13409079 0 11103.65949788 0 -2834.36014103 0 8984.37223829 0 238
0.01650000 0.01653350 67229.71689659 0 -6138.09827576 0 17068.43160094 0 -431.84281258 0 -13749.50223655 0 315
0.01750000 0.01747870 64918.36909070 0 2870.10160554 0 14106.58471195 0 -171.65535890 0 597.59330065 0 297
0.01850000 0.01844180 66127.35623765 0 1879.23925752 0 18534.73957667 0 -8494.51044367 0 -9721.81121587 0 388
0.01950000 0.01947590 67802.93115246 0 5134.48060955 0 18038.36725505 0 977.51798215 0 -3519.12806944 0 399
0.02050000 0.02045430 63331.48349769 0 -3668.00654895 0 14406.31254479 0 -7588.47317608 0 -22201.45066361 0 462
0.02150000 0.02154770 68151.70938424 0 -2363.22164767 0 18653.87779172 0 -6688.00528788 0 -20297.78585754 0 571
0.02250000 0.02255340 73334.55390860 0 1820.41199576 0 21404.57544641 0 -4266.08924635 0 -28515.88678444 0 510
0.02350000 0.02348930 65243.89544037 0 2113.80645880 0 23747.47937804 0 -3530.58792562 0 -6742.35933042 0 555
0.02450000 0.02439640 71462.11305852 0 2128.52157849 0 23427.59991403 0 3058.35327211 0 -21644.40200199 0 592
0.02550000 0.02547300 67936.68483626 0 1183.72010171 0 23295.50707894 0 15217.69250750 0 -13762.78902633 0 837
0.02650000 0.02652900 64875.74064015 0 1023.11049405 0 20435.96847128 0 11534.70510307 0 -16624.32065246 0 723
0.02750000 0.02749970 59853.00193267 0 3941.86943101 0 13787.81248042 0 4959.57109439 0 -14127.84357560 0 826
0.02850000 0.02848090 57804.62184122 0 3547.11890658 0 9922.99535782 0 7031.95598605 0 -6734.94087279 0 831
0.02950000 0.02946900 54149.09380234 0 1424.53209419 0 543.09642512 0 1184.27371795 0 -14497.32705480 0 996
0.03050000 0.03053250 55108.62147113 0 -1871.76543827 0 -1591.53596943 0 -3469.76764539 0 -9800.84547042 0 1041
0.03150000 0.03150510 55302.60860195 0 -2831.58098750 0 -3494.85753343 0 1165.53934436 0 -14397.67613143 0 1036
0.03250000 0.03246190 55633.67111403 0 556.55372871 0 -166.89093753 0 -697.43798970 0 -17488.18343481 0 1059
0.03350000 0.03345080 56430.43560798 0 1456.79684871 0 -956.56692913 0 -2494.14081632 0 -10867.22107371 0 1302
0.03450000 0.03451200 53944.80940944 0 3101.59070052 0 4540.56110628 0 -8205.31239173 0 -12896.82250226 0 1339
0.03550000 0.03553350 53039.53613227 0 5541.02315992 0 15479.66371271 0 -12443.74297068 0 1791.24749219 0 1365
0.03650000 0.03647120 50625.54787530 0 5111.42802928 0 26117.39978222 0 -6111.95651687 0 -2773.98275379 0 1308
0.03750000 0.03744890 48546.60816735 0 3410.44212902 0 31753.65600791 0 -4638.67297650 0 8047.05565310 0 1579
0.03850000 0.03847530 47978.15501117 0 -824.24932585 0 37513.03648557 0 4462.35727609 0 2457.25890235 0 1662
0.03950000 0.03950240 47361.31579552 0 -307.22490398 0 32313.14058099 0 9438.79152118 0 4538.85596826 0 1683
0.04050000 0.04050350 50448.50140145 0 428.74366886 0 36094.22878331 0 5160.76630867 0 6197.65631096 0 1822
0.04150000 0.04152450 47758.36936352 0 331.13226772 0 25811.69289398 0 5467.22611500 0 3428.37929522 0 1887
0.04250000 0.04250150 47983.91262007 0 -1077.76681106 0 23545.63089660 0 5783.26348230 0 10328.06528899 0 1920
0.04350000 0.04349210 47313.70479880 0 -1262.73221162 0 20879.74725001 0 5356.34785427 0 6855.82851516 0 2005
0.04450000 0.04448520 48956.50563214 0 -68.48786517 0 17744.17558462 0 8370.55576732 0 6133.06036797 0 2151
0.04550000 0.04548030 47736.11399063 0 2494.40655212 0 14889.17663013 0 2004.16829845 0 3318.13215700 0 2274
0.04650000 0.04648670 43956.57591378 0 3465.03976270 0 12965.69236263 0 -150.85267503 0 6813.31078785 0 2311
0.04750000 0.04749250 41935.32301814 0 2454.63476137 0 11834.65438241 0 394.09836450 0 6848.90831215 0 2568
0.04850000 0.04851840 40263.73414027 0 -348.79262581 0 11240.29198615 0 2289.09243301 0 3077.59697264 0 2493
0.04950000 0.04949480 40468.01853317 0 -183.25804807 0 11511.67466745 0 807.28763146 0 1804.82216241 0 2644
0.05050000 0.05050630 41461.31679265 0 206.58965093 0 13052.27794272 0 -513.13471416 0 -799.45728335 0 2829
0.05150000 0.05149060 39085.41733307 0 684.32282095 0 9938.92843324 0 -2436.80831841 0 -756.95727176 0 2784
0.05250000 0.05249300 39611.57420845 0 2192.97358126 0 10436.64050616 0 -255.53818449 0 -64.63768566 0 3055
0.05350000 0.05348950 38644.84952854 0 298.61174250 0 11139.75527679 0 -1282.67346862 0 564.57894974 0 3009
0.05450000 0.05448610 37783.75482739 0 945.26651442 0 11548.21333935 0 1582.77776050 0 -3703.20546955 0 3336
0.05550000 0.05550870 36674.75077355 0 1695.57153343 0 10556.58700092 0 2122.70860796 0 -1257.58358058 0 3349
0.05650000 0.05647670 34777.17574613 0 1517.73892452 0 10008.54013937 0 2985.24271133 0 -3785.66107247 0 3324
0.05750000 0.05747970 34106.19286212 0 -87.12889906 0 9987.89025358 0 1364.34293648 0 -2171.75900690 0 3639
0.05850000 0.05849280 34598.35770031 0 -592.60632555 0 8738.74378452 0 567.55851234 0 -5187.95993843 0 3846
0.05950000 0.05951020 34919.34439681 0 -611.90981664 0 9140.28164407 0 -1082.58327235 0 -5335.45437734 0 3787
0.06050000 0.06049470 34574.44147870 0 366.16731792 0 9002.08795800 0 -3230.22897027 0 -4322.92348964 0 3930
0.06150000 0.06148310 35273.99096075 0 1352.50662125 0 11062.40401561 0 -3252.18539038 0 -5471.12357334 0 4083
0.06250000 0.06249100 34394.51620040 0 752.71214243 0 12178.89296102 0 -2456.61670751 0 -4900.72168798 0 4303
0.06350000 0.06350600 34250.24380802 0 429.25742473 0 13748.39500406 0 -651.45019580 0 -5630.45432748 0 4470
0.06450000 0.06451750 33429.67381571 0 791.09546364 0 12817.98754955 0 2418.92651383 0 -3925.13914821 0 4479
0.06550000 0.06550280 32772.30989122 0 348.70072551 0 14073.14629100 0 2391.35642503 0 -5149.01857204 0 4636
0.06650000 0.06648880 32457.63441988 0 694.80831255 0 12173.57824511 0 1318.69174125 0 -3866.06829530 0 4653
0.06750000 0.06749660 31228.82781150 0 1107.83038740 0 11962.76118056 0 1958.18493348 0 -3077.54161102 0 5220
0.06850000 0.06852730 30371.05480780 0 1038.08359891 0 12900.80853920 0 -783.81541007 0 -2189.15362919 0 5029
0.06950000 0.06949320 29298.25725612 0 1089.35510621 0 11565.26471957 0 1618.33099549 0 -540.00171034 0 5040
0.07050000 0.07048030 28659.05194434 0 1200.58325241 0 10913.62518702 0 391.57387444 0 -762.41260620 0 5475
0.07150000 0.07148790 27721.11530896 0 1096.85771351 0 10124.95456251 0 246.63160641 0 -1238.63883281 0 5509
0.07250000 0.07249820 26910.84257873 0 629.49156122 0 10028.09386500 0 919.49235670 0 -1033.06562130 0 5916
0.07350000 0.07351270 26688.84246611 0 286.10444438 0 9113.26517151 0 1372.31501035 0 -1103.00396102 0 5721
0.07450000 0.07449140 26318.91609392 0 -659.79208532 0 8569.62509524 0 2344.17724898 0 -334.31223941 0 6028
0.07550000 0.07549160 26361.98743747 0 -898.36193202 0 6628.64655453 0 1804.30176315 0 -3598.91524208 0 6183
0.07650000 0.07648840 27289.18391778 0 -181.98030179 0 6016.15876254 0 1063.79464437 0 -2190.62624839 0 6330
0.07750000 0.07749960 27127.08508244 0 223.35204347 0 6149.87922937 0 -411.99677757 0 -2559.95471505 0 6583
0.07850000 0.07848650 27223.41430836 0 381.73832831 0 6240.22939989 0 -169.47078921 0 -78.94921910 0 6549
0.07950000 0.07947320 26672.78759513 0 452.10405976 0 5217.22409292 0 108.41765799 0 -347.01994661 0 6828
0.08050000 0.08048110 26537.26233935 0 425.62902389 0 6150.07853122 0 215.49955071 0 113.90100541 0 7147
0.08150000 0.08149960 25457.48922303 0 985.97945278 0 5636.12335779 0 874.31284251 0 184.25566454 0 7386
0.08250000 0.08250610 24965.65655459 0 1382.98873147 0 5903.69715935 0 620.09669361 0 -776.01163554 0 7227
0.08350000 0.08350160 23804.72329735 0 1061.55471306 0 5556.51334234 0 -220.94824176 0 477.28916979 0 7798
0.08450000 0.08449610 22663.16660855 0 1177.29815332 0 5711.10514146 0 -422.78565088 0 232.81445226 0 7371
0.08550000 0.08548940 21645.50923447 0 1130.27398981 0 6562.55584769 0 -987.40113928 0 513.28086885 0 8256
0.08650000 0.08650700 21055.24359839 0 766.81496255 0 7067.27670222 0 -893.92414423 0 -160.37819607 0 8037
0.08750000 0.08749060 20551.12064939 0 296.38288351 0 7895.86305770 0 -1.98624220 0 58.28715376 0 8155
0.08850000 0.08849210 20044.00817270 0 292.15879159 0 7832.75080623 0 -196.95229941 0 -1027.12089010 0 8718
0.08950000 0.08949900 20014.22361894 0 536.56153901 0 8435.19599961 0 316.56883889 0 -1538.65454610 0 8571
0.09050000 0.09049190 19583.73162999 0 446.32209174 0 8212.26581172 0 309.63977802 0 -394.94318289 0 8932
0.09150000 0.09150830 19371.58588646 0 173.27745448 0 7862.66822789 0 769.19108345 0 55.74062977 0 9285
0.09250000 0.09250820 19409.78540709 0 -316.90322310 0 7934.20651855 0 541.89950681 0 12.86039455 0 9204
0.09350000 0.09350330 19787.01951366 0 -38.75269397 0 8014.52516278 0 328.13388216 0 -1312.35837145 0 9349
0.09450000 0.09448040 19649.05834642 0 231.98734960 0 7129.96820534 0 506.07499986 0 -24.32888715 0 9564
0.09550000 0.09549270 19310.02376047 0 126.83015910 0 7091.89048029 0 199.06379175 0 -641.82502383 0 10155
0.09650000 0.09649430 19438.57345162 0 18.06460866 0 7062.34951768 0 282.93333056 0 -416.84645584 0 9913
0.09750000 0.09749140 19470.24030060 0 182.82290571 0 6840.43798366 0 1125.21393737 0 -963.89016476 0 10476
0.09850000 0.09850240 18664.39650030 0 704.43459175 0 6631.83538408 0 484.85046041 0 -724.94939518 0 10575
0.09950000 0.09950330 17911.47841263 0 949.19940419 0 5628.25093484 0 709.46364168 0 569.61464306 0 10882
0.10050000 0.10051200 17405.25172192 0 366.33008109 0 5327.69267764 0 1384.67172485 0 574.49089491 0 10875
0.10150000 0.10150300 17273.15888683 0 -89.25855002 0 5240.81921711 0 112.55128901 0 62.98071225 0 11118
0.10250000 0.10250800 17368.93449651 0 92.07756392 0 5520.93796270 0 274.01789461 0 -171.39294480 0 11575
0.10350000 0.10349800 16832.70180555 0 531.00766089 0 5735.37567746 0 -748.18245434 0 1069.75819852 0 11364
0.10450000 0.10450100 16577.81688822 0 603.74065539 0 5760.45449317 0 -21.25941727 0 1168.75031856 0 12093
0.10550000 0.10551000 16555.34006884 0 -87.94935833 0 6987.98778419 0 -350.44793837 0 941.07010331 0 12067
0.10650000 0.10649700 16274.10301845 0 327.80503412 0 6474.96268605 0 8.27975163 0 399.28021252 0 12054
0.10750000 0.10749900 16007.92432981 0 636.78711604 0 6354.76152782 0 663.57439147 0 1618.71852686 0 12807
0.10850000 0.10850100 15923.33176819 0 -11.51256045 0 6359.67764003 0 221.06339393 0 1329.37653470 0 12736
0.10950000 0.10950300 15517.53106359 0 73.47472954 0 6233.16525666 0 641.28469438 0 864.41861306 0 12933
0.11050000 0.11050200 15586.62237046 0 481.73138651 0 5912.71003176 0 341.55686154 0 1207.68061262 0 13428
0.11150000 0.11150900 15110.29095676 0 62.36653039 0 5145.60829600 0 300.39327956 0 689.87227015 0 13453
0.11250000 0.11250000 15138.52538505 0 101.27866584 0 5773.17659439 0 98.01089062 0 1326.51987490 0 13668
0.11350000 0.11349100 15103.31539212 0 -1.73686023 0 5200.54917175 0 -16.88518463 0 -578.04289671 0 13791
0.11450000 0.11448600 14944.53825422 0 143.58480102 0 5144.47891886 0 62.09769434 0 -171.10617158 0 14205
0.11550000 0.11549300 14531.76198498 0 217.79373642 0 4521.21775482 0 295.65543177 0 -406.26131332 0 14776
0.11650000 0.11649800 14737.70722661 0 -222.62569897 0 4095.49793787 0 1162.83769710 0 -418.31353888 0 14553
0.11750000 0.11747300 14532.42632447 0 -10.50915316 0 3745.19172526 0 1027.34676553 0 -566.36713019 0 14568
0.11850000 0.11849100 14537.07670090 0 376.56644538 0 3433.56114324 0 894.96826446 0 -400.90673703 0 16015
0.11950000 0.11950300 14286.50999025 0 258.94624607 0 3045.59795392 0 270.98629208 0 334.63665853 0 15270
0.12050000 0.12050700 14116.54980428 0 197.69857410 0 3403.45549205 0 -464.21053972 0 462.54747653 0 15999
0.12150000 0.12150000 13951.01854825 0 203.92564958 0 3588.69548627 0 -148.38133213 0 1281.54409148 0 15670
0.12250000 0.12250700 13924.77713843 0 372.75978011 0 4215.83196400 0 -403.42569093 0 359.56931956 0 16887
0.12350000 0.12352200 13521.52306853 0 95.68880265 0 4006.11105961 0 -437.67792776 0 712.04460060 0 16407
0.12450000 0.12449800 13545.43929014 0 344.18764592 0 4318.88209109 0 -190.47609662 0 139.41828519 0 16306
0.12550000 0.12549900 13291.55088205 0 235.13964048 0 4221.03595666 0 108.70110950 0 -43.76026359 0 17523
0.12650000 0.12650100 13120.37274035 0 245.85986537 0 4061.49482835 0 -188.56058443 0 -417.16312433 0 17154
0.12750000 0.12750600 12989.60858424 0 207.87514784 0 3821.19216281 0 450.14315104 0 309.73610724 0 18007
0.12850000 0.12850300 12777.79501046 0 -165.06068223 0 3696.03060306 0 732.78306499 0 320.36000291 0 17496
0.12950000 0.12949900 12970.45346231 0 -239.99485491 0 2975.36619759 0 848.91292938 0 52.28794672 0 18405
0.13050000 0.13049000 13220.68800321 0 -134.31394345 0 3153.19880650 0 762.18894524 0 74.92387541 0 18100
0.13150000 0.13148800 12964.91729990 0 260.60598756 0 2959.21167568 0 68.73976056 0 -144.82379416 0 19059
0.13250000 0.13249300 12741.03489206 0 385.99785167 0 2678.45073525 0 -356.24097872 0 193.70589377 0 18957
0.13350000 0.13349100 12458.80133244 0 355.57885369 0 2954.84917970 0 -410.88290170 0 393.84480826 0 19468
0.13450000 0.13450700 12290.16982545 0 295.86248425 0 3117.49055896 0 -302.93327088 0 -231.64410753 0 19953
0.13550000 0.13551000 11937.40555673 0 303.23000918 0 3419.05639772 0 -127.43249357 0 -130.17178673 0 19956
0.13650000 0.13649900 11712.41591641 0 269.78715930 0 3283.14361058 0 -26.24484224 0 -234.55723619 0 19723
0.13750000 0.13749600 11385.89305751 0 233.09679655 0 3149.95461533 0 530.00229379 0 -101.14624083 0 20946
0.13850000 0.13851100 11518.98240183 0 76.62591318 0 2815.11644049 0 496.76871085 0 -268.22042534 0 20955
0.13950000 0.13949800 11221.46903395 0 117.96565585 0 2709.35359382 0 135.69466235 0 -210.02539332 0 20506
0.14050000 0.14048300 11114.84254595 0 128.72020495 0 2237.80542445 0 364.74673864 0 -55.95676155 0 21447
0.14150000 0.14148400 10969.65115060 0 -14.23823465 0 2146.65804654 0 688.93444424 0 475.58624624 0 21771
0.14250000 0.14249400 11140.53033953 0 -126.45591452 0 1683.23696358 0 482.29275338 0 -274.44417912 0 22470
0.14350000 0.14350900 11094.91236128 0 -24.99378026 0 1851.56951780 0 299.14099963 0 -129.11216525 0 22519
0.14450000 0.14449900 10995.07320839 0 407.58334890 0 1631.23025391 0 -153.88870649 0 177.89461393 0 22218
0.14550000 0.14550500 10813.38743044 0 380.69088638 0 1811.03373664 0 -365.09440964 0 488.34488613 0 23559
0.14650000 0.14650700 10629.42075358 0 96.70646003 0 2156.06952264 0 -369.94076621 0 915.72555180 0 23044
0.14750000 0.14750500 10635.92020824 0 186.42030404 0 2730.13634751 0 -252.81882151 0 386.91464016 0 23649
0.14850000 0.14849900 10453.71403103 0 220.64264559 0 2992.06326342 0 -151.46940352 0 765.99450328 0 23640
0.14950000 0.14949500 10410.55410889 0 207.10783573 0 3292.74331619 0 -226.95276351 0 585.07493021 0 24457
0.15050000 0.15050000 10267.75433570 0 104.60556728 0 3264.36494768 0 -36.29851318 0 1236.82297154 0 24591
0.15150000 0.15149900 10124.11306583 0 91.14970310 0 3145.18244334 0 373.20267310 0 799.93228608 0 25020
0.15250000 0.15250500 10033.71860601 0 89.68715971 0 2852.72912790 0 418.77857652 0 807.62533736 0 25297
0.15350000 0.15350100 9983.69384248 0 52.99391815 0 2769.04449692 0 523.69771204 0 408.92863636 0 25452
0.15450000 0.15450400 9816.03670007 0 176.24815923 0 2264.46758261 0 193.01940963 0 363.88531177 0 26061
0.15550000 0.15549900 9710.26278108 0 201.53845635 0 2030.06646620 0 307.50724826 0 396.70811146 0 26128
0.15650000 0.15649500 9581.09303975 0 58.33808645 0 2023.37878201 0 84.10416137 0 293.02575463 0 26331
0.15750000 0.15749700 9499.84432023 0 128.44007513 0 1969.98803173 0 -30.33451614 0 333.70990494 0 27345
0.15850000 0.15849900 9237.09805228 0 219.37597163 0 2087.69791688 0 -117.43861319 0 70.61209068 0 26980
0.15950000 0.15949700 9125.36722254 0 315.75723748 0 2409.72541191 0 -319.83960364 0 226.42129191 0 27777
0.16050000 0.16050000 8870.05048454 0 247.67904833 0 2369.26713702 0 -188.23727254 0 271.08815746 0 28224
0.16150000 0.16150500 8868.32320187 0 66.00954670 0 2477.49911212 0 -170.46065505 0 40.37833270 0 28075
0.16250000 0.16249700 8743.38308862 0 110.20517411 0 2679.19258102 0 -135.07129046 0 326.78527300 0 28590
0.16350000 0.16349900 8779.61173542 0 80.29373150 0 2725.22023529 0 -24.55487330 0 -54.14920453 0 29163
0.16450000 0.16449100 8585.51388135 0 -11.97294772 0 2506.29822897 0 60.76126474 0 83.53116856 0 28996
0.16550000 0.16550500 8759.64833378 0 68.64431712 0 2413.25748352 0 146.09489705 0 -220.77994242 0 30777
0.16650000 0.16650700 8691.76391031 0 30.08328509 0 2395.24281104 0 266.39017004 0 118.84590567 0 29211
0.16750000 0.16749900 8767.67576927 0 -14.90035968 0 2334.61076034 0 203.03654190 0 -111.03991668 0 30922
0.16850000 0.16850800 8646.98742875 0 56.00913365 0 2293.03418064 0 256.10951645 0 10.46786446 0 30867
0.16950000 0.16949900 8619.38412297 0 160.02498891 0 2294.19677475 0 32.12801131 0 -178.64421032 0 30852
0.17050000 0.17049200 8587.78370794 0 106.99375702 0 2225.84731364 0 -51.15502645 0 67.17723408 0 31257
0.17150000 0.17149500 8496.85777653 0 84.36812559 0 2334.73255591 0 38.16973607 0 167.19653369 0 32608
0.17250000 0.17250900 8441.73974358 0 166.77578535 0 2208.71842715 0 -81.86234776 0 168.37462905 0 32361
0.17350000 0.17350400 8274.71372369 0 73.69285434 0 2367.76130084 0 45.62772190 0 310.47573854 0 32508
0.17450000 0.17449800 8326.26646805 0 51.11394812 0 2271.03347123 0 262.54696610 0 3.62475805 0 32791
0.17550000 0.17549800 8272.16708899 0 -4.56059094 0 2268.52005349 0 182.90373368 0 -48.18100000 0 33633
0.17650000 0.17650100 8149.65181487 0 212.87983866 0 2217.95274605 0 155.88283219 0 -166.01733110 0 33984
0.17750000 0.17750300 8045.61625087 0 133.84004794 0 2139.00707009 0 -51.07840596 0 227.64699827 0 34069
