### header ###
fiducial parameters:
Omega_m = 0.31
Omega_nu = 0
Omega_de = 0.69
Omega_k = 0
H_0 = 100
w_de = -1
zeff = 0
beta = 0
fgrowth = 0
b_1 = 2
gamma = 0.55
Lx = 3500 Ly = 3500 Lz = 3500
nx = 700 ny = 700 nz = 700
xoffset = -685.467585 yoffset = -31.7331281 zoffset = 572.489161
bins = 400 dk = 0.001
kx_ny = 0.628318531 ky_ny = 0.628318531 kz_ny = 0.628318531
############################
A(data) = 8.03642205 (not used)
A(ran) = 8.03567618 (used)
Ngal = 477714
weighted Ngal = 0
Nran = 23820508
weighted Nran = 0
SN(data) = 3487.27832
SN(ran) = 69.9936538
SN(data+ran) = 3557.27197
############################
13 columns: k_central k_mean P_0(k) sigma^{lin}_{P_0(k)} P^img_1(k) sigma^{lin}_{P_1(k)} P_2(k) sigma^{lin}_{P_2(k)} P^img_3(k) sigma^{lin}_{P_3(k)} P_4(k) sigma^{lin}_{P_4(k)} N_modes
### header ###
0.00050000 0 0 0 0 0 0 0 0 0 0 0 0
0.00150000 0.00179520 13139.86003203 0 -29235.25572791 0 -26256.02528895 0 -11666.13359867 0 27618.58558114 0 3
0.00250000 0.00253879 30287.45875542 0 -39074.78790124 0 -30203.53053330 0 -22155.61123886 0 -25141.15290296 0 6
0.00350000 0.00331552 52745.45518508 0 -37659.52334292 0 -36639.54078063 0 -39900.45116297 0 -39220.61041911 0 7
0.00450000 0.00420575 71654.32861737 0 -15996.29838875 0 -26774.32081371 0 -43449.57416034 0 11928.54769687 0 24
0.00550000 0.00557378 58858.37499421 0 14746.67580971 0 -9599.49524359 0 -45586.53285034 0 26266.98689052 0 45
0.00650000 0.00659388 52026.63985786 0 19760.99955033 0 4146.79601875 0 -29865.38173333 0 25382.41886076 0 40
0.00750000 0.00754703 38777.93887286 0 1831.71683940 0 1853.25251117 0 21760.32924284 0 10256.33876881 0 57
0.00850000 0.00846663 40571.65549348 0 -1213.20570270 0 14915.19659345 0 7050.59070872 0 5820.96474831 0 75
0.00950000 0.00948925 43493.64201312 0 -4716.79930042 0 -4618.69850253 0 7761.22358790 0 4918.64778186 0 112
0.01050000 0.01054430 44038.73256394 0 -6029.65592649 0 -3451.94120244 0 -281.21379851 0 4612.61979620 0 105
0.01150000 0.01145670 56392.56825710 0 -10547.70699641 0 -12695.97053005 0 11415.23471828 0 7691.64509874 0 144
0.01250000 0.01249090 64373.72143287 0 -19114.81867392 0 -4575.17319366 0 -8914.58337496 0 -18338.75942738 0 169
0.01350000 0.01339930 72419.75843209 0 1173.55570753 0 1194.65955863 0 -4494.38951179 0 -14183.53736944 0 180
0.01450000 0.01448870 73031.94727131 0 2456.76064774 0 -12962.03849544 0 -21943.79766508 0 -35199.25276822 0 267
0.01550000 0.01550050 70975.26293625 0 6772.93001924 0 1314.08565413 0 -17697.56109713 0 -17539.66974522 0 238
0.01650000 0.01653350 67074.48290264 0 2409.47074844 0 5397.47046864 0 -18197.80873244 0 -25632.43195517 0 315
0.01750000 0.01747870 62729.92409030 0 377.58842097 0 10593.73465069 0 -685.26396856 0 -22002.70243312 0 297
0.01850000 0.01844180 64025.05392433 0 204.34086176 0 4090.55968100 0 -4707.65356012 0 -22708.12024731 0 388
0.01950000 0.01947590 69217.53137129 0 -3104.92347029 0 16370.10007462 0 -6779.05301487 0 -29991.38478977 0 399
0.02050000 0.02045430 68106.53429898 0 -277.00631508 0 19067.20767720 0 -15202.30197600 0 -26897.11289595 0 462
0.02150000 0.02154770 66479.45616688 0 7407.13064020 0 26115.84965675 0 -5024.41062853 0 -10482.95604087 0 571
0.02250000 0.02255340 68201.31339943 0 1026.02805164 0 37061.83924921 0 -3370.34924085 0 -9545.94948077 0 510
0.02350000 0.02348930 62344.71790986 0 739.90810601 0 34216.69466381 0 13699.56605161 0 -3758.07991135 0 555
0.02450000 0.02439640 69627.31811282 0 -2382.09996148 0 28411.47476140 0 15275.37931980 0 677.97837883 0 592
0.02550000 0.02547300 67598.31458981 0 -951.47698141 0 23164.74292283 0 7854.97296214 0 -4009.01200871 0 837
0.02650000 0.02652900 69696.07724995 0 -1545.58582143 0 19310.13448372 0 6419.62320660 0 -4162.77338347 0 723
0.02750000 0.02749970 69783.77006251 0 -1883.02599261 0 19257.09804784 0 2983.52650098 0 -8527.42846535 0 826
0.02850000 0.02848090 68956.11378232 0 3408.00621756 0 12665.07874381 0 -9400.66950683 0 -8321.47215140 0 831
0.02950000 0.02946900 64971.51624983 0 3454.33282460 0 11687.72463207 0 -1669.50728081 0 -7275.77965088 0 996
0.03050000 0.03053250 64720.61736944 0 1978.53586649 0 18895.36519601 0 144.37093608 0 -10382.87329684 0 1041
0.03150000 0.03150510 59465.91345701 0 2999.00561108 0 18887.61456864 0 714.23027752 0 -7960.45900069 0 1036
0.03250000 0.03246190 60428.54137674 0 5335.42116036 0 25086.23417186 0 4091.79978138 0 -11143.29842073 0 1059
0.03350000 0.03345080 57186.23250010 0 825.81052365 0 22273.19932844 0 -3530.93116769 0 5534.12510156 0 1302
0.03450000 0.03451200 57572.76735952 0 3340.87471218 0 32111.84571579 0 4665.85553393 0 3817.58258492 0 1339
0.03550000 0.03553350 55613.63020610 0 2895.82261609 0 30319.23632765 0 1706.76565382 0 9622.97964454 0 1365
0.03650000 0.03647120 54081.55262095 0 3298.72237160 0 31624.55270052 0 4225.09949987 0 10720.63456543 0 1308
0.03750000 0.03744890 50736.93546298 0 2258.46638256 0 28457.20346290 0 3065.52813859 0 9163.31207969 0 1579
0.03850000 0.03847530 48452.60412964 0 1107.46500069 0 23363.26970683 0 7276.21147155 0 5887.45405884 0 1662
0.03950000 0.03950240 48312.87139043 0 -179.01734767 0 22829.69437382 0 4108.62971510 0 2627.11943740 0 1683
0.04050000 0.04050350 47242.17758047 0 -553.96944809 0 20005.58720558 0 4938.41188166 0 3902.35230373 0 1822
0.04150000 0.04152450 46117.89371838 0 1681.18858349 0 17686.15660257 0 460.45259268 0 -1145.79738921 0 1887
0.04250000 0.04250150 46160.85433868 0 1832.50297446 0 19620.60247163 0 537.05204300 0 -421.09158518 0 1920
0.04350000 0.04349210 45221.14613132 0 2676.55736771 0 20989.47398896 0 -4996.35335744 0 -5562.25987892 0 2005
0.04450000 0.04448520 42923.30656171 0 3653.00354882 0 22864.24002726 0 -5243.16654997 0 665.58180396 0 2151
0.04550000 0.04548030 39508.38014114 0 1932.99539451 0 23062.76681125 0 -232.60961426 0 373.23035392 0 2274
0.04650000 0.04648670 40069.30411645 0 -734.14938987 0 25074.27606106 0 3653.92255178 0 -1377.36399047 0 2311
0.04750000 0.04749250 40324.29975703 0 -505.32540347 0 24026.39124022 0 6856.79180742 0 -4530.50743534 0 2568
0.04850000 0.04851840 40442.22001635 0 658.21427903 0 19379.00434409 0 6010.65581710 0 -6105.39062825 0 2493
0.04950000 0.04949480 36795.10694433 0 1560.86562968 0 13554.62931974 0 2671.23157947 0 -259.19094445 0 2644
0.05050000 0.05050630 37458.11775447 0 277.52671435 0 12991.38015621 0 2008.33149258 0 -4247.69811483 0 2829
0.05150000 0.05149060 34937.72445600 0 935.33463906 0 13077.41212005 0 2677.28814115 0 -206.80999020 0 2784
0.05250000 0.05249300 35331.23488006 0 1875.86219845 0 11486.20832037 0 592.80784186 0 -1221.75353746 0 3055
0.05350000 0.05348950 33329.91216909 0 1140.15050355 0 12547.26920774 0 -1125.85613221 0 -1818.31932637 0 3009
0.05450000 0.05448610 32988.22022519 0 1076.10485510 0 11316.24813440 0 -820.71946869 0 -5113.18852893 0 3336
0.05550000 0.05550870 31325.48920717 0 1155.89534944 0 13222.79174492 0 -650.53230007 0 -2993.19264055 0 3349
0.05650000 0.05647670 32290.99593136 0 -805.30789978 0 11176.40467194 0 -290.49683564 0 -3458.48494640 0 3324
0.05750000 0.05747970 31985.39976636 0 -661.58248024 0 10790.86632176 0 -174.12448733 0 -4336.97426984 0 3639
0.05850000 0.05849280 33036.49556140 0 329.06285022 0 10101.75804202 0 2052.36612838 0 -6349.29179935 0 3846
0.05950000 0.05951020 32885.24760437 0 -461.24869283 0 10163.66341008 0 2975.73158431 0 -5964.56172888 0 3787
0.06050000 0.06049470 32293.32111957 0 177.96879851 0 7094.63641685 0 1889.53651960 0 -2394.22415716 0 3930
0.06150000 0.06148310 32606.00357245 0 -41.11763183 0 7203.17841704 0 2806.34715923 0 -3253.80194981 0 4083
0.06250000 0.06249100 32953.67457175 0 -557.21363927 0 7058.44098701 0 1643.54267911 0 -660.75980650 0 4303
0.06350000 0.06350600 32888.01568558 0 598.21777977 0 7615.83289071 0 -72.84305341 0 -1473.11745550 0 4470
0.06450000 0.06451750 32661.36519654 0 1068.80487135 0 7359.27605234 0 -1471.54518537 0 -454.36281403 0 4479
0.06550000 0.06550280 31238.12856435 0 1655.08004157 0 7843.32487643 0 -1964.79511139 0 -471.86262340 0 4636
0.06650000 0.06648880 31040.93045933 0 1107.75288113 0 9661.15702051 0 -2142.40627381 0 -2356.12428746 0 4653
0.06750000 0.06749660 29624.22649878 0 297.74699393 0 9209.71619300 0 289.24455570 0 -1553.60218460 0 5220
0.06850000 0.06852730 28743.86595245 0 762.99501049 0 8807.33683677 0 281.13075608 0 -2322.76337278 0 5029
0.06950000 0.06949320 29234.03777218 0 -30.50956959 0 9823.99770162 0 2440.03036493 0 -1758.51770002 0 5040
0.07050000 0.07048030 28406.60293848 0 -188.74549225 0 8781.22829485 0 1549.79330487 0 -5237.29821782 0 5475
0.07150000 0.07148790 28888.91340758 0 553.33611111 0 8704.97319382 0 1936.05135616 0 -747.29777559 0 5509
0.07250000 0.07249820 28447.57054031 0 433.39625975 0 8752.05271895 0 1025.19209112 0 -211.85121969 0 5916
0.07350000 0.07351270 27937.46853591 0 724.43342484 0 8467.62683901 0 1031.26747575 0 1395.77726664 0 5721
0.07450000 0.07449140 27202.93050744 0 209.97446063 0 9274.67752271 0 870.68665614 0 4218.79934705 0 6028
0.07550000 0.07549160 27259.62081051 0 1083.66393126 0 9363.12325337 0 719.95799115 0 2410.44511302 0 6183
0.07650000 0.07648840 25937.25305742 0 1169.06034365 0 9163.50030921 0 -15.63080095 0 4527.10823163 0 6330
0.07750000 0.07749960 25207.69757512 0 1251.44951263 0 10008.14153568 0 568.64581464 0 5277.62362481 0 6583
0.07850000 0.07848650 24835.11384498 0 337.86977738 0 9470.45837016 0 -362.02848290 0 4674.06012662 0 6549
0.07950000 0.07947320 24098.58279804 0 -150.75080964 0 9788.77663637 0 217.71290844 0 2528.95220555 0 6828
0.08050000 0.08048110 24848.95425100 0 -229.17165740 0 10683.49798799 0 -612.54758255 0 2603.18107114 0 7147
0.08150000 0.08149960 24575.68927447 0 440.24227818 0 10360.78400883 0 -617.87226355 0 1499.29243137 0 7386
0.08250000 0.08250610 24362.65774496 0 688.10401988 0 10506.61759901 0 -374.14271348 0 1850.37370672 0 7227
0.08350000 0.08350160 24121.05961742 0 -315.26341179 0 9320.49480281 0 256.85136221 0 -814.93860791 0 7798
0.08450000 0.08449610 24172.43520458 0 144.61341999 0 8708.68242264 0 678.80215980 0 -710.89529328 0 7371
0.08550000 0.08548940 23693.11426318 0 498.20700584 0 8612.36426904 0 1091.09456844 0 -707.82050868 0 8256
0.08650000 0.08650700 23021.35631643 0 687.77849353 0 7713.15862587 0 433.20692299 0 -1254.35046173 0 8037
0.08750000 0.08749060 22331.32903374 0 949.55925475 0 7098.15741614 0 1051.36817422 0 -975.41645490 0 8155
0.08850000 0.08849210 21464.03383069 0 468.51878131 0 6811.76066238 0 1618.39742944 0 -871.63776884 0 8718
0.08950000 0.08949900 20984.26999630 0 457.95024727 0 6120.37148373 0 846.61431475 0 -579.90083282 0 8571
0.09050000 0.09049190 20590.98101874 0 642.69309410 0 6096.41097282 0 296.41277879 0 140.88536822 0 8932
0.09150000 0.09150830 20020.64556733 0 563.09415098 0 6892.48898263 0 417.14097968 0 1631.29668786 0 9285
0.09250000 0.09250820 19562.80493608 0 684.79893092 0 6623.94081648 0 -37.49244196 0 1730.33863336 0 9204
0.09350000 0.09350330 19206.49752342 0 449.10899590 0 6011.05442079 0 -205.22221882 0 1587.93746387 0 9349
0.09450000 0.09448040 18525.21737733 0 345.26166142 0 6256.99289967 0 229.57358279 0 890.89807786 0 9564
0.09550000 0.09549270 18586.00444058 0 406.43514882 0 6082.22732473 0 -286.15316261 0 98.72018374 0 10155
0.09650000 0.09649430 18014.22958694 0 533.00400105 0 6620.60804671 0 -623.26227127 0 -626.55075175 0 9913
0.09750000 0.09749140 17396.94747831 0 818.13075915 0 6192.70698177 0 -180.31280967 0 -336.77361722 0 10476
0.09850000 0.09850240 17037.09692170 0 83.12282122 0 5898.05027370 0 -167.31168587 0 -1238.29559074 0 10575
0.09950000 0.09950330 16966.01259636 0 -15.39462826 0 6365.08093455 0 -60.70701035 0 -2209.39383896 0 10882
0.10050000 0.10051200 17095.78024324 0 335.99412555 0 6150.74287071 0 457.65461619 0 -2011.83034722 0 10875
0.10150000 0.10150300 16994.46847115 0 135.01039268 0 6254.74521773 0 194.83194921 0 -935.69116791 0 11118
0.10250000 0.10250800 16889.72427836 0 24.79458914 0 5652.82042361 0 1228.15334121 0 -263.43939548 0 11575
0.10350000 0.10349800 16911.64748150 0 25.04814537 0 5337.94565042 0 1187.66184935 0 142.15536388 0 11364
0.10450000 0.10450100 16539.72809085 0 237.58440980 0 5271.40097826 0 1008.83716013 0 -488.02268147 0 12093
0.10550000 0.10551000 16333.56140272 0 309.49805226 0 4933.59542037 0 554.12888957 0 400.93663231 0 12067
0.10650000 0.10649700 16107.68597642 0 61.24036423 0 4647.38689613 0 -147.50551123 0 -36.25787774 0 12054
0.10750000 0.10749900 16033.83356988 0 49.35643800 0 5017.37970227 0 -152.64085548 0 490.21610902 0 12807
0.10850000 0.10850100 16052.76724532 0 415.37826557 0 4883.33813802 0 -882.64255248 0 288.70865518 0 12736
0.10950000 0.10950300 15680.07279193 0 314.70093769 0 5405.76363993 0 -228.50621068 0 574.93600237 0 12933
0.11050000 0.11050200 15541.44728520 0 237.86011068 0 5291.14293341 0 -185.16248794 0 390.54968440 0 13428
0.11150000 0.11150900 15464.82679745 0 190.85255567 0 5504.59521127 0 528.47984913 0 -431.63908180 0 13453
0.11250000 0.11250000 15178.82864739 0 294.67774549 0 5532.08779379 0 130.61025079 0 -115.31494129 0 13668
0.11350000 0.11349100 14988.49538375 0 382.39159547 0 5557.25518810 0 -138.16932695 0 -466.29213679 0 13791
0.11450000 0.11448600 14889.17663013 0 276.44494821 0 5674.75469908 0 -47.01851662 0 -69.68555854 0 14205
0.11550000 0.11549300 14655.88274620 0 -96.38115513 0 5575.72382590 0 -0.93526045 0 224.09610370 0 14776
0.11650000 0.11649800 15066.55527372 0 -75.66284237 0 5619.07197757 0 195.85392479 0 285.93835951 0 14553
0.11750000 0.11747300 15044.52134734 0 -131.70641095 0 5575.23664361 0 784.14425812 0 228.09542743 0 14568
0.11850000 0.11849100 14972.10834302 0 186.64728670 0 5735.99572765 0 846.60767135 0 -88.34154007 0 16015
0.11950000 0.11950300 14683.78500474 0 648.22814928 0 5323.47412188 0 283.82686717 0 762.20444649 0 15270
0.12050000 0.12050700 14137.47649819 0 575.94026223 0 5430.42170731 0 6.30460390 0 176.22380012 0 15999
0.12150000 0.12150000 13760.68528461 0 169.42207098 0 4939.38624625 0 654.59695051 0 1120.57463327 0 15670
0.12250000 0.12250700 13616.96650847 0 71.59653108 0 5105.89186687 0 706.69998941 0 513.53663955 0 16887
0.12350000 0.12352200 13520.41583605 0 -33.27931164 0 4268.34800061 0 334.13508221 0 815.74356592 0 16407
0.12450000 0.12449800 13581.42434580 0 99.60530539 0 4592.64532223 0 369.42922481 0 1070.05936575 0 16306
0.12550000 0.12549900 13494.17442623 0 131.67540844 0 4223.12862605 0 283.06287676 0 1596.46315398 0 17523
0.12650000 0.12650100 13402.60629998 0 71.51182780 0 4663.19817597 0 417.56062079 0 1432.13878134 0 17154
0.12750000 0.12750600 13169.97675554 0 458.70980875 0 4612.69730247 0 -65.93192970 0 1500.15607270 0 18007
0.12850000 0.12850300 12983.51880559 0 335.39732724 0 4688.08876216 0 19.28178933 0 1856.67385954 0 17496
0.12950000 0.12949900 12714.68275900 0 167.91512757 0 4644.90669537 0 9.56187148 0 2213.14735708 0 18405
0.13050000 0.13049000 12671.27924571 0 290.74042679 0 4477.42671016 0 -81.79447441 0 2118.78900497 0 18100
0.13150000 0.13148800 12546.49414500 0 -21.98996926 0 4395.71295300 0 345.78538239 0 1781.61456959 0 19059
0.13250000 0.13249300 12359.15040907 0 167.87415997 0 3862.79088716 0 600.84634968 0 1591.72419895 0 18957
0.13350000 0.13349100 12207.45955905 0 55.44322713 0 3575.35333486 0 579.02944086 0 1068.19035732 0 19468
0.13450000 0.13450700 12185.09346292 0 26.30319339 0 3614.27255660 0 487.41038191 0 663.98406749 0 19953
0.13550000 0.13551000 11989.66692987 0 389.64950439 0 3283.56435892 0 51.91270564 0 146.67730134 0 19956
0.13650000 0.13649900 11718.06280207 0 92.16204575 0 3081.89303467 0 -33.56154520 0 451.03115149 0 19723
0.13750000 0.13749600 11562.71808486 0 103.94477093 0 3105.45494189 0 -334.51707742 0 -171.38519417 0 20946
0.13850000 0.13851100 11532.37991486 0 65.45537684 0 3197.73169692 0 -116.06675214 0 -203.46171917 0 20955
0.13950000 0.13949800 11397.07610558 0 253.58945532 0 3090.16406131 0 -34.19765027 0 -437.67239159 0 20506
0.14050000 0.14048300 11457.86316883 0 5.76018876 0 3144.55132082 0 81.64045837 0 -9.14378050 0 21447
0.14150000 0.14148400 11354.55837827 0 41.01510210 0 3145.21566031 0 -150.03000129 0 -447.41493020 0 21771
0.14250000 0.14249400 11332.19228214 0 265.25304229 0 3517.50043769 0 -213.13893106 0 -222.27913520 0 22470
0.14350000 0.14350900 11087.82607339 0 370.76233271 0 3895.73105349 0 -163.14959897 0 -157.28237405 0 22519
0.14450000 0.14449900 10800.22243623 0 362.46805419 0 3824.41420933 0 314.69318707 0 490.29915146 0 22218
0.14550000 0.14550500 10506.17470602 0 185.78475260 0 3761.13587300 0 566.81777381 0 466.68741878 0 23559
0.14650000 0.14650700 10456.24959341 0 -33.60439510 0 3437.46967390 0 533.80785183 0 670.66067936 0 23044
0.14750000 0.14750500 10541.26290337 0 -73.98372431 0 3238.53321388 0 602.05101862 0 432.09526158 0 23649
0.14850000 0.14849900 10273.76660808 0 160.17114359 0 3050.02688384 0 339.36343399 0 522.05790073 0 23640
0.14950000 0.14949500 10215.94692787 0 260.23174298 0 2662.96055283 0 -167.33161605 0 459.27006839 0 24457
0.15050000 0.15050000 9948.25133073 0 225.20555065 0 2920.73534694 0 156.87823419 0 764.37794386 0 24591
0.15150000 0.15149900 9883.10177150 0 166.06937102 0 2911.67818523 0 -87.48697805 0 680.50286889 0 25020
0.15250000 0.15250500 9825.45924849 0 40.18578497 0 2850.50359061 0 30.17640334 0 455.80664518 0 25297
0.15350000 0.15350100 9770.30799857 0 77.21252495 0 3023.16542383 0 -119.92545734 0 629.94220484 0 25452
0.15450000 0.15450400 9781.62391454 0 152.06288013 0 3002.85878012 0 38.09278341 0 722.65631671 0 26061
0.15550000 0.15549900 9656.36270386 0 37.91352247 0 3297.85873026 0 99.91068011 0 703.14466591 0 26128
0.15650000 0.15649500 9518.74477869 0 254.52506677 0 2967.51591930 0 44.31631575 0 741.48480506 0 26331
0.15750000 0.15749700 9424.07640149 0 252.61619797 0 3301.16935538 0 123.61697044 0 848.86642562 0 27345
0.15850000 0.15849900 9146.37142272 0 115.95049273 0 2952.64578706 0 117.71099238 0 1069.36402375 0 26980
0.15950000 0.15949700 9185.61174187 0 1.27486748 0 2912.90721329 0 302.40401375 0 1061.97324694 0 27777
0.16050000 0.16050000 9270.56969021 0 -46.00351660 0 3015.53659203 0 142.11439628 0 958.20674043 0 28224
0.16150000 0.16150500 9294.82915388 0 106.76013096 0 2914.87808711 0 135.96814877 0 607.89499166 0 28075
0.16250000 0.16249700 9043.03341518 0 242.76072165 0 2841.57929681 0 -107.34021006 0 956.50049518 0 28590
0.16350000 0.16349900 8878.16649863 0 225.94518195 0 2971.47981158 0 -130.67004135 0 393.52592531 0 29163
0.16450000 0.16449100 8845.53635739 0 126.33633341 0 3073.10160877 0 -79.12704064 0 715.00423302 0 28996
0.16550000 0.16550500 8654.40588637 0 134.00391835 0 3168.75542287 0 -156.35562046 0 446.80595234 0 30777
0.16650000 0.16650700 8656.48748344 0 226.47554631 0 3265.43896319 0 -123.97460653 0 516.79190305 0 29211
0.16750000 0.16749900 8378.89322791 0 157.88581575 0 3116.62691763 0 162.92815247 0 668.91014480 0 30922
0.16850000 0.16850800 8420.94591757 0 -55.24636119 0 2953.77516420 0 450.13429318 0 914.58620958 0 30867
0.16950000 0.16949900 8496.11593077 0 -115.34372933 0 2804.01089870 0 496.64580804 0 550.35433404 0 30852
0.17050000 0.17049200 8517.72910881 0 -24.02661269 0 2518.92067927 0 569.32454815 0 739.39988630 0 31257
0.17150000 0.17149500 8520.71863651 0 81.98104308 0 2224.07574167 0 432.75849384 0 685.70243262 0 32608
0.17250000 0.17250900 8326.88651824 0 102.80498582 0 1678.40942996 0 277.66290394 0 560.25963582 0 32361
0.17350000 0.17350400 8337.80383051 0 32.29575703 0 1741.07878843 0 206.02385513 0 541.09897772 0 32508
0.17450000 0.17449800 8196.73134000 0 50.40399066 0 1569.46882607 0 -184.80706632 0 159.12702336 0 32791
0.17550000 0.17549800 8179.41422398 0 199.69159257 0 1805.01039194 0 -110.30194623 0 111.74300930 0 33633
0.17650000 0.17650100 8019.27519013 0 203.29341983 0 1897.69682299 0 -350.01390324 0 -108.16653766 0 33984
0.17750000 0.17750300 7907.21219064 0 355.81690867 0 2141.71978967 0 -375.90764206 0 60.57126364 0 34069
0.17850000 0.17849800 7655.61575378 0 208.02683869 0 2100.51966902 0 -286.37128741 0 -29.61005392 0 34536
