### header ###
fiducial parameters:
Omega_m = 0.31
Omega_nu = 0
Omega_de = 0.69
Omega_k = 0
H_0 = 100
w_de = -1
zeff = 0
beta = 0
fgrowth = 0
b_1 = 2
gamma = 0.55
Lx = 3500 Ly = 3500 Lz = 3500
nx = 700 ny = 700 nz = 700
xoffset = -685.467585 yoffset = -31.7331281 zoffset = 572.489161
bins = 400 dk = 0.001
kx_ny = 0.628318531 ky_ny = 0.628318531 kz_ny = 0.628318531
############################
A(data) = 8.02706546 (not used)
A(ran) = 8.02023144 (used)
Ngal = 476134
weighted Ngal = 0
Nran = 23820508
weighted Nran = 0
SN(data) = 3496.21203
SN(ran) = 69.8591245
SN(data+ran) = 3566.07116
############################
13 columns: k_central k_mean P_0(k) sigma^{lin}_{P_0(k)} P^img_1(k) sigma^{lin}_{P_1(k)} P_2(k) sigma^{lin}_{P_2(k)} P^img_3(k) sigma^{lin}_{P_3(k)} P_4(k) sigma^{lin}_{P_4(k)} N_modes
### header ###
0.00050000 0 0 0 0 0 0 0 0 0 0 0 0
0.00150000 0.00179520 10201.63041188 0 -19362.94947310 0 -14043.14029074 0 36851.35435441 0 -11923.67587395 0 3
0.00250000 0.00253879 28470.26880619 0 -39319.26483324 0 -26618.97609651 0 -15991.64801232 0 -677.22435351 0 6
0.00350000 0.00331552 46373.44297520 0 -37465.86838185 0 -43965.10160390 0 32445.67630907 0 5521.96768891 0 7
0.00450000 0.00420575 76363.05619300 0 -33757.41463034 0 -40159.43284048 0 -27483.28177185 0 -23453.17698436 0 24
0.00550000 0.00557378 84933.69994212 0 2684.35228438 0 -48536.20018203 0 -20345.95047050 0 10128.67486365 0 45
0.00650000 0.00659388 72423.30157603 0 19577.64185134 0 -23042.61518008 0 -32118.15694094 0 32358.86928249 0 40
0.00750000 0.00754703 61975.12370741 0 1184.99341907 0 -50188.52321471 0 -18960.58118919 0 -11842.51573303 0 57
0.00850000 0.00846663 55740.07615553 0 -3972.07473312 0 1920.15149772 0 -1617.37877556 0 6159.53429661 0 75
0.00950000 0.00948925 62242.18818203 0 -2369.52180049 0 -4290.78053070 0 -20016.21663740 0 3780.84461117 0 112
0.01050000 0.01054430 63860.29773103 0 -749.31183147 0 11845.94815373 0 -14665.84783854 0 9627.05426007 0 105
0.01150000 0.01145670 57956.42341448 0 6779.16373811 0 22484.12711623 0 -13809.84640681 0 12865.15565328 0 144
0.01250000 0.01249090 61228.95973788 0 8594.22780099 0 12810.67981517 0 -7312.39582906 0 7189.37122800 0 169
0.01350000 0.01339930 57983.10771729 0 -753.32997815 0 28164.11902495 0 -5726.45138366 0 8744.72283992 0 180
0.01450000 0.01448870 62632.04473890 0 -8320.07703848 0 24057.83664271 0 -9826.19002193 0 -15862.76615143 0 267
0.01550000 0.01550050 74807.50527923 0 -8239.99091306 0 35163.82132880 0 -4282.75309520 0 -2497.15248867 0 238
0.01650000 0.01653350 81681.75814288 0 -3070.86499915 0 20442.83331267 0 -2719.42940941 0 -25653.58009557 0 315
0.01750000 0.01747870 83221.80780191 0 1537.79090476 0 31515.26885456 0 6770.50518011 0 -2515.77613902 0 297
0.01850000 0.01844180 79079.31891751 0 1439.20292458 0 19507.44331199 0 15274.93642681 0 -8859.54284829 0 388
0.01950000 0.01947590 86004.17230559 0 -1985.68858833 0 19471.45825633 0 21025.01615163 0 -765.89374512 0 399
0.02050000 0.02045430 80409.10512823 0 -2648.99835124 0 12137.92535919 0 27374.77298863 0 4432.50628837 0 462
0.02150000 0.02154770 82590.24239425 0 -320.07212246 0 17621.16205588 0 19129.76631242 0 -963.59896262 0 571
0.02250000 0.02255340 80358.39388056 0 2833.26398087 0 11997.97117349 0 8056.19032107 0 22504.94308689 0 510
0.02350000 0.02348930 74673.41942567 0 9401.85424558 0 9066.37387590 0 -4662.10201581 0 16795.60951740 0 555
0.02450000 0.02439640 71812.10924604 0 6131.77597829 0 1589.35472144 0 -9981.99977678 0 23724.55966567 0 592
0.02550000 0.02547300 64772.76801934 0 3189.89249095 0 5600.39296560 0 -8684.30116338 0 10352.00365524 0 837
0.02650000 0.02652900 64174.86247913 0 1156.78113543 0 8446.17974583 0 -8977.70669875 0 2140.96687158 0 723
0.02750000 0.02749970 63917.87382009 0 1407.12639958 0 11619.62983443 0 -5431.18569772 0 -15783.59902898 0 826
0.02850000 0.02848090 63904.58703031 0 -1455.98856900 0 6382.17660407 0 -9699.07973301 0 -19233.29254948 0 831
0.02950000 0.02946900 61541.31002101 0 -2072.57312118 0 9508.99006053 0 4432.58379465 0 -28031.80474337 0 996
0.03050000 0.03053250 66976.60355124 0 -3930.06633275 0 11850.59853015 0 -4371.15453655 0 -14954.94623955 0 1041
0.03150000 0.03150510 69805.58254240 0 -596.73187378 0 9156.34758738 0 7781.80703974 0 -17606.10369413 0 1036
0.03250000 0.03246190 67155.75376681 0 5185.88941369 0 12170.25654766 0 -1910.07568214 0 -10915.55177154 0 1059
0.03350000 0.03345080 64203.42907716 0 7203.08983845 0 17022.92434593 0 1378.06154693 0 308.02100413 0 1302
0.03450000 0.03451200 55980.67777384 0 7253.61285659 0 18022.64455381 0 -3279.72226221 0 978.58203256 0 1339
0.03550000 0.03553350 52024.09322315 0 7442.99390029 0 21026.12338411 0 1581.73696197 0 12368.56188517 0 1365
0.03650000 0.03647120 47737.77483935 0 536.28140920 0 19178.92743462 0 2812.80232460 0 7210.95118907 0 1308
0.03750000 0.03744890 47032.46774840 0 -295.44395037 0 16632.40344958 0 6154.09778513 0 4276.61902725 0 1579
0.03850000 0.03847530 46649.69747942 0 -44.76795588 0 15303.39230160 0 3903.85813991 0 786.72300257 0 1662
0.03950000 0.03950240 47918.80735014 0 615.17947416 0 16776.01150248 0 -1245.02756423 0 -5676.50412640 0 1683
0.04050000 0.04050350 46294.16512950 0 2634.10607436 0 12589.78693504 0 -1047.32788290 0 910.51823744 0 1822
0.04150000 0.04152450 43514.90087677 0 1908.03837437 0 16269.89553502 0 -1754.19949334 0 117.36110692 0 1887
0.04250000 0.04250150 42545.74028539 0 1236.74546527 0 15464.27318121 0 768.39941223 0 2286.01432671 0 1920
0.04350000 0.04349210 45059.49018897 0 -868.02376202 0 20574.04036177 0 1549.49435210 0 -1154.51130884 0 2005
0.04450000 0.04448520 42459.59759830 0 1216.36131528 0 19517.62985082 0 930.29119510 0 4169.49428463 0 2151
0.04550000 0.04548030 42652.25605015 0 1901.47248576 0 21986.20466914 0 2072.78349535 0 6163.08851288 0 2274
0.04650000 0.04648670 39729.38374452 0 2461.69890460 0 19945.13231207 0 5202.59755184 0 11177.73335092 0 2311
0.04750000 0.04749250 39687.41963346 0 790.14988710 0 20276.41627064 0 3788.45129832 0 10353.44305747 0 2568
0.04850000 0.04851840 38786.46456297 0 -1054.90024584 0 17046.39767455 0 7495.57637085 0 6726.39303803 0 2493
0.04950000 0.04949480 40250.77952023 0 -870.50507001 0 17916.90385179 0 2185.63262990 0 8652.55680813 0 2644
0.05050000 0.05050630 37983.94246011 0 799.05425072 0 11956.56067866 0 758.30145199 0 6437.53822816 0 2829
0.05150000 0.05149060 39887.38581968 0 1022.07966061 0 14326.48108285 0 -463.28046443 0 9805.71729334 0 2784
0.05250000 0.05249300 38571.77218473 0 -1136.83987843 0 11769.65983572 0 129.88944245 0 6592.57292027 0 3055
0.05350000 0.05348950 38731.10293887 0 240.90389278 0 11510.12454198 0 1912.54481057 0 3667.15397994 0 3009
0.05450000 0.05448610 37529.53424955 0 2153.51181560 0 12894.94020704 0 -158.00207516 0 2779.61856712 0 3336
0.05550000 0.05550870 35907.54938687 0 1649.52173451 0 11733.45333357 0 979.04153404 0 2656.78219558 0 3349
0.05650000 0.05647670 35078.23225795 0 -299.66914952 0 11995.97815502 0 1144.26940838 0 2382.49856518 0 3324
0.05750000 0.05747970 36692.68793976 0 -507.25641692 0 13859.11825225 0 1853.93899531 0 4408.31325865 0 3639
0.05850000 0.05849280 35727.95627831 0 253.61824337 0 12341.76685910 0 1026.33918397 0 3218.60302921 0 3846
0.05950000 0.05951020 36121.68814886 0 741.40176262 0 10347.03218140 0 -181.13548341 0 4009.38846776 0 3787
0.06050000 0.06049470 36521.95269106 0 921.75664713 0 13111.18271075 0 1487.30110359 0 1666.99386307 0 3930
0.06150000 0.06148310 34850.80670618 0 1453.08761990 0 13629.92112851 0 -3318.46432675 0 1511.69343516 0 4083
0.06250000 0.06249100 34363.95658390 0 2271.65352142 0 16317.94942473 0 -4412.62039300 0 1693.78888913 0 4303
0.06350000 0.06350600 32683.06695318 0 1631.32990483 0 17433.48615021 0 -450.85288706 0 4082.73154735 0 4470
0.06450000 0.06451750 31979.97432720 0 210.73734381 0 16675.91768612 0 1317.48485785 0 3921.31919615 0 4479
0.06550000 0.06550280 32246.48518558 0 -672.15876491 0 16426.12603821 0 4026.94917492 0 1429.85788243 0 4636
0.06650000 0.06648880 31897.70695380 0 -199.02503862 0 15794.33918405 0 3586.48102131 0 1362.99211285 0 4653
0.06750000 0.06749660 32254.78942920 0 451.64455828 0 13131.88795816 0 3359.93018319 0 444.09212552 0 5220
0.06850000 0.06852730 31428.12965824 0 444.00354693 0 11355.00127127 0 1688.92813854 0 682.13935850 0 5029
0.06950000 0.06949320 31165.60483679 0 884.41744614 0 10243.52808900 0 325.04359631 0 1654.34926813 0 5040
0.07050000 0.07048030 29406.76603935 0 1384.59421857 0 10325.99476425 0 -1006.02700409 0 214.15758494 0 5475
0.07150000 0.07148790 29018.12743821 0 1816.04949978 0 11479.01130924 0 -868.44561759 0 710.01615069 0 5509
0.07250000 0.07249820 27369.79044246 0 624.09158840 0 11602.35700771 0 -373.11630897 0 1164.88607720 0 5916
0.07350000 0.07351270 27123.76338499 0 -63.68790163 0 11873.96113552 0 726.43197947 0 -291.77347469 0 5721
0.07450000 0.07449140 27740.93477038 0 -45.62251791 0 11806.97357036 0 711.55520384 0 -44.90071305 0 6028
0.07550000 0.07549160 27000.30696326 0 362.48798438 0 11257.78625936 0 855.51535667 0 -1522.09034817 0 6183
0.07650000 0.07648840 26422.77450072 0 675.85913586 0 10055.95183424 0 559.97618431 0 -15.98976572 0 6330
0.07750000 0.07749960 26212.06815942 0 564.56234125 0 9916.81700057 0 610.42833958 0 -270.08168314 0 6583
0.07850000 0.07848650 25761.64598580 0 95.14083330 0 9351.14299791 0 1321.41553316 0 -854.42473268 0 6549
0.07950000 0.07947320 25635.64292936 0 165.32088187 0 9162.35985975 0 819.70192204 0 -2687.79577740 0 6828
0.08050000 0.08048110 24883.72135093 0 947.63820639 0 8571.97242810 0 -7.21523618 0 -2243.39694848 0 7147
0.08150000 0.08149960 24302.53502120 0 1306.37931605 0 8719.62187956 0 23.41453457 0 -1391.69157878 0 7386
0.08250000 0.08250610 23933.82660474 0 359.91366886 0 8479.33028634 0 560.73353133 0 -246.61942685 0 7227
0.08350000 0.08350160 23333.15298333 0 1.92427040 0 8429.16158259 0 1383.39840749 0 340.20825238 0 7798
0.08450000 0.08449610 22718.41750939 0 762.39599771 0 7714.79732994 0 1835.58108076 0 -1451.98038742 0 7371
0.08550000 0.08548940 22149.41073696 0 455.28292422 0 7053.46951317 0 1789.73058369 0 77.28538085 0 8256
0.08650000 0.08650700 21102.52242536 0 319.41110467 0 6165.59085829 0 915.47974619 0 157.14286276 0 8037
0.08750000 0.08749060 21009.73634338 0 385.15081882 0 6178.71156320 0 964.83574130 0 1592.01207940 0 8155
0.08850000 0.08849210 20624.08726995 0 275.93894297 0 5335.46544966 0 1492.36115603 0 532.43820525 0 8718
0.08950000 0.08949900 20568.39347611 0 65.29349946 0 5875.37415247 0 555.50185785 0 2318.05763473 0 8571
0.09050000 0.09049190 20841.99062238 0 317.24535794 0 5978.33570096 0 -846.79479364 0 1158.55270740 0 8932
0.09150000 0.09150830 20232.12697137 0 739.79627553 0 6975.91895014 0 -810.16200698 0 2159.60159425 0 9285
0.09250000 0.09250820 19513.31164414 0 901.71573921 0 7303.94764522 0 -1187.51790912 0 2040.95056150 0 9204
0.09350000 0.09350330 19312.45967193 0 283.24557012 0 7382.07396914 0 -103.75067308 0 1984.11631820 0 9349
0.09450000 0.09448040 19045.83809030 0 189.28360724 0 7675.57915543 0 759.33449990 0 1503.90959082 0 9564
0.09550000 0.09549270 18817.19458279 0 294.88479797 0 6530.12500829 0 605.11473090 0 756.61070799 0 10155
0.09650000 0.09649430 18227.70400945 0 528.58725068 0 6805.44943723 0 322.18804374 0 1274.70139475 0 9913
0.09750000 0.09749140 18064.38721837 0 393.51706745 0 6765.98767158 0 28.66647040 0 794.84455283 0 10476
0.09850000 0.09850240 17732.10675057 0 483.52510313 0 6184.67954628 0 -68.99785645 0 817.72772653 0 10575
0.09950000 0.09950330 17278.25215625 0 428.98726001 0 6821.39358497 0 -141.69475517 0 610.14378083 0 10882
0.10050000 0.10051200 17345.46116790 0 518.96872211 0 7179.48364193 0 -878.98868529 0 -298.85644088 0 10875
0.10150000 0.10150300 16619.78099928 0 431.89706697 0 7381.52035290 0 -652.35148304 0 118.01880301 0 11118
0.10250000 0.10250800 16428.45122642 0 32.76688445 0 7444.99799108 0 182.62581833 0 -145.27443778 0 11575
0.10350000 0.10349800 16537.62434913 0 -256.13609003 0 7145.96771471 0 1400.36120911 0 -427.98853631 0 11364
0.10450000 0.10450100 16749.54864616 0 -259.52200696 0 6944.44033068 0 1065.36912896 0 -1391.21546881 0 12093
0.10550000 0.10551000 16583.68522038 0 213.49213822 0 6259.59489600 0 591.14920760 0 -850.08991751 0 12067
0.10650000 0.10649700 16566.52311691 0 487.04388796 0 6088.36139268 0 166.89093753 0 -214.41114118 0 12054
0.10750000 0.10749900 15889.00756125 0 513.55656974 0 6084.68538084 0 384.84190095 0 1259.83126252 0 12807
0.10850000 0.10850100 15869.29882308 0 266.10450406 0 6112.79801355 0 648.76072810 0 1165.43969344 0 12736
0.10950000 0.10950300 15560.04879089 0 212.24539445 0 6185.47675366 0 546.46241187 0 1307.64156108 0 12933
0.11050000 0.11050200 15437.58887840 0 339.61366853 0 6219.25841668 0 460.97852810 0 1947.75480350 0 13428
0.11150000 0.11150900 15365.72949032 0 -1.25181490 0 5939.37218992 0 344.17214466 0 1803.91423178 0 13453
0.11250000 0.11250000 15498.92955789 0 -33.51758807 0 5810.09172534 0 347.28678963 0 2289.43567508 0 13668
0.11350000 0.11349100 15267.18579944 0 95.63609839 0 5681.46452792 0 537.72745482 0 2045.02517703 0 13791
0.11450000 0.11448600 15275.04715006 0 12.23890496 0 5353.07044612 0 275.08858842 0 2065.59755654 0 14205
0.11550000 0.11549300 15086.26401190 0 220.64596729 0 5145.26505393 0 289.55125910 0 1701.31807001 0 14776
0.11650000 0.11649800 14817.87085830 0 93.49615017 0 4832.94798777 0 687.96007965 0 1672.41930223 0 14553
0.11750000 0.11747300 14532.86921747 0 157.91460380 0 4588.23853695 0 924.61662863 0 1614.32281391 0 14568
0.11850000 0.11849100 14384.38934165 0 319.99793789 0 4367.65568191 0 422.78454364 0 1329.49833027 0 16015
0.11950000 0.11950300 14085.43657154 0 265.42466332 0 4212.34418168 0 167.75679333 0 1420.49069563 0 15270
0.12050000 0.12050700 13931.42053332 0 387.76610194 0 4073.71867495 0 -252.84096616 0 1489.58200250 0 15999
0.12150000 0.12150000 13763.78553556 0 262.76066197 0 4490.53634275 0 -559.77245353 0 1248.45998493 0 15670
0.12250000 0.12250700 13547.21086211 0 77.67390873 0 4704.40936895 0 -238.80900892 0 1202.56519855 0 16887
0.12350000 0.12352200 13761.01745436 0 -91.16531507 0 4775.93658727 0 317.15235041 0 976.81156783 0 16407
0.12450000 0.12449800 13699.01243537 0 41.29800000 0 4621.07905236 0 166.79793000 0 946.44239531 0 16306
0.12550000 0.12549900 13824.79404531 0 416.70251562 0 4472.44416400 0 392.88483770 0 565.13699491 0 17523
0.12650000 0.12650100 13234.63913248 0 235.23818417 0 4002.82257914 0 171.01537852 0 485.83257563 0 17154
0.12750000 0.12750600 12941.99758752 0 261.95681119 0 3937.83910478 0 137.97666850 0 685.44223299 0 18007
0.12850000 0.12850300 12927.82501176 0 69.50995147 0 3681.18261548 0 395.67949249 0 207.14769610 0 17496
0.12950000 0.12949900 12884.97511471 0 82.59821447 0 3985.57189707 0 85.38633658 0 -90.65986345 0 18405
0.13050000 0.13049000 12771.81595506 0 191.30209205 0 3493.66172235 0 273.50303151 0 247.28598080 0 18100
0.13150000 0.13148800 12345.08855655 0 149.71001111 0 3383.03812509 0 110.98787675 0 330.06268115 0 19059
0.13250000 0.13249300 12684.45531224 0 115.68364971 0 3923.36757624 0 10.75459339 0 532.47474392 0 18957
0.13350000 0.13349100 12244.88401694 0 160.39812625 0 3954.39223038 0 325.97256436 0 418.46633696 0 19468
0.13450000 0.13450700 12367.01175969 0 400.97759991 0 3831.83266696 0 -11.74308626 0 582.68441528 0 19953
0.13550000 0.13551000 12003.95022889 0 108.12379849 0 3624.74697588 0 110.43569991 0 869.64696484 0 19956
0.13650000 0.13649900 12043.36770524 0 24.94827300 0 4169.87074368 0 -0.72740634 0 931.15151474 0 19723
0.13750000 0.13749600 11901.08833132 0 97.29905085 0 4067.59567933 0 -69.44185667 0 1075.58334860 0 20946
0.13850000 0.13851100 11949.80656052 0 301.88029279 0 4062.72385641 0 -36.64729141 0 840.15582768 0 20955
0.13950000 0.13949800 11700.90069860 0 295.06195516 0 4479.37543933 0 -373.02662314 0 999.53087112 0 20506
0.14050000 0.14048300 11545.11308840 0 88.49001995 0 4498.81844171 0 -128.93611528 0 805.82276288 0 21447
0.14150000 0.14148400 11406.59830492 0 88.87112937 0 4809.85111819 0 -135.03475179 0 424.71444986 0 21771
0.14250000 0.14249400 11365.63070309 0 310.62078600 0 4578.60561436 0 -75.38603425 0 297.48015090 0 22470
0.14350000 0.14350900 11111.07795551 0 204.61324095 0 4418.55515910 0 72.01440062 0 54.72828711 0 22519
0.14450000 0.14449900 10799.39201187 0 99.17824582 0 4111.51959188 0 281.63897578 0 379.77741958 0 22218
0.14550000 0.14550500 10959.77463686 0 -76.27204168 0 4201.44901406 0 471.14070782 0 -437.68567838 0 23559
0.14650000 0.14650700 10939.45692082 0 -55.60255788 0 3834.61182049 0 421.03622355 0 -152.49691526 0 23044
0.14750000 0.14750500 10871.59464201 0 173.67827264 0 3856.85612105 0 288.09081946 0 -522.10661896 0 23649
0.14850000 0.14849900 10853.98964555 0 182.57710010 0 3775.15343622 0 -29.26537245 0 -89.23718043 0 23640
0.14950000 0.14949500 10624.27212253 0 254.15525112 0 3982.12840405 0 0.87588511 0 238.03062449 0 24457
0.15050000 0.15050000 10458.90695137 0 193.32168410 0 3900.64716571 0 135.23626810 0 297.68720338 0 24591
0.15150000 0.15149900 10312.24293682 0 242.38315537 0 3709.95958768 0 230.31210686 0 132.41614697 0 25020
0.15250000 0.15250500 10199.12806647 0 64.60612953 0 3776.08351150 0 267.71774179 0 380.00772394 0 25297
0.15350000 0.15350100 10001.25454964 0 210.35202690 0 3387.23453620 0 391.00364972 0 418.90369379 0 25452
0.15450000 0.15450400 10023.86423692 0 64.81539647 0 3038.95455902 0 422.91962601 0 505.92995240 0 26061
0.15550000 0.15549900 9891.08491769 0 -16.46908666 0 2945.50413756 0 694.38645698 0 639.41014979 0 26128
0.15650000 0.15649500 9934.82060073 0 -116.88499695 0 2608.93868004 0 186.36272795 0 315.05193039 0 26331
0.15750000 0.15749700 9841.37017926 0 138.57789573 0 2676.35806586 0 83.40594056 0 403.11012967 0 27345
0.15850000 0.15849900 9775.34590636 0 372.40546572 0 2684.49622461 0 -258.39152260 0 371.66472719 0 26980
0.15950000 0.15949700 9325.18946854 0 327.75410142 0 2553.27810318 0 -158.27334712 0 478.29121519 0 27777
0.16050000 0.16050000 9048.75780712 0 258.81005647 0 2417.22137581 0 141.78222654 0 244.71498698 0 28224
0.16150000 0.16150500 8969.11457469 0 109.37043154 0 2440.13001586 0 -44.17370420 0 -223.96545027 0 28075
0.16250000 0.16249700 8802.60895407 0 213.67150989 0 2405.72830265 0 140.05605110 0 -773.71302091 0 28590
0.16350000 0.16349900 8588.72485555 0 163.75746960 0 2109.66540932 0 -124.80170919 0 -754.41506598 0 29163
0.16450000 0.16449100 8504.39802973 0 107.66031097 0 2154.08757649 0 -124.19605303 0 -630.71616034 0 28996
0.16550000 0.16550500 8592.94341131 0 -52.80225621 0 2157.87431158 0 -56.48402566 0 -932.29639312 0 30777
0.16650000 0.16650700 8610.67020334 0 -95.97535442 0 2269.53870738 0 225.55211442 0 -699.84511311 0 29211
0.16750000 0.16749900 8672.33198026 0 36.46459805 0 2339.42722163 0 -147.44018452 0 -504.22038545 0 30922
0.16850000 0.16850800 8692.98186604 0 103.43533327 0 2398.55343616 0 364.65816004 0 -374.40291312 0 30867
0.16950000 0.16949900 8594.46031981 0 82.33624326 0 2401.37687899 0 150.86153289 0 -44.69044960 0 30852
0.17050000 0.17049200 8588.59198765 0 167.85755148 0 2482.38200737 0 162.16859099 0 -76.44366272 0 31257
0.17150000 0.17149500 8504.43124671 0 72.46604075 0 2346.93425786 0 72.01772232 0 -60.90088675 0 32608
0.17250000 0.17250900 8332.40053600 0 161.71130398 0 2481.97233135 0 77.84674772 0 26.50382392 0 32361
0.17350000 0.17350400 8347.39246380 0 91.83629796 0 2173.50843423 0 246.33154640 0 129.16531240 0 32508
0.17450000 0.17449800 8139.03345537 0 89.78780714 0 2213.06985080 0 254.39994950 0 144.93341018 0 32791
0.17550000 0.17549800 8071.42584002 0 173.29627743 0 2075.41870866 0 326.90263964 0 356.22658469 0 33633
0.17650000 0.17650100 7949.27595262 0 154.88632296 0 2016.32571110 0 198.83791633 0 141.63607185 0 33984
0.17750000 0.17750300 7816.49663340 0 82.04592691 0 1914.30531022 0 -2.45928514 0 447.67402260 0 34069
0.17850000 0.17849800 7693.63811721 0 186.87759106 0 1979.38843550 0 -146.87881765 0 489.85958016 0 34536
