### header ###
fiducial parameters:
Omega_m = 0.31
Omega_nu = 0
Omega_de = 0.69
Omega_k = 0
H_0 = 100
w_de = -1
zeff = 0
beta = 0
fgrowth = 0
b_1 = 2
gamma = 0.55
Lx = 3500 Ly = 3500 Lz = 3500
nx = 700 ny = 700 nz = 700
xoffset = -685.467585 yoffset = -31.7331281 zoffset = 572.489161
bins = 400 dk = 0.001
kx_ny = 0.628318531 ky_ny = 0.628318531 kz_ny = 0.628318531
############################
A(data) = 8.02894813 (not used)
A(ran) = 8.01475918 (used)
Ngal = 476517
weighted Ngal = 0
Nran = 23820508
weighted Nran = 0
SN(data) = 3503.02911
SN(ran) = 69.8114591
SN(data+ran) = 3572.84056
############################
13 columns: k_central k_mean P_0(k) sigma^{lin}_{P_0(k)} P^img_1(k) sigma^{lin}_{P_1(k)} P_2(k) sigma^{lin}_{P_2(k)} P^img_3(k) sigma^{lin}_{P_3(k)} P_4(k) sigma^{lin}_{P_4(k)} N_modes
### header ###
0.00050000 0 0 0 0 0 0 0 0 0 0 0 0
0.00150000 0.00179520 10215.37116698 0 925.01744679 0 5276.06242701 0 455.82436090 0 -10778.07778659 0 3
0.00250000 0.00253879 14889.73024637 0 -2633.64103671 0 4910.84179287 0 -568.06894652 0 2658.04444061 0 6
0.00350000 0.00331552 22154.50400638 0 -13567.03032354 0 -18516.02734773 0 29419.38848964 0 -2922.13045986 0 7
0.00450000 0.00420575 31258.61236526 0 -19977.46350054 0 -23996.71740971 0 10246.59512297 0 -11435.60779595 0 24
0.00550000 0.00557378 58122.39756351 0 -23348.87568457 0 -28940.51044123 0 -2728.88517480 0 -18610.03138544 0 45
0.00650000 0.00659388 69016.45795258 0 -7327.04451479 0 -32287.34206417 0 -10965.83119854 0 24325.45473357 0 40
0.00750000 0.00754703 71984.50534347 0 5274.33514434 0 -41724.39523035 0 -23774.93874359 0 -14173.35083060 0 57
0.00850000 0.00846663 57926.63886072 0 2285.91467578 0 -21954.20565041 0 -1145.58701504 0 30339.05578908 0 75
0.00950000 0.00948925 61384.74734808 0 -5442.33552881 0 -28461.63239283 0 -1827.38756039 0 -4593.14357684 0 112
0.01050000 0.01054430 68124.02857220 0 -15376.35892215 0 -23066.53140169 0 -3163.40748999 0 -675.06303571 0 105
0.01150000 0.01145670 81784.39859395 0 -23392.05775136 0 -18352.37838691 0 -6468.44108673 0 10915.00922762 0 144
0.01250000 0.01249090 90646.79810205 0 -10256.77058948 0 -12183.98623044 0 -13626.15653807 0 7591.21911264 0 169
0.01350000 0.01339930 99639.07598026 0 9390.52725729 0 -188.84403594 0 -26519.21444989 0 -5113.47640937 0 180
0.01450000 0.01448870 92547.36265717 0 15919.56717775 0 8674.66824079 0 -20992.57423991 0 24944.17624444 0 267
0.01550000 0.01550050 77459.32707329 0 13938.06392821 0 17188.67704847 0 -4587.34167864 0 36837.95684138 0 238
0.01650000 0.01653350 73098.60266672 0 541.70352666 0 23225.30853959 0 -443.27609518 0 18640.48027869 0 315
0.01750000 0.01747870 82308.23028112 0 -920.93508063 0 30752.93929080 0 14197.48849871 0 175.37898173 0 297
0.01850000 0.01844180 79495.41688419 0 -3666.61143602 0 28855.14281688 0 -15551.74454728 0 978.94741928 0 388
0.01950000 0.01947590 76738.62945085 0 2305.20266562 0 28858.46451433 0 -1142.67499361 0 644.19450134 0 399
0.02050000 0.02045430 78283.10803980 0 819.45833090 0 29118.99631731 0 -4988.32592195 0 -8440.41106460 0 462
0.02150000 0.02154770 77992.34879006 0 109.57161568 0 24181.29306443 0 8121.37309728 0 -13650.07275968 0 571
0.02250000 0.02255340 80590.91270175 0 -152.40833666 0 20295.12849959 0 4299.20656988 0 -18906.43752083 0 510
0.02350000 0.02348930 79539.92762996 0 235.62017937 0 18408.51507374 0 4895.53983997 0 -25585.26385144 0 555
0.02450000 0.02439640 77764.92323829 0 2766.67501941 0 8984.54939549 0 -3755.01287737 0 -23883.11535707 0 592
0.02550000 0.02547300 73713.44886390 0 5992.04323908 0 13511.22580645 0 -9074.85527671 0 -33716.33630526 0 837
0.02650000 0.02652900 68497.49808833 0 1980.24100452 0 12702.83537144 0 3376.04041580 0 -24127.70301231 0 723
0.02750000 0.02749970 64681.86423258 0 2463.91336957 0 2267.98858190 0 2208.47483600 0 -32417.22043429 0 826
0.02850000 0.02848090 63170.82406457 0 1464.03814915 0 8536.77350750 0 8145.33360819 0 -27142.58633718 0 831
0.02950000 0.02946900 61844.47027455 0 2205.56281458 0 6458.92995971 0 715.55120587 0 -31332.79694155 0 996
0.03050000 0.03053250 55967.05881432 0 5023.27017907 0 5141.94335648 0 -3098.37972633 0 -24291.01980339 0 1041
0.03150000 0.03150510 52885.18792429 0 3798.84821133 0 4110.50093800 0 -7339.43444626 0 -13355.54891950 0 1036
0.03250000 0.03246190 51621.83566249 0 1793.93806712 0 3321.68637327 0 -6106.77466885 0 -16164.48700274 0 1059
0.03350000 0.03345080 52071.92566636 0 -2777.89128445 0 6888.48080105 0 4433.89032898 0 -13339.49404851 0 1302
0.03450000 0.03451200 52661.19479321 0 -4193.97519481 0 4010.20781979 0 4929.39900926 0 -18902.45148390 0 1339
0.03550000 0.03553350 57233.28988058 0 -354.38304261 0 2259.42967482 0 1627.21100000 0 -21411.99390404 0 1365
0.03650000 0.03647120 55016.27828214 0 1359.06143754 0 4254.59617319 0 -2068.80853074 0 -20266.22973181 0 1308
0.03750000 0.03744890 53097.00149807 0 5821.27477340 0 10060.75722321 0 -7453.88906791 0 -20729.27435573 0 1579
0.03850000 0.03847530 47945.27020645 0 5319.15591520 0 9957.16455221 0 -6204.28863353 0 -9870.66755073 0 1662
0.03950000 0.03950240 45269.97508377 0 3415.25859031 0 12292.71646016 0 -1326.61952582 0 -5062.82052333 0 1683
0.04050000 0.04050350 45113.74458058 0 1215.08799792 0 17038.31487743 0 3557.13936054 0 -5200.70418429 0 1822
0.04150000 0.04152450 42921.97788273 0 111.30011631 0 13836.41998637 0 2290.15537619 0 -5729.44091136 0 1887
0.04250000 0.04250150 43269.75960528 0 1742.92786668 0 14605.28222178 0 3026.73071243 0 -3684.74790407 0 1920
0.04350000 0.04349210 41148.08072354 0 693.69997284 0 15783.04541274 0 -1781.08309800 0 2068.06668498 0 2005
0.04450000 0.04448520 41949.93848690 0 1191.99112835 0 17163.21070138 0 290.86332959 0 1804.26854617 0 2151
0.04550000 0.04548030 42330.05139793 0 375.28648464 0 20103.24511048 0 -1108.71617339 0 1344.76706620 0 2274
0.04650000 0.04648670 41685.64209348 0 1283.41531438 0 20119.52142796 0 263.06182920 0 2719.82801310 0 2311
0.04750000 0.04749250 40605.09391443 0 1014.46411560 0 19269.16688189 0 -439.22583877 0 2613.50047787 0 2568
0.04850000 0.04851840 40918.32998355 0 -699.72885370 0 21186.11847774 0 4122.97944807 0 3224.82567576 0 2493
0.04950000 0.04949480 39959.35593101 0 475.67371760 0 18099.48648805 0 2134.85494828 0 -643.48919425 0 2644
0.05050000 0.05050630 39185.06825644 0 537.37756935 0 15787.58506592 0 1758.30732585 0 -2742.63700223 0 2829
0.05150000 0.05149060 38924.31500696 0 1224.95343934 0 15540.45077596 0 -985.83108362 0 -1624.93010109 0 2784
0.05250000 0.05249300 37108.34301345 0 1822.09498913 0 14314.96586504 0 -1777.35172454 0 -5217.99915566 0 3055
0.05350000 0.05348950 36193.43681369 0 916.87928805 0 15750.16060803 0 -1102.59649946 0 -2425.96851242 0 3009
0.05450000 0.05448610 36469.02697842 0 361.85021847 0 15281.80126820 0 1260.34058946 0 -4459.32345909 0 3336
0.05550000 0.05550870 36275.92563359 0 23.80616270 0 16774.12920726 0 1228.39693236 0 -1918.50172133 0 3349
0.05650000 0.05647670 36274.04333837 0 183.92349480 0 15990.65150309 0 3345.45865465 0 182.40880076 0 3324
0.05750000 0.05747970 36264.63186227 0 150.10750757 0 17182.91943956 0 3337.59730403 0 -1764.19780265 0 3639
0.05850000 0.05849280 36089.57840689 0 289.07847083 0 14586.68071608 0 2106.97483439 0 129.46537241 0 3846
0.05950000 0.05951020 34678.41060875 0 1041.07201938 0 14638.60991948 0 2833.46328272 0 -1613.56989582 0 3787
0.06050000 0.06049470 34037.76589475 0 778.54830516 0 12022.77318108 0 628.33893220 0 -94.24873609 0 3930
0.06150000 0.06148310 32774.63507943 0 1006.12554778 0 11324.33093152 0 654.45743922 0 -2103.66420927 0 4083
0.06250000 0.06249100 32870.85358211 0 668.74627440 0 9876.73518473 0 425.57366226 0 -437.05677033 0 4303
0.06350000 0.06350600 32296.97498676 0 -356.57979185 0 9411.90791652 0 1082.29871361 0 -501.15556594 0 4470
0.06450000 0.06451750 33325.81540891 0 345.12547183 0 10484.87155307 0 -719.64132266 0 -1649.76532565 0 4479
0.06550000 0.06550280 32694.13927800 0 1396.25337661 0 12173.02462887 0 -1924.01573909 0 1176.77775405 0 4636
0.06650000 0.06648880 31291.16500023 0 1430.56651122 0 14016.67743442 0 -771.50630657 0 3592.60401693 0 4653
0.06750000 0.06749660 30957.99874644 0 763.78336001 0 14544.60588177 0 1532.90800952 0 6832.21124632 0 5220
0.06850000 0.06852730 30941.50098246 0 -370.71804342 0 16468.20087252 0 3013.52142892 0 5370.13289867 0 5029
0.06950000 0.06949320 31100.05667386 0 -297.71488419 0 13882.59158087 0 5371.15155255 0 5012.76254282 0 5040
0.07050000 0.07048030 30573.01401249 0 843.05013339 0 12792.52120247 0 2532.50642182 0 4926.91880850 0 5475
0.07150000 0.07148790 29388.05381040 0 872.37186397 0 10744.75008889 0 57.57586761 0 7004.39696957 0 5509
0.07250000 0.07249820 28695.25844650 0 933.66825417 0 11219.80818523 0 624.26431667 0 5284.80956362 0 5916
0.07350000 0.07351270 27714.69336056 0 299.85848627 0 10722.40613740 0 569.13742586 0 6280.90912127 0 5721
0.07450000 0.07449140 27281.10112066 0 651.11581159 0 10510.21610458 0 125.54687665 0 5401.84403695 0 6028
0.07550000 0.07549160 27111.14093470 0 542.28039478 0 11787.81844843 0 1647.72801789 0 5637.99458068 0 6183
0.07650000 0.07648840 26707.22252531 0 572.80457984 0 10218.84787698 0 1911.13862532 0 5572.39105613 0 6330
0.07750000 0.07749960 25771.83252463 0 514.48664502 0 10162.30151413 0 957.30877489 0 6086.35730189 0 6583
0.07850000 0.07848650 26099.79478576 0 -184.02757465 0 9791.63329617 0 372.05779472 0 5282.57295400 0 6549
0.07950000 0.07947320 25497.90320862 0 381.55895665 0 10017.67480735 0 713.68551914 0 4122.38154253 0 6828
0.08050000 0.08048110 25537.65285472 0 664.72480602 0 9881.71773090 0 -593.01489433 0 4360.38116451 0 7147
0.08150000 0.08149960 25076.37980277 0 445.74190192 0 9236.28977257 0 -231.74486569 0 3917.98642638 0 7386
0.08250000 0.08250610 24277.73301360 0 573.97492458 0 9294.91773248 0 562.79076928 0 3167.94714316 0 7227
0.08350000 0.08350160 24089.06059870 0 197.56681344 0 8583.07796989 0 962.16841825 0 3064.06659171 0 7798
0.08450000 0.08449610 23639.52421106 0 440.01640276 0 9001.03608715 0 280.31251127 0 1506.65552737 0 7371
0.08550000 0.08548940 23500.23436484 0 978.86326961 0 8702.91374140 0 -387.46161301 0 3072.95766854 0 8256
0.08650000 0.08650700 22444.82036313 0 1038.88855692 0 9353.94429609 0 -468.10024743 0 2500.13094405 0 8037
0.08750000 0.08749060 22029.05456619 0 580.44448397 0 9279.05109102 0 -11.96276118 0 3362.54325185 0 8155
0.08850000 0.08849210 21797.64297748 0 -225.80456342 0 9624.06473237 0 493.19234993 0 2113.90610973 0 8718
0.08950000 0.08949900 22075.44760718 0 0.52398781 0 9369.19088737 0 1266.23106626 0 1882.00733872 0 8571
0.09050000 0.09049190 21922.42807818 0 -124.84378403 0 8539.10976804 0 697.85873804 0 1383.23232262 0 8932
0.09150000 0.09150830 22173.99129806 0 497.31125476 0 8562.77132618 0 772.18282562 0 1772.11451490 0 9285
0.09250000 0.09250820 21109.49799000 0 467.62745916 0 7830.60277522 0 572.51669940 0 1803.27203694 0 9204
0.09350000 0.09350330 20369.09162937 0 1131.82411529 0 7671.53775687 0 1100.50604454 0 1426.43653406 0 9349
0.09450000 0.09448040 19848.36019315 0 1090.37154563 0 8160.18159577 0 -36.93185016 0 3278.57074043 0 9564
0.09550000 0.09549270 18657.64238216 0 712.95696016 0 8118.09568913 0 312.50751015 0 1941.19998721 0 10155
0.09650000 0.09649430 18263.24617212 0 396.52320364 0 7641.56497359 0 604.37509960 0 2944.86194272 0 9913
0.09750000 0.09749140 18349.16741271 0 -123.94581848 0 7404.68365642 0 181.10669536 0 1128.26989902 0 10476
0.09850000 0.09850240 17976.03006632 0 306.59821039 0 7863.94154525 0 122.31818674 0 1688.49631787 0 10575
0.09950000 0.09950330 18128.27453258 0 214.14872708 0 7300.55951382 0 283.42715624 0 -98.30463939 0 10882
0.10050000 0.10051200 17683.94213760 0 299.60935897 0 7146.63205420 0 -239.14671483 0 1244.68432216 0 10875
0.10150000 0.10150300 17535.68370828 0 276.43276865 0 6952.54527245 0 -177.72520736 0 -45.09901839 0 11118
0.10250000 0.10250800 17342.13947045 0 61.75976699 0 6631.87967338 0 232.06928480 0 -188.85732273 0 11575
0.10350000 0.10349800 17144.71991894 0 27.91609895 0 7136.02476702 0 214.85846311 0 -169.88489416 0 11364
0.10450000 0.10450100 17009.30538640 0 648.32115680 0 6231.82550535 0 433.46822986 0 216.80387058 0 12093
0.10550000 0.10551000 16694.18702207 0 333.71765557 0 6026.63318181 0 448.06819737 0 -108.33107241 0 12067
0.10650000 0.10649700 16246.75437614 0 160.34940802 0 5537.48001598 0 1503.61063805 0 116.33027347 0 12054
0.10750000 0.10749900 16111.78273661 0 -28.37582188 0 5364.51922998 0 873.07606383 0 -176.51610949 0 12807
0.10850000 0.10850100 15912.92378286 0 345.72337737 0 4821.69850575 0 555.19958338 0 -158.61216026 0 12736
0.10950000 0.10950300 15776.73418759 0 238.08930781 0 4785.37020802 0 124.38981871 0 -412.19054326 0 12933
0.11050000 0.11050200 15090.58221858 0 345.31037965 0 4488.82013240 0 -449.58621310 0 775.29636336 0 13428
0.11150000 0.11150900 15393.07813263 0 95.19685926 0 4983.04442301 0 287.99006130 0 31.66983851 0 13453
0.11250000 0.11250000 15171.29946651 0 99.82774840 0 4834.94100623 0 381.68628838 0 1336.15279749 0 13668
0.11350000 0.11349100 15329.85515791 0 29.98861671 0 4609.66348547 0 836.43331208 0 8.89181868 0 13791
0.11450000 0.11448600 14942.21306601 0 146.74041359 0 4596.32133407 0 514.70587705 0 563.63780213 0 14205
0.11550000 0.11549300 14929.81206221 0 402.59194487 0 4295.82951081 0 -227.90387621 0 573.48331335 0 14776
0.11650000 0.11649800 14531.42981524 0 278.44461007 0 4928.26963213 0 -180.24526849 0 1081.83146150 0 14553
0.11750000 0.11747300 14288.94590171 0 291.14456664 0 4994.40462827 0 -328.04419633 0 1377.34184582 0 14568
0.11850000 0.11849100 14323.27010865 0 152.52459607 0 5163.04720758 0 -8.45360928 0 934.53964613 0 16015
0.11950000 0.11950300 14069.82459355 0 111.76958288 0 5588.89989243 0 86.17911504 0 1371.35171809 0 15270
0.12050000 0.12050700 14159.51042458 0 235.18946594 0 5228.17462217 0 28.18072751 0 772.37105514 0 15999
0.12150000 0.12150000 13943.04647438 0 166.39268291 0 5158.97259205 0 129.57498842 0 1233.46805712 0 15670
0.12250000 0.12250700 13825.12621506 0 161.12889969 0 5241.06280826 0 42.61051339 0 159.60977673 0 16887
0.12350000 0.12352200 13918.02302029 0 134.48335001 0 5274.13584249 0 -334.80163617 0 -113.12483544 0 16407
0.12450000 0.12449800 13624.49568934 0 206.78341662 0 5212.05331723 0 -251.59311516 0 -210.10843576 0 16306
0.12550000 0.12549900 13650.62637592 0 143.83171386 0 5586.68542747 0 -291.58081624 0 131.37756290 0 17523
0.12650000 0.12650100 13455.42128936 0 73.42889012 0 5523.75033320 0 315.96318272 0 605.61298551 0 17154
0.12750000 0.12750600 13574.33805792 0 93.85245758 0 5553.49059766 0 1199.47601993 0 311.28180379 0 18007
0.12850000 0.12850300 13264.53440949 0 165.95311161 0 4924.09536567 0 1076.93638670 0 636.65535537 0 17496
0.12950000 0.12949900 13340.82272749 0 23.32861333 0 4357.70166190 0 1061.73851365 0 999.30610293 0 18405
0.13050000 0.13049000 12798.72170437 0 137.31454347 0 4273.50770398 0 255.52932663 0 1368.29575644 0 18100
0.13150000 0.13148800 12985.40110081 0 219.91187215 0 3641.66548820 0 331.53862204 0 697.30844350 0 19059
0.13250000 0.13249300 12510.17691960 0 193.11241716 0 3650.22439529 0 31.10160680 0 1255.59056211 0 18957
0.13350000 0.13349100 12428.02026944 0 164.09074658 0 3051.39985212 0 -145.71179461 0 685.43337513 0 19468
0.13450000 0.13450700 12210.22764026 0 198.33634001 0 3550.57347192 0 177.91122242 0 -23.08723665 0 19953
0.13550000 0.13551000 11952.90681147 0 321.25575399 0 3104.20376918 0 -359.31576332 0 -457.70333442 0 19956
0.13650000 0.13649900 11870.19654508 0 296.45263916 0 3350.46334547 0 73.01921410 0 -134.59296603 0 19723
0.13750000 0.13749600 11607.89317012 0 60.72993006 0 3074.61851727 0 123.70333457 0 230.17923896 0 20946
0.13850000 0.13851100 11722.60245525 0 -25.63187834 0 3058.28683816 0 506.31637654 0 -169.94800641 0 20955
0.13950000 0.13949800 11650.18945093 0 35.81099871 0 2977.89068765 0 395.08712311 0 -36.14460786 0 20506
0.14050000 0.14048300 11491.52303628 0 229.51822117 0 2733.83450400 0 140.02947752 0 -40.73153986 0 21447
0.14150000 0.14148400 11334.96036334 0 317.61517359 0 2929.09495217 0 130.30354740 0 331.14444728 0 21771
0.14250000 0.14249400 11112.84952748 0 200.21309907 0 3086.52126645 0 41.97584773 0 51.44323906 0 22470
0.14350000 0.14350900 10885.82257940 0 315.15047408 0 3270.83118538 0 -187.15550641 0 263.49032817 0 22519
0.14450000 0.14449900 10723.11476619 0 362.90762549 0 3216.79824026 0 -219.51548292 0 829.00931829 0 22218
0.14550000 0.14550500 10616.06752984 0 254.83398463 0 3684.55967455 0 -42.00773602 0 989.37865649 0 23559
0.14650000 0.14650700 10377.04925398 0 108.88313852 0 3491.49154669 0 -73.08110839 0 1094.33433068 0 23044
0.14750000 0.14750500 10436.74015708 0 85.58497409 0 4031.34488787 0 12.61547473 0 877.94013613 0 23649
0.14850000 0.14849900 10377.22641118 0 66.65395601 0 3920.58842271 0 218.95079436 0 880.69271608 0 23640
0.14950000 0.14949500 10280.93040223 0 141.74015170 0 3904.16816500 0 175.41109147 0 753.47724007 0 24457
0.15050000 0.15050000 10056.90405418 0 155.20299145 0 3628.48942167 0 104.13499347 0 776.49992507 0 24591
0.15150000 0.15149900 10215.16079281 0 67.80625285 0 3724.59720109 0 273.28379948 0 757.31269339 0 25020
0.15250000 0.15250500 9877.96421278 0 149.11210557 0 3234.72433414 0 223.00769417 0 609.40636400 0 25297
0.15350000 0.15350100 9717.54837081 0 319.30702482 0 3169.74085978 0 203.64109083 0 383.29288271 0 25452
0.15450000 0.15450400 9490.20032531 0 192.93193827 0 2769.13307552 0 139.32859936 0 405.56154239 0 26061
0.15550000 0.15549900 9286.12630658 0 46.00506673 0 2876.37961371 0 72.38100530 0 189.97894924 0 26128
0.15650000 0.15649500 9307.03085584 0 110.31113626 0 2643.05251281 0 106.19112419 0 -70.69136853 0 26331
0.15750000 0.15749700 9226.25824628 0 -23.99804609 0 2555.52578512 0 101.94920583 0 52.91751911 0 27345
0.15850000 0.15849900 9302.29190081 0 19.66035212 0 2369.48858352 0 294.52826911 0 -27.77902357 0 26980
0.15950000 0.15949700 9224.76348243 0 88.61126191 0 2412.37169754 0 111.07866981 0 205.23218391 0 27777
0.16050000 0.16050000 9052.34524036 0 299.04024147 0 2395.08779850 0 240.23290989 0 -95.07041331 0 28224
0.16150000 0.16150500 8909.05828488 0 22.04200919 0 2188.16819228 0 -7.11214176 0 -58.80987821 0 28075
0.16250000 0.16249700 8929.73031531 0 4.09186622 0 2511.88975301 0 -92.56972875 0 -226.03818948 0 28590
0.16350000 0.16349900 8911.23953287 0 60.46574439 0 2457.94538649 0 -500.12916143 0 -562.59589636 0 29163
0.16450000 0.16449100 8953.87905574 0 123.16521959 0 2989.48341174 0 -562.74094382 0 -581.86506324 0 28996
0.16550000 0.16550500 8898.39563608 0 61.12200108 0 2958.97915686 0 83.04509350 0 -330.66944455 0 30777
0.16650000 0.16650700 8867.49277751 0 -63.42759128 0 2774.41457446 0 149.96246011 0 -485.98094478 0 29211
0.16750000 0.16749900 8896.21438809 0 98.60536374 0 2791.94206465 0 150.29020093 0 -879.66741880 0 30922
0.16850000 0.16850800 8881.88679977 0 160.72697430 0 2910.49344648 0 119.37737726 0 -856.00364619 0 30867
0.16950000 0.16949900 8646.61096970 0 335.17588075 0 2739.03849666 0 21.43325277 0 -415.99167237 0 30852
0.17050000 0.17049200 8412.06591307 0 164.17378902 0 2576.47462367 0 91.79820916 0 -75.72063991 0 31257
0.17150000 0.17149500 8400.01922367 0 -8.28020560 0 2632.12412821 0 214.64808893 0 -537.31445710 0 32608
0.17250000 0.17250900 8362.65012740 0 100.27296658 0 2457.49142117 0 122.01812673 0 -427.63754361 0 32361
0.17350000 0.17350400 8266.89666237 0 171.73950856 0 2612.21608819 0 182.51177338 0 -366.96341807 0 32508
0.17450000 0.17449800 8050.32198892 0 81.28326517 0 2367.73915619 0 45.18239299 0 -286.80975147 0 32791
0.17550000 0.17549800 8190.82979087 0 -23.44254755 0 2424.62876111 0 100.70844111 0 -544.67644587 0 33633
0.17650000 0.17650100 8153.52712855 0 -32.67232680 0 2485.36046274 0 5.88798553 0 -591.08277365 0 33984
0.17750000 0.17750300 8202.46680425 0 153.62186346 0 2426.74357515 0 22.86479364 0 -635.52265655 0 34069
0.17850000 0.17849800 7902.22964447 0 286.35689339 0 2303.71897409 0 71.01789139 0 -71.10049093 0 34536
