### header ###
fiducial parameters:
Omega_m = 0.31
Omega_nu = 0
Omega_de = 0.69
Omega_k = 0
H_0 = 100
w_de = -1
zeff = 0
beta = 0
fgrowth = 0
b_1 = 2
gamma = 0.55
Lx = 3500 Ly = 3500 Lz = 3500
nx = 700 ny = 700 nz = 700
xoffset = -685.467585 yoffset = -31.7331281 zoffset = 572.489161
bins = 400 dk = 0.001
kx_ny = 0.628318531 ky_ny = 0.628318531 kz_ny = 0.628318531
############################
A(data) = 8.04481401 (not used)
A(ran) = 8.03884434 (used)
Ngal = 478347
weighted Ngal = 0
Nran = 23820508
weighted Nran = 0
SN(data) = 3495.73586
SN(ran) = 70.0212496
SN(data+ran) = 3565.75711
############################
13 columns: k_central k_mean P_0(k) sigma^{lin}_{P_0(k)} P^img_1(k) sigma^{lin}_{P_1(k)} P_2(k) sigma^{lin}_{P_2(k)} P^img_3(k) sigma^{lin}_{P_3(k)} P_4(k) sigma^{lin}_{P_4(k)} N_modes
### header ###
0.00050000 0 0 0 0 0 0 0 0 0 0 0 0
0.00150000 0.00179520 7633.96935876 0 -10748.68076420 0 5172.22616486 0 -17610.08973106 0 -36417.98356101 0 3
0.00250000 0.00253879 13681.29671566 0 -11148.72385989 0 3034.83565419 0 -22013.99620443 0 -26103.11648321 0 6
0.00350000 0.00331552 23489.71565626 0 -9236.02403677 0 879.23338366 0 17610.64334731 0 36668.32882516 0 7
0.00450000 0.00420575 39777.88052723 0 -18437.52456476 0 -1894.34190857 0 -3548.15970511 0 1911.78082016 0 24
0.00550000 0.00557378 65702.28968786 0 -11487.75844584 0 12288.61969997 0 -11323.00225254 0 -4632.31746205 0 45
0.00650000 0.00659388 92675.91234831 0 -24208.53098349 0 -3236.44054449 0 -10106.14268265 0 1498.18519889 0 40
0.00750000 0.00754703 89282.46623789 0 -9755.13891357 0 9665.53058881 0 14118.65354600 0 20745.66139646 0 57
0.00850000 0.00846663 114869.83383105 0 -12045.02855396 0 -29563.21798903 0 26381.25328265 0 -31723.87145414 0 75
0.00950000 0.00948925 103609.05804399 0 391.53955024 0 -9497.92880803 0 9092.32740528 0 -27019.90497819 0 112
0.01050000 0.01054430 110399.49340877 0 5004.21470806 0 -19719.14616252 0 -22786.84447677 0 -13343.25863895 0 105
0.01150000 0.01145670 92621.65795670 0 10506.31864624 0 -19318.10655759 0 -18593.64434470 0 -6419.20245826 0 144
0.01250000 0.01249090 91542.21701013 0 10280.79753434 0 -14782.55014213 0 -20424.45325347 0 -7144.57260178 0 169
0.01350000 0.01339930 70729.45732527 0 3492.77593637 0 -14085.43657154 0 -21566.67428176 0 -8167.94329547 0 180
0.01450000 0.01448870 77656.30373182 0 2859.02928072 0 11450.99832744 0 -7431.85514152 0 -17447.32655623 0 267
0.01550000 0.01550050 68547.54499651 0 -4170.28041969 0 7791.40674536 0 -4587.21988307 0 -12004.61456838 0 238
0.01650000 0.01653350 75246.52295829 0 -1950.22393193 0 19595.80046404 0 5794.19186690 0 -14986.05947229 0 315
0.01750000 0.01747870 77778.32075132 0 2550.11141828 0 8300.57867447 0 12866.48433226 0 -14162.83212203 0 297
0.01850000 0.01844180 71846.65489947 0 3773.37079192 0 7074.00867571 0 -9454.82424751 0 -13917.35868080 0 388
0.01950000 0.01947590 76486.40189148 0 4037.09142445 0 7670.51910299 0 -11623.39442487 0 -5231.81741703 0 399
0.02050000 0.02045430 69487.36392712 0 2642.21101612 0 9585.46660805 0 -13834.86986090 0 -13187.69247525 0 462
0.02150000 0.02154770 71169.69296006 0 6454.29065561 0 21054.91142864 0 -17250.23917446 0 -14607.82885649 0 571
0.02250000 0.02255340 67069.94324946 0 -3397.88611267 0 15934.95770925 0 -2486.96594984 0 -18262.69255588 0 510
0.02350000 0.02348930 69754.09623200 0 -2499.46660456 0 27401.78946119 0 4440.46728992 0 -14527.77594805 0 555
0.02450000 0.02439640 71456.90906586 0 1302.38220679 0 16458.45722668 0 5433.61053685 0 -13441.69160659 0 592
0.02550000 0.02547300 74412.00183671 0 -101.44463999 0 22248.50804409 0 10287.40771225 0 -25440.54856606 0 837
0.02650000 0.02652900 68988.00207780 0 4955.47433421 0 19388.19437369 0 -4077.63827794 0 -6069.11769214 0 723
0.02750000 0.02749970 64109.20359295 0 8580.52026286 0 14864.70679228 0 8479.04240590 0 -3239.75116961 0 826
0.02850000 0.02848090 64531.61278479 0 -3290.72815308 0 18929.13578671 0 7929.23504470 0 5601.51127040 0 831
0.02950000 0.02946900 61851.77800893 0 -6055.39908169 0 18054.20067954 0 6610.75367762 0 -3194.70895225 0 996
0.03050000 0.03053250 66425.75539151 0 5091.04387929 0 20873.76819461 0 -2919.20736611 0 -4843.92066166 0 1041
0.03150000 0.03150510 63139.04649235 0 9018.43070944 0 28121.93346739 0 -12742.80646404 0 6036.62041880 0 1036
0.03250000 0.03246190 55190.11378179 0 9802.73883797 0 32826.56428283 0 -4569.81418845 0 10055.77467705 0 1059
0.03350000 0.03345080 52705.59481573 0 2901.25912758 0 33378.07678205 0 1520.99418801 0 16168.03014668 0 1302
0.03450000 0.03451200 50121.86781930 0 -1143.46112867 0 38782.36780278 0 7076.53316577 0 6413.78809142 0 1339
0.03550000 0.03553350 50280.42351071 0 1806.08440744 0 35369.32367744 0 13409.13897162 0 6771.85600373 0 1365
0.03650000 0.03647120 47900.42729094 0 258.53435559 0 29650.80007835 0 9249.46583910 0 5385.91096153 0 1308
0.03750000 0.03744890 47736.33543713 0 1015.31336292 0 26935.20169333 0 9882.21598551 0 9866.86974332 0 1579
0.03850000 0.03847530 45787.16337605 0 217.60661413 0 19670.64937981 0 7802.42370855 0 11433.72550073 0 1662
0.03950000 0.03950240 46781.34742152 0 -488.03375380 0 18702.48529767 0 3118.98532281 0 12675.15455939 0 1683
0.04050000 0.04050350 45778.19479295 0 -601.70002592 0 15553.07322626 0 3617.90427914 0 14835.69730126 0 1822
0.04150000 0.04152450 47407.59811326 0 1902.14789757 0 20051.98024657 0 890.08536922 0 11966.30432450 0 1887
0.04250000 0.04250150 47285.13820077 0 -168.99689371 0 17861.65295094 0 -2181.05975975 0 18068.04108556 0 1920
0.04350000 0.04349210 44124.65380453 0 1975.14773510 0 20731.71026719 0 2553.93137034 0 14836.25091750 0 2005
0.04450000 0.04448520 46447.51682824 0 1111.22959112 0 19967.94130119 0 -3411.05110688 0 13232.97828376 0 2151
0.04550000 0.04548030 43402.73822636 0 1634.98377202 0 21173.60675070 0 1228.41907700 0 9615.24008949 0 2274
0.04650000 0.04648670 42429.03798180 0 1817.05708134 0 18141.11842937 0 2750.09974916 0 8352.85111994 0 2311
0.04750000 0.04749250 41265.44736661 0 378.06342370 0 16384.93698988 0 2994.74276602 0 4026.76094540 0 2568
0.04850000 0.04851840 40111.37895077 0 -954.98469391 0 13387.21576848 0 3778.20939787 0 674.41751917 0 2493
0.04950000 0.04949480 40114.03630872 0 560.84204011 0 12092.41810419 0 719.22721771 0 98.22015755 0 2644
0.05050000 0.05050630 40714.59920689 0 -289.86017696 0 11533.26570085 0 -828.36269452 0 -3271.47338022 0 2829
0.05150000 0.05149060 39047.43925894 0 1007.43318934 0 9298.60481665 0 2196.59423147 0 -2741.68478229 0 2784
0.05250000 0.05249300 39172.11363640 0 1588.42464616 0 11442.69408383 0 242.20599818 0 -1853.37430674 0 3055
0.05350000 0.05348950 37367.54613746 0 1428.66207135 0 10875.81319776 0 243.63322084 0 -2286.18041158 0 3009
0.05450000 0.05448610 36312.79647523 0 1973.22115058 0 11188.03061300 0 1018.38704029 0 -4906.01425924 0 3336
0.05550000 0.05550870 34600.90433502 0 1522.42251791 0 13804.42096765 0 -2086.71247997 0 -2858.29850728 0 3349
0.05650000 0.05647670 33787.86352359 0 1507.69632591 0 13460.95745177 0 -1675.17631111 0 -3624.01620244 0 3324
0.05750000 0.05747970 33782.54880768 0 -300.39770849 0 13155.02911703 0 -1775.12618725 0 -3698.72117799 0 3639
0.05850000 0.05849280 33551.13721897 0 -589.47064316 0 12692.64883261 0 14.48968715 0 -3748.10374668 0 3846
0.05950000 0.05951020 34980.57435305 0 -1206.93876686 0 12244.77329369 0 723.09478077 0 -5356.82396424 0 3787
0.06050000 0.06049470 35623.54425527 0 -233.79878194 0 11920.35417651 0 2158.25077062 0 -6060.02731347 0 3930
0.06150000 0.06148310 35435.53617985 0 920.86200328 0 11915.37163034 0 2884.58420640 0 -4245.89332588 0 4083
0.06250000 0.06249100 33516.48084228 0 768.33740721 0 9580.16296446 0 2074.53292267 0 -3576.15054225 0 4303
0.06350000 0.06350600 32785.59668100 0 2006.38276341 0 10310.20562905 0 518.08072166 0 -2642.96393421 0 4470
0.06450000 0.06451750 31786.20864287 0 575.32685544 0 10024.59501036 0 2751.30663256 0 -1236.77868224 0 4479
0.06550000 0.06550280 30662.47839703 0 143.45414758 0 8896.18117111 0 1509.61183810 0 -590.84582590 0 4636
0.06650000 0.06648880 30290.78045287 0 793.40625783 0 8541.82248762 0 58.59197486 0 -939.87761393 0 4653
0.06750000 0.06749660 29647.81055065 0 1522.18999909 0 9681.19792843 0 -155.04022827 0 -2698.80166827 0 5220
0.06850000 0.06852730 28821.37222618 0 174.66924571 0 9986.42870671 0 -1513.06640344 0 -423.67032963 0 5029
0.06950000 0.06949320 29050.68007318 0 -45.85614396 0 9365.01662091 0 -490.03230843 0 -530.01668781 0 5040
0.07050000 0.07048030 28830.45153254 0 386.21265477 0 10138.86140249 0 409.83767423 0 -1358.66283385 0 5475
0.07150000 0.07148790 29078.25016198 0 -92.49510128 0 9989.83898275 0 913.55648337 0 -1964.20827818 0 5509
0.07250000 0.07249820 29026.21023533 0 692.93708966 0 9604.16776467 0 726.68442848 0 -256.64209527 0 5916
0.07350000 0.07351270 28012.76034468 0 1409.08620107 0 8615.17663954 0 1153.32657008 0 252.69259701 0 5721
0.07450000 0.07449140 26526.96507726 0 804.55055276 0 9019.34971240 0 1174.30862562 0 1626.17020146 0 6028
0.07550000 0.07549160 26449.01591054 0 96.22005280 0 8878.80869347 0 488.19540974 0 -163.13631218 0 6183
0.07650000 0.07648840 26439.71515769 0 220.55185253 0 9441.75890423 0 -298.24635578 0 -134.10024758 0 6330
0.07750000 0.07749960 25952.97575867 0 508.18759943 0 9260.79282739 0 -486.43933903 0 -191.56782785 0 6583
0.07850000 0.07848650 25962.71940451 0 139.72055965 0 9190.32855225 0 -795.14793453 0 1198.99990996 0 6549
0.07950000 0.07947320 25583.38155622 0 373.62120698 0 9187.15079502 0 752.57263113 0 -453.13821490 0 6828
0.08050000 0.08048110 25771.94324788 0 575.02015204 0 9048.12668460 0 862.58946500 0 870.06549871 0 7147
0.08150000 0.08149960 24529.84984973 0 110.89154752 0 7774.89790905 0 2097.74051549 0 475.67593207 0 7386
0.08250000 0.08250610 24807.43303293 0 274.29138103 0 8221.83230036 0 1458.46876976 0 1373.87620815 0 7227
0.08350000 0.08350160 24682.42648573 0 295.13724697 0 7873.04299625 0 932.17238309 0 549.87490238 0 7798
0.08450000 0.08449610 23661.44741420 0 880.74475600 0 6288.91441212 0 490.34676245 0 1447.99435048 0 7371
0.08550000 0.08548940 23300.93251810 0 788.80792134 0 7245.19788973 0 -398.02239642 0 2839.04373442 0 8256
0.08650000 0.08650700 22737.79407783 0 402.52108199 0 7397.05482462 0 541.07572584 0 1667.43675606 0 8037
0.08750000 0.08749060 22132.47007999 0 672.19973251 0 7421.72396431 0 592.45020577 0 2693.84126675 0 8155
0.08850000 0.08849210 21439.01037660 0 1026.12548810 0 7030.85982589 0 27.92008499 0 810.57057577 0 8718
0.08950000 0.08949900 20624.97305593 0 842.54191368 0 7280.05356826 0 35.11787118 0 1992.84131016 0 8571
0.09050000 0.09049190 19753.47036946 0 890.78735461 0 6928.42974899 0 -136.38668265 0 1346.48327655 0 8932
0.09150000 0.09150830 19177.82020214 0 390.46442750 0 7250.67869052 0 -257.11377631 0 835.14560070 0 9285
0.09250000 0.09250820 19297.06914043 0 -353.48950600 0 7037.76895658 0 319.87060615 0 931.45711090 0 9204
0.09350000 0.09350330 19526.93060367 0 -218.37060454 0 6714.54565047 0 762.75584827 0 -310.34729957 0 9349
0.09450000 0.09448040 19582.84584400 0 243.13718069 0 6805.29442469 0 205.06609904 0 9.25569956 0 9564
0.09550000 0.09549270 19422.96147362 0 486.90548390 0 6479.54662852 0 20.68044540 0 -269.29333361 0 10155
0.09650000 0.09649430 18877.64947630 0 765.96903693 0 6729.07254063 0 453.51910287 0 971.62418365 0 9913
0.09750000 0.09749140 18362.45420249 0 333.41538110 0 6751.11753935 0 -65.34609300 0 -768.73933260 0 10476
0.09850000 0.09850240 18326.13697709 0 -66.43494542 0 7110.80201108 0 467.07495015 0 -75.97264602 0 10575
0.09950000 0.09950330 18102.47601575 0 -170.69095940 0 6725.88371109 0 139.02743212 0 151.79271540 0 10882
0.10050000 0.10051200 18311.18933858 0 276.90887862 0 6588.43187079 0 995.34553234 0 721.21802171 0 10875
0.10150000 0.10150300 18034.71338786 0 48.61392790 0 6050.66012667 0 884.93120202 0 66.68429418 0 11118
0.10250000 0.10250800 18015.44754267 0 197.13942170 0 5529.34185723 0 551.10725213 0 682.59775274 0 11575
0.10350000 0.10349800 17508.11361948 0 253.62377953 0 5245.67996771 0 452.99538191 0 485.70192219 0 11364
0.10450000 0.10450100 17501.69167109 0 282.34539011 0 5355.04131994 0 289.04193216 0 -48.76739032 0 12093
0.10550000 0.10551000 16777.00801171 0 486.63642641 0 5770.47494714 0 -282.31217313 0 786.37976050 0 12067
0.10650000 0.10649700 16669.38501447 0 838.98437572 0 5328.00270273 0 -279.62381267 0 773.38749456 0 12054
0.10750000 0.10749900 15969.83553243 0 592.67608120 0 6195.71865412 0 34.63910386 0 1132.66561197 0 12807
0.10850000 0.10850100 15598.91265101 0 554.36583732 0 5519.63142837 0 119.09281852 0 709.07611032 0 12736
0.10950000 0.10950300 15071.64854314 0 537.45175393 0 5984.58049215 0 606.96159468 0 1173.64428613 0 12933
0.11050000 0.11050200 14677.69522609 0 5.68442084 0 5080.60267698 0 1189.80988036 0 1200.89327751 0 13428
0.11150000 0.11150900 14949.63152364 0 -425.27692396 0 5191.33699750 0 1186.15601317 0 2082.22818842 0 13453
0.11250000 0.11250000 15015.29040981 0 -192.93747443 0 4727.43980457 0 805.71646857 0 1769.06962557 0 13668
0.11350000 0.11349100 15339.04518751 0 248.73977705 0 4939.36410160 0 -70.15746103 0 1818.78436401 0 13791
0.11450000 0.11448600 14957.71432076 0 405.76748763 0 5218.44204865 0 -585.86106527 0 2965.78863662 0 14205
0.11550000 0.11549300 14713.90172825 0 463.48640968 0 5381.55953788 0 -828.00616566 0 2255.87545855 0 14776
0.11650000 0.11649800 14649.90369080 0 -16.63384285 0 5781.99016495 0 -417.86400249 0 2332.55130792 0 14553
0.11750000 0.11747300 14627.09470167 0 213.46667188 0 6294.98204612 0 65.05710532 0 1355.41864267 0 14568
0.11850000 0.11849100 14219.74387159 0 351.85412362 0 5694.07590589 0 205.20782479 0 1211.35662446 0 16015
0.11950000 0.11950300 14026.64252676 0 474.02394121 0 5622.69262778 0 327.19162732 0 894.11680269 0 15270
0.12050000 0.12050700 13492.40285426 0 273.84516634 0 5128.49048183 0 154.73573934 0 367.67204686 0 15999
0.12150000 0.12150000 13444.79185754 0 82.02810046 0 5322.75442077 0 1.49009133 0 -214.04575446 0 15670
0.12250000 0.12250700 13456.63924509 0 -128.61169616 0 5406.04044805 0 -448.28521493 0 -550.13288754 0 16887
0.12350000 0.12352200 13689.60095928 0 -154.98375942 0 5552.98127072 0 -119.14153675 0 -295.96656410 0 16407
0.12450000 0.12449800 13689.04734304 0 71.72829175 0 5706.70942850 0 -277.36727287 0 -240.22958820 0 16306
0.12550000 0.12549900 14009.48042329 0 91.91734737 0 5588.35734852 0 504.60570236 0 30.57644643 0 17523
0.12650000 0.12650100 13598.80789577 0 154.44785890 0 5521.46943429 0 474.01619058 0 -122.11113426 0 17154
0.12750000 0.12750600 13477.67666225 0 475.13338815 0 5136.72829149 0 460.24332574 0 -545.33192750 0 18007
0.12850000 0.12850300 13152.70392882 0 285.50432438 0 4997.88133826 0 272.01491105 0 -430.73336563 0 17496
0.12950000 0.12949900 12816.10525433 0 55.98056705 0 4462.25762516 0 -187.11010988 0 -116.76209414 0 18405
0.13050000 0.13049000 12988.83352151 0 -148.64596069 0 4299.49445033 0 275.87915241 0 -737.22860340 0 18100
0.13150000 0.13148800 12849.43295204 0 222.77185365 0 4567.22326444 0 -115.31494129 0 -1176.23521013 0 19059
0.13250000 0.13249300 12598.97696464 0 430.93709641 0 4335.13626392 0 175.39669745 0 -852.92775436 0 18957
0.13350000 0.13349100 12216.09597241 0 331.71910094 0 4396.98627036 0 425.13298374 0 -562.93913843 0 19468
0.13450000 0.13450700 11902.19556380 0 290.61752398 0 4132.60129834 0 744.67474184 0 -372.53058299 0 19953
0.13550000 0.13551000 11819.70674390 0 70.25124362 0 4084.56955327 0 911.71626298 0 -139.22784120 0 19956
0.13650000 0.13649900 11671.33759134 0 52.28418213 0 3645.54080189 0 790.90834135 0 182.26707500 0 19723
0.13750000 0.13749600 11547.10610687 0 149.66904350 0 3441.55536176 0 378.25497492 0 782.38154401 0 20946
0.13850000 0.13851100 11451.21977394 0 119.00091822 0 2974.69078578 0 742.77030197 0 694.88692606 0 20955
0.13950000 0.13949800 11317.24464363 0 52.65731948 0 2702.67698196 0 413.79824482 0 429.77450230 0 20506
0.14050000 0.14048300 11292.88552903 0 42.35108882 0 2988.27652833 0 -268.79507899 0 368.86232178 0 21447
0.14150000 0.14148400 11469.15694015 0 60.67146818 0 2834.92482959 0 -260.45872564 0 514.59293934 0 21771
0.14250000 0.14249400 11153.04206657 0 27.38872412 0 2771.22574491 0 -329.82905509 0 451.68995481 0 22470
0.14350000 0.14350900 11324.44165477 0 96.96987064 0 2946.10204310 0 -425.21824064 0 113.03957854 0 22519
0.14450000 0.14449900 11375.37434893 0 161.20751320 0 3101.38032635 0 -135.53079194 0 -52.76616043 0 22218
0.14550000 0.14550500 11034.57926334 0 304.22319672 0 3227.29480419 0 -41.90066664 0 105.98329665 0 23559
0.14650000 0.14650700 10965.95299411 0 164.41848739 0 2853.24952717 0 448.98387863 0 411.96245336 0 23044
0.14750000 0.14750500 10888.50208201 0 69.13659268 0 2670.82190345 0 279.23960300 0 -91.02868259 0 23649
0.14850000 0.14849900 10796.16996534 0 87.33672660 0 2766.97397218 0 118.42072840 0 -187.19979571 0 23640
0.14950000 0.14949500 10612.32508406 0 241.73653160 0 2925.72896543 0 -101.29604939 0 -71.96889337 0 24457
0.15050000 0.15050000 10452.83931737 0 267.08551204 0 3175.54275799 0 -170.64002671 0 2.08252714 0 24591
0.15150000 0.15149900 10180.08366779 0 305.18981067 0 3195.89369100 0 -210.84585259 0 195.33573999 0 25020
0.15250000 0.15250500 10044.37018248 0 237.50801075 0 3312.47419902 0 -106.82711853 0 -10.92859497 0 25297
0.15350000 0.15350100 9819.74592889 0 235.40648350 0 3662.04963819 0 38.39616511 0 578.28316616 0 25452
0.15450000 0.15450400 9710.30707038 0 -61.35839522 0 3302.11050299 0 582.73756244 0 299.02916914 0 26061
0.15550000 0.15549900 9786.80576255 0 -15.10564058 0 3155.88938143 0 681.30229074 0 667.69440354 0 26128
0.15650000 0.15649500 9839.00070175 0 57.87172013 0 3008.83783552 0 240.30488000 0 197.62881846 0 26331
0.15750000 0.15749700 9493.34486556 0 249.50930363 0 2606.45847928 0 305.21527702 0 426.14277976 0 27345
0.15850000 0.15849900 9442.42324372 0 185.23999422 0 2411.47483923 0 -21.84702555 0 477.90921998 0 26980
0.15950000 0.15949700 9374.91527930 0 -80.57574362 0 2315.18990260 0 319.80749390 0 742.71604758 0 27777
0.16050000 0.16050000 9318.85609874 0 23.92053981 0 2223.69928263 0 276.35083345 0 438.98999825 0 28224
0.16150000 0.16150500 9344.56603697 0 86.71634424 0 2061.60044728 0 150.08204122 0 199.54211618 0 28075
0.16250000 0.16249700 9192.21084747 0 165.74495191 0 2044.38298219 0 -37.28882191 0 187.91506789 0 28590
0.16350000 0.16349900 8995.65493729 0 326.45974665 0 2012.73827786 0 -211.87447157 0 117.02782994 0 29163
0.16450000 0.16449100 8823.71280518 0 184.81481694 0 2084.63088291 0 -237.58883873 0 293.58379980 0 28996
0.16550000 0.16550500 8804.13693490 0 -74.24447756 0 2332.14163190 0 -258.66611625 0 -109.94431014 0 30777
0.16650000 0.16650700 8874.63442702 0 13.89510331 0 2273.05970667 0 -179.69165225 0 -503.80185157 0 29211
0.16750000 0.16749900 8924.28273150 0 52.66030901 0 2494.48405839 0 -410.86518598 0 -662.61442091 0 30922
0.16850000 0.16850800 8867.51492216 0 146.18458288 0 2647.99076968 0 -365.87611577 0 -607.00920567 0 30867
0.16950000 0.16949900 8742.68553215 0 225.01178496 0 2728.47549879 0 162.34131926 0 -416.73573259 0 30852
0.17050000 0.17049200 8631.85156072 0 104.82258484 0 2576.88429969 0 412.71758592 0 -641.66447512 0 31257
0.17150000 0.17149500 8476.27432469 0 92.73249193 0 2372.32309867 0 611.90317324 0 -679.52075368 0 32608
0.17250000 0.17250900 8475.76499775 0 78.69665937 0 2069.19606211 0 426.78718906 0 -792.66109037 0 32361
0.17350000 0.17350400 8294.98715044 0 129.52073403 0 1989.05457507 0 2.56388539 0 -581.89274405 0 32508
0.17450000 0.17449800 8080.87053309 0 275.29231920 0 2025.20571560 0 -87.78570937 0 -425.16841518 0 32791
0.17550000 0.17549800 7942.71006401 0 245.70706728 0 2152.28278755 0 -126.87666286 0 -24.08075636 0 33633
0.17650000 0.17650100 7843.56846758 0 95.89806959 0 2166.69895446 0 66.68030814 0 50.08278251 0 33984
0.17750000 0.17750300 7751.81211181 0 80.83627542 0 2372.72170236 0 278.72473989 0 421.24327603 0 34069
0.17850000 0.17849800 7736.82018400 0 81.52674560 0 2332.39629537 0 340.20382345 0 444.49294368 0 34536
