### header ###
fiducial parameters:
Omega_m = 0.31
Omega_nu = 0
Omega_de = 0.69
Omega_k = 0
H_0 = 100
w_de = -1
zeff = 0
beta = 0
fgrowth = 0
b_1 = 2
gamma = 0.55
Lx = 3500 Ly = 3500 Lz = 3500
nx = 700 ny = 700 nz = 700
xoffset = -685.467585 yoffset = -31.7331281 zoffset = 572.489161
bins = 400 dk = 0.001
kx_ny = 0.628318531 ky_ny = 0.628318531 kz_ny = 0.628318531
############################
A(data) = 7.99199894 (not used)
A(ran) = 7.98874793 (used)
Ngal = 474756
weighted Ngal = 0
Nran = 23820508
weighted Nran = 0
SN(data) = 3493.61411
SN(ran) = 69.5848917
SN(data+ran) = 3563.199
############################
13 columns: k_central k_mean P_0(k) sigma^{lin}_{P_0(k)} P^img_1(k) sigma^{lin}_{P_1(k)} P_2(k) sigma^{lin}_{P_2(k)} P^img_3(k) sigma^{lin}_{P_3(k)} P_4(k) sigma^{lin}_{P_4(k)} N_modes
### header ###
0.00050000 0 0 0 0 0 0 0 0 0 0 0 0
0.00150000 0.00179520 13367.28558381 0 -15815.15515471 0 18244.42321992 0 -52891.38842619 0 -40707.73436550 0 3
0.00250000 0.00253879 23360.16945588 0 -12252.63464431 0 -4455.84674909 0 -9491.56222126 0 6422.46879408 0 6
0.00350000 0.00331552 30749.50687010 0 -8519.61140403 0 -7292.17776394 0 960.67919057 0 16979.63155589 0 7
0.00450000 0.00420575 31837.91639978 0 -428.21330450 0 -7817.58172123 0 -12390.48508831 0 10131.90798250 0 24
0.00550000 0.00557378 38008.19085146 0 -8442.86912071 0 1068.78826286 0 -397.24511922 0 109.12285436 0 45
0.00650000 0.00659388 42150.45828937 0 -14586.68071608 0 -22423.34005298 0 -12107.80863569 0 -6373.52911838 0 40
0.00750000 0.00754703 53410.45901369 0 -5197.81430751 0 10223.94114639 0 -19797.53822224 0 -45008.00387856 0 57
0.00850000 0.00846663 64640.23229126 0 -10878.88023174 0 -10369.24326499 0 -31371.55007842 0 -32383.33912034 0 75
0.00950000 0.00948925 63860.40845428 0 5902.09167225 0 6391.98668386 0 -43593.18221324 0 -39377.06236879 0 112
0.01050000 0.01054430 63598.43724907 0 2519.13105344 0 19879.36270265 0 -37466.86489108 0 -28095.02771808 0 105
0.01150000 0.01145670 67933.91675506 0 -5035.53831497 0 30139.97538884 0 -22615.66633508 0 -39392.12073055 0 144
0.01250000 0.01249090 71592.43432164 0 -2305.66770326 0 38741.62164745 0 -4195.85749003 0 -29664.86193087 0 169
0.01350000 0.01339930 71303.33592062 0 -1056.69728416 0 44020.57395124 0 10043.28509465 0 -19926.75225287 0 180
0.01450000 0.01448870 77936.65499623 0 2334.99829171 0 47766.78433038 0 13988.33228289 0 -3172.06604799 0 267
0.01550000 0.01550050 75365.99334308 0 14703.93663591 0 45916.93102293 0 22377.05773524 0 28407.82089421 0 238
0.01650000 0.01653350 69831.60250573 0 8018.63299529 0 54989.48325608 0 11692.92862473 0 13116.16525692 0 315
0.01750000 0.01747870 61127.31579605 0 4861.16027140 0 41393.33271827 0 7419.23269123 0 28989.67156343 0 297
0.01850000 0.01844180 67759.19546942 0 -5179.75534574 0 57598.78732284 0 17413.00234929 0 13087.82010538 0 388
0.01950000 0.01947590 68010.53724280 0 -11225.45507089 0 42864.06962393 0 10449.41796900 0 21031.77026977 0 399
0.02050000 0.02045430 87491.29625198 0 -10589.56038423 0 41874.64667813 0 3257.76584209 0 -2679.90120981 0 462
0.02150000 0.02154770 86578.49379393 0 199.11029552 0 36560.26293493 0 -1790.78245454 0 -13031.46197206 0 571
0.02250000 0.02255340 90341.86627654 0 6636.60755607 0 44672.84460630 0 -4855.97842339 0 -5983.61719989 0 510
0.02350000 0.02348930 76494.48468860 0 11750.61543704 0 39202.45180640 0 2760.98384445 0 -6237.16236592 0 555
0.02450000 0.02439640 70506.23925693 0 9113.91843867 0 37739.35480487 0 9982.35409117 0 10031.30483920 0 592
0.02550000 0.02547300 65522.58585606 0 435.67051527 0 32634.45944723 0 19406.35298639 0 9353.74499424 0 837
0.02650000 0.02652900 67120.43305063 0 1278.28882799 0 27690.11279946 0 20485.24031672 0 2770.45068217 0 723
0.02750000 0.02749970 61268.59866073 0 5187.38417754 0 34835.85906767 0 -1343.26123002 0 4917.34124753 0 826
0.02850000 0.02848090 57347.11337971 0 7926.56661442 0 25454.49969533 0 -1512.16954513 0 16562.31563348 0 831
0.02950000 0.02946900 51215.59206489 0 3066.08175483 0 27344.10264888 0 -3159.89756302 0 21698.65639360 0 996
0.03050000 0.03053250 50993.81339877 0 -1578.54813242 0 27651.91327884 0 5818.99387449 0 11736.22141477 0 1041
0.03150000 0.03150510 52973.21290660 0 -2741.26403395 0 25037.18377292 0 8780.77432953 0 174.97373464 0 1036
0.03250000 0.03246190 53837.07568895 0 -347.50380720 0 27094.75389396 0 3668.77053936 0 -3792.78057733 0 1059
0.03350000 0.03345080 51902.18692689 0 2079.62619209 0 22361.99937348 0 150.21601635 0 2468.50838437 0 1302
0.03450000 0.03451200 51235.19007982 0 1722.43299344 0 18804.79357900 0 4612.33191575 0 6261.80936096 0 1339
0.03550000 0.03553350 50597.97778651 0 -104.58430841 0 21037.74932517 0 4988.35913892 0 761.48806708 0 1365
0.03650000 0.03647120 51921.12060233 0 -54.35559266 0 15775.95912486 0 4675.78740929 0 2909.75160072 0 1308
0.03750000 0.03744890 49889.79189110 0 4262.35787289 0 19120.79772932 0 112.76055595 0 2435.13639736 0 1579
0.03850000 0.03847530 45832.67063106 0 2935.45046662 0 17592.81690435 0 -1173.40069498 0 8167.50040247 0 1662
0.03950000 0.03950240 45183.05733395 0 1049.55120572 0 18924.15324054 0 133.16463613 0 6230.25323523 0 1683
0.04050000 0.04050350 44772.60625292 0 -1334.60267202 0 19178.04164863 0 4147.09497152 0 3315.79589647 0 1822
0.04150000 0.04152450 46851.87813061 0 606.38251209 0 17806.51277335 0 2335.58512492 0 1619.61538517 0 1887
0.04250000 0.04250150 44306.79354780 0 2316.03139929 0 18941.31534401 0 1888.38499782 0 2167.68439137 0 1920
0.04350000 0.04349210 43727.37879004 0 733.73528492 0 20158.82818107 0 270.54672078 0 5894.90573345 0 2005
0.04450000 0.04448520 41922.14695161 0 1722.32227019 0 18963.01710065 0 2103.96316204 0 4095.71938437 0 2151
0.04550000 0.04548030 41721.84859564 0 1155.51889040 0 16234.79626534 0 3483.80735326 0 -3.26819597 0 2274
0.04650000 0.04648670 41265.89025961 0 -1681.95257390 0 16027.19017499 0 1049.13267184 0 2627.08622042 0 2311
0.04750000 0.04749250 41437.62201754 0 -123.09324947 0 15815.70877095 0 -189.64013610 0 340.61239223 0 2568
0.04850000 0.04851840 42930.39284959 0 -59.93261195 0 13948.47191354 0 912.95193443 0 -3453.17023049 0 2493
0.04950000 0.04949480 41281.39151435 0 1155.26422693 0 14652.89321850 0 -1177.24279169 0 -713.13079566 0 2644
0.05050000 0.05050630 40373.12870948 0 1992.78594854 0 12558.78442555 0 1695.57153343 0 684.00283076 0 2829
0.05150000 0.05149060 39662.61762587 0 744.06354951 0 14736.48927088 0 2433.38697004 0 -426.69971770 0 2784
0.05250000 0.05249300 38376.23492844 0 291.02498553 0 10197.43400078 0 4565.39633085 0 2616.65609044 0 3055
0.05350000 0.05348950 38742.83960318 0 -265.98049403 0 10517.44633268 0 2841.96682818 0 459.00876152 0 3009
0.05450000 0.05448610 37575.59512080 0 812.33439711 0 8214.21454088 0 -74.65005682 0 1680.39137610 0 3336
0.05550000 0.05550870 37315.72765731 0 1400.11761797 0 9248.58005312 0 1434.34217398 0 2964.85856134 0 3349
0.05650000 0.05647670 35710.12983535 0 -118.33547150 0 9980.50501293 0 -1487.21252499 0 2723.42651867 0 3324
0.05750000 0.05747970 37443.61300896 0 -843.93038321 0 10164.80385954 0 238.05387637 0 205.22332605 0 3639
0.05850000 0.05849280 36507.66939204 0 917.17824082 0 14274.33043295 0 -1960.87550841 0 -1178.52718137 0 3846
0.05950000 0.05951020 36273.15755238 0 2585.28819423 0 13767.55012600 0 -2412.68172263 0 2038.69180723 0 3787
0.06050000 0.06049470 34974.92746740 0 1881.12155274 0 14141.24108863 0 -2028.22846028 0 3528.84957063 0 3930
0.06150000 0.06148310 33919.40274243 0 -426.16049548 0 16633.28923556 0 974.97356191 0 7133.41169836 0 4083
0.06250000 0.06249100 34864.64711220 0 -388.41383294 0 17750.92970276 0 3022.86647106 0 3653.03676579 0 4303
0.06350000 0.06350600 35652.44302305 0 438.01674090 0 16712.45635802 0 1618.67423756 0 2991.77538297 0 4470
0.06450000 0.06451750 34338.04734383 0 117.24706197 0 16776.45439547 0 77.18218678 0 3051.05661005 0 4479
0.06550000 0.06550280 34812.60718555 0 1382.82264660 0 16815.53970208 0 -1013.62815508 0 2376.39771420 0 4636
0.06650000 0.06648880 32262.09716358 0 1491.80753979 0 15958.32031462 0 49.86952954 0 2133.73664348 0 4653
0.06750000 0.06749660 32134.10108868 0 1299.82449976 0 15289.77334207 0 1793.98235642 0 -354.14277316 0 5220
0.06850000 0.06852730 30552.97310457 0 118.06419954 0 13430.50855852 0 1455.67854391 0 353.68548615 0 5029
0.06950000 0.06949320 30089.04269467 0 772.52274599 0 13891.56016397 0 2320.18352110 0 -1539.50711511 0 5040
0.07050000 0.07048030 29340.88570668 0 880.18892530 0 11324.99527101 0 1378.72588642 0 -2154.66333738 0 5475
0.07150000 0.07148790 28290.34352788 0 872.78153999 0 10163.61912078 0 1828.63873310 0 -2336.85844227 0 5509
0.07250000 0.07249820 27394.37100356 0 203.70309585 0 9850.46055793 0 262.22697591 0 -2200.44740051 0 5916
0.07350000 0.07351270 27479.62790466 0 -52.62687059 0 8604.76865421 0 820.62867563 0 -1325.62301659 0 5721
0.07450000 0.07449140 27851.32584882 0 -477.33567356 0 8994.73593433 0 -341.48821313 0 -2718.25574298 0 6028
0.07550000 0.07549160 27566.65637774 0 449.59174926 0 8949.72693394 0 -950.62994856 0 -2970.70474884 0 6183
0.07650000 0.07648840 27733.73775925 0 1365.09585457 0 10999.11460695 0 -1103.20326286 0 -2415.90376915 0 6330
0.07750000 0.07749960 26227.45869092 0 1458.00373212 0 11240.07053965 0 -1623.92251953 0 -2851.34508730 0 6583
0.07850000 0.07848650 25753.78463518 0 1357.90991576 0 12313.86460056 0 -601.37339234 0 -1937.16966097 0 6549
0.07950000 0.07947320 24556.53415254 0 254.30915643 0 11460.52052679 0 1053.12535217 0 -2536.64747130 0 6828
0.08050000 0.08048110 24336.41633514 0 258.84991684 0 11279.26656951 0 2097.41941807 0 -2480.75437562 0 7147
0.08150000 0.08149960 24047.31793413 0 171.35640613 0 9579.33254010 0 2369.32249864 0 -2322.06581632 0 7386
0.08250000 0.08250610 23304.91855504 0 474.55430556 0 8465.27950615 0 1831.47324825 0 -2528.86362695 0 7227
0.08350000 0.08350160 22755.28835104 0 776.08582012 0 7452.08427897 0 1006.16762262 0 -2670.77761416 0 7798
0.08450000 0.08449610 22380.71160243 0 466.87121937 0 6777.08214105 0 602.03108843 0 -928.54619671 0 7371
0.08550000 0.08548940 21707.07136046 0 -148.47323242 0 5966.04542041 0 1119.04665245 0 957.39403179 0 8256
0.08650000 0.08650700 22556.09722755 0 -187.96046442 0 6364.50517366 0 942.09097166 0 722.09937877 0 8037
0.08750000 0.08749060 22220.38433905 0 207.68691832 0 6198.82997739 0 662.32764770 0 1395.26793970 0 8155
0.08850000 0.08849210 21853.22604807 0 768.41712795 0 6673.97665234 0 546.18671098 0 824.95463294 0 8718
0.08950000 0.08949900 20600.28177159 0 1081.54800998 0 6091.08518458 0 -133.82676115 0 1548.57534914 0 8571
0.09050000 0.09049190 20427.11061142 0 243.48928062 0 7212.36844664 0 427.57443136 0 1666.37381288 0 8932
0.09150000 0.09150830 19876.92679119 0 -116.49857281 0 6287.48608222 0 1237.79733613 0 2531.79779303 0 9285
0.09250000 0.09250820 20406.29464077 0 207.07683322 0 6917.99961902 0 690.51446499 0 2317.59259709 0 9204
0.09350000 0.09350330 19953.43655568 0 349.34956375 0 5948.76152137 0 1499.87926458 0 2190.47123585 0 9349
0.09450000 0.09448040 19464.26124519 0 666.80529586 0 5298.30672757 0 622.81716382 0 3339.39102065 0 9564
0.09550000 0.09549270 19137.62766304 0 639.71906765 0 4977.06536761 0 -399.84933001 0 2338.04318103 0 10155
0.09650000 0.09649430 18403.42180432 0 633.60603712 0 5540.48061600 0 -137.12742118 0 3378.04450660 0 9913
0.09750000 0.09749140 18286.60877748 0 237.50026013 0 5411.32194699 0 -668.84038916 0 2576.00958603 0 10476
0.09850000 0.09850240 17972.59764563 0 444.11427017 0 5441.26151330 0 -234.56166512 0 1965.16049811 0 10575
0.09950000 0.09950330 17732.43892031 0 134.31837237 0 6169.69869080 0 -839.43501934 0 106.75703071 0 10882
0.10050000 0.10051200 17669.32666884 0 -13.75858154 0 5822.60345238 0 169.05336256 0 -134.43795348 0 10875
0.10150000 0.10150300 17432.15747123 0 193.85979909 0 5804.25661016 0 -5.09259400 0 -661.06540267 0 11118
0.10250000 0.10250800 17274.70901231 0 145.97642318 0 5348.24291250 0 635.19048680 0 -922.83952050 0 11575
0.10350000 0.10349800 17245.58879803 0 158.16040941 0 4879.83928337 0 1053.07663394 0 -1210.68121265 0 11364
0.10450000 0.10450100 16843.88485361 0 318.13557285 0 4342.54364922 0 -35.12639687 0 -1332.32177310 0 12093
0.10550000 0.10551000 16533.41686570 0 491.44513708 0 4588.26068160 0 257.18353196 0 -236.27787547 0 12067
0.10650000 0.10649700 16213.42667844 0 702.56447609 0 4845.81402921 0 -122.75886526 0 -329.40387782 0 12054
0.10750000 0.10749900 15541.55800844 0 263.67634323 0 4287.25953140 0 465.75623626 0 204.81475726 0 12807
0.10850000 0.10850100 15820.13770088 0 -259.74123899 0 4820.86808139 0 699.07780100 0 96.76580769 0 12736
0.10950000 0.10950300 15563.48121159 0 232.09032222 0 4224.91127035 0 529.38445807 0 320.04333442 0 12933
0.11050000 0.11050200 15362.29706963 0 635.71420777 0 4871.96686043 0 117.25149090 0 505.91002222 0 13428
0.11150000 0.11150900 15069.65552467 0 376.92075978 0 4155.52101071 0 25.05932842 0 588.97681747 0 13453
0.11250000 0.11250000 14656.21491595 0 120.83006628 0 4761.17717829 0 245.19331141 0 1243.82068083 0 13668
0.11350000 0.11349100 14826.28582516 0 70.16011838 0 4528.91302057 0 -403.73350156 0 699.54948204 0 13791
0.11450000 0.11448600 14530.43330601 0 14.80646636 0 4575.39464016 0 77.18871945 0 579.79010957 0 14205
0.11550000 0.11549300 14876.11128684 0 -0.46939460 0 4961.29837706 0 -349.76256146 0 577.18811324 0 14776
0.11650000 0.11649800 14505.63129841 0 158.36081849 0 4829.47127777 0 56.25150684 0 1137.31598840 0 14553
0.11750000 0.11747300 14616.68671634 0 77.94817021 0 5106.82194216 0 574.69130399 0 793.77828795 0 14568
0.11850000 0.11849100 14298.46810106 0 273.89942074 0 5016.43855466 0 807.79031500 0 799.11625574 0 16015
0.11950000 0.11950300 14177.66903728 0 360.60126023 0 4705.72697560 0 764.21628791 0 1317.35198995 0 15270
0.12050000 0.12050700 13804.19952115 0 135.88510634 0 4452.64684722 0 311.07696578 0 1825.68242237 0 15999
0.12150000 0.12150000 13737.32267925 0 273.66136575 0 4658.94640324 0 -100.93498088 0 1832.44761284 0 15670
0.12250000 0.12250700 13470.25820462 0 292.70022828 0 4270.56246558 0 -138.31658887 0 1831.40681430 0 16887
0.12350000 0.12352200 13347.13395264 0 84.94377576 0 4588.50427274 0 -141.04591693 0 1584.78185129 0 16407
0.12450000 0.12449800 13278.26409227 0 26.59129528 0 4515.37156732 0 -263.92989947 0 1303.65552415 0 16306
0.12550000 0.12549900 13334.29005585 0 29.87567900 0 4263.32116515 0 118.05423445 0 202.28140934 0 17523
0.12650000 0.12650100 13172.30194375 0 87.22522829 0 4665.52336418 0 -106.12690471 0 213.32605335 0 17154
0.12750000 0.12750600 13255.23365664 0 149.67790136 0 4166.16151486 0 -45.76667958 0 -259.75784748 0 18007
0.12850000 0.12850300 13054.16023794 0 301.77067677 0 4189.80092835 0 349.18790781 0 99.18145680 0 17496
0.12950000 0.12949900 12742.36357104 0 282.28006339 0 4039.23945547 0 277.42152726 0 270.97964868 0 18405
0.13050000 0.13049000 12724.64785133 0 152.81801268 0 4215.94268725 0 700.12524293 0 414.81689870 0 18100
0.13150000 0.13148800 12571.18542935 0 65.80249423 0 3883.21932645 0 269.23243583 0 175.98353067 0 19059
0.13250000 0.13249300 12511.28415208 0 -16.67027080 0 3826.46258943 0 464.97563736 0 1147.76826303 0 18957
0.13350000 0.13349100 12618.35353307 0 22.47560143 0 3929.47949954 0 303.38391450 0 745.47637816 0 19468
0.13450000 0.13450700 12495.11855784 0 192.82675118 0 3459.17143054 0 425.56812610 0 626.25954960 0 19953
0.13550000 0.13551000 12380.18782622 0 147.56530179 0 3015.00512044 0 -54.79206370 0 271.42807784 0 19956
0.13650000 0.13649900 12105.59417072 0 205.95742118 0 2856.68194786 0 106.94127420 0 -313.09877229 0 19723
0.13750000 0.13749600 11909.61402143 0 253.61492167 0 2640.06298511 0 233.00489625 0 176.25701709 0 20946
0.13850000 0.13851100 11680.97051393 0 69.82053018 0 2369.52180049 0 22.69948383 0 -756.14456312 0 20955
0.13950000 0.13949800 11670.23035885 0 159.80243518 0 2659.18489007 0 161.36916914 0 -700.19832028 0 20506
0.14050000 0.14048300 11493.07316175 0 11.12403258 0 2475.55038295 0 -119.52906811 0 -755.10930075 0 21447
0.14150000 0.14148400 11482.88662292 0 134.15007304 0 2588.98635072 0 -5.70301127 0 -587.32814831 0 21771
0.14250000 0.14249400 11468.16043091 0 215.06330111 0 2885.83537911 0 -104.57445404 0 -374.67307784 0 22470
0.14350000 0.14350900 11327.32045922 0 224.25997411 0 3271.87198391 0 -115.45998874 0 -219.62842064 0 22519
0.14450000 0.14449900 11172.97225125 0 195.39110161 0 3183.55912116 0 -62.97672621 0 69.51969512 0 22218
0.14550000 0.14550500 11053.54615575 0 223.15163439 0 3220.54068605 0 63.32240419 0 202.71212278 0 23559
0.14650000 0.14650700 11021.62464330 0 9.19772487 0 3411.26148105 0 113.38171338 0 -59.81402735 0 23044
0.14750000 0.14750500 10758.91159233 0 284.91970563 0 3241.60024786 0 -105.79418135 0 -418.65345925 0 23649
0.14850000 0.14849900 10496.49749413 0 476.28490993 0 3401.01958059 0 -147.74024452 0 -13.34680178 0 23640
0.14950000 0.14949500 10257.13597620 0 157.22590519 0 3093.18680599 0 -129.09666399 0 -655.74736506 0 24457
0.15050000 0.15050000 10249.21926395 0 51.48077424 0 3354.33865916 0 255.97000516 0 -188.08226000 0 24591
0.15150000 0.15149900 10104.43754462 0 29.91542864 0 3185.20889755 0 300.60365373 0 -406.98765782 0 25020
0.15250000 0.15250500 10172.02301532 0 26.92468298 0 3055.70698648 0 391.34689179 0 -259.36145825 0 25297
0.15350000 0.15350100 10058.08879293 0 204.61656265 0 2887.04226251 0 130.11974680 0 -235.26143605 0 25452
0.15450000 0.15450400 9893.96372215 0 360.22037225 0 3092.53353882 0 -22.60824788 0 75.01057172 0 26061
0.15550000 0.15549900 9664.84410467 0 164.73072695 0 2918.00048271 0 -180.15004650 0 218.25988129 0 26128
0.15650000 0.15649500 9480.57847504 0 162.04568819 0 2984.20191280 0 26.09326211 0 348.66086514 0 26331
0.15750000 0.15749700 9489.00451423 0 -63.07670930 0 3030.11884382 0 263.59330080 0 110.72989158 0 27345
0.15850000 0.15849900 9460.52649480 0 -20.05142663 0 2939.10433381 0 230.13716412 0 -124.77070668 0 26980
0.15950000 0.15949700 9409.30592018 0 141.92395229 0 2625.23714218 0 196.46733158 0 375.89989143 0 27777
0.16050000 0.16050000 9403.64796220 0 64.29333635 0 2537.78792076 0 507.85100076 0 415.49009605 0 28224
0.16150000 0.16150500 9319.65330613 0 -84.93137475 0 2729.53844197 0 127.18779519 0 503.85167703 0 28075
0.16250000 0.16249700 9325.96453127 0 285.25741154 0 2498.92406065 0 125.24681665 0 293.54283220 0 28590
0.16350000 0.16349900 8962.85871117 0 372.76974520 0 2626.54367650 0 -267.52065441 0 443.22294803 0 29163
0.16450000 0.16449100 8714.03035552 0 383.32720692 0 2266.68204757 0 89.85878074 0 766.83157104 0 28996
0.16550000 0.16550500 8460.47411718 0 1.00069568 0 2497.37393517 0 209.14735796 0 492.89782609 0 30777
0.16650000 0.16650700 8557.09122354 0 -87.83232386 0 2193.25038938 0 467.62635193 0 272.61945999 0 29211
0.16750000 0.16749900 8475.07851361 0 106.31336266 0 2032.64631788 0 26.68253124 0 14.44750159 0 30922
0.16850000 0.16850800 8398.20336240 0 257.20789107 0 2052.27754979 0 -49.76334594 0 -71.27620872 0 30867
0.16950000 0.16949900 8220.00536676 0 165.21458755 0 1932.19818713 0 -68.68694557 0 262.50378403 0 30852
0.17050000 0.17049200 8143.16343252 0 31.05587810 0 2147.72098972 0 267.71552733 0 488.72466687 0 31257
0.17150000 0.17149500 8175.20674055 0 -62.23310888 0 2048.12542798 0 237.24559666 0 409.95061195 0 32608
0.17250000 0.17250900 8343.59465639 0 -31.93369201 0 2251.56832420 0 327.47729330 0 292.12225292 0 32361
0.17350000 0.17350400 8246.60109098 0 67.31032342 0 2008.45328815 0 -80.39460038 0 854.36494212 0 32508
0.17450000 0.17449800 8236.19310565 0 206.93732193 0 2245.60034112 0 -129.31921772 0 886.31413539 0 32791
0.17550000 0.17549800 8082.83033459 0 118.44176582 0 2263.79217080 0 -166.11144586 0 909.64795271 0 33633
0.17650000 0.17650100 8034.59928768 0 78.97601413 0 2307.59428778 0 172.32412732 0 675.61775918 0 33984
0.17750000 0.17750300 7975.09661410 0 78.01316476 0 2196.07383221 0 -12.39624270 0 578.72495192 0 34069
0.17850000 0.17849800 7887.09377644 0 139.27655943 0 2245.71106437 0 -7.40558051 0 503.64130286 0 34536
