### header ###
fiducial parameters:
Omega_m = 0.31
Omega_nu = 0
Omega_de = 0.69
Omega_k = 0
H_0 = 100
w_de = -1
zeff = 0
beta = 0
fgrowth = 0
b_1 = 2
gamma = 0.55
Lx = 3500 Ly = 3500 Lz = 3500
nx = 700 ny = 700 nz = 700
xoffset = -685.467585 yoffset = -31.7331281 zoffset = 572.489161
bins = 400 dk = 0.001
kx_ny = 0.628318531 ky_ny = 0.628318531 kz_ny = 0.628318531
############################
A(data) = 8.04689181 (not used)
A(ran) = 8.04285853 (used)
Ngal = 477382
weighted Ngal = 0
Nran = 23820508
weighted Nran = 0
SN(data) = 3490.44023
SN(ran) = 70.0562147
SN(data+ran) = 3560.49645
############################
13 columns: k_central k_mean P_0(k) sigma^{lin}_{P_0(k)} P^img_1(k) sigma^{lin}_{P_1(k)} P_2(k) sigma^{lin}_{P_2(k)} P^img_3(k) sigma^{lin}_{P_3(k)} P_4(k) sigma^{lin}_{P_4(k)} N_modes
### header ###
0.00050000 0 0 0 0 0 0 0 0 0 0 0 0
0.00150000 0.00179520 29040.93642734 0 -34077.29409435 0 18488.12508918 0 -47742.86810877 0 6274.84148727 0 3
0.00250000 0.00253879 30116.50206022 0 -8168.10938034 0 -3640.14857970 0 -4388.39414630 0 1754.24378264 0 6
0.00350000 0.00331552 48858.40483425 0 -7.08206933 0 15089.91787909 0 -16326.25366834 0 40066.64675850 0 7
0.00450000 0.00420575 37617.22706212 0 9486.52431347 0 22328.89312227 0 -31461.01446295 0 18674.02942289 0 24
0.00550000 0.00557378 42864.29107043 0 3923.35650391 0 42697.54185866 0 8960.41172739 0 12172.80318237 0 45
0.00650000 0.00659388 31607.39059705 0 -15288.66610959 0 36996.51253278 0 -12559.00587205 0 12611.15652194 0 40
0.00750000 0.00754703 60203.66245967 0 -8600.70511100 0 41784.18578437 0 23360.39090238 0 -21729.54817984 0 57
0.00850000 0.00846663 68810.62343420 0 -2021.92830746 0 59449.74786277 0 -4372.15104579 0 7705.05368410 0 75
0.00950000 0.00948925 74399.37938641 0 3874.32824962 0 56298.67494263 0 -6309.11033259 0 -14687.66031843 0 112
0.01050000 0.01054430 75449.36794896 0 2380.26195556 0 65157.53130678 0 49.91226871 0 29953.51743889 0 105
0.01150000 0.01145670 77212.19278334 0 -8563.70140146 0 58537.83119071 0 12393.36389276 0 -7293.67252779 0 144
0.01250000 0.01249090 90087.75642195 0 -4010.36283234 0 65063.30582258 0 36395.83891137 0 -92.84886206 0 169
0.01350000 0.01339930 88893.05257402 0 1147.54681653 0 52840.56645527 0 13910.60456266 0 -33448.82893764 0 180
0.01450000 0.01448870 83851.93380734 0 12807.24739448 0 49295.42949484 0 11859.23494351 0 -18190.27955156 0 267
0.01550000 0.01550050 72034.10935865 0 8848.40408952 0 37815.97529261 0 8174.66419663 0 -14555.01386710 0 238
0.01650000 0.01653350 68312.70098711 0 -1330.31768231 0 25811.25000099 0 6037.81622988 0 -26434.28971853 0 315
0.01750000 0.01747870 66388.66310337 0 -5723.16290319 0 16081.33384335 0 8066.85296987 0 -12291.05561143 0 297
0.01850000 0.01844180 74183.46905245 0 -7123.65698020 0 15768.20849748 0 9341.16683325 0 -33670.38615726 0 388
0.01950000 0.01947590 77131.58625866 0 -9571.71478062 0 387.40514415 0 622.17164728 0 -16758.18505952 0 399
0.02050000 0.02045430 82023.67153328 0 452.01991009 0 3063.22509503 0 5962.01509417 0 -28751.72730308 0 462
0.02150000 0.02154770 82520.92964089 0 3584.73159399 0 -1994.24749541 0 -14616.90816284 0 -21784.68835744 0 571
0.02250000 0.02255340 76442.00186896 0 4830.52314863 0 6210.05731476 0 -12681.13361480 0 -7725.42676177 0 510
0.02350000 0.02348930 74433.26070036 0 5539.30694957 0 8770.83138184 0 -4302.47290570 0 -12261.38178092 0 555
0.02450000 0.02439640 70480.66218660 0 -1480.15945408 0 9821.72787503 0 5042.53602426 0 -6381.49011993 0 592
0.02550000 0.02547300 73982.50635699 0 -4166.41617833 0 5706.62084991 0 8240.02413004 0 -14024.53878504 0 837
0.02650000 0.02652900 76417.64275435 0 -1355.31899175 0 1378.07261925 0 3545.35840693 0 -14919.95769313 0 723
0.02750000 0.02749970 77603.71018893 0 6141.19852671 0 10049.35272865 0 -7688.62235407 0 -20727.05989076 0 826
0.02850000 0.02848090 67480.50505374 0 10186.98172615 0 9673.73518150 0 -13761.79251710 0 -4177.59922640 0 831
0.02950000 0.02946900 61310.56277179 0 7366.11874908 0 17966.50786698 0 -8695.73887492 0 -7769.69391639 0 996
0.03050000 0.03053250 56414.60218348 0 2780.54864241 0 15889.56117749 0 -3409.64492163 0 -6045.16825356 0 1041
0.03150000 0.03150510 59400.03312434 0 -903.80951583 0 23634.98455788 0 2697.62800184 0 -9494.39673642 0 1036
0.03250000 0.03246190 55660.35541684 0 802.77344463 0 18073.79869447 0 2763.60798543 0 -11929.65492935 0 1059
0.03350000 0.03345080 55202.84695533 0 4137.30703639 0 17971.26896665 0 -1339.49663959 0 -18753.08582209 0 1302
0.03450000 0.03451200 48832.38487092 0 5946.07094643 0 15234.52244122 0 -3665.59278214 0 -14147.88448352 0 1339
0.03550000 0.03553350 47723.60226358 0 1798.88739631 0 14129.83659407 0 1347.09225441 0 -12594.43731147 0 1365
0.03650000 0.03647120 43528.51983630 0 -1733.53853523 0 11770.98851470 0 7764.75565952 0 -12666.07525304 0 1308
0.03750000 0.03744890 47524.07897035 0 -3416.47654604 0 9366.99856705 0 6811.45063729 0 -14278.75936288 0 1579
0.03850000 0.03847530 50212.77160606 0 -1838.49310219 0 8045.41694902 0 3546.93067705 0 -14012.69139749 0 1662
0.03950000 0.03950240 49950.91112410 0 693.96903033 0 10694.86926558 0 -5327.20549535 0 -15793.78556781 0 1683
0.04050000 0.04050350 49497.49942278 0 3940.29716089 0 14229.70896393 0 -8593.19807478 0 -3377.61268593 0 1822
0.04150000 0.04152450 47836.98286973 0 2719.19689059 0 18056.96876074 0 -3968.43193825 0 -5363.33449123 0 1887
0.04250000 0.04250150 46597.21465978 0 33.83901766 0 20999.54980455 0 -2465.56314597 0 -1748.30901654 0 1920
0.04350000 0.04349210 46301.80503362 0 2191.88849342 0 23091.33340929 0 5381.19415116 0 -4571.78506227 0 2005
0.04450000 0.04448520 44300.81449240 0 1702.17063902 0 20961.79317692 0 757.72347664 0 988.67667110 0 2151
0.04550000 0.04548030 42731.53389585 0 1985.33427393 0 22506.49321237 0 5792.36493330 0 -246.40905268 0 2274
0.04650000 0.04648670 41386.13570714 0 488.16994339 0 21638.53366983 0 1277.07087226 0 3554.68130443 0 2311
0.04750000 0.04749250 41156.60641365 0 1471.40124515 0 23195.63470908 0 3855.01811513 0 2339.61545115 0 2568
0.04850000 0.04851840 39847.41472709 0 1176.51201825 0 21576.75009734 0 787.37848420 0 7875.47890771 0 2493
0.04950000 0.04949480 38352.87232307 0 1362.99211285 0 18797.48584462 0 2856.69302019 0 6035.57962027 0 2644
0.05050000 0.05050630 38269.38699394 0 -304.80227931 0 18148.31544050 0 4930.36230152 0 3618.97829465 0 2829
0.05150000 0.05149060 38300.72167317 0 -912.90321621 0 15980.02207126 0 3936.27790698 0 1197.81517121 0 2784
0.05250000 0.05249300 37221.94506609 0 453.87120280 0 10765.97573556 0 3111.86581796 0 2389.71772096 0 3055
0.05350000 0.05348950 37368.09975370 0 888.86852072 0 10750.39697454 0 1986.35292782 0 2995.25209297 0 3009
0.05450000 0.05448610 36742.40267820 0 140.73921354 0 9822.25934662 0 -1130.28506214 0 2414.78546435 0 3336
0.05550000 0.05550870 36597.13377658 0 698.65262373 0 10430.03032824 0 837.22830500 0 4221.22418619 0 3349
0.05650000 0.05647670 36344.35260097 0 36.62237868 0 13030.68690932 0 -729.96515832 0 4301.75320459 0 3324
0.05750000 0.05747970 36500.80455065 0 699.84954204 0 13284.90748716 0 827.28867901 0 3609.05749161 0 3639
0.05850000 0.05849280 36293.75207654 0 1372.01605758 0 15022.70886744 0 554.17317887 0 5276.64926022 0 3846
0.05950000 0.05951020 34950.23618305 0 1249.17968604 0 12682.90518677 0 266.51860901 0 6455.15429695 0 3787
0.06050000 0.06049470 34523.06589155 0 1737.81245261 0 16086.75928251 0 -40.49027391 0 9307.80591857 0 3930
0.06150000 0.06148310 33326.70119489 0 563.03989659 0 14537.96248688 0 122.62710460 0 5635.87976664 0 4083
0.06250000 0.06249100 32288.44929665 0 782.26307013 0 14913.86791448 0 451.00679237 0 4725.49107540 0 4303
0.06350000 0.06350600 32167.53950963 0 1283.95785830 0 16178.88102501 0 -424.69119798 0 4327.80638489 0 4470
0.06450000 0.06451750 31232.48167869 0 787.02527704 0 16021.98618233 0 -306.28929253 0 4381.13070122 0 4479
0.06550000 0.06550280 30543.67235172 0 -19.20738331 0 16274.32446494 0 3568.03452816 0 5017.10289415 0 4636
0.06650000 0.06648880 30875.28848004 0 -527.03491074 0 13298.63716993 0 3234.01570536 0 3304.96716279 0 4653
0.06750000 0.06749660 31668.17766031 0 -1074.63334313 0 12794.40349769 0 3011.34018093 0 2989.16231432 0 5220
0.06850000 0.06852730 31822.41514503 0 -589.70316198 0 10821.82454195 0 2141.05545018 0 1817.88750570 0 5029
0.06950000 0.06949320 32499.15563795 0 1007.28260573 0 10033.68538903 0 107.76184419 0 1503.00166018 0 5040
0.07050000 0.07048030 30617.96765126 0 1980.93856098 0 9089.79184289 0 -1867.64653343 0 713.27252142 0 5475
0.07150000 0.07148790 29484.60448282 0 1607.00400720 0 9727.40273990 0 -327.86593190 0 2212.09548622 0 5509
0.07250000 0.07249820 27845.78968641 0 303.70722638 0 9643.19770965 0 513.02841984 0 1073.37663427 0 5916
0.07350000 0.07351270 28540.91023853 0 281.17283091 0 10112.24353362 0 1539.03100514 0 376.75578214 0 5721
0.07450000 0.07449140 27807.92233553 0 137.81611979 0 10344.86200574 0 1598.79941451 0 2195.60879456 0 6028
0.07550000 0.07549160 28216.82329109 0 214.19633808 0 10383.02830939 0 285.00164083 0 1780.33017991 0 6183
0.07650000 0.07648840 27931.71092701 0 449.14664180 0 11034.84499914 0 -88.10104918 0 3367.95761869 0 6330
0.07750000 0.07749960 27846.67547240 0 341.29666191 0 12345.08855655 0 68.41290553 0 2091.10819292 0 6583
0.07850000 0.07848650 27268.03577738 0 703.60195293 0 11971.61904042 0 -1873.27127444 0 2523.64856197 0 6549
0.07950000 0.07947320 26813.29539707 0 1071.87633425 0 12073.92732174 0 -565.67510989 0 1683.19267428 0 6828
0.08050000 0.08048110 25806.48890132 0 707.94341149 0 12143.57224485 0 -166.44029391 0 823.34139521 0 7147
0.08150000 0.08149960 25279.44623995 0 151.25902935 0 11441.47612810 0 1430.02396730 0 -36.99839483 0 7386
0.08250000 0.08250610 24909.18769801 0 420.09618318 0 10120.60313886 0 1229.42665856 0 -2371.52589128 0 7227
0.08350000 0.08350160 24279.39386233 0 427.60100494 0 9848.16858670 0 1137.88067696 0 -1577.73985271 0 7798
0.08450000 0.08449610 23872.70737174 0 820.02966286 0 9260.00669233 0 1478.46538838 0 -1321.23837596 0 7371
0.08550000 0.08548940 23429.59293250 0 11.82059253 0 9022.98143494 0 1740.03798990 0 -318.43895455 0 8256
0.08650000 0.08650700 23288.86368405 0 217.23569124 0 8298.10954604 0 401.21454766 0 -2149.33754915 0 8037
0.08750000 0.08749060 23028.66405081 0 758.17965642 0 8863.88319962 0 -163.31014768 0 -2457.26997468 0 8155
0.08850000 0.08849210 22202.00427985 0 1042.60664360 0 8829.45934176 0 -1187.08608846 0 -1462.15585393 0 8718
0.08950000 0.08949900 21471.45228832 0 793.60002352 0 8479.34135867 0 82.03286156 0 -677.55763049 0 8571
0.09050000 0.09049190 21245.35541552 0 -301.95115566 0 7970.86698602 0 1289.38329746 0 -927.25405640 0 8932
0.09150000 0.09150830 21648.38803892 0 -434.64300352 0 7937.58357762 0 1936.97035912 0 -1863.26189281 0 9285
0.09250000 0.09250820 21426.16647981 0 295.39191044 0 6927.52181836 0 1012.75565588 0 -1796.63971437 0 9204
0.09350000 0.09350330 21015.71539878 0 840.80798761 0 6850.15948485 0 800.70181266 0 -820.14149334 0 9349
0.09450000 0.09448040 20331.00283200 0 421.93861803 0 6433.62969750 0 -341.06967925 0 -264.47244339 0 9564
0.09550000 0.09549270 20377.72804273 0 -62.67578042 0 6395.55197245 0 125.57123577 0 -1034.46294869 0 10155
0.09650000 0.09649430 20310.29758459 0 274.84389004 0 6921.33238879 0 739.74977176 0 210.59561805 0 9913
0.09750000 0.09749140 19730.88282683 0 378.84955876 0 6281.42952054 0 -691.16330322 0 -739.86824564 0 10476
0.09850000 0.09850240 19810.82501202 0 420.78931071 0 6276.03729835 0 82.26349809 0 -1204.50285540 0 10575
0.09950000 0.09950330 19091.89896154 0 602.78400652 0 6500.37367151 0 660.89045994 0 -728.91439469 0 10882
0.10050000 0.10051200 18424.01632848 0 1129.83109682 0 6376.38577819 0 297.02397112 0 -812.44401313 0 10875
0.10150000 0.10150300 17922.32929095 0 303.21229346 0 5965.89040786 0 393.91234945 0 -355.68404078 0 11118
0.10250000 0.10250800 17636.55258738 0 160.15674957 0 6779.13052114 0 -108.11538352 0 -614.93034685 0 11575
0.10350000 0.10349800 17591.93111836 0 233.84417847 0 6607.04444881 0 361.13494628 0 1322.87708003 0 11364
0.10450000 0.10450100 17642.53164278 0 296.54564669 0 7543.23165687 0 5.60176593 0 579.26528137 0 12093
0.10550000 0.10551000 17261.20077603 0 219.23424587 0 6612.43667099 0 940.82651217 0 2002.82854715 0 12067
0.10650000 0.10649700 17100.43061966 0 204.30210862 0 6631.38141876 0 1244.75075611 0 1110.39916676 0 12054
0.10750000 0.10749900 16936.22804260 0 10.58047001 0 6133.43682702 0 768.41048455 0 1476.52773154 0 12807
0.10850000 0.10850100 17087.80816937 0 -89.06899182 0 5625.64893851 0 380.28563929 0 1237.55374498 0 12736
0.10950000 0.10950300 16644.58300688 0 316.42157697 0 5259.89683277 0 145.41948524 0 1020.97353536 0 12933
0.11050000 0.11050200 16554.89717585 0 331.16880640 0 5252.11298843 0 -23.48993710 0 813.75054745 0 13428
0.11150000 0.11150900 15984.22955469 0 515.73006710 0 5022.50618866 0 -203.37756950 0 -227.94262934 0 13453
0.11250000 0.11250000 15808.51175982 0 459.43172433 0 4933.65078199 0 -292.26287145 0 308.15497926 0 13668
0.11350000 0.11349100 15442.34997807 0 329.50574321 0 4880.61434611 0 -597.25338028 0 263.80478220 0 13791
0.11450000 0.11448600 15494.61135121 0 -59.75146871 0 5244.40665035 0 56.67557688 0 -324.52208981 0 14205
0.11550000 0.11549300 15440.13551311 0 -169.81181681 0 5529.24220631 0 -40.20726528 0 -981.88047813 0 14776
0.11650000 0.11649800 15302.61723886 0 371.40563479 0 5238.62689680 0 316.81353727 0 -999.53308559 0 14553
0.11750000 0.11747300 15146.82962866 0 482.19974585 0 5257.46092131 0 211.44486536 0 -996.91005184 0 14568
0.11850000 0.11849100 14419.82078107 0 256.98644458 0 4949.19632604 0 717.65605482 0 -549.09873241 0 16015
0.11950000 0.11950300 14548.48119546 0 68.15060215 0 4361.99772393 0 807.78367161 0 -689.26772122 0 15270
0.12050000 0.12050700 14309.65114912 0 -73.96036171 0 4480.12835742 0 707.35547104 0 -1335.59918125 0 15999
0.12150000 0.12150000 14392.13996902 0 82.20149307 0 3463.14639515 0 332.44323098 0 -957.68301947 0 15670
0.12250000 0.12250700 14046.90488118 0 73.68012117 0 3889.55269624 0 88.74324402 0 -1120.70750117 0 16887
0.12350000 0.12352200 14146.00218830 0 342.72720627 0 3416.90836671 0 -512.12159644 0 -1149.99380031 0 16407
0.12450000 0.12449800 13928.09883587 0 296.05846440 0 3930.58673202 0 -194.25175939 0 -916.99001130 0 16306
0.12550000 0.12549900 13530.04875864 0 320.22049162 0 4021.56802506 0 11.81018454 0 -205.47577505 0 17523
0.12650000 0.12650100 13863.43645893 0 -26.04210797 0 4384.96172560 0 749.33286889 0 -89.39518250 0 17154
0.12750000 0.12750600 13656.71615457 0 -214.11108118 0 3700.81384738 0 880.47237681 0 -163.93019787 0 18007
0.12850000 0.12850300 13757.58503366 0 51.88236747 0 3705.61923636 0 624.91426214 0 -82.58193815 0 17496
0.12950000 0.12949900 13917.80157379 0 200.94276527 0 3398.41758426 0 244.99179510 0 632.07805629 0 18405
0.13050000 0.13049000 13275.49601106 0 412.76851861 0 3196.74626002 0 -220.88402227 0 452.03873305 0 18100
0.13150000 0.13148800 13044.97020834 0 424.50850462 0 3219.47774287 0 -19.50478595 0 471.66885772 0 19059
0.13250000 0.13249300 12805.80799225 0 271.92522522 0 3406.41180278 0 -555.09439630 0 -181.35360820 0 18957
0.13350000 0.13349100 12692.20593961 0 278.71920373 0 3420.39614903 0 -422.85429929 0 -613.32153805 0 19468
0.13450000 0.13450700 12448.83624010 0 211.09276544 0 3923.88797551 0 -702.69180783 0 -570.53918219 0 19953
0.13550000 0.13551000 12270.01819428 0 291.11134967 0 4056.25761871 0 -25.34233704 0 -358.76103984 0 19956
0.13650000 0.13649900 12184.42912343 0 225.46907198 0 4201.53759266 0 353.19055323 0 -222.79178384 0 19723
0.13750000 0.13749600 11885.58707658 0 189.95126843 0 4216.98348578 0 689.39948188 0 -2.33359211 0 20946
0.13850000 0.13851100 11819.59602066 0 183.36877132 0 3836.90379173 0 548.57168974 0 -170.69317387 0 20955
0.13950000 0.13949800 11449.66964847 0 278.04489915 0 3520.20208494 0 229.83821135 0 130.85827087 0 20506
0.14050000 0.14048300 11357.54790597 0 190.72190223 0 3480.02061818 0 303.66404431 0 592.56535795 0 21447
0.14150000 0.14148400 11322.44863630 0 -93.77816228 0 3290.81673167 0 307.62904383 0 661.75410127 0 21771
0.14250000 0.14249400 11288.34587586 0 -165.86674748 0 3175.63133659 0 317.14017085 0 554.22854049 0 22470
0.14350000 0.14350900 11580.10163483 0 33.27886875 0 3263.82240377 0 246.92280855 0 218.71384661 0 22519
0.14450000 0.14449900 11304.29002360 0 143.23934448 0 2748.32817719 0 95.45351575 0 279.04805178 0 22218
0.14550000 0.14550500 11322.67008280 0 227.93155702 0 3277.19777215 0 -185.76371518 0 427.26772796 0 23559
0.14650000 0.14650700 10929.35896059 0 184.75502639 0 3068.48444932 0 59.44332591 0 890.84935963 0 23044
0.14750000 0.14750500 11148.28096690 0 20.01466651 0 3359.34334998 0 231.60978332 0 403.65931698 0 23649
0.14850000 0.14849900 10915.16424017 0 216.00444872 0 3080.19896897 0 -37.49886391 0 516.76865117 0 23640
0.14950000 0.14949500 10857.24490904 0 375.36620537 0 3251.86429296 0 -77.95990688 0 308.00993181 0 24457
0.15050000 0.15050000 10451.65457861 0 185.69063784 0 3052.19705951 0 202.99335983 0 989.75843724 0 24591
0.15150000 0.15149900 10429.78673710 0 52.36711385 0 3024.08442679 0 467.24435672 0 601.42100334 0 25020
0.15250000 0.15250500 10372.87498753 0 5.04440725 0 2948.77047338 0 442.50435414 0 525.82359841 0 25297
0.15350000 0.15350100 10175.54401461 0 269.83698476 0 2774.52529771 0 -17.47301435 0 230.34310936 0 25452
0.15450000 0.15450400 9989.48466836 0 425.42086418 0 2981.11273417 0 -251.39270608 0 577.81591406 0 26061
0.15550000 0.15549900 9595.69743618 0 278.49111384 0 2762.45646365 0 -246.59617497 0 796.13780037 0 26128
0.15650000 0.15649500 9470.79053990 0 123.38112992 0 2810.23354525 0 213.46335018 0 561.03580579 0 26331
0.15750000 0.15749700 9459.88429996 0 -32.85502016 0 2732.29545085 0 107.85130858 0 293.45757530 0 27345
0.15850000 0.15849900 9509.30008562 0 -68.07630685 0 2741.40797417 0 125.46604868 0 -99.91389108 0 26980
0.15950000 0.15949700 9547.63247414 0 -47.71718032 0 2970.60509792 0 -191.80256114 0 -208.21285375 0 27777
0.16050000 0.16050000 9561.12963810 0 110.06079099 0 2912.71898377 0 -165.17583441 0 -174.17763449 0 28224
0.16150000 0.16150500 9613.33564962 0 96.40352122 0 3202.54815822 0 -326.14418539 0 -230.73728413 0 28075
0.16250000 0.16249700 9337.38009816 0 330.79788351 0 3287.93792722 0 -222.60244708 0 210.18262033 0 28590
0.16350000 0.16349900 9341.03396535 0 200.46001191 0 3338.06234168 0 195.60369025 0 -12.16228447 0 29163
0.16450000 0.16449100 9111.53788884 0 43.34405490 0 3280.02121498 0 297.49897385 0 197.96541713 0 28996
0.16550000 0.16550500 9176.00096393 0 114.06819751 0 2883.98630086 0 480.06832332 0 -21.11071595 0 30777
0.16650000 0.16650700 9015.48547104 0 67.08810186 0 2698.20376273 0 324.13566567 0 95.01161927 0 29211
0.16750000 0.16749900 8906.74416899 0 123.03013722 0 2723.47080797 0 7.33497230 0 -273.39341549 0 30922
0.16850000 0.16850800 8721.81419987 0 119.15260907 0 2566.19950624 0 -53.01894161 0 -171.91555853 0 30867
0.16950000 0.16949900 8665.20140307 0 275.23474311 0 2763.40868359 0 -32.13210807 0 -152.43601748 0 30852
0.17050000 0.17049200 8455.15940126 0 371.55954010 0 2872.81432512 0 -10.24269766 0 64.75305928 0 31257
0.17150000 0.17149500 8078.42354931 0 254.95467297 0 2944.91730434 0 202.21054647 0 298.17549290 0 32608
0.17250000 0.17250900 8074.92469467 0 33.85872640 0 2522.07629184 0 328.59227641 0 305.98480360 0 32361
0.17350000 0.17350400 7949.68562864 0 -39.60315924 0 2599.47184232 0 602.40090408 0 660.01021011 0 32508
0.17450000 0.17449800 8136.67505018 0 -215.10205425 0 2285.01781747 0 466.68077539 0 239.41798679 0 32791
0.17550000 0.17549800 8172.75975676 0 -62.93930175 0 2056.81720296 0 235.01120151 0 406.95222638 0 33633
0.17650000 0.17650100 8170.15776043 0 145.96867255 0 1920.64975234 0 33.72607995 0 182.28811242 0 33984
0.17750000 0.17750300 8027.74551861 0 198.84788142 0 1985.92110715 0 -183.62786372 0 328.27560792 0 34069
