### header ###
fiducial parameters:
Omega_m = 0.31
Omega_nu = 0
Omega_de = 0.69
Omega_k = 0
H_0 = 100
w_de = -1
zeff = 0
beta = 0
fgrowth = 0
b_1 = 2
gamma = 0.55
Lx = 3500 Ly = 3500 Lz = 3500
nx = 700 ny = 700 nz = 700
xoffset = -685.467585 yoffset = -31.7331281 zoffset = 572.489161
bins = 400 dk = 0.001
kx_ny = 0.628318531 ky_ny = 0.628318531 kz_ny = 0.628318531
############################
A(data) = 8.02931367 (not used)
A(ran) = 8.02647774 (used)
Ngal = 476915
weighted Ngal = 0
Nran = 23820508
weighted Nran = 0
SN(data) = 3488.99194
SN(ran) = 69.9135321
SN(data+ran) = 3558.90547
############################
13 columns: k_central k_mean P_0(k) sigma^{lin}_{P_0(k)} P^img_1(k) sigma^{lin}_{P_1(k)} P_2(k) sigma^{lin}_{P_2(k)} P^img_3(k) sigma^{lin}_{P_3(k)} P_4(k) sigma^{lin}_{P_4(k)} N_modes
### header ###
0.00050000 0 0 0 0 0 0 0 0 0 0 0 0
0.00150000 0.00179520 -1148.54332576 0 -3874.00715220 0 -2977.58066256 0 7490.93706676 0 -11284.58128542 0 3
0.00250000 0.00253879 4524.27371647 0 -11110.52433927 0 -8722.82178143 0 11318.01970637 0 12197.05157372 0 6
0.00350000 0.00331552 9201.74411913 0 -14866.36764100 0 -10826.88459439 0 -7471.19511160 0 133.86883599 0 7
0.00450000 0.00420575 27456.37602254 0 -24498.40444724 0 -25673.51028024 0 -12796.72868590 0 -21174.71398318 0 24
0.00550000 0.00557378 48855.74747629 0 -16599.62936811 0 -23458.82387002 0 -37506.17164419 0 -22039.13038177 0 45
0.00650000 0.00659388 63813.24035055 0 -630.50467894 0 -30493.18255055 0 -45149.72963624 0 -8143.47345762 0 40
0.00750000 0.00754703 59502.00923592 0 1873.94668626 0 -13719.49623629 0 -48258.83844532 0 -21662.33916819 0 57
0.00850000 0.00846663 55072.96858521 0 3672.02580286 0 -4856.76455845 0 -26469.61043470 0 -19797.53822224 0 75
0.00950000 0.00948925 58221.27342414 0 1780.56269874 0 -3458.82818847 0 -15176.17128943 0 -33165.93103852 0 112
0.01050000 0.01054430 51899.30812244 0 -488.98154480 0 -3456.70230211 0 -5535.86345655 0 -28402.83834804 0 105
0.01150000 0.01145670 56351.04703903 0 -8462.12389357 0 -15424.41281186 0 6503.35212688 0 -23939.03059740 0 144
0.01250000 0.01249090 68299.30347408 0 -12577.82882424 0 -21600.22342596 0 -4208.47994032 0 -32098.66964926 0 169
0.01350000 0.01339930 70724.58550235 0 -11249.70346224 0 -17666.89075738 0 -12245.99124942 0 -40289.42193385 0 180
0.01450000 0.01448870 81651.30924963 0 5728.57727002 0 -7918.87134867 0 -31734.16871623 0 -21056.57227736 0 267
0.01550000 0.01550050 78181.13192822 0 11688.05680181 0 4141.39272424 0 -25422.83284635 0 -3927.06573273 0 238
0.01650000 0.01653350 68044.41855675 0 1548.59749379 0 19919.88741148 0 -22.59230373 0 2906.33025235 0 315
0.01750000 0.01747870 72390.63821781 0 -12.39602125 0 23043.05807308 0 13290.99726581 0 -8978.30460429 0 297
0.01850000 0.01844180 64312.49147663 0 2552.81306554 0 20098.81618055 0 16872.34072840 0 -4181.27523824 0 388
0.01950000 0.01947590 65610.16794537 0 3580.60161683 0 18098.93287181 0 16610.36952319 0 12599.41985763 0 399
0.02050000 0.02045430 63331.15132795 0 -1069.11046751 0 20917.61460089 0 2551.90513490 0 19991.96824605 0 462
0.02150000 0.02154770 62068.35268238 0 4412.63146533 0 19603.55109141 0 8061.41645839 0 7986.80006143 0 571
0.02250000 0.02255340 64008.66688360 0 -562.89042020 0 19962.51586203 0 -5045.21552686 0 18924.37468704 0 510
0.02350000 0.02348930 62260.12534824 0 -3333.37874828 0 4478.93254634 0 10045.70993379 0 7125.88251749 0 555
0.02450000 0.02439640 66480.34195287 0 -7701.84270990 0 11548.65623234 0 6683.49885168 0 12124.74929266 0 592
0.02550000 0.02547300 71490.79037980 0 -3857.95228121 0 3903.37095762 0 7065.44976862 0 -16868.24396821 0 837
0.02650000 0.02652900 72881.69582352 0 1926.25234870 0 1522.67718139 0 -10315.15495825 0 -8041.81844346 0 723
0.02750000 0.02749970 70025.47891330 0 5953.06865572 0 567.72681168 0 -14606.72162401 0 -17561.92511810 0 826
0.02850000 0.02848090 64032.91527495 0 4951.62116517 0 6805.06190586 0 -11838.08680310 0 -6212.70360039 0 831
0.02950000 0.02946900 61871.70819360 0 1010.43932553 0 17061.89892929 0 -5340.10475376 0 -14223.72990853 0 996
0.03050000 0.03053250 63685.90861514 0 682.84688005 0 18023.19817005 0 7380.85601341 0 -10619.92069888 0 1041
0.03150000 0.03150510 62608.01779404 0 1171.90593113 0 19711.06336540 0 2943.92079511 0 -9278.64141500 0 1036
0.03250000 0.03246190 60613.44920121 0 4560.59094188 0 19999.27598043 0 2167.51830650 0 -5670.30362450 0 1059
0.03350000 0.03345080 58293.46498196 0 3448.28733525 0 23546.40595933 0 -4110.45664870 0 1835.48142984 0 1302
0.03450000 0.03451200 56273.76221179 0 1858.60044406 0 26319.80187991 0 3277.83996699 0 4526.98643605 0 1339
0.03550000 0.03553350 55757.68115199 0 1861.31316364 0 23241.03124083 0 5164.12122309 0 3115.61933607 0 1365
0.03650000 0.03647120 52222.17711415 0 703.18452628 0 24064.81220734 0 4734.29357363 0 -1656.72981796 0 1308
0.03750000 0.03744890 51368.05797764 0 1778.47002935 0 21114.48053617 0 3622.82039136 0 -1234.73030215 0 1579
0.03850000 0.03847530 51097.89325207 0 2335.71799282 0 18886.50733616 0 4294.39010859 0 69.14688994 0 1662
0.03950000 0.03950240 48634.74387291 0 -851.00006261 0 17505.45626153 0 1668.79865202 0 81.38335899 0 1683
0.04050000 0.04050350 48641.71943755 0 933.52874288 0 17542.88071942 0 1547.42382735 0 232.09475115 0 1822
0.04150000 0.04152450 47808.30554845 0 2759.12369388 0 18829.04197035 0 1901.52784738 0 2180.49507119 0 1887
0.04250000 0.04250150 45483.22805978 0 3210.61988301 0 22788.72677199 0 -924.79710753 0 5272.31998122 0 1920
0.04350000 0.04349210 43830.46213410 0 1567.74154340 0 20285.38485375 0 4078.22511115 0 11539.46620275 0 2005
0.04450000 0.04448520 42655.35630110 0 -549.40543580 0 21383.75947576 0 4986.84223042 0 10790.84417711 0 2151
0.04550000 0.04548030 43433.96218234 0 835.29729155 0 20723.84891656 0 5517.67162688 0 7111.99782216 0 2274
0.04650000 0.04648670 41088.62233926 0 1022.39411464 0 17512.09965642 0 -430.03913086 0 5603.05032355 0 2311
0.04750000 0.04749250 40059.22830087 0 2101.00685131 0 18447.93255009 0 -1627.23314465 0 4773.48960349 0 2568
0.04850000 0.04851840 39687.64107996 0 1722.92017573 0 16681.56457177 0 -2291.31797030 0 5702.75660854 0 2493
0.04950000 0.04949480 38631.67346200 0 -993.47652391 0 18542.15803430 0 253.67360499 0 4068.04964464 0 2644
0.05050000 0.05050630 38445.76912830 0 326.75427049 0 17735.09627827 0 3882.08994932 0 2815.33788699 0 2829
0.05150000 0.05149060 37430.32621918 0 1713.42012104 0 15334.72698083 0 1624.12182137 0 1068.26343467 0 2784
0.05250000 0.05249300 36880.47456868 0 1768.49386468 0 12414.06914017 0 4365.48550625 0 2081.76315078 0 3055
0.05350000 0.05348950 34804.08149544 0 1040.21059250 0 13913.92626010 0 3260.30140447 0 4876.62830918 0 3009
0.05450000 0.05448610 34422.41845894 0 801.31743392 0 11689.38548079 0 1589.72010816 0 240.70237647 0 3336
0.05550000 0.05550870 33872.12391546 0 -551.19029456 0 11421.98883642 0 -518.33095620 0 444.76864457 0 3349
0.05650000 0.05647670 33622.55371405 0 861.07698543 0 9877.26665632 0 -1697.97422791 0 -887.68267473 0 3324
0.05750000 0.05747970 33509.17310790 0 500.03504667 0 11878.61151194 0 -1326.84097232 0 -1448.71405160 0 3639
0.05850000 0.05849280 33463.44440640 0 613.61495466 0 11232.98425176 0 -638.44353583 0 -792.01335937 0 3846
0.05950000 0.05951020 33075.91303775 0 542.97684401 0 10655.08640251 0 868.61170247 0 -659.39458885 0 3787
0.06050000 0.06049470 33310.86777040 0 -885.68522734 0 10426.05536363 0 4256.67777025 0 -3023.71904007 0 3930
0.06150000 0.06148310 32968.40076376 0 -331.83203865 0 11052.35034467 0 2152.69246357 0 241.50733448 0 4083
0.06250000 0.06249100 33757.85752333 0 865.50037919 0 9442.77755811 0 2405.98296612 0 -979.10353906 0 4303
0.06350000 0.06350600 32847.82314649 0 595.48402277 0 9120.16322987 0 1099.43977966 0 2757.04209682 0 4470
0.06450000 0.06451750 32460.73467083 0 -37.97995642 0 9997.12457248 0 -1584.64898340 0 1213.58216175 0 4479
0.06550000 0.06550280 32538.13022131 0 701.14168235 0 9868.39772414 0 -229.66105416 0 3103.78302084 0 4636
0.06650000 0.06648880 31413.95708247 0 1638.90337501 0 11618.74404845 0 -1333.75010300 0 3381.88660331 0 4653
0.06750000 0.06749660 31036.28008291 0 1163.26951777 0 12692.87027910 0 -1185.08199766 0 3319.48298063 0 5220
0.06850000 0.06852730 30259.66722013 0 -91.24813606 0 13309.59877150 0 171.66310952 0 1391.64728948 0 5029
0.06950000 0.06949320 29626.66241024 0 371.90942557 0 13605.78346040 0 555.21065571 0 2145.38472919 0 5040
0.07050000 0.07048030 30023.38380850 0 166.16680748 0 12585.24728187 0 1600.80350531 0 -189.17842015 0 5475
0.07150000 0.07148790 29268.25125587 0 -175.99571022 0 12218.08899088 0 1626.70167306 0 833.53125574 0 5509
0.07250000 0.07249820 29199.49211874 0 603.64986232 0 11092.91934281 0 1257.76073777 0 -928.86065073 0 5916
0.07350000 0.07351270 29051.34441267 0 1283.62568855 0 10868.62725896 0 -222.66888103 0 752.04891017 0 5721
0.07450000 0.07449140 27836.37821032 0 962.31346571 0 10567.71468736 0 466.25006195 0 864.61902214 0 6028
0.07550000 0.07549160 26927.22961946 0 442.90517230 0 10886.86337793 0 324.24749615 0 1632.20461849 0 6183
0.07650000 0.07648840 27479.73862791 0 -81.01431840 0 12261.16033442 0 -782.66167383 0 1572.25905192 0 6330
0.07750000 0.07749960 27296.15948242 0 -25.85609292 0 12730.07329049 0 -335.17255905 0 1846.01121074 0 6583
0.07850000 0.07848650 27385.29169721 0 687.33781500 0 13585.96399898 0 -273.63479217 0 2500.26381195 0 6549
0.07950000 0.07947320 26585.75912205 0 429.89961957 0 12611.48869169 0 1431.25299536 0 2156.98852560 0 6828
0.08050000 0.08048110 26729.69934469 0 636.66864216 0 12609.71711972 0 1680.67925655 0 2502.88795293 0 7147
0.08150000 0.08149960 25776.92579405 0 584.96199249 0 10921.63047786 0 1078.79543003 0 1780.13087807 0 7386
0.08250000 0.08250610 24699.69931244 0 298.10795172 0 10371.82311667 0 1489.52664088 0 2244.52632561 0 7227
0.08350000 0.08350160 24684.41950419 0 936.47065958 0 9622.49246224 0 1526.80715854 0 2129.62881097 0 7798
0.08450000 0.08449610 23912.67846433 0 380.68867191 0 8843.35510940 0 542.16302814 0 166.37496719 0 7371
0.08550000 0.08548940 23048.26206574 0 76.62624535 0 8075.81048065 0 741.80258078 0 755.51676230 0 8256
0.08650000 0.08650700 23107.60972677 0 567.28281146 0 8551.13431279 0 -981.25378454 0 -803.30823792 0 8037
0.08750000 0.08749060 22590.42143449 0 1151.52178114 0 8083.87113312 0 -391.01029311 0 -34.62880659 0 8155
0.08850000 0.08849210 21756.34320590 0 859.47703449 0 8647.61855126 0 -233.05915064 0 -460.13703142 0 8718
0.08950000 0.08949900 20686.53518193 0 610.80369139 0 7975.77202591 0 -161.28391224 0 -481.34828407 0 8571
0.09050000 0.09049190 20903.44202512 0 384.40122243 0 8456.68738209 0 532.85120297 0 -612.37596151 0 8932
0.09150000 0.09150830 20145.43066804 0 365.50740736 0 7874.90314682 0 1053.11427985 0 -771.69675056 0 9285
0.09250000 0.09250820 19910.47593539 0 379.33341936 0 7768.56453926 0 1120.98430929 0 -1196.98474684 0 9204
0.09350000 0.09350330 19510.65428618 0 409.90521541 0 7464.95032041 0 215.96458836 0 -202.24154897 0 9349
0.09450000 0.09448040 19416.09663223 0 429.17216783 0 7127.78695735 0 1113.28904354 0 305.55076846 0 9564
0.09550000 0.09549270 19007.19567668 0 93.18169615 0 6984.26748305 0 525.59883021 0 542.90708837 0 10155
0.09650000 0.09649430 18771.79805104 0 210.08850557 0 6724.75433396 0 1109.28086196 0 685.46991380 0 9913
0.09750000 0.09749140 18260.25664442 0 341.75394892 0 6193.55955078 0 1280.18219553 0 844.31237842 0 10476
0.09850000 0.09850240 17841.05842678 0 530.46733143 0 5596.29620541 0 609.06755086 0 368.71395262 0 10575
0.09950000 0.09950330 17328.74195742 0 877.79398144 0 5295.30612754 0 328.85801221 0 498.00327507 0 10882
0.10050000 0.10051200 16532.08818672 0 589.28573534 0 5455.86590974 0 57.46913040 0 742.83230699 0 10875
0.10150000 0.10150300 16230.36733541 0 302.60774453 0 5045.61413056 0 -402.65727159 0 842.97151988 0 11118
0.10250000 0.10250800 16059.29991696 0 111.69650554 0 5272.29783657 0 160.88309408 0 731.43777752 0 11575
0.10350000 0.10349800 16146.88200628 0 -314.99878323 0 5069.78501564 0 534.80325383 0 640.29150685 0 11364
0.10450000 0.10450100 16017.88942214 0 199.81338814 0 5117.01955331 0 364.78992071 0 249.25353292 0 12093
0.10550000 0.10551000 16162.16181453 0 314.53928175 0 4829.03945711 0 296.67076396 0 199.57976209 0 12067
0.10650000 0.10649700 15602.78796469 0 362.86997958 0 5183.65280407 0 195.97461313 0 -229.71198685 0 12054
0.10750000 0.10749900 15188.57229323 0 587.23735524 0 5060.09673142 0 -203.01550448 0 777.32924220 0 12807
0.10850000 0.10850100 15007.42905919 0 430.20410850 0 4925.81157602 0 -72.98500061 0 49.24538259 0 12736
0.10950000 0.10950300 14887.18361166 0 -317.57642045 0 4599.32193409 0 528.31708595 0 263.30874205 0 12933
0.11050000 0.11050200 15093.12885329 0 -328.42508431 0 4651.86011536 0 305.19756130 0 -151.60116418 0 13428
0.11150000 0.11150900 15348.12449386 0 -59.66576892 0 4284.25893138 0 466.51136882 0 -415.35390646 0 13453
0.11250000 0.11250000 15125.23859526 0 271.13576846 0 4022.68632986 0 -113.99844187 0 -433.91112285 0 13668
0.11350000 0.11349100 15181.37528209 0 171.93991764 0 3641.45511403 0 -220.86077039 0 -703.91862142 0 13791
0.11450000 0.11448600 15058.25103011 0 -129.46869410 0 4024.34717859 0 -132.83357362 0 -586.92400845 0 14205
0.11550000 0.11549300 14974.21208474 0 460.14810374 0 4178.19713194 0 199.72370231 0 -509.42880705 0 14776
0.11650000 0.11649800 14694.08226683 0 424.29259428 0 4450.52096085 0 -178.53237984 0 -377.10898930 0 14553
0.11750000 0.11747300 14440.74747497 0 402.71041875 0 5037.25452532 0 -219.63174234 0 -372.19730601 0 14568
0.11850000 0.11849100 14295.81074310 0 459.60888152 0 5666.12935804 0 -509.60596424 0 -54.97475706 0 16015
0.11950000 0.11950300 13965.63401701 0 257.60428030 0 5874.62123438 0 -308.11511889 0 1052.34918220 0 15270
0.12050000 0.12050700 13893.77462893 0 -28.33928320 0 5994.12483615 0 -25.51196506 0 882.43550000 0 15999
0.12150000 0.12150000 14099.16625432 0 -273.20407874 0 6356.56631676 0 656.02306595 0 700.69436043 0 15670
0.12250000 0.12250700 14065.28494037 0 170.01222589 0 6123.16170958 0 426.72961298 0 62.06558460 0 16887
0.12350000 0.12352200 13853.58208984 0 393.22032914 0 5488.07530264 0 364.48100285 0 652.84530872 0 16407
0.12450000 0.12449800 13386.88359874 0 544.98647097 0 5496.16917208 0 341.78716590 0 674.14624721 0 16306
0.12550000 0.12549900 13182.59920583 0 129.02469388 0 5272.13175170 0 382.72265798 0 1133.52925331 0 17523
0.12650000 0.12650100 13116.38670342 0 -3.31320497 0 4528.72479105 0 761.54564317 0 441.98506211 0 17154
0.12750000 0.12750600 13112.28994323 0 -91.61728737 0 4720.30922739 0 235.82058845 0 419.50049210 0 18007
0.12850000 0.12850300 13366.06762808 0 15.20861320 0 4504.79749712 0 245.91079806 0 138.35312754 0 17496
0.12950000 0.12949900 13173.51989948 0 -25.56788030 0 4595.09230601 0 -36.82732741 0 858.47941802 0 18405
0.13050000 0.13049000 13170.19820204 0 84.59400102 0 4009.89779470 0 355.24004055 0 788.89649993 0 18100
0.13150000 0.13148800 13253.90497766 0 36.74528148 0 4078.43548532 0 589.06207437 0 1058.45999827 0 19059
0.13250000 0.13249300 13012.30685012 0 117.20720160 0 3971.33288735 0 820.14149334 0 674.97334987 0 18957
0.13350000 0.13349100 13079.40513852 0 61.54064568 0 3366.07532347 0 667.16293195 0 454.10372162 0 19468
0.13450000 0.13450700 12747.45684046 0 -22.87741609 0 3057.62249867 0 210.17597694 0 473.07061404 0 19953
0.13550000 0.13551000 12746.68177772 0 265.64168089 0 2866.73561880 0 125.12280661 0 270.23780292 0 19956
0.13650000 0.13649900 12378.96987049 0 404.85623530 0 2824.57220589 0 -350.88972413 0 482.65814010 0 19723
0.13750000 0.13749600 12237.13338957 0 211.69067098 0 3043.83745427 0 41.98714150 0 657.57208419 0 20946
0.13850000 0.13851100 12101.71885704 0 95.56789287 0 3105.77603931 0 4.61562040 0 515.20080997 0 20955
0.13950000 0.13949800 12020.55871612 0 143.46521991 0 3133.77794877 0 -16.81454319 0 533.94293419 0 20506
0.14050000 0.14048300 11791.80448536 0 386.07757240 0 3410.63035854 0 321.42073163 0 814.56436333 0 21447
0.14150000 0.14148400 11690.27126677 0 366.35554744 0 3324.72019027 0 -100.31415562 0 1304.99527545 0 21771
0.14250000 0.14249400 11385.33944127 0 145.85241314 0 3556.37537013 0 -150.72091436 0 1141.98850947 0 22470
0.14350000 0.14350900 11291.55685006 0 81.86666597 0 3806.97529775 0 -87.33927323 0 1277.96773057 0 22519
0.14450000 0.14449900 11308.94040002 0 36.29862390 0 3686.27588490 0 133.52005776 0 553.24642528 0 22218
0.14550000 0.14550500 11231.32340304 0 234.72553553 0 3570.14934220 0 -140.13909353 0 410.71792406 0 23559
0.14650000 0.14650700 10793.33545019 0 485.53140839 0 3327.00108918 0 -306.07116773 0 -113.95525980 0 23044
0.14750000 0.14750500 10471.19723192 0 442.16000484 0 3350.62943035 0 -293.39446304 0 206.51435912 0 23649
0.14850000 0.14849900 10237.27222547 0 225.58643862 0 3409.68921093 0 264.94080273 0 -104.62693686 0 23640
0.14950000 0.14949500 10033.80718461 0 -26.19667763 0 3346.88698456 0 494.95395681 0 -47.14119798 0 24457
0.15050000 0.15050000 10080.35523814 0 -39.35691074 0 2930.06931676 0 514.46339314 0 -334.62780067 0 24591
0.15150000 0.15149900 10027.96099710 0 -24.08717830 0 3131.69635171 0 218.21005583 0 -140.14573693 0 25020
0.15250000 0.15250500 10092.24691500 0 126.47584471 0 3034.12702540 0 18.75375016 0 -21.63864439 0 25297
0.15350000 0.15350100 9902.55584621 0 297.94961747 0 3271.52874184 0 -42.95143027 0 86.49766582 0 25452
0.15450000 0.15450400 9692.07095140 0 269.89456085 0 3259.29382292 0 -40.30226583 0 589.05210928 0 26061
0.15550000 0.15549900 9532.50767844 0 123.16854128 0 3379.20710070 0 33.04336040 0 903.75193974 0 26128
0.15650000 0.15649500 9572.00266107 0 6.88437297 0 3089.06790115 0 208.86944261 0 514.26962746 0 26331
0.15750000 0.15749700 9549.07187637 0 29.06695639 0 3145.13815404 0 494.74911880 0 677.78904208 0 27345
0.15850000 0.15849900 9455.63252723 0 148.12777589 0 2984.13547885 0 117.32235378 0 593.40021124 0 26980
0.15950000 0.15949700 9407.35719102 0 151.93444116 0 2938.76109174 0 36.00188559 0 447.63305500 0 27777
0.16050000 0.16050000 9273.01667399 0 132.92879561 0 2978.34465297 0 -171.96870569 0 500.21552556 0 28224
0.16150000 0.16150500 9170.78589894 0 159.91758736 0 3120.35829109 0 -304.45239384 0 362.53005921 0 28075
0.16250000 0.16249700 9066.06385081 0 164.76615839 0 3034.65849700 0 -46.13018400 0 427.91103003 0 28590
0.16350000 0.16349900 8881.48819608 0 150.69655525 0 2903.65074974 0 315.30216493 0 318.84973780 0 29163
0.16450000 0.16449100 8840.15520753 0 -65.37775985 0 2668.54100454 0 265.46452369 0 277.59204106 0 28996
0.16550000 0.16550500 8906.52272250 0 -16.64823687 0 2507.18401496 0 419.59128517 0 -221.47528442 0 30777
0.16650000 0.16650700 8703.86596134 0 258.25090407 0 2733.95629957 0 41.22381543 0 -10.12729082 0 29211
0.16750000 0.16749900 8810.61424492 0 294.62902726 0 2586.68330716 0 -150.08536292 0 -67.95417911 0 30922
0.16850000 0.16850800 8330.57360240 0 208.55388135 0 2923.94632113 0 -287.50509347 0 432.03104210 0 30867
0.16950000 0.16949900 8318.64870857 0 104.35632925 0 2953.53157305 0 90.67525398 0 219.18109872 0 30852
0.17050000 0.17049200 8303.86715494 0 58.10700703 0 3119.87110880 0 153.32401793 0 310.02509492 0 31257
0.17150000 0.17149500 8233.55789234 0 1.13452576 0 2772.57656854 0 367.06196176 0 160.07259990 0 32608
0.17250000 0.17250900 8222.09803616 0 81.54257902 0 2721.42242788 0 104.70698977 0 248.94350783 0 32361
0.17350000 0.17350400 8161.11167105 0 113.58655138 0 2556.44478808 0 175.69011406 0 141.67039605 0 32508
0.17450000 0.17449800 8000.87298628 0 167.24414469 0 2290.64255848 0 -134.83766441 0 -115.50759974 0 32791
0.17550000 0.17549800 7872.74404348 0 182.31247153 0 2461.43316881 0 25.41773958 0 21.70297460 0 33633
0.17650000 0.17650100 7748.23575089 0 113.56219227 0 2547.14403523 0 -128.35481823 0 -153.53328487 0 33984
0.17750000 0.17750300 7619.38710698 0 29.00528354 0 2553.21166923 0 205.94745609 0 -210.43728381 0 34069
0.17850000 0.17849800 7670.04299302 0 -10.67451833 0 2491.42809674 0 176.95125186 0 96.84264962 0 34536
