### header ###
fiducial parameters:
Omega_m = 0.31
Omega_nu = 0
Omega_de = 0.69
Omega_k = 0
H_0 = 100
w_de = -1
zeff = 0
beta = 0
fgrowth = 0
b_1 = 2
gamma = 0.55
Lx = 3500 Ly = 3500 Lz = 3500
nx = 700 ny = 700 nz = 700
xoffset = -685.467585 yoffset = -31.7331281 zoffset = 572.489161
bins = 400 dk = 0.001
kx_ny = 0.628318531 ky_ny = 0.628318531 kz_ny = 0.628318531
############################
A(data) = 8.08712434 (not used)
A(ran) = 8.08656463 (used)
Ngal = 480886
weighted Ngal = 0
Nran = 23820508
weighted Nran = 0
SN(data) = 3487.61458
SN(ran) = 70.4369107
SN(data+ran) = 3558.05149
############################
13 columns: k_central k_mean P_0(k) sigma^{lin}_{P_0(k)} P^img_1(k) sigma^{lin}_{P_1(k)} P_2(k) sigma^{lin}_{P_2(k)} P^img_3(k) sigma^{lin}_{P_3(k)} P_4(k) sigma^{lin}_{P_4(k)} N_modes
### header ###
0.00050000 0 0 0 0 0 0 0 0 0 0 0 0
0.00150000 0.00179520 32982.01972329 0 -42848.56836918 0 -41367.31275494 0 76907.03951134 0 -53805.29811672 0 3
0.00250000 0.00253879 60884.83188252 0 -47622.17976825 0 -4624.74399188 0 -36848.69699645 0 20017.21314664 0 6
0.00350000 0.00331552 83029.26007331 0 -31348.07674980 0 -14143.89844659 0 -80613.50024438 0 45516.11286449 0 7
0.00450000 0.00420575 96019.86516679 0 -2199.20730013 0 6540.13438993 0 -66414.35089695 0 42755.67156395 0 24
0.00550000 0.00557378 92131.48613698 0 14112.34232085 0 16946.30385819 0 -38747.15780986 0 32844.72289554 0 45
0.00650000 0.00659388 81775.98362709 0 14549.92059769 0 62325.56278792 0 -28559.29029773 0 17252.12146968 0 40
0.00750000 0.00754703 76628.68126540 0 14379.40679548 0 52768.92851370 0 4772.00591196 0 -31501.87134153 0 57
0.00850000 0.00846663 69242.33337888 0 12580.15401245 0 58458.33189851 0 9163.31207969 0 -26556.97107752 0 75
0.00950000 0.00948925 72794.55662720 0 -3817.39435540 0 45241.18703924 0 725.77428338 0 -47319.13023796 0 112
0.01050000 0.01054430 77499.96250538 0 -10364.28286347 0 49761.46364646 0 8663.70663922 0 -43487.66295772 0 105
0.01150000 0.01145670 80186.10850638 0 -1029.51140503 0 31198.60036475 0 12764.28677418 0 -29679.80956937 0 144
0.01250000 0.01249090 91586.39558616 0 -5563.83214904 0 27705.83550071 0 725.83739563 0 -37629.40661942 0 169
0.01350000 0.01339930 90487.57807115 0 -1026.45101445 0 42067.85874622 0 2586.52829461 0 -45664.59274031 0 180
0.01450000 0.01448870 82758.87390124 0 9481.67463520 0 34769.53584201 0 -603.19368254 0 -34276.92811083 0 267
0.01550000 0.01550050 63507.09056932 0 14241.88852123 0 33372.87278939 0 11365.40925660 0 -13392.30903790 0 238
0.01650000 0.01653350 62569.92899667 0 11391.53994317 0 29436.88276285 0 6170.93879118 0 -9934.48843098 0 315
0.01750000 0.01747870 58676.01380445 0 -5066.47439052 0 18602.17003481 0 14560.43930626 0 4889.69365246 0 297
0.01850000 0.01844180 61932.60598011 0 -7829.73913388 0 21431.14902598 0 3822.39904622 0 -19516.41189509 0 388
0.01950000 0.01947590 72283.01522058 0 -2783.34994059 0 11272.95534436 0 2277.23397313 0 -16749.32719966 0 399
0.02050000 0.02045430 72017.50087142 0 -2639.90797256 0 9249.49905608 0 -2369.07890750 0 -9413.73485011 0 462
0.02150000 0.02154770 74121.79620321 0 779.39090908 0 6400.03626400 0 2850.19356552 0 -13396.29507483 0 571
0.02250000 0.02255340 68063.02006245 0 -16.87743400 0 1165.52827203 0 1270.17281390 0 -21600.11270271 0 510
0.02350000 0.02348930 72758.57157154 0 -1062.60769115 0 6759.27784274 0 1781.40419542 0 -24466.73759826 0 555
0.02450000 0.02439640 70486.08762576 0 -1162.82662478 0 -1247.48562034 0 -1553.07071301 0 -9571.75906992 0 592
0.02550000 0.02547300 68201.20267618 0 2777.03871544 0 482.24403515 0 -3566.92729568 0 -17110.17426550 0 837
0.02650000 0.02652900 68911.49231330 0 1281.14548779 0 6594.23376899 0 -6832.22231864 0 -14283.85263229 0 723
0.02750000 0.02749970 68485.65070077 0 -787.09835438 0 11990.88488560 0 -9746.30319837 0 -27298.48467063 0 826
0.02850000 0.02848090 68035.89286664 0 3480.44136652 0 20231.57335513 0 -6853.27080813 0 -9086.64730264 0 831
0.02950000 0.02946900 67853.08878388 0 5990.03914829 0 23228.96240678 0 -11040.60260804 0 -9241.37196966 0 996
0.03050000 0.03053250 66168.43456273 0 1531.39110102 0 31613.59109895 0 -626.58175425 0 -6736.71244476 0 1041
0.03150000 0.03150510 64003.57361419 0 170.99212664 0 34937.06011652 0 2463.09401753 0 -962.50390970 0 1036
0.03250000 0.03246190 61754.56299702 0 5149.14036761 0 33352.49971172 0 1017.48796751 0 -6423.62031586 0 1059
0.03350000 0.03345080 61188.98864529 0 3589.11623461 0 35060.84870799 0 4103.54751801 0 141.88630639 0 1302
0.03450000 0.03451200 57933.83587185 0 -247.21843962 0 26956.46055698 0 6046.97304251 0 -2110.51797833 0 1339
0.03550000 0.03553350 58754.84875715 0 868.37807641 0 27824.75226926 0 9256.81786278 0 -4270.98321392 0 1365
0.03650000 0.03647120 56719.42328574 0 -2007.85538261 0 16275.09952768 0 5186.05549856 0 -5525.46654355 0 1308
0.03750000 0.03744890 54058.41146208 0 3337.53087008 0 15796.66437227 0 4446.47956230 0 -10510.64792525 0 1579
0.03850000 0.03847530 51647.63417931 0 3969.01877147 0 15734.21646029 0 573.10242538 0 -6742.07144997 0 1662
0.03950000 0.03950240 46318.19207435 0 3128.77325795 0 14401.66216837 0 3405.01668985 0 -6063.52616811 0 1683
0.04050000 0.04050350 45116.29121529 0 2189.81796868 0 15300.84566689 0 -1697.25452680 0 1161.24328233 0 1822
0.04150000 0.04152450 47355.11529362 0 -1060.46962523 0 17066.54930572 0 4788.33759107 0 -3834.74468839 0 1887
0.04250000 0.04250150 45176.08176931 0 -1118.29373436 0 17779.16413104 0 731.95264062 0 4210.17400602 0 1920
0.04350000 0.04349210 47081.40742410 0 1944.21165956 0 18028.06999297 0 3492.14481385 0 3869.16854625 0 2005
0.04450000 0.04448520 46048.24879528 0 1371.31850111 0 16024.64354028 0 2726.09494895 0 8379.11467441 0 2151
0.04550000 0.04548030 43605.14032404 0 1344.57883668 0 16153.19323143 0 2638.82288473 0 7171.00224112 0 2274
0.04650000 0.04648670 43582.99567440 0 1279.24104792 0 15918.68139177 0 2811.65080282 0 6491.92548767 0 2311
0.04750000 0.04749250 42060.32956534 0 816.93273361 0 16937.00310534 0 -756.54316681 0 3561.83402626 0 2568
0.04850000 0.04851840 40104.73555587 0 3443.71446510 0 15624.60044458 0 -1590.11871186 0 2613.36760997 0 2493
0.04950000 0.04949480 38238.82737744 0 696.93087722 0 15075.19168708 0 -2047.81540288 0 8747.11446208 0 2644
0.05050000 0.05050630 39482.91379406 0 -1251.56023588 0 15875.94221797 0 3280.24266147 0 5441.63797235 0 2829
0.05150000 0.05149060 39839.22120672 0 -1266.30857253 0 16773.35414452 0 3949.47611816 0 4950.03782272 0 2784
0.05250000 0.05249300 42028.33054662 0 -153.06271106 0 16689.97953863 0 2195.60879456 0 1728.82172486 0 3055
0.05350000 0.05348950 39594.85499798 0 2698.21483506 0 14421.14946005 0 2264.71117376 0 7592.48135767 0 3009
0.05450000 0.05448610 38642.19217058 0 2553.89815337 0 15001.11783405 0 -2407.12341557 0 5365.12820785 0 3336
0.05550000 0.05550870 36406.46834320 0 1578.74743427 0 17642.86381253 0 1240.57648966 0 6634.02770439 0 3349
0.05650000 0.05647670 36837.40322514 0 1220.63523266 0 18231.24715339 0 186.51884773 0 6213.16863803 0 3324
0.05750000 0.05747970 34001.78083908 0 1358.82891872 0 16089.85953346 0 934.74891307 0 5257.00695600 0 3639
0.05850000 0.05849280 34089.14148190 0 401.84567018 0 16039.36973229 0 2283.32375178 0 4378.71693441 0 3846
0.05950000 0.05951020 33658.98166270 0 -1180.02194522 0 15272.50051535 0 842.84086645 0 1826.69000393 0 3787
0.06050000 0.06049470 34274.04930638 0 411.70889713 0 15805.52223212 0 433.86683355 0 792.04546911 0 3930
0.06150000 0.06148310 33582.58262145 0 631.78574692 0 14721.43090913 0 -452.62999519 0 -902.51848276 0 4083
0.06250000 0.06249100 32750.16524158 0 757.81759140 0 13773.19701166 0 -1783.30863529 0 -1305.68175959 0 4303
0.06350000 0.06350600 32304.39344439 0 1200.97078378 0 12823.19154222 0 -171.54685011 0 -3583.81259103 0 4470
0.06450000 0.06451750 31368.11765772 0 811.16958854 0 13721.37853151 0 665.99923061 0 -3362.83113230 0 4479
0.06550000 0.06550280 30586.30080228 0 679.80420519 0 12654.00641899 0 1889.56973658 0 -4422.44154511 0 4636
0.06650000 0.06648880 29269.46921160 0 1649.43315591 0 12498.32953204 0 -115.14442749 0 -4305.65066293 0 4653
0.06750000 0.06749660 27910.11989361 0 1673.47117309 0 11068.47164961 0 1067.45626219 0 -3465.67088521 0 5220
0.06850000 0.06852730 27673.28286574 0 139.65744740 0 11640.99942133 0 1562.02822379 0 -895.80090329 0 5029
0.06950000 0.06949320 27030.42368677 0 -473.77481390 0 11874.62547501 0 2032.51344998 0 1822.00641053 0 5040
0.07050000 0.07048030 28432.51217855 0 -466.50361819 0 11682.96353239 0 2655.40922731 0 439.84256726 0 5475
0.07150000 0.07148790 27866.27348733 0 344.32051382 0 11417.11701350 0 829.35588205 0 450.52403901 0 5509
0.07250000 0.07249820 27659.44245972 0 628.54930637 0 11148.05952041 0 -203.31224278 0 2217.02267076 0 5916
0.07350000 0.07351270 27298.37394738 0 345.60490349 0 11503.70259358 0 -33.31241790 0 2458.74259388 0 5721
0.07450000 0.07449140 27353.40340173 0 120.30634532 0 11362.41972889 0 250.04741861 0 1800.79183618 0 6028
0.07550000 0.07549160 27663.42849665 0 -628.11859294 0 10227.91611100 0 1253.36502482 0 1391.65836181 0 6183
0.07650000 0.07648840 27228.61830102 0 -56.13502598 0 9464.41288081 0 554.70686493 0 -1116.03498010 0 6330
0.07750000 0.07749960 27660.43896895 0 820.18799710 0 9371.51607558 0 -73.57803433 0 -749.52331288 0 6583
0.07850000 0.07848650 27006.28601866 0 1131.17084812 0 10034.70404292 0 -582.19612575 0 -1046.48638621 0 6549
0.07950000 0.07947320 25651.58707710 0 995.95451020 0 8610.03908083 0 -164.12174909 0 -275.41743647 0 6828
0.08050000 0.08048110 25594.23243454 0 220.37580256 0 9914.40323376 0 471.19164052 0 -954.22956136 0 7147
0.08150000 0.08149960 24522.54211535 0 747.93664873 0 8939.91685415 0 1551.67560009 0 -2142.05195942 0 7386
0.08250000 0.08250610 23688.79605650 0 1028.07643174 0 8050.83131586 0 1620.41259256 0 -2762.15751088 0 7227
0.08350000 0.08350160 23186.00178649 0 84.05931845 0 6524.32311009 0 1381.07321928 0 -2159.69017285 0 7798
0.08450000 0.08449610 22544.02839350 0 5.19638598 0 6410.62140653 0 1268.17979543 0 -3199.14895450 0 7371
0.08550000 0.08548940 22456.00341119 0 408.24325946 0 5191.23734657 0 1665.36623132 0 -1832.66905933 0 8256
0.08650000 0.08650700 21457.83332879 0 841.44243183 0 4437.57741314 0 28.26299489 0 -2080.79985852 0 8037
0.08750000 0.08749060 21127.32443296 0 806.15825433 0 4294.41225324 0 -161.48099962 0 -1745.54093533 0 8155
0.08850000 0.08849210 20818.40657052 0 400.49263209 0 4643.05761713 0 -445.35769225 0 -270.35406233 0 8718
0.08950000 0.08949900 20477.93258234 0 208.02683869 0 5177.85090587 0 316.92093882 0 -1701.43986558 0 8571
0.09050000 0.09049190 20530.30467873 0 -272.10348965 0 5801.47745663 0 -909.68781308 0 -1105.08334362 0 8932
0.09150000 0.09150830 20536.39445738 0 243.75944535 0 6171.24881627 0 202.97564411 0 -1573.98633459 0 9285
0.09250000 0.09250820 20220.83320005 0 1133.72855516 0 6734.44261817 0 -1200.89327751 0 -852.80706602 0 9204
0.09350000 0.09350330 19085.14484340 0 989.99427775 0 6313.58355181 0 -99.51395871 0 -619.03817936 0 9349
0.09450000 0.09448040 18737.36312085 0 495.93496479 0 6987.87706095 0 4.65971039 0 159.18017052 0 9564
0.09550000 0.09549270 18159.49848857 0 457.41656121 0 6978.60952507 0 282.60226804 0 -961.41550017 0 10155
0.09650000 0.09649430 18057.07948399 0 125.06855222 0 7744.55973905 0 497.99552444 0 -1178.70433857 0 9913
0.09750000 0.09749140 17822.23547459 0 204.16481180 0 7272.38044716 0 -461.15900700 0 -1713.81872473 0 10476
0.09850000 0.09850240 17835.96515736 0 641.47956730 0 8013.47329192 0 -531.72957646 0 -905.92543710 0 10575
0.09950000 0.09950330 17422.30310214 0 429.57077152 0 7358.39026635 0 -60.54524368 0 -281.88810309 0 10882
0.10050000 0.10051200 17351.66166980 0 -132.33642623 0 7527.94077630 0 284.26643846 0 537.82378404 0 10875
0.10150000 0.10150300 17444.55847503 0 -214.21626827 0 7078.24937612 0 1710.04306197 0 -143.35338943 0 11118
0.10250000 0.10250800 17730.88879484 0 -274.30356059 0 7671.42703362 0 492.16926712 0 -830.63141387 0 11575
0.10350000 0.10349800 17754.80501644 0 160.24975710 0 6947.34127978 0 1201.73477419 0 46.67693540 0 11364
0.10450000 0.10450100 17373.91704268 0 196.05654833 0 6430.91697792 0 -132.86014720 0 477.26259622 0 12093
0.10550000 0.10551000 17203.84613347 0 510.32677259 0 6475.46094066 0 513.39380656 0 794.31640293 0 12067
0.10650000 0.10649700 16580.47424618 0 490.60142592 0 6062.55180353 0 766.84707229 0 514.16886930 0 12054
0.10750000 0.10749900 16346.95891575 0 373.43962086 0 5148.13278605 0 902.25717589 0 613.90504957 0 12807
0.10850000 0.10850100 15839.51426931 0 70.31878480 0 4478.46750870 0 698.02039398 0 -537.58351459 0 12736
0.10950000 0.10950300 15744.62444562 0 126.61646323 0 4233.21551396 0 327.41085935 0 -359.67782834 0 12933
0.11050000 0.11050200 15597.47324878 0 20.59839948 0 3602.33659045 0 437.87722960 0 -388.35736408 0 13428
0.11150000 0.11150900 15444.89661278 0 285.51871840 0 3459.41502169 0 -212.09370360 0 -242.93234268 0 13453
0.11250000 0.11250000 15315.12896590 0 279.85190256 0 3460.21222908 0 371.49642785 0 -359.58482081 0 13668
0.11350000 0.11349100 15007.87195219 0 165.79034844 0 3763.82644793 0 -98.86523120 0 -214.07897144 0 13791
0.11450000 0.11448600 15113.61265420 0 246.58620987 0 4399.04572277 0 -238.83558250 0 -653.16308445 0 14205
0.11550000 0.11549300 14821.19255574 0 130.67004135 0 4455.43707307 0 -472.32655381 0 -547.32051704 0 14776
0.11650000 0.11649800 15021.26946522 0 52.21553372 0 4811.92164294 0 139.52568674 0 -329.51460107 0 14553
0.11750000 0.11747300 14929.14772273 0 -128.73238450 0 4773.46745884 0 20.25748260 0 -276.97199087 0 14568
0.11850000 0.11849100 15090.80366508 0 200.73792726 0 4531.91362060 0 501.74350639 0 -1105.12098952 0 16015
0.11950000 0.11950300 14577.82285623 0 435.07482419 0 4046.15965848 0 229.89910914 0 -911.06410305 0 15270
0.12050000 0.12050700 14213.10047670 0 625.75243713 0 3925.77027072 0 312.56951517 0 -894.14337626 0 15999
0.12150000 0.12150000 13686.61143158 0 360.09414775 0 3654.63118057 0 638.98940145 0 455.39918363 0 15670
0.12250000 0.12250700 13702.66630256 0 -82.60618654 0 3363.68370131 0 829.79656058 0 -176.69326669 0 16887
0.12350000 0.12352200 13520.96945229 0 -136.12869748 0 3460.92085786 0 573.13674959 0 466.83689517 0 16407
0.12450000 0.12449800 13593.38245660 0 151.51480005 0 3521.08787093 0 39.05817941 0 454.07936251 0 16306
0.12550000 0.12549900 13649.51914343 0 11.53293353 0 3721.14263575 0 -234.53287708 0 1400.20619657 0 17523
0.12650000 0.12650100 13575.66673689 0 253.94709141 0 4050.21212936 0 -446.22465528 0 1418.98485946 0 17154
0.12750000 0.12750600 13538.13155576 0 198.68068931 0 4098.07778955 0 -28.30518044 0 1192.40080437 0 18007
0.12850000 0.12850300 13336.06162782 0 148.36804534 0 3917.15600202 0 -66.60103029 0 767.44165613 0 17496
0.12950000 0.12949900 13236.52142770 0 296.53568160 0 3978.35274129 0 -341.54578922 0 315.80263401 0 18405
0.13050000 0.13049000 13074.86548535 0 253.57063237 0 4085.30032671 0 -14.82517859 0 660.10321764 0 18100
0.13150000 0.13148800 12735.49872966 0 192.91311532 0 4035.50808200 0 33.34131666 0 -27.59599804 0 19059
0.13250000 0.13249300 12665.85380655 0 195.37670759 0 3953.94933739 0 -48.12929224 0 19.49559592 0 18957
0.13350000 0.13349100 12366.01525046 0 276.93102327 0 4173.12600717 0 312.22516586 0 215.21942089 0 19468
0.13450000 0.13450700 12257.28502074 0 162.19737904 0 3906.51549787 0 456.65478526 0 305.45886817 0 19953
0.13550000 0.13551000 12101.38668729 0 -108.25013371 0 3902.92806462 0 405.77745272 0 424.85949731 0 19956
0.13650000 0.13649900 12352.50701418 0 -33.72176174 0 3706.63789024 0 443.67691334 0 214.25834310 0 19723
0.13750000 0.13749600 12060.75125521 0 391.25388426 0 3622.75395741 0 291.92405831 0 725.24945518 0 20946
0.13850000 0.13851100 11729.13512689 0 511.60894780 0 3512.07499853 0 -20.15705661 0 996.23353279 0 20955
0.13950000 0.13949800 11518.53950884 0 71.62620491 0 3114.36816336 0 407.50694986 0 1105.48859071 0 20506
0.14050000 0.14048300 11551.53503680 0 21.84193228 0 3194.76431387 0 399.61791842 0 924.15601992 0 21447
0.14150000 0.14148400 11390.43271069 0 -6.38980544 0 2579.74095950 0 337.77123369 0 697.92074306 0 21771
0.14250000 0.14249400 11495.28762672 0 54.30255622 0 2796.70316432 0 173.03386334 0 539.50677742 0 22470
0.14350000 0.14350900 11407.81626065 0 92.44804390 0 2761.73676254 0 -73.60494008 0 86.80082608 0 22519
0.14450000 0.14449900 11054.40979709 0 237.95201098 0 2490.76375725 0 -717.38367563 0 -520.79787017 0 22218
0.14550000 0.14550500 10946.65393195 0 247.39891852 0 2655.17670849 0 -536.88263643 0 -766.84264336 0 23559
0.14650000 0.14650700 10743.89751988 0 226.54198025 0 2827.61709521 0 -367.92338863 0 -691.47000662 0 23044
0.14750000 0.14750500 10654.73208811 0 137.06209447 0 2716.09663964 0 -25.76164599 0 -1194.06165309 0 23649
0.14850000 0.14849900 10636.97207910 0 88.46289275 0 2823.03315274 0 127.55982531 0 -1044.30403099 0 23640
0.14950000 0.14949500 10355.42500361 0 108.33760508 0 2580.50494991 0 281.16397305 0 -977.70621167 0 24457
0.15050000 0.15050000 10388.05514485 0 215.28142591 0 2646.90568185 0 350.03494065 0 -1049.39619317 0 24591
0.15150000 0.15149900 10200.81105985 0 165.84460283 0 2802.62685810 0 -15.64187327 0 -712.33580274 0 25020
0.15250000 0.15250500 10043.66155369 0 269.77940867 0 2963.39701446 0 206.60515219 0 -196.15952095 0 25297
0.15350000 0.15350100 9863.47053960 0 186.97945644 0 2772.53227924 0 -18.86624498 0 63.92872470 0 25452
0.15450000 0.15450400 9818.58333478 0 85.17861977 0 2894.41643084 0 92.46874915 0 163.06766377 0 26061
0.15550000 0.15549900 9758.75956379 0 147.58191028 0 2784.32430517 0 160.10028072 0 -370.60621293 0 26128
0.15650000 0.15649500 9586.44097263 0 156.43312674 0 2847.63585848 0 -121.40029101 0 -284.58421419 0 26331
0.15750000 0.15749700 9486.32501162 0 158.12387074 0 2753.66503775 0 -217.03417493 0 -670.68836017 0 27345
0.15850000 0.15849900 9476.49278718 0 125.72957001 0 3049.92723292 0 -93.13131707 0 -260.61041649 0 26980
0.15950000 0.15949700 9297.13219745 0 64.94106736 0 2817.67414752 0 112.10396709 0 -263.86900168 0 27777
0.16050000 0.16050000 9265.69786729 0 97.18744182 0 3033.87236193 0 311.28733995 0 -308.29670502 0 28224
0.16150000 0.16150500 9152.46120137 0 110.10696259 0 2874.34230595 0 417.49861577 0 -427.11603711 0 28075
0.16250000 0.16249700 9120.45111032 0 127.20440368 0 2992.32899921 0 287.26039509 0 80.27811953 0 28590
0.16350000 0.16349900 8979.19039028 0 140.09812593 0 2573.99442292 0 236.68201532 0 -51.29475919 0 29163
0.16450000 0.16449100 8939.72862463 0 18.44405724 0 2606.02665862 0 102.46074724 0 -201.09667059 0 28996
0.16550000 0.16550500 8893.96670615 0 -59.41398425 0 2670.13541932 0 -61.36116330 0 128.54858391 0 30777
0.16650000 0.16650700 8921.96861562 0 93.02834445 0 2515.63219880 0 -41.08829017 0 -186.09145599 0 29211
0.16750000 0.16749900 8833.37894474 0 185.38836337 0 2383.51721906 0 111.43741314 0 -197.56681344 0 30922
0.16850000 0.16850800 8739.67385980 0 129.70785632 0 2528.33215536 0 49.35322703 0 -309.58773809 0 30867
0.16950000 0.16949900 8592.45622901 0 213.69697623 0 2270.94489263 0 147.21763079 0 -135.67030324 0 30852
0.17050000 0.17049200 8376.09192973 0 244.11265251 0 2272.60574135 0 252.31724520 0 -36.66412134 0 31257
0.17150000 0.17149500 8181.58439964 0 153.81341468 0 2274.72055539 0 71.77656708 0 -192.58537450 0 32608
0.17250000 0.17250900 8142.27764654 0 163.35111528 0 2372.58883446 0 68.12989690 0 -199.53215109 0 32361
0.17350000 0.17350400 7905.17488287 0 186.19221415 0 2401.00041995 0 -77.35834747 0 101.01315149 0 32508
0.17450000 0.17449800 7930.10975836 0 146.45585484 0 2267.41282101 0 -54.11698406 0 4.64944635 0 32791
0.17550000 0.17549800 7818.86611091 0 25.98707852 0 2465.85102641 0 229.55033091 0 547.70140501 0 33633
0.17650000 0.17650100 7928.54856056 0 -126.72165032 0 2248.49021790 0 177.46057880 0 185.13923606 0 33984
0.17750000 0.17750300 7969.44972844 0 20.80035868 0 2259.61790434 0 102.94073252 0 214.12879690 0 34069
