### header ###
fiducial parameters:
Omega_m = 0.31
Omega_nu = 0
Omega_de = 0.69
Omega_k = 0
H_0 = 100
w_de = -1
zeff = 0
beta = 0
fgrowth = 0
b_1 = 2
gamma = 0.55
Lx = 3500 Ly = 3500 Lz = 3500
nx = 700 ny = 700 nz = 700
xoffset = -685.467585 yoffset = -31.7331281 zoffset = 572.489161
bins = 400 dk = 0.001
kx_ny = 0.628318531 ky_ny = 0.628318531 kz_ny = 0.628318531
############################
A(data) = 8.11134009 (not used)
A(ran) = 8.11572603 (used)
Ngal = 482055
weighted Ngal = 0
Nran = 23820508
weighted Nran = 0
SN(data) = 3480.60322
SN(ran) = 70.690917
SN(data+ran) = 3551.29414
############################
13 columns: k_central k_mean P_0(k) sigma^{lin}_{P_0(k)} P^img_1(k) sigma^{lin}_{P_1(k)} P_2(k) sigma^{lin}_{P_2(k)} P^img_3(k) sigma^{lin}_{P_3(k)} P_4(k) sigma^{lin}_{P_4(k)} N_modes
### header ###
0.00050000 0 0 0 0 0 0 0 0 0 0 0 0
0.00150000 0.00179520 35437.86136806 0 -57380.33035417 0 -20193.81672750 0 9784.52486364 0 -57268.61059675 0 3
0.00250000 0.00253879 54604.83069188 0 -50382.28889904 0 -20292.69258813 0 -38744.38972866 0 3350.43012850 0 6
0.00350000 0.00331552 68590.39489356 0 -15874.50281574 0 -11503.70259358 0 -11905.62798450 0 23317.20883559 0 7
0.00450000 0.00420575 72186.24310166 0 7851.87271119 0 -13852.80702710 0 -33545.49033331 0 26983.91992253 0 24
0.00550000 0.00557378 46140.70270751 0 15791.79254935 0 -19158.55435695 0 -16321.38184542 0 11434.83273321 0 45
0.00650000 0.00659388 42792.87457535 0 3865.32644954 0 -29553.47434319 0 -19957.42259262 0 16406.97091627 0 40
0.00750000 0.00754703 39033.59885292 0 410.80982435 0 -14202.69249137 0 -8763.86688953 0 -16766.93219612 0 57
0.00850000 0.00846663 45165.23089099 0 -5950.97598633 0 -10098.65779107 0 -18438.74252049 0 16577.15254873 0 75
0.00950000 0.00948925 51487.08546944 0 -19461.27171749 0 -11173.63659074 0 -10419.91022336 0 10062.00839592 0 112
0.01050000 0.01054430 74082.93234310 0 -26750.29386886 0 -9119.26637156 0 -6096.12309238 0 -17267.17983143 0 105
0.01150000 0.01145670 81448.79642870 0 -9689.65718459 0 -654.71874608 0 -5595.43256408 0 -22492.76352959 0 144
0.01250000 0.01249090 97074.28265927 0 4848.33851926 0 291.28186347 0 -28739.10485278 0 -23453.39843086 0 169
0.01350000 0.01339930 87193.00782137 0 15596.25529305 0 12797.83591838 0 -32938.06259376 0 3446.58219722 0 180
0.01450000 0.01448870 75648.89124220 0 13946.36817182 0 16737.59053535 0 -18861.48388207 0 4597.05210750 0 267
0.01550000 0.01550050 70674.42787092 0 5162.18356625 0 20550.23486341 0 -8259.89895309 0 -1867.13720649 0 238
0.01650000 0.01653350 71150.64856137 0 -1680.35815913 0 28152.71453039 0 8723.22038512 0 -20911.30337574 0 315
0.01750000 0.01747870 77046.55080405 0 -4821.88673527 0 33818.64458658 0 1493.42409921 0 -21744.05292535 0 297
0.01850000 0.01844180 72393.84919201 0 3649.69292370 0 32586.18411102 0 8950.07017601 0 -25748.58064251 0 388
0.01950000 0.01947590 72890.22151363 0 6243.44037409 0 26333.86373243 0 -4718.16119637 0 -18387.14548684 0 399
0.02050000 0.02045430 71239.78077616 0 1449.04622134 0 32974.04764942 0 1450.51884054 0 -10190.33664057 0 462
0.02150000 0.02154770 69980.30382804 0 -1223.59154338 0 31019.45014918 0 2689.74450657 0 -15898.64048385 0 571
0.02250000 0.02255340 76343.67962457 0 -751.63037629 0 32685.05997165 0 10920.21322029 0 -7144.26257668 0 510
0.02350000 0.02348930 69381.84467159 0 -466.35857073 0 34076.85120136 0 9391.32446468 0 -9409.72666853 0 555
0.02450000 0.02439640 71471.96742761 0 3164.42614387 0 32699.56471716 0 10969.00895576 0 -4899.04976693 0 592
0.02550000 0.02547300 66472.70204874 0 3211.78247712 0 30433.83488952 0 6002.51765836 0 -1697.71956444 0 837
0.02650000 0.02652900 66252.47350810 0 4611.92223974 0 31085.10903536 0 1298.62868868 0 7036.53992852 0 723
0.02750000 0.02749970 59971.47580823 0 2651.12423760 0 31755.09541013 0 864.91354598 0 5225.55048119 0 826
0.02850000 0.02848090 60380.15531728 0 1315.99009400 0 31363.13511155 0 4015.83256080 0 10237.44938267 0 831
0.02950000 0.02946900 61725.77495249 0 -3097.77074846 0 29933.69797747 0 4943.82624850 0 12136.37523372 0 996
0.03050000 0.03053250 62674.67318945 0 -1513.80824921 0 25858.52882796 0 6956.46487544 0 2564.22863243 0 1041
0.03150000 0.03150510 65124.09288583 0 411.65464274 0 25821.32581657 0 2775.56609624 0 -4986.24432488 0 1036
0.03250000 0.03246190 63629.21831207 0 1703.83148774 0 23482.62936838 0 -32.44634065 0 5208.66518584 0 1059
0.03350000 0.03345080 61687.02181563 0 3809.63265570 0 23153.22770502 0 -8436.70183579 0 -7301.42315516 0 1302
0.03450000 0.03451200 59121.45343190 0 4467.90451082 0 30509.79103778 0 -6562.57799234 0 -7265.44917182 0 1339
0.03550000 0.03553350 57083.59204903 0 1376.10174544 0 33513.71276108 0 -7883.01916091 0 -10564.29333899 0 1365
0.03650000 0.03647120 56372.08445618 0 2528.43180629 0 34912.92244841 0 -1125.19179272 0 -18044.67848020 0 1308
0.03750000 0.03744890 53586.84114805 0 2788.34355908 0 35862.92791785 0 -394.02750162 0 -12453.59733977 0 1579
0.03850000 0.03847530 51511.88747704 0 2519.65145271 0 32275.16250686 0 4956.06116742 0 -15555.50913772 0 1662
0.03950000 0.03950240 51168.64540766 0 599.52320686 0 27899.37973854 0 8375.35008397 0 -14145.89146505 0 1683
0.04050000 0.04050350 51189.79354806 0 -1304.38629759 0 27253.08813887 0 5218.50848260 0 -16996.24004312 0 1822
0.04150000 0.04152450 49947.81087315 0 2518.33384605 0 24622.41448521 0 4539.66424797 0 -14147.22014403 0 1887
0.04250000 0.04250150 48619.57478791 0 1768.92568535 0 23555.59598893 0 4191.89359774 0 -6073.72377927 0 1920
0.04350000 0.04349210 45224.91072176 0 1495.73821510 0 20065.82065259 0 4913.11161945 0 -6147.05578654 0 2005
0.04450000 0.04448520 44865.06016515 0 2578.66694399 0 19965.17321999 0 4671.77922771 0 620.10998040 0 2151
0.04550000 0.04548030 43179.85232776 0 1134.48147324 0 18960.58118919 0 3215.85709265 0 -440.94869251 0 2274
0.04650000 0.04648670 40430.59407529 0 1812.47313886 0 17155.23862751 0 3630.90318848 0 2949.56768076 0 2311
0.04750000 0.04749250 41872.87510616 0 851.66772380 0 19421.07917840 0 1600.28310604 0 5102.55909710 0 2568
0.04850000 0.04851840 38707.40816376 0 1827.59793457 0 17373.03125670 0 774.77596409 0 3641.13401661 0 2493
0.04950000 0.04949480 40211.25132063 0 782.30735943 0 20363.11257397 0 1491.30928517 0 5497.44248943 0 2644
0.05050000 0.05050630 37776.33636976 0 833.05514578 0 18521.00989389 0 -1007.79746883 0 1721.15967608 0 2829
0.05150000 0.05149060 37396.11273549 0 842.42454704 0 20531.07974147 0 1902.93403263 0 3599.07025463 0 2784
0.05250000 0.05249300 36854.23315886 0 2223.63284868 0 19532.79893582 0 -2268.76364464 0 3396.55743369 0 3055
0.05350000 0.05348950 35724.96675061 0 339.46862108 0 20139.34088939 0 2233.22148197 0 3205.92521729 0 3009
0.05450000 0.05448610 35118.20335055 0 -296.81248972 0 18964.01360989 0 246.76558154 0 4269.83169214 0 3336
0.05550000 0.05550870 34833.64460271 0 390.36920550 0 17310.80479122 0 6228.50380791 0 2656.28394097 0 3349
0.05650000 0.05647670 34611.64449010 0 -433.50919746 0 14814.99205385 0 3290.89423795 0 3855.48315278 0 3324
0.05750000 0.05747970 35120.52853876 0 194.39127068 0 14636.06328478 0 989.49491591 0 603.71186734 0 3639
0.05850000 0.05849280 35667.16921506 0 -232.56864665 0 14692.64286460 0 1969.76658524 0 5336.26265705 0 3846
0.05950000 0.05951020 34793.56278687 0 692.03580242 0 13788.91971290 0 -476.48089008 0 5538.03363222 0 3787
0.06050000 0.06049470 35477.38956767 0 782.58195309 0 15284.90151915 0 -131.96771782 0 6023.94260688 0 3930
0.06150000 0.06148310 33907.22318513 0 1045.44890938 0 16148.87502475 0 51.26176366 0 5000.66049179 0 4083
0.06250000 0.06249100 33895.70796732 0 849.21188215 0 15540.78294571 0 82.58083092 0 4593.13250452 0 4303
0.06350000 0.06350600 32992.53843186 0 5.92462385 0 16404.20283507 0 2842.16613002 0 4136.32159948 0 4470
0.06450000 0.06451750 33629.97217167 0 -230.65091999 0 16414.94299014 0 1550.60158458 0 4231.76503941 0 4479
0.06550000 0.06550280 33120.64523002 0 277.30969678 0 13860.55765448 0 1963.20069662 0 3060.34629057 0 4636
0.06650000 0.06648880 32278.48420431 0 773.40521028 0 13623.27773361 0 1165.09645137 0 4226.70498697 0 4653
0.06750000 0.06749660 32164.43925868 0 954.55730217 0 12649.57748906 0 1432.33808319 0 2502.64436178 0 5220
0.06850000 0.06852730 30522.19204158 0 890.95011779 0 12353.94641640 0 1953.23560428 0 3309.37394807 0 5029
0.06950000 0.06949320 29920.41118768 0 1122.30191594 0 10005.72776887 0 659.82640952 0 782.07262615 0 5040
0.07050000 0.07048030 29647.58910415 0 -116.72998440 0 9586.34132171 0 1429.39284479 0 1287.74459338 0 5475
0.07150000 0.07148790 29296.59640740 0 289.06518404 0 7991.66081203 0 1128.25882670 0 1119.98780006 0 5509
0.07250000 0.07249820 28852.48545892 0 -14.14024458 0 7352.92053789 0 -348.95981791 0 -556.24148915 0 5916
0.07350000 0.07351270 28643.66141285 0 786.51152117 0 7655.09535452 0 120.25319816 0 -542.69449973 0 5721
0.07450000 0.07449140 28161.01877400 0 1231.33109843 0 9103.99763564 0 -1489.17232648 0 -477.56597792 0 6028
0.07550000 0.07549160 27362.81487782 0 1457.97051514 0 10187.55748704 0 -2489.14719783 0 -544.52586226 0 6183
0.07650000 0.07648840 26128.91500003 0 999.96933518 0 11006.20089483 0 -511.81267858 0 1475.17690791 0 6330
0.07750000 0.07749960 25802.39214113 0 364.31934690 0 12708.48225710 0 -864.85596989 0 1408.70974203 0 6583
0.07850000 0.07848650 25906.58271768 0 -210.36531369 0 13462.28613075 0 1362.15061616 0 1686.04933408 0 6549
0.07950000 0.07947320 26488.98700314 0 -661.29681426 0 12549.92656569 0 1398.06923788 0 248.52386672 0 6828
0.08050000 0.08048110 26279.94151056 0 150.68659015 0 12473.52752445 0 1969.57835572 0 474.37714837 0 7147
0.08150000 0.08149960 25821.65798632 0 733.04547908 0 10640.27163190 0 1620.23543536 0 702.50800723 0 7386
0.08250000 0.08250610 25410.09967281 0 644.87102039 0 9296.52321958 0 2323.10661485 0 599.73025934 0 7227
0.08350000 0.08350160 24524.20296407 0 289.09397208 0 7758.18977090 0 1402.79712057 0 1125.44645619 0 7798
0.08450000 0.08449610 24380.15201818 0 322.94428352 0 6582.70747886 0 1052.47319224 0 -1726.77334477 0 7371
0.08550000 0.08548940 23818.78514987 0 730.89191191 0 7166.45151562 0 -534.42679479 0 -259.01378725 0 8256
0.08650000 0.08650700 22821.39013021 0 1084.99261023 0 7348.74627143 0 -1395.61118177 0 -172.61754392 0 8037
0.08750000 0.08749060 22233.00678935 0 988.89922483 0 8459.10114890 0 -649.31988050 0 1401.57916484 0 8155
0.08850000 0.08849210 21589.15110114 0 198.73605094 0 8700.01279230 0 21.48783933 0 180.29398672 0 8718
0.08950000 0.08949900 21792.21753832 0 529.55718633 0 9959.88834412 0 250.99631685 0 -271.61852182 0 8571
0.09050000 0.09049190 21264.84270720 0 618.52110179 0 9682.92521110 0 -273.30372966 0 723.23539929 0 8932
0.09150000 0.09150830 20868.78564844 0 530.77071313 0 10308.55585266 0 -124.42525015 0 228.73208610 0 9285
0.09250000 0.09250820 20706.68681310 0 498.02763418 0 10007.58791944 0 -367.20368752 0 417.00700455 0 9204
0.09350000 0.09350330 19962.95875503 0 725.79642802 0 9882.29349179 0 838.49387173 0 289.70959334 0 9349
0.09450000 0.09448040 19931.95624553 0 245.61516699 0 9846.91741399 0 93.66345300 0 -439.61115567 0 9564
0.09550000 0.09549270 19059.23560333 0 410.53523070 0 8320.94067981 0 1776.43272158 0 401.87777992 0 10155
0.09650000 0.09649430 18660.29974011 0 235.40980520 0 7680.84958205 0 2761.12778468 0 641.34891387 0 9913
0.09750000 0.09749140 18530.08920025 0 -280.73658131 0 6366.65320467 0 1758.31839818 0 331.26070669 0 10476
0.09850000 0.09850240 18904.22305587 0 -56.25637866 0 6105.65636405 0 1293.13681557 0 337.76126859 0 10575
0.09950000 0.09950330 18247.52347087 0 526.23438166 0 5789.07645283 0 130.22493389 0 925.96413056 0 10882
0.10050000 0.10051200 17761.66985783 0 854.56756567 0 5703.95241962 0 -461.75248361 0 1537.65803686 0 10875
0.10150000 0.10150300 17254.77882763 0 347.49384211 0 6570.56113853 0 -887.77346780 0 1950.78862050 0 11118
0.10250000 0.10250800 17290.87460654 0 280.00802234 0 6782.81760530 0 -164.26236761 0 844.59472270 0 11575
0.10350000 0.10349800 16773.24342127 0 301.17941462 0 7323.01418856 0 -96.23754707 0 1159.51599966 0 11364
0.10450000 0.10450100 16738.36559809 0 325.80094332 0 7115.29737496 0 -94.50583547 0 -569.70322166 0 12093
0.10550000 0.10551000 16498.98193551 0 306.08999068 0 7415.31308824 0 -487.02617224 0 -120.05832524 0 12067
0.10650000 0.10649700 16382.61180167 0 152.42383792 0 7568.62049768 0 -160.97942331 0 32.10675245 0 12054
0.10750000 0.10749900 16424.02229649 0 -1.33201175 0 7368.15605684 0 69.35936785 0 712.37123418 0 12807
0.10850000 0.10850100 16454.02829675 0 -240.47539381 0 7170.65899905 0 1230.62246964 0 634.94135949 0 12736
0.10950000 0.10950300 16509.94353708 0 -96.61655275 0 7190.44524350 0 611.37834505 0 865.80043919 0 12933
0.11050000 0.11050200 16704.26283765 0 423.39573597 0 7187.77681322 0 522.09443941 0 831.98666643 0 13428
0.11150000 0.11150900 16267.79179330 0 513.77137284 0 7265.37166555 0 421.25324112 0 1593.66185580 0 13453
0.11250000 0.11250000 15696.68127915 0 495.15990205 0 7330.25548899 0 262.63997363 0 2432.16901431 0 13668
0.11350000 0.11349100 15455.19387486 0 326.84838525 0 6788.09910424 0 248.70656008 0 1780.39661386 0 13791
0.11450000 0.11448600 15411.23674533 0 62.39996881 0 7158.37979083 0 290.29864103 0 1719.48775504 0 14205
0.11550000 0.11549300 15073.42011511 0 150.09089908 0 6524.35632706 0 297.37164212 0 953.34488261 0 14776
0.11650000 0.11649800 15066.77672022 0 -7.35205690 0 6143.26905145 0 20.60825385 0 359.73208273 0 14553
0.11750000 0.11747300 14672.60195668 0 441.28750565 0 6139.67054589 0 351.01373417 0 487.83777365 0 14568
0.11850000 0.11849100 14548.70264196 0 183.07867641 0 5401.33471001 0 525.36298969 0 -82.55569674 0 16015
0.11950000 0.11950300 14434.10408008 0 -135.54629320 0 4860.94989723 0 753.87695100 0 -230.79486022 0 15270
0.12050000 0.12050700 14365.67711270 0 33.41029725 0 4373.69009894 0 618.09481728 0 -63.61748165 0 15999
0.12150000 0.12150000 14335.56038920 0 230.13605689 0 3995.47055546 0 575.99673109 0 -264.02290700 0 15670
0.12250000 0.12250700 13944.48587660 0 431.70108682 0 4008.40303085 0 1.38193686 0 -529.74652309 0 16887
0.12350000 0.12352200 13877.16614171 0 293.38339072 0 4089.12027877 0 -307.89588686 0 -552.73377664 0 16407
0.12450000 0.12449800 13350.34492683 0 171.83140886 0 4286.98272328 0 26.79535823 0 -137.54374059 0 16306
0.12550000 0.12549900 13494.61731922 0 173.89861190 0 4166.13937021 0 202.75419761 0 -108.56912739 0 17523
0.12650000 0.12650100 13531.26671437 0 -59.70452206 0 4280.23967747 0 519.73492699 0 -244.19237325 0 17154
0.12750000 0.12750600 13344.36587143 0 183.73415804 0 4160.09388086 0 221.48414228 0 -306.84955216 0 18007
0.12850000 0.12850300 13137.20267408 0 474.73035553 0 4192.38078003 0 -14.23181271 0 -187.52421483 0 17496
0.12950000 0.12949900 12700.51018323 0 525.99300497 0 4005.75674521 0 -383.06147112 0 -5.99000593 0 18405
0.13050000 0.13049000 12376.75540553 0 271.13798293 0 4422.67406394 0 38.66134729 0 109.56873688 0 18100
0.13150000 0.13148800 12211.33487274 0 95.38542095 0 4615.63146855 0 -164.89238290 0 -179.50231549 0 19059
0.13250000 0.13249300 12368.00826892 0 -87.40991466 0 4428.22129867 0 -41.86025266 0 -776.41245370 0 18957
0.13350000 0.13349100 12340.32745688 0 11.92223647 0 4501.44258270 0 -111.38869491 0 -437.10991749 0 19468
0.13450000 0.13450700 12203.47352212 0 164.38305596 0 4660.12006967 0 141.51759797 0 -865.90673351 0 19953
0.13550000 0.13551000 12091.31087171 0 298.67596198 0 4687.30262710 0 377.94162813 0 -343.88426422 0 19956
0.13650000 0.13649900 11913.15716537 0 212.97173896 0 4169.12889791 0 604.02078520 0 -284.44470289 0 19723
0.13750000 0.13749600 11623.61587137 0 89.43714662 0 4080.21812962 0 806.00102731 0 306.14645954 0 20946
0.13850000 0.13851100 11693.03934798 0 56.50550597 0 3781.77468646 0 548.20187410 0 35.68322409 0 20955
0.13950000 0.13949800 11546.88466037 0 -0.04191750 0 3538.51571019 0 201.54067081 0 83.44170417 0 20506
0.14050000 0.14048300 11603.79640994 0 57.79587470 0 3469.26939078 0 204.40065231 0 378.53621197 0 21447
0.14150000 0.14148400 11332.41372864 0 250.67521943 0 3654.65332522 0 -360.39752945 0 582.16844494 0 21771
0.14250000 0.14249400 11355.44416426 0 294.93905236 0 3667.98440430 0 108.15646185 0 285.43013980 0 22470
0.14350000 0.14350900 10859.70296515 0 161.63158324 0 3435.37700451 0 183.53707066 0 360.97218311 0 22519
0.14450000 0.14449900 10978.16576839 0 157.62450889 0 3355.54554256 0 457.86277590 0 370.30726016 0 22218
0.14550000 0.14550500 10669.60222034 0 18.30266365 0 3024.27265632 0 390.20090617 0 391.09333555 0 23559
0.14650000 0.14650700 10679.30157688 0 175.90048823 0 2645.24483312 0 284.24540105 0 489.07455233 0 23044
0.14750000 0.14750500 10609.78952167 0 140.99609147 0 2457.46927652 0 172.34184303 0 669.45933211 0 23649
0.14850000 0.14849900 10471.39653376 0 16.13824559 0 2598.28710357 0 119.09946191 0 675.48932021 0 23640
0.14950000 0.14949500 10447.24779333 0 67.06341058 0 2454.18079605 0 54.02608027 0 778.49183630 0 24457
0.15050000 0.15050000 10411.20737605 0 150.89142816 0 2877.01073623 0 87.48420996 0 822.54529506 0 24591
0.15150000 0.15149900 10281.99334542 0 131.65769272 0 2620.47604250 0 -119.72061933 0 1166.65764917 0 25020
0.15250000 0.15250500 10237.44938267 0 180.40803167 0 3083.87498081 0 256.92997572 0 1024.57314816 0 25297
0.15350000 0.15350100 10096.00043311 0 176.00567532 0 3091.96885026 0 -202.19836691 0 1506.32335763 0 25452
0.15450000 0.15450400 10007.05644784 0 279.28721399 0 3217.17469931 0 138.56239448 0 1173.24568243 0 26061
0.15550000 0.15549900 9693.32212411 0 307.28137283 0 3252.84972987 0 -140.65617110 0 1198.12519630 0 26128
0.15650000 0.15649500 9505.60192913 0 154.39914067 0 2996.06037268 0 213.35594863 0 1236.71224829 0 26331
0.15750000 0.15749700 9427.89635356 0 57.18888986 0 2913.30581698 0 198.33634001 0 1101.83915245 0 27345
0.15850000 0.15849900 9351.82948205 0 -87.47712368 0 2609.34835606 0 508.84418830 0 549.23492200 0 26980
0.15950000 0.15949700 9363.71008658 0 22.82559761 0 2403.84600743 0 350.47894088 0 816.73343176 0 27777
0.16050000 0.16050000 9382.15657973 0 63.60541281 0 1939.22911339 0 383.27184529 0 560.46890276 0 28224
0.16150000 0.16150500 9178.83547908 0 121.04265492 0 2040.18657108 0 291.17003299 0 758.89271414 0 28075
0.16250000 0.16249700 9072.56330548 0 199.06932791 0 1895.20554991 0 -91.53745591 0 603.25458033 0 28590
0.16350000 0.16349900 8879.08550159 0 361.84468231 0 2197.66824698 0 -110.21945741 0 698.31270336 0 29163
0.16450000 0.16449100 8760.40125186 0 213.84866708 0 2217.01159844 0 -215.06662281 0 1076.65514965 0 28996
0.16550000 0.16550500 8664.17167686 0 14.73826084 0 2396.49398375 0 -313.25821377 0 859.35191722 0 30777
0.16650000 0.16650700 8671.40190497 0 153.98946465 0 2638.78966775 0 -274.38106687 0 736.96065314 0 29211
0.16750000 0.16749900 8565.55047970 0 140.39043531 0 2891.82550683 0 -30.91348800 0 686.66572488 0 30922
0.16850000 0.16850800 8358.98518789 0 130.91806142 0 2618.28372219 0 56.13746189 0 649.82588575 0 30867
0.16950000 0.16949900 8386.63278296 0 50.34652529 0 2544.98493189 0 271.65173880 0 647.36340071 0 30852
0.17050000 0.17049200 8330.86148285 0 -42.64893435 0 2462.98329428 0 377.23964273 0 365.75321297 0 31257
0.17150000 0.17149500 8301.50874975 0 92.41980948 0 2182.58774058 0 178.60988611 0 348.02420647 0 32608
0.17250000 0.17250900 8316.65569011 0 111.01223586 0 2225.70337342 0 -149.57825044 0 305.21195532 0 32361
0.17350000 0.17350400 8259.10174570 0 22.27342077 0 2278.47407351 0 6.11689477 0 411.01355513 0 32508
0.17450000 0.17449800 8178.37342545 0 145.09174442 0 2401.95263988 0 -176.32677274 0 167.13120698 0 32791
0.17550000 0.17549800 8215.18890547 0 87.48653515 0 2406.81339048 0 -158.80149701 0 254.06002913 0 33633
0.17650000 0.17650100 8043.35749661 0 97.82841870 0 2495.55807390 0 136.80189483 0 362.96741604 0 33984
0.17750000 0.17750300 7992.86769543 0 104.46450586 0 2362.96698420 0 84.34653456 0 438.95013788 0 34069
0.17850000 0.17849800 7916.77867928 0 83.37039840 0 2310.62810478 0 377.65374768 0 197.47491314 0 34536
