### header ###
fiducial parameters:
Omega_m = 0.31
Omega_nu = 0
Omega_de = 0.69
Omega_k = 0
H_0 = 100
w_de = -1
zeff = 0
beta = 0
fgrowth = 0
b_1 = 2
gamma = 0.55
Lx = 3500 Ly = 3500 Lz = 3500
nx = 700 ny = 700 nz = 700
xoffset = -685.467585 yoffset = -31.7331281 zoffset = 572.489161
bins = 400 dk = 0.001
kx_ny = 0.628318531 ky_ny = 0.628318531 kz_ny = 0.628318531
############################
A(data) = 8.08104006 (not used)
A(ran) = 8.07900427 (used)
Ngal = 480055
weighted Ngal = 0
Nran = 23820508
weighted Nran = 0
SN(data) = 3490.79037
SN(ran) = 70.3710572
SN(data+ran) = 3561.16142
############################
13 columns: k_central k_mean P_0(k) sigma^{lin}_{P_0(k)} P^img_1(k) sigma^{lin}_{P_1(k)} P_2(k) sigma^{lin}_{P_2(k)} P^img_3(k) sigma^{lin}_{P_3(k)} P_4(k) sigma^{lin}_{P_4(k)} N_modes
### header ###
0.00050000 0 0 0 0 0 0 0 0 0 0 0 0
0.00150000 0.00179520 42747.81021333 0 -41641.79568720 0 37310.52366464 0 15589.39045166 0 52778.45071304 0 3
0.00250000 0.00253879 66131.45299783 0 -23380.87470329 0 23892.74827966 0 -55877.92659953 0 -49904.73952961 0 6
0.00350000 0.00331552 71248.52791277 0 6593.09331954 0 19671.20299606 0 -16213.20523194 0 56539.49800744 0 7
0.00450000 0.00420575 62975.95114777 0 20810.76666639 0 12896.93322551 0 -15207.06307567 0 30214.71358136 0 24
0.00550000 0.00557378 52936.23134171 0 8318.53798533 0 25334.91858729 0 -2600.10296484 0 5052.26859777 0 45
0.00650000 0.00659388 50189.74117044 0 -6833.21882788 0 16684.77554597 0 6450.41534192 0 -67081.23702078 0 40
0.00750000 0.00754703 59753.01883955 0 -485.27563769 0 21269.27163713 0 -39.47671329 0 -18464.31959082 0 57
0.00850000 0.00846663 48806.47563085 0 5690.31131545 0 12929.48586048 0 351.48098628 0 -21056.68300061 0 75
0.00950000 0.00948925 53569.45759809 0 -9568.50380643 0 8116.97738433 0 5791.80024474 0 -25590.35712086 0 112
0.01050000 0.01054430 54568.95635946 0 -17047.83707677 0 -12561.44178351 0 12475.18837317 0 -25076.49052602 0 105
0.01150000 0.01145670 73689.75408879 0 -14798.16212012 0 -14203.68900061 0 6707.52579654 0 -41901.55242744 0 144
0.01250000 0.01249090 78250.00178859 0 -3825.78717761 0 -7251.36517465 0 -20396.21882518 0 -25700.74819930 0 169
0.01350000 0.01339930 78939.03256206 0 9442.42324372 0 9157.95307448 0 -33503.74766874 0 -31556.67934938 0 180
0.01450000 0.01448870 73913.85794311 0 18535.07174641 0 17710.62644042 0 -38626.46946934 0 -9512.62178307 0 267
0.01550000 0.01550050 63188.76123078 0 8327.18547101 0 33787.08846085 0 -19920.21958123 0 -5232.93572184 0 238
0.01650000 0.01653350 58806.88868380 0 5938.18745116 0 33870.24162024 0 4286.27409450 0 -9788.69913010 0 315
0.01750000 0.01747870 64557.85419461 0 -4400.48512500 0 37186.95651966 0 15201.74835976 0 -17532.58345733 0 297
0.01850000 0.01844180 62261.45402722 0 -10302.51036331 0 16253.06560129 0 32676.09138855 0 -17072.41763787 0 388
0.01950000 0.01947590 70146.72087007 0 -11652.29319265 0 9649.79681525 0 22983.59968880 0 -24011.88649471 0 399
0.02050000 0.02045430 73537.84179227 0 4989.53280535 0 4462.87767535 0 6610.54330345 0 -25461.91815296 0 462
0.02150000 0.02154770 68528.16842808 0 3647.25701224 0 -9796.05115378 0 2889.83248837 0 2037.55135778 0 571
0.02250000 0.02255340 58050.87034518 0 4579.70177451 0 -9969.07837372 0 -4965.48371585 0 14062.51685917 0 510
0.02350000 0.02348930 68038.21805485 0 351.08238258 0 9012.73953448 0 -8387.09782060 0 5711.59232375 0 555
0.02450000 0.02439640 64601.25770790 0 -4610.50498216 0 6340.33428858 0 -131.36206165 0 9148.84055115 0 592
0.02550000 0.02547300 67528.00532721 0 2128.13404712 0 17084.04357893 0 -10032.43421633 0 12506.41232916 0 837
0.02650000 0.02652900 69983.40407899 0 2738.08627673 0 17203.07107073 0 -8924.19415291 0 17615.73661672 0 723
0.02750000 0.02749970 68075.64251274 0 2143.90103766 0 27914.99171653 0 4059.52395453 0 -236.36423960 0 826
0.02850000 0.02848090 65619.24725172 0 5082.36317663 0 19186.89950849 0 -3011.10766211 0 6582.38638144 0 831
0.02950000 0.02946900 62002.36162646 0 2871.71816496 0 24748.63898814 0 6335.50675496 0 -4002.25789057 0 996
0.03050000 0.03053250 55452.08498700 0 3118.36527262 0 18471.95949495 0 5847.09543488 0 -6786.26109832 0 1041
0.03150000 0.03150510 52861.49314918 0 2273.65761221 0 16582.24581815 0 9347.67736024 0 -4643.30120827 0 1036
0.03250000 0.03246190 53791.56843395 0 -272.53531032 0 9576.96306259 0 6892.06823429 0 -6707.86903861 0 1059
0.03350000 0.03345080 53949.45978586 0 -2613.85479226 0 7767.99985069 0 3834.22428912 0 -2527.76746680 0 1302
0.03450000 0.03451200 54464.32288993 0 -1152.73973687 0 5808.63017846 0 1648.22627250 0 -2846.69471087 0 1339
0.03550000 0.03553350 56967.00046869 0 -684.72253188 0 7621.59049962 0 -3348.30424213 0 -2340.29086297 0 1365
0.03650000 0.03647120 55154.01800288 0 1038.07474105 0 11534.37293333 0 -2448.88822479 0 -4626.39376827 0 1308
0.03750000 0.03744890 54154.40851825 0 4562.79433452 0 17661.02242523 0 -6989.82579011 0 -850.36118947 0 1579
0.03850000 0.03847530 51028.69122195 0 4022.07735200 0 16258.82321020 0 -3077.24265825 0 -1722.49942739 0 1662
0.03950000 0.03950240 49357.43451382 0 909.29142385 0 18272.43620172 0 955.67560698 0 -2727.75579767 0 1683
0.04050000 0.04050350 48832.27414768 0 357.87193216 0 17614.74010749 0 3583.65757848 0 1392.33377362 0 1822
0.04150000 0.04152450 48918.97045101 0 1699.13682202 0 16547.36799497 0 1458.69021626 0 -6197.18020100 0 1887
0.04250000 0.04250150 46407.32428914 0 2219.94576451 0 15110.29095676 0 3101.10351823 0 -1098.14321042 0 1920
0.04350000 0.04349210 43665.81666405 0 2277.97581889 0 13319.78531034 0 1487.45611614 0 -5754.02147245 0 2005
0.04450000 0.04448520 41949.49559391 0 1751.28747192 0 12089.31785324 0 1790.82674384 0 -3237.89101904 0 2151
0.04550000 0.04548030 40440.44844438 0 355.37512291 0 13691.48325450 0 -1146.63888589 0 -5039.01502497 0 2274
0.04650000 0.04648670 39812.86907365 0 1588.18105501 0 11463.39933124 0 2544.49774960 0 -4554.11363186 0 2311
0.04750000 0.04749250 41005.24773337 0 -2146.38123842 0 13434.82676520 0 1403.39502611 0 776.80219953 0 2568
0.04850000 0.04851840 41449.91229809 0 71.22693688 0 10948.90161389 0 1010.80249779 0 -5556.79015046 0 2493
0.04950000 0.04949480 40875.70153300 0 1963.08997337 0 11232.09846578 0 1630.33339560 0 -3384.72111846 0 2644
0.05050000 0.05050630 39172.77797589 0 1853.28572815 0 10286.71015579 0 -1594.61407573 0 -1616.62585747 0 2829
0.05150000 0.05149060 37672.92085595 0 540.34605964 0 11478.78986274 0 -669.99966157 0 1493.53482246 0 2784
0.05250000 0.05249300 38968.93647598 0 179.08267438 0 11768.55260324 0 -725.15091149 0 -5067.11658536 0 3055
0.05350000 0.05348950 38865.18879243 0 -112.35973779 0 11154.03857581 0 884.17939116 0 -3810.09769334 0 3009
0.05450000 0.05448610 38038.30757497 0 258.43581189 0 11635.68470542 0 -1334.93484176 0 -4600.24093705 0 3336
0.05550000 0.05550870 38104.96297038 0 2084.46479803 0 12721.32615389 0 1394.21606884 0 -5187.37310521 0 3349
0.05650000 0.05647670 36492.16813729 0 163.89033750 0 13015.62854757 0 570.16161591 0 -481.95172578 0 3324
0.05750000 0.05747970 36053.15045824 0 1618.74067151 0 13061.13580257 0 4808.82139199 0 392.72207453 0 3639
0.05850000 0.05849280 35070.26018408 0 959.91409292 0 12951.29834037 0 2761.23850792 0 3277.76246071 0 3846
0.05950000 0.05951020 34313.57750598 0 757.21636416 0 11656.83284582 0 4459.36774838 0 4772.61488983 0 3787
0.06050000 0.06049470 33038.26713337 0 921.10448720 0 10933.44464845 0 1264.76951938 0 6186.35146732 0 3930
0.06150000 0.06148310 32848.04459298 0 570.42624447 0 10573.30621139 0 813.66086162 0 7462.35939640 0 4083
0.06250000 0.06249100 32102.54496294 0 1095.93095992 0 12359.15040907 0 -1157.99909116 0 5502.72398837 0 4303
0.06350000 0.06350600 31014.68904951 0 572.51005600 0 11519.64674132 0 -1054.81056001 0 6445.66531458 0 4470
0.06450000 0.06451750 31024.76486510 0 10.78364717 0 11172.64008150 0 174.70910608 0 5312.52359264 0 4479
0.06550000 0.06550280 30868.20219216 0 229.73745320 0 9926.21740434 0 543.53931811 0 2624.74995988 0 4636
0.06650000 0.06648880 31102.82475507 0 370.49991862 0 11397.18682883 0 724.90621311 0 3061.50888468 0 4653
0.06750000 0.06749660 30715.62555616 0 -82.44840591 0 10754.52695170 0 1179.56797990 0 -189.78518355 0 5220
0.06850000 0.06852730 30748.28891437 0 335.55233979 0 10616.84259258 0 -1054.63561728 0 -771.01137365 0 5029
0.06950000 0.06949320 29242.34201579 0 1255.21410307 0 11758.03389467 0 -133.91755422 0 -1123.77453514 0 5040
0.07050000 0.07048030 28979.37430135 0 1409.14156269 0 11715.07327437 0 -1126.13294033 0 -1716.46501036 0 5475
0.07150000 0.07148790 27972.23563584 0 1147.04856191 0 12148.99768401 0 -1017.01517924 0 84.01602566 0 5509
0.07250000 0.07249820 27444.75008148 0 423.85413022 0 11289.78527808 0 1787.43861245 0 -118.45062368 0 5916
0.07350000 0.07351270 26771.99562550 0 382.24433355 0 12508.51607087 0 1346.21754075 0 1618.79603314 0 5721
0.07450000 0.07449140 27060.98330327 0 237.34303312 0 11733.78550331 0 2797.62216728 0 1376.32319193 0 6028
0.07550000 0.07549160 26622.29779395 0 -168.44659916 0 11668.56951013 0 2442.85380776 0 2808.22945445 0 6183
0.07650000 0.07648840 27184.10755525 0 222.98887122 0 10995.42752278 0 1149.03050806 0 4109.03939112 0 6330
0.07750000 0.07749960 26263.33302333 0 181.52633647 0 10300.83844226 0 887.36711348 0 4582.58057897 0 6583
0.07850000 0.07848650 26696.03947725 0 256.91115277 0 9790.43748509 0 766.49940129 0 4286.97165096 0 6549
0.07950000 0.07947320 26098.35538353 0 -63.42681621 0 10530.99885826 0 265.80333683 0 4171.70874960 0 6828
0.08050000 0.08048110 25390.94455087 0 1019.58285137 0 8953.15935463 0 1318.53672870 0 3008.38387020 0 7147
0.08150000 0.08149960 24404.84330252 0 1032.05028911 0 7738.38138180 0 -294.67774549 0 1061.48052848 0 7386
0.08250000 0.08250610 23853.99514280 0 192.35617738 0 6831.82371495 0 65.61470760 0 740.94447561 0 7227
0.08350000 0.08350160 23041.50794760 0 441.38162041 0 7947.02827069 0 -830.59266074 0 -749.24318306 0 7798
0.08450000 0.08449610 23331.27068811 0 425.22488403 0 7723.69947909 0 -120.00517808 0 -1418.32051997 0 7371
0.08550000 0.08548940 22653.53368596 0 178.58884870 0 7507.71163886 0 275.90351153 0 -1864.09231717 0 8256
0.08650000 0.08650700 22876.64103105 0 16.33632948 0 7307.91153750 0 529.19290685 0 -1567.42044598 0 8037
0.08750000 0.08749060 22586.65684405 0 120.61747764 0 7041.82142746 0 668.41410465 0 -1790.66065897 0 8155
0.08850000 0.08849210 22380.37943268 0 1095.14261040 0 6643.47239746 0 277.52007095 0 -1489.13910951 0 8718
0.08950000 0.08949900 21191.54391690 0 1099.90481730 0 6506.23093133 0 699.62588108 0 34.60533326 0 8571
0.09050000 0.09049190 20395.33303919 0 587.99470226 0 6864.09954180 0 218.06168668 0 -759.26252979 0 8932
0.09150000 0.09150830 20156.06009986 0 207.10340680 0 7058.96138628 0 -256.05858376 0 -682.32758802 0 9285
0.09250000 0.09250820 19740.40502617 0 412.88588525 0 7020.16396012 0 -645.21979862 0 -1671.74389042 0 9204
0.09350000 0.09350330 19528.37000589 0 453.80033992 0 8175.83786306 0 -750.35705894 0 -344.37919714 0 9349
0.09450000 0.09448040 19204.72595145 0 666.49305630 0 8311.94995206 0 -1003.86457906 0 -384.68245948 0 9564
0.09550000 0.09549270 18560.75953999 0 761.30980265 0 9173.14430413 0 441.13249310 0 -492.29216992 0 10155
0.09650000 0.09649430 18313.51452679 0 681.20374705 0 8846.96468730 0 277.42706342 0 683.53557866 0 9913
0.09750000 0.09749140 18083.76378681 0 6.86173006 0 9218.78442703 0 1087.26797298 0 513.65068450 0 10476
0.09850000 0.09850240 17814.81701696 0 20.14011595 0 8829.64757128 0 1234.98496562 0 1921.88985272 0 10575
0.09950000 0.09950330 18023.30889330 0 205.62857314 0 7476.41017659 0 1783.66294969 0 1768.26134586 0 10882
0.10050000 0.10051200 17398.49760378 0 230.32650088 0 7155.58956497 0 1039.72783914 0 1624.89688411 0 10875
0.10150000 0.10150300 17369.48811276 0 69.19228647 0 6473.92188751 0 568.92372999 0 256.93329742 0 11118
0.10250000 0.10250800 16875.88387234 0 211.40721946 0 5885.51640200 0 301.88804341 0 178.21571135 0 11575
0.10350000 0.10349800 16891.05295734 0 436.06026110 0 6135.65129198 0 -973.46218957 0 292.60500628 0 11364
0.10450000 0.10450100 16379.17938098 0 569.95677790 0 5717.30564336 0 124.27577376 0 -122.81311966 0 12093
0.10550000 0.10551000 15849.59008490 0 334.70198525 0 5387.27285749 0 458.77070654 0 -527.20099561 0 12067
0.10650000 0.10649700 15703.21395080 0 148.05912747 0 4832.21721433 0 474.86322343 0 -633.29933372 0 12054
0.10750000 0.10749900 15916.68837330 0 -94.59828938 0 4609.96243824 0 784.79309636 0 -1070.25645313 0 12807
0.10850000 0.10850100 15376.02675241 0 158.57783605 0 4662.89922320 0 599.22757579 0 -1040.01461236 0 12736
0.10950000 0.10950300 15562.48470235 0 383.61619460 0 4497.98801735 0 40.86817235 0 -1401.20270580 0 12933
0.11050000 0.11050200 14931.91580393 0 507.80006807 0 4564.72091903 0 -366.93684449 0 -197.27228960 0 13428
0.11150000 0.11150900 14773.47083578 0 415.47459480 0 4873.00765896 0 -39.22515007 0 -72.20517678 0 13453
0.11250000 0.11250000 14622.55504850 0 144.72082154 0 4564.35553232 0 640.12763644 0 398.97350912 0 13668
0.11350000 0.11349100 14906.67090334 0 -440.72060262 0 4872.12187297 0 347.94227126 0 -204.21685172 0 13791
0.11450000 0.11448600 14842.67286589 0 -136.57934110 0 4418.23406168 0 44.71968054 0 -794.71279216 0 14205
0.11550000 0.11549300 14944.42753098 0 319.57276061 0 4959.80361321 0 -338.87735893 0 -204.13380929 0 14776
0.11650000 0.11649800 14580.36949094 0 220.88291504 0 5036.67876443 0 -167.43348144 0 -116.03907133 0 14553
0.11750000 0.11747300 14483.15447903 0 270.80913488 0 5167.84152423 0 140.84107893 0 392.75086257 0 14568
0.11850000 0.11849100 14451.37690680 0 207.02590053 0 5040.44335487 0 403.05476805 0 19.69545139 0 16015
0.11950000 0.11950300 14015.90237168 0 301.09858665 0 5179.53389924 0 886.40382122 0 574.20080000 0 15270
0.12050000 0.12050700 13965.30184726 0 145.66086192 0 4757.95513177 0 700.18835518 0 479.19360966 0 15999
0.12150000 0.12150000 13574.22733467 0 103.93513801 0 4273.57413793 0 650.49576140 0 957.43610663 0 15670
0.12250000 0.12250700 13829.22297524 0 154.61837270 0 3981.92910220 0 154.00496590 0 1020.22393897 0 16887
0.12350000 0.12352200 13511.33652970 0 46.60064708 0 3819.79704989 0 479.81365985 0 1608.64271128 0 16407
0.12450000 0.12449800 13669.67077460 0 -128.76560148 0 3727.01096791 0 191.79591774 0 915.53289335 0 16306
0.12550000 0.12549900 13648.19046446 0 102.17342041 0 3861.03038751 0 -120.74259491 0 1119.93243843 0 17523
0.12650000 0.12650100 13476.23726002 0 308.67427129 0 4146.58564458 0 -89.24869565 0 881.37587852 0 17154
0.12750000 0.12750600 13185.14584054 0 364.19644410 0 4203.54168345 0 -358.07677017 0 1216.85956989 0 18007
0.12850000 0.12850300 13272.39576011 0 108.31601405 0 4823.44793307 0 -485.51037097 0 1112.32575128 0 17496
0.12950000 0.12949900 13014.07842209 0 384.46212021 0 5001.14767409 0 -336.04284378 0 1387.04120236 0 18405
0.13050000 0.13049000 12863.49480456 0 280.86944921 0 5265.58800773 0 36.16010912 0 963.42069819 0 18100
0.13150000 0.13148800 12366.12597371 0 244.21894683 0 4950.59143896 0 239.08138811 0 844.96343112 0 19059
0.13250000 0.13249300 12416.94794462 0 53.29530684 0 4739.74115744 0 576.73968408 0 679.90717781 0 18957
0.13350000 0.13349100 12301.68504326 0 -17.68626733 0 4354.04779471 0 400.49816825 0 41.16701440 0 19468
0.13450000 0.13450700 12245.76980293 0 71.57649017 0 3759.89577262 0 544.13168749 0 -234.89051317 0 19953
0.13550000 0.13551000 12147.11538879 0 29.20469611 0 3382.31842398 0 291.14678111 0 -265.78783557 0 19956
0.13650000 0.13649900 12067.94826634 0 229.93564781 0 3360.05197877 0 -96.92469555 0 -189.51501883 0 19723
0.13750000 0.13749600 12070.38417780 0 124.72752462 0 3580.12550686 0 13.22378825 0 -176.34891739 0 20946
0.13850000 0.13851100 11804.53765890 0 171.04195210 0 3687.29453878 0 -192.95961908 0 -25.10073892 0 20955
0.13950000 0.13949800 11715.40544411 0 307.52164228 0 4077.68256724 0 -69.02708738 0 187.38138184 0 20506
0.14050000 0.14048300 11571.13305173 0 243.17261213 0 3802.32492132 0 133.33625716 0 167.16663841 0 21447
0.14150000 0.14148400 11404.27311671 0 -22.64080051 0 3923.73296296 0 343.43140613 0 379.01785810 0 21771
0.14250000 0.14249400 11429.96091029 0 81.20996638 0 3734.99411410 0 268.40976209 0 512.11606028 0 22470
0.14350000 0.14350900 11414.12748580 0 55.49128102 0 3814.46018932 0 70.76223141 0 -129.67021042 0 22519
0.14450000 0.14449900 11161.45703344 0 322.91328101 0 3426.46378303 0 309.36961329 0 -117.49397481 0 22218
0.14550000 0.14550500 10985.20776697 0 99.09398543 0 3261.60793880 0 44.17702590 0 -210.66980263 0 23559
0.14650000 0.14650700 10767.47049941 0 163.00233705 0 2901.52486338 0 133.07716476 0 298.80440095 0 23044
0.14750000 0.14750500 10714.16832774 0 239.27626103 0 3125.30762029 0 317.32618591 0 -140.59416608 0 23649
0.14850000 0.14849900 10522.17421538 0 124.07868638 0 2849.30777953 0 179.95517358 0 17.89863452 0 23640
0.14950000 0.14949500 10482.35813533 0 294.68106719 0 3309.76147944 0 -163.21935462 0 136.76757062 0 24457
0.15050000 0.15050000 10269.00550840 0 163.09091565 0 3463.13532283 0 -405.92139294 0 443.28716751 0 24591
0.15150000 0.15149900 10300.63914041 0 129.30150200 0 3917.73176291 0 -303.25547553 0 546.17231696 0 25020
0.15250000 0.15250500 10192.76147970 0 115.35258719 0 4007.81619763 0 -269.65872033 0 692.34914921 0 25297
0.15350000 0.15350100 10183.69324568 0 193.24971399 0 4420.39316502 0 101.27124738 0 628.47180010 0 25452
0.15450000 0.15450400 9921.79954674 0 237.01529230 0 4078.64585950 0 329.08942379 0 789.63502400 0 26061
0.15550000 0.15549900 9770.60695134 0 129.91712326 0 4178.32999984 0 283.88997942 0 597.16480168 0 26128
0.15650000 0.15649500 9548.13072876 0 149.29922785 0 3737.45217021 0 350.89747476 0 569.42862801 0 26331
0.15750000 0.15749700 9581.79059621 0 49.41622856 0 3821.23645211 0 346.00239996 0 394.32091823 0 27345
0.15850000 0.15849900 9404.45624191 0 28.00578478 0 3380.27004388 0 270.60429687 0 508.30496608 0 26980
0.15950000 0.15949700 9431.55022075 0 38.85588804 0 3501.04696301 0 358.49419682 0 424.22837480 0 27777
0.16050000 0.16050000 9381.59189116 0 112.78602230 0 3105.57673746 0 -31.46865437 0 612.19658985 0 28224
0.16150000 0.16150500 9319.59794450 0 103.67493838 0 3062.69362344 0 512.23010523 0 742.00852602 0 28075
0.16250000 0.16249700 9158.76135419 0 66.86122993 0 2812.38157626 0 406.87250565 0 635.14287580 0 28590
0.16350000 0.16349900 9135.95236506 0 152.06177290 0 2606.33668371 0 21.29706317 0 346.26702852 0 29163
0.16450000 0.16449100 8899.18177114 0 315.23683821 0 2697.14081955 0 2.12671679 0 308.01657520 0 28996
0.16550000 0.16550500 8618.33225212 0 291.03495063 0 2603.96720620 0 -251.12143412 0 430.23068208 0 30777
0.16650000 0.16650700 8460.72878065 0 92.29557799 0 2720.81345001 0 -75.04013482 0 291.10692074 0 29211
0.16750000 0.16749900 8390.18699923 0 -22.16170102 0 2674.34290275 0 39.82737382 0 163.70875137 0 30922
0.16850000 0.16850800 8465.06913198 0 4.36185378 0 2580.59352851 0 129.85068931 0 -3.24320573 0 30867
0.16950000 0.16949900 8484.83323178 0 12.92162451 0 2557.27521244 0 141.51427627 0 26.25680035 0 30852
0.17050000 0.17049200 8464.84768548 0 187.00381556 0 2686.25672425 0 9.49797310 0 242.06537965 0 31257
0.17150000 0.17149500 8308.91613506 0 248.11419070 0 2677.59816624 0 -74.55007373 0 426.69861047 0 32608
0.17250000 0.17250900 8129.46696672 0 138.43727721 0 2670.95477135 0 289.94764833 0 430.00923559 0 32361
0.17350000 0.17350400 7989.98889098 0 110.02524883 0 2682.22639802 0 234.70892704 0 744.93715594 0 32508
0.17450000 0.17449800 8019.26411780 0 23.87337171 0 2657.46867972 0 233.21194873 0 506.65629691 0 32791
0.17550000 0.17549800 7938.24791710 0 13.83509131 0 2512.67588807 0 172.28758864 0 975.83055985 0 33633
0.17650000 0.17650100 8093.71442988 0 -87.23297891 0 2389.04230914 0 285.86085324 0 502.13214499 0 33984
0.17750000 0.17750300 8002.27917153 0 -47.80586964 0 2325.66432188 0 24.54623689 0 771.98795270 0 34069
0.17850000 0.17849800 8160.44733156 0 119.76047970 0 2051.87894609 0 80.38673903 0 281.58804309 0 34536
