### header ###
fiducial parameters:
Omega_m = 0.31
Omega_nu = 0
Omega_de = 0.69
Omega_k = 0
H_0 = 100
w_de = -1
zeff = 0
beta = 0
fgrowth = 0
b_1 = 2
gamma = 0.55
Lx = 3500 Ly = 3500 Lz = 3500
nx = 700 ny = 700 nz = 700
xoffset = -685.467585 yoffset = -31.7331281 zoffset = 572.489161
bins = 400 dk = 0.001
kx_ny = 0.628318531 ky_ny = 0.628318531 kz_ny = 0.628318531
############################
A(data) = 8.05813164 (not used)
A(ran) = 8.04777277 (used)
Ngal = 478457
weighted Ngal = 0
Nran = 23820508
weighted Nran = 0
SN(data) = 3495.24453
SN(ran) = 70.0990195
SN(data+ran) = 3565.34355
############################
13 columns: k_central k_mean P_0(k) sigma^{lin}_{P_0(k)} P^img_1(k) sigma^{lin}_{P_1(k)} P_2(k) sigma^{lin}_{P_2(k)} P^img_3(k) sigma^{lin}_{P_3(k)} P_4(k) sigma^{lin}_{P_4(k)} N_modes
### header ###
0.00050000 0 0 0 0 0 0 0 0 0 0 0 0
0.00150000 0.00179520 56898.13060832 0 -52096.06333447 0 27610.05989102 0 54112.22296070 0 42708.39273698 0 3
0.00250000 0.00253879 87798.88543544 0 -36006.97886374 0 29204.47466491 0 -65054.89085572 0 -17066.66002897 0 6
0.00350000 0.00331552 95240.15205306 0 -7694.34674600 0 -26279.49861757 0 35101.59486332 0 62630.05172043 0 7
0.00450000 0.00420575 95338.69574395 0 330.44910528 0 -25772.27541763 0 -16801.25640306 0 25358.83480890 0 24
0.00550000 0.00557378 93483.63844383 0 -1961.29625675 0 -25065.30747796 0 -19677.84639095 0 -19252.33694817 0 45
0.00650000 0.00659388 112307.69786801 0 -3056.27167504 0 11063.38945252 0 -52209.77611036 0 -62138.32977524 0 40
0.00750000 0.00754703 88942.87803570 0 17498.81286664 0 -4.68136786 0 -62195.02007831 0 -8231.55380155 0 57
0.00850000 0.00846663 81360.43927665 0 15741.08130168 0 12823.52371196 0 -30920.57428855 0 -5876.12707055 0 75
0.00950000 0.00948925 75688.97305804 0 -1197.50514611 0 37036.81579512 0 -20820.95320522 0 -423.03145649 0 112
0.01050000 0.01054430 89046.29354951 0 -6567.39445363 0 59342.67848178 0 20891.92680731 0 -14971.88689653 0 105
0.01150000 0.01145670 87517.42693855 0 726.63903194 0 42840.70701856 0 14110.34930239 0 -16815.53970208 0 144
0.01250000 0.01249090 88151.76042741 0 5956.35713619 0 54646.79480294 0 25717.24596328 0 3363.82764153 0 169
0.01350000 0.01339930 87274.83230177 0 5240.43168574 0 42927.40332189 0 15661.80345598 0 7966.53770702 0 180
0.01450000 0.01448870 74335.38134896 0 8116.42376809 0 34713.28843193 0 15746.94963383 0 13186.25307302 0 267
0.01550000 0.01550050 76083.92288432 0 3999.03584405 0 46300.14418490 0 -7737.01948585 0 8305.61658226 0 238
0.01650000 0.01653350 72457.62578297 0 -671.27740785 0 30537.36112658 0 3188.37558245 0 -2760.85097656 0 315
0.01750000 0.01747870 73909.87190618 0 -4268.75767663 0 41469.95320601 0 822.57629757 0 4600.37380495 0 297
0.01850000 0.01844180 71440.74347162 0 6787.04723338 0 26085.40076350 0 12802.81846455 0 10432.85377107 0 388
0.01950000 0.01947590 77569.71815174 0 -8297.01338588 0 29481.83640162 0 5476.09504718 0 -7266.68927220 0 399
0.02050000 0.02045430 81777.42302932 0 -4892.82712039 0 26273.18739242 0 19063.00019377 0 3589.51483831 0 462
0.02150000 0.02154770 86726.75222325 0 3763.67143538 0 38805.84113140 0 -6368.95624823 0 3610.65190639 0 571
0.02250000 0.02255340 81615.32419397 0 7671.12808085 0 38279.13063978 0 659.35472849 0 11193.23460567 0 510
0.02350000 0.02348930 77533.17947983 0 8299.30535712 0 42007.29312946 0 6007.04623921 0 24288.25172218 0 555
0.02450000 0.02439640 77866.78862662 0 -1058.67258691 0 42709.94286245 0 8076.51910944 0 14077.35377443 0 592
0.02550000 0.02547300 75911.52678689 0 824.78633360 0 42766.63316553 0 7502.40799527 0 5820.03467302 0 837
0.02650000 0.02652900 71991.70235460 0 7078.19401449 0 39182.63234498 0 5560.44401765 0 2427.34148069 0 723
0.02750000 0.02749970 63574.07813447 0 8563.73461843 0 30434.38850576 0 2255.85331390 0 -2242.40043925 0 826
0.02850000 0.02848090 57162.53772498 0 7544.61569748 0 31253.51909585 0 1622.16201988 0 7349.93101019 0 831
0.02950000 0.02946900 52657.87309577 0 1102.78030006 0 26271.19437395 0 7388.17482011 0 -6670.30064050 0 996
0.03050000 0.03053250 51717.83271866 0 438.25811758 0 28281.92856102 0 5074.67898321 0 -5364.81818275 0 1041
0.03150000 0.03150510 50390.48241940 0 1957.28807517 0 26690.39259159 0 -3930.44279180 0 -5183.46457455 0 1036
0.03250000 0.03246190 50753.54395021 0 3479.09054289 0 28489.64537462 0 -1525.93244488 0 -3362.24429908 0 1059
0.03350000 0.03345080 49022.82885780 0 2256.79446151 0 34555.06491027 0 -983.19254862 0 8724.40512388 0 1302
0.03450000 0.03451200 47893.56244955 0 -504.24474457 0 30924.56032549 0 6190.44822751 0 6469.29365574 0 1339
0.03550000 0.03553350 50440.19715784 0 -662.89233626 0 28202.42926882 0 10862.99144562 0 8974.78360500 0 1365
0.03650000 0.03647120 48086.99596413 0 -36.74561365 0 26633.70228852 0 5787.62597828 0 4939.67412669 0 1308
0.03750000 0.03744890 48877.00633994 0 -1920.69404164 0 22129.59127554 0 8194.00754809 0 5379.02397550 0 1579
0.03850000 0.03847530 49772.31452478 0 -753.79501579 0 19176.04863017 0 4734.62574338 0 1983.42983406 0 1662
0.03950000 0.03950240 48887.96794151 0 1353.65814303 0 17409.01631236 0 -987.95143383 0 821.29412235 0 1683
0.04050000 0.04050350 48056.32562439 0 2748.92608273 0 23166.95738780 0 -127.61629416 0 5314.51661110 0 1822
0.04150000 0.04152450 45760.58979649 0 966.71139313 0 15765.66186277 0 1745.55200766 0 5029.12743890 0 1887
0.04250000 0.04250150 46634.19622468 0 156.84723168 0 19059.78921957 0 4700.89944198 0 4242.63806238 0 1920
0.04350000 0.04349210 46076.59394681 0 -363.37266313 0 16146.43911329 0 -137.60131668 0 407.35747347 0 2005
0.04450000 0.04448520 46420.94324867 0 836.89613525 0 20498.52710650 0 -935.72770659 0 266.19751159 0 2151
0.04550000 0.04548030 43673.67801467 0 1881.78589223 0 14639.27425897 0 759.75856994 0 -3013.39963334 0 2274
0.04650000 0.04648670 43932.88113867 0 339.38114971 0 14151.64907396 0 654.89590328 0 -2000.25976779 0 2311
0.04750000 0.04749250 43735.12941741 0 120.67062480 0 13427.40830757 0 1962.96817780 0 -7725.79214848 0 2568
0.04850000 0.04851840 42336.47334632 0 1363.73395861 0 12447.17539138 0 2244.88064001 0 -8230.30262885 0 2493
0.04950000 0.04949480 39731.70893273 0 3128.92827050 0 10341.96105663 0 169.04007577 0 -6020.72056036 0 2644
0.05050000 0.05050630 39240.98349677 0 1488.29761282 0 10913.11586008 0 107.42889938 0 -6800.56654199 0 2829
0.05150000 0.05149060 37806.34237002 0 319.66023198 0 9635.52458855 0 -707.86036905 0 -4917.95022540 0 2784
0.05250000 0.05249300 37736.58672366 0 1165.06323439 0 12755.76108407 0 -914.55742153 0 -4178.73967586 0 3055
0.05350000 0.05348950 37307.64486019 0 -93.26185978 0 11510.01381873 0 936.49058977 0 -4325.95730665 0 3009
0.05450000 0.05448610 37112.77194338 0 -722.72828682 0 14010.58765577 0 -626.43892126 0 -2565.61267303 0 3336
0.05550000 0.05550870 37938.21375861 0 1357.06841907 0 13233.31045350 0 3206.01379589 0 -672.46768277 0 3349
0.05650000 0.05647670 36983.66863599 0 -64.58177042 0 14205.46057258 0 1809.08500747 0 2246.85151382 0 3324
0.05750000 0.05747970 36627.69339307 0 579.64838381 0 12203.03062913 0 5036.99986185 0 3347.59561334 0 3639
0.05850000 0.05849280 36359.52168597 0 1223.28151829 0 10778.27708844 0 3372.30904234 0 4083.24087430 0 3846
0.05950000 0.05951020 34346.57303394 0 1133.47389168 0 10877.69549298 0 -1227.17897663 0 3012.75743850 0 3787
0.06050000 0.06049470 34148.26769644 0 1871.76543827 0 10203.23589898 0 573.53756775 0 5259.50930140 0 3930
0.06150000 0.06148310 32175.06869050 0 1012.40909212 0 11864.32821292 0 -498.68090134 0 5023.14838350 0 4083
0.06250000 0.06249100 31966.68753742 0 -55.67231353 0 9974.12735383 0 508.65374431 0 3815.40133693 0 4303
0.06350000 0.06350600 31230.93155322 0 164.64436282 0 10875.81319776 0 2290.69792011 0 3006.62337055 0 4470
0.06450000 0.06451750 32534.80852386 0 84.25518788 0 10915.61820549 0 300.55714997 0 1791.09247964 0 4479
0.06550000 0.06550280 31001.73442947 0 529.27152035 0 10561.32595594 0 325.24954155 0 1386.01147615 0 4636
0.06650000 0.06648880 30754.04652328 0 1336.36317166 0 11754.60147397 0 -1057.90084587 0 2400.97827530 0 4653
0.06750000 0.06749660 30411.35807014 0 313.40769015 0 11786.15759970 0 154.72577425 0 2702.17872734 0 5220
0.06850000 0.06852730 29958.38926181 0 172.88992311 0 12243.66606121 0 960.54078650 0 3196.81269396 0 5029
0.06950000 0.06949320 29695.53227062 0 944.95870379 0 10788.87330329 0 2591.49976845 0 4564.73199136 0 5040
0.07050000 0.07048030 29133.27961633 0 506.19125927 0 9779.49802817 0 2161.00777950 0 3236.01979615 0 5475
0.07150000 0.07148790 29066.73494417 0 -433.53244934 0 7574.54419146 0 1920.20685935 0 2707.08376724 0 5509
0.07250000 0.07249820 29167.27165352 0 25.07494040 0 8322.83404736 0 -198.49024533 0 -10.28773988 0 5916
0.07350000 0.07351270 28402.94907129 0 1196.94045755 0 8588.25981791 0 -1742.16387627 0 -121.35157278 0 5721
0.07450000 0.07449140 27949.86953971 0 1443.80901170 0 8362.81621228 0 -2230.02158010 0 1453.43086197 0 6028
0.07550000 0.07549160 27155.43023397 0 -55.89918546 0 10069.90296351 0 -1674.21301885 0 1187.75042795 0 6183
0.07650000 0.07648840 27714.25046757 0 -357.29949297 0 10014.41954385 0 774.86897162 0 831.21381816 0 6330
0.07750000 0.07749960 28140.64569633 0 -266.49757160 0 10916.96902912 0 1157.82193396 0 -1485.10878328 0 6583
0.07850000 0.07848650 27420.16952038 0 587.68467717 0 9762.43557563 0 1033.83846957 0 260.12877036 0 6549
0.07950000 0.07947320 26852.82359668 0 1031.96724668 0 9864.97637577 0 449.10788867 0 -1172.31560715 0 6828
0.08050000 0.08048110 25822.54377230 0 1179.13615924 0 10838.28908895 0 416.28508897 0 -574.23512421 0 7147
0.08150000 0.08149960 25027.55085032 0 804.35789431 0 8852.86623642 0 -13.28225013 0 -666.72778958 0 7386
0.08250000 0.08250610 23801.62304640 0 839.84912428 0 9901.06108236 0 465.18047537 0 -1877.68913205 0 7227
0.08350000 0.08350160 23922.42211017 0 849.28163780 0 8879.10764624 0 -146.24215897 0 -2401.97478453 0 7798
0.08450000 0.08449610 22902.77171763 0 504.16834552 0 9648.37955767 0 -207.43779101 0 -1904.28485626 0 7371
0.08550000 0.08548940 22753.62750232 0 251.75144940 0 8715.44761310 0 -183.46842224 0 -123.16189789 0 8256
0.08650000 0.08650700 22616.88429081 0 -1.37877018 0 9660.88021239 0 1088.08621779 0 -1286.80344577 0 8037
0.08750000 0.08749060 22565.39798040 0 232.82773905 0 8922.15684514 0 545.80582301 0 -239.49438583 0 8155
0.08850000 0.08849210 22524.09820883 0 505.85355336 0 9316.38697031 0 1382.52369383 0 321.06420277 0 8718
0.08950000 0.08949900 21994.17674301 0 131.59015154 0 8237.71001415 0 1308.13981570 0 163.60134982 0 8571
0.09050000 0.09049190 21788.12077813 0 345.47535729 0 7839.36098415 0 720.57693411 0 330.43803296 0 8932
0.09150000 0.09150830 21351.76045703 0 509.36015863 0 7723.42267097 0 420.77380946 0 766.32335133 0 9285
0.09250000 0.09250820 20784.52525657 0 330.13243679 0 6928.60690619 0 917.83704414 0 302.69521589 0 9204
0.09350000 0.09350330 20656.97207466 0 319.00696481 0 7243.70312588 0 411.83179993 0 600.37466864 0 9349
0.09450000 0.09448040 19831.30881293 0 609.83043404 0 5858.20097667 0 321.37312063 0 185.46919134 0 9564
0.09550000 0.09549270 19728.66836186 0 203.03432743 0 6494.64927957 0 437.85065602 0 -380.94776432 0 10155
0.09650000 0.09649430 19229.52795904 0 331.24631267 0 6257.94511960 0 66.99110830 0 -1035.13393158 0 9913
0.09750000 0.09749140 19055.13884315 0 667.07324612 0 6624.42799877 0 -82.67815665 0 -1285.37511587 0 10476
0.09850000 0.09850240 18289.93047493 0 453.95756694 0 5645.11408554 0 -499.63644298 0 -262.79720064 0 10575
0.09950000 0.09950330 18185.18628214 0 210.00103421 0 5935.07612789 0 385.35565683 0 -147.57083795 0 10882
0.10050000 0.10051200 18051.87549133 0 216.48166592 0 5843.79588208 0 838.08862464 0 -716.44031355 0 10875
0.10150000 0.10150300 17558.93559040 0 695.54240769 0 5746.39264065 0 1146.18492058 0 -839.37744325 0 11118
0.10250000 0.10250800 17015.06299531 0 485.29224617 0 6109.93028143 0 -310.74590327 0 -406.71084970 0 11575
0.10350000 0.10349800 16330.12898203 0 757.86520240 0 6260.48068198 0 -842.14109552 0 484.23705362 0 11364
0.10450000 0.10450100 16059.96425645 0 493.63745739 0 7072.61356278 0 -291.47341469 0 647.08327089 0 12093
0.10550000 0.10551000 15932.52179779 0 198.08278377 0 6960.24053820 0 -344.20646887 0 894.98930188 0 12067
0.10650000 0.10649700 16016.89291291 0 -84.51250871 0 7210.75188722 0 211.97744419 0 1348.59809059 0 12054
0.10750000 0.10749900 16198.14687019 0 -254.50624382 0 6966.58498032 0 377.60945838 0 1182.26962716 0 12807
0.10850000 0.10850100 16374.08611156 0 77.41337693 0 7365.33261401 0 788.80459964 0 1286.74808415 0 12736
0.10950000 0.10950300 16241.21821373 0 163.32564893 0 6636.61862840 0 581.51960671 0 1832.91265048 0 12933
0.11050000 0.11050200 15949.57317801 0 292.00156458 0 7061.45265937 0 316.21895343 0 1089.00854245 0 13428
0.11150000 0.11150900 15998.73430021 0 255.56918700 0 6550.03304832 0 216.83155139 0 1719.42132109 0 13453
0.11250000 0.11250000 15675.64386200 0 159.97073451 0 7019.88715200 0 131.08303906 0 1846.95235835 0 13668
0.11350000 0.11349100 15345.91002890 0 306.45427017 0 6771.01450705 0 342.97190465 0 1862.45361309 0 13791
0.11450000 0.11448600 15257.77432334 0 206.36820443 0 6185.53211529 0 941.17971933 0 1840.54148228 0 14205
0.11550000 0.11549300 14856.40254867 0 360.40749454 0 5216.55975343 0 1326.77453837 0 1965.28229369 0 14776
0.11650000 0.11649800 14785.87183957 0 -114.83218793 0 4730.62863412 0 1349.20706845 0 1483.06040318 0 14553
0.11750000 0.11747300 14700.61493847 0 -255.39756596 0 4006.75325445 0 1029.03418783 0 967.27386723 0 14568
0.11850000 0.11849100 14728.18502727 0 423.12778571 0 3667.89582570 0 399.12741444 0 907.86863011 0 16015
0.11950000 0.11950300 14446.17291414 0 334.62115727 0 3393.94436504 0 -645.32166401 0 1208.63283255 0 15270
0.12050000 0.12050700 14171.46853539 0 333.44084745 0 3923.96548178 0 -678.02045366 0 1326.19877748 0 15999
0.12150000 0.12150000 13868.19755860 0 404.74661928 0 4340.30703961 0 -743.57747445 0 1506.47837018 0 15670
0.12250000 0.12250700 13892.11378021 0 253.06241266 0 4959.99184274 0 -294.44633390 0 994.23608539 0 16887
0.12350000 0.12352200 13648.96552719 0 112.55128901 0 5172.95693830 0 238.75475453 0 937.40073487 0 16407
0.12450000 0.12449800 13279.92494099 0 244.01632328 0 5277.73434806 0 236.97432470 0 658.62727674 0 16306
0.12550000 0.12549900 13411.13199009 0 238.16238515 0 5108.60458645 0 317.94180717 0 1173.84358797 0 17523
0.12650000 0.12650100 13273.83516234 0 -45.13511417 0 4725.12568868 0 436.87518421 0 636.29882652 0 17154
0.12750000 0.12750600 13354.99530326 0 15.12634583 0 4820.46947770 0 269.37637605 0 586.76678144 0 18007
0.12850000 0.12850300 12962.25994194 0 46.53487747 0 4221.44563268 0 36.48065292 0 317.73918362 0 17496
0.12950000 0.12949900 13257.22667511 0 28.67333524 0 4506.48049049 0 161.99807719 0 -76.98974978 0 18405
0.13050000 0.13049000 12959.93475373 0 154.26959447 0 4371.38705538 0 -176.80177547 0 -79.06658574 0 18100
0.13150000 0.13148800 12788.42444229 0 326.68672931 0 4259.66729796 0 163.06434207 0 -53.30350036 0 19059
0.13250000 0.13249300 12558.23080931 0 341.05417799 0 3992.27065359 0 378.36569817 0 282.61555483 0 18957
0.13350000 0.13349100 12468.32353178 0 35.36489475 0 4096.72696592 0 639.45333186 0 635.84707566 0 19468
0.13450000 0.13450700 12379.74493323 0 -48.04381390 0 3719.27141286 0 390.61168942 0 219.85318883 0 19953
0.13550000 0.13551000 12454.04023277 0 20.71543395 0 3871.78161491 0 189.51058990 0 510.74862816 0 19956
0.13650000 0.13649900 12484.26767952 0 172.69726466 0 3700.59240089 0 -262.89685156 0 627.76427855 0 19723
0.13750000 0.13749600 12434.33149459 0 223.19924539 0 4100.13724197 0 -195.75427386 0 946.12351236 0 20946
0.13850000 0.13851100 12098.95077583 0 243.39405863 0 4025.80872546 0 -74.77085588 0 955.47519790 0 20955
0.13950000 0.13949800 12077.69191218 0 233.76999390 0 4273.96166930 0 417.64366323 0 978.27200747 0 20506
0.14050000 0.14048300 11592.72408512 0 192.17237678 0 3821.71256208 0 435.44574707 0 336.21446482 0 21447
0.14150000 0.14148400 11547.54899986 0 115.12449730 0 3813.19794429 0 554.91834633 0 273.37459254 0 21771
0.14250000 0.14249400 11265.20471699 0 306.04348692 0 3102.39898024 0 354.18927693 0 70.77263939 0 22470
0.14350000 0.14350900 10913.93521212 0 258.18557735 0 2778.93208298 0 186.14238869 0 275.84372097 0 22519
0.14450000 0.14449900 10688.44731718 0 180.07696915 0 2587.75732267 0 230.16595217 0 2.78125727 0 22218
0.14550000 0.14550500 10615.48069663 0 230.34753829 0 2390.27133720 0 112.38631137 0 -481.77789028 0 23559
0.14650000 0.14650700 10296.52023558 0 169.18844493 0 2485.06150997 0 -44.07217098 0 -164.94885175 0 23044
0.14750000 0.14750500 10178.79927811 0 75.71311073 0 2423.80940908 0 -38.07063876 0 -93.16519838 0 23649
0.14850000 0.14849900 10235.10204981 0 60.99987334 0 2534.14512589 0 80.28797389 0 42.75533939 0 23640
0.14950000 0.14949500 10156.70999009 0 133.17127952 0 2649.02049589 0 108.72989755 0 197.68639454 0 24457
0.15050000 0.15050000 10224.12937591 0 104.42652779 0 2756.51062523 0 65.30280021 0 479.36633793 0 24591
0.15150000 0.15149900 10101.21549810 0 38.98942028 0 2680.99736996 0 203.49272168 0 400.33097614 0 25020
0.15250000 0.15250500 10099.87574680 0 185.01633325 0 2672.56025845 0 -171.87348369 0 573.44788191 0 25297
0.15350000 0.15350100 9945.15107978 0 119.50028007 0 2800.13558501 0 94.31970969 0 514.20319351 0 25452
0.15450000 0.15450400 9899.80990965 0 79.66094814 0 2513.96027775 0 -34.70232683 0 315.27891305 0 26061
0.15550000 0.15549900 9868.40879647 0 102.57346350 0 2599.39433605 0 -96.61411684 0 -109.94475303 0 26128
0.15650000 0.15649500 9640.91681074 0 262.84924057 0 2563.73037781 0 -171.33647594 0 -307.62129320 0 26331
0.15750000 0.15749700 9593.43868192 0 86.42824235 0 2394.63383318 0 -23.13141523 0 -341.62883165 0 27345
0.15850000 0.15849900 9526.39575514 0 71.62908372 0 2396.48291142 0 405.74423575 0 -205.72933129 0 26980
0.15950000 0.15949700 9360.13372567 0 75.49443231 0 2231.00701701 0 371.22737036 0 -182.28700519 0 27777
0.16050000 0.16050000 9317.41669651 0 121.74021138 0 2025.93648904 0 268.37986681 0 -561.23953657 0 28224
0.16150000 0.16150500 9280.01438328 0 161.56293482 0 2231.42776535 0 -146.37613410 0 -303.02074224 0 28075
0.16250000 0.16249700 8994.97952547 0 188.20073387 0 2117.94750829 0 -126.16581961 0 -206.76570090 0 28590
0.16350000 0.16349900 8927.50477803 0 150.04882424 0 2465.41920574 0 -304.33613443 0 -140.32289412 0 29163
0.16450000 0.16449100 8952.77182326 0 99.66177425 0 2461.36673486 0 -146.43813912 0 -157.22701242 0 28996
0.16550000 0.16550500 8872.35352810 0 72.28888355 0 2710.29474143 0 69.06938367 0 -32.27017996 0 30777
0.16650000 0.16650700 8746.94837721 0 186.08813430 0 2662.59516611 0 59.51020276 0 462.07690273 0 29211
0.16750000 0.16749900 8848.66982532 0 -5.43200505 0 2643.20752536 0 469.32373932 0 529.71662781 0 30922
0.16850000 0.16850800 8749.60573517 0 -81.06735484 0 2799.34944995 0 436.85746849 0 607.85956022 0 30867
0.16950000 0.16949900 8765.38379803 0 105.44651035 0 2625.68003517 0 364.25069849 0 593.23966253 0 30852
0.17050000 0.17049200 8539.58587801 0 282.66980923 0 2661.12254691 0 -27.40555405 0 978.00184274 0 31257
0.17150000 0.17149500 8395.36884724 0 347.74850558 0 2777.51482541 0 -223.83147514 0 1054.20047491 0 32608
0.17250000 0.17250900 8214.03738369 0 40.23970720 0 2561.27232170 0 -20.90133828 0 1180.12159615 0 32361
0.17350000 0.17350400 8334.52642236 0 -132.74388779 0 2679.18150869 0 102.93453202 0 1212.85138831 0 32508
0.17450000 0.17449800 8358.01082330 0 -95.75003261 0 2457.65750605 0 338.89286019 0 715.15370941 0 32791
0.17550000 0.17549800 8458.60289428 0 67.65212609 0 2412.55992706 0 133.80793820 0 473.25662910 0 33633
0.17650000 0.17650100 8317.79613956 0 198.22340230 0 2161.72748062 0 -58.44869898 0 207.68248939 0 33984
0.17750000 0.17750300 8122.14816002 0 275.54698267 0 2306.22131950 0 -273.69236826 0 691.72024116 0 34069
0.17850000 0.17849800 7958.86458592 0 222.04108022 0 2202.01967063 0 52.67514592 0 405.41649493 0 34536
