### header ###
fiducial parameters:
Omega_m = 0.31
Omega_nu = 0
Omega_de = 0.69
Omega_k = 0
H_0 = 100
w_de = -1
zeff = 0
beta = 0
fgrowth = 0
b_1 = 2
gamma = 0.55
Lx = 3500 Ly = 3500 Lz = 3500
nx = 700 ny = 700 nz = 700
xoffset = -685.467585 yoffset = -31.7331281 zoffset = 572.489161
bins = 400 dk = 0.001
kx_ny = 0.628318531 ky_ny = 0.628318531 kz_ny = 0.628318531
############################
A(data) = 8.01113433 (not used)
A(ran) = 8.0048767 (used)
Ngal = 475430
weighted Ngal = 0
Nran = 23820508
weighted Nran = 0
SN(data) = 3490.35643
SN(ran) = 69.7253792
SN(data+ran) = 3560.0818
############################
13 columns: k_central k_mean P_0(k) sigma^{lin}_{P_0(k)} P^img_1(k) sigma^{lin}_{P_1(k)} P_2(k) sigma^{lin}_{P_2(k)} P^img_3(k) sigma^{lin}_{P_3(k)} P_4(k) sigma^{lin}_{P_4(k)} N_modes
### header ###
0.00050000 0 0 0 0 0 0 0 0 0 0 0 0
0.00150000 0.00179520 5205.83067068 0 -5690.74313612 0 -2622.40262702 0 -11899.75965234 0 -14539.06971936 0 3
0.00250000 0.00253879 20039.13634978 0 -18508.16599710 0 13074.53331560 0 16272.77433947 0 25248.11156071 0 6
0.00350000 0.00331552 31190.07467464 0 -21207.48806464 0 43952.81132335 0 -59243.80262115 0 -10293.09888721 0 7
0.00450000 0.00420575 52800.04174644 0 -17021.04205071 0 53453.19818749 0 -12415.39781915 0 14067.83157508 0 24
0.00550000 0.00557378 72366.94344270 0 -3528.19630346 0 60679.44025713 0 -6873.16777582 0 -218.11483383 0 45
0.00650000 0.00659388 86966.91094857 0 11285.46707141 0 80243.13097920 0 14685.66729996 0 40314.99900418 0 40
0.00750000 0.00754703 93094.77839620 0 -12704.49622016 0 83150.83419982 0 -3572.86206178 0 -17663.23689019 0 57
0.00850000 0.00846663 94091.50907637 0 5363.53379308 0 73143.66702873 0 23076.82866377 0 15221.89999093 0 75
0.00950000 0.00948925 102984.57892421 0 17612.85781227 0 63734.95901408 0 14278.20574664 0 -14849.31626078 0 112
0.01050000 0.01054430 80301.37140774 0 13757.58503366 0 39179.08920104 0 21909.58418139 0 4924.31681217 0 105
0.01150000 0.01145670 81499.50767637 0 11108.30987431 0 46222.08429493 0 8785.03717458 0 -2742.69236385 0 144
0.01250000 0.01249090 69542.39338146 0 41.29633915 0 38773.39921968 0 25408.21737759 0 2078.28644078 0 169
0.01350000 0.01339930 70493.83825313 0 -5719.30973415 0 39608.14178776 0 21821.22702934 0 -9110.33100543 0 180
0.01450000 0.01448870 73769.91772047 0 627.37896164 0 28732.24001139 0 28939.84610174 0 6387.88992367 0 267
0.01550000 0.01550050 76196.08553473 0 -6192.04264228 0 20447.15151935 0 28108.75740086 0 25197.06814330 0 238
0.01650000 0.01653350 80298.27115679 0 -166.99280291 0 15127.56378348 0 22144.64963729 0 31991.60026826 0 315
0.01750000 0.01747870 84936.13585358 0 3011.90486949 0 -8292.94984267 0 19813.81453972 0 38747.15780986 0 297
0.01850000 0.01844180 77423.78491063 0 1420.73428678 0 12614.14604964 0 15860.33023997 0 44447.07990325 0 388
0.01950000 0.01947590 75800.47136896 0 2943.97615673 0 -691.04704381 0 9392.33204624 0 47751.39379888 0 399
0.02050000 0.02045430 71251.40671722 0 -1071.68699750 0 3186.57079351 0 5888.73844852 0 22347.49462797 0 462
0.02150000 0.02154770 69232.92190278 0 2341.80777147 0 -64.83233713 0 691.51208146 0 30587.51875801 0 571
0.02250000 0.02255340 72068.65501209 0 2974.02644629 0 6087.28737717 0 -9177.87218683 0 22090.06307594 0 510
0.02350000 0.02348930 64374.38577236 0 64.12282255 0 1930.90272512 0 294.48065811 0 23075.27853830 0 555
0.02450000 0.02439640 68268.52241108 0 2002.78425785 0 9737.85501453 0 -5420.77771239 0 20764.70579514 0 592
0.02550000 0.02547300 66720.05778519 0 1050.65290204 0 7587.63167940 0 996.48266010 0 17610.31117756 0 837
0.02650000 0.02652900 67342.65460974 0 2302.14670397 0 12744.24586626 0 2125.59848473 0 5856.50691098 0 723
0.02750000 0.02749970 64999.97212462 0 936.72532305 0 12955.39510055 0 -4254.20864182 0 11279.82018575 0 826
0.02850000 0.02848090 65987.95566818 0 1032.91725215 0 15680.95857791 0 -3486.36506030 0 10141.57412207 0 831
0.02950000 0.02946900 65202.15277580 0 -53.19454868 0 20035.37175934 0 -9.70586707 0 9318.36891645 0 996
0.03050000 0.03053250 66650.30213883 0 -1114.63986717 0 16981.62457436 0 1256.95245806 0 5333.10704447 0 1041
0.03150000 0.03150510 67527.23026447 0 3291.60286674 0 18359.90756778 0 4811.48982227 0 3259.14988269 0 1036
0.03250000 0.03246190 64427.97582448 0 3282.95538105 0 22687.19355341 0 -882.77763484 0 6669.27091429 0 1059
0.03350000 0.03345080 59000.10075189 0 7868.31511355 0 17097.55181521 0 4610.37211426 0 7606.03388325 0 1302
0.03450000 0.03451200 53286.33825247 0 4742.49816632 0 21867.73079358 0 2294.39607660 0 15368.94046452 0 1339
0.03550000 0.03553350 49441.03056621 0 2082.98110651 0 22745.10181221 0 6230.58540497 0 12206.24160332 0 1365
0.03650000 0.03647120 48237.57958167 0 2169.93207331 0 19356.41680146 0 6199.50538921 0 16103.92138598 0 1308
0.03750000 0.03744890 49102.10670351 0 -947.04251532 0 20769.24544832 0 1447.52931284 0 19316.66715536 0 1579
0.03850000 0.03847530 47536.59069740 0 373.43740639 0 22241.53247946 0 -232.48006805 0 13440.91654385 0 1662
0.03950000 0.03950240 47705.88654387 0 2095.35996566 0 24423.55553147 0 -2292.49163673 0 9558.47228014 0 1683
0.04050000 0.04050350 44475.31433154 0 5158.79543485 0 25290.18639502 0 -4529.32269659 0 9279.13966962 0 1822
0.04150000 0.04152450 42264.39251175 0 1223.04899947 0 23086.79375611 0 684.83657682 0 7993.73133677 0 1887
0.04250000 0.04250150 42504.10834407 0 -1524.51518730 0 22191.48557128 0 4813.03994774 0 8268.14783508 0 1920
0.04350000 0.04349210 42431.36317002 0 -1160.53465354 0 21840.04998153 0 4605.98747363 0 -1248.18317681 0 2005
0.04450000 0.04448520 44175.80794519 0 -572.25096360 0 17201.74239175 0 4851.42769789 0 -2096.04644979 0 2151
0.04550000 0.04548030 43045.54502771 0 288.66879481 0 16097.05654460 0 1073.84610084 0 -346.56376682 0 2274
0.04650000 0.04648670 42123.55254006 0 1351.58761829 0 15201.96980626 0 2818.38277631 0 333.59143107 0 2311
0.04750000 0.04749250 41691.95331863 0 -0.37710456 0 14525.78292958 0 3061.38708911 0 1627.23314465 0 2568
0.04850000 0.04851840 41283.82742581 0 214.87064266 0 11897.87735712 0 1468.76603184 0 301.42743470 0 2493
0.04950000 0.04949480 40760.10646189 0 1272.09939841 0 14398.67264066 0 -494.90413135 0 193.10577377 0 2644
0.05050000 0.05050630 38504.23100334 0 2803.61229500 0 13529.60586565 0 1733.85963265 0 3977.38944903 0 2829
0.05150000 0.05149060 37550.68238996 0 1606.80470536 0 13613.42336453 0 -112.26119410 0 5480.47968781 0 2784
0.05250000 0.05249300 37569.39461890 0 275.49051381 0 15981.90436648 0 697.80337642 0 5007.15994646 0 3055
0.05350000 0.05348950 35915.30001424 0 635.90575898 0 14561.98943174 0 46.75123070 0 2166.07890427 0 3009
0.05450000 0.05448610 35775.56727503 0 1530.89284640 0 16475.06571390 0 1044.97833557 0 6043.24166904 0 3336
0.05550000 0.05550870 35287.60992027 0 -82.38739740 0 16011.13530400 0 106.33251778 0 6448.46661276 0 3349
0.05650000 0.05647670 35693.96424112 0 -581.50078376 0 15614.41390575 0 3586.13777924 0 4206.19904141 0 3324
0.05750000 0.05747970 35958.48208104 0 -203.26020286 0 14860.27786235 0 3273.07886732 0 5281.52108314 0 3639
0.05850000 0.05849280 35852.40920927 0 631.95404626 0 13865.20803090 0 696.79468763 0 3653.47965878 0 3846
0.05950000 0.05951020 34597.91480732 0 789.75681957 0 12329.69802505 0 549.34896695 0 3599.88960666 0 3787
0.06050000 0.06049470 33920.39925167 0 982.80280279 0 12896.82250226 0 1287.03596459 0 5858.76566524 0 3930
0.06150000 0.06148310 33507.95515217 0 924.51144154 0 13082.72683597 0 887.43465466 0 2933.26921863 0 4083
0.06250000 0.06249100 33419.70872337 0 767.77936204 0 13460.84672852 0 2169.71062681 0 4295.12088203 0 4303
0.06350000 0.06350600 32424.97106166 0 872.45379918 0 11630.92360575 0 1179.59012455 0 4639.55876248 0 4470
0.06450000 0.06451750 32035.11450480 0 139.30866917 0 12213.54933770 0 -410.88733063 0 6294.35092360 0 4479
0.06550000 0.06550280 31605.06540884 0 1072.89277367 0 13250.14038723 0 1123.92954769 0 6827.77124407 0 4636
0.06650000 0.06648880 30310.26774455 0 935.06336710 0 10562.26710355 0 2139.09564869 0 6536.66875226 0 4653
0.06750000 0.06749660 30561.60951793 0 450.29816358 0 11586.74502972 0 2342.40567701 0 6872.53665331 0 5220
0.06850000 0.06852730 29335.90316051 0 509.94477738 0 11021.75751120 0 1159.18382991 0 6080.86542878 0 5029
0.06950000 0.06949320 29184.32303374 0 720.92239064 0 10863.34576002 0 36.42495913 0 6086.98842440 0 5040
0.07050000 0.07048030 27998.03415267 0 413.67755648 0 11061.72860379 0 5.24902381 0 5304.90583316 0 5475
0.07150000 0.07148790 28030.03317140 0 637.81241332 0 11210.50743238 0 -1000.77650766 0 4428.60883004 0 5509
0.07250000 0.07249820 27778.13778177 0 437.99791794 0 11465.06017996 0 -876.15970629 0 3409.53419838 0 5916
0.07350000 0.07351270 26610.78257614 0 615.95896582 0 11690.16054353 0 -372.80960557 0 3444.61132341 0 5721
0.07450000 0.07449140 26931.65854939 0 365.27045960 0 11838.08680310 0 -440.94647804 0 3208.62686455 0 6028
0.07550000 0.07549160 26511.79599226 0 562.99671452 0 11225.01217790 0 1216.93707617 0 1905.92356033 0 6183
0.07650000 0.07648840 26232.10906734 0 -110.13696859 0 10804.23061781 0 1198.04769003 0 1123.43129307 0 6330
0.07750000 0.07749960 26133.67609971 0 -156.11202932 0 9751.75078218 0 1511.23946985 0 394.69294835 0 6583
0.07850000 0.07848650 25876.24454767 0 208.09216541 0 9805.81694427 0 903.28247317 0 271.73367400 0 6549
0.07950000 0.07947320 25878.90190563 0 969.00447160 0 8747.63486135 0 956.90906396 0 433.27667864 0 6828
0.08050000 0.08048110 25292.40085999 0 -42.77936634 0 8453.12209350 0 362.32743567 0 1495.64963650 0 7147
0.08150000 0.08149960 25555.81146742 0 -169.59701371 0 7662.95670514 0 -275.44954621 0 1218.73079279 0 7386
0.08250000 0.08250610 25550.16458176 0 332.83851298 0 8952.78289559 0 -451.06547569 0 398.33795768 0 7227
0.08350000 0.08350160 24616.10326006 0 1210.53727242 0 8525.64582106 0 -259.33488467 0 -376.26638538 0 7798
0.08450000 0.08449610 23995.72090047 0 1220.42485849 0 8711.22905734 0 93.87205560 0 -369.52776850 0 7371
0.08550000 0.08548940 22378.71858396 0 1348.48736734 0 8295.82864712 0 -295.11620955 0 -114.72700084 0 8256
0.08650000 0.08650700 22346.16594899 0 789.68595669 0 9670.64600288 0 473.18244452 0 -702.35631638 0 8037
0.08750000 0.08749060 21043.17476433 0 392.60470788 0 8859.56499294 0 68.51776044 0 -307.82280952 0 8155
0.08850000 0.08849210 21167.62769530 0 677.00512148 0 9721.68942029 0 970.15045721 0 -312.27720579 0 8718
0.08950000 0.08949900 20522.77549786 0 110.65637134 0 9734.37830454 0 56.26080759 0 1121.20575579 0 8571
0.09050000 0.09049190 20726.28482802 0 181.76992762 0 10068.04281295 0 468.32280116 0 1387.20728723 0 8932
0.09150000 0.09150830 20560.86429523 0 82.97046603 0 9709.87524971 0 1173.40069498 0 2110.79478645 0 9285
0.09250000 0.09250820 20414.48816113 0 43.47260460 0 9165.31617048 0 826.43611000 0 1241.58407121 0 9204
0.09350000 0.09350330 20285.16340725 0 82.79740559 0 8612.77394506 0 691.69920375 0 935.05893817 0 9349
0.09450000 0.09448040 19890.32430422 0 643.89333411 0 8598.18062095 0 413.38413987 0 126.29425858 0 9564
0.09550000 0.09549270 19316.99932511 0 729.73374673 0 7744.68153462 0 812.02769371 0 -2.12446911 0 10155
0.09650000 0.09649430 18883.51780846 0 195.72327135 0 6706.99432495 0 10.42743940 0 -883.28364008 0 9913
0.09750000 0.09749140 18408.84724348 0 50.88386521 0 6170.47375353 0 772.96342452 0 -1306.25752048 0 10476
0.09850000 0.09850240 18467.86273476 0 205.08935092 0 6141.10994811 0 654.77632217 0 -820.99738405 0 10575
0.09950000 0.09950330 18026.07697450 0 286.47315280 0 5640.58550469 0 585.88653162 0 29.10449157 0 10882
0.10050000 0.10051200 18205.11646682 0 -12.43078835 0 5020.26957905 0 659.30490302 0 441.62521155 0 10875
0.10150000 0.10150300 17824.33921631 0 -125.97426839 0 5191.55844399 0 717.17883762 0 596.64108071 0 11118
0.10250000 0.10250800 18158.61270258 0 372.08326107 0 5426.52424897 0 646.01036261 0 1383.85237281 0 11575
0.10350000 0.10349800 17488.40488131 0 673.89158374 0 5164.01049984 0 262.80384404 0 1608.05587806 0 11364
0.10450000 0.10450100 17130.43661992 0 384.95705313 0 5014.57840409 0 774.71285184 0 2069.84932927 0 12093
0.10550000 0.10551000 16680.67878579 0 108.33771580 0 4495.99499889 0 849.03140326 0 2040.15335411 0 12067
0.10650000 0.10649700 16732.71871243 0 124.70316550 0 5193.52931781 0 -24.55144088 0 1390.16359796 0 12054
0.10750000 0.10749900 16440.07716748 0 380.78057221 0 4690.70183082 0 -366.47069962 0 1661.84523203 0 12807
0.10850000 0.10850100 16122.63361493 0 567.75006356 0 5096.40288450 0 -121.38146806 0 1755.52817232 0 12736
0.10950000 0.10950300 15784.59553821 0 239.23418619 0 4382.73618832 0 -611.62525789 0 1596.42993700 0 12933
0.11050000 0.11050200 15652.94559612 0 175.08667236 0 5311.25027528 0 562.68779666 0 1359.34931799 0 13428
0.11150000 0.11150900 15508.23031074 0 117.53826411 0 4810.83655510 0 -20.76581303 0 510.26255310 0 13453
0.11250000 0.11250000 15392.74596288 0 246.82647932 0 4774.13179833 0 345.70344719 0 566.47896067 0 13668
0.11350000 0.11349100 15019.05500025 0 164.44395374 0 4579.74606381 0 -32.76677373 0 -790.09784718 0 13791
0.11450000 0.11448600 15032.45251328 0 309.94537418 0 5044.20794531 0 -362.49019884 0 -40.17283035 0 14205
0.11550000 0.11549300 14701.05783146 0 459.16598853 0 4465.03677869 0 -581.50742715 0 -921.76993392 0 14776
0.11650000 0.11649800 14376.52799103 0 274.66008945 0 4914.16349031 0 -166.77910705 0 264.89872789 0 14553
0.11750000 0.11747300 14714.78751424 0 -182.57710010 0 5367.60840861 0 -87.01872943 0 -148.29386076 0 14568
0.11850000 0.11849100 14554.01735787 0 112.73176791 0 5215.00962796 0 614.43541393 0 -291.71146967 0 16015
0.11950000 0.11950300 14403.54446358 0 338.61494484 0 5209.34059765 0 190.60675006 0 57.88965730 0 15270
0.12050000 0.12050700 14161.28199655 0 383.15226419 0 4834.43167929 0 517.58246704 0 403.36811484 0 15999
0.12150000 0.12150000 13944.92876960 0 -23.40966275 0 5369.08102781 0 165.70066261 0 946.17998122 0 15670
0.12250000 0.12250700 13834.42696791 0 112.60332894 0 4852.43527945 0 676.34410369 0 754.62876185 0 16887
0.12350000 0.12352200 13849.70677616 0 76.38055047 0 5122.52249875 0 144.22035246 0 963.17489258 0 16407
0.12450000 0.12449800 13799.65986798 0 148.73121759 0 4723.36518904 0 -72.69202690 0 758.04900299 0 16306
0.12550000 0.12549900 13793.23791958 0 169.39992633 0 5087.50073535 0 -60.71442880 0 1024.22658440 0 17523
0.12650000 0.12650100 13573.45227193 0 112.94989271 0 4870.83748330 0 -324.81993534 0 473.97965191 0 17154
0.12750000 0.12750600 13622.50267088 0 311.69812320 0 5044.47368110 0 -0.33997795 0 576.53816777 0 18007
0.12850000 0.12850300 13146.39270368 0 165.71062770 0 4784.69479621 0 125.45608359 0 385.44423542 0 17496
0.12950000 0.12949900 12954.95220756 0 348.70847614 0 4785.20412315 0 603.45498941 0 -184.97758012 0 18405
0.13050000 0.13049000 12572.29266183 0 422.96280807 0 4354.09208401 0 474.04608586 0 300.07550384 0 18100
0.13150000 0.13148800 12165.82761774 0 185.07944551 0 3745.59032895 0 955.20503317 0 -115.61500129 0 19059
0.13250000 0.13249300 12055.32581605 0 10.43886604 0 3540.43122239 0 654.50505021 0 -69.62986475 0 18957
0.13350000 0.13349100 12139.58620792 0 -23.69256065 0 3316.75918872 0 279.39240108 0 -552.34624528 0 19468
0.13450000 0.13450700 11969.84746845 0 229.25469984 0 3261.50828788 0 -274.17512162 0 -333.75751594 0 19953
0.13550000 0.13551000 11735.00345904 0 448.17670615 0 3395.43912889 0 -524.17271477 0 -80.86705648 0 19956
0.13650000 0.13649900 11550.20635782 0 324.80221963 0 3638.13341659 0 -375.92092885 0 280.72772345 0 19723
0.13750000 0.13749600 11321.34140382 0 242.57581382 0 3965.45348287 0 315.05525209 0 473.23005552 0 20946
0.13850000 0.13851100 11364.85564035 0 -55.19653573 0 3826.98298869 0 339.44426197 0 154.11015299 0 20955
0.13950000 0.13949800 11169.76127705 0 -177.92893814 0 3783.73448795 0 753.92234753 0 385.31690369 0 20506
0.14050000 0.14048300 11557.29264570 0 -101.08113556 0 3745.82284777 0 152.39615711 0 56.60881076 0 21447
0.14150000 0.14148400 11515.10708814 0 129.96251979 0 3573.16101455 0 -4.67614172 0 98.75716531 0 21771
0.14250000 0.14249400 11473.25370033 0 234.11212873 0 3707.70083342 0 -264.01847807 0 -6.65330462 0 22470
0.14350000 0.14350900 11157.69244300 0 344.52867352 0 3903.03878787 0 -798.10645972 0 346.16516313 0 22519
0.14450000 0.14449900 10934.88405067 0 346.39768195 0 4308.70662458 0 -431.78855819 0 201.53624188 0 22218
0.14550000 0.14550500 10779.08536815 0 293.77535102 0 4248.46210524 0 -48.78399881 0 77.60238151 0 23559
0.14650000 0.14650700 10464.95244072 0 237.47036485 0 4513.63321232 0 261.56595812 0 181.43775787 0 23044
0.14750000 0.14750500 10458.53049232 0 115.42234284 0 4269.80954749 0 298.31389696 0 -135.93493180 0 23649
0.14850000 0.14849900 10319.83855165 0 50.06119148 0 4371.05488563 0 445.00891402 0 360.45621277 0 23640
0.14950000 0.14949500 10290.26437206 0 14.67625582 0 4117.13326057 0 242.70314556 0 287.51727303 0 24457
0.15050000 0.15050000 10210.82044148 0 33.01125066 0 3844.93122722 0 581.90381638 0 357.24080965 0 24591
0.15150000 0.15149900 10181.39020211 0 122.24400216 0 3780.47922445 0 399.37211281 0 400.80597888 0 25020
0.15250000 0.15250500 10057.91163574 0 156.33458304 0 3552.46683946 0 207.80317773 0 344.79440932 0 25297
0.15350000 0.15350100 9922.54139250 0 197.31547166 0 3647.68883290 0 182.26928947 0 201.03134387 0 25452
0.15450000 0.15450400 9640.71750889 0 201.28711458 0 3366.20819136 0 -77.81773823 0 158.62323258 0 26061
0.15550000 0.15549900 9591.77783320 0 171.23682502 0 3371.72220912 0 -180.44124864 0 22.22957437 0 26128
0.15650000 0.15649500 9361.16345187 0 214.70012886 0 3254.41092767 0 153.23986826 0 14.00638017 0 26331
0.15750000 0.15749700 9349.34928129 0 -18.17677132 0 3316.15021086 0 182.84394313 0 13.01906097 0 27345
0.15850000 0.15849900 9339.91566055 0 130.43973699 0 3138.74942262 0 36.28190469 0 -35.53164396 0 26980
0.15950000 0.15949700 9299.87813400 0 141.97820668 0 3125.67300700 0 -27.39603185 0 168.93378146 0 27777
0.16050000 0.16050000 9149.67097551 0 164.33765942 0 3303.89314729 0 201.81858617 0 267.51290378 0 28224
0.16150000 0.16150500 8993.16366420 0 72.44134947 0 3033.56233684 0 245.73031917 0 355.74936749 0 28075
0.16250000 0.16249700 9024.84158551 0 140.21106364 0 3284.51657885 0 256.62548679 0 109.92925177 0 28590
0.16350000 0.16349900 8769.02659290 0 182.71661139 0 3060.97741309 0 49.94603930 0 130.07213581 0 29163
0.16450000 0.16449100 8795.55588316 0 203.89132537 0 3022.73360317 0 9.59346083 0 295.64768115 0 28996
0.16550000 0.16550500 8443.24557976 0 210.97650602 0 2876.24674581 0 -60.83323485 0 585.55879080 0 30777
0.16650000 0.16650700 8510.93070137 0 84.81445100 0 2958.79092734 0 427.58882538 0 674.10749407 0 29211
0.16750000 0.16749900 8229.83759120 0 -33.81742663 0 2747.53096980 0 238.78022088 0 323.15465769 0 30922
0.16850000 0.16850800 8339.52004086 0 120.64294399 0 2566.87491806 0 330.63290587 0 178.44823017 0 30867
0.16950000 0.16949900 8159.42867768 0 -31.27577447 0 2415.67125033 0 124.89471672 0 1.53328447 0 30852
0.17050000 0.17049200 8256.32259217 0 -33.27510416 0 2151.48558016 0 5.29425426 0 -0.33964799 0 31257
0.17150000 0.17149500 8186.05761887 0 -29.48870124 0 2062.25371445 0 96.25360194 0 -211.58326942 0 32608
0.17250000 0.17250900 8280.26095843 0 24.44259993 0 1931.43419672 0 129.68017551 0 -370.80994371 0 32361
0.17350000 0.17350400 8250.78642976 0 113.55444164 0 1889.08255428 0 176.07432373 0 -196.63009476 0 32508
0.17450000 0.17449800 8141.02647383 0 101.83228208 0 1669.25261733 0 303.55996446 0 189.48623078 0 32791
0.17550000 0.17549800 8126.90925969 0 5.87413405 0 1876.01721100 0 357.52536839 0 353.15733625 0 33633
0.17650000 0.17650100 8047.62034166 0 86.74878615 0 1704.01971726 0 355.79919295 0 436.05583217 0 33984
0.17750000 0.17750300 8124.00831059 0 63.28398322 0 1996.51732200 0 152.58327940 0 921.67471193 0 34069
0.17850000 0.17849800 7942.67684703 0 166.72595989 0 1802.30874468 0 -122.43776784 0 1182.30284414 0 34536
