### header ###
fiducial parameters:
Omega_m = 0.31
Omega_nu = 0
Omega_de = 0.69
Omega_k = 0
H_0 = 100
w_de = -1
zeff = 0
beta = 0
fgrowth = 0
b_1 = 2
gamma = 0.55
Lx = 3500 Ly = 3500 Lz = 3500
nx = 700 ny = 700 nz = 700
xoffset = -685.467585 yoffset = -31.7331281 zoffset = 572.489161
bins = 400 dk = 0.001
kx_ny = 0.628318531 ky_ny = 0.628318531 kz_ny = 0.628318531
############################
A(data) = 8.02899457 (not used)
A(ran) = 8.02712577 (used)
Ngal = 477136
weighted Ngal = 0
Nran = 23820508
weighted Nran = 0
SN(data) = 3490.43787
SN(ran) = 69.9191767
SN(data+ran) = 3560.35704
############################
13 columns: k_central k_mean P_0(k) sigma^{lin}_{P_0(k)} P^img_1(k) sigma^{lin}_{P_1(k)} P_2(k) sigma^{lin}_{P_2(k)} P^img_3(k) sigma^{lin}_{P_3(k)} P_4(k) sigma^{lin}_{P_4(k)} N_modes
### header ###
0.00050000 0 0 0 0 0 0 0 0 0 0 0 0
0.00150000 0.00179520 2655.76354170 0 -8195.07049127 0 7491.63462322 0 -18972.65002325 0 7008.99198437 0 3
0.00250000 0.00253879 8688.81867191 0 -9264.39133296 0 -2798.97299091 0 -7386.55826069 0 -6143.50157028 0 6
0.00350000 0.00331552 12675.37600589 0 -4637.55467169 0 4426.43865437 0 -14332.34941500 0 -6259.37344950 0 7
0.00450000 0.00420575 18746.99604344 0 -2768.54624230 0 -6966.96143936 0 -3286.27707850 0 6732.46067203 0 24
0.00550000 0.00557378 25268.92753137 0 -7015.65752392 0 -36.76565456 0 -19727.78257588 0 -14103.26301450 0 45
0.00650000 0.00659388 38267.28325222 0 -14119.53933199 0 -14904.56716163 0 -15949.24100827 0 -12327.81572983 0 40
0.00750000 0.00754703 46971.23779216 0 -15343.36339419 0 -12.54937295 0 -15751.71073350 0 -17798.87286922 0 57
0.00850000 0.00846663 51920.89915584 0 -7230.81493979 0 -12462.56592288 0 -5832.84535284 0 -13484.20933389 0 75
0.00950000 0.00948925 72087.36724103 0 -28455.76406067 0 -18840.00357192 0 323.31299194 0 -19265.62373795 0 112
0.01050000 0.01054430 91700.77270153 0 -6196.81481428 0 -9901.50397535 0 -28716.29586366 0 -40352.53418532 0 105
0.01150000 0.01145670 91027.13245957 0 4621.23406491 0 -5236.29063626 0 -28980.59225708 0 -20231.68407838 0 144
0.01250000 0.01249090 89112.06315893 0 7277.52907820 0 10398.34133461 0 -22659.18057162 0 -9415.16318001 0 169
0.01350000 0.01339930 82274.34896718 0 7421.53573479 0 12431.34196689 0 -14796.39054815 0 18453.91160549 0 180
0.01450000 0.01448870 85640.11426555 0 -4226.01850283 0 27743.92429808 0 13392.41976115 0 -9778.06969827 0 267
0.01550000 0.01550050 89111.84171244 0 1226.22675669 0 28052.39926753 0 17581.19096329 0 6205.67267413 0 238
0.01650000 0.01653350 87526.06335191 0 -1559.40408281 0 15538.78992724 0 19787.68385315 0 22012.77824870 0 315
0.01750000 0.01747870 86627.76563937 0 4840.53253027 0 10774.12496663 0 20728.27784649 0 9256.86215208 0 297
0.01850000 0.01844180 87169.97738574 0 -1497.54300405 0 10192.69504575 0 7066.33555461 0 8738.98737566 0 388
0.01950000 0.01947590 82904.91786560 0 210.56350831 0 10642.44180756 0 -10186.98172615 0 562.04228012 0 399
0.02050000 0.02045430 84454.60044722 0 5670.21504590 0 6166.27734243 0 -7070.08907272 0 -15832.31725818 0 462
0.02150000 0.02154770 80067.52390757 0 5352.93757822 0 21124.77779825 0 -19978.57073302 0 -5753.57857946 0 571
0.02250000 0.02255340 75584.22886526 0 -1472.19845254 0 32857.12389933 0 -11981.47340951 0 -13421.09708243 0 510
0.02350000 0.02348930 77110.10594851 0 -453.95313801 0 32417.55260403 0 4121.56219049 0 -21742.50279988 0 555
0.02450000 0.02439640 77042.56476712 0 2467.52294746 0 28293.11160909 0 13521.85523828 0 -14027.30686625 0 592
0.02550000 0.02547300 73923.49086571 0 3858.30659560 0 21861.75173818 0 8617.43539380 0 -25463.57900168 0 837
0.02650000 0.02652900 65663.53655100 0 4496.72577232 0 14367.78085442 0 3419.31106120 0 -8989.39907376 0 723
0.02750000 0.02749970 63819.44085245 0 5830.81911740 0 18759.72921698 0 -2656.41680887 0 -24413.59043913 0 826
0.02850000 0.02848090 59032.98555660 0 4510.15650233 0 14394.90805023 0 -5897.81775487 0 -3663.12365370 0 831
0.02950000 0.02946900 54598.07657374 0 3155.84509214 0 16283.29304805 0 4594.12901375 0 -5559.18177262 0 996
0.03050000 0.03053250 52400.77371348 0 2496.84246358 0 15703.32467405 0 1177.79640793 0 418.92583844 0 1041
0.03150000 0.03150510 54559.65560662 0 912.63748041 0 15600.35205323 0 7011.80435488 0 822.13561904 0 1036
0.03250000 0.03246190 50662.75088669 0 1760.90932218 0 14756.86234855 0 6557.49579524 0 2727.43470025 0 1059
0.03350000 0.03345080 51611.87057015 0 485.05308396 0 14939.99860105 0 3558.96629413 0 8270.42873399 0 1302
0.03450000 0.03451200 49669.45262721 0 700.99995659 0 14168.03611469 0 368.12601218 0 6614.48505109 0 1339
0.03550000 0.03553350 51234.85791007 0 -118.61006515 0 12590.67272103 0 -765.27480217 0 7056.68048737 0 1365
0.03650000 0.03647120 48478.73481622 0 233.09126038 0 17779.82847053 0 -3394.03294363 0 5701.85975023 0 1308
0.03750000 0.03744890 51313.58213953 0 87.03068754 0 15461.61582325 0 -3726.13625424 0 -2128.99768845 0 1579
0.03850000 0.03847530 49694.91897430 0 538.97641306 0 18578.58598295 0 1017.71273571 0 -2032.43594371 0 1662
0.03950000 0.03950240 50485.59368960 0 1344.78921085 0 16329.57536579 0 -2043.26467738 0 -309.26110451 0 1683
0.04050000 0.04050350 49244.16463093 0 827.19345702 0 17389.19685093 0 51.41422957 0 -4622.98349223 0 1822
0.04150000 0.04152450 47061.80940917 0 1961.04159328 0 17058.46650860 0 2487.29811959 0 -5394.33700072 0 1887
0.04250000 0.04250150 44870.48560432 0 2782.87383062 0 15356.98235372 0 1603.94804555 0 1012.22972046 0 1920
0.04350000 0.04349210 43885.04869546 0 718.48980088 0 12749.33913568 0 3556.36429780 0 -4559.62764962 0 2005
0.04450000 0.04448520 43641.45754945 0 -1432.85848246 0 15008.75773817 0 2416.93349536 0 -5570.36482069 0 2151
0.04550000 0.04548030 43148.84981826 0 2545.71570533 0 15494.27918147 0 -2552.65805299 0 -9630.91850143 0 2274
0.04650000 0.04648670 41199.34558745 0 3724.73006899 0 16355.92749886 0 -4137.11880686 0 -3913.85644922 0 2311
0.04750000 0.04749250 40327.06783823 0 922.28368979 0 16778.89030693 0 -4197.90587012 0 -2182.01197969 0 2568
0.04850000 0.04851840 38770.18824548 0 985.00398096 0 19279.24269748 0 -35.43786137 0 -4300.00377727 0 2493
0.04950000 0.04949480 38165.19641739 0 1301.10888944 0 20152.62767917 0 2683.80974047 0 -6756.34367666 0 2644
0.05050000 0.05050630 37899.23917525 0 565.54002753 0 17187.34836949 0 4284.03748488 0 -6847.83429664 0 2829
0.05150000 0.05149060 36609.20261063 0 -168.52964160 0 14868.69282922 0 4088.35628836 0 -5513.49736042 0 2784
0.05250000 0.05249300 36435.47783422 0 -22.58687829 0 13486.86669185 0 3683.28635720 0 -6577.97959616 0 3055
0.05350000 0.05348950 36873.05611106 0 838.61345283 0 11145.51288570 0 895.18971096 0 -6348.33957942 0 3009
0.05450000 0.05448610 35964.57185969 0 1229.28271834 0 12273.33989172 0 247.10660914 0 -2853.01700835 0 3336
0.05550000 0.05550870 35676.80213765 0 -242.88140999 0 12032.51682692 0 197.05859373 0 860.02068564 0 3349
0.05650000 0.05647670 35838.23663351 0 -475.02930830 0 12548.59788672 0 -317.00065956 0 -2653.60443836 0 3324
0.05750000 0.05747970 36127.22431127 0 314.06427902 0 13399.17387928 0 130.29026061 0 -211.22231164 0 3639
0.05850000 0.05849280 35324.92365491 0 1107.36534976 0 14445.84074439 0 399.25363894 0 -1113.70979188 0 3846
0.05950000 0.05951020 34411.89975037 0 1034.48287888 0 12869.58458321 0 868.92947819 0 -94.12815847 0 3787
0.06050000 0.06049470 33110.68013768 0 579.10141097 0 10584.53354876 0 596.76509075 0 -1573.26663348 0 3930
0.06150000 0.06148310 32417.55260403 0 996.44058526 0 12192.84409029 0 1815.32979867 0 -3564.45816724 0 4083
0.06250000 0.06249100 32619.73325522 0 670.52448976 0 11979.25894454 0 73.12550842 0 -2944.55191762 0 4303
0.06350000 0.06350600 31520.47284723 0 827.20785104 0 11639.56001911 0 334.83263868 0 -1370.10054538 0 4470
0.06450000 0.06451750 30714.18615393 0 1107.02875109 0 12722.76555611 0 -33.70902857 0 994.88160193 0 4479
0.06550000 0.06550280 30423.64835069 0 519.03404883 0 12741.03489206 0 1871.94259546 0 2003.96899660 0 4636
0.06650000 0.06648880 30696.58115747 0 -283.61095683 0 13584.85676649 0 222.13851667 0 2268.40933025 0 4653
0.06750000 0.06749660 30160.56991300 0 536.07657119 0 13018.06445903 0 1775.76838209 0 451.58255326 0 5220
0.06850000 0.06852730 30069.11251000 0 844.61576012 0 13594.82185883 0 -1327.99249410 0 880.21992781 0 5029
0.06950000 0.06949320 29586.13770141 0 1217.03672709 0 12726.53014655 0 581.24390582 0 1979.73167757 0 5040
0.07050000 0.07048030 28249.15447956 0 621.76861466 0 12848.65788930 0 -648.19161060 0 -994.44756680 0 5475
0.07150000 0.07148790 27426.70219203 0 611.05503316 0 11105.20962336 0 1248.58178050 0 -1320.59618112 0 5509
0.07250000 0.07249820 27297.15599165 0 826.59555148 0 11400.61924952 0 1530.75997850 0 -1477.24743265 0 5916
0.07350000 0.07351270 26295.99638155 0 396.70811146 0 10586.59300118 0 1640.59744070 0 323.41707179 0 5721
0.07450000 0.07449140 26463.85282580 0 156.68557574 0 11248.81767626 0 1150.50312726 0 -965.33953208 0 6028
0.07550000 0.07549160 26188.37338431 0 232.00285086 0 11119.38219913 0 1253.96293036 0 1313.34380836 0 6183
0.07650000 0.07648840 26045.54039415 0 673.66460108 0 10692.80981316 0 230.92219195 0 1483.16005411 0 6330
0.07750000 0.07749960 25608.18356381 0 -134.22647208 0 10338.51756362 0 513.08821040 0 3072.44834160 0 6583
0.07850000 0.07848650 25833.17320413 0 -131.40745818 0 11335.40325634 0 1735.56477067 0 1550.84517572 0 6549
0.07950000 0.07947320 25883.77372855 0 -215.69553086 0 9504.55005827 0 697.10360549 0 1145.02232647 0 6828
0.08050000 0.08048110 25364.70314105 0 493.83233031 0 8925.92143558 0 1349.52816587 0 -29.65511829 0 7147
0.08150000 0.08149960 25330.04676437 0 290.40825704 0 7922.69130073 0 186.71593511 0 -428.79238709 0 7386
0.08250000 0.08250610 24560.74163597 0 1083.72704351 0 7729.16920755 0 -289.59001224 0 21.05302913 0 7227
0.08350000 0.08350160 23782.80009421 0 1371.24099484 0 7555.79874554 0 61.82597949 0 -619.34598999 0 7798
0.08450000 0.08449610 22368.08915213 0 889.12318419 0 7087.92658801 0 -463.90605079 0 146.76366547 0 7371
0.08550000 0.08548940 22190.26761555 0 426.66982242 0 9141.01241750 0 -493.25435495 0 1324.03967414 0 8256
0.08650000 0.08650700 21881.12830661 0 30.10509757 0 8640.12258736 0 1213.13926875 0 1598.00220713 0 8037
0.08750000 0.08749060 21628.79002399 0 450.09996897 0 9175.60236024 0 1048.83039738 0 2121.57923083 0 8155
0.08850000 0.08849210 21648.72020867 0 35.55002402 0 8082.61996041 0 1771.40588611 0 2476.71297706 0 8718
0.08950000 0.08949900 21355.74649396 0 299.25836627 0 9166.98809153 0 86.31131860 0 2349.39231397 0 8571
0.09050000 0.09049190 20843.98364085 0 1009.42620781 0 7737.59524674 0 351.41898126 0 1994.96719652 0 8932
0.09150000 0.09150830 20536.83735038 0 285.68037434 0 8386.71028923 0 -380.29892608 0 2345.94882095 0 9285
0.09250000 0.09250820 19921.10536721 0 166.37718165 0 7300.12769316 0 765.39549051 0 1834.45170363 0 9204
0.09350000 0.09350330 19870.28339629 0 65.13250785 0 7385.19636474 0 1034.97781180 0 1367.22174093 0 9349
0.09450000 0.09448040 19554.83286221 0 320.98337480 0 5968.54776582 0 315.06189548 0 727.35430413 0 9564
0.09550000 0.09549270 19431.15499399 0 414.79475405 0 6291.50533613 0 -146.72712680 0 0.58059950 0 10155
0.09650000 0.09649430 18972.76074650 0 886.12701310 0 6633.85054719 0 -415.33619074 0 1573.68738182 0 9913
0.09750000 0.09749140 18522.00640313 0 429.85865197 0 7170.88044555 0 69.63451512 0 1344.49025808 0 10476
0.09850000 0.09850240 18206.33442255 0 99.94168262 0 7885.55472329 0 -27.91798124 0 1851.43664990 0 10575
0.09950000 0.09950330 18224.27158875 0 192.15576830 0 7555.45550347 0 1583.90713763 0 1659.96293681 0 10882
0.10050000 0.10051200 18111.55532210 0 151.95437135 0 7614.62600730 0 206.83324208 0 2233.50936242 0 10875
0.10150000 0.10150300 17957.20711413 0 217.50031981 0 7961.41122062 0 688.38525693 0 2020.81000265 0 11118
0.10250000 0.10250800 17242.82071683 0 831.60688569 0 7162.00044104 0 -2.54013525 0 2119.38691051 0 11575
0.10350000 0.10349800 17147.26655364 0 516.00687522 0 7065.42762398 0 -110.58240821 0 2688.49333387 0 11364
0.10450000 0.10450100 16631.51766359 0 -359.02234671 0 6550.59773688 0 991.27091681 0 2101.74869708 0 12093
0.10550000 0.10551000 16829.38010810 0 -344.59953640 0 6371.11535157 0 546.50670117 0 1211.50056468 0 12067
0.10650000 0.10649700 17111.28149798 0 -58.66693450 0 5577.81649529 0 760.11288434 0 -219.70592691 0 12054
0.10750000 0.10749900 16731.50075670 0 420.98750532 0 5006.55096860 0 -103.37078161 0 59.96095710 0 12807
0.10850000 0.10850100 16266.46311432 0 769.94732324 0 4887.40168122 0 -295.32769096 0 220.44666544 0 12736
0.10950000 0.10950300 15855.45841705 0 413.76170615 0 4942.58614812 0 107.01180491 0 -260.05347855 0 12933
0.11050000 0.11050200 15460.39786752 0 230.10616161 0 4671.23668379 0 128.24852391 0 -247.49635497 0 13428
0.11150000 0.11150900 15289.99478857 0 385.05891852 0 4931.14843658 0 -186.91634419 0 -1612.14156592 0 13453
0.11250000 0.11250000 14763.17357369 0 563.00889408 0 4638.37402373 0 -132.51911959 0 -1073.78188136 0 13668
0.11350000 0.11349100 14513.71409553 0 299.85405734 0 4491.00138039 0 4.20735056 0 -1318.74710288 0 13791
0.11450000 0.11448600 14291.71398292 0 -73.15739671 0 4480.07299580 0 204.58777460 0 -899.60203240 0 14205
0.11550000 0.11549300 14596.53508517 0 -87.58297510 0 4786.64352537 0 612.75795672 0 -1204.40320447 0 14776
0.11650000 0.11649800 14507.95648662 0 -168.62154190 0 4328.03890371 0 343.64953093 0 -526.10151376 0 14553
0.11750000 0.11747300 14841.23346367 0 -85.66857014 0 4602.76542711 0 489.74664245 0 -51.76422576 0 14568
0.11850000 0.11849100 14651.45381627 0 267.23055950 0 4494.82133245 0 482.81647434 0 887.57859488 0 16015
0.11950000 0.11950300 14485.25822075 0 363.84766587 0 5030.50040718 0 141.60506934 0 1598.78834219 0 15270
0.12050000 0.12050700 14332.57086150 0 73.70603041 0 4628.92933066 0 380.41186379 0 1490.39028221 0 15999
0.12150000 0.12150000 14233.58427762 0 -25.04681670 0 4978.23903404 0 412.88145632 0 1611.93119175 0 15670
0.12250000 0.12250700 14209.66805601 0 267.16855448 0 4464.16206503 0 41.84608008 0 893.55986475 0 16887
0.12350000 0.12352200 13850.92473189 0 398.05229170 0 4679.61843368 0 -17.84305145 0 1838.34916196 0 16407
0.12450000 0.12449800 13615.30565974 0 208.53616563 0 4071.44884836 0 -104.38245993 0 1270.97002128 0 16306
0.12550000 0.12549900 13485.98090586 0 130.83834068 0 4544.45856462 0 335.04744178 0 1272.02189214 0 17523
0.12650000 0.12650100 13241.83614361 0 277.24215560 0 4318.15131765 0 228.87159740 0 750.52646551 0 17154
0.12750000 0.12750600 13138.64207630 0 442.78448396 0 4527.19681022 0 100.30817657 0 1220.46914778 0 18007
0.12850000 0.12850300 12714.57203575 0 302.62213855 0 4623.22708338 0 89.28158045 0 855.88517232 0 17496
0.12950000 0.12949900 12650.57399830 0 39.50915520 0 4635.99347389 0 235.29354579 0 1132.66561197 0 18405
0.13050000 0.13049000 12487.81082346 0 228.69665466 0 4766.28152003 0 -88.12806565 0 819.56462522 0 18100
0.13150000 0.13148800 12240.12291727 0 395.89429559 0 4548.94285617 0 -102.78328406 0 928.79643125 0 19059
0.13250000 0.13249300 12230.82216442 0 149.36234011 0 4572.00650877 0 -20.86812131 0 955.89926794 0 18957
0.13350000 0.13349100 12012.47591900 0 -142.35909466 0 4521.42812899 0 -52.35626297 0 740.41189679 0 19468
0.13450000 0.13450700 12188.52588361 0 124.93457709 0 4223.74867624 0 442.72801511 0 622.80830596 0 19953
0.13550000 0.13551000 11998.30334323 0 170.87918893 0 4140.52908291 0 243.12721560 0 576.15949426 0 19956
0.13650000 0.13649900 11871.08233106 0 136.68342096 0 3819.06627645 0 302.29550497 0 743.61401312 0 19723
0.13750000 0.13749600 11706.32613776 0 51.48099569 0 3686.86271811 0 636.20249729 0 802.53760411 0 20946
0.13850000 0.13851100 11760.35908288 0 -33.71810788 0 3402.48112747 0 495.40902936 0 539.30526110 0 20955
0.13950000 0.13949800 11762.13065485 0 -106.17440498 0 3255.60673875 0 583.87026127 0 339.38114971 0 20506
0.14050000 0.14048300 11799.11221974 0 134.31615791 0 3104.83489170 0 47.46019166 0 132.12273036 0 21447
0.14150000 0.14148400 11489.41929456 0 371.32480682 0 3081.19547821 0 -50.73870703 0 325.70461410 0 21771
0.14250000 0.14249400 11239.62764666 0 401.67515638 0 3224.62637391 0 -172.24994274 0 577.18257708 0 22470
0.14350000 0.14350900 11007.79530960 0 274.85385514 0 3083.64246199 0 135.73673718 0 528.64925570 0 22519
0.14450000 0.14449900 10885.39075873 0 211.22231164 0 3450.25820906 0 148.53191574 0 632.79775741 0 22218
0.14550000 0.14550500 10678.84761157 0 57.73143377 0 3207.56392136 0 329.54671081 0 562.77416079 0 23559
0.14650000 0.14650700 10631.96738828 0 84.44341740 0 2887.42979388 0 220.21414662 0 789.43350769 0 23044
0.14750000 0.14750500 10562.99787699 0 223.52809344 0 3164.08290180 0 -80.98398023 0 480.06057270 0 23649
0.14850000 0.14849900 10256.42734741 0 287.06884388 0 3203.07962981 0 -9.24184808 0 597.98304648 0 23640
0.14950000 0.14949500 10079.86805585 0 205.65182502 0 2993.07084498 0 196.65113217 0 643.36075528 0 24457
0.15050000 0.15050000 9997.21315108 0 47.09812663 0 2906.17523980 0 61.82199346 0 670.41598098 0 24591
0.15150000 0.15149900 9806.16018633 0 -7.84018034 0 2875.59347865 0 370.27957935 0 448.22542438 0 25020
0.15250000 0.15250500 9933.18189665 0 40.63642859 0 2740.67720074 0 247.05789091 0 448.56755922 0 25297
0.15350000 0.15350100 9806.14911401 0 52.47617625 0 2412.05060012 0 155.91826363 0 660.53836001 0 25452
0.15450000 0.15450400 9897.77260188 0 96.60160511 0 2516.07509179 0 43.33132173 0 617.61981455 0 26061
0.15550000 0.15549900 9608.34203112 0 238.19228043 0 2657.13650998 0 -86.78399614 0 518.05857701 0 26128
0.15650000 0.15649500 9466.52769485 0 245.69710219 0 2622.49120562 0 -31.54793221 0 762.42589299 0 26331
0.15750000 0.15749700 9325.63236153 0 275.48940658 0 2802.85937692 0 39.91063770 0 624.73489047 0 27345
0.15850000 0.15849900 9111.31644234 0 162.26492022 0 2663.65810930 0 147.35049869 0 581.30812530 0 26980
0.15950000 0.15949700 8990.92705459 0 153.64068642 0 2789.84939526 0 129.74328776 0 773.85585390 0 27777
0.16050000 0.16050000 8874.66764399 0 107.09861193 0 2745.29436018 0 107.57483262 0 832.41184370 0 28224
0.16150000 0.16150500 8920.09739272 0 33.18630412 0 2522.16487044 0 14.37021677 0 657.18787452 0 28075
0.16250000 0.16249700 8861.51372211 0 -8.60466900 0 2458.12254369 0 49.92212308 0 842.78329036 0 28590
0.16350000 0.16349900 8805.65384340 0 79.23864967 0 2366.04509050 0 188.46093351 0 399.87922529 0 29163
0.16450000 0.16449100 8799.61942637 0 96.94761526 0 2265.97341879 0 165.93761036 0 549.34564525 0 28996
0.16550000 0.16550500 8648.63720514 0 144.63888634 0 2222.89100292 0 94.46508932 0 619.27291264 0 30777
0.16650000 0.16650700 8545.37670389 0 186.42473297 0 2158.04039645 0 -127.20329645 0 580.33818965 0 29211
0.16750000 0.16749900 8372.47127952 0 224.93760039 0 2370.92798574 0 -146.39495705 0 678.92727707 0 30922
0.16850000 0.16850800 8395.04774982 0 15.84460754 0 2452.24313921 0 -102.00102431 0 847.29304826 0 30867
0.16950000 0.16949900 8373.16883598 0 -15.77296960 0 2585.35462818 0 -2.97556550 0 339.98459142 0 30852
0.17050000 0.17049200 8392.02500515 0 66.93297859 0 2446.26408381 0 160.58746301 0 684.47561903 0 31257
0.17150000 0.17149500 8435.87141143 0 -100.02383927 0 2316.30820741 0 65.04880108 0 460.21785939 0 32608
0.17250000 0.17250900 8538.97690014 0 -135.47543032 0 2247.19475589 0 233.88182438 0 361.89561500 0 32361
0.17350000 0.17350400 8497.52211602 0 -15.29796686 0 2142.51699706 0 308.29227609 0 248.94240060 0 32508
0.17450000 0.17449800 8506.23603565 0 237.51243968 0 2109.55468607 0 142.22622676 0 -16.54205328 0 32791
0.17550000 0.17549800 8286.51682195 0 243.04528040 0 2000.20440616 0 -8.54252004 0 200.05919375 0 33633
0.17650000 0.17650100 8066.24399201 0 222.94126022 0 2132.91729144 0 -53.50324510 0 190.03431086 0 33984
0.17750000 0.17750300 7995.61363199 0 158.59665900 0 2118.77793265 0 -63.01835815 0 377.65042598 0 34069
0.17850000 0.17849800 7981.81751527 0 17.60588225 0 2274.24444543 0 -12.41473348 0 388.66296025 0 34536
