### header ###
fiducial parameters:
Omega_m = 0.31
Omega_nu = 0
Omega_de = 0.69
Omega_k = 0
H_0 = 100
w_de = -1
zeff = 0
beta = 0
fgrowth = 0
b_1 = 2
gamma = 0.55
Lx = 3500 Ly = 3500 Lz = 3500
nx = 700 ny = 700 nz = 700
xoffset = -685.467585 yoffset = -31.7331281 zoffset = 572.489161
bins = 400 dk = 0.001
kx_ny = 0.628318531 ky_ny = 0.628318531 kz_ny = 0.628318531
############################
A(data) = 8.05553728 (not used)
A(ran) = 8.05041889 (used)
Ngal = 478994
weighted Ngal = 0
Nran = 23820508
weighted Nran = 0
SN(data) = 3491.82588
SN(ran) = 70.1220682
SN(data+ran) = 3561.94795
############################
13 columns: k_central k_mean P_0(k) sigma^{lin}_{P_0(k)} P^img_1(k) sigma^{lin}_{P_1(k)} P_2(k) sigma^{lin}_{P_2(k)} P^img_3(k) sigma^{lin}_{P_3(k)} P_4(k) sigma^{lin}_{P_4(k)} N_modes
### header ###
0.00050000 0 0 0 0 0 0 0 0 0 0 0 0
0.00150000 0.00179520 26880.61513197 0 -28241.73602193 0 7248.13205581 0 -36618.06047048 0 13965.63401701 0 3
0.00250000 0.00253879 41828.03219065 0 -14955.83202554 0 -1723.96097426 0 -7706.96919629 0 25563.22992505 0 6
0.00350000 0.00331552 52605.72244587 0 -7235.70890736 0 -201.00144860 0 -26097.46959755 0 31550.14667774 0 7
0.00450000 0.00420575 49124.58352289 0 8322.03683997 0 10513.72603155 0 -42503.11183484 0 10433.65097846 0 24
0.00550000 0.00557378 54176.55316789 0 -3298.61164835 0 20481.91861928 0 7339.15763814 0 32432.27879604 0 45
0.00650000 0.00659388 40274.36357210 0 -5893.45525890 0 31201.81133895 0 4066.24485570 0 9877.58775374 0 40
0.00750000 0.00754703 70452.09558856 0 -11362.30900565 0 9543.03745934 0 33041.14593782 0 3011.07444513 0 57
0.00850000 0.00846663 71913.75318787 0 -13021.27543322 0 28975.38826441 0 42239.25833441 0 37753.52738063 0 75
0.00950000 0.00948925 77219.61124097 0 -3437.45860157 0 5219.95895715 0 28404.16702702 0 13703.55208855 0 112
0.01050000 0.01054430 81449.23932169 0 -7538.70307602 0 4829.00624013 0 36150.03330040 0 16997.56872210 0 105
0.01150000 0.01145670 84752.22453834 0 -6656.71489794 0 -7074.62872590 0 11598.81386377 0 22103.23914247 0 144
0.01250000 0.01249090 90056.31101947 0 -4397.39594638 0 -3984.78576201 0 637.20564992 0 475.96824144 0 169
0.01350000 0.01339930 91778.72186826 0 8856.96299661 0 9733.85790527 0 -22020.63959932 0 31047.57385422 0 180
0.01450000 0.01448870 80524.47875284 0 11692.59645499 0 10128.28733228 0 -22573.59150077 0 10790.47879039 0 267
0.01550000 0.01550050 74210.70697150 0 4882.98382362 0 23981.10543171 0 -15779.28082230 0 7374.43406501 0 238
0.01650000 0.01653350 71913.31029488 0 5911.80210112 0 28315.92059821 0 -2403.86815208 0 -5422.71536923 0 315
0.01750000 0.01747870 75960.79863234 0 30.06623371 0 39108.44776869 0 -5654.69164651 0 4679.90631412 0 297
0.01850000 0.01844180 69030.96269809 0 3196.04870355 0 33610.15271025 0 9728.93072072 0 9260.12848790 0 388
0.01950000 0.01947590 76129.54086257 0 555.02685511 0 35445.05837920 0 7485.31232575 0 -338.02921885 0 399
0.02050000 0.02045430 78773.39058277 0 -6123.13956493 0 31279.76050567 0 14376.74943752 0 9709.91953901 0 462
0.02150000 0.02154770 79388.23677995 0 -418.19063608 0 33344.08474486 0 8487.14734766 0 -1745.55200766 0 571
0.02250000 0.02255340 82413.86025989 0 7368.32214171 0 29334.90665127 0 500.84664808 0 4652.75697367 0 510
0.02350000 0.02348930 73609.81190359 0 5959.19165134 0 38090.45822487 0 -1940.05953775 0 11592.28119213 0 555
0.02450000 0.02439640 69465.66217047 0 7191.74070551 0 38603.88192671 0 -2749.15860155 0 7110.45876901 0 592
0.02550000 0.02547300 63730.30863766 0 4609.37560503 0 41595.51336946 0 7375.49700820 0 8934.54677661 0 837
0.02650000 0.02652900 58087.51974033 0 567.63269692 0 39338.30923193 0 8706.54546395 0 5002.77530583 0 723
0.02750000 0.02749970 62195.02007831 0 -580.20642898 0 33851.86156104 0 11150.05253887 0 10235.17955608 0 826
0.02850000 0.02848090 62533.50104801 0 -1902.29183779 0 33492.67534392 0 9001.54541409 0 11722.27028550 0 831
0.02950000 0.02946900 64381.80422999 0 -385.65682406 0 29153.98486374 0 9890.45379518 0 17869.51430157 0 996
0.03050000 0.03053250 63263.72086980 0 597.96975969 0 28168.88012462 0 5617.61043069 0 15922.33525896 0 1041
0.03150000 0.03150510 61236.82108850 0 5406.14009898 0 29016.90948248 0 4764.96391338 0 11954.34621370 0 1036
0.03250000 0.03246190 58488.78079176 0 3850.36773871 0 28674.88536883 0 -1389.64319869 0 8324.41738980 0 1059
0.03350000 0.03345080 50922.39690369 0 3563.67203218 0 26261.34000487 0 -582.65230554 0 10616.23361472 0 1302
0.03450000 0.03451200 54361.90388536 0 2052.12253724 0 33045.90703749 0 -7600.82989058 0 800.60548343 0 1339
0.03550000 0.03553350 50299.02501640 0 -984.36953675 0 25223.64172286 0 -2723.38222937 0 465.57243567 0 1365
0.03650000 0.03647120 50783.66067371 0 4535.92180218 0 29315.08718985 0 -5855.89793311 0 -8302.50525899 0 1308
0.03750000 0.03744890 50379.63154108 0 1016.51138846 0 23568.21843923 0 3212.86756495 0 -4779.69010539 0 1579
0.03850000 0.03847530 49031.13310142 0 -173.52215286 0 27896.72238058 0 3094.60406356 0 -10631.26983182 0 1662
0.03950000 0.03950240 48213.55263681 0 1319.07927262 0 22771.23249878 0 10475.22755815 0 -8063.61985103 0 1683
0.04050000 0.04050350 47735.44965114 0 -1422.14047203 0 21457.50115905 0 6349.73469235 0 -7599.25762046 0 1822
0.04150000 0.04152450 46833.16590167 0 921.50198366 0 18099.70793454 0 6195.64114785 0 -3128.96148748 0 1887
0.04250000 0.04250150 46899.26768084 0 -63.09830034 0 16575.27025351 0 4472.47738097 0 1256.00023813 0 1920
0.04350000 0.04349210 45387.89534309 0 358.16867047 0 13173.85206923 0 2562.82244717 0 -4414.82378564 0 2005
0.04450000 0.04448520 45912.83426274 0 161.36141851 0 13322.22122180 0 117.04886736 0 -1633.57758677 0 2151
0.04550000 0.04548030 45152.82988719 0 1845.98906609 0 16708.58104433 0 -3154.09566481 0 -5224.68683985 0 2274
0.04650000 0.04648670 43614.10890714 0 3000.61109818 0 14201.58525889 0 -1921.64626158 0 -2353.17904906 0 2311
0.04750000 0.04749250 41712.32639629 0 1192.65546784 0 13071.98668089 0 1821.09847990 0 -1674.45661000 0 2568
0.04850000 0.04851840 40230.40644257 0 839.05634583 0 13505.80036729 0 3099.59768206 0 324.76235926 0 2493
0.04950000 0.04949480 40217.67326902 0 1027.81401764 0 11017.40608755 0 2401.64261479 0 -29.10582025 0 2644
0.05050000 0.05050630 37588.21757109 0 2380.31731719 0 12838.02845748 0 3401.97180053 0 -765.41209899 0 2829
0.05150000 0.05149060 37065.16094666 0 1823.34616184 0 9632.61256713 0 -738.28711765 0 1676.41641149 0 2784
0.05250000 0.05249300 34870.18327461 0 876.48966157 0 11396.52248934 0 -2287.27657174 0 565.85337432 0 3055
0.05350000 0.05348950 34758.13134745 0 359.49624221 0 13760.68528461 0 -2027.14337245 0 1696.93342938 0 3009
0.05450000 0.05448610 35028.18534977 0 -346.44307848 0 14884.96914670 0 -2393.23872025 0 1098.30929529 0 3336
0.05550000 0.05550870 34722.36773828 0 547.49435254 0 14911.09983327 0 -1039.09007323 0 7.99225872 0 3349
0.05650000 0.05647670 35596.97067571 0 609.01551093 0 15664.01792094 0 1877.94379552 0 -961.89161013 0 3324
0.05750000 0.05747970 34527.49482147 0 1252.83355323 0 12708.26081060 0 1135.56656108 0 -2011.22136936 0 3639
0.05850000 0.05849280 34122.13700986 0 213.89849254 0 13811.17508579 0 1695.62689505 0 -599.82991026 0 3846
0.05950000 0.05951020 34492.50627505 0 -441.86658824 0 14100.05204031 0 2032.03734002 0 -1959.43610618 0 3787
0.06050000 0.06049470 33352.72115822 0 1025.01714839 0 13943.93226036 0 1316.51049326 0 -791.56935914 0 3930
0.06150000 0.06148310 33132.60334082 0 1459.27704947 0 13355.10602651 0 896.44088366 0 -470.78085727 0 4083
0.06250000 0.06249100 32037.10752326 0 878.28005650 0 13730.45783786 0 63.82741293 0 2363.99671041 0 4303
0.06350000 0.06350600 31517.81548927 0 -506.33741396 0 14260.71147342 0 894.68592018 0 1678.52015321 0 4470
0.06450000 0.06451750 31573.73072960 0 -13.53469914 0 12603.51661782 0 912.82681716 0 1492.36115603 0 4479
0.06550000 0.06550280 32205.07469076 0 296.61208064 0 13577.21686237 0 -135.31598884 0 -390.39688632 0 4636
0.06650000 0.06648880 31609.38361552 0 550.24582526 0 12447.50756112 0 265.66604000 0 -2126.18531795 0 4653
0.06750000 0.06749660 30307.83183309 0 1200.48360149 0 11482.99734617 0 -512.39840456 0 -352.84398946 0 5220
0.06850000 0.06852730 30132.11403822 0 673.89601267 0 10527.66608849 0 1236.09219810 0 -2633.67425369 0 5029
0.06950000 0.06949320 28972.73090646 0 668.91014480 0 11048.90685165 0 1732.60845995 0 175.27822358 0 5040
0.07050000 0.07048030 28759.47793045 0 648.63893253 0 10075.22875175 0 2671.17621785 0 -2770.41746520 0 5475
0.07150000 0.07148790 28065.02171782 0 -59.81579892 0 8816.21684127 0 1744.34512425 0 -1651.26008950 0 5509
0.07250000 0.07249820 27728.75521308 0 510.33784491 0 8663.68449457 0 1150.07130659 0 -761.48585261 0 5916
0.07350000 0.07351270 27859.29792269 0 268.75743309 0 8323.17728942 0 510.59915178 0 -1822.10606146 0 5721
0.07450000 0.07449140 26812.85250408 0 341.50149992 0 7657.04408369 0 -254.09878226 0 -1859.41979609 0 6028
0.07550000 0.07549160 26762.14125641 0 905.11383570 0 8467.89257480 0 -1067.31010750 0 -1991.06973819 0 6183
0.07650000 0.07648840 25713.70281934 0 722.39279538 0 8008.13643136 0 -581.96582140 0 -2724.61125742 0 6330
0.07750000 0.07749960 25279.88913294 0 102.23974363 0 8333.40811756 0 374.41066374 0 -1008.31011747 0 6583
0.07850000 0.07848650 25862.29341840 0 -373.36543628 0 7263.88797402 0 1626.20341844 0 -984.64413040 0 6549
0.07950000 0.07947320 26173.97936205 0 187.06692781 0 8712.36950680 0 1917.62700767 0 -2997.22296678 0 6828
0.08050000 0.08048110 25313.88117013 0 887.36932794 0 7442.11918663 0 461.94957099 0 -578.48689694 0 7147
0.08150000 0.08149960 24679.87985102 0 1349.15170683 0 7781.67417184 0 -483.05120763 0 1859.03226473 0 7386
0.08250000 0.08250610 23804.28040436 0 485.81043098 0 6998.39576952 0 597.07400861 0 1993.23991385 0 7227
0.08350000 0.08350160 23388.29316092 0 24.74254921 0 8749.60573517 0 465.21701405 0 1830.83105341 0 7798
0.08450000 0.08449610 23841.81558549 0 198.62089876 0 7381.65322080 0 1020.11985912 0 1200.93756680 0 7371
0.08550000 0.08548940 23221.87611890 0 87.14340381 0 7639.43908722 0 625.86869654 0 2726.07280430 0 8256
0.08650000 0.08650700 23060.33089979 0 -124.76738499 0 7023.05383689 0 1242.71344835 0 2043.87365525 0 8037
0.08750000 0.08749060 22919.15875836 0 117.93243888 0 6489.89925223 0 852.34867177 0 701.64215143 0 8155
0.08850000 0.08849210 23078.60023575 0 742.93527961 0 5736.53827157 0 404.36905300 0 -53.30416470 0 8718
0.08950000 0.08949900 21971.03558414 0 729.28088865 0 5619.19377314 0 -97.65569044 0 -626.71240769 0 8571
0.09050000 0.09049190 21155.78030774 0 704.47113042 0 5226.95666644 0 6.31181198 0 -435.85542309 0 8932
0.09150000 0.09150830 20982.38770108 0 253.40233303 0 4931.40310005 0 117.69659836 0 -2358.20588452 0 9285
0.09250000 0.09250820 20066.37426883 0 637.10378453 0 4456.90969228 0 557.52587883 0 -1186.38853199 0 9204
0.09350000 0.09350330 19740.07285643 0 777.19526707 0 5210.28174526 0 -932.59423866 0 -2131.90970988 0 9349
0.09450000 0.09448040 19274.14942806 0 480.47799934 0 5020.33601300 0 175.63918137 0 -1432.62596364 0 9564
0.09550000 0.09549270 19085.25556665 0 624.25435158 0 6014.54220311 0 -856.86839476 0 -184.67641288 0 10155
0.09650000 0.09649430 18771.35515804 0 740.18712859 0 6734.05508680 0 -1024.40484883 0 87.23563627 0 9913
0.09750000 0.09749140 18094.61466513 0 683.68062611 0 7837.17973616 0 157.39199006 0 897.35435046 0 10476
0.09850000 0.09850240 17818.13871441 0 644.28529441 0 7464.00917280 0 136.97240863 0 1821.48601127 0 10575
0.09950000 0.09950330 17385.65370699 0 -43.71453489 0 7692.66375263 0 711.48876989 0 956.51931813 0 10882
0.10050000 0.10051200 17236.06659869 0 62.15106295 0 7417.68256576 0 1182.45785668 0 390.46221303 0 10875
0.10150000 0.10150300 17212.15037708 0 207.63709286 0 6657.70033485 0 975.40316811 0 1008.53156397 0 11118
0.10250000 0.10250800 16844.32774661 0 17.64374960 0 5598.52174270 0 792.30566875 0 -238.64070958 0 11575
0.10350000 0.10349800 16718.21396692 0 55.49737080 0 5210.71356593 0 161.08350316 0 401.52567999 0 11364
0.10450000 0.10450100 16622.77052699 0 272.03816293 0 4819.87157216 0 370.74461700 0 -263.64866242 0 12093
0.10550000 0.10551000 16409.51755098 0 85.01419574 0 4408.75615164 0 413.84585582 0 -30.82358072 0 12067
0.10650000 0.10649700 16454.58191299 0 83.06303066 0 4330.74055097 0 -37.56142255 0 -450.24944536 0 12054
0.10750000 0.10749900 16294.25464962 0 174.04365936 0 4633.01501852 0 273.82855786 0 -393.98321232 0 12807
0.10850000 0.10850100 16029.73680970 0 410.06354966 0 4295.08766505 0 33.73715228 0 -329.28872564 0 12736
0.10950000 0.10950300 15713.73265937 0 459.73399880 0 4270.89463532 0 -37.22050566 0 -301.09194326 0 12933
0.11050000 0.11050200 15597.36252553 0 408.34291038 0 4537.69337415 0 -461.11028877 0 -756.04712666 0 13428
0.11150000 0.11150900 14990.26695572 0 525.72062578 0 4814.75615809 0 -209.93792196 0 -638.50443362 0 13453
0.11250000 0.11250000 14648.35356532 0 226.53422963 0 5156.30416177 0 -49.99088222 0 -599.92291779 0 13668
0.11350000 0.11349100 14522.90412513 0 192.29195789 0 5166.86715965 0 -51.96563135 0 -675.82038272 0 13791
0.11450000 0.11448600 14373.98135632 0 240.13990236 0 5597.99027111 0 329.07060084 0 -306.99570685 0 14205
0.11550000 0.11549300 14044.02607672 0 286.65806062 0 5313.09935353 0 720.01999617 0 -167.54309746 0 14776
0.11650000 0.11649800 13919.68386901 0 63.07504845 0 4654.34031612 0 857.51612576 0 1084.13339783 0 14553
0.11750000 0.11747300 14059.85950121 0 -74.38365669 0 4656.35547923 0 1001.99667786 0 228.99339297 0 14568
0.11850000 0.11849100 14162.94284528 0 -195.24162522 0 3846.03845971 0 495.16211652 0 524.14835566 0 16015
0.11950000 0.11950300 14206.45708181 0 46.39902005 0 4382.10506580 0 127.88978059 0 829.47767763 0 15270
0.12050000 0.12050700 13936.40307949 0 185.14920115 0 3688.85573658 0 -127.38931150 0 1097.79443219 0 15999
0.12150000 0.12150000 14032.40013566 0 78.84502852 0 4079.69773035 0 366.49395150 0 1205.36649673 0 15670
0.12250000 0.12250700 13824.57259882 0 102.45255372 0 3869.04675068 0 160.47784699 0 868.15552268 0 16887
0.12350000 0.12352200 14066.39217286 0 144.85368944 0 3679.92037045 0 167.08138151 0 139.52790120 0 16407
0.12450000 0.12449800 13442.57739257 0 302.84801397 0 3779.80381264 0 -116.95143090 0 164.76505116 0 16306
0.12550000 0.12549900 13574.44878116 0 278.95393702 0 3396.61279532 0 -221.16968825 0 -366.80286936 0 17523
0.12650000 0.12650100 13302.84465336 0 38.88456536 0 3527.08907098 0 -28.46727928 0 -296.60986617 0 17154
0.12750000 0.12750600 13268.63116967 0 158.90779133 0 3215.31454874 0 -148.10784570 0 -919.91753398 0 18007
0.12850000 0.12850300 13099.55676969 0 165.20683692 0 3258.16444578 0 -249.41740333 0 -774.09058719 0 17496
0.12950000 0.12949900 13081.28743374 0 122.16538865 0 3436.68353884 0 312.20412845 0 -767.41618979 0 18405
0.13050000 0.13049000 12942.55120376 0 109.64491447 0 3678.15987081 0 258.41588171 0 262.78612832 0 18100
0.13150000 0.13148800 12901.69432518 0 177.66873850 0 3600.88611590 0 440.76489192 0 -210.93443119 0 19059
0.13250000 0.13249300 12634.40840406 0 304.71370071 0 3868.91388278 0 274.85828407 0 758.49521768 0 18957
0.13350000 0.13349100 12402.55392236 0 456.72343368 0 3869.88824737 0 287.55934787 0 1300.73243040 0 19468
0.13450000 0.13450700 11939.62002169 0 268.21821087 0 3799.02536853 0 343.22767536 0 1400.12869029 0 19953
0.13550000 0.13551000 11863.33170369 0 234.82850815 0 3953.10784070 0 69.41650105 0 1147.86791395 0 19956
0.13650000 0.13649900 11564.04676384 0 213.18764929 0 3701.41175292 0 9.53106828 0 1296.04883700 0 19723
0.13750000 0.13749600 11539.57692599 0 125.59780935 0 3781.67503553 0 51.60522718 0 923.98329165 0 20946
0.13850000 0.13851100 11422.09955967 0 60.25049839 0 3427.48243691 0 -169.81956744 0 815.94618947 0 20955
0.13950000 0.13949800 11370.83469576 0 39.23732963 0 3372.84051393 0 373.85704750 0 559.06603921 0 20506
0.14050000 0.14048300 11406.59830492 0 6.47207281 0 3156.54264860 0 325.84191093 0 316.32967667 0 21447
0.14150000 0.14148400 11176.07250220 0 124.91353967 0 2917.59080669 0 348.98196256 0 431.29251803 0 21771
0.14250000 0.14249400 11212.27900435 0 191.73501995 0 2972.62026104 0 -69.69375206 0 -8.53870009 0 22470
0.14350000 0.14350900 11054.71982218 0 127.57311210 0 2884.71707430 0 -45.12105231 0 227.41447945 0 22519
0.14450000 0.14449900 10865.81488845 0 191.09614681 0 3356.59741342 0 -203.09854692 0 487.83445195 0 22218
0.14550000 0.14550500 10929.52504546 0 105.41517567 0 3406.71075555 0 -211.95751400 0 211.60762854 0 23559
0.14650000 0.14650700 10774.73394450 0 105.42857318 0 3612.34597208 0 -140.47569221 0 427.11492988 0 23044
0.14750000 0.14750500 10801.90542960 0 253.74114617 0 3485.30211711 0 -60.93764687 0 81.66581400 0 23649
0.14850000 0.14849900 10383.64835958 0 323.84999969 0 3528.70563040 0 368.19244612 0 478.18824257 0 23640
0.14950000 0.14949500 10211.07510495 0 195.16744065 0 3236.68413564 0 260.74549885 0 459.71849754 0 24457
0.15050000 0.15050000 10090.80751277 0 -34.34491219 0 3181.84291081 0 389.58307044 0 -85.76844251 0 24591
0.15150000 0.15149900 10086.99863303 0 131.95664549 0 2993.18156822 0 71.16006004 0 -635.40418267 0 25020
0.15250000 0.15250500 9717.16083944 0 252.45675649 0 3144.79491197 0 -330.62404801 0 -312.04800867 0 25297
0.15350000 0.15350100 9701.61529540 0 335.63981116 0 2927.65554995 0 -302.44165965 0 -401.73605416 0 25452
0.15450000 0.15450400 9571.61512970 0 35.35758701 0 3042.47555832 0 -61.10550332 0 -394.09282834 0 26061
0.15550000 0.15549900 9481.99573262 0 40.90615043 0 2933.23600166 0 195.58376006 0 -629.50706247 0 26128
0.15650000 0.15649500 9462.95133393 0 267.54833522 0 3117.72307778 0 158.19694808 0 -771.08223653 0 26331
0.15750000 0.15749700 9269.88320607 0 269.63879015 0 3084.02999336 0 212.43694567 0 -452.07195002 0 27345
0.15850000 0.15849900 8919.78736763 0 212.94184368 0 2901.30341688 0 336.25211072 0 -210.85803215 0 26980
0.15950000 0.15949700 8882.59542856 0 121.27517374 0 2686.97642536 0 346.43975679 0 -107.55667401 0 27777
0.16050000 0.16050000 8772.01612060 0 -77.72074466 0 2555.28219397 0 374.03974086 0 1.91671908 0 28224
0.16150000 0.16150500 8832.42672481 0 17.78968284 0 2615.99175095 0 253.48758993 0 174.71242778 0 28075
0.16250000 0.16249700 8885.02026770 0 -5.07927400 0 2264.01361729 0 301.14841211 0 326.40881396 0 28590
0.16350000 0.16349900 8791.21553183 0 -60.36509696 0 2029.72322413 0 70.22511293 0 169.83839039 0 29163
0.16450000 0.16449100 8963.64484623 0 60.51999878 0 2038.92432605 0 49.69502970 0 -68.13775825 0 28996
0.16550000 0.16550500 8832.82532850 0 199.81560261 0 2343.29146299 0 -351.48873690 0 -76.02845054 0 30777
0.16650000 0.16650700 8586.62111383 0 223.73625315 0 2316.60716018 0 -203.81603356 0 50.51748199 0 29211
0.16750000 0.16749900 8525.97799080 0 83.12381773 0 2327.42482153 0 66.53138537 0 247.53067918 0 30922
0.16850000 0.16850800 8486.73767165 0 -49.65472644 0 2388.92051357 0 378.56610725 0 163.90583876 0 30867
0.16950000 0.16949900 8625.26352745 0 -30.61453523 0 2263.00603573 0 347.72525370 0 -20.13015086 0 30852
0.17050000 0.17049200 8660.41815875 0 18.93588990 0 2177.28409699 0 130.04666946 0 -80.95530291 0 31257
0.17150000 0.17149500 8508.21798179 0 142.49196256 0 2177.63841138 0 -297.81564234 0 323.03839828 0 32608
0.17250000 0.17250900 8406.00935139 0 286.80421531 0 2305.92236673 0 -355.27657922 0 -12.35139978 0 32361
0.17350000 0.17350400 8215.11139919 0 213.91731550 0 2622.82337537 0 -107.61037479 0 302.82919102 0 32508
0.17450000 0.17449800 8115.12830608 0 147.77899766 0 2770.74963494 0 -161.93164324 0 -264.88433387 0 32791
0.17550000 0.17549800 8072.87631457 0 77.06216278 0 2681.66170945 0 87.92754585 0 9.55978989 0 33633
0.17650000 0.17650100 7940.60632229 0 184.08404350 0 2853.23845484 0 165.77152549 0 -158.08733206 0 33984
0.17750000 0.17750300 7878.60130331 0 39.77001918 0 2564.51651287 0 304.52436395 0 176.32345104 0 34069
0.17850000 0.17849800 7980.82100603 0 -59.36759121 0 2743.92139191 0 260.72889036 0 224.10939049 0 34536
