### header ###
fiducial parameters:
Omega_m = 0.31
Omega_nu = 0
Omega_de = 0.69
Omega_k = 0
H_0 = 100
w_de = -1
zeff = 0
beta = 0
fgrowth = 0
b_1 = 2
gamma = 0.55
Lx = 3500 Ly = 3500 Lz = 3500
nx = 700 ny = 700 nz = 700
xoffset = -685.467585 yoffset = -31.7331281 zoffset = 572.489161
bins = 400 dk = 0.001
kx_ny = 0.628318531 ky_ny = 0.628318531 kz_ny = 0.628318531
############################
A(data) = 8.04414801 (not used)
A(ran) = 8.03529817 (used)
Ngal = 477703
weighted Ngal = 0
Nran = 23820508
weighted Nran = 0
SN(data) = 3496.44382
SN(ran) = 69.9903612
SN(data+ran) = 3566.43418
############################
13 columns: k_central k_mean P_0(k) sigma^{lin}_{P_0(k)} P^img_1(k) sigma^{lin}_{P_1(k)} P_2(k) sigma^{lin}_{P_2(k)} P^img_3(k) sigma^{lin}_{P_3(k)} P_4(k) sigma^{lin}_{P_4(k)} N_modes
### header ###
0.00050000 0 0 0 0 0 0 0 0 0 0 0 0
0.00150000 0.00179520 5004.64652873 0 -4783.33290025 0 3496.08656149 0 -10437.71452167 0 16700.38752396 0 3
0.00250000 0.00253879 21177.37134114 0 -19276.69606277 0 -797.17416997 0 -29280.65225966 0 -26653.74319644 0 6
0.00350000 0.00331552 20696.83244401 0 -4495.95070959 0 -8573.92115727 0 11979.92328403 0 379.89921516 0 7
0.00450000 0.00420575 33898.47604853 0 -746.72533640 0 5687.45465565 0 -33520.79904896 0 -6918.88540500 0 24
0.00550000 0.00557378 35736.81413817 0 -525.87674556 0 8871.57846537 0 -23882.56174083 0 5176.53329921 0 45
0.00650000 0.00659388 36117.48066543 0 435.54207630 0 36186.57197230 0 2219.02676155 0 12167.37774321 0 40
0.00750000 0.00754703 48368.45446102 0 -8947.47925200 0 17309.47611224 0 -796.28727675 0 -13454.20333363 0 57
0.00850000 0.00846663 55839.17346266 0 -14157.73885261 0 15254.34190265 0 19568.00892875 0 -7513.14815034 0 75
0.00950000 0.00948925 64657.17294823 0 -5551.51972385 0 7402.33632356 0 -501.21867819 0 -21870.60959803 0 112
0.01050000 0.01054430 68320.23016798 0 -6601.38649083 0 3392.61568606 0 -7288.31352257 0 -23422.83881436 0 105
0.01150000 0.01145670 79176.31248292 0 21.07927054 0 4632.50569157 0 -13951.79361098 0 -31269.02035059 0 144
0.01250000 0.01249090 69987.61156242 0 7314.27812427 0 15310.36786623 0 -25625.56711378 0 -20201.56735487 0 169
0.01350000 0.01339930 70794.11970221 0 10994.81854492 0 22348.60186045 0 -13901.63597956 0 -30634.24396874 0 180
0.01450000 0.01448870 65955.40303322 0 1618.98426266 0 32357.09771052 0 -6425.96764872 0 -34023.26114923 0 267
0.01550000 0.01550050 59335.81364039 0 -1317.80595527 0 32704.76870983 0 -2789.56151481 0 -30491.63242508 0 238
0.01650000 0.01653350 67975.77014287 0 -2224.72900884 0 40171.61239778 0 -2637.60492900 0 -35333.22789853 0 315
0.01750000 0.01747870 68119.26747252 0 1690.23467287 0 46392.81954363 0 -43.32036013 0 -23558.47479339 0 297
0.01850000 0.01844180 67717.78497460 0 2765.76708877 0 44281.10575422 0 4270.36316373 0 -12938.78661333 0 388
0.01950000 0.01947590 70296.86159461 0 -4447.98539847 0 33273.33258927 0 7189.02798593 0 -11239.18475366 0 399
0.02050000 0.02045430 69092.85699383 0 3435.44343846 0 31892.17079139 0 14631.30218510 0 -14965.02205514 0 462
0.02150000 0.02154770 66661.26374040 0 3522.27260968 0 22259.80181541 0 17939.38067117 0 -730.59517360 0 571
0.02250000 0.02255340 62498.73394808 0 -1456.84113801 0 16033.05850714 0 14872.78958940 0 6611.91627173 0 510
0.02350000 0.02348930 61222.53778949 0 479.98860259 0 11352.45463656 0 16352.82724791 0 11689.05331104 0 555
0.02450000 0.02439640 60874.31317394 0 951.90990931 0 5052.20216382 0 6188.01231605 0 8707.64162410 0 592
0.02550000 0.02547300 60584.77187993 0 1227.97618401 0 4886.95878823 0 -3034.06059146 0 10205.02961560 0 837
0.02650000 0.02652900 62329.21665511 0 2618.27264987 0 15763.77956755 0 -14104.48097023 0 7719.58057426 0 723
0.02750000 0.02749970 55074.85088043 0 6564.01739456 0 24528.74261724 0 -13226.11344237 0 13479.89112721 0 826
0.02850000 0.02848090 56522.22518072 0 4341.38105512 0 28010.98877271 0 -7842.09584838 0 7254.29934073 0 831
0.02950000 0.02946900 53880.58992549 0 -3801.91524530 0 33279.09019817 0 6379.67425866 0 7817.49314263 0 996
0.03050000 0.03053250 56832.91461513 0 1087.95002819 0 32460.29177783 0 7927.51883436 0 -2139.31709519 0 1041
0.03150000 0.03150510 56354.59018297 0 1600.83672228 0 28824.58320038 0 5790.88124178 0 2153.01356099 0 1036
0.03250000 0.03246190 54254.83450436 0 714.44397339 0 27027.32343582 0 5036.62340281 0 2725.02093344 0 1059
0.03350000 0.03345080 56138.23695601 0 -1798.71023911 0 24777.09486293 0 3879.91977365 0 6877.08737881 0 1302
0.03450000 0.03451200 54251.29136042 0 472.90010024 0 24191.81177301 0 7258.10822047 0 722.58545383 0 1339
0.03550000 0.03553350 54822.40187456 0 2466.49322125 0 27375.21588162 0 6279.11540465 0 3729.11470962 0 1365
0.03650000 0.03647120 53501.47352370 0 1686.16005733 0 21233.50802797 0 3719.45964238 0 6732.93678200 0 1308
0.03750000 0.03744890 49598.47902513 0 2724.53375115 0 18494.98993057 0 7912.22795378 0 13164.66203963 0 1579
0.03850000 0.03847530 52184.97410276 0 -1181.76030022 0 16559.43682902 0 6725.78406016 0 13188.79970773 0 1662
0.03950000 0.03950240 49006.22037058 0 79.37550361 0 12663.86078808 0 4865.40097181 0 5704.60568679 0 1683
0.04050000 0.04050350 49509.23608709 0 1563.19081790 0 11086.38667117 0 -1242.94596717 0 6330.07024347 0 1822
0.04150000 0.04152450 47835.87563725 0 2961.44828529 0 12350.51399571 0 -4922.95491622 0 -1637.61898533 0 1887
0.04250000 0.04250150 44632.31989747 0 2280.78818939 0 12758.63988853 0 -5653.31867823 0 2478.98280365 0 1920
0.04350000 0.04349210 44021.90263021 0 2143.43600002 0 15131.32837391 0 -2065.45361632 0 -3837.49062495 0 2005
0.04450000 0.04448520 41970.09011807 0 1121.63757645 0 17281.68457694 0 -2394.52310993 0 -336.92530807 0 2151
0.04550000 0.04548030 41998.10309986 0 1605.96320867 0 18361.56841651 0 3441.00174551 0 -2435.06996342 0 2274
0.04650000 0.04648670 40225.53461965 0 363.51549612 0 17861.76367419 0 2689.89951912 0 2483.34529963 0 2311
0.04750000 0.04749250 39824.05212172 0 1215.69697579 0 15211.60272885 0 3067.31078289 0 -768.40494839 0 2568
0.04850000 0.04851840 40987.64273691 0 -871.72966913 0 14063.73481490 0 4927.74923286 0 1256.08881673 0 2493
0.04950000 0.04949480 39576.80710852 0 -336.75922320 0 12629.42585789 0 754.35306096 0 1701.24056374 0 2644
0.05050000 0.05050630 41258.47180198 0 855.45667335 0 12246.87703541 0 -1654.31605115 0 -2899.83079768 0 2829
0.05150000 0.05149060 39878.97085282 0 1083.97506358 0 15976.36820407 0 -1619.53787890 0 227.10999052 0 2784
0.05250000 0.05249300 38608.53230313 0 2399.71603027 0 15133.21066913 0 -4122.33725323 0 -3331.33036819 0 3055
0.05350000 0.05348950 37693.51538012 0 1349.26243008 0 17294.97136673 0 -682.58446595 0 -993.75997543 0 3009
0.05450000 0.05448610 36485.63546565 0 373.00780019 0 17168.74686379 0 541.73120747 0 745.58710141 0 3336
0.05550000 0.05550870 38300.61094992 0 -303.53671258 0 19874.71232622 0 2422.52501940 0 1375.08309155 0 3349
0.05650000 0.05647670 38079.93951629 0 272.15995851 0 19999.94031992 0 3069.74669435 0 2326.93763924 0 3324
0.05750000 0.05747970 36280.02239377 0 2056.56253949 0 20460.21686263 0 1781.65885889 0 5108.33885066 0 3639
0.05850000 0.05849280 35327.35956637 0 226.18434416 0 18702.70674417 0 3339.33565903 0 9242.98852908 0 3846
0.05950000 0.05951020 35414.05586970 0 -766.10190483 0 17195.87405960 0 3274.51826954 0 4342.34434738 0 3787
0.06050000 0.06049470 35891.93740888 0 -452.56245401 0 17333.17088735 0 4267.52864858 0 6948.14955950 0 3930
0.06150000 0.06148310 34722.81063127 0 1362.29455639 0 14729.84587599 0 2570.49556827 0 3958.11253152 0 4083
0.06250000 0.06249100 34812.71790880 0 1347.32477323 0 14267.68703806 0 -448.79675634 0 4589.66686685 0 4303
0.06350000 0.06350600 33017.45116271 0 782.46015752 0 13769.98603746 0 -17.11305307 0 6682.12588340 0 4470
0.06450000 0.06451750 32410.46631615 0 971.48577959 0 13854.13570608 0 1879.78180144 0 5581.34856691 0 4479
0.06550000 0.06550280 32531.37610317 0 117.92690271 0 12421.04470481 0 1185.02663604 0 5106.78872518 0 4636
0.06650000 0.06648880 32032.67859334 0 1114.61772252 0 13535.47419780 0 1187.93865747 0 4191.19604128 0 4653
0.06750000 0.06749660 30885.58574212 0 888.84194714 0 12696.41342305 0 1229.07234417 0 6243.58431431 0 5220
0.06850000 0.06852730 30559.61649946 0 -71.78398554 0 12958.38462825 0 840.77255617 0 4565.09737808 0 5029
0.06950000 0.06949320 30510.23393077 0 132.40950358 0 10540.85322735 0 1945.67320643 0 3372.29797002 0 5040
0.07050000 0.07048030 30698.24200619 0 -598.54109165 0 11291.33540356 0 -1143.59399657 0 66.55153700 0 5475
0.07150000 0.07148790 30338.05927984 0 602.29571700 0 11118.71785964 0 -1667.84643208 0 236.84367127 0 5509
0.07250000 0.07249820 29529.77956808 0 1614.00171649 0 11084.06148295 0 -1729.29783483 0 -1257.06318131 0 5916
0.07350000 0.07351270 28585.19953780 0 1162.09585134 0 11908.94968194 0 -1373.00149449 0 -2065.07715728 0 5721
0.07450000 0.07449140 28209.62627995 0 646.59941029 0 11888.90877402 0 1134.85793229 0 -1963.58822799 0 6028
0.07550000 0.07549160 27227.17889880 0 107.63860922 0 11079.41110653 0 2044.99196006 0 -1819.54835442 0 6183
0.07650000 0.07648840 27558.79502711 0 -90.33012961 0 10789.13903908 0 1338.65514290 0 -1336.92786023 0 6330
0.07750000 0.07749960 26862.56724252 0 162.59044657 0 9639.26703434 0 2281.35287796 0 -1955.43899692 0 6583
0.07850000 0.07848650 27197.28362179 0 803.27280648 0 10335.80484403 0 -803.77216833 0 -1707.71787375 0 6549
0.07950000 0.07947320 26114.74242427 0 1128.87887689 0 8779.51208450 0 -1029.58669684 0 -2279.27128089 0 6828
0.08050000 0.08048110 25255.75146484 0 608.09429351 0 9834.42783160 0 454.83006613 0 -1844.48322991 0 7147
0.08150000 0.08149960 24886.71087863 0 -307.27362220 0 8423.88008365 0 1410.52560330 0 -2548.95989650 0 7386
0.08250000 0.08250610 24972.63211922 0 -263.17033799 0 8093.60370663 0 2071.38838242 0 -3184.40061784 0 7227
0.08350000 0.08350160 25104.06061482 0 721.65870024 0 6992.20633995 0 1279.97182136 0 -2833.35255947 0 7798
0.08450000 0.08449610 23919.21113598 0 945.80130771 0 7335.69200047 0 284.01952562 0 -1724.04955286 0 7371
0.08550000 0.08548940 23449.08022418 0 1063.69499345 0 7208.07238461 0 -229.46618124 0 773.69309073 0 8256
0.08650000 0.08650700 22436.84828926 0 862.71568950 0 7634.51190268 0 441.48680749 0 252.25524018 0 8037
0.08750000 0.08749060 22694.72273428 0 -29.51903941 0 8162.66179653 0 -263.46596906 0 673.05340875 0 8155
0.08850000 0.08849210 22521.10868113 0 152.44819703 0 8806.20745964 0 -500.75696225 0 351.73786421 0 8718
0.08950000 0.08949900 22170.44815412 0 332.34911622 0 8056.95431149 0 418.75311018 0 733.15398787 0 8571
0.09050000 0.09049190 21628.34713100 0 366.83387187 0 7983.06868797 0 818.94236056 0 531.33983063 0 8932
0.09150000 0.09150830 21691.90227546 0 64.64698641 0 6807.42031105 0 1819.12760608 0 -20.99733534 0 9285
0.09250000 0.09250820 20885.83702866 0 253.72785938 0 6213.91048380 0 2237.15215728 0 798.75308349 0 9204
0.09350000 0.09350330 20798.69783234 0 612.29402631 0 5419.19436994 0 1462.76483179 0 -393.61118221 0 9349
0.09450000 0.09448040 19802.29932191 0 715.46152004 0 5580.08632188 0 -231.98956407 0 123.93253170 0 9564
0.09550000 0.09549270 19315.67064613 0 848.10022074 0 5643.71897261 0 -546.71486087 0 82.19130653 0 10155
0.09650000 0.09649430 18657.97455190 0 467.58649156 0 6241.46950027 0 -919.91531951 0 1076.02734883 0 9913
0.09750000 0.09749140 18284.28358927 0 596.99871680 0 6202.82708665 0 -480.97846842 0 219.96169761 0 10476
0.09850000 0.09850240 17863.53524616 0 598.67395955 0 6303.26414508 0 -51.08516008 0 454.63962215 0 10575
0.09950000 0.09950330 17391.07914615 0 752.84611756 0 5848.33553526 0 520.38155076 0 -358.12548840 0 10882
0.10050000 0.10051200 17064.99918024 0 -35.84465858 0 4856.23308686 0 556.76742458 0 -300.73984333 0 10875
0.10150000 0.10150300 16757.74216652 0 -189.41758237 0 4383.48910640 0 1453.89589961 0 -1090.25860792 0 11118
0.10250000 0.10250800 16907.99361431 0 -200.94940867 0 3685.23508636 0 457.08439147 0 -2079.17222677 0 11575
0.10350000 0.10349800 16982.51036034 0 157.92456889 0 3600.46536755 0 -16.24708655 0 -2459.08583595 0 11364
0.10450000 0.10450100 16627.08873366 0 667.62464789 0 3922.02782494 0 -1246.85449783 0 -2343.57934344 0 12093
0.10550000 0.10551000 16392.35544751 0 499.78149043 0 4343.51801381 0 -774.04076172 0 -1165.97116503 0 12067
0.10650000 0.10649700 16208.55485552 0 282.86800384 0 5108.61565878 0 -407.20578262 0 -554.30383230 0 12054
0.10750000 0.10749900 16148.98574800 0 67.05078813 0 5655.09025020 0 537.25466655 0 -151.07633599 0 12807
0.10850000 0.10850100 16278.86411812 0 32.13631555 0 5681.07699655 0 875.65259382 0 441.98727658 0 12736
0.10950000 0.10950300 16068.15777682 0 190.11181714 0 5749.68112113 0 838.44515350 0 1612.70625449 0 12933
0.11050000 0.11050200 15838.73920658 0 196.23259830 0 5487.59919267 0 1113.73193653 0 961.08665212 0 13428
0.11150000 0.11150900 15517.86323333 0 431.60143590 0 5840.38560604 0 111.96113410 0 1111.72784574 0 13453
0.11250000 0.11250000 15203.18776199 0 668.02435882 0 5426.70140617 0 158.80038978 0 1879.60464424 0 13668
0.11350000 0.11349100 14755.53366957 0 347.54145311 0 5502.83471162 0 4.61146827 0 1614.78785155 0 13791
0.11450000 0.11448600 14266.57980558 0 59.96704688 0 4960.05827668 0 637.54889199 0 1992.01088580 0 14205
0.11550000 0.11549300 14495.22331308 0 -11.71507327 0 4935.34484769 0 704.06477610 0 1844.30607272 0 14776
0.11650000 0.11649800 14347.29705351 0 -1.43449719 0 4335.21377019 0 754.82474200 0 988.63681073 0 14553
0.11750000 0.11747300 14151.42762746 0 262.93449747 0 4190.54277411 0 320.03004763 0 880.31072087 0 14568
0.11850000 0.11849100 14108.46700717 0 236.42181569 0 4155.57637234 0 -589.02221400 0 898.55680494 0 16015
0.11950000 0.11950300 14040.37220953 0 43.13024831 0 4841.98300482 0 -419.00555918 0 1024.71930285 0 15270
0.12050000 0.12050700 13905.06840025 0 244.55554550 0 4705.23979331 0 -451.56815924 0 656.55785924 0 15999
0.12150000 0.12150000 14024.87095479 0 78.59468326 0 5240.16594995 0 -185.70392463 0 801.30525436 0 15670
0.12250000 0.12250700 13982.57467398 0 -160.85873497 0 5419.65940758 0 97.13108369 0 -116.60375990 0 16887
0.12350000 0.12352200 13927.87738938 0 257.71168185 0 5181.69300258 0 91.26496600 0 375.13922272 0 16407
0.12450000 0.12449800 14002.61558190 0 362.54666770 0 5482.60557418 0 85.97726656 0 -128.58844428 0 16306
0.12550000 0.12549900 13409.47114137 0 210.19147819 0 5142.95093804 0 55.79455199 0 244.12151037 0 17523
0.12650000 0.12650100 13196.10744211 0 332.96916641 0 4781.66097921 0 459.72956987 0 469.67251755 0 17154
0.12750000 0.12750600 13131.11289543 0 214.22844782 0 4552.88460380 0 548.71784443 0 298.27514382 0 18007
0.12850000 0.12850300 13032.45848129 0 -106.60456480 0 4487.65753830 0 525.49917929 0 91.81858224 0 17496
0.12950000 0.12949900 12931.36815570 0 -16.08687001 0 3987.06666092 0 218.99951259 0 365.41218536 0 18405
0.13050000 0.13049000 12951.51978687 0 151.91118928 0 3912.74921674 0 222.90804325 0 163.02891063 0 18100
0.13150000 0.13148800 12970.01056931 0 -18.75607535 0 3690.07369231 0 346.13305339 0 467.30525451 0 19059
0.13250000 0.13249300 12882.42848000 0 94.92126910 0 3710.82322902 0 249.36757787 0 495.17983224 0 18957
0.13350000 0.13349100 12664.74657406 0 286.08894313 0 3608.44851375 0 139.11711795 0 413.13390533 0 19468
0.13450000 0.13450700 12369.44767115 0 425.71649525 0 3507.14781398 0 -194.63707629 0 267.36342740 0 19953
0.13550000 0.13551000 12209.45257752 0 147.54758607 0 3553.62943357 0 165.06400393 0 250.67079050 0 19956
0.13650000 0.13649900 12151.65504197 0 138.18039927 0 3948.12529453 0 -542.73436010 0 -39.25681692 0 19723
0.13750000 0.13749600 12065.73380138 0 74.06632386 0 3909.80397834 0 88.14688860 0 81.80211431 0 20946
0.13850000 0.13851100 12062.85499692 0 56.95282789 0 4200.60751737 0 -72.88523897 0 -157.79834439 0 20955
0.13950000 0.13949800 11995.20309228 0 152.18799740 0 3849.26050623 0 332.71450294 0 68.84550126 0 20506
0.14050000 0.14048300 11909.72474468 0 95.17803631 0 3966.01817144 0 697.37487745 0 -38.19852412 0 21447
0.14150000 0.14148400 11842.73717953 0 135.11890146 0 3729.23650519 0 256.56458900 0 267.97572696 0 21771
0.14250000 0.14249400 11534.48365658 0 300.86606783 0 3873.22101714 0 341.80598885 0 386.36988178 0 22470
0.14350000 0.14350900 11256.12541064 0 251.93967892 0 3573.73677544 0 152.96638183 0 671.12903870 0 22519
0.14450000 0.14449900 11030.93646847 0 163.29353919 0 3605.33719047 0 207.58394570 0 606.49102087 0 22218
0.14550000 0.14550500 11023.54015550 0 109.39224402 0 3228.44632597 0 288.24472477 0 360.56361432 0 23559
0.14650000 0.14650700 10755.71169046 0 294.17174025 0 3319.01794299 0 -213.16771911 0 276.29768629 0 23044
0.14750000 0.14750500 10570.61563646 0 352.23279713 0 3341.19580960 0 -310.82673124 0 6.05883150 0 23649
0.14850000 0.14849900 10166.06610456 0 396.46009139 0 3619.49869392 0 -346.25817066 0 475.00605642 0 23640
0.14950000 0.14949500 10207.52088869 0 94.31627727 0 3629.77381135 0 -232.59079130 0 24.95369844 0 24457
0.15050000 0.15050000 10022.29196679 0 22.70967037 0 3609.72183110 0 158.92882875 0 -94.35093365 0 24591
0.15150000 0.15149900 9975.20136934 0 104.68506657 0 3730.17765280 0 293.48304164 0 -107.77834195 0 25020
0.15250000 0.15250500 9971.45892355 0 83.00445807 0 3494.34820649 0 256.69856413 0 -110.09035410 0 25297
0.15350000 0.15350100 9881.88381577 0 152.25886028 0 3580.40231498 0 245.77350123 0 -16.50628967 0 25452
0.15450000 0.15450400 9575.24685224 0 203.30006323 0 3104.81274705 0 433.55127230 0 119.94649476 0 26061
0.15550000 0.15549900 9661.14594819 0 100.10865328 0 3207.48641509 0 280.46198766 0 -98.30463939 0 26128
0.15650000 0.15649500 9509.70976164 0 2.82088512 0 2895.21363823 0 -112.39849093 0 -5.56772961 0 26331
0.15750000 0.15749700 9502.83384793 0 54.67403272 0 3243.16144566 0 -135.68801896 0 -97.29727928 0 27345
0.15850000 0.15849900 9497.64092759 0 163.93351957 0 3123.70213319 0 -50.87035698 0 238.01180153 0 26980
0.15950000 0.15949700 9411.75290397 0 -49.73234343 0 3009.87863405 0 125.90561998 0 120.73041536 0 27777
0.16050000 0.16050000 9462.71881511 0 98.96034247 0 2927.68876692 0 501.46116211 0 -64.40439177 0 28224
0.16150000 0.16150500 9415.50642208 0 40.03176894 0 2596.68161647 0 330.30405783 0 -108.01274307 0 28075
0.16250000 0.16249700 9174.69442960 0 156.81401471 0 2548.90453488 0 217.27112268 0 -302.88898158 0 28590
0.16350000 0.16349900 9171.38380448 0 100.74331893 0 2404.70964876 0 -75.75009229 0 -444.51065940 0 29163
0.16450000 0.16449100 8963.52305066 0 128.62719742 0 2515.48825857 0 65.60385672 0 -547.44341985 0 28996
0.16550000 0.16550500 8847.72867771 0 216.73300770 0 2501.55927395 0 -227.97916802 0 -689.49581111 0 30777
0.16650000 0.16650700 8674.94504891 0 261.43973362 0 2534.23370449 0 -57.97391769 0 -612.53872469 0 29211
0.16750000 0.16749900 8427.88826523 0 281.03996301 0 2612.99115093 0 -140.53548276 0 -605.77242699 0 30922
0.16850000 0.16850800 8202.67717842 0 271.71817275 0 2815.84721393 0 45.61388149 0 -155.72228348 0 30867
0.16950000 0.16949900 8164.85411684 0 90.78664156 0 2681.66170945 0 169.97236552 0 -313.69778506 0 30852
0.17050000 0.17049200 7975.24055432 0 -4.54917537 0 2732.52796967 0 296.15700809 0 -155.10998392 0 31257
0.17150000 0.17149500 8133.05439996 0 58.63216740 0 2566.04449370 0 273.60600413 0 -131.14947301 0 32608
0.17250000 0.17250900 8108.16381377 0 -98.46020556 0 2423.72083048 0 238.06937762 0 -33.44351422 0 32361
0.17350000 0.17350400 8072.01267324 0 70.53059837 0 2331.88696843 0 188.95033026 0 172.76702031 0 32508
0.17450000 0.17449800 8130.87315197 0 52.86924378 0 2097.10939298 0 206.07368059 0 265.35269321 0 32791
0.17550000 0.17549800 8006.99598190 0 34.80795681 0 2236.52103477 0 236.49600027 0 586.21205797 0 33633
0.17650000 0.17650100 8048.49505532 0 48.40355373 0 2069.11855583 0 229.07643541 0 378.06563817 0 33984
0.17750000 0.17750300 8002.14630363 0 -11.45254845 0 1990.25038615 0 244.19790941 0 560.71360114 0 34069
0.17850000 0.17849800 7939.41051121 0 92.60106343 0 1872.49621171 0 23.55836407 0 581.43324257 0 34536
