### header ###
fiducial parameters:
Omega_m = 0.31
Omega_nu = 0
Omega_de = 0.69
Omega_k = 0
H_0 = 100
w_de = -1
zeff = 0
beta = 0
fgrowth = 0
b_1 = 2
gamma = 0.55
Lx = 3500 Ly = 3500 Lz = 3500
nx = 700 ny = 700 nz = 700
xoffset = -685.467585 yoffset = -31.7331281 zoffset = 572.489161
bins = 400 dk = 0.001
kx_ny = 0.628318531 ky_ny = 0.628318531 kz_ny = 0.628318531
############################
A(data) = 7.9851927 (not used)
A(ran) = 7.98291565 (used)
Ngal = 474238
weighted Ngal = 0
Nran = 23820508
weighted Nran = 0
SN(data) = 3488.41425
SN(ran) = 69.5340904
SN(data+ran) = 3557.94834
############################
13 columns: k_central k_mean P_0(k) sigma^{lin}_{P_0(k)} P^img_1(k) sigma^{lin}_{P_1(k)} P_2(k) sigma^{lin}_{P_2(k)} P^img_3(k) sigma^{lin}_{P_3(k)} P_4(k) sigma^{lin}_{P_4(k)} N_modes
### header ###
0.00050000 0 0 0 0 0 0 0 0 0 0 0 0
0.00150000 0.00179520 10335.94878426 0 -6324.64480431 0 2912.05464428 0 -10710.51446055 0 -20264.45815984 0 3
0.00250000 0.00253879 19830.53375020 0 -4777.69708692 0 -974.20957149 0 4265.85672753 0 39054.41482358 0 6
0.00350000 0.00331552 22344.50510027 0 -8825.18542438 0 646.98472720 0 -843.11435287 0 19169.40523527 0 7
0.00450000 0.00420575 28183.38487013 0 -18293.03072588 0 -9926.02917482 0 -2634.70397990 0 -8647.99501030 0 24
0.00550000 0.00557378 51663.91049680 0 -17012.51636060 0 -5648.64615716 0 -9430.32119269 0 -27287.96596205 0 45
0.00650000 0.00659388 52176.44841265 0 -1152.81724314 0 6348.69389381 0 -30404.05033576 0 7569.07446300 0 40
0.00750000 0.00754703 56822.17446006 0 12703.49971093 0 9964.56086519 0 -36193.32609044 0 -4957.30126780 0 57
0.00850000 0.00846663 50575.50096712 0 5290.48966625 0 16905.33625636 0 -21033.76328824 0 24299.98838649 0 75
0.00950000 0.00948925 61400.13787958 0 -3831.42299095 0 29630.20555419 0 1504.95038935 0 -7069.95620483 0 112
0.01050000 0.01054430 56563.19278255 0 -5978.95575115 0 36658.47445607 0 15970.38914867 0 -3811.10527490 0 105
0.01150000 0.01145670 75438.51707064 0 -4152.27681954 0 42278.67581077 0 8552.20832830 0 -8151.01371082 0 144
0.01250000 0.01249090 71815.09877374 0 -4039.89272263 0 38880.57932392 0 13702.66630256 0 5356.93468748 0 169
0.01350000 0.01339930 73791.06586088 0 5749.36002371 0 41162.14257605 0 2868.15287637 0 13633.68571894 0 180
0.01450000 0.01448870 73667.72016240 0 3926.86643088 0 50180.99403384 0 23149.46311458 0 8166.07207257 0 267
0.01550000 0.01550050 80799.62602458 0 -7754.08193840 0 41910.85318029 0 8881.77607653 0 30045.86062788 0 238
0.01650000 0.01653350 80807.26592871 0 -9598.53195134 0 40254.43338742 0 28424.31865819 0 4395.77938695 0 315
0.01750000 0.01747870 90346.40592972 0 -1413.63692657 0 36066.32652477 0 1458.36911884 0 23264.50456945 0 297
0.01850000 0.01844180 91139.07366348 0 -3741.18354367 0 39779.98426894 0 2211.89618437 0 20371.63826408 0 388
0.01950000 0.01947590 98425.10628714 0 1232.22795674 0 23886.10488477 0 2375.58943449 0 11246.71393454 0 399
0.02050000 0.02045430 93777.71939101 0 5594.64642902 0 25444.20243325 0 -4187.03284715 0 3872.15807395 0 462
0.02150000 0.02154770 92391.02143073 0 8477.10474905 0 27243.12304653 0 -6112.55442241 0 -5156.19343852 0 571
0.02250000 0.02255340 80501.00542422 0 8134.31664499 0 26908.84956026 0 236.56797038 0 -4107.31210845 0 510
0.02350000 0.02348930 74663.01144034 0 6468.34143580 0 21799.08237970 0 11786.93266244 0 565.90098532 0 555
0.02450000 0.02439640 70353.99479067 0 1114.65093949 0 6990.65621447 0 21349.87816181 0 -2746.99949821 0 592
0.02550000 0.02547300 70053.82406484 0 -2037.27454966 0 4621.79875347 0 18043.23907797 0 -1814.96441195 0 837
0.02650000 0.02652900 69949.63348829 0 -2437.27335605 0 -3254.43307232 0 7973.90080302 0 -1412.08680110 0 723
0.02750000 0.02749970 67052.00608325 0 4753.96909483 0 1876.43795934 0 -551.41174106 0 6618.20535223 0 826
0.02850000 0.02848090 66499.38635156 0 5543.69159020 0 4634.96374768 0 -6649.08606614 0 8140.48392992 0 831
0.02950000 0.02946900 61900.16406839 0 3088.28176609 0 13423.20082414 0 -8394.00695129 0 10455.98385762 0 996
0.03050000 0.03053250 61687.13253888 0 206.26855351 0 16006.26348108 0 -8870.60410078 0 3235.31116736 0 1041
0.03150000 0.03150510 60606.25219008 0 1298.19686801 0 24453.22936198 0 -3696.35170048 0 348.86902485 0 1036
0.03250000 0.03246190 64165.45100303 0 1450.83993796 0 27202.15544471 0 -8811.68826042 0 -7873.80698666 0 1059
0.03350000 0.03345080 58001.93066949 0 5011.28992362 0 28589.40702123 0 -4534.85885900 0 -2119.99588838 0 1302
0.03450000 0.03451200 56412.27699527 0 4252.14918940 0 24750.29983686 0 2091.30749477 0 -9262.63083331 0 1339
0.03550000 0.03553350 53506.89896286 0 -207.55958659 0 22878.96621927 0 5844.91418689 0 -10093.96312535 0 1365
0.03650000 0.03647120 55126.44791408 0 890.63123483 0 20157.16733235 0 4150.80420034 0 -12910.77363153 0 1308
0.03750000 0.03744890 51487.08546944 0 1101.91776595 0 15784.26336847 0 8499.99124445 0 -15105.41913384 0 1579
0.03850000 0.03847530 51386.99165308 0 407.68189259 0 11181.38721811 0 2315.80995279 0 -9057.07312305 0 1662
0.03950000 0.03950240 49490.30241165 0 1057.18335922 0 10700.30577706 0 2962.20120338 0 -7091.61367217 0 1683
0.04050000 0.04050350 47541.79469006 0 2624.97140638 0 12233.25807588 0 206.31837897 0 -2831.24881775 0 1822
0.04150000 0.04152450 46243.01098884 0 3261.91796390 0 10906.61640541 0 328.01872998 0 -6457.88916118 0 1887
0.04250000 0.04250150 42791.54589637 0 3185.43034405 0 16164.04410975 0 -849.37796702 0 2473.88953423 0 1920
0.04350000 0.04349210 41838.77234572 0 3418.76851728 0 15535.46822979 0 1847.06308160 0 3383.32600553 0 2005
0.04450000 0.04448520 40554.82555975 0 -61.46147856 0 18532.08221871 0 1132.48845478 0 5645.12515786 0 2151
0.04550000 0.04548030 40203.16852351 0 -433.19474344 0 19109.72540450 0 1099.61804409 0 5940.13618033 0 2274
0.04650000 0.04648670 40658.79468980 0 11.87174667 0 20390.79338602 0 1930.89165280 0 6239.23289066 0 2311
0.04750000 0.04749250 39400.31425091 0 -369.62963389 0 16357.47762433 0 5168.15154933 0 7371.69920078 0 2568
0.04850000 0.04851840 42039.95648768 0 -1828.26227405 0 15658.14958879 0 4561.27742602 0 2772.62085784 0 2493
0.04950000 0.04949480 42745.26357863 0 -531.12059860 0 15936.72928122 0 2536.79141152 0 1766.87730526 0 2644
0.05050000 0.05050630 42140.60392028 0 1516.85313853 0 14311.42272109 0 -1497.89731844 0 438.60911027 0 2829
0.05150000 0.05149060 41083.86123959 0 1932.46392292 0 12819.20550528 0 -3300.84825796 0 5706.00079972 0 2784
0.05250000 0.05249300 40490.93824555 0 -181.49422673 0 14160.17476407 0 2887.21941971 0 4096.14013271 0 3055
0.05350000 0.05348950 39332.88379277 0 865.20142642 0 16681.67529502 0 3419.24462725 0 2651.10209295 0 3009
0.05450000 0.05448610 38836.73291764 0 2627.51804109 0 13223.45608441 0 1559.28228724 0 -1435.02865812 0 3336
0.05550000 0.05550870 36283.23336797 0 1425.87184550 0 12195.72289475 0 2276.19317459 0 5195.53340860 0 3349
0.05650000 0.05647670 35490.23346446 0 49.11794013 0 11592.61336187 0 -1106.55928452 0 3273.33353079 0 3324
0.05750000 0.05747970 36111.94450302 0 -224.87227367 0 10741.17372797 0 2642.63176447 0 2146.55839562 0 3639
0.05850000 0.05849280 35725.18819711 0 337.39698911 0 9756.75547299 0 591.84454960 0 2644.64692758 0 3846
0.05950000 0.05951020 33900.57979024 0 1628.03035203 0 8838.06253814 0 973.87186559 0 820.35629644 0 3787
0.06050000 0.06049470 33631.74374365 0 501.12567066 0 10570.30561137 0 396.81108408 0 3030.40672426 0 3930
0.06150000 0.06148310 33396.34611800 0 869.59713937 0 11835.09727540 0 -1044.47011586 0 1715.21383766 0 4083
0.06250000 0.06249100 32794.12237111 0 718.52966125 0 13477.56593900 0 -957.27002175 0 4934.50335100 0 4303
0.06350000 0.06350600 33363.79348303 0 -307.59693409 0 14086.76525052 0 -968.43756857 0 3546.03381874 0 4470
0.06450000 0.06451750 33662.85697639 0 -435.53654014 0 15792.34616559 0 -890.28245660 0 5302.21525823 0 4479
0.06550000 0.06550280 34368.49623708 0 827.84340248 0 16280.19279710 0 728.47814510 0 3797.51953235 0 4636
0.06650000 0.06648880 32423.42093619 0 1722.49942739 0 13993.53627555 0 1232.34975232 0 4210.00792114 0 4653
0.06750000 0.06749660 31115.66865186 0 983.63876331 0 12567.08866916 0 3889.79628739 0 4723.49805693 0 5220
0.06850000 0.06852730 30800.32884102 0 -879.84789769 0 10565.37842682 0 4517.99570830 0 2330.45863853 0 5029
0.06950000 0.06949320 31168.48364124 0 -331.92836788 0 9356.77881125 0 3018.44861346 0 1737.18133010 0 5040
0.07050000 0.07048030 30651.07390247 0 446.74062562 0 7206.44475287 0 1295.96025840 0 767.17924203 0 5475
0.07150000 0.07148790 30215.26719760 0 1156.42682103 0 7131.09758247 0 -2637.85959247 0 1989.27602157 0 5509
0.07250000 0.07249820 29966.80422867 0 882.14097616 0 8145.10108937 0 -1402.36529991 0 3119.77145788 0 5916
0.07350000 0.07351270 29518.92868976 0 678.06142127 0 8520.08751400 0 -453.14596553 0 3105.02312122 0 5721
0.07450000 0.07449140 28691.05096307 0 756.25196467 0 9526.79435884 0 1520.37413782 0 2508.29124744 0 6028
0.07550000 0.07549160 28254.24774897 0 653.04128887 0 9631.48319000 0 1267.68154081 0 750.93060536 0 6183
0.07650000 0.07648840 27378.20540932 0 727.80826944 0 10148.17322766 0 1190.57387077 0 1065.34366261 0 6330
0.07750000 0.07749960 26783.17867357 0 802.99710559 0 8474.22594460 0 139.97743759 0 2338.18712125 0 6583
0.07850000 0.07848650 26407.16252273 0 557.93887654 0 9851.56779042 0 660.46306820 0 2724.68876370 0 6549
0.07950000 0.07947320 25948.54682874 0 445.49166738 0 8479.58494981 0 2.02017888 0 4067.70640258 0 6828
0.08050000 0.08048110 25737.95121069 0 433.44276351 0 9312.37878872 0 1095.96971306 0 4262.15857104 0 7147
0.08150000 0.08149960 25027.32940383 0 293.90489722 0 8583.77552636 0 1144.57943348 0 4414.92343656 0 7386
0.08250000 0.08250610 24549.89075765 0 482.98366645 0 7861.00737917 0 1692.20554668 0 4192.22576749 0 7227
0.08350000 0.08350160 23972.80118810 0 106.80552750 0 7375.38628495 0 1295.24055729 0 4126.17934994 0 7798
0.08450000 0.08449610 23804.28040436 0 796.38360598 0 6870.95331086 0 98.08662532 0 2185.06794134 0 7371
0.08550000 0.08548940 22970.09145252 0 1027.40434162 0 6479.11480785 0 -297.21330787 0 2140.20288117 0 8256
0.08650000 0.08650700 21662.89278443 0 787.66747188 0 5843.72944814 0 -642.46278974 0 605.49340441 0 8037
0.08750000 0.08749060 21494.03983095 0 352.73769514 0 5679.79260687 0 -968.16076044 0 911.26561936 0 8155
0.08850000 0.08849210 21295.18087721 0 -288.96885481 0 6792.66090207 0 272.37365438 0 -1042.39848389 0 8718
0.08950000 0.08949900 21696.66337513 0 -223.66981920 0 5885.23959388 0 971.46474217 0 -1515.41373630 0 8571
0.09050000 0.09049190 21777.38062306 0 -42.97025322 0 5946.39204385 0 162.30588782 0 -1203.46205686 0 8932
0.09150000 0.09150830 21467.35552814 0 454.84667462 0 5883.41266029 0 -234.58048807 0 -373.95780566 0 9285
0.09250000 0.09250820 21620.04288739 0 511.81710751 0 6400.44594002 0 661.22152245 0 -778.62248973 0 9204
0.09350000 0.09350330 20646.45336608 0 382.21775997 0 6400.25771050 0 -117.82946626 0 -1077.30288065 0 9349
0.09450000 0.09448040 20222.93694177 0 766.56472801 0 6279.89046739 0 -127.65836900 0 -721.98976275 0 9564
0.09550000 0.09549270 20067.03860832 0 527.44790846 0 7528.80441764 0 469.81535054 0 56.62154393 0 10155
0.09650000 0.09649430 19196.08953809 0 824.78965530 0 7083.55301970 0 188.22730745 0 819.31771237 0 9913
0.09750000 0.09749140 18848.52926203 0 774.26552992 0 6956.48702008 0 333.13192959 0 1164.77535395 0 10476
0.09850000 0.09850240 17977.58019180 0 703.32846650 0 6865.47251008 0 527.60292100 0 1021.23041330 0 10575
0.09950000 0.09950330 17844.38012423 0 17.40868414 0 6644.38032810 0 811.97565379 0 1894.48584880 0 10882
0.10050000 0.10051200 17394.51156685 0 45.27672920 0 6732.48281668 0 378.74104998 0 1342.51938426 0 10875
0.10150000 0.10150300 17824.33921631 0 101.20459199 0 6132.73927055 0 384.89726258 0 963.00770047 0 11118
0.10250000 0.10250800 17095.22662700 0 418.47740929 0 6014.87437286 0 357.42793194 0 1293.53541926 0 11575
0.10350000 0.10349800 17227.65163183 0 369.59752414 0 5741.50974541 0 -33.68389439 0 1043.11597054 0 11364
0.10450000 0.10450100 16475.95149989 0 381.66082203 0 6386.09620705 0 -372.39660786 0 980.27831273 0 12093
0.10550000 0.10551000 16476.94800912 0 523.69439034 0 5844.89204224 0 -156.99670807 0 268.27357250 0 12067
0.10650000 0.10649700 16017.00363616 0 353.50168555 0 6368.25869177 0 -257.47916303 0 527.04487583 0 12054
0.10750000 0.10749900 16035.49441860 0 260.00143862 0 6601.22040595 0 -372.30360033 0 372.02125605 0 12807
0.10850000 0.10850100 15642.75905729 0 51.69945266 0 7351.71365449 0 -131.31887958 0 307.60247025 0 12736
0.10950000 0.10950300 15968.06396046 0 320.41204283 0 7037.99040307 0 -72.33439081 0 459.25788883 0 12933
0.11050000 0.11050200 15597.69469528 0 -7.61236725 0 7012.33582647 0 407.00426631 0 521.92946177 0 13428
0.11150000 0.11150900 15754.81098445 0 -178.32975630 0 6867.67590271 0 628.33782497 0 -46.03020091 0 13453
0.11250000 0.11250000 15569.90315998 0 75.69650224 0 6371.17071320 0 1014.76749730 0 -86.27477992 0 13668
0.11350000 0.11349100 15336.27710631 0 602.11080917 0 6046.85124693 0 842.84308092 0 -171.93216702 0 13791
0.11450000 0.11448600 14709.91569132 0 479.48591904 0 5129.33197851 0 440.18359486 0 504.76625106 0 14205
0.11550000 0.11549300 14442.85121669 0 405.49178674 0 5009.76194280 0 844.77852329 0 46.36325644 0 14776
0.11650000 0.11649800 14012.35922774 0 377.34925875 0 4671.48027494 0 274.88596488 0 442.99042920 0 14553
0.11750000 0.11747300 13728.35409614 0 150.93018130 0 4480.38302089 0 111.12517358 0 474.49894394 0 14568
0.11850000 0.11849100 13852.58558061 0 -82.00075182 0 4575.89289478 0 1.49633612 0 945.46913796 0 16015
0.11950000 0.11950300 13748.83789706 0 -143.15962374 0 4777.23204928 0 28.33507572 0 265.80112236 0 15270
0.12050000 0.12050700 14051.66598085 0 41.31925887 0 4610.52712681 0 -276.65642962 0 611.58982645 0 15999
0.12150000 0.12150000 14031.84651942 0 34.20207920 0 5057.77154321 0 122.74336401 0 604.37620683 0 15670
0.12250000 0.12250700 14062.73830567 0 155.01586916 0 4930.55053104 0 -40.58693530 0 482.35918733 0 16887
0.12350000 0.12352200 13825.45838480 0 71.33489205 0 4829.22768663 0 529.06557511 0 791.56714468 0 16407
0.12450000 0.12449800 13953.56518295 0 -51.15048679 0 4520.05516072 0 295.61003524 0 330.05160882 0 16306
0.12550000 0.12549900 13848.15665068 0 47.26709031 0 4145.78843720 0 613.41565281 0 -145.77379963 0 17523
0.12650000 0.12650100 14026.31035701 0 233.67255744 0 4045.88285036 0 126.86669777 0 120.20558716 0 17154
0.12750000 0.12750600 13472.91556258 0 257.44483882 0 3498.52247295 0 -243.86131074 0 -460.88994951 0 18007
0.12850000 0.12850300 13338.05464629 0 206.21983528 0 3815.33490298 0 504.58023601 0 265.34715705 0 17496
0.12950000 0.12949900 13045.52382458 0 143.75974375 0 3901.84297679 0 40.81402868 0 -884.22035876 0 18405
0.13050000 0.13049000 13091.58469582 0 -0.30192458 0 3594.56381842 0 286.81528764 0 -611.00742216 0 18100
0.13150000 0.13148800 13157.79719824 0 112.71515942 0 3438.68762963 0 114.39261663 0 -1247.90636869 0 19059
0.13250000 0.13249300 12862.27684883 0 203.14505068 0 3504.77833647 0 -266.15875846 0 -238.63185172 0 18957
0.13350000 0.13349100 12851.64741700 0 262.86917075 0 3461.55198038 0 150.67330336 0 -834.58977000 0 19468
0.13450000 0.13450700 12762.29375572 0 197.49262886 0 3475.40345873 0 203.02214787 0 -457.28147885 0 19953
0.13550000 0.13551000 12455.92252798 0 286.89722284 0 3130.05764763 0 211.00197237 0 -994.97018053 0 19956
0.13650000 0.13649900 12124.74929266 0 328.00987213 0 3474.98271038 0 139.15365662 0 -284.89423928 0 19723
0.13750000 0.13749600 11930.42999209 0 287.20946240 0 3056.95815918 0 187.09571586 0 -402.62626908 0 20946
0.13850000 0.13851100 11917.14320231 0 36.88268903 0 3360.24020829 0 125.91004891 0 -28.49806034 0 20955
0.13950000 0.13949800 11589.62383417 0 72.43215944 0 3371.81078772 0 292.85302636 0 257.49577152 0 20506
0.14050000 0.14048300 11769.65983572 0 223.27010827 0 3456.30369841 0 406.05536807 0 465.12289928 0 21447
0.14150000 0.14148400 11593.49914786 0 11.35035089 0 3420.39614903 0 231.45587801 0 767.85576108 0 21771
0.14250000 0.14249400 11548.32406260 0 154.00385867 0 3692.19957868 0 20.41360238 0 1285.99516606 0 22470
0.14350000 0.14350900 11446.45867427 0 202.53053665 0 3751.13756369 0 216.59238917 0 1241.34048007 0 22519
0.14450000 0.14449900 11393.09006864 0 92.85063363 0 3846.53671432 0 153.84663166 0 1390.08609168 0 22218
0.14550000 0.14550500 11055.64989747 0 278.00836048 0 3562.71981225 0 -128.89404045 0 718.16759622 0 23559
0.14650000 0.14650700 10905.58667920 0 307.79734317 0 3590.86566194 0 -200.15663021 0 911.91888653 0 23044
0.14750000 0.14750500 10776.42801019 0 132.26777782 0 3315.51908835 0 -139.46478895 0 439.64658711 0 23649
0.14850000 0.14849900 10619.16778079 0 148.86629995 0 3385.37438563 0 326.39331270 0 766.62119686 0 23640
0.14950000 0.14949500 10659.43782616 0 2.79772182 0 3014.83903557 0 425.32453496 0 167.63389052 0 24457
0.15050000 0.15050000 10412.04887274 0 195.36231357 0 2854.42319360 0 389.41034217 0 43.27717806 0 24591
0.15150000 0.15149900 10304.65839432 0 150.07650506 0 2848.32234262 0 271.78682116 0 23.98343062 0 25020
0.15250000 0.15250500 10047.89118178 0 231.06613218 0 2819.36821322 0 55.42562213 0 441.52888233 0 25297
0.15350000 0.15350100 9821.73894735 0 321.91677178 0 2805.87104927 0 7.51144301 0 322.15261230 0 25452
0.15450000 0.15450400 9748.99377330 0 113.94972364 0 2840.63814920 0 -41.40429432 0 513.10924782 0 26061
0.15550000 0.15549900 9595.61992991 0 82.86372882 0 2775.32250509 0 -58.21629088 0 475.31940321 0 26128
0.15650000 0.15649500 9609.09494921 0 135.44664227 0 2646.57351210 0 165.67298180 0 312.53186926 0 26331
0.15750000 0.15749700 9438.26004959 0 -28.76955375 0 2422.58038102 0 4.07375189 0 257.63196111 0 27345
0.15850000 0.15849900 9525.37710126 0 126.32526109 0 2730.68996375 0 146.87549595 0 -204.26446272 0 26980
0.15950000 0.15949700 9249.84229815 0 307.17729298 0 2528.33215536 0 -60.58720779 0 170.27242553 0 27777
0.16050000 0.16050000 9174.60585100 0 223.70746510 0 2567.71641474 0 -52.48558772 0 359.93359904 0 28224
0.16150000 0.16150500 8964.35347502 0 46.06541090 0 2739.18243688 0 290.46140420 0 665.01932986 0 28075
0.16250000 0.16249700 9097.64212119 0 -23.31543726 0 2652.27575938 0 331.64159467 0 365.90933275 0 28590
0.16350000 0.16349900 8964.19846248 0 125.23020816 0 2805.48351790 0 12.22251792 0 266.14657890 0 29163
0.16450000 0.16449100 8906.63344574 0 216.12956600 0 2824.49469961 0 -129.68792614 0 671.16779183 0 28996
0.16550000 0.16550500 8725.15804197 0 148.55738209 0 2812.44801021 0 -145.66639808 0 674.64450183 0 30777
0.16650000 0.16650700 8718.97968472 0 142.99021717 0 2894.66002199 0 -12.76849426 0 446.05524871 0 29211
0.16750000 0.16749900 8538.02468021 0 123.11096519 0 2742.37126643 0 176.61465318 0 404.95145729 0 30922
0.16850000 0.16850800 8493.60251303 0 120.18787144 0 2689.60056635 0 189.40097388 0 396.27739803 0 30867
0.16950000 0.16949900 8381.78310469 0 5.42521771 0 2478.11916231 0 220.92166818 0 5.77149360 0 30852
0.17050000 0.17049200 8243.85515442 0 97.16673657 0 2486.08016386 0 282.38414324 0 251.86881604 0 31257
0.17150000 0.17149500 8287.69048838 0 84.57650674 0 2279.55916134 0 164.04645728 0 88.13127663 0 32608
0.17250000 0.17250900 8200.29662859 0 24.23587963 0 2238.33689604 0 192.22441671 0 119.26001062 0 32361
0.17350000 0.17350400 8137.18437712 0 45.71596833 0 2067.78987686 0 172.54446658 0 564.89672546 0 32508
0.17450000 0.17449800 8133.85160735 0 -2.96793667 0 2113.16426396 0 112.09510923 0 260.91490542 0 32791
0.17550000 0.17549800 8197.63927063 0 69.67437549 0 2187.78066092 0 71.45713051 0 545.31421178 0 33633
0.17650000 0.17650100 7985.26100828 0 269.96542373 0 2096.27896862 0 -41.40639806 0 384.79318272 0 33984
0.17750000 0.17750300 7808.45812558 0 232.04381846 0 2113.18640861 0 16.90323251 0 930.41077621 0 34069
0.17850000 0.17849800 7828.06721283 0 -3.10774691 0 2151.24198901 0 105.30500604 0 898.15930848 0 34536
