### header ###
fiducial parameters:
Omega_m = 0.31
Omega_nu = 0
Omega_de = 0.69
Omega_k = 0
H_0 = 100
w_de = -1
zeff = 0
beta = 0
fgrowth = 0
b_1 = 2
gamma = 0.55
Lx = 3500 Ly = 3500 Lz = 3500
nx = 700 ny = 700 nz = 700
xoffset = -685.467585 yoffset = -31.7331281 zoffset = 572.489161
bins = 400 dk = 0.001
kx_ny = 0.628318531 ky_ny = 0.628318531 kz_ny = 0.628318531
############################
A(data) = 8.00548184 (not used)
A(ran) = 8.00838687 (used)
Ngal = 476951
weighted Ngal = 0
Nran = 23820508
weighted Nran = 0
SN(data) = 3483.1173
SN(ran) = 69.755954
SN(data+ran) = 3552.87325
############################
13 columns: k_central k_mean P_0(k) sigma^{lin}_{P_0(k)} P^img_1(k) sigma^{lin}_{P_1(k)} P_2(k) sigma^{lin}_{P_2(k)} P^img_3(k) sigma^{lin}_{P_3(k)} P_4(k) sigma^{lin}_{P_4(k)} N_modes
### header ###
0.00050000 0 0 0 0 0 0 0 0 0 0 0 0
0.00150000 0.00179520 28280.15698905 0 -29084.56138712 0 11356.21922700 0 -30777.07695890 0 -32304.83633738 0 3
0.00250000 0.00253879 41188.16253938 0 -18789.07087775 0 1235.63823279 0 -31792.96276101 0 -3821.46897093 0 6
0.00350000 0.00331552 37211.31563427 0 4947.83443008 0 -15500.59040662 0 1219.10725183 0 5903.57536378 0 7
0.00450000 0.00420575 31449.49924514 0 5592.04443268 0 -20147.53440975 0 -1757.08937012 0 16073.47249273 0 24
0.00550000 0.00557378 42536.21808605 0 -26984.47353877 0 -35285.94907155 0 848.72912879 0 -20379.83178445 0 45
0.00650000 0.00659388 66852.15062028 0 -33267.35353386 0 -34902.07157009 0 -23720.13073574 0 -2080.08015741 0 40
0.00750000 0.00754703 78437.45624777 0 -9400.94631495 0 -26531.06183745 0 -49730.57186021 0 1699.79008918 0 57
0.00850000 0.00846663 86776.35623844 0 11896.77012464 0 -21520.61341051 0 -37390.13368009 0 14518.25374871 0 75
0.00950000 0.00948925 72385.43422515 0 8210.28386557 0 -3405.21599170 0 -32180.60485291 0 6378.16842248 0 112
0.01050000 0.01054430 73772.02146219 0 7515.04151789 0 18821.18061973 0 -19195.31447535 0 6040.68396201 0 105
0.01150000 0.01145670 70890.33820489 0 -1967.24209518 0 33391.03140209 0 -13994.31133829 0 -25841.47744774 0 144
0.01250000 0.01249090 78264.61725735 0 -5984.71336005 0 36979.79332231 0 408.10374817 0 -25728.53973459 0 169
0.01350000 0.01339930 69676.92212801 0 2835.03555284 0 27805.92931707 0 -2097.54121364 0 -15093.68246953 0 180
0.01450000 0.01448870 79505.38197653 0 4500.18033767 0 32210.05723693 0 -8066.01147319 0 -30147.83673946 0 267
0.01550000 0.01550050 79133.57330912 0 -1420.00351334 0 33515.81650279 0 -5899.46753127 0 -25197.73248279 0 238
0.01650000 0.01653350 73239.11046867 0 3764.02574977 0 21673.52221626 0 -5265.97553910 0 -46824.41876506 0 315
0.01750000 0.01747870 65898.60200690 0 4528.44798293 0 11745.07927463 0 -9100.78666144 0 -47262.32921164 0 297
0.01850000 0.01844180 66716.84681099 0 2138.33165828 0 7131.58476477 0 4072.83288897 0 -42619.59269193 0 388
0.01950000 0.01947590 67184.43108809 0 -4824.49980393 0 5180.55255312 0 7335.28232446 0 -39677.23309463 0 399
0.02050000 0.02045430 70376.02871706 0 -6359.43404889 0 4946.11821974 0 4220.93630574 0 -42371.46189275 0 462
0.02150000 0.02154770 70059.80312024 0 4212.08951821 0 8950.07017601 0 321.27457694 0 -34499.59256293 0 571
0.02250000 0.02255340 66817.16207385 0 9741.29850755 0 14492.34450863 0 6065.97315190 0 -12195.16927851 0 510
0.02350000 0.02348930 63212.01311290 0 -768.96077910 0 16170.46605814 0 888.47545319 0 -9038.17266459 0 555
0.02450000 0.02439640 64163.01509157 0 -1924.00466676 0 15599.35554400 0 814.38499167 0 -8955.60633842 0 592
0.02550000 0.02547300 70710.08075684 0 -4744.60190804 0 22569.27329409 0 -5506.85396553 0 -14671.71617069 0 837
0.02650000 0.02652900 72835.74567552 0 2612.11643727 0 27398.79993348 0 -16342.41926258 0 -8097.41258637 0 723
0.02750000 0.02749970 69424.80529189 0 8239.93555144 0 28668.68486694 0 -13139.19569254 0 -10968.33354395 0 826
0.02850000 0.02848090 65990.94519588 0 7856.77775109 0 34401.60248829 0 -4933.05287645 0 -4821.01202161 0 831
0.02950000 0.02946900 59022.24540152 0 3590.48920289 0 32494.39453827 0 2908.73294683 0 -9190.53892642 0 996
0.03050000 0.03053250 59638.86317067 0 -558.53788931 0 30814.39069354 0 11923.45442746 0 -14284.51697178 0 1041
0.03150000 0.03150510 56103.80202583 0 -2286.10290531 0 25845.79565442 0 10312.04363497 0 -15845.16115497 0 1036
0.03250000 0.03246190 59710.83328200 0 1492.48295160 0 25701.30181554 0 1313.29951906 0 -13429.29060279 0 1059
0.03350000 0.03345080 57042.84589369 0 2038.50357771 0 25732.74721802 0 -3429.79655280 0 -8743.21700374 0 1302
0.03450000 0.03451200 53728.12401274 0 5262.16665936 0 24240.97289521 0 1679.23985432 0 -2924.55529900 0 1339
0.03550000 0.03553350 50765.16989127 0 1769.09177022 0 21662.11772170 0 1395.74404966 0 1640.96282742 0 1365
0.03650000 0.03647120 50918.18942026 0 -684.90743970 0 19567.01241951 0 12650.02038206 0 1892.16066058 0 1308
0.03750000 0.03744890 51415.55825111 0 -767.37854388 0 22805.99959871 0 8814.75529440 0 4828.85122758 0 1579
0.03850000 0.03847530 52680.68208489 0 1290.31337274 0 17847.81254492 0 5575.94527240 0 3220.82856650 0 1662
0.03950000 0.03950240 49657.05162342 0 1973.12149966 0 17853.68087707 0 711.96377263 0 5230.18978528 0 1683
0.04050000 0.04050350 48066.95505621 0 2951.42783133 0 17891.99112095 0 2157.25426139 0 10523.10429067 0 1822
0.04150000 0.04152450 44143.69820322 0 1642.21400013 0 16143.22813909 0 2838.54547981 0 8414.14751013 0 1887
0.04250000 0.04250150 45599.04457738 0 1102.09270868 0 15944.14773885 0 4967.57638524 0 6847.66821177 0 1920
0.04350000 0.04349210 42491.37517053 0 -529.79191962 0 11902.63845680 0 1992.32091089 0 4731.52549243 0 2005
0.04450000 0.04448520 41288.14563249 0 2504.13912563 0 10993.21305782 0 1642.82297799 0 3745.80070312 0 2151
0.04550000 0.04548030 39503.61904147 0 2146.53625097 0 11271.95883513 0 1589.83083141 0 1428.41848020 0 2274
0.04650000 0.04648670 38968.16141324 0 -13.23319973 0 11878.50078869 0 -2537.02393035 0 3396.24740860 0 2311
0.04750000 0.04749250 38358.85137847 0 1013.03246401 0 13841.29180929 0 -1588.33606756 0 1559.82483115 0 2568
0.04850000 0.04851840 38268.61193120 0 1191.91362208 0 14211.77179773 0 -2186.15302917 0 3176.09637423 0 2493
0.04950000 0.04949480 37461.55017517 0 1641.38357577 0 18441.17843195 0 -1887.62100741 0 5503.46583413 0 2644
0.05050000 0.05050630 37242.42886701 0 1589.00040705 0 20404.08017580 0 2481.69552323 0 7020.15288779 0 2829
0.05150000 0.05149060 36198.97297610 0 189.33786163 0 19957.86548561 0 4394.14068288 0 6967.31575376 0 2784
0.05250000 0.05249300 36237.17249672 0 -47.42918915 0 16923.27342256 0 5787.85849710 0 6762.41131066 0 3055
0.05350000 0.05348950 35818.63861858 0 -77.04599719 0 13190.57127970 0 4058.20634788 0 6886.58743350 0 3009
0.05450000 0.05448610 35434.53967062 0 -27.12697436 0 12773.91969678 0 2961.26005577 0 2936.20338471 0 3336
0.05550000 0.05550870 34172.73753428 0 1291.18808640 0 10807.28657946 0 710.85211122 0 4588.38247717 0 3349
0.05650000 0.05647670 34100.10308347 0 716.45138588 0 9472.61747350 0 434.94527799 0 3006.45728568 0 3324
0.05750000 0.05747970 32949.79925807 0 42.99273004 0 10847.96630085 0 -3068.53981094 0 3433.84902368 0 3639
0.05850000 0.05849280 33889.39674218 0 1011.13577476 0 11145.29143920 0 -883.84279249 0 147.05154592 0 3846
0.05950000 0.05951020 33200.80886170 0 -141.78333377 0 12794.18205119 0 -653.17415677 0 1453.40871732 0 3787
0.06050000 0.06049470 32808.29494688 0 214.89610901 0 12381.29505871 0 1782.11282421 0 2213.19164638 0 3930
0.06150000 0.06148310 33493.45040666 0 -315.90007047 0 9564.82779459 0 3292.61044830 0 -1338.22332223 0 4083
0.06250000 0.06249100 32759.68744093 0 -200.45004682 0 8949.16224537 0 2361.48329267 0 -1416.31642918 0 4303
0.06350000 0.06350600 32672.54824461 0 1517.27388687 0 7471.38334113 0 169.03232515 0 -3802.31384900 0 4470
0.06450000 0.06451750 31146.78188460 0 599.57192509 0 5861.66661434 0 -1041.36211429 0 -4295.33125620 0 4479
0.06550000 0.06550280 30924.22815574 0 325.66807543 0 6484.39630679 0 -1796.89437784 0 -4090.22751126 0 4636
0.06650000 0.06648880 30386.22389280 0 545.98962360 0 7083.74124923 0 -1146.15170360 0 -4894.60976468 0 4653
0.06750000 0.06749660 30582.53621184 0 538.53462730 0 8171.95147705 0 981.41986942 0 -2819.49000879 0 5220
0.06850000 0.06852730 29287.07420806 0 607.51631815 0 8852.16867996 0 1123.78560747 0 243.06521058 0 5029
0.06950000 0.06949320 30236.08316826 0 697.95617450 0 10585.54113032 0 738.07563625 0 2068.00025103 0 5040
0.07050000 0.07048030 29597.76364247 0 993.33258369 0 12679.58348932 0 890.38985815 0 4942.29826768 0 5475
0.07150000 0.07148790 28703.34124362 0 1120.37533142 0 13266.74887445 0 -869.50634631 0 7323.77817897 0 5509
0.07250000 0.07249820 28567.04092510 0 567.09015300 0 13304.39477884 0 687.40978511 0 8381.26270542 0 5916
0.07350000 0.07351270 28245.05771937 0 208.84619073 0 13416.33598275 0 -621.60252978 0 6531.96301421 0 5721
0.07450000 0.07449140 28348.47323318 0 149.09438985 0 14752.10124888 0 495.99696981 0 5622.31616874 0 6028
0.07550000 0.07549160 27625.45042252 0 237.64309312 0 11776.85684686 0 718.55512759 0 1581.51551547 0 6183
0.07650000 0.07648840 27366.57946826 0 327.36546282 0 11489.75146431 0 1018.66495564 0 1158.53056275 0 6330
0.07750000 0.07749960 27066.29801918 0 469.68691157 0 11073.09988138 0 754.49810842 0 -921.76771945 0 6583
0.07850000 0.07848650 25941.12837111 0 1014.42536247 0 10636.88350050 0 675.04642722 0 208.68121309 0 6549
0.07950000 0.07947320 25422.83284635 0 851.49831723 0 10027.34094691 0 748.57995080 0 176.59583023 0 6828
0.08050000 0.08048110 24457.54756866 0 601.06558171 0 10005.04128473 0 628.24038851 0 458.32781354 0 7147
0.08150000 0.08149960 24010.77926223 0 806.16379049 0 9489.95673416 0 1299.91307836 0 -397.85741878 0 7386
0.08250000 0.08250610 23047.04411001 0 924.89232952 0 8900.45508849 0 1333.62830743 0 1291.13272478 0 7227
0.08350000 0.08350160 22848.18515627 0 51.80364324 0 8035.11968694 0 1580.43042764 0 1795.16709517 0 7798
0.08450000 0.08449610 22154.50400638 0 -463.73000082 0 6692.87711080 0 3096.18740601 0 1931.86601738 0 7371
0.08550000 0.08548940 22968.98422004 0 -254.28811902 0 5393.50657636 0 2275.72813695 0 1437.42028028 0 8256
0.08650000 0.08650700 22731.70429918 0 -259.23523375 0 4483.21753604 0 904.81377569 0 1186.93107591 0 8037
0.08750000 0.08749060 22473.38696116 0 832.42180880 0 4540.95970997 0 179.32848000 0 1632.01638897 0 8155
0.08850000 0.08849210 21845.58614394 0 946.08808092 0 5513.89596411 0 -1043.45367644 0 3210.47594279 0 8718
0.08950000 0.08949900 21138.39675777 0 1262.01251050 0 6259.40666648 0 -899.18239129 0 2606.85708298 0 8571
0.09050000 0.09049190 20544.14508476 0 1121.18361114 0 7020.95009518 0 -1754.99670073 0 2853.39346739 0 8932
0.09150000 0.09150830 19904.27543349 0 425.98444552 0 8741.83296314 0 -1169.44787502 0 4297.36856396 0 9285
0.09250000 0.09250820 19260.97336152 0 517.79062675 0 8803.93763305 0 502.99800079 0 3298.54521440 0 9204
0.09350000 0.09350330 19500.24630086 0 -87.83542411 0 8689.36121583 0 1024.55432521 0 3312.45205437 0 9349
0.09450000 0.09448040 19173.61271871 0 -186.78679799 0 7522.29389064 0 1802.35303398 0 2420.91953230 0 9564
0.09550000 0.09549270 19165.08702859 0 308.52590214 0 7634.65584290 0 1131.59159647 0 842.69360453 0 10155
0.09650000 0.09649430 18678.34762957 0 848.95057529 0 6360.09838838 0 -423.46327715 0 447.63084054 0 9913
0.09750000 0.09749140 18019.43357961 0 397.23072519 0 6278.65036701 0 111.05873963 0 231.07499004 0 10476
0.09850000 0.09850240 17788.68633039 0 -191.48257095 0 5607.88892950 0 215.27921145 0 299.27718922 0 10575
0.09950000 0.09950330 17642.53164278 0 -98.29954612 0 5329.98464888 0 370.03930990 0 -949.24258626 0 10882
0.10050000 0.10051200 17756.68731166 0 221.82738435 0 4827.04643864 0 651.25643011 0 -2110.14151929 0 10875
0.10150000 0.10150300 17022.70289944 0 558.39173463 0 4562.72790057 0 -123.90263642 0 -1339.18661449 0 11118
0.10250000 0.10250800 17072.74980762 0 455.54312385 0 4595.03694439 0 -686.23611868 0 -2804.95204631 0 11575
0.10350000 0.10349800 16316.28857601 0 332.90273246 0 5824.71826642 0 -909.44754363 0 -1460.36213731 0 11364
0.10450000 0.10450100 16323.04269414 0 650.13923254 0 5540.39203740 0 -255.41306722 0 -1875.79576450 0 12093
0.10550000 0.10551000 16002.49889064 0 103.36214520 0 6207.61033098 0 -336.97734800 0 -1215.96271158 0 12067
0.10650000 0.10649700 15951.23402673 0 -40.16928721 0 5767.10896039 0 600.46767617 0 -1479.12972787 0 12054
0.10750000 0.10749900 16124.73735664 0 13.07641561 0 5784.39285943 0 909.08658584 0 -955.60695857 0 12807
0.10850000 0.10850100 16065.94331186 0 122.83747877 0 5675.14223045 0 334.11736649 0 -1644.37310347 0 12736
0.10950000 0.10950300 16127.83760759 0 141.42016151 0 5811.46469361 0 264.65070782 0 -123.57489560 0 12933
0.11050000 0.11050200 15807.95814358 0 210.98757835 0 5432.28185787 0 561.42555163 0 -26.92623311 0 13428
0.11150000 0.11150900 15880.37114790 0 69.01047890 0 5102.33765060 0 347.15724343 0 851.94231745 0 13453
0.11250000 0.11250000 15723.14413547 0 106.12291867 0 5251.13862384 0 727.19818435 0 187.84531225 0 13668
0.11350000 0.11349100 15633.34758119 0 252.94283155 0 5224.58718893 0 756.50109198 0 1135.33404225 0 13791
0.11450000 0.11448600 15262.09253002 0 146.26319639 0 4703.78931876 0 391.45097164 0 653.80527929 0 14205
0.11550000 0.11549300 14959.92878572 0 429.84315071 0 5148.24350930 0 -136.46972509 0 1168.98283738 0 14776
0.11650000 0.11649800 14806.57708698 0 453.35301800 0 5262.01164681 0 -46.77326462 0 707.46176536 0 14553
0.11750000 0.11747300 14550.14204418 0 140.11251995 0 5155.20800161 0 -100.23078102 0 469.78656250 0 14568
0.11850000 0.11849100 14235.90946583 0 352.71776496 0 5469.82811133 0 -334.41078310 0 729.83118319 0 16015
0.11950000 0.11950300 14162.49995228 0 286.48201066 0 5256.51977370 0 -197.69746687 0 333.40541601 0 15270
0.12050000 0.12050700 14103.37373775 0 -71.93445844 0 5251.03897292 0 146.16575993 0 440.82689693 0 15999
0.12150000 0.12150000 13934.07789127 0 211.71060116 0 5080.81305116 0 441.32958048 0 93.55051529 0 15670
0.12250000 0.12250700 13931.53125657 0 143.68113024 0 4678.28975470 0 504.47504892 0 86.72077317 0 16887
0.12350000 0.12352200 13484.09861064 0 329.06285022 0 4464.35029455 0 907.08028058 0 519.47694182 0 16407
0.12450000 0.12449800 13436.48761392 0 87.00156733 0 3758.37886412 0 993.45437926 0 248.74531321 0 16306
0.12550000 0.12549900 13317.01722913 0 -230.91665579 0 3939.33386863 0 519.36732580 0 643.05848082 0 17523
0.12650000 0.12650100 13470.59037437 0 44.44995871 0 3613.85180826 0 318.84863057 0 462.21973572 0 17154
0.12750000 0.12750600 13399.17387928 0 21.94922310 0 3848.16434607 0 -133.99173879 0 666.32254249 0 18007
0.12850000 0.12850300 13632.13559347 0 136.58155557 0 3810.65130959 0 -371.60050770 0 1115.41492991 0 17496
0.12950000 0.12949900 13370.05366501 0 283.66964016 0 3959.26405330 0 -105.57782812 0 749.78351251 0 18405
0.13050000 0.13049000 13037.66247396 0 380.05976386 0 4197.18616900 0 86.76096571 0 879.62202227 0 18100
0.13150000 0.13148800 12855.41200744 0 340.26915016 0 3993.42217537 0 21.31610757 0 373.84818964 0 19059
0.13250000 0.13249300 12449.83274933 0 310.29415242 0 4124.83959864 0 6.02650031 0 321.38530019 0 18957
0.13350000 0.13349100 12292.82718341 0 381.80586949 0 3995.68092963 0 -26.50725634 0 344.88963131 0 19468
0.13450000 0.13450700 11981.03051651 0 274.88485765 0 3927.04358808 0 -47.46550637 0 546.41258641 0 19953
0.13550000 0.13551000 11915.81452333 0 91.94978929 0 3797.07663936 0 34.24526126 0 79.31349859 0 19956
0.13650000 0.13649900 11805.75561463 0 31.45138154 0 3704.00267693 0 368.94647144 0 496.78864103 0 19723
0.13750000 0.13749600 11746.74012335 0 80.41995601 0 3532.27091899 0 363.95063849 0 305.25292293 0 20946
0.13850000 0.13851100 11557.95698519 0 52.74036192 0 3426.65201255 0 194.80205393 0 412.35330643 0 20955
0.13950000 0.13949800 11588.62732494 0 109.81753202 0 3409.58956000 0 191.05296475 0 -57.83119542 0 20506
0.14050000 0.14048300 11600.91760549 0 155.50194422 0 3476.89822258 0 125.50590905 0 216.62117722 0 21447
0.14150000 0.14148400 11222.35481994 0 56.88229718 0 3385.59583212 0 230.70628162 0 612.82328344 0 21771
0.14250000 0.14249400 11419.77437146 0 -27.51483790 0 3536.99880169 0 83.11684216 0 278.76349303 0 22470
0.14350000 0.14350900 11420.66015744 0 27.25862430 0 3580.70126775 0 8.28780121 0 138.23133197 0 22519
0.14450000 0.14449900 11250.25707848 0 413.02096762 0 3653.94469643 0 -324.66381556 0 105.92660635 0 22218
0.14550000 0.14550500 11070.86327177 0 464.39101861 0 3532.82453524 0 -406.24802653 0 501.31832912 0 23559
0.14650000 0.14650700 10630.77157720 0 143.10647658 0 3952.01168054 0 21.52648174 0 679.75105803 0 23044
0.14750000 0.14750500 10811.13974850 0 28.15847214 0 3918.18572822 0 288.24029584 0 -45.35157812 0 23649
0.14850000 0.14849900 10505.31106468 0 163.50502060 0 3984.37608599 0 -48.44540712 0 -117.24595474 0 23640
0.14950000 0.14949500 10483.53180177 0 352.04678207 0 3806.08951176 0 56.06792769 0 -509.37898158 0 24457
0.15050000 0.15050000 10282.00441774 0 233.49540024 0 4072.95468454 0 -225.48457323 0 119.98303343 0 24591
0.15150000 0.15149900 10003.23649578 0 106.04120491 0 3768.68719852 0 242.99434770 0 367.64104435 0 25020
0.15250000 0.15250500 10168.46879905 0 -89.40337602 0 3804.97120695 0 349.41156877 0 240.06128886 0 25297
0.15350000 0.15350100 10162.53403295 0 55.94967526 0 3511.91998598 0 173.45128998 0 377.66371277 0 25452
0.15450000 0.15450400 10038.97796030 0 52.60627606 0 3527.95271232 0 321.29118543 0 181.22627647 0 26061
0.15550000 0.15549900 9877.73169396 0 180.71694953 0 3304.67928235 0 215.40432872 0 428.57426229 0 26128
0.15650000 0.15649500 9864.22345768 0 160.91741829 0 3441.85431453 0 503.44532271 0 101.03186372 0 26331
0.15750000 0.15749700 9571.06151346 0 100.85083121 0 3012.28132854 0 346.29138763 0 407.34418668 0 27345
0.15850000 0.15849900 9468.39891774 0 171.09067033 0 2882.56904329 0 156.17846326 0 33.80425056 0 26980
0.15950000 0.15949700 9278.44211315 0 209.43745287 0 2977.49208396 0 386.74080466 0 153.37162892 0 27777
0.16050000 0.16050000 9126.67375686 0 200.62609678 0 2637.31704855 0 266.49867883 0 450.31034314 0 28224
0.16150000 0.16150500 8947.29102248 0 173.17226740 0 2619.57918419 0 276.49145198 0 1006.65148321 0 28075
0.16250000 0.16249700 9074.06914165 0 -106.80475243 0 2553.37775410 0 486.74161349 0 623.24012662 0 28590
0.16350000 0.16349900 8928.98846955 0 -11.83642595 0 2304.28366266 0 91.59669285 0 707.16170535 0 29163
0.16450000 0.16449100 9042.41336499 0 100.85371001 0 2144.37714763 0 -164.05310068 0 827.06833975 0 28996
0.16550000 0.16550500 8886.11642785 0 114.85211811 0 2495.32555508 0 -216.10963581 0 1119.05772477 0 30777
0.16650000 0.16650700 8873.74864103 0 117.01232868 0 2559.84399180 0 -66.96464544 0 1043.02628471 0 29211
0.16750000 0.16749900 8879.89378131 0 85.78892631 0 2503.79588357 0 176.60468809 0 843.57163989 0 30922
0.16850000 0.16850800 8754.48863041 0 118.26682309 0 2487.50849376 0 148.95377132 0 669.75939212 0 30867
0.16950000 0.16949900 8775.44854129 0 -26.57003642 0 2555.28219397 0 -87.95688751 0 763.90626282 0 30852
0.17050000 0.17049200 8764.01082975 0 119.41059424 0 2737.52158816 0 -2.86350250 0 944.72729220 0 31257
0.17150000 0.17149500 8610.38232290 0 228.36559215 0 3002.79234617 0 -168.44881363 0 1042.77272847 0 32608
0.17250000 0.17250900 8504.37588508 0 200.77668040 0 3038.85490810 0 -300.94246687 0 935.26045448 0 32361
0.17350000 0.17350400 8336.20941574 0 262.83706101 0 3133.43470670 0 -186.68603984 0 1143.92616631 0 32508
0.17450000 0.17449800 8166.42638697 0 160.85873497 0 3375.24320842 0 -136.44315151 0 1040.25045287 0 32791
0.17550000 0.17549800 8107.70984845 0 152.29318449 0 3325.22951721 0 86.91453885 0 853.25770964 0 33633
0.17650000 0.17650100 7941.59175920 0 108.97282436 0 3130.55590225 0 275.49162105 0 492.18587561 0 33984
0.17750000 0.17750300 7908.88411169 0 5.08640458 0 2757.24139866 0 384.92937232 0 301.85593367 0 34069
0.17850000 0.17849800 7751.66817159 0 34.60544399 0 2436.79724609 0 236.04424941 0 447.25438149 0 34536
