### header ###
fiducial parameters:
Omega_m = 0.31
Omega_nu = 0
Omega_de = 0.69
Omega_k = 0
H_0 = 100
w_de = -1
zeff = 0
beta = 0
fgrowth = 0
b_1 = 2
gamma = 0.55
Lx = 3500 Ly = 3500 Lz = 3500
nx = 700 ny = 700 nz = 700
xoffset = -685.467585 yoffset = -31.7331281 zoffset = 572.489161
bins = 400 dk = 0.001
kx_ny = 0.628318531 ky_ny = 0.628318531 kz_ny = 0.628318531
############################
A(data) = 8.0445986 (not used)
A(ran) = 8.04674672 (used)
Ngal = 478123
weighted Ngal = 0
Nran = 23820508
weighted Nran = 0
SN(data) = 3486.25633
SN(ran) = 70.0900822
SN(data+ran) = 3556.34641
############################
13 columns: k_central k_mean P_0(k) sigma^{lin}_{P_0(k)} P^img_1(k) sigma^{lin}_{P_1(k)} P_2(k) sigma^{lin}_{P_2(k)} P^img_3(k) sigma^{lin}_{P_3(k)} P_4(k) sigma^{lin}_{P_4(k)} N_modes
### header ###
0.00050000 0 0 0 0 0 0 0 0 0 0 0 0
0.00150000 0.00179520 15356.42873748 0 -20258.47910444 0 5676.23839060 0 -21580.95758078 0 -3715.78363054 0 3
0.00250000 0.00253879 22261.46266413 0 -13326.65015172 0 -10245.84220488 0 4591.95883809 0 17186.46258350 0 6
0.00350000 0.00331552 27758.09687385 0 -7748.93330736 0 -10930.46619307 0 10774.29105150 0 -22082.31244856 0 7
0.00450000 0.00420575 29216.21132922 0 -7438.84177848 0 -19429.16197552 0 3750.75003232 0 -6317.00490018 0 24
0.00550000 0.00557378 39600.50188363 0 -16436.75547003 0 -32624.16218515 0 7092.88698953 0 -6070.76746854 0 45
0.00650000 0.00659388 61497.35289148 0 -23898.17371882 0 -62623.18687904 0 3749.72030611 0 4993.93959063 0 40
0.00750000 0.00754703 78344.78088904 0 -10910.53600840 0 -39727.05855631 0 -24398.75352387 0 -6536.42516111 0 57
0.00850000 0.00846663 81000.92088979 0 -13182.93137558 0 -40169.73010256 0 -31918.52292446 0 -13365.40328859 0 75
0.00950000 0.00948925 86350.73607241 0 6492.72269506 0 -12062.96572017 0 -35763.27699448 0 19452.30313439 0 112
0.01050000 0.01054430 76977.45949719 0 8691.15493245 0 -21714.37909484 0 -7802.60086575 0 9448.45766074 0 105
0.01150000 0.01145670 79204.21474146 0 -4347.44868912 0 19984.21761868 0 7926.03514283 0 -5254.57104454 0 144
0.01250000 0.01249090 72550.52258819 0 3612.02487466 0 3333.17944643 0 6889.93127560 0 -19098.54235643 0 169
0.01350000 0.01339930 77556.09919221 0 7393.38988510 0 8302.73777781 0 3944.49357199 0 -993.10892273 0 180
0.01450000 0.01448870 66463.29057265 0 3286.80855009 0 9959.94370574 0 -1231.94007630 0 6968.76622831 0 267
0.01550000 0.01550050 70653.94407001 0 -375.78031032 0 14136.47998896 0 -26178.18684548 0 14886.74071867 0 238
0.01650000 0.01653350 71838.01848611 0 -95.30514660 0 20454.01636073 0 -2633.04313117 0 1925.92017896 0 315
0.01750000 0.01747870 73250.18279348 0 354.16491781 0 20706.13319685 0 -7590.57691780 0 13240.61818788 0 297
0.01850000 0.01844180 69729.73711740 0 3435.23306428 0 16494.77445208 0 -3280.88485631 0 4580.01179961 0 388
0.01950000 0.01947590 72800.09278961 0 469.94932567 0 31857.40369146 0 4150.40559665 0 -1159.25026386 0 399
0.02050000 0.02045430 70575.44128704 0 1689.29352526 0 24148.62970622 0 7544.27245541 0 5299.36967075 0 462
0.02150000 0.02154770 71067.16323224 0 714.63773907 0 26378.15303170 0 871.88135998 0 6627.77184087 0 571
0.02250000 0.02255340 70539.23478489 0 2379.24330168 0 27495.23988266 0 14955.83202554 0 13610.54456007 0 510
0.02350000 0.02348930 73132.15181092 0 -5273.64866020 0 21048.26803375 0 12987.06194953 0 1805.19862146 0 555
0.02450000 0.02439640 69867.58756139 0 336.19564186 0 15544.43681290 0 8841.67211603 0 13847.27086470 0 592
0.02550000 0.02547300 75143.77178397 0 4967.60960221 0 17871.95021303 0 -337.26744291 0 -3303.81564101 0 837
0.02650000 0.02652900 63686.57295463 0 5515.25786007 0 16965.79114987 0 -4369.57119411 0 -2210.67822864 0 723
0.02750000 0.02749970 59568.77535457 0 2649.31944866 0 12937.56865760 0 -2406.37049749 0 -9032.03859664 0 826
0.02850000 0.02848090 61717.91360187 0 -999.90400847 0 21540.98648818 0 -1188.68050323 0 -16323.81775688 0 831
0.02950000 0.02946900 62386.12840468 0 -1785.12449656 0 18287.16239372 0 -3305.60935763 0 -18786.41351980 0 996
0.03050000 0.03053250 60243.96572201 0 4225.49810357 0 17612.30419603 0 -1934.42372442 0 -12244.77329369 0 1041
0.03150000 0.03150510 57425.61616268 0 3361.33636844 0 17992.19566056 0 -3642.36304467 0 -7970.96663694 0 1036
0.03250000 0.03246190 57761.77194417 0 1161.28757163 0 17652.16456538 0 3928.20618218 0 -22568.60895460 0 1059
0.03350000 0.03345080 54522.67404172 0 2262.88424016 0 19325.96790821 0 3841.24414306 0 -5863.20566749 0 1302
0.03450000 0.03451200 52782.43674998 0 2007.58964682 0 17452.86271864 0 3519.82562590 0 -10431.97905741 0 1339
0.03550000 0.03553350 50829.94299146 0 403.86526223 0 16166.81219095 0 3227.79305881 0 -1498.22948819 0 1365
0.03650000 0.03647120 55193.21403274 0 -365.36789606 0 17166.31095233 0 6321.78814451 0 2910.15020441 0 1308
0.03750000 0.03744890 52588.89251215 0 141.63164292 0 15192.77977666 0 2060.36034690 0 5983.13001760 0 1579
0.03850000 0.03847530 51808.07216594 0 2593.11632788 0 19169.84812827 0 1719.65383991 0 5300.38832463 0 1662
0.03950000 0.03950240 52424.35776534 0 847.54217557 0 21650.04888764 0 -3368.30086076 0 1861.93321383 0 1683
0.04050000 0.04050350 49481.44455179 0 1246.59983436 0 20956.25701451 0 -1061.46502723 0 2287.92983890 0 1822
0.04150000 0.04152450 49952.79341932 0 2026.76691340 0 25911.01164760 0 -5397.86907234 0 -4267.90510762 0 1887
0.04250000 0.04250150 47919.25024313 0 58.93765284 0 19856.88588326 0 1303.94340459 0 -5995.34279188 0 1920
0.04350000 0.04349210 47605.12838803 0 2207.88800279 0 20936.10538334 0 2587.15941712 0 -5522.14484610 0 2005
0.04450000 0.04448520 46057.66027137 0 538.38625814 0 15617.51415670 0 1016.54460544 0 -7355.61111282 0 2151
0.04550000 0.04548030 44949.98489651 0 220.86187762 0 18550.13010817 0 7908.57408659 0 -11773.97804240 0 2274
0.04650000 0.04648670 43230.89574517 0 2077.63317362 0 13451.98886867 0 2685.17163642 0 -5614.62090299 0 2311
0.04750000 0.04749250 42397.81402582 0 1962.58064643 0 14148.99171600 0 3415.23644566 0 -743.71698574 0 2568
0.04850000 0.04851840 40818.78978343 0 1204.79073584 0 16173.78775559 0 1616.52620655 0 5743.86815060 0 2493
0.04950000 0.04949480 40110.93605777 0 60.26688543 0 18735.59154888 0 3048.13351630 0 6835.65473934 0 2644
0.05050000 0.05050630 40470.23299814 0 604.50575303 0 16020.65750335 0 2960.79501813 0 8055.31560741 0 2829
0.05150000 0.05149060 39479.92426636 0 1615.95044566 0 16927.48090599 0 380.15720032 0 5430.98639587 0 2784
0.05250000 0.05249300 39898.67959100 0 1052.04358604 0 16638.16105848 0 -1930.58162770 0 6224.21881820 0 3055
0.05350000 0.05348950 37723.07848738 0 1710.08735127 0 18109.11941064 0 -1829.71274861 0 5405.21002369 0 3009
0.05450000 0.05448610 36730.77673714 0 2054.91276309 0 17814.04195422 0 -486.19464065 0 3711.18861574 0 3336
0.05550000 0.05550870 36317.00395866 0 -213.61946996 0 16834.80554726 0 1151.52178114 0 4106.41525014 0 3349
0.05650000 0.05647670 36847.58976397 0 -1189.09017925 0 16000.28442568 0 3866.64405619 0 1542.50771514 0 3324
0.05750000 0.05747970 36415.10475656 0 -592.68826075 0 15367.39033905 0 2694.92635458 0 2592.86166441 0 3639
0.05850000 0.05849280 37501.96416076 0 946.70148771 0 14361.80179902 0 3351.26055286 0 712.44541876 0 3846
0.05950000 0.05951020 34598.91131655 0 1575.76897889 0 11266.97628896 0 1719.46561039 0 4945.04420423 0 3787
0.06050000 0.06049470 34586.73175925 0 881.81987874 0 9511.04951294 0 2777.21587264 0 4781.68312386 0 3930
0.06150000 0.06148310 33510.05889389 0 67.01336367 0 9660.07193268 0 2568.38075423 0 5695.63710369 0 4083
0.06250000 0.06249100 33296.80591788 0 661.60351766 0 8160.91236921 0 2398.86346126 0 2758.69187322 0 4303
0.06350000 0.06350600 31926.16282858 0 934.76109263 0 7054.16706963 0 1271.78937332 0 2709.25394290 0 4470
0.06450000 0.06451750 31258.50164202 0 808.56537774 0 6270.06931528 0 -10.10076153 0 5001.03695084 0 4479
0.06550000 0.06550280 31134.27015755 0 -291.40144458 0 8070.87222378 0 809.94831111 0 2602.58316560 0 4636
0.06650000 0.06648880 30849.26851672 0 442.68594027 0 6573.88283598 0 -1235.91504091 0 2196.06275988 0 4653
0.06750000 0.06749660 31118.54745631 0 784.26383923 0 8455.07082266 0 -1627.31065092 0 1467.68094401 0 5220
0.06850000 0.06852730 30458.41545062 0 1007.73214211 0 8668.42344959 0 -1913.82920025 0 3413.14377627 0 5029
0.06950000 0.06949320 30197.55147789 0 707.92126684 0 10520.12583529 0 -1124.07348791 0 1980.15242592 0 5040
0.07050000 0.07048030 29891.95531290 0 347.96330868 0 10510.92473337 0 550.50270319 0 2596.99164156 0 5475
0.07150000 0.07148790 30006.33242828 0 -57.90504783 0 10026.48837790 0 1934.25763954 0 2879.14769492 0 5509
0.07250000 0.07249820 29224.40484958 0 18.66140697 0 9256.60748861 0 1666.21880033 0 800.71509945 0 5916
0.07350000 0.07351270 29549.48830626 0 388.40940401 0 8994.00516089 0 1338.19010526 0 1362.58243683 0 5721
0.07450000 0.07449140 28430.85132983 0 604.19462070 0 8582.80116177 0 -789.29399639 0 869.76986764 0 6028
0.07550000 0.07549160 28713.08488946 0 388.98848660 0 8636.18083972 0 151.82703961 0 2223.30067893 0 6183
0.07650000 0.07648840 27878.56376788 0 582.13854967 0 9474.88730009 0 -827.55552204 0 2668.56314919 0 6330
0.07750000 0.07749960 27601.42347767 0 647.15524100 0 10120.13810122 0 914.45223445 0 2061.88832773 0 6583
0.07850000 0.07848650 26505.37404387 0 1181.87102347 0 9735.25301820 0 804.58930590 0 2768.28050651 0 6549
0.07950000 0.07947320 26400.62985108 0 356.60636543 0 9534.09102089 0 559.55543597 0 1021.78070784 0 6828
0.08050000 0.08048110 25735.95819222 0 -194.53963983 0 9588.57793132 0 573.08803136 0 2051.63535495 0 7147
0.08150000 0.08149960 26279.49861757 0 683.19344382 0 9119.97500035 0 -594.23063560 0 -1484.73232423 0 7386
0.08250000 0.08250610 24936.86851006 0 924.37193025 0 9957.18669686 0 -1353.29275631 0 120.50786163 0 7227
0.08350000 0.08350160 24504.71567239 0 1298.09721709 0 9675.34066860 0 -245.83329179 0 -504.62231084 0 7798
0.08450000 0.08449610 23254.53947711 0 724.59618801 0 8659.41057719 0 625.48005794 0 -1551.74203403 0 7371
0.08550000 0.08548940 22756.72775327 0 816.08902246 0 9635.92319225 0 352.41438326 0 -1538.06771288 0 8256
0.08650000 0.08650700 22459.98944813 0 238.06273423 0 8810.21564122 0 1443.33290173 0 -2463.79157400 0 8037
0.08750000 0.08749060 21461.81936573 0 372.25709657 0 8180.24464834 0 1347.32477323 0 -695.10505086 0 8155
0.08850000 0.08849210 21443.77147627 0 343.89976547 0 7363.81570551 0 695.16484141 0 -1823.96621203 0 8718
0.08950000 0.08949900 21164.52744435 0 359.30690546 0 6974.20273979 0 1643.56482376 0 -1292.66070560 0 8571
0.09050000 0.09049190 20516.24282621 0 57.75081034 0 5967.29659311 0 1303.61123485 0 -470.31914132 0 8932
0.09150000 0.09150830 20215.29703764 0 386.72530341 0 5333.85996256 0 1202.76450040 0 515.61823662 0 9285
0.09250000 0.09250820 19994.51488076 0 116.20958513 0 5244.62809685 0 752.55380818 0 -351.91059248 0 9204
0.09350000 0.09350330 19758.12074588 0 706.15855273 0 4860.18590682 0 171.51031144 0 -170.86258044 0 9349
0.09450000 0.09448040 19011.40316011 0 823.75992909 0 5020.09242185 0 -906.53441497 0 -653.63476548 0 9564
0.09550000 0.09549270 18310.63572234 0 770.14994678 0 5231.19736684 0 -90.41660447 0 1032.63269340 0 10155
0.09650000 0.09649430 18034.04904837 0 317.60963742 0 5865.45334943 0 -38.84293342 0 198.16250451 0 9913
0.09750000 0.09749140 17660.46880899 0 -207.36803537 0 5303.23391211 0 -38.16098893 0 474.91304889 0 10476
0.09850000 0.09850240 17873.50033850 0 187.05142656 0 6545.81449256 0 488.86417816 0 233.68141530 0 10575
0.09950000 0.09950330 17689.14613027 0 670.67839508 0 5806.39356885 0 -683.05171806 0 8.95774330 0 10882
0.10050000 0.10051200 17398.16543404 0 442.87416979 0 6471.55241000 0 -180.94836112 0 438.11971352 0 10875
0.10150000 0.10150300 16816.97910430 0 330.17783332 0 6912.23093778 0 -157.54810984 0 870.64015237 0 11118
0.10250000 0.10250800 16941.32131202 0 362.42155043 0 6828.45772821 0 -24.98359372 0 -270.93757385 0 11575
0.10350000 0.10349800 16199.91844216 0 312.72009878 0 6764.91365607 0 584.96642142 0 809.31718860 0 11364
0.10450000 0.10450100 16508.94702785 0 -113.95083087 0 6337.77658154 0 1375.45955060 0 105.89859337 0 12093
0.10550000 0.10551000 16355.04171287 0 -28.60103296 0 5939.36111759 0 1396.45267845 0 755.97294209 0 12067
0.10650000 0.10649700 16279.30701111 0 118.19153128 0 5311.98104872 0 470.18959512 0 -526.42482564 0 12054
0.10750000 0.10749900 16098.93883982 0 339.48301510 0 5323.49626653 0 189.83058009 0 517.33555420 0 12807
0.10850000 0.10850100 15700.00297660 0 427.54675055 0 5362.94695986 0 -523.53162717 0 731.76330387 0 12736
0.10950000 0.10950300 15615.18896849 0 150.15068963 0 5498.95939793 0 -205.37833860 0 966.20206618 0 12933
0.11050000 0.11050200 15596.58746279 0 82.33037493 0 5144.29068934 0 86.14335143 0 371.57614859 0 13428
0.11150000 0.11150900 15526.94253968 0 -40.07196147 0 5280.43599531 0 -138.31326717 0 -405.68112350 0 13453
0.11250000 0.11250000 15600.79494622 0 178.79257947 0 5330.57148209 0 -41.79204713 0 -418.25817726 0 13668
0.11350000 0.11349100 15367.94395529 0 215.75975035 0 5003.10747558 0 304.81335163 0 -242.09527493 0 13791
0.11450000 0.11448600 14989.04899999 0 161.43560309 0 4580.97509187 0 564.09841084 0 117.63459334 0 14205
0.11550000 0.11549300 15194.88351837 0 115.40794882 0 4697.68846778 0 640.17303297 0 -39.21341341 0 14776
0.11650000 0.11649800 14960.26095547 0 388.03848113 0 4574.63064975 0 529.09768485 0 -223.77389905 0 14553
0.11750000 0.11747300 14529.32607352 0 453.99632007 0 4508.84996800 0 -46.03595851 0 141.45227126 0 14568
0.11850000 0.11849100 14069.27097731 0 501.82322713 0 4515.05046990 0 -421.69502688 0 540.99268341 0 16015
0.11950000 0.11950300 14029.96422420 0 138.06413986 0 4616.45082059 0 252.22755937 0 681.04430557 0 15270
0.12050000 0.12050700 13678.41791121 0 80.94046600 0 4527.92758366 0 91.48242646 0 -110.93030066 0 15999
0.12150000 0.12150000 13540.67819047 0 211.83239673 0 4097.62382423 0 315.68969630 0 466.10058557 0 15670
0.12250000 0.12250700 13669.22788161 0 32.58330531 0 4332.00279600 0 268.14070460 0 -560.36039398 0 16887
0.12350000 0.12352200 13458.18937057 0 63.74005228 0 4244.49821295 0 363.99714225 0 176.57257835 0 16407
0.12450000 0.12449800 13613.86625752 0 -10.07132022 0 4485.84167703 0 -265.20210959 0 203.44289622 0 16306
0.12550000 0.12549900 13281.58578971 0 202.34562883 0 4336.95212519 0 284.83001980 0 867.56315331 0 17523
0.12650000 0.12650100 13418.88261746 0 200.00826106 0 4554.05827023 0 449.05252704 0 974.63917770 0 17154
0.12750000 0.12750600 13181.82414309 0 11.74352915 0 4424.13561081 0 427.67629675 0 1123.03268938 0 18007
0.12850000 0.12850300 13389.65167994 0 -19.63754313 0 4330.23122403 0 607.22733047 0 1567.92977292 0 17496
0.12950000 0.12949900 13083.50189871 0 165.03853758 0 3719.68108888 0 257.76815071 0 723.21436188 0 18405
0.13050000 0.13049000 13167.20867433 0 278.97497443 0 3591.00960216 0 -204.81032833 0 366.58806626 0 18100
0.13150000 0.13148800 12704.16405042 0 200.14887958 0 3355.84449533 0 45.74265263 0 -128.89846938 0 19059
0.13250000 0.13249300 12392.58883002 0 52.16659404 0 3144.48488687 0 -16.06627548 0 -350.24642206 0 18957
0.13350000 0.13349100 12442.85718470 0 101.08091412 0 2838.92193885 0 181.98583795 0 -895.31039930 0 19468
0.13450000 0.13450700 12486.37142124 0 132.96311982 0 3108.27838471 0 -275.01440385 0 -1038.10795802 0 19953
0.13550000 0.13551000 12192.06902756 0 417.23841614 0 3006.62337055 0 -260.81857620 0 -484.09422063 0 19956
0.13650000 0.13649900 12149.99419325 0 295.11510232 0 3991.11913180 0 -215.94244371 0 -13.26973840 0 19723
0.13750000 0.13749600 11899.09531285 0 143.36889068 0 3977.21229183 0 84.51571968 0 1017.46582286 0 20946
0.13850000 0.13851100 11911.71776315 0 216.82490799 0 4572.52690803 0 612.17665967 0 1206.76160966 0 20955
0.13950000 0.13949800 11846.72321646 0 71.62897299 0 4588.03923510 0 322.89445806 0 1440.66447145 0 20506
0.14050000 0.14048300 11698.57551039 0 -83.59583093 0 4565.62884967 0 642.10404642 0 1430.27863077 0 21447
0.14150000 0.14148400 11765.34162905 0 202.65897562 0 4334.27262258 0 373.92901761 0 1595.80988681 0 21771
0.14250000 0.14249400 11567.58990778 0 102.53349241 0 3995.91344845 0 82.43744431 0 1425.26286763 0 22470
0.14350000 0.14350900 11328.09552196 0 274.25041343 0 3812.40073691 0 192.56987325 0 1500.85362917 0 22519
0.14450000 0.14449900 11300.96832615 0 260.23174298 0 3452.87127772 0 -57.54929403 0 1131.76875366 0 22218
0.14550000 0.14550500 10781.13374824 0 258.28744274 0 3154.30603899 0 266.65479861 0 893.53993456 0 23559
0.14650000 0.14650700 10801.45146428 0 107.82750308 0 3084.27358451 0 319.27159338 0 848.69037565 0 23044
0.14750000 0.14750500 10642.10963782 0 5.69023381 0 2530.04836571 0 374.37080337 0 208.44205087 0 23649
0.14850000 0.14849900 10525.14159843 0 134.97828293 0 2547.24368615 0 107.20435264 0 39.16768471 0 23640
0.14950000 0.14949500 10512.15376142 0 236.79495304 0 2189.43043731 0 -228.91256500 0 96.67855777 0 24457
0.15050000 0.15050000 10251.96520051 0 140.52883937 0 2593.26026810 0 -1.26844553 0 264.86551092 0 24591
0.15150000 0.15149900 10097.21838884 0 174.62495641 0 2499.54411083 0 24.71077164 0 395.76142769 0 25020
0.15250000 0.15250500 10080.93099903 0 72.68815159 0 2490.53123843 0 164.40077167 0 61.22829540 0 25297
0.15350000 0.15350100 9975.32316491 0 153.24872612 0 2778.05736932 0 6.16586767 0 314.34773053 0 25452
0.15450000 0.15450400 9813.29076352 0 245.51551606 0 2760.56309611 0 -37.73791540 0 56.51104213 0 26061
0.15550000 0.15549900 9755.62609586 0 111.56806657 0 2881.31787058 0 -210.92225163 0 287.32461458 0 26128
0.15650000 0.15649500 9645.34574067 0 180.10132827 0 2798.56331489 0 -275.65216976 0 264.79354081 0 26331
0.15750000 0.15749700 9412.51689438 0 135.19419327 0 3098.94441489 0 57.89375406 0 504.18052508 0 27345
0.15850000 0.15849900 9510.11943766 0 61.58936391 0 3031.86827114 0 214.53072229 0 141.04370247 0 26980
0.15950000 0.15949700 9419.34851880 0 68.04087541 0 2796.60351339 0 244.88439355 0 82.68856464 0 27777
0.16050000 0.16050000 9254.55910852 0 172.73048164 0 2887.86161455 0 210.81263562 0 160.90856043 0 28224
0.16150000 0.16150500 9190.21782900 0 183.93788882 0 2697.36226604 0 126.09717120 0 436.22634597 0 28075
0.16250000 0.16249700 9101.81638765 0 21.70939655 0 2810.49928104 0 151.72960315 0 216.00223426 0 28590
0.16350000 0.16349900 8954.11157457 0 157.48056866 0 2618.70447053 0 -68.17440765 0 254.15082219 0 29163
0.16450000 0.16449100 8861.44728816 0 186.61517696 0 2756.86493962 0 54.43786003 0 177.64327216 0 28996
0.16550000 0.16550500 8846.39999873 0 77.53406527 0 2722.80646848 0 -29.06961375 0 0.06229179 0 30777
0.16650000 0.16650700 8667.71482081 0 207.72124253 0 2688.81443128 0 91.49637759 0 -149.23611560 0 29211
0.16750000 0.16749900 8381.90490026 0 347.73189709 0 2829.86477715 0 -20.88450835 0 -75.25161623 0 30922
0.16850000 0.16850800 8180.14499742 0 207.95265412 0 2741.78443322 0 159.34182647 0 323.49789976 0 30867
0.16950000 0.16949900 8211.86720802 0 -20.92082558 0 2575.89886278 0 224.25665241 0 175.81523133 0 30852
0.17050000 0.17049200 8148.67745028 0 -6.56872313 0 2578.92160746 0 410.34478671 0 693.96017247 0 31257
0.17150000 0.17149500 8164.12334340 0 6.38997152 0 2503.74052194 0 385.61585646 0 654.07322955 0 32608
0.17250000 0.17250900 8099.68241296 0 33.20678792 0 2248.64523044 0 112.49149846 0 735.93978479 0 32361
0.17350000 0.17350400 8232.12956244 0 -2.49672067 0 2272.42858415 0 44.54163756 0 608.15519129 0 32508
0.17450000 0.17449800 8069.12279646 0 50.99093459 0 2186.88380261 0 35.83413987 0 445.39312369 0 32791
0.17550000 0.17549800 8019.47449197 0 231.28536421 0 2164.62842972 0 -283.39947543 0 219.33943296 0 33633
0.17650000 0.17650100 7857.37565663 0 147.08033396 0 2141.11081181 0 3.16031831 0 166.96069317 0 33984
0.17750000 0.17750300 7810.99368796 0 -8.87119093 0 2204.37807582 0 153.49010280 0 -38.43779705 0 34069
0.17850000 0.17849800 7689.77387585 0 27.81113331 0 1861.31316364 0 143.21387813 0 -105.68467605 0 34536
