### header ###
fiducial parameters:
Omega_m = 0.31
Omega_nu = 0
Omega_de = 0.69
Omega_k = 0
H_0 = 100
w_de = -1
zeff = 0
beta = 0
fgrowth = 0
b_1 = 2
gamma = 0.55
Lx = 3500 Ly = 3500 Lz = 3500
nx = 700 ny = 700 nz = 700
xoffset = -685.467585 yoffset = -31.7331281 zoffset = 572.489161
bins = 400 dk = 0.001
kx_ny = 0.628318531 ky_ny = 0.628318531 kz_ny = 0.628318531
############################
A(data) = 8.03060113 (not used)
A(ran) = 8.03018592 (used)
Ngal = 477468
weighted Ngal = 0
Nran = 23820508
weighted Nran = 0
SN(data) = 3487.96795
SN(ran) = 69.9458317
SN(data+ran) = 3557.91378
############################
13 columns: k_central k_mean P_0(k) sigma^{lin}_{P_0(k)} P^img_1(k) sigma^{lin}_{P_1(k)} P_2(k) sigma^{lin}_{P_2(k)} P^img_3(k) sigma^{lin}_{P_3(k)} P_4(k) sigma^{lin}_{P_4(k)} N_modes
### header ###
0.00050000 0 0 0 0 0 0 0 0 0 0 0 0
0.00150000 0.00179520 6083.92139043 0 -12520.80635142 0 -9104.24122678 0 12645.48072888 0 30344.92412123 0 3
0.00250000 0.00253879 15588.06177268 0 -15386.21329124 0 -4818.24394041 0 -31235.47120639 0 -36593.03701639 0 6
0.00350000 0.00331552 28604.35465974 0 -21185.12196851 0 -26828.90737507 0 23539.87328769 0 25100.84964062 0 7
0.00450000 0.00420575 36760.78273739 0 -14091.30490370 0 -13095.23856301 0 -13595.81836806 0 8921.71395215 0 24
0.00550000 0.00557378 46640.72889632 0 -5676.06123341 0 -21838.38913281 0 5347.73358556 0 17841.05842678 0 45
0.00650000 0.00659388 45452.22555029 0 -4817.31386512 0 -14477.17542363 0 4210.58368203 0 2806.18107436 0 40
0.00750000 0.00754703 60510.91947339 0 -11967.19011049 0 -48919.85623699 0 26384.57498010 0 10889.45430194 0 57
0.00850000 0.00846663 49351.01256543 0 -7659.16997005 0 -40533.89886585 0 1181.80458952 0 -807.19462393 0 75
0.00950000 0.00948925 65551.70607033 0 -6273.97784594 0 -51147.49726725 0 -11462.29209876 0 5770.59674271 0 112
0.01050000 0.01054430 57337.25901062 0 960.39906075 0 -39646.00913864 0 -16413.39286466 0 15809.17609931 0 105
0.01150000 0.01145670 58045.22345953 0 4560.93418395 0 -35780.77126770 0 -30065.79081255 0 14013.24501373 0 144
0.01250000 0.01249090 52592.54637934 0 2119.33154889 0 -14229.70896393 0 -23099.41620640 0 12087.76772776 0 169
0.01350000 0.01339930 59031.32470788 0 573.98710413 0 -2770.42853752 0 -18866.46642824 0 2763.57476846 0 180
0.01450000 0.01448870 61568.76938656 0 -6302.75481814 0 2075.44085331 0 -1859.06548170 0 5617.66579231 0 267
0.01550000 0.01550050 67761.85282738 0 -7228.92157225 0 18238.00127153 0 5497.33176618 0 14645.14259113 0 238
0.01650000 0.01653350 77382.81730880 0 -6342.38266867 0 17935.61608073 0 3156.71980580 0 5540.58026693 0 315
0.01750000 0.01747870 81087.28502337 0 1629.76870703 0 34982.12447853 0 4049.56993452 0 20640.58503393 0 297
0.01850000 0.01844180 77330.88810540 0 6649.58432076 0 24600.04838908 0 7672.62284471 0 18579.25032244 0 388
0.01950000 0.01947590 75953.93379095 0 5187.83814285 0 30155.69809008 0 -7217.84924743 0 28070.11498724 0 399
0.02050000 0.02045430 75146.53986517 0 3522.60477943 0 29795.62608698 0 3501.74451947 0 24723.39408756 0 462
0.02150000 0.02154770 72654.71316474 0 -2328.65384958 0 25166.95141979 0 -3410.38676739 0 8139.34348046 0 571
0.02250000 0.02255340 79668.92021410 0 -6952.00272853 0 26164.56788595 0 857.05662428 0 -1643.93021047 0 510
0.02350000 0.02348930 84469.99097872 0 -4453.04545091 0 36422.52321419 0 -765.82066778 0 -17718.37706779 0 555
0.02450000 0.02439640 80129.63964981 0 7694.14744415 0 24976.83960265 0 -1202.41018601 0 -17455.29863010 0 592
0.02550000 0.02547300 74096.21913288 0 11062.33758166 0 28495.29226028 0 -4795.42387896 0 -8248.20657808 0 837
0.02650000 0.02652900 67960.49033462 0 3050.13760709 0 23747.59010129 0 10302.55465260 0 1584.25037970 0 723
0.02750000 0.02749970 63399.24612558 0 -979.03599788 0 25756.99560938 0 15432.49560898 0 -10675.04980415 0 826
0.02850000 0.02848090 62370.40570343 0 1861.45710386 0 19208.37981864 0 11086.16522467 0 -9225.60497912 0 831
0.02950000 0.02946900 62581.44421448 0 6326.09527886 0 22575.80596573 0 3274.70649906 0 -7195.82639336 0 996
0.03050000 0.03053250 55005.64885031 0 4156.35143507 0 17780.27136353 0 -8837.20996913 0 -308.89018163 0 1041
0.03150000 0.03150510 53614.18979035 0 989.18378358 0 18380.94498494 0 -7209.62251009 0 345.29820010 0 1036
0.03250000 0.03246190 54340.64502170 0 -615.81391837 0 22725.83596702 0 -509.01802380 0 -15518.97046581 0 1059
0.03350000 0.03345080 52624.32395157 0 -0.23684146 0 18903.55871638 0 1310.76395668 0 -7330.70945431 0 1302
0.03450000 0.03451200 53175.28283454 0 2225.98018154 0 14813.44192837 0 7434.83359690 0 -10328.25351851 0 1339
0.03550000 0.03553350 51275.05044917 0 -1829.60202536 0 12340.88107312 0 9419.68068854 0 -5726.88320432 0 1365
0.03650000 0.03647120 52507.62164798 0 289.28663054 0 8374.05462197 0 6060.31519391 0 -6062.81753932 0 1308
0.03750000 0.03744890 52655.88007730 0 -58.96156906 0 7811.52515955 0 3084.22929521 0 -8270.99342255 0 1579
0.03850000 0.03847530 49342.15470557 0 2873.16863952 0 7581.13222473 0 -2281.35287796 0 -2753.89755657 0 1662
0.03950000 0.03950240 49732.89704842 0 2010.47952360 0 10194.93165537 0 -5471.01285009 0 -1331.43598712 0 1683
0.04050000 0.04050350 44458.70584431 0 2748.43890043 0 11889.35166701 0 -949.08535925 0 3462.63706821 0 1822
0.04150000 0.04152450 46010.49216764 0 1988.63382673 0 13909.82949992 0 -1650.42966514 0 -9303.77559234 0 1887
0.04250000 0.04250150 42502.66894185 0 1495.57213023 0 11519.64674132 0 -1174.78473558 0 -6472.91430596 0 1920
0.04350000 0.04349210 41622.41911877 0 1645.05958761 0 14850.42349326 0 -352.45977979 0 -4339.37696433 0 2005
0.04450000 0.04448520 40772.83963543 0 1477.07027546 0 15623.27176561 0 -286.63480874 0 -4227.17002461 0 2151
0.04550000 0.04548030 40521.60858530 0 305.41900780 0 14346.07909778 0 2673.16923632 0 -5469.63988181 0 2274
0.04650000 0.04648670 37768.14284940 0 1812.68351304 0 14189.40570159 0 773.38306563 0 -2486.74450334 0 2311
0.04750000 0.04749250 39449.58609635 0 1305.86998911 0 16239.11447202 0 1347.88946180 0 544.06636078 0 2568
0.04850000 0.04851840 36353.76407706 0 1748.56368001 0 14943.20957525 0 5216.00613719 0 3469.63477750 0 2493
0.04950000 0.04949480 35759.40168080 0 937.60668011 0 14902.68486641 0 3296.46361733 0 6578.94288842 0 2644
0.05050000 0.05050630 36638.65499465 0 -1936.62711705 0 12464.11604835 0 5421.79636627 0 6940.15534098 0 2829
0.05150000 0.05149060 37169.46224645 0 -1006.59722882 0 12486.03925149 0 4267.99368622 0 7689.68529725 0 2784
0.05250000 0.05249300 38577.86196338 0 -538.21131541 0 11242.28500461 0 809.48991686 0 7881.25866126 0 3055
0.05350000 0.05348950 37294.46879365 0 456.84301478 0 9244.72688408 0 -125.85358005 0 7178.98538732 0 3009
0.05450000 0.05448610 37847.64214159 0 1644.11844000 0 10315.30997080 0 -659.84855417 0 4876.61723685 0 3336
0.05550000 0.05550870 35338.98550743 0 418.28475084 0 9048.87960269 0 -171.18921402 0 2404.38855134 0 3349
0.05650000 0.05647670 35969.11151286 0 585.21111980 0 8169.21661282 0 2626.47724256 0 117.17398463 0 3324
0.05750000 0.05747970 33663.07842288 0 783.56185384 0 7021.63657932 0 1120.30889748 0 1379.15770709 0 3639
0.05850000 0.05849280 33945.53342901 0 971.28204881 0 7149.15654425 0 1395.00220390 0 1119.56705171 0 3846
0.05950000 0.05951020 32768.65602403 0 908.19304923 0 7549.43215877 0 -279.95930411 0 2172.61157591 0 3787
0.06050000 0.06049470 31884.53088726 0 898.26560279 0 6676.83331214 0 -2954.18484021 0 1602.85188540 0 3930
0.06150000 0.06148310 31701.83752776 0 987.90050113 0 11243.06006735 0 -2961.59222552 0 5191.00482775 0 4083
0.06250000 0.06249100 31371.77152491 0 1252.92213183 0 11731.57103835 0 -2306.44276600 0 3422.06807007 0 4303
0.06350000 0.06350600 31467.65785784 0 655.13949443 0 15685.27678459 0 -2496.36635361 0 4742.97427629 0 4470
0.06450000 0.06451750 31104.70705029 0 -694.36209786 0 15429.17391154 0 1214.05827171 0 1840.56362693 0 4479
0.06550000 0.06550280 31639.94323202 0 -271.06379835 0 15856.89781928 0 2094.03128668 0 3249.17371803 0 4636
0.06650000 0.06648880 31832.04806762 0 397.46102955 0 15020.60512573 0 1565.71530796 0 1541.33404870 0 4653
0.06750000 0.06749660 31465.33266963 0 373.85926197 0 14383.06066267 0 547.68922546 0 1675.47526388 0 5220
0.06850000 0.06852730 31045.47011251 0 641.94571217 0 14456.80234596 0 14.64148872 0 2395.38675127 0 5029
0.06950000 0.06949320 30043.86760941 0 1460.69430705 0 13784.60150622 0 453.76601572 0 870.69662123 0 5040
0.07050000 0.07048030 29785.99316439 0 130.06327795 0 12766.72268564 0 1541.83230332 0 1911.29363787 0 5475
0.07150000 0.07148790 29380.74607602 0 -49.21282995 0 12716.01143797 0 3013.59893519 0 2331.69873891 0 5509
0.07250000 0.07249820 29402.44783267 0 -34.30781990 0 10512.41949722 0 2872.37143213 0 -494.82773231 0 5916
0.07350000 0.07351270 29183.65869425 0 761.75823180 0 10242.13297607 0 1212.14275952 0 372.39107170 0 5721
0.07450000 0.07449140 27834.05302211 0 1143.14003125 0 8900.92012614 0 216.39198009 0 -290.04619202 0 6028
0.07550000 0.07549160 26681.53473173 0 1329.57583655 0 9277.71133972 0 -401.99071763 0 1088.82252739 0 6183
0.07650000 0.07648840 26215.05768712 0 584.22346843 0 9250.30733579 0 45.35644994 0 116.09221849 0 6330
0.07750000 0.07749960 25715.80656105 0 112.37856075 0 9737.66678501 0 629.72075834 0 176.13522152 0 6583
0.07850000 0.07848650 26140.09804810 0 -77.59662390 0 9132.75246319 0 777.46653902 0 -224.48917123 0 6549
0.07950000 0.07947320 25507.31468472 0 298.11348788 0 9222.07290750 0 242.69871663 0 -107.71755489 0 6828
0.08050000 0.08048110 25701.30181554 0 849.70570784 0 9606.80297798 0 -325.33258398 0 346.72542277 0 7147
0.08150000 0.08149960 24397.20339840 0 1004.89319803 0 8095.72959300 0 290.17684545 0 -1607.36939392 0 7386
0.08250000 0.08250610 23695.66089789 0 915.51739209 0 8659.04519047 0 -412.50831898 0 -862.27833267 0 7227
0.08350000 0.08350160 23083.47205867 0 283.16252768 0 7597.25352966 0 1104.06136804 0 -1905.28136549 0 7798
0.08450000 0.08449610 22948.83258887 0 255.42081785 0 7472.06982526 0 375.42710316 0 -2502.48934924 0 7371
0.08550000 0.08548940 22333.87566844 0 295.61224971 0 7518.39643231 0 145.51581446 0 -2254.96752792 0 8256
0.08650000 0.08650700 22064.81817535 0 787.59993070 0 6941.81618970 0 1186.64319546 0 -1506.02440486 0 8037
0.08750000 0.08749060 21728.44094736 0 300.06664598 0 7212.91099056 0 428.43917993 0 85.99730746 0 8155
0.08850000 0.08849210 21712.71824612 0 272.08909563 0 7989.26918987 0 570.60561613 0 670.13695839 0 8718
0.08950000 0.08949900 21452.85078262 0 330.87760425 0 8382.95677112 0 783.71797362 0 2378.46823894 0 8571
0.09050000 0.09049190 21033.09894875 0 560.54862350 0 8263.80748375 0 903.01895184 0 2014.35483728 0 8932
0.09150000 0.09150830 20453.24129800 0 539.74593963 0 7924.27464318 0 484.94900410 0 2644.75765083 0 9285
0.09250000 0.09250820 20043.67600295 0 415.71043532 0 7559.66298691 0 1307.50869318 0 2104.38391038 0 9204
0.09350000 0.09350330 19565.57301729 0 122.88841146 0 7371.86528566 0 545.83682551 0 2221.72840881 0 9349
0.09450000 0.09448040 19326.18935471 0 307.29023069 0 6244.62511284 0 724.77998861 0 1747.81076192 0 9564
0.09550000 0.09549270 18879.53177152 0 459.06080145 0 5383.67435192 0 199.53325832 0 1142.77464453 0 10155
0.09650000 0.09649430 18602.17003481 0 434.96188648 0 6560.11993623 0 223.78164968 0 1846.32123583 0 9913
0.09750000 0.09749140 18146.76531502 0 408.07496012 0 5472.95050693 0 -399.29017761 0 131.87138859 0 10476
0.09850000 0.09850240 17837.51528284 0 498.17268164 0 6149.21488988 0 -30.24737694 0 664.70155414 0 10575
0.09950000 0.09950330 17642.75308928 0 263.44493164 0 5694.23091843 0 -85.11218582 0 -477.91918508 0 10882
0.10050000 0.10051200 17462.93853422 0 181.61159337 0 5861.50052947 0 277.33405590 0 -54.19260804 0 10875
0.10150000 0.10150300 17028.46050834 0 367.76505439 0 5376.03444780 0 230.63984767 0 -858.88909404 0 11118
0.10250000 0.10250800 16648.79049031 0 511.62223459 0 4562.17428433 0 1111.30709740 0 419.53481631 0 11575
0.10350000 0.10349800 16111.22912036 0 268.97666512 0 4537.77088043 0 1096.73591794 0 171.65535890 0 11364
0.10450000 0.10450100 15997.18417473 0 -87.75703205 0 3552.31182692 0 1134.29324372 0 751.38899961 0 12093
0.10550000 0.10551000 15950.34824075 0 -39.37219055 0 4039.85950566 0 740.75846055 0 662.36529360 0 12067
0.10650000 0.10649700 16102.14981401 0 -123.61807767 0 3217.37400115 0 -81.52231667 0 435.60075962 0 12054
0.10750000 0.10749900 16248.08305512 0 126.44041327 0 3967.16969322 0 -298.47887460 0 1061.67540140 0 12807
0.10850000 0.10850100 16185.63514315 0 471.42637380 0 4083.82770751 0 -731.98696483 0 1273.41700507 0 12736
0.10950000 0.10950300 15876.60655746 0 113.42046651 0 4543.00809007 0 -272.87523069 0 1601.72250827 0 12933
0.11050000 0.11050200 15866.86291162 0 358.51855593 0 5147.60131446 0 212.69382360 0 884.51488260 0 13428
0.11150000 0.11150900 15530.48568363 0 278.53540314 0 4965.38406492 0 344.58846408 0 511.51372581 0 13453
0.11250000 0.11250000 15417.88014022 0 466.02307929 0 4921.31621214 0 42.32695115 0 747.33099256 0 13668
0.11350000 0.11349100 14876.11128684 0 462.81321233 0 4973.90975503 0 -288.93010168 0 1220.91204078 0 13791
0.11450000 0.11448600 14590.77747627 0 305.88847437 0 4965.62765607 0 193.43905074 0 1300.85422597 0 14205
0.11550000 0.11549300 14414.17389541 0 -20.11321020 0 4820.95665999 0 569.94570557 0 879.96747880 0 14776
0.11650000 0.11649800 14334.67460321 0 118.99981099 0 4613.07376152 0 252.58962439 0 541.80760651 0 14553
0.11750000 0.11747300 14080.34330213 0 298.01715866 0 4499.81495095 0 259.07025611 0 497.68439211 0 14568
0.11850000 0.11849100 13741.30871618 0 296.23119266 0 4120.77605543 0 144.56691623 0 1245.03863656 0 16015
0.11950000 0.11950300 13818.37209692 0 32.94293442 0 4305.72816920 0 318.10346311 0 1271.96653052 0 15270
0.12050000 0.12050700 13715.84236910 0 -118.15609984 0 4259.65622563 0 408.00631171 0 866.47585101 0 15999
0.12150000 0.12150000 13749.39151330 0 182.96573870 0 4075.29094508 0 -88.23280985 0 384.93712295 0 15670
0.12250000 0.12250700 13495.61382846 0 372.73320653 0 4266.36605447 0 -547.06917527 0 428.44803779 0 16887
0.12350000 0.12352200 13510.67219021 0 197.79933226 0 4905.48278765 0 -551.48814010 0 1011.32068259 0 16407
0.12450000 0.12449800 13542.56048569 0 -95.37955262 0 4863.68476146 0 -230.70185269 0 710.44132797 0 16306
0.12550000 0.12549900 13603.45827219 0 37.98848211 0 5037.16594672 0 -312.14765959 0 488.29284620 0 17523
0.12650000 0.12650100 13776.85087885 0 36.96296339 0 5049.51158889 0 221.61811741 0 255.84931682 0 17154
0.12750000 0.12750600 13349.12697110 0 259.29170260 0 5089.32766894 0 -18.27431850 0 530.00672272 0 18007
0.12850000 0.12850300 13460.84672852 0 246.40794544 0 5003.59465787 0 298.53645069 0 622.65993680 0 17496
0.12950000 0.12949900 13472.80483933 0 82.98375282 0 5385.60093644 0 649.76166626 0 1010.71391919 0 18405
0.13050000 0.13049000 13332.40776063 0 92.40475111 0 4971.67314542 0 459.28999857 0 1167.41056725 0 18100
0.13150000 0.13148800 13051.72432648 0 97.69278272 0 5224.06678966 0 696.79025870 0 2005.17588001 0 19059
0.13250000 0.13249300 13293.54390051 0 135.08900618 0 4810.60403628 0 574.71012694 0 1404.18116118 0 18957
0.13350000 0.13349100 12866.04143927 0 46.64670795 0 4706.39131509 0 623.13826124 0 1930.18302401 0 19468
0.13450000 0.13450700 12939.00805982 0 144.30671659 0 4494.27878854 0 245.77128677 0 2062.18728050 0 19953
0.13550000 0.13551000 12597.98045541 0 204.46044287 0 3895.68676419 0 306.05566647 0 1673.20543729 0 19956
0.13650000 0.13649900 12436.87812930 0 282.84032303 0 4076.90750450 0 333.79405461 0 1958.79391134 0 19723
0.13750000 0.13749600 12083.78169083 0 371.74666239 0 3317.53425146 0 412.66997492 0 1993.69387917 0 20946
0.13850000 0.13851100 11888.02298804 0 271.63291585 0 3448.64164964 0 84.67195018 0 1833.16731395 0 20955
0.13950000 0.13949800 11405.04817945 0 285.60286807 0 3080.45363245 0 528.98696161 0 1513.36535621 0 20506
0.14050000 0.14048300 11401.83720525 0 69.48448512 0 3056.52633851 0 -1.05626436 0 1128.67957504 0 21447
0.14150000 0.14148400 11178.17624391 0 26.41768123 0 2751.78274253 0 84.47619148 0 1250.97340266 0 21771
0.14250000 0.14249400 11191.68448019 0 234.19295670 0 3111.27898474 0 88.35383036 0 1104.65152295 0 22470
0.14350000 0.14350900 10851.88590383 0 287.84722831 0 2664.11207461 0 135.46325076 0 1042.52581562 0 22519
0.14450000 0.14449900 10734.64105633 0 142.24394248 0 2737.69874536 0 150.66223104 0 832.67647227 0 22218
0.14550000 0.14550500 10602.29355777 0 119.81584133 0 2702.28945059 0 -8.52170407 0 444.08880383 0 23559
0.14650000 0.14650700 10675.02765950 0 151.28671016 0 3176.96001556 0 -358.07787740 0 291.33943956 0 23044
0.14750000 0.14750500 10506.98298573 0 337.25194165 0 3371.92151097 0 -485.87465046 0 251.40488563 0 23649
0.14850000 0.14849900 10300.19624742 0 54.93035704 0 3529.36996989 0 -489.37793403 0 664.58750919 0 23640
0.14950000 0.14949500 10327.14628603 0 64.51422923 0 3455.00823641 0 113.50904511 0 219.60516876 0 24457
0.15050000 0.15050000 10293.56392485 0 45.67455783 0 3509.47300219 0 425.64563238 0 -140.78350284 0 24591
0.15150000 0.15149900 10144.55257744 0 183.51381878 0 3270.45472633 0 124.94675665 0 -539.13917623 0 25020
0.15250000 0.15250500 10006.40318068 0 284.34062304 0 2967.94773996 0 232.19883100 0 -329.36180299 0 25297
0.15350000 0.15350100 9769.59936978 0 182.92144940 0 2783.63782103 0 166.16680748 0 -497.04884067 0 25452
0.15450000 0.15450400 9598.90841038 0 82.17757685 0 2762.05785996 0 89.64109884 0 -412.92131669 0 26061
0.15550000 0.15549900 9653.84928613 0 -45.05129667 0 2676.25841494 0 43.98658191 0 -502.67025998 0 26128
0.15650000 0.15649500 9542.84922982 0 75.39190258 0 2660.42499045 0 -14.84389082 0 -489.12216333 0 26331
0.15750000 0.15749700 9580.12974749 0 258.32287418 0 2966.03222777 0 -45.03158793 0 -477.90146936 0 27345
0.15850000 0.15849900 9331.52283833 0 124.52047214 0 2955.77925499 0 26.17575093 0 -287.01569672 0 26980
0.15950000 0.15949700 9208.94113027 0 171.42948347 0 2904.16007668 0 401.06728574 0 118.04980552 0 27777
0.16050000 0.16050000 9232.65805003 0 -47.66137580 0 2431.87006154 0 604.43931908 0 112.36195226 0 28224
0.16150000 0.16150500 9173.08894250 0 -73.81387485 0 2204.09019537 0 705.80534556 0 205.08160029 0 28075
0.16250000 0.16249700 9263.58305325 0 50.38461409 0 2139.48318006 0 375.49575157 0 171.73175794 0 28590
0.16350000 0.16349900 9064.27013419 0 68.36817333 0 1832.49190214 0 138.98092836 0 124.21930491 0 29163
0.16450000 0.16449100 9040.73037162 0 222.10419247 0 1919.13284384 0 -84.13759979 0 318.39687972 0 28996
0.16550000 0.16550500 8829.65864360 0 196.38207468 0 2097.54121364 0 -335.19802540 0 459.97869717 0 30777
0.16650000 0.16650700 8860.07431988 0 179.45138280 0 2220.59903168 0 -88.85972488 0 685.69136030 0 29211
0.16750000 0.16749900 8609.57404318 0 245.96505245 0 2378.53467289 0 -208.12316792 0 726.24264271 0 30922
0.16850000 0.16850800 8514.82815971 0 160.24864987 0 2573.02005833 0 -137.70871823 0 748.16363139 0 30867
0.16950000 0.16949900 8471.26963387 0 68.03788589 0 2660.69072625 0 212.91084117 0 758.41106801 0 30852
0.17050000 0.17049200 8267.05167492 0 145.09174442 0 2646.10847446 0 -10.17217803 0 637.09271221 0 31257
0.17150000 0.17149500 8198.86829869 0 30.98390799 0 2435.14746969 0 247.22397578 0 600.27058879 0 32608
0.17250000 0.17250900 8126.39993275 0 120.41928303 0 2363.95242111 0 319.54507980 0 420.59554503 0 32361
0.17350000 0.17350400 8103.57987130 0 114.52437730 0 1939.76058498 0 125.24128049 0 370.26961426 0 32508
0.17450000 0.17449800 8002.94351102 0 58.62629907 0 2006.43812504 0 146.81459817 0 289.76716943 0 32791
0.17550000 0.17549800 7826.87140175 0 117.35446352 0 1879.59357191 0 -142.78316470 0 400.72847260 0 33633
0.17650000 0.17650100 7843.56846758 0 128.42789557 0 1906.24465775 0 -87.95854836 0 367.32437586 0 33984
0.17750000 0.17750300 7820.28336849 0 36.77739122 0 2078.41930868 0 -14.77801049 0 456.07127375 0 34069
0.17850000 0.17849800 7791.04135864 0 47.31326191 0 2063.87027387 0 79.31216991 0 470.28038818 0 34536
