### header ###
fiducial parameters:
Omega_m = 0.31
Omega_nu = 0
Omega_de = 0.69
Omega_k = 0
H_0 = 100
w_de = -1
zeff = 0
beta = 0
fgrowth = 0
b_1 = 2
gamma = 0.55
Lx = 3500 Ly = 3500 Lz = 3500
nx = 700 ny = 700 nz = 700
xoffset = -685.467585 yoffset = -31.7331281 zoffset = 572.489161
bins = 400 dk = 0.001
kx_ny = 0.628318531 ky_ny = 0.628318531 kz_ny = 0.628318531
############################
A(data) = 8.0796932 (not used)
A(ran) = 8.07441405 (used)
Ngal = 480189
weighted Ngal = 0
Nran = 23820508
weighted Nran = 0
SN(data) = 3492.11155
SN(ran) = 70.3310747
SN(data+ran) = 3562.44263
############################
13 columns: k_central k_mean P_0(k) sigma^{lin}_{P_0(k)} P^img_1(k) sigma^{lin}_{P_1(k)} P_2(k) sigma^{lin}_{P_2(k)} P^img_3(k) sigma^{lin}_{P_3(k)} P_4(k) sigma^{lin}_{P_4(k)} N_modes
### header ###
0.00050000 0 0 0 0 0 0 0 0 0 0 0 0
0.00150000 0.00179520 5016.94788160 0 -9557.75257903 0 -800.11719390 0 -11629.81637327 0 -15999.50936294 0 3
0.00250000 0.00253879 16024.20064729 0 -18644.35559237 0 -12133.93932226 0 -1932.50821222 0 5227.82030777 0 6
0.00350000 0.00331552 23292.96044423 0 -17537.67672675 0 -13876.50180222 0 -13451.21380593 0 9139.68373853 0 7
0.00450000 0.00420575 35475.17510270 0 -14739.81096833 0 -22887.71335587 0 -13876.72324871 0 4853.75288610 0 24
0.00550000 0.00557378 50465.10988868 0 -19565.79446378 0 -26231.77689760 0 -15862.10181194 0 -3048.98608531 0 45
0.00650000 0.00659388 70550.41783295 0 -20583.00894487 0 -33837.91043177 0 -25397.25577602 0 5285.82821750 0 40
0.00750000 0.00754703 68206.62811534 0 -2108.34780267 0 -17313.24070268 0 -20035.70392909 0 -14115.22112531 0 57
0.00850000 0.00846663 79751.40903400 0 5877.68826835 0 -4515.96947286 0 -17405.47316842 0 27819.76972309 0 75
0.00950000 0.00948925 62729.59192055 0 -2456.84922633 0 -4209.76433000 0 10284.29638898 0 16303.44467922 0 112
0.01050000 0.01054430 77094.38324727 0 -4402.78816856 0 2227.67424724 0 4232.04184753 0 -2457.55785512 0 105
0.01150000 0.01145670 76867.62203498 0 -11420.54943419 0 8981.52665082 0 6115.28928664 0 -588.72658293 0 144
0.01250000 0.01249090 85198.32850529 0 -1449.99844128 0 26234.43425556 0 -16090.41314971 0 1410.68061584 0 169
0.01350000 0.01339930 84383.07322889 0 9758.61562356 0 33161.72355509 0 -21527.14608216 0 31131.28062985 0 180
0.01450000 0.01448870 82694.43297080 0 11282.69899020 0 48612.15633028 0 -12940.11529230 0 16063.83957014 0 267
0.01550000 0.01550050 75405.52154268 0 1881.50908411 0 28177.07364499 0 10482.05918256 0 20433.86472956 0 238
0.01650000 0.01653350 81966.75978372 0 -8444.00957017 0 40875.81225624 0 9751.18609361 0 -21535.56104902 0 315
0.01750000 0.01747870 88633.40655702 0 -5395.77640295 0 22931.00614591 0 2162.23680756 0 -22142.87806532 0 297
0.01850000 0.01844180 87292.21585174 0 5421.87387255 0 24987.69048098 0 -13554.85076624 0 -38326.29874350 0 388
0.01950000 0.01947590 79428.09714930 0 12142.13284262 0 15777.73069683 0 -14026.31035701 0 -27064.96934020 0 399
0.02050000 0.02045430 75717.87182582 0 5217.78878149 0 8226.06192844 0 -2825.23654538 0 -24649.32023452 0 462
0.02150000 0.02154770 74284.22720830 0 -9057.85925812 0 9895.18167788 0 7963.58139629 0 -23280.11654744 0 571
0.02250000 0.02255340 78514.40890526 0 -4381.64002816 0 13596.15053781 0 16897.14273599 0 -31748.67346174 0 510
0.02350000 0.02348930 79858.36769175 0 1569.76777884 0 8883.71373337 0 9652.91921084 0 -23536.33014375 0 555
0.02450000 0.02439640 77747.42896507 0 4245.89332588 0 10229.22264533 0 718.93158664 0 -7107.95642360 0 592
0.02550000 0.02547300 67989.94271864 0 11525.40435023 0 12950.52327763 0 -904.48603488 0 4538.42414759 0 837
0.02650000 0.02652900 60399.75333221 0 9087.49987166 0 9648.91102926 0 271.84550448 0 8012.59857826 0 723
0.02750000 0.02749970 56426.89246403 0 846.77597069 0 21577.08226709 0 -9877.84241721 0 2495.71308645 0 826
0.02850000 0.02848090 54155.40502749 0 932.94966029 0 17611.08624030 0 4490.51419810 0 6433.62969750 0 831
0.02950000 0.02946900 58255.04401484 0 452.26128677 0 23770.50981366 0 -3082.45772324 0 9924.09151798 0 996
0.03050000 0.03053250 58069.02895789 0 -499.53568482 0 25846.34927066 0 5819.55856306 0 2266.96992802 0 1041
0.03150000 0.03150510 57192.65444849 0 -2093.38909184 0 24431.08471234 0 1693.68923821 0 4000.71883742 0 1036
0.03250000 0.03246190 59053.58008076 0 2236.47674547 0 28202.31854557 0 5430.79816635 0 -1947.04617471 0 1059
0.03350000 0.03345080 59269.60113797 0 506.59097020 0 25244.78986327 0 1358.16457923 0 919.66065604 0 1302
0.03450000 0.03451200 55413.88546638 0 1388.17057949 0 30544.66886096 0 -412.11525145 0 688.04755102 0 1339
0.03550000 0.03553350 57178.37114948 0 1336.82820930 0 27448.40394867 0 -5812.29511798 0 3136.28029418 0 1365
0.03650000 0.03647120 54800.58939467 0 2077.38958247 0 28440.15208268 0 995.73638541 0 -4495.06492360 0 1308
0.03750000 0.03744890 52400.77371348 0 4309.08308362 0 28524.08030480 0 -1758.63949560 0 -3629.49700323 0 1579
0.03850000 0.03847530 50082.00744996 0 3113.16127996 0 24242.30157419 0 827.81793614 0 -1150.40347633 0 1662
0.03950000 0.03950240 47604.46404854 0 1679.49451779 0 24279.72603207 0 5163.19114781 0 -1302.31577284 0 1683
0.04050000 0.04050350 47108.97751290 0 138.60668378 0 21544.19746238 0 3717.98702318 0 -1170.98692817 0 1822
0.04150000 0.04152450 46791.64468360 0 -591.94862945 0 24804.00061224 0 4045.84963338 0 -3855.70459927 0 1887
0.04250000 0.04250150 46443.75223780 0 1649.30028801 0 23790.66144483 0 2644.22617924 0 -1281.57730846 0 1920
0.04350000 0.04349210 44266.04739247 0 3748.32519318 0 20338.31056638 0 3812.09071181 0 -1746.09455158 0 2005
0.04450000 0.04448520 41108.10963094 0 1077.68598309 0 17404.69810568 0 1940.21455030 0 910.46619751 0 2151
0.04550000 0.04548030 41092.71909944 0 -1243.20063064 0 15817.59106617 0 2040.06477551 0 -4820.23695887 0 2274
0.04650000 0.04648670 42354.74268227 0 151.78717924 0 15738.53466697 0 1209.48540156 0 -6912.45238428 0 2311
0.04750000 0.04749250 41636.25952479 0 68.89532672 0 12372.43719885 0 -431.62247331 0 -6329.22874678 0 2568
0.04850000 0.04851840 40187.99943851 0 1752.87081436 0 12301.68504326 0 394.68519772 0 -6680.14393726 0 2493
0.04950000 0.04949480 40265.61643549 0 1744.71051097 0 11533.70859384 0 -455.60623610 0 -7178.93002569 0 2644
0.05050000 0.05050630 38502.34870812 0 1033.76871393 0 12679.02987308 0 1760.86503288 0 -8005.22440993 0 2829
0.05150000 0.05149060 37488.12375473 0 584.06402695 0 12904.68385288 0 1150.31489773 0 -3297.96945351 0 2784
0.05250000 0.05249300 37207.99393682 0 504.30232066 0 11399.95491003 0 2848.53271679 0 -3734.83910155 0 3055
0.05350000 0.05348950 36751.26053805 0 773.26127006 0 10741.61662096 0 4001.03993484 0 -1026.90276531 0 3009
0.05450000 0.05448610 35477.83246066 0 290.79246671 0 8842.74613154 0 1291.97422146 0 483.39777140 0 3336
0.05550000 0.05550870 35645.35673516 0 1368.01894832 0 9266.98225697 0 2110.39618276 0 -10.36762671 0 3349
0.05650000 0.05647670 34654.93728014 0 23.70529382 0 8333.34168361 0 213.35041247 0 -404.06345684 0 3324
0.05750000 0.05747970 34811.38922982 0 316.69617063 0 10820.78374342 0 -2443.98318489 0 -1037.28971322 0 3639
0.05850000 0.05849280 34173.73404352 0 1013.25058880 0 12506.96594540 0 -2848.59915074 0 -1663.26248961 0 3846
0.05950000 0.05951020 33741.58120585 0 579.95730168 0 11810.84888405 0 -575.57155382 0 -620.11551656 0 3787
0.06050000 0.06049470 33473.18805224 0 142.24172802 0 12975.65745497 0 327.32892415 0 -838.92015623 0 3930
0.06150000 0.06148310 34058.36041891 0 896.11535732 0 10277.84122361 0 1816.09378908 0 -2717.54711419 0 4083
0.06250000 0.06249100 32220.13305252 0 1559.19370864 0 10971.13484213 0 3076.20185971 0 -2619.76741372 0 4303
0.06350000 0.06350600 31723.53928440 0 -19.70563793 0 7758.24513253 0 1784.57088032 0 -1952.34981830 0 4470
0.06450000 0.06451750 30662.03550404 0 486.96416722 0 9175.13732260 0 1524.42660871 0 -98.46862052 0 4479
0.06550000 0.06550280 31525.45539339 0 62.91848578 0 7831.51070585 0 -793.25788868 0 -2337.87709616 0 4636
0.06650000 0.06648880 30124.14196435 0 159.03069414 0 9260.15063255 0 1038.02602282 0 -1090.55202453 0 4653
0.06750000 0.06749660 31143.57091040 0 466.16591228 0 7716.74605911 0 -734.53249231 0 -15.82622748 0 5220
0.06850000 0.06852730 30268.63580323 0 115.94274211 0 10118.43296320 0 1169.83540639 0 834.66949073 0 5029
0.06950000 0.06949320 31016.79279123 0 155.90165514 0 8205.91029727 0 846.31314751 0 206.01278281 0 5040
0.07050000 0.07048030 30264.64976630 0 447.09494001 0 8408.71099865 0 1062.69626975 0 745.90930606 0 5475
0.07150000 0.07148790 30145.62227449 0 526.20891531 0 9102.85718618 0 1085.69459563 0 1069.07171438 0 5509
0.07250000 0.07249820 29759.41958482 0 289.11390227 0 9002.48656170 0 114.39483110 0 1286.13910628 0 5916
0.07350000 0.07351270 29935.35882619 0 668.50157602 0 9222.47151120 0 -323.04947061 0 1905.94570498 0 5721
0.07450000 0.07449140 28784.05849155 0 778.33350206 0 10683.84123006 0 -275.21813462 0 3082.74560368 0 6028
0.07550000 0.07549160 28368.62486435 0 715.43051753 0 11738.10370999 0 366.83165740 0 4605.63315924 0 6183
0.07650000 0.07648840 27662.21054092 0 1089.70499168 0 11930.98360833 0 11.81107033 0 4365.07583023 0 6330
0.07750000 0.07749960 27200.71604248 0 719.24714789 0 12208.45606829 0 267.23831013 0 3315.24228022 0 6583
0.07850000 0.07848650 25609.84441254 0 549.65567034 0 11518.20733909 0 1531.13643755 0 3414.43923827 0 6549
0.07950000 0.07947320 25885.98819351 0 871.52261666 0 11313.92294619 0 1310.60894413 0 2154.90692853 0 6828
0.08050000 0.08048110 25068.29700566 0 129.74882392 0 10644.77806810 0 824.23825352 0 2561.92558886 0 7147
0.08150000 0.08149960 24431.85977508 0 380.97101620 0 9127.94707422 0 349.59315489 0 722.16359825 0 7386
0.08250000 0.08250610 24411.37597417 0 668.24248362 0 9825.24887432 0 -283.60652790 0 1537.72447081 0 7227
0.08350000 0.08350160 23933.82660474 0 671.41138298 0 9598.10013067 0 -192.60530469 0 1007.41104469 0 7798
0.08450000 0.08449610 23195.52398583 0 667.86270288 0 9946.16973367 0 478.09855674 0 760.15717363 0 7371
0.08550000 0.08548940 23158.65314418 0 620.59605546 0 10442.84100806 0 327.95118880 0 1498.34021143 0 8256
0.08650000 0.08650700 22732.59008516 0 226.79110756 0 9833.77456443 0 620.35578601 0 1233.83344384 0 8037
0.08750000 0.08749060 22372.40735881 0 167.79333200 0 9429.84508272 0 922.99674751 0 1253.14357832 0 8155
0.08850000 0.08849210 22083.64112754 0 181.91497507 0 9328.55545528 0 531.21360613 0 -129.19188598 0 8718
0.08950000 0.08949900 21706.84991396 0 625.56310037 0 9085.88331223 0 965.30188618 0 158.20359147 0 8571
0.09050000 0.09049190 21326.51555644 0 528.91277703 0 8026.21753779 0 49.08726979 0 -1474.11396473 0 8932
0.09150000 0.09150830 20646.78553583 0 652.07688938 0 8010.40625795 0 898.07958774 0 592.06931779 0 9285
0.09250000 0.09250820 20188.16984184 0 160.56531836 0 7395.41612055 0 1061.41630900 0 -52.05398850 0 9204
0.09350000 0.09350330 20011.23409124 0 280.13756854 0 6909.20819311 0 2240.67315658 0 1131.48087322 0 9349
0.09450000 0.09448040 19921.21609046 0 272.14667172 0 6352.61349680 0 878.02096410 0 1068.59781887 0 9564
0.09550000 0.09549270 19213.47308805 0 316.79249985 0 6062.46322493 0 683.60090537 0 1967.55212027 0 10155
0.09650000 0.09649430 18953.27345481 0 454.90867964 0 5806.52643674 0 73.98660312 0 1569.90064674 0 9913
0.09750000 0.09749140 18675.57954836 0 565.99067115 0 6176.86248495 0 -182.10874076 0 2340.02512717 0 10476
0.09850000 0.09850240 17960.30736508 0 643.39065056 0 6386.12942403 0 190.93559810 0 3113.40487111 0 10575
0.09950000 0.09950330 17486.41186284 0 895.76215015 0 6688.14922810 0 520.58528153 0 2664.79855875 0 10882
0.10050000 0.10051200 16939.32829355 0 189.90255020 0 6082.52627750 0 761.45152841 0 3275.68086365 0 10875
0.10150000 0.10150300 17134.75482660 0 -271.58641208 0 5934.63323490 0 667.47960044 0 3078.98101324 0 11118
0.10250000 0.10250800 16929.03103147 0 326.44424540 0 6468.39679743 0 -277.86109856 0 1070.46572007 0 11575
0.10350000 0.10349800 16750.65587864 0 520.13020898 0 6064.55589432 0 -950.76503092 0 1617.71094530 0 11364
0.10450000 0.10450100 16208.44413227 0 510.45410432 0 6182.75296176 0 -980.11222785 0 905.48254411 0 12093
0.10550000 0.10551000 16088.97374748 0 136.38003926 0 6305.79970747 0 -510.86267311 0 113.13147883 0 12067
0.10650000 0.10649700 16025.19715652 0 -97.77637878 0 6408.17442274 0 458.04768373 0 -914.41680301 0 12054
0.10750000 0.10749900 15735.21296952 0 269.78937376 0 5862.50811103 0 177.84146677 0 -1472.37560973 0 12807
0.10850000 0.10850100 15698.67429762 0 435.85099416 0 5621.51896135 0 474.77464483 0 -1651.30437880 0 12736
0.10950000 0.10950300 15118.15230738 0 289.14379755 0 5165.84850576 0 958.75924944 0 -873.34290686 0 12933
0.11050000 0.11050200 15169.86006428 0 -45.30573869 0 4279.80785680 0 1183.13326850 0 -879.02743842 0 13428
0.11150000 0.11150900 15016.39764230 0 -201.96695532 0 4035.40843108 0 435.48339298 0 -454.97400636 0 13453
0.11250000 0.11250000 15061.24055781 0 56.85350914 0 4280.00715865 0 311.98489641 0 -300.35341919 0 13668
0.11350000 0.11349100 15217.13889126 0 146.18458288 0 4011.19325670 0 -111.14399653 0 11.10554179 0 13791
0.11450000 0.11448600 15031.12383431 0 180.84538850 0 4484.29155155 0 29.95949649 0 469.06686138 0 14205
0.11550000 0.11549300 14916.52527243 0 -16.63041043 0 4719.21306723 0 193.10355930 0 514.03157247 0 14776
0.11650000 0.11649800 14870.13223144 0 145.20578937 0 4700.13545157 0 907.57078457 0 1276.63905159 0 14553
0.11750000 0.11747300 14894.60206929 0 479.53463727 0 4459.75527975 0 235.06102697 0 1018.57416258 0 14568
0.11850000 0.11849100 14363.46264774 0 360.86145986 0 4466.00007095 0 32.32974907 0 1131.46980089 0 16015
0.11950000 0.11950300 14106.91688169 0 368.02857572 0 4458.82520447 0 338.68027155 0 1661.56842391 0 15270
0.12050000 0.12050700 13897.20704963 0 230.22574272 0 4175.79443745 0 -130.79072969 0 756.38593980 0 15999
0.12150000 0.12150000 13575.66673689 0 184.66534056 0 4075.50131925 0 266.31266377 0 385.63135771 0 15670
0.12250000 0.12250700 13807.41049535 0 233.66148511 0 4462.53443328 0 -358.85294014 0 68.32753790 0 16887
0.12350000 0.12352200 12867.48084149 0 426.81929881 0 3986.07015169 0 -135.95929091 0 341.99975453 0 16407
0.12450000 0.12449800 13223.89897741 0 272.77890146 0 4561.97498248 0 348.17811178 0 672.02811147 0 16306
0.12550000 0.12549900 12773.80897353 0 -114.97723538 0 3933.63162135 0 692.04798198 0 1150.55848888 0 17523
0.12650000 0.12650100 13196.99322810 0 -221.15197253 0 4582.32591550 0 564.39293468 0 408.16907488 0 17154
0.12750000 0.12750600 13232.86756051 0 16.19991844 0 4262.63468101 0 -315.42285327 0 859.74830645 0 18007
0.12850000 0.12850300 13248.92243150 0 164.18486134 0 4341.28140419 0 1.50117473 0 394.92435993 0 17496
0.12950000 0.12949900 13037.66247396 0 122.87401744 0 4320.45436121 0 -569.37658808 0 925.06173609 0 18405
0.13050000 0.13049000 13236.85359744 0 76.19697132 0 4552.05417944 0 200.72906940 0 639.90176101 0 18100
0.13150000 0.13148800 12995.80908614 0 33.89592941 0 4331.67062625 0 214.29488177 0 -52.08620897 0 19059
0.13250000 0.13249300 12952.07340311 0 234.36568497 0 3916.08198651 0 546.99056176 0 342.17469727 0 18957
0.13350000 0.13349100 12518.14899347 0 335.51247942 0 3987.07773325 0 378.10992746 0 458.66662668 0 19468
0.13450000 0.13450700 12439.09259426 0 139.61869427 0 3789.96820682 0 95.56257815 0 479.70515107 0 19953
0.13550000 0.13551000 12193.28698329 0 151.34317902 0 3900.70252734 0 254.04342064 0 480.82456311 0 19956
0.13650000 0.13649900 12121.20614872 0 49.39253378 0 4002.20252895 0 -1.63774078 0 298.91733866 0 19723
0.13750000 0.13749600 12095.40763189 0 125.97426839 0 4002.93330239 0 -102.76590051 0 405.31462954 0 20946
0.13850000 0.13851100 12101.16524079 0 110.02015556 0 4005.91175776 0 127.32841372 0 142.32477045 0 20955
0.13950000 0.13949800 11841.62994705 0 419.10521011 0 3749.59851054 0 -149.63029037 0 417.78649622 0 20506
0.14050000 0.14048300 11575.78342815 0 292.04253218 0 3401.38496731 0 345.84074401 0 553.99159274 0 21447
0.14150000 0.14148400 11274.83763958 0 163.92023278 0 3303.01843362 0 597.00203850 0 604.19462070 0 21771
0.14250000 0.14249400 11201.09595629 0 183.92128033 0 2783.40530221 0 722.85894025 0 266.71901809 0 22470
0.14350000 0.14350900 10888.93390268 0 154.98265218 0 2810.18925595 0 241.62913005 0 -3.63118000 0 22519
0.14450000 0.14449900 10527.06818295 0 432.25248860 0 2528.95220555 0 -89.55252024 0 -129.94258961 0 22218
0.14550000 0.14550500 10545.47038680 0 196.23038383 0 2583.84879200 0 -0.57880135 0 5.35277149 0 23559
0.14650000 0.14650700 10249.51821672 0 -29.82308545 0 2674.02180533 0 -232.13793322 0 -146.27316148 0 23044
0.14750000 0.14750500 10413.98652958 0 61.05479207 0 2560.60798221 0 -59.63664871 0 -374.35862382 0 23649
0.14850000 0.14849900 10381.00207394 0 -34.13110559 0 2973.00779241 0 -167.97823982 0 -156.69664807 0 23640
0.14950000 0.14949500 10283.65419414 0 316.50129771 0 3000.96541257 0 -7.35069500 0 -106.58961716 0 24457
0.15050000 0.15050000 10241.55721518 0 97.14724928 0 3054.15686100 0 34.23042435 0 -55.31578467 0 24591
0.15150000 0.15149900 10214.06463265 0 137.13627904 0 3217.55115835 0 56.57504017 0 51.42009790 0 25020
0.15250000 0.15250500 10117.19286282 0 164.50042260 0 3369.13128512 0 -14.33223869 0 434.48356205 0 25297
0.15350000 0.15350100 10101.29300438 0 29.75011883 0 3333.34553130 0 226.38475324 0 352.50296186 0 25452
0.15450000 0.15450400 9880.79872794 0 34.41477855 0 3214.08552068 0 69.97853226 0 176.81174056 0 26061
0.15550000 0.15549900 9958.86969023 0 300.74759396 0 3390.15762995 0 51.64663767 0 -51.71539681 0 26128
0.15650000 0.15649500 9550.98738856 0 329.47363347 0 3234.62468322 0 -17.15424212 0 -179.76030066 0 26331
0.15750000 0.15749700 9271.15652342 0 267.94140275 0 2873.94370225 0 42.38773821 0 -53.54709150 0 27345
0.15850000 0.15849900 9155.86040509 0 54.04003140 0 2808.43982863 0 300.91367883 0 -61.56987662 0 26980
0.15950000 0.15949700 9117.59445051 0 54.41936925 0 2623.06696651 0 265.39919697 0 51.88657495 0 27777
0.16050000 0.16050000 9083.09308638 0 155.90497684 0 2400.45787603 0 446.56679012 0 -114.76796844 0 28224
0.16150000 0.16150500 8908.71504281 0 6.59710150 0 2404.47712994 0 287.69332300 0 256.45608022 0 28075
0.16250000 0.16249700 8860.07431988 0 115.14664195 0 2529.41724320 0 32.81870293 0 335.37296813 0 28590
0.16350000 0.16349900 8917.88292776 0 79.10688901 0 2775.47751764 0 -93.09466767 0 273.58053778 0 29163
0.16450000 0.16449100 8689.57159000 0 198.36291359 0 2819.39035787 0 -202.69772876 0 692.58609696 0 28996
0.16550000 0.16550500 8725.39056079 0 190.91345345 0 3090.11977201 0 -291.38926502 0 854.85212441 0 30777
0.16650000 0.16650700 8606.54022618 0 71.09506549 0 3100.11808132 0 -17.30205765 0 661.55369219 0 29211
0.16750000 0.16749900 8477.45906345 0 154.24523535 0 3067.99726702 0 130.93688438 0 565.04841631 0 30922
0.16850000 0.16850800 8405.27857795 0 34.66910986 0 2953.77516420 0 318.98924910 0 496.93147402 0 30867
0.16950000 0.16949900 8478.45557268 0 -115.34705103 0 2799.28301600 0 264.66731630 0 140.97726852 0 30852
0.17050000 0.17049200 8520.23145422 0 -16.14555333 0 2507.84835445 0 2.44135904 0 159.29975163 0 31257
0.17150000 0.17149500 8541.14707580 0 82.09697032 0 2635.95515260 0 110.51896379 0 36.94901226 0 32608
0.17250000 0.17250900 8431.68607265 0 160.58635577 0 2473.35806264 0 -292.29608842 0 141.53199199 0 32361
0.17350000 0.17350400 8380.24405154 0 95.71194381 0 2467.54509211 0 107.86005571 0 95.15356647 0 32508
0.17450000 0.17449800 8295.57398365 0 -5.10874853 0 2557.57416521 0 38.95055642 0 -166.77578535 0 32791
0.17550000 0.17549800 8305.04082137 0 136.77642848 0 2394.24630181 0 67.92096214 0 -127.86763594 0 33633
0.17650000 0.17650100 8207.49363972 0 63.99903396 0 2388.46654825 0 316.08387106 0 -328.29221641 0 33984
0.17750000 0.17750300 8055.28239044 0 1.46440354 0 2155.61555732 0 232.41141964 0 -58.70458040 0 34069
0.17850000 0.17849800 8106.09328903 0 20.98626301 0 1944.31131048 0 187.65265379 0 -503.09322278 0 34536
