### header ###
fiducial parameters:
Omega_m = 0.31
Omega_nu = 0
Omega_de = 0.69
Omega_k = 0
H_0 = 100
w_de = -1
zeff = 0
beta = 0
fgrowth = 0
b_1 = 2
gamma = 0.55
Lx = 3500 Ly = 3500 Lz = 3500
nx = 700 ny = 700 nz = 700
xoffset = -685.467585 yoffset = -31.7331281 zoffset = 572.489161
bins = 400 dk = 0.001
kx_ny = 0.628318531 ky_ny = 0.628318531 kz_ny = 0.628318531
############################
A(data) = 8.04515881 (not used)
A(ran) = 8.03911435 (used)
Ngal = 478293
weighted Ngal = 0
Nran = 23820508
weighted Nran = 0
SN(data) = 3491.4711
SN(ran) = 70.0236015
SN(data+ran) = 3561.4947
############################
13 columns: k_central k_mean P_0(k) sigma^{lin}_{P_0(k)} P^img_1(k) sigma^{lin}_{P_1(k)} P_2(k) sigma^{lin}_{P_2(k)} P^img_3(k) sigma^{lin}_{P_3(k)} P_4(k) sigma^{lin}_{P_4(k)} N_modes
### header ###
0.00050000 0 0 0 0 0 0 0 0 0 0 0 0
0.00150000 0.00179520 451.49065297 0 1.14855440 0 3716.50333165 0 -5481.70871587 0 -9598.31050484 0 3
0.00250000 0.00253879 8822.89345314 0 -11844.95164449 0 3049.40683365 0 11562.93953136 0 13353.77734753 0 6
0.00350000 0.00331552 21841.04649077 0 -19345.67664639 0 5837.24106579 0 22741.55866827 0 6294.12947711 0 7
0.00450000 0.00420575 40033.87267703 0 -16097.38871434 0 14986.05947229 0 6354.94975734 0 -12331.35887377 0 24
0.00550000 0.00557378 54703.15293627 0 -3920.52198876 0 21492.82187522 0 18778.44144593 0 -2332.28557212 0 45
0.00650000 0.00659388 53525.27902206 0 4422.51905139 0 35678.35226312 0 -4905.29455813 0 18058.07599323 0 40
0.00750000 0.00754703 63338.90195532 0 -19930.95973630 0 4924.52718634 0 43159.03635710 0 -9395.05583814 0 57
0.00850000 0.00846663 67825.51869509 0 -10079.86805585 0 25901.60017151 0 19357.41331069 0 -11846.39104672 0 75
0.00950000 0.00948925 93065.87962842 0 -17549.08122131 0 -1833.52162834 0 -5084.61085857 0 -28799.78119279 0 112
0.01050000 0.01054430 85371.94255844 0 11502.04174486 0 11296.42867298 0 -1744.16796706 0 11184.59819231 0 105
0.01150000 0.01145670 80587.70172755 0 25338.01883824 0 -652.49653049 0 -26936.30892581 0 15589.39045166 0 144
0.01250000 0.01249090 64301.86204480 0 11696.69321517 0 8286.14036291 0 -10585.66292589 0 7508.34276137 0 169
0.01350000 0.01339930 63753.67124303 0 -4985.97858908 0 2219.49179920 0 21030.88448379 0 1024.84552735 0 180
0.01450000 0.01448870 67123.97619458 0 -8392.97722508 0 3384.11214060 0 362.13699168 0 -17886.34423529 0 267
0.01550000 0.01550050 75256.70949712 0 -2405.80580892 0 -4969.68012695 0 -2951.39461436 0 -12401.00379688 0 238
0.01650000 0.01653350 79181.29502909 0 -353.85821441 0 12940.66890854 0 -8503.58975002 0 4959.19463535 0 315
0.01750000 0.01747870 76591.36753076 0 3383.55852436 0 11122.48245007 0 -13749.05934355 0 10219.96618178 0 297
0.01850000 0.01844180 72083.71337384 0 11292.44263604 0 17306.04369154 0 4468.49134404 0 -928.14537855 0 388
0.01950000 0.01947590 70153.58571145 0 2917.40257717 0 34542.77462972 0 -1057.07706490 0 10980.00377431 0 399
0.02050000 0.02045430 67189.08146451 0 4508.28527943 0 52207.56164539 0 5260.67189551 0 6103.92908137 0 462
0.02150000 0.02154770 64622.29512505 0 4071.79209043 0 46762.30302283 0 4775.58227288 0 15425.52004435 0 571
0.02250000 0.02255340 68729.68473978 0 -1734.78970794 0 47280.04493135 0 10391.83080762 0 9467.09238341 0 510
0.02350000 0.02348930 68234.30892739 0 -4201.41579708 0 46167.05484058 0 1379.40129823 0 11495.95196621 0 555
0.02450000 0.02439640 74437.13601404 0 -4223.27256628 0 45594.72637070 0 12752.88227962 0 16221.73092205 0 592
0.02550000 0.02547300 77474.49615829 0 -1782.64429580 0 41214.51467245 0 12543.06172431 0 12126.74231113 0 837
0.02650000 0.02652900 77228.24765433 0 3263.84454842 0 36220.12111650 0 12265.03564811 0 19230.96736127 0 723
0.02750000 0.02749970 74572.88271632 0 5918.22404952 0 36667.44303917 0 10495.42347862 0 17786.47186543 0 826
0.02850000 0.02848090 71123.85353531 0 7503.27163660 0 40233.94958651 0 4851.58271044 0 21425.83431007 0 831
0.02950000 0.02946900 61072.61851144 0 5390.05201102 0 32406.25883272 0 1992.64200831 0 14816.09928633 0 996
0.03050000 0.03053250 59488.39027639 0 3238.58857551 0 33608.93475452 0 12838.24990397 0 22305.75196340 0 1041
0.03150000 0.03150510 57681.05469624 0 -2330.68008503 0 27875.90640992 0 5678.34213232 0 17507.56000324 0 1036
0.03250000 0.03246190 61717.80287862 0 -3883.61793014 0 28210.29061944 0 7169.17530753 0 5511.53755893 0 1059
0.03350000 0.03345080 58443.49498325 0 -867.68605611 0 18003.26798537 0 5564.09788484 0 6534.72002309 0 1302
0.03450000 0.03451200 61280.99966453 0 596.07528491 0 18549.68721517 0 3869.94360899 0 624.64299018 0 1339
0.03550000 0.03553350 56845.75851192 0 2029.53499461 0 15928.75720735 0 636.24014319 0 5712.88778575 0 1365
0.03650000 0.03647120 57704.63874811 0 3358.56828724 0 17266.51549194 0 696.09491670 0 -13.93728887 0 1308
0.03750000 0.03744890 53260.42901240 0 4521.68279246 0 17720.37008626 0 561.79979621 0 3610.12043479 0 1579
0.03850000 0.03847530 49943.60338972 0 4396.89769176 0 19029.56177281 0 -1716.35428711 0 9010.93474553 0 1662
0.03950000 0.03950240 45592.51190574 0 3174.24729598 0 16496.65674730 0 3465.39407709 0 8323.24372337 0 1683
0.04050000 0.04050350 46632.64609920 0 169.72655991 0 20349.49361445 0 3030.96034051 0 9858.64300598 0 1822
0.04150000 0.04152450 47323.33772139 0 -2435.77859220 0 16577.81688822 0 2774.06026006 0 6882.28029915 0 1887
0.04250000 0.04250150 47580.76927342 0 810.55839621 0 17977.58019180 0 -33.17733553 0 1675.07666019 0 1920
0.04350000 0.04349210 46834.60530390 0 882.40117579 0 15421.75545391 0 -3430.15086719 0 -843.83294675 0 2005
0.04450000 0.04448520 46780.12946579 0 1717.95977421 0 18787.74219878 0 -2637.84852014 0 -668.87914229 0 2151
0.04550000 0.04548030 45037.45626258 0 115.79880188 0 18804.90430224 0 -461.48342612 0 -4646.20215737 0 2274
0.04650000 0.04648670 45998.20188710 0 480.05171484 0 19039.52686515 0 2188.23462623 0 -2808.76092605 0 2311
0.04750000 0.04749250 44260.62195330 0 452.04094751 0 19447.98492771 0 2635.01400499 0 165.36517117 0 2568
0.04850000 0.04851840 45062.25827017 0 1081.35645876 0 17087.36527638 0 3931.56109660 0 1746.28278110 0 2493
0.04950000 0.04949480 44034.08218752 0 739.68555228 0 16739.69427707 0 1919.58680916 0 5857.33733534 0 2644
0.05050000 0.05050630 43715.75284898 0 -57.38154831 0 17028.12833860 0 3527.64268722 0 7257.53245958 0 2829
0.05150000 0.05149060 42209.69522715 0 1116.75468121 0 15032.78468303 0 3620.59485407 0 3274.02001492 0 2784
0.05250000 0.05249300 41780.75336367 0 1463.18558013 0 16696.62293353 0 1596.52958793 0 1658.78927038 0 3055
0.05350000 0.05348950 39730.71242350 0 2680.80914044 0 16755.97059455 0 1443.37719103 0 5808.47516591 0 3009
0.05450000 0.05448610 37349.49824800 0 2352.75830071 0 14482.37941629 0 502.22183082 0 6552.65718930 0 3336
0.05550000 0.05550870 36286.55506541 0 804.94251306 0 13637.00741639 0 1057.73033207 0 4212.34418168 0 3349
0.05650000 0.05647670 35512.59956059 0 932.73707165 0 13263.09500726 0 2709.50860637 0 3155.44648844 0 3324
0.05750000 0.05747970 35158.61733614 0 917.96880481 0 14856.95616491 0 -224.01527573 0 3393.42396577 0 3639
0.05850000 0.05849280 33548.25841451 0 1069.13039770 0 12385.61326539 0 -834.38050306 0 2676.94489908 0 3846
0.05950000 0.05951020 33776.23758253 0 83.66436862 0 14007.93029781 0 757.46770594 0 195.05671740 0 3787
0.06050000 0.06049470 33741.69192909 0 -232.40477625 0 14085.76874129 0 -1077.16115489 0 1273.46129437 0 3930
0.06150000 0.06148310 33926.93192331 0 -41.75506557 0 14510.72456783 0 -64.68275002 0 -139.10493839 0 4083
0.06250000 0.06249100 33153.30858823 0 1202.21088416 0 12311.65013560 0 764.65253751 0 230.47044110 0 4303
0.06350000 0.06350600 32970.06161248 0 542.78307833 0 12987.83701227 0 1707.72894608 0 -7.88244340 0 4470
0.06450000 0.06451750 32370.82739330 0 238.93412619 0 11239.73836990 0 4260.55308394 0 -831.77739949 0 4479
0.06550000 0.06550280 31865.37576533 0 303.70722638 0 10620.30823025 0 2460.02698356 0 -588.18514625 0 4636
0.06650000 0.06648880 31063.73944846 0 1321.91378777 0 9545.76125125 0 129.46205071 0 -1496.62400109 0 4653
0.06750000 0.06749660 30250.92008352 0 1558.04218686 0 9179.94271157 0 -150.82499421 0 -902.69121102 0 5220
0.06850000 0.06852730 28360.54206723 0 531.99199056 0 8728.83405381 0 519.01854757 0 -109.36843852 0 5029
0.06950000 0.06949320 27981.20421895 0 628.01783478 0 7440.73514603 0 484.28466462 0 -320.96455184 0 5040
0.07050000 0.07048030 28050.51697231 0 -242.39644216 0 7336.76601598 0 2325.63110491 0 -1138.81075225 0 5475
0.07150000 0.07148790 27624.23246679 0 132.13158822 0 5573.32113141 0 1069.07503607 0 -1557.58822154 0 5509
0.07250000 0.07249820 27261.72455223 0 858.81269500 0 5453.40785363 0 1618.18705527 0 -1126.50939937 0 5916
0.07350000 0.07351270 27140.59331871 0 -301.64002334 0 4576.64581286 0 986.35591182 0 -18.00149641 0 5721
0.07450000 0.07449140 27191.30456638 0 -183.88806336 0 4743.87113460 0 319.09111448 0 -1652.32303269 0 6028
0.07550000 0.07549160 26961.11093340 0 537.07418765 0 4835.32853760 0 -1953.29096591 0 -1451.83644720 0 6183
0.07650000 0.07648840 27238.36194686 0 593.64158792 0 6859.70382884 0 -2018.28551259 0 -1544.23499781 0 6330
0.07750000 0.07749960 26131.24018825 0 897.45178692 0 7609.04555560 0 -2552.58054672 0 -1891.35238087 0 6583
0.07850000 0.07848650 26271.30509720 0 1015.74186189 0 9615.59440388 0 -1719.91957570 0 -1304.02091087 0 6549
0.07950000 0.07947320 24808.98315840 0 1033.53176617 0 9724.60144172 0 -37.76692489 0 -1601.96609941 0 6828
0.08050000 0.08048110 24935.42910783 0 300.54829211 0 10519.31755558 0 193.41469163 0 -1481.65421793 0 7147
0.08150000 0.08149960 24462.86228457 0 113.23223699 0 10495.32382770 0 1744.62193237 0 -2521.45624165 0 7386
0.08250000 0.08250610 24366.31161215 0 706.90372019 0 10765.95359091 0 90.12174846 0 -1479.83835666 0 7227
0.08350000 0.08350160 23513.07826163 0 567.25070171 0 8571.92813880 0 1210.93587612 0 -289.28995223 0 7798
0.08450000 0.08449610 23214.23621477 0 102.09679992 0 8024.37953187 0 1550.91160967 0 -378.34355352 0 7371
0.08550000 0.08548940 23017.37027950 0 153.60857667 0 7736.20013381 0 1614.73248993 0 -760.91009172 0 8256
0.08650000 0.08650700 22365.87468717 0 296.67519289 0 7205.81363035 0 1957.11091797 0 -631.77467459 0 8037
0.08750000 0.08749060 21675.40451148 0 1229.93598550 0 6103.76299650 0 542.29035988 0 76.98443506 0 8155
0.08850000 0.08849210 20939.53780403 0 350.80003830 0 6157.31983165 0 726.90587497 0 -148.86851442 0 8718
0.08950000 0.08949900 20759.28035598 0 499.50357508 0 6389.48433845 0 -36.84913989 0 1257.06318131 0 8571
0.09050000 0.09049190 20408.28765923 0 -74.68958502 0 6781.61072190 0 179.32405107 0 1720.06351593 0 8932
0.09150000 0.09150830 20377.94948923 0 -61.21833031 0 6447.85763489 0 285.66044416 0 1394.65896183 0 9285
0.09250000 0.09250820 20849.07691026 0 107.80868012 0 6861.13215875 0 1017.69059106 0 1182.28069949 0 9204
0.09350000 0.09350330 20289.59233718 0 272.85419327 0 6034.53882174 0 314.21929156 0 1215.48660162 0 9349
0.09450000 0.09448040 19709.51323993 0 1005.59075449 0 5819.85751583 0 447.76149397 0 1283.13850626 0 9564
0.09550000 0.09549270 19108.06455578 0 901.74120556 0 6260.48068198 0 279.51308942 0 1442.09280135 0 10155
0.09650000 0.09649430 18226.04316073 0 623.57893976 0 5629.33602267 0 348.76715946 0 1373.61047235 0 9913
0.09750000 0.09749140 17424.29612061 0 313.97348595 0 5603.65930142 0 1003.65420488 0 1876.44903167 0 10476
0.09850000 0.09850240 17849.03050065 0 -10.84920640 0 5426.35816410 0 362.83565538 0 1506.63338272 0 10575
0.09950000 0.09950330 17473.67868930 0 210.71298469 0 5722.06674303 0 -357.84203688 0 1365.63839848 0 10882
0.10050000 0.10051200 17351.32950005 0 576.74079132 0 5197.29390825 0 73.07789742 0 2434.71564902 0 10875
0.10150000 0.10150300 17089.35829484 0 274.39213919 0 5300.67620508 0 -73.68266780 0 2182.80918707 0 11118
0.10250000 0.10250800 17088.36178561 0 29.22064026 0 5340.16011538 0 127.24647851 0 1277.67985012 0 11575
0.10350000 0.10349800 16709.57755356 0 179.58867963 0 5990.21630549 0 -186.15899718 0 377.08905912 0 11364
0.10450000 0.10450100 16656.31967119 0 511.18709223 0 5203.95944779 0 -599.85759107 0 -161.41567290 0 12093
0.10550000 0.10551000 16114.99371080 0 387.09290459 0 5703.06663364 0 -433.57784588 0 -827.52562676 0 12067
0.10650000 0.10649700 15935.06843250 0 133.97070138 0 5212.00902793 0 -281.79841726 0 -1419.77099452 0 12054
0.10750000 0.10749900 16201.35784439 0 -203.81271187 0 5383.03215708 0 317.70485942 0 -1568.85984820 0 12807
0.10850000 0.10850100 16037.26599058 0 -75.00880014 0 5171.07464308 0 -226.98265878 0 -2527.56816495 0 12736
0.10950000 0.10950300 15998.84502345 0 422.72696755 0 5046.93173721 0 99.44519957 0 -2648.65510917 0 12933
0.11050000 0.11050200 15762.67233507 0 288.51821119 0 4736.91771461 0 340.88698589 0 -2746.97735356 0 13428
0.11150000 0.11150900 15359.30754193 0 218.79910351 0 4435.24115261 0 182.35122467 0 -1974.29516609 0 13453
0.11250000 0.11250000 15347.57087762 0 -1.63705430 0 4461.53792405 0 946.33720823 0 -2453.08463590 0 13668
0.11350000 0.11349100 15202.52342250 0 106.40426644 0 4439.40434674 0 891.06084104 0 -2165.70244523 0 13791
0.11450000 0.11448600 14871.46091042 0 375.18683371 0 4022.91884868 0 281.76520029 0 -1902.76794776 0 14205
0.11550000 0.11549300 14715.78402347 0 526.82564380 0 4129.88857876 0 -47.86621381 0 -1047.94571862 0 14776
0.11650000 0.11649800 14323.82372489 0 482.98477368 0 4253.47786838 0 18.24641624 0 49.15248578 0 14553
0.11750000 0.11747300 14079.34679289 0 184.83696159 0 4587.39704026 0 224.36959013 0 502.93156684 0 14568
0.11850000 0.11849100 13989.66096186 0 131.18711892 0 4568.33049693 0 683.69612737 0 445.24254007 0 16015
0.11950000 0.11950300 13964.30533803 0 29.17059335 0 4724.04060085 0 417.52961828 0 816.96816505 0 15270
0.12050000 0.12050700 13921.45544098 0 311.03489095 0 4622.89491363 0 239.70254553 0 1091.20529169 0 15999
0.12150000 0.12150000 13887.13123404 0 164.11842739 0 4663.62999664 0 234.26824851 0 1656.27585265 0 15670
0.12250000 0.12250700 13584.30315025 0 73.59431065 0 4559.27333522 0 -112.10618156 0 1549.35041187 0 16887
0.12350000 0.12352200 13460.07166579 0 49.68661473 0 4589.78866242 0 235.27140114 0 1283.62568855 0 16407
0.12450000 0.12449800 13541.12108346 0 33.88507854 0 4391.85978397 0 498.36755455 0 1234.80780843 0 16306
0.12550000 0.12549900 13462.50757725 0 166.59309199 0 4904.99560536 0 60.71232506 0 969.35435706 0 17523
0.12650000 0.12650100 13225.44910288 0 211.43822197 0 4449.26978815 0 -277.07496349 0 792.48836210 0 17154
0.12750000 0.12750600 13056.70687264 0 304.45571554 0 4679.39698718 0 240.52411204 0 1183.68688474 0 18007
0.12850000 0.12850300 12910.33073854 0 208.83954733 0 4572.63763128 0 -37.04545221 0 1294.77551964 0 17496
0.12950000 0.12949900 12950.30183114 0 167.41576572 0 4672.06710815 0 -17.17007554 0 1468.00204143 0 18405
0.13050000 0.13049000 12884.08932872 0 60.08718160 0 4746.22953979 0 165.78813397 0 1147.33644236 0 18100
0.13150000 0.13148800 12757.64337929 0 139.49579146 0 4676.00885579 0 294.58805966 0 1452.67794388 0 19059
0.13250000 0.13249300 12768.82642736 0 169.29141755 0 4506.87909418 0 -145.07181424 0 1422.69408827 0 18957
0.13350000 0.13349100 12367.23320619 0 100.80554540 0 4079.06660784 0 328.30661043 0 577.23240254 0 19468
0.13450000 0.13450700 12495.67217408 0 115.67589908 0 4288.06781112 0 198.41827522 0 489.47094156 0 19953
0.13550000 0.13551000 12250.53090260 0 179.64071956 0 3944.48249967 0 254.91591983 0 696.18792423 0 19956
0.13650000 0.13649900 12168.15280595 0 217.92660431 0 3973.13767630 0 309.08284008 0 -4.26344296 0 19723
0.13750000 0.13749600 11733.89622656 0 308.80271026 0 3672.87837187 0 352.22504650 0 1122.92196613 0 20946
0.13850000 0.13851100 11745.74361412 0 52.25450830 0 3308.35529419 0 752.25485541 0 890.34999778 0 20955
0.13950000 0.13949800 11549.09912534 0 37.24718997 0 3141.32927430 0 783.64932520 0 1442.93429804 0 20506
0.14050000 0.14048300 11466.49958219 0 204.03748006 0 3298.51199742 0 127.58086272 0 1253.75255619 0 21447
0.14150000 0.14148400 11321.11995732 0 229.01110869 0 3201.61808294 0 -33.56796715 0 1450.24203242 0 21771
0.14250000 0.14249400 11126.13631726 0 213.85420324 0 3210.17699002 0 -343.04276753 0 1489.77023202 0 22470
0.14350000 0.14350900 10964.51359189 0 176.12968536 0 3100.82671011 0 -63.73407323 0 1405.14445344 0 22519
0.14450000 0.14449900 10866.31314307 0 107.12452117 0 3217.14148233 0 1.69261522 0 622.38645038 0 22218
0.14550000 0.14550500 10748.52575165 0 63.48815689 0 2822.15843908 0 322.41834809 0 325.68911284 0 23559
0.14650000 0.14650700 10564.91338918 0 166.85107716 0 2716.66132820 0 97.30015809 0 224.57664260 0 23044
0.14750000 0.14750500 10421.54892743 0 191.64533412 0 2413.26855585 0 244.76038351 0 -266.34034458 0 23649
0.14850000 0.14849900 10320.34787859 0 73.99546098 0 2343.75650064 0 257.50795107 0 -298.54641578 0 23640
0.14950000 0.14949500 10247.86844033 0 104.77641325 0 2313.90551293 0 -103.78920477 0 -290.91979845 0 24457
0.15050000 0.15050000 10148.08464906 0 49.85690709 0 2381.50205594 0 -128.72795557 0 -409.93511069 0 24591
0.15150000 0.15149900 10120.08273959 0 242.16281611 0 2658.93022660 0 -258.34501883 0 -80.07084561 0 25020
0.15250000 0.15250500 9975.69962396 0 115.17100107 0 2431.69290435 0 123.12978815 0 368.98301012 0 25297
0.15350000 0.15350100 10024.75002290 0 -19.14272093 0 2338.27569985 0 512.41944198 0 260.61263095 0 25452
0.15450000 0.15450400 10028.79142146 0 -68.23109795 0 2252.87485853 0 415.56206616 0 171.33093978 0 26061
0.15550000 0.15549900 9882.24920249 0 102.16456255 0 2109.17822703 0 329.42048631 0 -62.90021645 0 26128
0.15650000 0.15649500 9921.25700282 0 225.43917670 0 2052.16682654 0 -155.92158533 0 173.97058202 0 26331
0.15750000 0.15749700 9659.51831644 0 289.01978751 0 2447.17201444 0 -407.65531901 0 137.52823934 0 27345
0.15850000 0.15849900 9413.38053572 0 280.43319961 0 2479.90180661 0 -281.55593335 0 227.46984107 0 26980
0.15950000 0.15949700 9314.80362786 0 242.02109035 0 2673.49033374 0 115.00934512 0 570.85474344 0 27777
0.16050000 0.16050000 9207.56816199 0 92.82583163 0 2844.21451011 0 23.70651178 0 775.13470742 0 28224
0.16150000 0.16150500 9087.33378678 0 193.37372403 0 3078.81492837 0 32.39474361 0 997.50020675 0 28075
0.16250000 0.16249700 9099.84551383 0 286.89611561 0 3243.34967518 0 152.46148382 0 1095.68626154 0 28590
0.16350000 0.16349900 8739.08702659 0 143.58147932 0 3083.58710037 0 60.05075365 0 1271.22468475 0 29163
0.16450000 0.16449100 8752.53990124 0 -6.27956937 0 3230.88223743 0 58.06172122 0 1187.52898145 0 28996
0.16550000 0.16550500 8807.56935559 0 -90.59077214 0 2961.59222552 0 311.94725051 0 881.00274117 0 30777
0.16650000 0.16650700 8801.60137251 0 23.69510728 0 2949.41266822 0 66.65517396 0 773.12618769 0 29211
0.16750000 0.16749900 8819.53853872 0 52.51537228 0 2608.11932801 0 175.40887701 0 366.56259991 0 30922
0.16850000 0.16850800 8627.05724407 0 49.77264669 0 2576.72928715 0 40.24690421 0 442.30173060 0 30867
0.16950000 0.16949900 8662.27830932 0 248.10090391 0 2489.71188640 0 -109.55533936 0 13.01252830 0 30852
0.17050000 0.17049200 8503.81119652 0 134.84430780 0 2643.68363532 0 -24.95624508 0 432.64777059 0 31257
0.17150000 0.17149500 8387.93931729 0 144.77175424 0 2671.27586877 0 -32.30073958 0 429.64163440 0 32608
0.17250000 0.17250900 8323.74197799 0 34.95610452 0 2689.54520472 0 261.82172882 0 471.76075801 0 32361
0.17350000 0.17350400 8392.47897046 0 -32.45353766 0 2876.68963881 0 158.60662410 0 261.74090085 0 32508
0.17450000 0.17449800 8322.18078019 0 116.72666270 0 2706.78481447 0 69.29636632 0 248.54822583 0 32791
0.17550000 0.17549800 8240.63310790 0 201.21293000 0 2713.04067799 0 75.73835563 0 465.43181715 0 33633
0.17650000 0.17650100 8104.27742776 0 151.93444116 0 2542.63759903 0 -21.41874802 0 658.71806981 0 33984
0.17750000 0.17750300 8047.54283539 0 -39.79648203 0 2409.44860379 0 363.28187007 0 656.90220854 0 34069
0.17850000 0.17849800 8100.46854802 0 -31.99780077 0 2266.75955385 0 279.42672529 0 513.03395601 0 34536
