### header ###
fiducial parameters:
Omega_m = 0.31
Omega_nu = 0
Omega_de = 0.69
Omega_k = 0
H_0 = 100
w_de = -1
zeff = 0
beta = 0
fgrowth = 0
b_1 = 2
gamma = 0.55
Lx = 3500 Ly = 3500 Lz = 3500
nx = 700 ny = 700 nz = 700
xoffset = -685.467585 yoffset = -31.7331281 zoffset = 572.489161
bins = 400 dk = 0.001
kx_ny = 0.628318531 ky_ny = 0.628318531 kz_ny = 0.628318531
############################
A(data) = 8.03414003 (not used)
A(ran) = 8.03009592 (used)
Ngal = 477264
weighted Ngal = 0
Nran = 23820508
weighted Nran = 0
SN(data) = 3487.56213
SN(ran) = 69.9450477
SN(data+ran) = 3557.50718
############################
13 columns: k_central k_mean P_0(k) sigma^{lin}_{P_0(k)} P^img_1(k) sigma^{lin}_{P_1(k)} P_2(k) sigma^{lin}_{P_2(k)} P^img_3(k) sigma^{lin}_{P_3(k)} P_4(k) sigma^{lin}_{P_4(k)} N_modes
### header ###
0.00050000 0 0 0 0 0 0 0 0 0 0 0 0
0.00150000 0.00179520 52182.98108429 0 -50831.16094719 0 73021.09639299 0 32736.76772855 0 -55385.42959159 0 3
0.00250000 0.00253879 94371.41744779 0 -44024.00637193 0 50071.15657163 0 -32549.64543912 0 -12750.88926115 0 6
0.00350000 0.00331552 93127.33103117 0 -9975.03528447 0 8781.35009042 0 5217.87736009 0 122218.53581318 0 7
0.00450000 0.00420575 77658.40747353 0 30600.91627104 0 -221.88938937 0 -30118.05218570 0 35984.39132111 0 24
0.00550000 0.00557378 50057.09471911 0 12009.92928429 0 -433.02312240 0 -5823.10170700 0 33614.69236342 0 45
0.00650000 0.00659388 59813.91662606 0 -11130.78669369 0 -28084.17683976 0 24965.32438484 0 27456.26529929 0 40
0.00750000 0.00754703 63123.10234461 0 -12616.91413085 0 -6621.21702458 0 2602.91533534 0 16053.65303131 0 57
0.00850000 0.00846663 79323.02078677 0 -11407.59481415 0 -10121.89860086 0 3191.07722971 0 14886.85144192 0 75
0.00950000 0.00948925 92823.17426840 0 -104.44258266 0 6392.27456430 0 -2738.30772322 0 14478.06120961 0 112
0.01050000 0.01054430 74428.38887744 0 4386.61150200 0 194.15210846 0 -20265.45466907 0 43334.53270547 0 105
0.01150000 0.01145670 87442.57802278 0 8369.48175182 0 21570.54959545 0 10984.47699354 0 13393.96988662 0 144
0.01250000 0.01249090 71063.84153479 0 1688.26379905 0 29077.14292950 0 -10142.28275085 0 20928.79764896 0 169
0.01350000 0.01339930 78928.62457673 0 7318.03164239 0 26480.23986653 0 16136.80619070 0 3754.73606925 0 180
0.01450000 0.01448870 66693.92709862 0 10096.64262795 0 28889.02413083 0 2728.53086041 0 15521.73854702 0 267
0.01550000 0.01550050 61498.90301696 0 13924.77713843 0 28688.06143537 0 1285.09830775 0 4072.20176645 0 238
0.01650000 0.01653350 59502.34140566 0 -647.24271237 0 28699.46592993 0 12251.63813508 0 14436.76143804 0 315
0.01750000 0.01747870 60965.65985369 0 -6335.00850034 0 20169.12544315 0 14406.97688428 0 2731.94113645 0 297
0.01850000 0.01844180 61321.41365012 0 -837.96129290 0 20795.59758139 0 9470.22585134 0 -8395.03667750 0 388
0.01950000 0.01947590 63691.00188455 0 2491.14021630 0 21281.11902469 0 5079.38472125 0 4042.84903336 0 399
0.02050000 0.02045430 63065.96914854 0 -1283.11636161 0 26170.76838785 0 -1.22348082 0 9873.26954706 0 462
0.02150000 0.02154770 68678.41987587 0 -3329.84667666 0 21650.71322713 0 5749.68112113 0 14780.55712366 0 571
0.02250000 0.02255340 65761.63734889 0 979.69147951 0 19715.04940234 0 9976.28645717 0 5043.30001467 0 510
0.02350000 0.02348930 73745.11571288 0 -869.09999199 0 24934.32187535 0 -7269.95560803 0 1582.87741142 0 555
0.02450000 0.02439640 65989.72724015 0 3270.60973888 0 30310.04629805 0 -3582.48391205 0 10612.71261542 0 592
0.02550000 0.02547300 66802.32515859 0 7214.66041788 0 33400.33215494 0 -3846.45920805 0 18172.67455510 0 837
0.02650000 0.02652900 61561.12948244 0 287.95462986 0 32848.37676273 0 11660.59743626 0 12714.01841951 0 723
0.02750000 0.02749970 64375.93589784 0 -1767.65236800 0 32756.69791323 0 8385.42589956 0 2673.08065772 0 826
0.02850000 0.02848090 64625.83826899 0 671.29623080 0 27083.57084590 0 9247.14065089 0 3791.21937953 0 831
0.02950000 0.02946900 61592.35343843 0 -663.72165339 0 22737.57263133 0 3445.10957802 0 -4993.64063786 0 996
0.03050000 0.03053250 65068.06692225 0 -2405.78366427 0 18205.33791331 0 1057.44355885 0 -4594.67155767 0 1041
0.03150000 0.03150510 66729.35853804 0 49.02991515 0 17930.96570431 0 4275.19069735 0 -15538.90065049 0 1036
0.03250000 0.03246190 65343.65708699 0 -832.51813802 0 13252.35485219 0 -4311.29754859 0 -13100.66400217 0 1059
0.03350000 0.03345080 65504.75941310 0 212.75361416 0 19249.56886696 0 -1989.13208134 0 -11173.19369774 0 1302
0.03450000 0.03451200 66292.44460070 0 2490.57552773 0 19908.04002393 0 -1524.62591055 0 -7660.78652947 0 1339
0.03550000 0.03553350 65810.24485484 0 2780.39362986 0 23760.43399808 0 5543.76909647 0 -7240.47000703 0 1365
0.03650000 0.03647120 58964.89075896 0 6074.29954016 0 22226.03122471 0 3699.46302376 0 -1102.88991607 0 1308
0.03750000 0.03744890 58447.59174344 0 7764.21311560 0 21569.22091647 0 -1902.07039130 0 1851.91275987 0 1579
0.03850000 0.03847530 51474.79518889 0 3185.87323704 0 26425.32113543 0 4119.19271298 0 -3348.39282073 0 1662
0.03950000 0.03950240 47836.31853024 0 2353.31191696 0 22044.88799068 0 -251.46246172 0 1778.51431864 0 1683
0.04050000 0.04050350 45815.39780434 0 3153.30952975 0 21002.31788575 0 3636.80473761 0 -102.23542543 0 1822
0.04150000 0.04152450 44399.91179952 0 170.92790716 0 15316.34692163 0 2502.79937433 0 -4978.94766282 0 1887
0.04250000 0.04250150 43463.41456636 0 -945.74926778 0 16258.26959396 0 4462.02510634 0 -4031.02379045 0 1920
0.04350000 0.04349210 43202.88276338 0 -899.05395232 0 12899.47986022 0 1851.31485433 0 -5463.52795851 0 2005
0.04450000 0.04448520 44877.90406194 0 69.59221884 0 11701.89720783 0 2212.36122201 0 -10292.75564514 0 2151
0.04550000 0.04548030 43598.93982214 0 1267.47116664 0 12115.11637007 0 -924.37968088 0 -6837.08306924 0 2274
0.04650000 0.04648670 42362.93620264 0 2307.16246711 0 13653.50518037 0 -3638.67596050 0 -8520.09858632 0 2311
0.04750000 0.04749250 40629.12085929 0 2612.06107564 0 14671.49472420 0 -852.79599369 0 -2617.67474433 0 2568
0.04850000 0.04851840 38001.87962632 0 1332.74252145 0 16969.88791005 0 145.99635336 0 -4529.52199844 0 2493
0.04950000 0.04949480 37954.93296909 0 916.64234030 0 19321.64970153 0 1182.09246996 0 -158.21244933 0 2644
0.05050000 0.05050630 36990.09058439 0 1037.80346909 0 16621.10967826 0 3659.69123301 0 -962.92687250 0 2829
0.05150000 0.05149060 36276.92214282 0 291.74690111 0 16245.86859016 0 3499.65185008 0 2890.04286254 0 2784
0.05250000 0.05249300 37258.26229150 0 -376.38043033 0 15941.37965765 0 3695.35519125 0 4034.29012627 0 3055
0.05350000 0.05348950 37315.06331782 0 -281.63343962 0 18617.33911982 0 3232.31056733 0 8923.48552412 0 3009
0.05450000 0.05448610 37400.43094217 0 215.47629883 0 17179.15484912 0 1167.79809862 0 5606.19486380 0 3336
0.05550000 0.05550870 37167.57995123 0 1434.71863303 0 18287.27311697 0 412.32008946 0 8922.10148351 0 3349
0.05650000 0.05647670 36591.15472117 0 525.11054069 0 18660.74263311 0 -1704.88335860 0 6446.40716034 0 3324
0.05750000 0.05747970 36814.59423601 0 345.21737213 0 18990.47646620 0 -2318.73304655 0 6011.61910936 0 3639
0.05850000 0.05849280 35519.57512522 0 2112.09024846 0 22091.17030842 0 -64.30097626 0 5038.20674525 0 3846
0.05950000 0.05951020 34655.82306612 0 1967.67391585 0 17200.96732902 0 2192.02136132 0 2337.77744523 0 3787
0.06050000 0.06049470 32297.75004949 0 1103.58304360 0 16491.00986164 0 2495.63558017 0 1717.88226794 0 3930
0.06150000 0.06148310 32074.86415090 0 -17.41676694 0 13207.17976693 0 5081.12307625 0 -107.79063223 0 4083
0.06250000 0.06249100 31077.80130098 0 -766.09858313 0 11701.56503809 0 5231.55168124 0 289.36413681 0 4303
0.06350000 0.06350600 31300.13358333 0 498.73626297 0 8928.02517729 0 2869.09402398 0 -2718.49933412 0 4470
0.06450000 0.06451750 30710.86445649 0 689.89552203 0 8136.07714464 0 1291.75277497 0 -2048.04792171 0 4479
0.06550000 0.06550280 30144.51504201 0 921.42004846 0 7315.77288812 0 -2206.63683008 0 -600.62158148 0 4636
0.06650000 0.06648880 29108.25616224 0 579.47565555 0 8479.21956309 0 -1293.00394767 0 400.09513562 0 4653
0.06750000 0.06749660 30088.82124817 0 -400.52474183 0 9590.26092470 0 -1315.87937075 0 427.78480553 0 5220
0.06850000 0.06852730 29590.34518484 0 161.68473040 0 9959.02470278 0 81.91084454 0 -813.92549019 0 5029
0.06950000 0.06949320 29851.43060406 0 944.90998556 0 9812.73714728 0 1173.23461011 0 -1516.39917321 0 5040
0.07050000 0.07048030 29301.13606058 0 -119.59550206 0 8795.91019756 0 1438.60501904 0 1248.38247865 0 5475
0.07150000 0.07148790 29669.84447704 0 -552.52783140 0 8467.10643974 0 1260.72812083 0 397.73340874 0 5509
0.07250000 0.07249820 29920.30046444 0 -29.86283510 0 7845.03001446 0 812.04983836 0 270.53675569 0 5916
0.07350000 0.07351270 29530.77607732 0 781.94640164 0 8822.63878967 0 1191.90254975 0 2592.50735001 0 5721
0.07450000 0.07449140 28850.49244046 0 1113.22260959 0 8162.57321793 0 290.30639165 0 4674.21513917 0 6028
0.07550000 0.07549160 27954.96280913 0 839.80815668 0 8526.93021074 0 2197.79004255 0 3892.46471767 0 6183
0.07650000 0.07648840 27195.95494281 0 299.57724922 0 7707.40101696 0 616.52476162 0 3708.28766664 0 6330
0.07750000 0.07749960 26136.99779715 0 1184.24050098 0 8594.95857442 0 523.32346746 0 4342.65437247 0 6583
0.07850000 0.07848650 25574.08080337 0 943.55030407 0 8296.01687664 0 -116.70783975 0 3470.85273323 0 6549
0.07950000 0.07947320 24646.66287656 0 381.68407392 0 7878.77846050 0 -528.75001385 0 2222.97958151 0 6828
0.08050000 0.08048110 24497.29721476 0 741.09395199 0 7593.27856505 0 -816.17095766 0 751.44103954 0 7147
0.08150000 0.08149960 23756.78013089 0 339.98569865 0 7866.25566113 0 -105.85884372 0 609.33107219 0 7386
0.08250000 0.08250610 23674.40203424 0 807.38396068 0 7378.76334402 0 146.94414437 0 176.00346085 0 7227
0.08350000 0.08350160 23318.64823781 0 526.73817244 0 8117.86317031 0 457.05892512 0 1035.80380723 0 7798
0.08450000 0.08449610 22297.44771979 0 331.07136994 0 7929.21290005 0 620.73224505 0 107.97398993 0 7371
0.08550000 0.08548940 22626.62793665 0 567.75892142 0 8853.49735894 0 362.72382490 0 1644.79385181 0 8256
0.08650000 0.08650700 21895.41160562 0 192.20891546 0 8206.78501093 0 398.63469598 0 1835.71394866 0 8037
0.08750000 0.08749060 21885.00362030 0 293.32027847 0 9264.21417576 0 -232.12353920 0 2768.91162902 0 8155
0.08850000 0.08849210 21819.34473412 0 278.30177708 0 8666.88439645 0 655.96327539 0 1838.73669333 0 8718
0.08950000 0.08949900 21476.32411124 0 -164.52035278 0 7895.99592560 0 1135.83229687 0 1784.57088032 0 8571
0.09050000 0.09049190 21320.42577779 0 364.64598048 0 7290.21796244 0 1550.75659713 0 122.86737405 0 8932
0.09150000 0.09150830 21089.89997507 0 214.98800931 0 6801.87307632 0 -396.51102408 0 -684.29403291 0 9285
0.09250000 0.09250820 20510.15304756 0 578.38503155 0 6353.38855954 0 114.66499582 0 -714.51815796 0 9204
0.09350000 0.09350330 19945.13231207 0 847.95628052 0 6238.45782792 0 23.74305045 0 645.44013789 0 9349
0.09450000 0.09448040 19761.44244333 0 121.45565263 0 5957.27613915 0 742.74372839 0 474.30849995 0 9564
0.09550000 0.09549270 19392.84475011 0 211.84346906 0 5723.72759175 0 1057.12799760 0 453.40727239 0 10155
0.09650000 0.09649430 19110.27902074 0 880.18671083 0 5716.99561826 0 243.56567966 0 30.47757057 0 9913
0.09750000 0.09749140 18426.23079345 0 683.17240640 0 5368.64920714 0 -215.22274259 0 949.63676102 0 10476
0.09850000 0.09850240 17931.40859730 0 359.76862140 0 5605.24264387 0 108.82899486 0 1337.40397019 0 10575
0.09950000 0.09950330 18202.90200185 0 -38.74870794 0 5584.03914184 0 29.63485593 0 579.54984012 0 10882
0.10050000 0.10051200 17878.92577766 0 -198.26326267 0 6031.09532872 0 -99.00917142 0 -593.43342821 0 10875
0.10150000 0.10150300 17894.42703241 0 520.10252817 0 5403.77062147 0 -335.75274887 0 -116.00585436 0 11118
0.10250000 0.10250800 17753.80850721 0 511.37642898 0 6047.75917757 0 -621.10206070 0 -585.17015220 0 11575
0.10350000 0.10349800 17104.85954959 0 490.35562031 0 6160.16541913 0 729.64406090 0 520.68936139 0 11364
0.10450000 0.10450100 16901.79311242 0 173.11358407 0 6410.20065818 0 592.58971706 0 890.23373837 0 12093
0.10550000 0.10551000 16609.70518370 0 23.75833026 0 5906.25486639 0 1048.55801819 0 1062.74498798 0 12067
0.10650000 0.10649700 17006.86947494 0 41.61965104 0 6099.71052562 0 1052.87290317 0 1107.79717043 0 12054
0.10750000 0.10749900 17045.40116531 0 -154.27291616 0 5931.27832048 0 146.31745078 0 1462.84233807 0 12807
0.10850000 0.10850100 16438.08414901 0 452.22253364 0 5955.43813323 0 158.77270897 0 1262.54398210 0 12736
0.10950000 0.10950300 16491.89564763 0 306.63696353 0 5397.65869817 0 -558.22564975 0 289.30988242 0 12933
0.11050000 0.11050200 16125.06952639 0 317.01616081 0 5937.60061795 0 -690.07046476 0 -485.98205201 0 13428
0.11150000 0.11150900 15761.89727234 0 511.03540138 0 5642.47887223 0 -689.55670889 0 -354.37639922 0 13453
0.11250000 0.11250000 15345.13496616 0 410.48651247 0 5810.33531648 0 -428.95293580 0 -449.22304084 0 13668
0.11350000 0.11349100 15098.55429245 0 479.31208354 0 5706.41047573 0 369.69163890 0 -1154.14592212 0 13791
0.11450000 0.11448600 15159.78424870 0 -46.14347079 0 5733.51552689 0 350.88308074 0 -1072.49416998 0 14205
0.11550000 0.11549300 15070.09841767 0 -31.18664225 0 6027.61861872 0 423.76001546 0 -1542.03160517 0 14776
0.11650000 0.11649800 15117.82013764 0 162.00029165 0 5937.33488215 0 -2.53074592 0 -677.33729122 0 14553
0.11750000 0.11747300 14906.11728710 0 223.62442266 0 6107.36150207 0 289.21023150 0 22.70125541 0 14568
0.11850000 0.11849100 15160.55931144 0 -88.54449579 0 5827.56385390 0 454.59090392 0 157.53593029 0 16015
0.11950000 0.11950300 14754.53716034 0 20.34440035 0 5651.97892693 0 936.01558703 0 87.14296091 0 15270
0.12050000 0.12050700 14864.59606903 0 241.05779809 0 5046.27847005 0 567.08350961 0 -83.82613529 0 15999
0.12150000 0.12150000 14505.40985192 0 248.11751240 0 5045.19338221 0 442.06699731 0 136.32578486 0 15670
0.12250000 0.12250700 14259.27207120 0 308.78278008 0 4982.63474699 0 334.97990060 0 -9.67019204 0 16887
0.12350000 0.12352200 13922.56267346 0 340.02334455 0 4162.55193697 0 164.69972444 0 147.74135175 0 16407
0.12450000 0.12449800 13594.71113558 0 250.19135883 0 4405.10228445 0 -4.58986617 0 141.53863539 0 16306
0.12550000 0.12549900 13532.37394685 0 134.03049193 0 4578.60561436 0 -85.71817416 0 405.71655493 0 17523
0.12650000 0.12650100 13377.91501563 0 302.57784925 0 4668.97792953 0 656.86566987 0 136.69781498 0 17154
0.12750000 0.12750600 13187.13885901 0 268.59245545 0 4548.21208273 0 171.69743373 0 525.17586740 0 18007
0.12850000 0.12850300 12908.55916657 0 154.33602841 0 4347.92479909 0 618.97285264 0 937.26343804 0 17496
0.12950000 0.12949900 12845.77908485 0 67.89483145 0 4000.82956067 0 368.83906989 0 566.16450665 0 18405
0.13050000 0.13049000 12714.35058925 0 97.45339906 0 3710.61285485 0 566.61404304 0 357.31056529 0 18100
0.13150000 0.13148800 12513.49861704 0 267.95801124 0 3602.07085465 0 131.59568770 0 616.28559941 0 19059
0.13250000 0.13249300 12338.11299191 0 132.64091516 0 3022.82218176 0 -89.64818513 0 936.81168719 0 18957
0.13350000 0.13349100 12401.66813637 0 -61.85199946 0 3190.83363856 0 189.25924813 0 575.41321957 0 19468
0.13450000 0.13450700 12507.63028489 0 -75.22183167 0 3097.15069827 0 -123.30140918 0 96.80057479 0 19953
0.13550000 0.13551000 12395.57835772 0 180.86199698 0 3754.59212903 0 -219.73914389 0 19.33139335 0 19956
0.13650000 0.13649900 12379.19131699 0 408.76255149 0 3685.41224356 0 -289.92882538 0 820.66632154 0 19723
0.13750000 0.13749600 11957.11429490 0 537.93229283 0 4153.48370295 0 -165.51021862 0 1135.35618690 0 20946
0.13850000 0.13851100 11674.43784228 0 383.30174057 0 4043.40264960 0 180.22976724 0 475.56299436 0 20955
0.13950000 0.13949800 11352.23319006 0 247.44874398 0 3879.49902531 0 389.14460638 0 637.52342564 0 20506
0.14050000 0.14048300 11100.78069343 0 74.13408648 0 3803.54287705 0 288.00224086 0 131.39970755 0 21447
0.14150000 0.14148400 11160.57124745 0 -188.22066406 0 3601.01898379 0 376.98165757 0 81.26599235 0 21771
0.14250000 0.14249400 11149.16675289 0 -33.31385730 0 3232.94168985 0 -59.87957551 0 -27.09320377 0 22470
0.14350000 0.14350900 11171.64357227 0 124.33002816 0 2980.96879395 0 186.74583039 0 -303.25990446 0 22519
0.14450000 0.14449900 10971.77703697 0 230.71403225 0 3087.89423472 0 -325.16649911 0 -423.93163649 0 22218
0.14550000 0.14550500 11020.78314662 0 278.04600638 0 3409.48990908 0 -245.84547134 0 -865.58231440 0 23559
0.14650000 0.14650700 10647.25826886 0 175.42991443 0 3566.35153479 0 14.80314467 0 -546.98724006 0 23044
0.14750000 0.14750500 10439.97327593 0 463.44987100 0 3579.27293785 0 -141.10792195 0 -297.16126795 0 23649
0.14850000 0.14849900 10285.10466869 0 95.00707962 0 3383.31493321 0 574.33809683 0 -291.05266635 0 23640
0.14950000 0.14949500 10220.65266592 0 -54.55124064 0 3308.78711486 0 393.65768597 0 -549.34232355 0 24457
0.15050000 0.15050000 10212.91311087 0 30.49993667 0 2969.48679311 0 456.82308460 0 -366.44744773 0 24591
0.15150000 0.15149900 10155.86849341 0 114.01615759 0 2842.59795069 0 201.41223185 0 -528.19529038 0 25020
0.15250000 0.15250500 10016.45685162 0 245.35386012 0 2674.67507249 0 60.58720779 0 38.29297105 0 25297
0.15350000 0.15350100 9822.55829939 0 116.46646307 0 2696.17752729 0 -280.29147385 0 -173.55426260 0 25452
0.15450000 0.15450400 9737.78858058 0 142.47203237 0 2773.78345194 0 -195.99011438 0 -228.87824079 0 26061
0.15550000 0.15549900 9715.61071397 0 12.18520419 0 2919.56168051 0 119.32533734 0 -392.35115165 0 26128
0.15650000 0.15649500 9652.01128021 0 -28.13212001 0 2942.58104380 0 62.89933066 0 -750.62058027 0 26331
0.15750000 0.15749700 9649.28748830 0 157.12293257 0 2805.88212159 0 140.54323339 0 -842.23078135 0 27345
0.15850000 0.15849900 9540.52404161 0 146.54775514 0 2747.61954840 0 120.62965720 0 -516.45087545 0 26980
0.15950000 0.15949700 9312.61130754 0 213.15111062 0 2529.94871479 0 195.96796973 0 -335.00979588 0 27777
0.16050000 0.16050000 9285.79413683 0 135.79209881 0 2695.18101806 0 56.82272808 0 -282.24020302 0 28224
0.16150000 0.16150500 9170.21013805 0 83.99222016 0 2792.09707719 0 133.55106027 0 -10.92723307 0 28075
0.16250000 0.16249700 9098.83793227 0 173.66498585 0 2981.57777181 0 135.03253733 0 149.61921804 0 28590
0.16350000 0.16349900 9000.52676021 0 192.45361384 0 2804.44271937 0 -9.11368592 0 360.70201838 0 29163
0.16450000 0.16449100 8878.07792004 0 167.06145133 0 2959.18953103 0 102.87750954 0 425.57255503 0 28996
0.16550000 0.16550500 8789.55468311 0 121.82768275 0 2986.56031798 0 1.50253662 0 497.76854178 0 30777
0.16650000 0.16650700 8697.23363877 0 156.23936105 0 3063.54619245 0 -125.37082669 0 392.88040877 0 29211
0.16750000 0.16749900 8613.00646388 0 174.63602874 0 3000.88790630 0 102.41247190 0 357.27181216 0 30922
0.16850000 0.16850800 8330.21928801 0 147.37485780 0 2814.62925820 0 183.05431730 0 355.31643959 0 30867
0.16950000 0.16949900 8360.94498938 0 77.72760950 0 2775.02355232 0 268.78954283 0 93.25909170 0 30852
0.17050000 0.17049200 8335.10218325 0 -87.17363125 0 2570.62843617 0 402.35499712 0 213.62389889 0 31257
0.17150000 0.17149500 8331.53689466 0 39.62021062 0 2473.07018219 0 266.12000532 0 257.14145712 0 32608
0.17250000 0.17250900 8316.85499195 0 86.22484374 0 2155.75949754 0 223.76282672 0 463.18634967 0 32361
0.17350000 0.17350400 8247.18792419 0 100.21915508 0 2359.74493767 0 -13.45221032 0 554.23629112 0 32508
0.17450000 0.17449800 8238.64008943 0 65.57063975 0 2199.58375917 0 -140.19334792 0 503.38663939 0 32791
0.17550000 0.17549800 8183.72135833 0 74.94015173 0 2511.17005189 0 -81.62827881 0 540.01167543 0 33633
0.17650000 0.17650100 8071.54763560 0 102.14695755 0 2407.87633366 0 -362.93309184 0 261.24153900 0 33984
0.17750000 0.17750300 8079.08788880 0 211.74381813 0 2538.66263442 0 -16.06383957 0 194.73119105 0 34069
0.17850000 0.17849800 8033.21524707 0 34.54421403 0 2494.99338533 0 82.49402389 0 180.33052539 0 34536
