### header ###
fiducial parameters:
Omega_m = 0.31
Omega_nu = 0
Omega_de = 0.69
Omega_k = 0
H_0 = 100
w_de = -1
zeff = 0
beta = 0
fgrowth = 0
b_1 = 2
gamma = 0.55
Lx = 3500 Ly = 3500 Lz = 3500
nx = 700 ny = 700 nz = 700
xoffset = -685.467585 yoffset = -31.7331281 zoffset = 572.489161
bins = 400 dk = 0.001
kx_ny = 0.628318531 ky_ny = 0.628318531 kz_ny = 0.628318531
############################
A(data) = 8.02889946 (not used)
A(ran) = 8.02420963 (used)
Ngal = 477452
weighted Ngal = 0
Nran = 23820508
weighted Nran = 0
SN(data) = 3489.7025
SN(ran) = 69.893776
SN(data+ran) = 3559.59627
############################
13 columns: k_central k_mean P_0(k) sigma^{lin}_{P_0(k)} P^img_1(k) sigma^{lin}_{P_1(k)} P_2(k) sigma^{lin}_{P_2(k)} P^img_3(k) sigma^{lin}_{P_3(k)} P_4(k) sigma^{lin}_{P_4(k)} N_modes
### header ###
0.00050000 0 0 0 0 0 0 0 0 0 0 0 0
0.00150000 0.00179520 31994.36834946 0 -27905.24807069 0 22657.63044614 0 -46701.62668282 0 8552.48513642 0 3
0.00250000 0.00253879 42143.81489448 0 -944.98749183 0 5617.96474508 0 41242.41693099 0 31585.46739391 0 6
0.00350000 0.00331552 65076.59261236 0 368.18137380 0 62422.33490683 0 -68567.80735093 0 -11337.72844455 0 7
0.00450000 0.00420575 62168.66794524 0 9588.26790623 0 41596.28843219 0 -11522.19337603 0 30705.66046382 0 24
0.00550000 0.00557378 74116.03859430 0 5597.23735302 0 70791.13017451 0 -5350.35772654 0 -2647.82468481 0 45
0.00650000 0.00659388 55342.46897130 0 -5773.74128296 0 51383.44850914 0 14888.62301389 0 -11576.66921414 0 40
0.00750000 0.00754703 97601.54676713 0 154.03707564 0 106357.54123372 0 23242.13847332 0 -15351.66763780 0 57
0.00850000 0.00846663 75025.85152465 0 -3426.97310997 0 58898.23536356 0 14779.78206092 0 -9640.72858122 0 75
0.00950000 0.00948925 87265.08865593 0 7670.82912808 0 83064.13789649 0 37130.48766309 0 -5846.24286587 0 112
0.01050000 0.01054430 71713.78700165 0 3847.56644053 0 45216.60647815 0 18446.27170137 0 -21624.91471031 0 105
0.01150000 0.01145670 74939.70883756 0 10159.48914362 0 44883.77239410 0 29817.10639713 0 -26377.04579922 0 144
0.01250000 0.01249090 65035.40356403 0 3736.16778053 0 30865.87700395 0 -2384.58016224 0 -5602.87316636 0 169
0.01350000 0.01339930 67359.70598996 0 -1246.44482181 0 33816.65156812 0 4825.92813383 0 -29796.17970322 0 180
0.01450000 0.01448870 71200.58474631 0 -8209.97384048 0 23820.55672184 0 -2808.51733490 0 -20280.07013783 0 267
0.01550000 0.01550050 81236.53996193 0 -6230.93971937 0 31857.84658445 0 -1417.34615539 0 -21062.77277926 0 238
0.01650000 0.01653350 87125.57736322 0 -4597.08532448 0 21565.23487953 0 -15934.95770925 0 -29024.99227960 0 315
0.01750000 0.01747870 86397.68272964 0 -1166.07081595 0 25017.25358824 0 2856.79267111 0 -34556.06141951 0 297
0.01850000 0.01844180 94759.05953969 0 566.09696547 0 28961.88002813 0 -4365.56301252 0 -46017.68917878 0 388
0.01950000 0.01947590 86639.61302693 0 1387.26264885 0 19593.36455258 0 3223.98417907 0 -32836.75082167 0 399
0.02050000 0.02045430 87945.59373929 0 4715.84708048 0 16357.92051732 0 6781.35605843 0 -29671.39460251 0 462
0.02150000 0.02154770 81956.13035189 0 3739.63341820 0 15128.89246245 0 4478.79967844 0 -33806.24358279 0 571
0.02250000 0.02255340 73208.32940567 0 11568.03280078 0 11121.70738734 0 -1948.57415553 0 -22949.05403537 0 510
0.02350000 0.02348930 71541.16945773 0 5198.45650235 0 9044.15171999 0 2268.46469187 0 -30174.52104227 0 555
0.02450000 0.02439640 67138.37021684 0 -827.22556676 0 8419.99369764 0 -1678.08833254 0 -7759.11984619 0 592
0.02550000 0.02547300 70606.33307329 0 311.55971914 0 17509.88519146 0 -2951.33925273 0 -17355.42626024 0 837
0.02650000 0.02652900 71491.78688904 0 4866.34211942 0 20612.46132889 0 -2924.34492483 0 -3872.47917137 0 723
0.02750000 0.02749970 66797.89622867 0 4424.44563591 0 21278.01877374 0 2740.92079188 0 -5474.02452244 0 826
0.02850000 0.02848090 66791.36355702 0 341.08518050 0 20709.67634080 0 4538.05876087 0 9779.07727983 0 831
0.02950000 0.02946900 64384.12941820 0 -1628.99364429 0 23142.48754995 0 9202.13165050 0 33.58225045 0 996
0.03050000 0.03053250 66394.86360527 0 2742.72558083 0 27143.13995342 0 4513.86573114 0 -2142.97096238 0 1041
0.03150000 0.03150510 62210.18916331 0 6459.70502245 0 22865.79015273 0 905.59991075 0 7074.42942405 0 1036
0.03250000 0.03246190 56152.96314802 0 5073.75998025 0 19106.95732330 0 1750.39061361 0 11719.94509729 0 1059
0.03350000 0.03345080 57417.97625855 0 1234.86317005 0 20803.34820876 0 2906.60706047 0 6802.94709182 0 1302
0.03450000 0.03451200 55387.64405656 0 -1619.59324052 0 16440.74150697 0 1050.52889200 0 -8147.53700083 0 1339
0.03550000 0.03553350 53865.53156374 0 2807.29937917 0 19441.00936308 0 6241.20376448 0 -3549.22264829 0 1365
0.03650000 0.03647120 52602.06857868 0 980.23513066 0 12379.08059374 0 -5191.22627425 0 -10651.31073974 0 1308
0.03750000 0.03744890 50770.59533043 0 -82.15432497 0 12758.63988853 0 3115.35360027 0 -3491.33653414 0 1579
0.03850000 0.03847530 51467.81962426 0 1310.29891904 0 11260.22217082 0 2217.41020213 0 -12907.23048759 0 1662
0.03950000 0.03950240 48854.97241355 0 651.33615085 0 7777.05701239 0 2950.12129700 0 -7032.67568716 0 1683
0.04050000 0.04050350 48417.83702971 0 1860.61560717 0 6731.56381372 0 2695.28066898 0 -4515.30513337 0 1822
0.04150000 0.04152450 48680.36185116 0 -63.29715929 0 7207.02051376 0 2365.13715986 0 521.06028427 0 1887
0.04250000 0.04250150 44638.40967612 0 3541.52738254 0 11930.87288508 0 -1258.05969054 0 764.08452725 0 1920
0.04350000 0.04349210 43624.07399948 0 4128.44917653 0 16271.77783023 0 -3154.43890688 0 67.26935582 0 2005
0.04450000 0.04448520 39314.72518006 0 2810.49928104 0 14115.99618804 0 -3255.31885831 0 6093.13356468 0 2151
0.04550000 0.04548030 38144.49116998 0 1688.71776437 0 19571.66279594 0 116.65137089 0 6216.06958714 0 2274
0.04650000 0.04648670 38274.81243310 0 -359.78965882 0 19950.55775123 0 2302.09134234 0 5791.99954658 0 2311
0.04750000 0.04749250 38424.73171114 0 254.03677724 0 17927.09039062 0 3268.57243111 0 1227.78795449 0 2568
0.04850000 0.04851840 38478.21104002 0 -1729.26461785 0 16162.93687727 0 -1014.42204077 0 -838.34218088 0 2493
0.04950000 0.04949480 38394.94715738 0 569.70100720 0 16933.57068464 0 -309.38954348 0 -4023.80463467 0 2644
0.05050000 0.05050630 38602.44252448 0 910.47173367 0 16065.27897237 0 -1871.97581244 0 -6427.98281184 0 2829
0.05150000 0.05149060 37973.20230504 0 934.74669861 0 17053.81613218 0 -3224.62637391 0 -6178.29081486 0 2784
0.05250000 0.05249300 37557.54723134 0 1379.63381705 0 17775.51026385 0 -1506.35657460 0 -7155.87744542 0 3055
0.05350000 0.05348950 37583.23502492 0 718.82861402 0 20264.90105283 0 -1892.12744361 0 -8137.27295572 0 3009
0.05450000 0.05448610 36805.07203667 0 1228.17548586 0 21203.50202771 0 1083.99167207 0 -5141.42295721 0 3336
0.05550000 0.05550870 36677.74030126 0 655.62556949 0 20592.08825122 0 2639.14398215 0 -3848.29721397 0 3349
0.05650000 0.05647670 36930.96436986 0 -414.34300320 0 19765.87137325 0 3343.63172106 0 -5440.28714872 0 3324
0.05750000 0.05747970 36396.17108112 0 -310.02730939 0 19429.71559176 0 3403.01259906 0 -934.03696259 0 3639
0.05850000 0.05849280 36563.47390913 0 -176.09093222 0 16329.02174955 0 3351.16090194 0 -1759.62493250 0 3846
0.05950000 0.05951020 36847.03614773 0 -659.96259912 0 13249.25460124 0 3739.14623591 0 -578.20455266 0 3787
0.06050000 0.06049470 35655.76472049 0 221.53728944 0 11618.30115545 0 2749.43540967 0 -829.22633585 0 3930
0.06150000 0.06148310 36355.75709553 0 790.15653050 0 13048.73479877 0 2445.83226314 0 518.97868720 0 4083
0.06250000 0.06249100 34457.51772862 0 1342.94013260 0 10094.06277627 0 2024.34207427 0 559.07711153 0 4303
0.06350000 0.06350600 34326.64284926 0 1484.99806003 0 9971.12675381 0 -837.32684869 0 1969.19082435 0 4470
0.06450000 0.06451750 32309.59743705 0 766.08972527 0 9191.09254266 0 827.72492861 0 2159.90054702 0 4479
0.06550000 0.06550280 32312.47624150 0 666.34357991 0 10854.58755109 0 588.40327105 0 381.76158019 0 4636
0.06650000 0.06648880 31067.94693189 0 815.66827411 0 9376.67577894 0 1488.70728884 0 2080.87736479 0 4653
0.06750000 0.06749660 31238.12856435 0 286.15426985 0 9964.69373309 0 31.13294148 0 51.72370105 0 5220
0.06850000 0.06852730 30290.89117612 0 1617.52271578 0 9664.66694748 0 -241.79189323 0 391.68570492 0 5029
0.06950000 0.06949320 30464.28378278 0 260.54841147 0 9700.60771384 0 -972.71259318 0 -545.71945887 0 5040
0.07050000 0.07048030 28749.18066837 0 94.02208560 0 10362.59987010 0 -850.99674091 0 964.54564639 0 5475
0.07150000 0.07148790 29271.79439981 0 260.76875073 0 10610.63101836 0 1403.58325564 0 -668.48386030 0 5509
0.07250000 0.07249820 29207.24274611 0 96.29512316 0 10695.84363016 0 1364.91869737 0 -754.75166466 0 5916
0.07350000 0.07351270 28683.18961245 0 345.34027493 0 8920.24133295 0 363.07481759 0 -1620.05827817 0 5721
0.07450000 0.07449140 29104.04867880 0 425.94126345 0 10508.36702633 0 288.07642543 0 188.37456937 0 6028
0.07550000 0.07549160 28177.51653798 0 612.55976210 0 9983.09593694 0 -632.55416626 0 -1182.69037550 0 6183
0.07650000 0.07648840 27893.40068313 0 246.33597533 0 10090.46427070 0 521.53860870 0 298.64828117 0 6330
0.07750000 0.07749960 27357.61088516 0 1269.20952164 0 9876.08191756 0 -506.13257595 0 -148.01594541 0 6583
0.07850000 0.07848650 26911.72836471 0 1687.26728981 0 10166.40934663 0 151.90011695 0 -132.10390741 0 6549
0.07950000 0.07947320 24687.85192489 0 908.01810650 0 9305.70217686 0 1227.17897663 0 706.77638845 0 6828
0.08050000 0.08048110 24203.99133031 0 1041.17720646 0 9041.12897532 0 1417.96620558 0 915.70451438 0 7147
0.08150000 0.08149960 23160.20326966 0 11.24660321 0 8222.02052988 0 3412.04761611 0 38.10452008 0 7386
0.08250000 0.08250610 22981.27450059 0 -208.84729796 0 6689.33396686 0 2583.68270713 0 -140.79900409 0 7227
0.08350000 0.08350160 22545.13562598 0 460.99956552 0 6160.12112983 0 1138.99898177 0 -509.23171966 0 7798
0.08450000 0.08449610 22262.01628037 0 550.27572053 0 4600.75026399 0 809.20203642 0 1115.58101478 0 7371
0.08550000 0.08548940 21987.53334812 0 68.00345095 0 5406.26189455 0 69.66020292 0 2084.34300246 0 8256
0.08650000 0.08650700 22004.25255859 0 -486.96416722 0 4656.30011761 0 -85.54190274 0 523.73646518 0 8037
0.08750000 0.08749060 22361.55648049 0 206.68930185 0 6437.97004883 0 -173.03607780 0 420.40067211 0 8155
0.08850000 0.08849210 22094.93489886 0 1015.91348292 0 6564.89210822 0 -1065.89395715 0 110.22543646 0 8718
0.08950000 0.08949900 21161.31647015 0 1073.97232534 0 6677.49765163 0 -838.77843047 0 1741.28916260 0 8571
0.09050000 0.09049190 20694.83942554 0 901.20419780 0 6836.79518880 0 243.57564476 0 1481.49920538 0 8932
0.09150000 0.09150830 19603.55109141 0 330.81670647 0 6333.45837486 0 922.63689695 0 430.44991411 0 9285
0.09250000 0.09250820 19274.92449080 0 451.33896212 0 6260.72427313 0 881.68147468 0 -905.15591053 0 9204
0.09350000 0.09350330 18666.83241176 0 309.11827152 0 5494.72976985 0 48.39890335 0 -699.00361643 0 9349
0.09450000 0.09448040 18406.52205527 0 445.91020126 0 5641.95847297 0 -887.47783672 0 -819.91561791 0 9564
0.09550000 0.09549270 17970.49390391 0 194.65147031 0 5678.81824229 0 -21.19165464 0 -885.31319722 0 10155
0.09650000 0.09649430 18243.86960368 0 119.95203092 0 5126.53068033 0 826.84357155 0 548.44546524 0 9913
0.09750000 0.09749140 18230.02919766 0 -52.29835471 0 4910.93037146 0 467.52891547 0 -415.23653981 0 10476
0.09850000 0.09850240 18449.70412206 0 265.24529166 0 5048.80296011 0 253.68135562 0 6.26396846 0 10575
0.09950000 0.09950330 18057.41165374 0 619.97268357 0 5602.82887706 0 -565.96299034 0 459.81925570 0 10882
0.10050000 0.10051200 17566.35404803 0 490.53056305 0 6207.37781215 0 -321.96770447 0 1524.52625963 0 10875
0.10150000 0.10150300 17390.74697641 0 51.10088278 0 6256.52786202 0 230.59998730 0 1126.23259125 0 11118
0.10250000 0.10250800 17476.77894025 0 -140.95290941 0 6631.50321433 0 866.38505794 0 760.57349305 0 11575
0.10350000 0.10349800 17266.62621519 0 435.86206649 0 6365.11415152 0 498.80269692 0 1599.24230751 0 11364
0.10450000 0.10450100 17082.38273021 0 635.78285618 0 6063.29364929 0 383.73134677 0 1840.20931253 0 12093
0.10550000 0.10551000 16420.36842930 0 326.47192621 0 5861.20157670 0 795.02724619 0 2068.04454033 0 12067
0.10650000 0.10649700 16253.84066403 0 44.33281351 0 5881.31999089 0 321.65103598 0 1624.52042507 0 12054
0.10750000 0.10749900 16038.04105331 0 336.93084423 0 5824.59647085 0 225.35613427 0 1396.61876332 0 12807
0.10850000 0.10850100 15814.26936873 0 98.91948559 0 5661.40147535 0 -21.72866239 0 1305.79248284 0 12736
0.10950000 0.10950300 15681.51219415 0 149.35569671 0 5333.77138396 0 -177.54140677 0 701.22915372 0 12933
0.11050000 0.11050200 15773.52321340 0 215.97787514 0 5643.60824936 0 -705.68354999 0 983.65980073 0 13428
0.11150000 0.11150900 15645.63786174 0 146.69390982 0 5249.00166515 0 -215.74867802 0 154.45228783 0 13453
0.11250000 0.11250000 15487.85723307 0 345.06125235 0 5490.63300967 0 56.10358058 0 364.18869347 0 13668
0.11350000 0.11349100 15162.10943691 0 356.16125798 0 5354.66486090 0 413.61001530 0 -917.01769211 0 13791
0.11450000 0.11448600 14792.95812746 0 424.15086853 0 5263.05244535 0 538.41504619 0 -329.15475051 0 14205
0.11550000 0.11549300 14330.35639653 0 288.59682470 0 4730.65077877 0 386.99325367 0 -549.53166031 0 14776
0.11650000 0.11649800 14387.26814610 0 35.14411259 0 5060.00815282 0 132.92325945 0 -3.57959404 0 14553
0.11750000 0.11747300 14184.09098568 0 134.59185880 0 5162.48251902 0 -13.79556311 0 17.33981428 0 14568
0.11850000 0.11849100 14166.37526597 0 80.90990638 0 5128.34654160 0 43.59373583 0 367.52257047 0 16015
0.11950000 0.11950300 14117.43559027 0 195.78195468 0 5343.53717445 0 437.29261085 0 804.63913136 0 15270
0.12050000 0.12050700 14328.25265482 0 195.09989947 0 5389.31016525 0 82.59467132 0 692.58277527 0 15999
0.12150000 0.12150000 13927.43449638 0 33.59365495 0 5020.83426761 0 507.90193345 0 842.26732002 0 15670
0.12250000 0.12250700 13825.23693831 0 176.36109694 0 5077.44706441 0 -24.71055019 0 300.75423735 0 16887
0.12350000 0.12352200 13782.82993425 0 206.35048872 0 4802.43266057 0 273.07896147 0 467.16906491 0 16407
0.12450000 0.12449800 13477.56593900 0 273.17861239 0 4462.80016908 0 452.03208965 0 556.92686605 0 16306
0.12550000 0.12549900 13375.14693443 0 36.75812538 0 4194.30736455 0 345.82192106 0 472.24351138 0 17523
0.12650000 0.12650100 13148.71789189 0 -110.20594917 0 4084.79099977 0 733.98994839 0 31.08798784 0 17154
0.12750000 0.12750600 13312.58829920 0 239.96385240 0 4122.48119345 0 267.40993116 0 130.96677965 0 18007
0.12850000 0.12850300 13173.29845298 0 208.47526785 0 4227.72364085 0 136.80964546 0 799.20815604 0 17496
0.12950000 0.12949900 12948.30881267 0 153.11142929 0 4478.97683564 0 -186.40258832 0 784.68680204 0 18405
0.13050000 0.13049000 12751.55360064 0 308.85032126 0 4659.85433388 0 -196.81057365 0 1014.34785619 0 18100
0.13150000 0.13148800 12580.92907519 0 419.82823292 0 5056.74181700 0 -239.00388184 0 858.85587707 0 19059
0.13250000 0.13249300 12333.01972250 0 80.82498165 0 4481.97743566 0 435.62844043 0 1229.63703273 0 18957
0.13350000 0.13349100 12256.28851150 0 25.80671035 0 4787.64003461 0 493.76257466 0 1190.97247447 0 19468
0.13450000 0.13450700 12160.51290182 0 -5.44953254 0 4067.80605350 0 415.06713324 0 930.09300049 0 19953
0.13550000 0.13551000 12234.80820136 0 283.94976997 0 4202.98806721 0 547.57296605 0 830.81189277 0 19956
0.13650000 0.13649900 11974.27639837 0 134.82437762 0 3390.45658272 0 49.69724416 0 1165.12966834 0 19723
0.13750000 0.13749600 11860.34217599 0 -49.04840593 0 3346.15621112 0 470.65684723 0 1269.68563160 0 20946
0.13850000 0.13851100 12126.07797164 0 -95.99096640 0 3292.20077228 0 301.97108585 0 594.37789752 0 20955
0.13950000 0.13949800 11744.08276539 0 351.80540539 0 3159.26644050 0 -184.66534056 0 236.74402034 0 20506
0.14050000 0.14048300 11644.54256527 0 475.76672513 0 3267.04445029 0 -455.86975743 0 -213.61504103 0 21447
0.14150000 0.14148400 11211.50394162 0 198.90988644 0 3111.62222681 0 -642.68755794 0 113.82682083 0 21771
0.14250000 0.14249400 11232.43063552 0 54.77313003 0 3386.81378785 0 -126.71611415 0 -818.10307834 0 22470
0.14350000 0.14350900 11116.50339467 0 -13.17828100 0 3296.39718338 0 205.85777026 0 -1015.82822602 0 22519
0.14450000 0.14449900 11106.98119533 0 128.69252413 0 3517.92118603 0 75.32004320 0 -1183.67581241 0 22218
0.14550000 0.14550500 11021.70214958 0 300.41874591 0 3539.18004968 0 125.38854241 0 -793.32100093 0 23559
0.14650000 0.14650700 10870.38775860 0 161.84527911 0 3479.19019381 0 374.96981615 0 -29.26692258 0 23044
0.14750000 0.14750500 10613.85306488 0 101.36680154 0 3467.36495091 0 406.16719855 0 349.44700021 0 23649
0.14850000 0.14849900 10746.83168595 0 53.60887507 0 3488.44665736 0 820.17692478 0 803.80427807 0 23640
0.14950000 0.14949500 10517.19166921 0 132.11940867 0 3317.27958799 0 636.31986393 0 973.63159614 0 24457
0.15050000 0.15050000 10563.81722903 0 133.20006757 0 2650.95815273 0 403.94609020 0 1521.00526034 0 24591
0.15150000 0.15149900 10315.97431028 0 -20.85084848 0 2822.43524720 0 322.32423333 0 1624.09967672 0 25020
0.15250000 0.15250500 10307.57041575 0 142.08228654 0 2735.60607597 0 8.05035521 0 1376.46713215 0 25297
0.15350000 0.15350100 10116.15206428 0 244.52454299 0 2570.13018155 0 10.67905799 0 1016.17368256 0 25452
0.15450000 0.15450400 9823.12298796 0 316.00857925 0 2648.44473500 0 -293.15197913 0 738.43437957 0 26061
0.15550000 0.15549900 9621.39630209 0 390.44339008 0 2634.77041385 0 -400.57788899 0 754.09396856 0 26128
0.15650000 0.15649500 9414.33275565 0 229.31006146 0 3021.30527326 0 -442.48331673 0 651.93627086 0 26331
0.15750000 0.15749700 9220.15739531 0 288.89909917 0 2960.27461886 0 176.03335613 0 1103.72919829 0 27345
0.15850000 0.15849900 9150.97750984 0 35.94353444 0 2824.49469961 0 290.81018243 0 884.61010460 0 26980
0.15950000 0.15949700 9096.87813078 0 -82.39924479 0 2865.73910956 0 384.59498811 0 575.00797248 0 27777
0.16050000 0.16050000 9233.89815041 0 67.43200827 0 2933.28029096 0 63.68159041 0 418.65899542 0 28224
0.16150000 0.16150500 9104.85020465 0 257.83015573 0 2642.46567959 0 -75.68221894 0 438.22490060 0 28075
0.16250000 0.16249700 8868.78823951 0 162.03461586 0 2686.20136263 0 -267.68120312 0 623.17258544 0 28590
0.16350000 0.16349900 8804.07050095 0 60.68995897 0 2488.75966646 0 -17.46293853 0 262.27790861 0 29163
0.16450000 0.16449100 8748.24383921 0 16.30532697 0 2542.63759903 0 233.36363958 0 181.58944872 0 28996
0.16550000 0.16550500 8797.50461233 0 9.26217687 0 2287.75268170 0 596.08303554 0 -112.42727898 0 30777
0.16650000 0.16650700 8599.18820250 0 13.94625745 0 2091.72824311 0 420.02310583 0 -86.03373541 0 29211
0.16750000 0.16749900 8697.59902549 0 119.45931247 0 1880.67865975 0 222.44632730 0 -63.63375797 0 30922
0.16850000 0.16850800 8415.69763561 0 253.59720595 0 1784.74803752 0 55.96993762 0 203.10408308 0 30867
0.16950000 0.16949900 8406.93942668 0 209.71758269 0 1781.29347217 0 -30.56902798 0 11.55939639 0 30852
0.17050000 0.17049200 8148.24562961 0 58.56285464 0 1935.59739085 0 -91.07839732 0 516.16520947 0 31257
0.17150000 0.17149500 8192.47956727 0 153.19668619 0 2162.79042380 0 -2.67138659 0 357.89296958 0 32608
0.17250000 0.17250900 8009.78620776 0 47.83111454 0 2022.70337020 0 -50.84345123 0 393.95110258 0 32361
0.17350000 0.17350400 8110.62186988 0 96.31759998 0 2013.77907639 0 -6.96602029 0 602.72421597 0 32508
0.17450000 0.17449800 8112.02805513 0 42.94788712 0 2305.80057116 0 42.71038576 0 591.96745241 0 32791
0.17550000 0.17549800 8018.05723440 0 24.81673379 0 2332.28557212 0 -61.62800632 0 759.85489917 0 33633
0.17650000 0.17650100 8061.64897721 0 -27.20669510 0 2186.55163286 0 23.78601107 0 373.23921178 0 33984
0.17750000 0.17750300 8179.83497232 0 -38.41620602 0 2359.87780557 0 48.44308193 0 382.17789960 0 34069
0.17850000 0.17849800 8038.04278069 0 82.78411880 0 2245.53390717 0 216.03434400 0 285.40688792 0 34536
