### header ###
fiducial parameters:
Omega_m = 0.31
Omega_nu = 0
Omega_de = 0.69
Omega_k = 0
H_0 = 100
w_de = -1
zeff = 0
beta = 0
fgrowth = 0
b_1 = 2
gamma = 0.55
Lx = 3500 Ly = 3500 Lz = 3500
nx = 700 ny = 700 nz = 700
xoffset = -685.467585 yoffset = -31.7331281 zoffset = 572.489161
bins = 400 dk = 0.001
kx_ny = 0.628318531 ky_ny = 0.628318531 kz_ny = 0.628318531
############################
A(data) = 8.01943134 (not used)
A(ran) = 8.01823335 (used)
Ngal = 477189
weighted Ngal = 0
Nran = 23820508
weighted Nran = 0
SN(data) = 3484.60312
SN(ran) = 69.8417204
SN(data+ran) = 3554.44484
############################
13 columns: k_central k_mean P_0(k) sigma^{lin}_{P_0(k)} P^img_1(k) sigma^{lin}_{P_1(k)} P_2(k) sigma^{lin}_{P_2(k)} P^img_3(k) sigma^{lin}_{P_3(k)} P_4(k) sigma^{lin}_{P_4(k)} N_modes
### header ###
0.00050000 0 0 0 0 0 0 0 0 0 0 0 0
0.00150000 0.00179520 18881.30334349 0 1668.37790367 0 30082.17785328 0 12000.51780819 0 -57101.97210823 0 3
0.00250000 0.00253879 40887.99181355 0 -712.02799211 0 2622.40262702 0 -4132.47950276 0 27993.71594599 0 6
0.00350000 0.00331552 43708.33439135 0 -15311.47509871 0 -1719.93064803 0 -32839.85107262 0 15578.98246633 0 7
0.00450000 0.00420575 51256.67038997 0 -23507.98499221 0 -11683.96004163 0 -13811.50725553 0 7127.41049831 0 24
0.00550000 0.00557378 76990.85701022 0 -26728.70283546 0 59.18157616 0 -30693.59162977 0 -8141.23684800 0 45
0.00650000 0.00659388 76501.46025323 0 3056.68135106 0 2673.53462304 0 -29703.72579098 0 18961.02408219 0 40
0.00750000 0.00754703 115950.49273335 0 2467.74439396 0 54545.26158435 0 -44384.52126803 0 8224.46751367 0 57
0.00850000 0.00846663 97456.38858876 0 10835.73138192 0 61375.00370224 0 -35076.79285573 0 37114.76496185 0 75
0.00950000 0.00948925 88920.73338607 0 32376.03138596 0 45163.45931902 0 7061.00976637 0 25233.49609195 0 112
0.01050000 0.01054430 76389.40832607 0 152.54563349 0 62199.78117798 0 41228.24435522 0 36417.76211451 0 105
0.01150000 0.01145670 86579.37957992 0 -20140.33739862 0 68883.36860826 0 37833.24811933 0 -9277.70026739 0 144
0.01250000 0.01249090 88565.20103614 0 -2533.58043733 0 50921.51111771 0 43555.09341586 0 -24032.25957238 0 169
0.01350000 0.01339930 78628.12168115 0 18094.17177214 0 32981.57683029 0 -3137.29894806 0 -21435.57795591 0 180
0.01450000 0.01448870 71999.56370522 0 4578.37309554 0 17859.88137897 0 6444.36985257 0 -6601.47506942 0 267
0.01550000 0.01550050 74172.28600438 0 -5829.01432845 0 6705.36669320 0 -11544.89164191 0 -8319.83344733 0 238
0.01650000 0.01653350 80478.75005134 0 -8862.16698927 0 7023.03169224 0 2847.10438689 0 -33365.67577825 0 315
0.01750000 0.01747870 84419.05828455 0 -5325.95432264 0 14899.03099922 0 -8567.73172769 0 -29361.59095409 0 297
0.01850000 0.01844180 84138.04268065 0 6102.44538985 0 -4120.68747683 0 -5409.02997576 0 -42074.16997137 0 388
0.01950000 0.01947590 79558.30768916 0 3500.29404492 0 5390.07415567 0 -7917.01119810 0 -33270.89667781 0 399
0.02050000 0.02045430 79812.63899025 0 4130.67471382 0 9416.60258224 0 4804.24852184 0 -30257.67420166 0 462
0.02150000 0.02154770 77127.37877523 0 3460.86549624 0 8299.00640435 0 -1285.38618820 0 -29640.50281627 0 571
0.02250000 0.02255340 73892.26690972 0 -4312.30513014 0 9263.05158166 0 1721.61364140 0 -28300.86223646 0 510
0.02350000 0.02348930 76210.59028025 0 1578.84708519 0 13038.76970644 0 8907.71853358 0 -28677.54272679 0 555
0.02450000 0.02439640 76258.53344671 0 -3387.20131922 0 13676.53561599 0 2107.35129343 0 176.48399975 0 592
0.02550000 0.02547300 78929.28891622 0 -2413.20212190 0 11200.54234005 0 10785.57375049 0 -7178.76394082 0 837
0.02650000 0.02652900 78570.65631534 0 -460.01191415 0 9014.53325110 0 4800.69430557 0 2381.22524782 0 723
0.02750000 0.02749970 84963.92738888 0 2070.58010271 0 8644.39650474 0 -4614.35815120 0 1747.14642243 0 826
0.02850000 0.02848090 72011.41109277 0 8822.74951292 0 16598.41141238 0 -11455.31653412 0 14863.15666681 0 831
0.02950000 0.02946900 73284.06410743 0 9207.34671549 0 16865.80805675 0 -2359.21346608 0 18173.89251083 0 996
0.03050000 0.03053250 67032.62951482 0 -1213.90325917 0 27672.95069599 0 711.26732340 0 20996.78172334 0 1041
0.03150000 0.03150510 68521.52503319 0 -129.71782141 0 31734.72233247 0 4401.32662169 0 14250.85710434 0 1036
0.03250000 0.03246190 66350.24213625 0 7753.20722474 0 38703.75429657 0 2510.39498916 0 16543.60340453 0 1059
0.03350000 0.03345080 62806.98747103 0 6344.10995134 0 33441.18903352 0 5374.18536955 0 25091.88105752 0 1302
0.03450000 0.03451200 57967.71718580 0 -815.31285249 0 34350.22690113 0 8565.32903321 0 21001.65354626 0 1339
0.03550000 0.03553350 59139.72276785 0 -137.39647867 0 32012.52696217 0 3160.50654088 0 18705.58554862 0 1365
0.03650000 0.03647120 60546.90452905 0 2834.05011593 0 32350.78648538 0 6749.19095483 0 14382.39632318 0 1308
0.03750000 0.03744890 53575.99026973 0 5635.92405594 0 27994.82317847 0 2274.29980705 0 18630.62590960 0 1579
0.03850000 0.03847530 52660.53045372 0 3825.75396064 0 26478.68974106 0 2558.05027518 0 11899.31675935 0 1662
0.03950000 0.03950240 48483.05302290 0 -761.96417704 0 23965.49345372 0 3263.26878753 0 9011.01225181 0 1683
0.04050000 0.04050350 50047.79396627 0 -711.39797683 0 23904.04205098 0 1848.34747128 0 4532.24579034 0 1822
0.04150000 0.04152450 47807.53048571 0 676.67959513 0 21195.08706085 0 1333.42900558 0 3403.45549205 0 1887
0.04250000 0.04250150 49553.41466311 0 1676.73750891 0 25089.00225307 0 390.94607363 0 9621.32986814 0 1920
0.04350000 0.04349210 47477.79665261 0 1277.51376525 0 17515.75352361 0 5341.15662462 0 9072.50794385 0 2005
0.04450000 0.04448520 47282.59156606 0 302.39404866 0 20575.14759425 0 4443.95507224 0 7179.88224563 0 2151
0.04550000 0.04548030 47206.52469455 0 792.53265140 0 18238.77633427 0 4806.40762518 0 8372.03945885 0 2274
0.04650000 0.04648670 45150.39397573 0 2852.80663417 0 19170.84463750 0 -644.07934917 0 5601.43376413 0 2311
0.04750000 0.04749250 42313.66435719 0 2766.71930871 0 14246.87106740 0 -1648.02697066 0 4820.33660980 0 2568
0.04850000 0.04851840 40459.71428956 0 2178.97816269 0 15892.10781220 0 -1102.69282869 0 2146.53625097 0 2493
0.04950000 0.04949480 38708.07250325 0 613.45219148 0 15482.21034742 0 -1384.48349532 0 -659.57396052 0 2644
0.05050000 0.05050630 39289.70172597 0 -311.94392881 0 17376.90657038 0 731.15543324 0 -6257.22541849 0 2829
0.05150000 0.05149060 39376.95164554 0 104.40670832 0 17659.02940676 0 -51.81659786 0 -2739.58104058 0 2784
0.05250000 0.05249300 38610.30387510 0 1659.96293681 0 16997.23655235 0 2140.88936531 0 -2420.87524300 0 3055
0.05350000 0.05348950 38275.47677259 0 61.15089985 0 17983.66997045 0 3268.99317946 0 3861.75008862 0 3009
0.05450000 0.05448610 37523.66591740 0 377.70025145 0 17836.62949685 0 2997.27832841 0 418.59256147 0 3336
0.05550000 0.05550870 37450.58857360 0 2083.18040835 0 17423.85322761 0 4453.44405461 0 4791.03923833 0 3349
0.05650000 0.05647670 35623.43353202 0 612.79006646 0 15098.11139946 0 3246.61601100 0 5949.38157156 0 3324
0.05750000 0.05747970 35296.02488714 0 157.96553649 0 12514.82729602 0 2905.77663611 0 6546.09130068 0 3639
0.05850000 0.05849280 35074.24622102 0 -506.28205233 0 11958.11080414 0 1596.19741818 0 2757.41855586 0 3846
0.05950000 0.05951020 34968.83768875 0 836.57060891 0 10989.71420317 0 -1586.23232584 0 -596.56135997 0 3787
0.06050000 0.06049470 33315.85031657 0 1648.74667177 0 10533.64514389 0 -370.84537515 0 1127.87129533 0 3930
0.06150000 0.06148310 31544.16762234 0 1624.26576160 0 11890.45889950 0 -787.46595557 0 875.57619478 0 4083
0.06250000 0.06249100 32080.40031330 0 554.99695984 0 12091.53231820 0 2394.83313503 0 4020.29470770 0 4303
0.06350000 0.06350600 32052.38733151 0 -4.95909498 0 14259.82568744 0 539.67618399 0 3202.24920545 0 4470
0.06450000 0.06451750 31391.81243283 0 457.53835678 0 11707.87626324 0 3679.78750255 0 4757.53438343 0 4479
0.06550000 0.06550280 31216.86970070 0 627.61812386 0 14193.61318502 0 177.08744145 0 7884.20389966 0 4636
0.06650000 0.06648880 30725.25847875 0 744.74671195 0 11749.84037430 0 1654.22747256 0 7211.72625180 0 4653
0.06750000 0.06749660 30614.97812356 0 422.61402984 0 12061.08342495 0 661.12740769 0 6016.32484741 0 5220
0.06850000 0.06852730 28809.52483863 0 337.80777236 0 10161.94719973 0 647.90594462 0 4287.44776093 0 5029
0.06950000 0.06949320 29270.79789057 0 158.27445435 0 8869.18684321 0 1132.12306806 0 2695.71248965 0 5040
0.07050000 0.07048030 28735.56170884 0 -108.40116023 0 7577.21262174 0 483.97685399 0 193.86422802 0 5475
0.07150000 0.07148790 28948.15034536 0 368.74606237 0 8910.09908341 0 711.62828119 0 -519.63749053 0 5509
0.07250000 0.07249820 28377.48272421 0 984.77478384 0 7749.24333245 0 -930.45727997 0 -267.01575640 0 5916
0.07350000 0.07351270 28099.56737126 0 1039.17754460 0 9545.40693686 0 -1227.06825338 0 779.81940805 0 5721
0.07450000 0.07449140 27149.00828558 0 230.44054582 0 8894.02206777 0 516.07441640 0 1340.57065509 0 6028
0.07550000 0.07549160 27793.52831327 0 -507.06929463 0 10416.23421152 0 460.00527075 0 360.57800835 0 6183
0.07650000 0.07648840 28364.52810417 0 -178.69292855 0 10765.96466324 0 502.35248425 0 -410.43779424 0 6330
0.07750000 0.07749960 27809.91535400 0 774.86454269 0 9695.13798538 0 401.27433822 0 -546.09038175 0 6583
0.07850000 0.07848650 26979.26954611 0 1106.94681588 0 8196.99707579 0 129.38565167 0 870.37220211 0 6549
0.07950000 0.07947320 26535.49076738 0 1019.66146487 0 8430.05844090 0 1230.87713311 0 1217.42425846 0 6828
0.08050000 0.08048110 25734.18662025 0 15.30206362 0 7499.96101148 0 1558.30792265 0 1193.06514386 0 7147
0.08150000 0.08149960 25264.27715495 0 638.12243841 0 8002.78849847 0 809.05920343 0 -1043.06503784 0 7386
0.08250000 0.08250610 24595.17656616 0 792.35992314 0 7558.75505627 0 -301.03104547 0 243.41731051 0 7227
0.08350000 0.08350160 23659.23294924 0 849.41893462 0 8820.04786566 0 394.96532754 0 645.31169892 0 7798
0.08450000 0.08449610 23353.19389125 0 1118.41552993 0 9081.50974393 0 -296.97082396 0 1586.24339817 0 7371
0.08550000 0.08548940 22523.32314609 0 787.73058413 0 8515.07175086 0 223.84697639 0 1715.31348858 0 8256
0.08650000 0.08650700 22029.27601268 0 331.52533525 0 9182.54470790 0 185.18463259 0 1285.30868192 0 8037
0.08750000 0.08749060 21604.09873965 0 -30.82834182 0 8532.30028827 0 -1.52412766 0 255.55036405 0 8155
0.08850000 0.08849210 21637.86933034 0 261.44305532 0 8508.93768291 0 -296.02967635 0 -1588.82324985 0 8718
0.08950000 0.08949900 21385.19887798 0 257.88108842 0 8069.55461713 0 -315.52361143 0 -1723.29663477 0 8571
0.09050000 0.09049190 21180.25014559 0 212.31515009 0 8646.38952321 0 -727.25576044 0 -2339.90333160 0 8932
0.09150000 0.09150830 20849.29835676 0 484.52382683 0 8606.23020109 0 621.68557222 0 -2418.71613966 0 9285
0.09250000 0.09250820 20562.74659045 0 448.30403788 0 8751.00084809 0 1032.92943170 0 -706.40878727 0 9204
0.09350000 0.09350330 20189.16635107 0 474.52219582 0 7786.65671801 0 806.13500244 0 -1364.16577928 0 9349
0.09450000 0.09448040 19353.75944350 0 431.30248313 0 7932.03634288 0 2408.08670783 0 852.97536536 0 9564
0.09550000 0.09549270 19188.44963396 0 648.18164551 0 6882.82284307 0 1476.41700829 0 1467.03874917 0 10155
0.09650000 0.09649430 18693.40599132 0 118.73961136 0 6591.21102432 0 816.31268342 0 1839.58926234 0 9913
0.09750000 0.09749140 18772.35166728 0 -37.83479824 0 6417.50839256 0 -66.63889764 0 1629.08222289 0 10476
0.09850000 0.09850240 18403.86469731 0 525.16479508 0 7141.43913386 0 -454.45582155 0 1523.75119689 0 10575
0.09950000 0.09950330 18264.46412785 0 495.26287467 0 7107.29208411 0 -174.96709125 0 1379.45665986 0 10882
0.10050000 0.10051200 17490.95151602 0 153.01288560 0 6613.08993816 0 379.43417751 0 998.72369864 0 10875
0.10150000 0.10150300 17262.75090150 0 525.44603213 0 6148.25159762 0 -22.76702502 0 184.02868188 0 11118
0.10250000 0.10250800 16674.14611414 0 655.62224779 0 6334.72061989 0 125.30439274 0 -570.29448381 0 11575
0.10350000 0.10349800 16390.03025930 0 133.43922978 0 5973.65210756 0 -286.81750210 0 -1419.72670522 0 11364
0.10450000 0.10450100 16079.89444113 0 91.14217391 0 5525.78764097 0 115.54192395 0 -1101.24678307 0 12093
0.10550000 0.10551000 16169.69099541 0 154.64051735 0 5702.16977533 0 -230.71181778 0 -1626.32521401 0 12067
0.10650000 0.10649700 16122.07999869 0 68.84129377 0 5752.59314255 0 521.13003991 0 -2057.47047013 0 12054
0.10750000 0.10749900 16248.19377837 0 225.67501722 0 6492.53446553 0 -511.75178079 0 -1702.82390618 0 12807
0.10850000 0.10850100 16132.15581427 0 509.69232838 0 6747.29758729 0 -316.19680878 0 -631.46243503 0 12736
0.10950000 0.10950300 15777.73069683 0 372.74981502 0 7699.41787077 0 -11.96231829 0 -253.77104145 0 12933
0.11050000 0.11050200 15667.89323463 0 89.48010724 0 7111.26704872 0 375.37395600 0 -51.20883795 0 13428
0.11150000 0.11150900 15598.80192776 0 -67.80215609 0 7464.07560675 0 854.43580500 0 -251.68169376 0 13453
0.11250000 0.11250000 15689.48426802 0 193.09913037 0 7212.84455661 0 175.50188454 0 -321.25796845 0 13668
0.11350000 0.11349100 15174.51044071 0 443.55733223 0 6664.89734599 0 71.23203015 0 -359.56599786 0 13791
0.11450000 0.11448600 14980.08041689 0 366.99995674 0 6875.88049540 0 73.73470773 0 -164.99314105 0 14205
0.11550000 0.11549300 14531.31909199 0 327.76517375 0 6800.02399807 0 973.94494293 0 336.35397611 0 14776
0.11650000 0.11649800 14412.62376994 0 111.48834583 0 6517.85687239 0 797.78979123 0 595.47516491 0 14553
0.11750000 0.11747300 14369.22025665 0 -13.62493858 0 6257.29185244 0 1120.07637865 0 818.29130786 0 14568
0.11850000 0.11849100 14452.26269279 0 33.20568068 0 6040.24106902 0 1185.23701021 0 1596.05347796 0 16015
0.11950000 0.11950300 14116.21763454 0 192.24213243 0 5189.89759527 0 607.88170487 0 1904.93812342 0 15270
0.12050000 0.12050700 14185.64111115 0 207.37800046 0 5103.22343659 0 657.80571024 0 1955.41685227 0 15999
0.12150000 0.12150000 13902.74321204 0 52.71810654 0 4830.41242538 0 108.74473446 0 2450.84802628 0 15670
0.12250000 0.12250700 13792.24141035 0 103.26924840 0 4130.65256917 0 491.12846859 0 1574.56209549 0 16887
0.12350000 0.12352200 13711.52416242 0 157.36763095 0 4173.30316437 0 65.57739386 0 1729.91788502 0 16407
0.12450000 0.12449800 13521.41234528 0 276.15817500 0 3931.19570989 0 -221.58932936 0 1051.52872293 0 16306
0.12550000 0.12549900 13293.21173077 0 245.91744145 0 4090.92506772 0 -267.22280887 0 1615.34146779 0 17523
0.12650000 0.12650100 13018.06445903 0 174.40240268 0 4182.86965301 0 98.65219967 0 1425.77219457 0 17154
0.12750000 0.12750600 12938.67589008 0 46.16096506 0 4267.26291278 0 384.25396051 0 1171.58483371 0 18007
0.12850000 0.12850300 12994.48040716 0 85.00943464 0 4629.11756018 0 80.67052272 0 1145.68666596 0 17496
0.12950000 0.12949900 12754.87529809 0 240.84078053 0 4349.24240574 0 208.91262468 0 1005.79448527 0 18405
0.13050000 0.13049000 12927.60356526 0 116.71226868 0 4418.16762773 0 -391.42107636 0 751.56615681 0 18100
0.13150000 0.13148800 12422.70555353 0 306.99017069 0 4053.37881426 0 -119.22790088 0 938.43046107 0 19059
0.13250000 0.13249300 12568.08517840 0 218.00853952 0 4430.77900570 0 -71.46897790 0 1132.78740755 0 18957
0.13350000 0.13349100 12414.29058667 0 -68.83808280 0 4234.35596342 0 206.97939676 0 336.81679929 0 19468
0.13450000 0.13450700 12322.50101392 0 207.29827972 0 4373.01468712 0 544.19258528 0 436.19423623 0 19953
0.13550000 0.13551000 12057.54028101 0 296.58661429 0 3773.69188934 0 288.25468986 0 306.37565666 0 19956
0.13650000 0.13649900 11760.02691313 0 232.81002333 0 3533.07919871 0 929.42201760 0 885.33977080 0 19723
0.13750000 0.13749600 11594.27421060 0 59.68813502 0 3382.28520700 0 805.12077749 0 819.45390197 0 20946
0.13850000 0.13851100 11585.85924374 0 28.04442719 0 3087.47348638 0 404.29929736 0 589.17169039 0 20955
0.13950000 0.13949800 11415.34544153 0 180.86421145 0 3161.39232687 0 -105.16460896 0 767.99527237 0 20506
0.14050000 0.14048300 11264.76182399 0 252.73135015 0 2710.80406837 0 -146.82234879 0 799.19486925 0 21447
0.14150000 0.14148400 11088.26896639 0 301.15394828 0 3081.30620146 0 -569.52495723 0 1028.87474636 0 21771
0.14250000 0.14249400 10938.32754369 0 154.76563462 0 3424.48183689 0 -133.09488048 0 1082.39504283 0 22470
0.14350000 0.14350900 10875.11564130 0 26.38878246 0 3460.05721653 0 12.15973784 0 904.37531163 0 22519
0.14450000 0.14449900 10832.42075680 0 -142.53182293 0 3314.73295328 0 476.64143879 0 491.94892785 0 22218
0.14550000 0.14550500 10890.28472630 0 276.91109309 0 3404.76202638 0 126.13481710 0 307.38877438 0 23559
0.14650000 0.14650700 10762.46580860 0 254.72326138 0 3364.50305334 0 165.61208401 0 650.31528250 0 23044
0.14750000 0.14750500 10394.15599583 0 261.62353421 0 3117.96666893 0 -91.88003364 0 316.28538737 0 23649
0.14850000 0.14849900 10324.07925205 0 143.48182839 0 3170.33876532 0 46.53443458 0 753.25247188 0 23640
0.14950000 0.14949500 10279.31384281 0 8.06386344 0 3056.52633851 0 240.52079034 0 309.27439130 0 24457
0.15050000 0.15050000 10193.55868709 0 141.64271524 0 2930.02502746 0 150.13408115 0 78.98841513 0 24591
0.15150000 0.15149900 10086.01319613 0 225.45357072 0 2817.36412243 0 22.95315080 0 469.79209866 0 25020
0.15250000 0.15250500 9926.35027224 0 216.04652356 0 2875.77063585 0 50.60196382 0 26.63602748 0 25297
0.15350000 0.15350100 9645.95471853 0 97.47820107 0 2560.88479033 0 100.63126701 0 480.78138104 0 25452
0.15450000 0.15450400 9596.99289819 0 119.47038479 0 2632.09091124 0 234.45647803 0 437.96802267 0 26061
0.15550000 0.15549900 9563.28874144 0 91.30205828 0 2468.96234969 0 372.97569045 0 342.09165483 0 26128
0.15650000 0.15649500 9421.23081401 0 -41.00989811 0 2314.52556312 0 379.26698541 0 361.79707131 0 26331
0.15750000 0.15749700 9518.94408054 0 -1.46656264 0 2194.86694880 0 271.20220241 0 154.15776399 0 27345
0.15850000 0.15849900 9399.26332157 0 143.35338943 0 2416.78955514 0 -431.59368527 0 -54.21962451 0 26980
0.15950000 0.15949700 9306.61010749 0 322.40284684 0 2510.74930355 0 -466.52576284 0 142.57279053 0 27777
0.16050000 0.16050000 9174.58370635 0 168.88949216 0 2991.84181692 0 -361.91222349 0 266.00706761 0 28224
0.16150000 0.16150500 9053.38603889 0 67.28574286 0 2990.91174164 0 -318.18318385 0 24.88970041 0 28075
0.16250000 0.16249700 9160.25611804 0 60.71332157 0 3192.81558470 0 197.29664871 0 3.65815218 0 28590
0.16350000 0.16349900 9134.44652889 0 57.41321516 0 3070.16744269 0 -51.78116642 0 -104.72337681 0 29163
0.16450000 0.16449100 9063.26255263 0 123.15968342 0 3026.91894195 0 -132.35414195 0 154.96272200 0 28996
0.16550000 0.16550500 9021.30951389 0 72.78713817 0 3135.12877240 0 121.59516393 0 34.97016637 0 30777
0.16650000 0.16650700 8995.89852843 0 104.20629924 0 3201.66237223 0 28.86034681 0 103.79130851 0 29211
0.16750000 0.16749900 8840.33236473 0 223.69971447 0 2982.46355780 0 86.86393833 0 -105.63020022 0 30922
0.16850000 0.16850800 8706.86656137 0 95.18401537 0 3022.16891460 0 327.77181714 0 80.46369169 0 30867
0.16950000 0.16949900 8680.43692202 0 -35.40885188 0 2794.99802630 0 445.97552798 0 331.85861223 0 30852
0.17050000 0.17049200 8670.11751529 0 44.09586576 0 2615.80352143 0 440.10498136 0 280.38780308 0 31257
0.17150000 0.17149500 8650.33127084 0 88.63628536 0 2487.85173583 0 371.04024807 0 462.81099786 0 32608
0.17250000 0.17250900 8442.70303584 0 167.49437923 0 2303.53074457 0 277.05171161 0 378.30369315 0 32361
0.17350000 0.17350400 8253.59880026 0 221.06007224 0 2204.34485885 0 127.88978059 0 845.28895747 0 32508
0.17450000 0.17449800 8267.51671256 0 60.33475879 0 2080.22409763 0 58.14520655 0 580.93830965 0 32791
0.17550000 0.17549800 8081.56808956 0 8.33526827 0 2095.16066381 0 179.65400634 0 872.84465224 0 33633
0.17650000 0.17650100 8181.47367640 0 157.74741169 0 1947.42263375 0 21.72046887 0 568.23724586 0 33984
0.17750000 0.17750300 7980.15666654 0 138.91560164 0 1995.29936627 0 -85.26210510 0 596.43181377 0 34069
0.17850000 0.17849800 7773.04883081 0 318.30940835 0 2021.93937978 0 -52.39656623 0 750.94278492 0 34536
