### header ###
fiducial parameters:
Omega_m = 0.31
Omega_nu = 0
Omega_de = 0.69
Omega_k = 0
H_0 = 100
w_de = -1
zeff = 0
beta = 0
fgrowth = 0
b_1 = 2
gamma = 0.55
Lx = 3500 Ly = 3500 Lz = 3500
nx = 700 ny = 700 nz = 700
xoffset = -685.467585 yoffset = -31.7331281 zoffset = 572.489161
bins = 400 dk = 0.001
kx_ny = 0.628318531 ky_ny = 0.628318531 kz_ny = 0.628318531
############################
A(data) = 8.0414689 (not used)
A(ran) = 8.03634222 (used)
Ngal = 477446
weighted Ngal = 0
Nran = 23820508
weighted Nran = 0
SN(data) = 3494.63038
SN(ran) = 69.9994552
SN(data+ran) = 3564.62983
############################
13 columns: k_central k_mean P_0(k) sigma^{lin}_{P_0(k)} P^img_1(k) sigma^{lin}_{P_1(k)} P_2(k) sigma^{lin}_{P_2(k)} P^img_3(k) sigma^{lin}_{P_3(k)} P_4(k) sigma^{lin}_{P_4(k)} N_modes
### header ###
0.00050000 0 0 0 0 0 0 0 0 0 0 0 0
0.00150000 0.00179520 10986.70253082 0 -4595.40233111 0 10550.33113740 0 17273.38033333 0 32144.50907400 0 3
0.00250000 0.00253879 16943.53577698 0 2295.32615188 0 13627.26377055 0 -7884.07103177 0 257.32193602 0 6
0.00350000 0.00331552 14829.71824585 0 5532.28709564 0 7676.35421817 0 1781.80279912 0 3571.86555255 0 7
0.00450000 0.00420575 22362.99588272 0 -13237.73938343 0 -3021.31634559 0 20521.22537238 0 7713.31363841 0 24
0.00550000 0.00557378 42665.09994694 0 -22287.37190420 0 -4329.46723361 0 17059.90591083 0 -10755.86670300 0 45
0.00650000 0.00659388 78366.03975269 0 -17865.74971113 0 -12936.79359486 0 40723.45706674 0 -1720.17423918 0 40
0.00750000 0.00754703 75111.88348849 0 -16363.01378674 0 -38518.07140936 0 -8338.81141207 0 -19169.84812827 0 57
0.00850000 0.00846663 90929.25310817 0 -13372.15740673 0 -53864.75650100 0 -20244.08508217 0 -24051.74686406 0 75
0.00950000 0.00948925 89621.72227034 0 -7341.41639240 0 -37465.09331911 0 -23493.25880020 0 -23240.80979434 0 112
0.01050000 0.01054430 100328.32820022 0 5159.73658246 0 -29598.76015170 0 -32058.92000316 0 -18883.62853170 0 105
0.01150000 0.01145670 81502.49720407 0 11925.33672267 0 -24197.56938192 0 -16972.65599125 0 519.85561533 0 144
0.01250000 0.01249090 73084.20864445 0 9998.65255331 0 -34972.82372568 0 -17138.29797054 0 -22723.40005556 0 169
0.01350000 0.01339930 66251.69844536 0 -5291.97335777 0 -20991.68845393 0 -16864.36865453 0 -21713.93620185 0 180
0.01450000 0.01448870 70287.67156501 0 6508.62255350 0 -17027.68544560 0 -19023.47199416 0 -25625.12422079 0 267
0.01550000 0.01550050 61149.79261543 0 11641.33159108 0 -6501.53626561 0 -32199.98142135 0 -6288.29436193 0 238
0.01650000 0.01653350 59750.69365134 0 -1016.57007178 0 -328.92998232 0 -7510.39114146 0 -21911.68792311 0 315
0.01750000 0.01747870 54371.31536145 0 -2306.11059625 0 4891.54273071 0 2494.86051744 0 -4087.75838282 0 297
0.01850000 0.01844180 63490.03918910 0 678.49434917 0 12009.81856104 0 -8018.23439159 0 -34291.32213309 0 388
0.01950000 0.01947590 65650.02831472 0 -5578.22617131 0 12603.18444807 0 2346.80138996 0 -15514.20936614 0 399
0.02050000 0.02045430 70544.88167054 0 -5966.31115620 0 15263.86410199 0 2812.32621464 0 -12194.83710876 0 462
0.02150000 0.02154770 75082.65255097 0 -4028.85361479 0 10829.85197744 0 8358.19905283 0 -16614.13411363 0 571
0.02250000 0.02255340 81192.47210915 0 23.71249083 0 20789.50780274 0 -1954.38712606 0 2928.99530125 0 510
0.02350000 0.02348930 80715.91924895 0 -1891.91706944 0 7541.74796535 0 -3046.76054802 0 -22552.00046737 0 555
0.02450000 0.02439640 75901.67241781 0 6314.54684407 0 16221.28802906 0 -5923.18445103 0 -11634.68819619 0 592
0.02550000 0.02547300 74202.51345114 0 5322.73227612 0 13907.28286521 0 -10399.70323056 0 -19489.50614578 0 837
0.02650000 0.02652900 66998.85892413 0 4396.21120762 0 18055.75080501 0 -6849.34013281 0 -19384.20833676 0 723
0.02750000 0.02749970 67542.17790298 0 2178.96709036 0 20105.34885219 0 -4281.91159852 0 -16121.19421270 0 826
0.02850000 0.02848090 63545.40081319 0 3755.44469804 0 22361.33503399 0 1582.35701216 0 -11856.02396931 0 831
0.02950000 0.02946900 61601.54346803 0 5087.97684531 0 18469.19141374 0 5041.19627296 0 -10984.32198099 0 996
0.03050000 0.03053250 55891.54555905 0 2629.94288022 0 22276.41030263 0 7630.85803549 0 2532.60607274 0 1041
0.03150000 0.03150510 55555.38977756 0 2691.07318555 0 23512.96753838 0 7577.95446751 0 4232.81691027 0 1036
0.03250000 0.03246190 53946.13808842 0 -1573.59880323 0 20154.50997439 0 10652.91622684 0 7671.85885429 0 1059
0.03350000 0.03345080 55209.04745723 0 1306.01392933 0 22910.63306825 0 2817.48591800 0 21289.97688454 0 1302
0.03450000 0.03451200 53027.13512847 0 608.50729122 0 17428.50360404 0 9982.73055022 0 11856.24541581 0 1339
0.03550000 0.03553350 51856.23677890 0 1725.05713442 0 18690.19501712 0 1197.11761474 0 17836.29732711 0 1365
0.03650000 0.03647120 51730.67661545 0 1219.88231457 0 15136.31092008 0 2994.73169370 0 6632.10111987 0 1308
0.03750000 0.03744890 49606.56182224 0 463.96251964 0 16490.78841515 0 -5962.14796207 0 5578.80193220 0 1579
0.03850000 0.03847530 49957.77596549 0 762.36167351 0 18412.27966418 0 -3668.95876888 0 1443.83115635 0 1662
0.03950000 0.03950240 49343.59410780 0 -807.18355160 0 18761.05789596 0 -4536.33147820 0 413.30663360 0 1683
0.04050000 0.04050350 50994.25629176 0 851.49278106 0 20931.34428367 0 -2135.35320290 0 -3890.42740990 0 1822
0.04150000 0.04152450 51213.59904642 0 1093.57476920 0 20909.31035728 0 -1298.25222964 0 -7130.12321789 0 1887
0.04250000 0.04250150 49525.95529756 0 2957.19651256 0 22152.28954142 0 559.76913183 0 -9188.68984817 0 1920
0.04350000 0.04349210 47565.15729543 0 2516.62870803 0 22416.91810458 0 -2195.17697390 0 -10115.81989454 0 2005
0.04450000 0.04448520 45188.03988011 0 2347.29964458 0 20969.10091130 0 3296.17573689 0 -10522.35137258 0 2151
0.04550000 0.04548030 43376.49681654 0 -386.62011632 0 17820.46390262 0 3509.80517194 0 -9523.55016766 0 2274
0.04650000 0.04648670 43346.82298602 0 -949.64340442 0 14571.17946134 0 6570.61650015 0 -11306.61521181 0 2311
0.04750000 0.04749250 42535.22157682 0 1431.39693558 0 16169.80171865 0 2026.55653923 0 -8589.49991829 0 2568
0.04850000 0.04851840 42720.12940129 0 3051.82060046 0 16488.46322694 0 36.01295792 0 -9443.41975295 0 2493
0.04950000 0.04949480 38103.96646114 0 3242.47496152 0 16568.73758187 0 -2813.01269878 0 1004.55327766 0 2644
0.05050000 0.05050630 36820.57329142 0 2289.31387950 0 17647.62491220 0 2903.05284420 0 2114.86940199 0 2829
0.05150000 0.05149060 37278.96753891 0 -1132.11199573 0 17994.29940227 0 2884.97173777 0 279.79321924 0 2784
0.05250000 0.05249300 37232.02088168 0 -788.69830532 0 16847.98161380 0 2691.56036784 0 -698.63047908 0 3055
0.05350000 0.05348950 38018.93100654 0 558.90659773 0 17846.37314269 0 -538.39511600 0 -2141.58692177 0 3009
0.05450000 0.05448610 36902.39777183 0 1489.46020693 0 16336.88310017 0 -804.49408391 0 -18.87842454 0 3336
0.05550000 0.05550870 35274.10168400 0 210.15715399 0 15580.08969881 0 -77.22791548 0 -676.81799919 0 3349
0.05650000 0.05647670 37405.85638133 0 -1028.44735462 0 15581.97199403 0 2161.58354040 0 -2007.82216564 0 3324
0.05750000 0.05747970 37207.77249032 0 -461.34391482 0 15481.65673118 0 335.00093802 0 -6026.02420395 0 3639
0.05850000 0.05849280 36766.42962305 0 1414.71094208 0 15859.99807023 0 -806.37970082 0 -3930.22134530 0 3846
0.05950000 0.05951020 35492.78009916 0 1275.85291653 0 15127.01016723 0 -555.56164840 0 -3265.67148201 0 3787
0.06050000 0.06049470 34979.91001356 0 292.64043772 0 15117.26652139 0 1727.21623776 0 -2158.95939941 0 3930
0.06150000 0.06148310 34415.99651055 0 128.60062384 0 15027.80213686 0 2169.94314563 0 -3298.88845647 0 4083
0.06250000 0.06249100 34505.79306483 0 878.86246078 0 14844.88733086 0 2260.44832870 0 -3059.33870902 0 4303
0.06350000 0.06350600 32417.77405053 0 1372.75790334 0 12193.72987628 0 1530.09563901 0 -4917.61805565 0 4470
0.06450000 0.06451750 32239.62034420 0 1009.36531003 0 12754.98602134 0 519.82239835 0 -1181.70493859 0 4479
0.06550000 0.06550280 31345.64083834 0 1010.30424317 0 11007.24169336 0 569.87484270 0 -3091.43737867 0 4636
0.06650000 0.06648880 30760.80064142 0 1107.78609811 0 10831.24709037 0 493.94969695 0 -1415.79602991 0 4653
0.06750000 0.06749660 29994.37431747 0 560.58626941 0 11507.91007701 0 2002.34136485 0 -2263.93611102 0 5220
0.06850000 0.06852730 29291.28169149 0 168.98028522 0 10062.94954353 0 2035.64691791 0 -2403.07094469 0 5029
0.06950000 0.06949320 28251.47966777 0 518.74173945 0 8084.08150729 0 2172.14653827 0 -545.38507466 0 5040
0.07050000 0.07048030 28393.42687194 0 378.10328407 0 8896.82336595 0 2787.32490520 0 -321.42626779 0 5475
0.07150000 0.07148790 27735.28788472 0 287.42869443 0 8577.56395213 0 616.38525033 0 207.32485330 0 5509
0.07250000 0.07249820 27257.51706880 0 587.68246270 0 7654.45315968 0 637.87441834 0 2190.17228308 0 5916
0.07350000 0.07351270 26917.04308063 0 249.86251079 0 7770.15895403 0 -586.65273649 0 1716.87468638 0 5721
0.07450000 0.07449140 27158.64120817 0 -311.26076637 0 7752.12213690 0 352.94031869 0 1817.32281713 0 6028
0.07550000 0.07549160 26778.19612740 0 720.35659484 0 8492.62814845 0 70.80253467 0 1141.08057884 0 6183
0.07650000 0.07648840 26445.69421310 0 1220.75702823 0 7108.26644870 0 -221.71001770 0 1641.59394994 0 6330
0.07750000 0.07749960 25549.61096552 0 918.36851574 0 7711.89638084 0 579.88754603 0 -25.97357028 0 6583
0.07850000 0.07848650 24754.95021329 0 658.33939630 0 6616.73273302 0 426.54470515 0 -89.41201244 0 6549
0.07950000 0.07947320 24401.63232833 0 237.30760168 0 8468.31332315 0 674.95009799 0 347.97327377 0 6828
0.08050000 0.08048110 24216.39233411 0 516.74207759 0 7797.48545168 0 -80.53732265 0 405.69219582 0 7147
0.08150000 0.08149960 23590.58453536 0 1026.68242604 0 8135.93320442 0 -429.00719019 0 808.17895361 0 7386
0.08250000 0.08250610 23234.27712270 0 363.01059811 0 7878.53486936 0 -453.76047956 0 1252.74497463 0 7227
0.08350000 0.08350160 22805.00308948 0 304.23205458 0 9165.16115793 0 -204.22681681 0 1422.48371410 0 7798
0.08450000 0.08449610 22451.79592776 0 629.66428948 0 9100.38805774 0 106.37924299 0 975.23265431 0 7371
0.08550000 0.08548940 22377.05773524 0 217.98528763 0 9217.65504990 0 795.40591969 0 2198.48759902 0 8256
0.08650000 0.08650700 22189.04965982 0 -16.86514372 0 9345.71755875 0 -72.77351921 0 248.91693425 0 8037
0.08750000 0.08749060 21939.03656541 0 780.54132363 0 9315.83335407 0 201.15203221 0 1001.90034863 0 8155
0.08850000 0.08849210 21255.65267760 0 874.42356576 0 9182.95438392 0 -509.45870232 0 182.57710010 0 8718
0.08950000 0.08949900 20638.48129221 0 475.12342306 0 9053.72928096 0 467.87326477 0 1261.23744777 0 8571
0.09050000 0.09049190 20568.94709235 0 -86.53021846 0 9283.12570655 0 809.17214114 0 439.28562932 0 8932
0.09150000 0.09150830 20055.08049752 0 332.38454766 0 7828.69833535 0 1598.42295547 0 76.98022758 0 9285
0.09250000 0.09250820 19996.39717598 0 173.04382843 0 7527.57538958 0 1128.40276692 0 -509.91377487 0 9204
0.09350000 0.09350330 19758.23146913 0 89.23297295 0 6906.09686983 0 617.25996399 0 -1233.31304457 0 9349
0.09450000 0.09448040 19385.97990873 0 650.10933726 0 7309.93777295 0 -68.12657521 0 -862.49092131 0 9564
0.09550000 0.09549270 18878.31381579 0 899.42708967 0 6557.10826388 0 -890.69877601 0 -925.74046960 0 10155
0.09650000 0.09649430 17997.28892997 0 321.40633760 0 6751.90367441 0 535.38897982 0 311.81881154 0 9913
0.09750000 0.09749140 18058.18671647 0 20.05840219 0 7093.94993271 0 582.00014560 0 -29.10139132 0 10476
0.09850000 0.09850240 18055.41863527 0 261.39765878 0 6894.59272435 0 1011.01508642 0 -284.12692717 0 10575
0.09950000 0.09950330 17749.82247028 0 243.77605383 0 6785.81820533 0 722.50684032 0 18.31008211 0 10882
0.10050000 0.10051200 17683.72069111 0 93.40912170 0 5947.97538630 0 789.81993182 0 424.22505310 0 10875
0.10150000 0.10150300 17436.58640116 0 73.26158729 0 6262.35190488 0 -9.95087547 0 757.93052911 0 11118
0.10250000 0.10250800 17665.00846216 0 156.37444341 0 6112.59871171 0 9.60885136 0 -9.15983537 0 11575
0.10350000 0.10349800 16863.81503829 0 203.14726515 0 5707.10803220 0 551.14711250 0 172.55443167 0 11364
0.10450000 0.10450100 16989.15375523 0 679.23951663 0 5651.95678228 0 -146.17018886 0 -207.66588090 0 12093
0.10550000 0.10551000 16497.76397978 0 230.23238612 0 5645.67877410 0 256.77939210 0 -15.48885374 0 12067
0.10650000 0.10649700 16171.90546037 0 67.08943054 0 5364.29778349 0 643.17584746 0 120.46578679 0 12054
0.10750000 0.10749900 16223.28104753 0 418.38440176 0 5345.95094126 0 464.93356253 0 -260.15423671 0 12807
0.10850000 0.10850100 15659.14609802 0 415.26311339 0 4652.79019064 0 592.20882909 0 -75.10557226 0 12736
0.10950000 0.10950300 15585.84730772 0 94.47715815 0 4477.34920389 0 574.09118399 0 344.18321699 0 12933
0.11050000 0.11050200 15377.79832438 0 39.54270435 0 4656.25582831 0 361.65756002 0 839.58338849 0 13428
0.11150000 0.11150900 15762.22944208 0 -32.68162755 0 4960.63403757 0 100.22391618 0 450.27601893 0 13453
0.11250000 0.11250000 15541.44728520 0 163.99663182 0 4767.93129643 0 614.71000758 0 974.49413024 0 13668
0.11350000 0.11349100 15416.33001475 0 173.81556947 0 4367.41209077 0 -159.34957709 0 766.37428402 0 13791
0.11450000 0.11448600 15390.97439091 0 24.00325008 0 4713.42224135 0 -25.23172452 0 1165.68328458 0 14205
0.11550000 0.11549300 15382.00580781 0 61.67893902 0 4525.13735781 0 61.39980571 0 874.46674783 0 14776
0.11650000 0.11649800 15384.44171927 0 142.23951355 0 4784.47334971 0 -146.43813912 0 609.71749632 0 14553
0.11750000 0.11747300 15014.18317733 0 441.80569045 0 5021.69790895 0 -121.40804164 0 344.38362607 0 14568
0.11850000 0.11849100 14850.53421651 0 455.64166754 0 4811.51196692 0 -510.28359052 0 -513.95738790 0 16015
0.11950000 0.11950300 14294.70351062 0 235.91248875 0 4795.58996383 0 -73.98494227 0 -211.57219710 0 15270
0.12050000 0.12050700 14110.01713264 0 261.55377856 0 4727.29586435 0 -61.74991262 0 -896.77969680 0 15999
0.12150000 0.12150000 14165.60020323 0 -39.22304633 0 4545.03432551 0 523.01565683 0 -616.21695099 0 15670
0.12250000 0.12250700 14011.03054876 0 -13.12967349 0 4482.02172496 0 457.85502527 0 -1451.90288114 0 16887
0.12350000 0.12352200 13831.54816345 0 241.70663633 0 3832.60772970 0 591.70282384 0 -1631.85030410 0 16407
0.12450000 0.12449800 13679.41442044 0 267.98569205 0 3794.20890723 0 179.66286420 0 -978.12253108 0 16306
0.12550000 0.12549900 13544.33205766 0 144.92787402 0 3321.54243305 0 651.90194665 0 -724.70026787 0 17523
0.12650000 0.12650100 13537.57793952 0 -183.21486601 0 3470.73093765 0 42.90193697 0 -756.84101235 0 17154
0.12750000 0.12750600 13582.19940854 0 72.55849466 0 3671.61612684 0 -16.20512243 0 -813.31208339 0 18007
0.12850000 0.12850300 13531.93105386 0 347.15945790 0 3738.07222040 0 -27.88044606 0 -157.38534667 0 17496
0.12950000 0.12949900 12976.98613395 0 335.17588075 0 3920.27839761 0 -277.76255487 0 70.68007476 0 18405
0.13050000 0.13049000 13012.97118961 0 416.58404174 0 3914.25505291 0 252.48443730 0 177.97765637 0 18100
0.13150000 0.13148800 12528.11408580 0 392.90033896 0 4167.05837317 0 113.81907021 0 118.04869829 0 19059
0.13250000 0.13249300 12219.74983960 0 396.20653515 0 3954.37008573 0 340.65225260 0 386.50717861 0 18957
0.13350000 0.13349100 12086.21760229 0 -136.95137122 0 3958.86544961 0 573.29619106 0 517.01445678 0 19468
0.13450000 0.13450700 12136.26451047 0 -21.00342512 0 3549.68768593 0 96.34882394 0 417.79867578 0 19953
0.13550000 0.13551000 12137.03957321 0 40.13496300 0 3920.99809873 0 73.75253417 0 776.72690773 0 19956
0.13650000 0.13649900 12187.86154412 0 164.11842739 0 3450.87825925 0 152.27103984 0 239.53424620 0 19723
0.13750000 0.13749600 12036.61358710 0 227.40783606 0 3864.69532703 0 -210.74066551 0 610.07956135 0 20946
0.13850000 0.13851100 11894.00204344 0 352.49631846 0 3724.89615386 0 146.22222879 0 115.79215849 0 20955
0.13950000 0.13949800 11524.74001074 0 183.09196320 0 3610.40831524 0 85.75681657 0 671.89524358 0 20506
0.14050000 0.14048300 11412.13446733 0 299.24618671 0 3608.43744142 0 -14.43786867 0 210.90232145 0 21447
0.14150000 0.14148400 11213.05406709 0 54.90001887 0 3439.40733074 0 92.24973857 0 51.14030026 0 21771
0.14250000 0.14249400 11149.16675289 0 130.45080932 0 3419.99754533 0 111.88362783 0 34.64142904 0 22470
0.14350000 0.14350900 10962.87488781 0 127.32177032 0 3194.09997438 0 83.04797230 0 -78.98509343 0 22519
0.14450000 0.14449900 11047.42316013 0 -32.19234152 0 3315.93983669 0 -122.29825655 0 -202.35005776 0 22218
0.14550000 0.14550500 10907.84543347 0 131.36649058 0 3289.99737964 0 199.91857523 0 -219.40808137 0 23559
0.14650000 0.14650700 10877.87265018 0 219.73692942 0 3391.68561077 0 3.48954282 0 82.23648162 0 23044
0.14750000 0.14750500 10644.10265629 0 133.69167879 0 3011.82736322 0 201.67353871 0 -29.67549136 0 23649
0.14850000 0.14849900 10629.07751151 0 235.34780018 0 3348.72499048 0 207.73120762 0 207.79542710 0 23640
0.14950000 0.14949500 10452.93896829 0 113.47250644 0 2919.69454840 0 274.98118687 0 207.87404061 0 24457
0.15050000 0.15050000 10229.06763278 0 152.25000242 0 2917.05933510 0 592.13132281 0 309.17363314 0 24591
0.15150000 0.15149900 10122.15326433 0 239.07363748 0 2700.90540999 0 319.35685028 0 -133.83672625 0 25020
0.15250000 0.15250500 9791.66651315 0 315.99307800 0 2578.03582147 0 -5.32609826 0 -140.18559730 0 25297
0.15350000 0.15350100 9506.43235349 0 330.32398801 0 2488.52714764 0 -218.26541745 0 -50.86936047 0 25452
0.15450000 0.15450400 9422.73665019 0 166.43032881 0 2320.91429454 0 -14.64514259 0 -54.77733751 0 26061
0.15550000 0.15549900 9216.89105949 0 -34.70409840 0 2400.19214024 0 -69.72719048 0 -149.43098852 0 26128
0.15650000 0.15649500 9415.97145973 0 -34.69922658 0 2389.02016450 0 287.06995111 0 -174.27064202 0 26331
0.15750000 0.15749700 9295.10596201 0 -81.91261612 0 2202.60650385 0 517.08310519 0 405.21940755 0 27345
0.15850000 0.15849900 9503.52033207 0 38.31910173 0 2286.57901527 0 411.13535070 0 286.07454911 0 26980
0.15950000 0.15949700 9335.30957342 0 108.23385740 0 2279.41522112 0 256.53026479 0 582.19612575 0 27777
0.16050000 0.16050000 9285.82735381 0 323.19562529 0 2440.69470442 0 -51.25611677 0 535.73443635 0 28224
0.16150000 0.16150500 9037.55261440 0 208.48080401 0 2503.87338984 0 -359.16075077 0 984.33853424 0 28075
0.16250000 0.16249700 8847.58473749 0 213.21422287 0 3034.73600327 0 -421.73488725 0 789.61730828 0 28590
0.16350000 0.16349900 8848.16049838 0 113.46697028 0 2935.80478101 0 -145.18364472 0 872.57227305 0 29163
0.16450000 0.16449100 8758.08713598 0 65.75034358 0 3058.16504259 0 32.06091302 0 507.61405301 0 28996
0.16550000 0.16550500 8649.11331511 0 162.80746413 0 2958.04908158 0 61.04383047 0 281.62015283 0 30777
0.16650000 0.16650700 8589.41133969 0 94.15063529 0 2819.62287669 0 89.03466761 0 182.79411766 0 29211
0.16750000 0.16749900 8474.15951065 0 115.03924040 0 2662.14120080 0 122.03694969 0 119.31647948 0 30922
0.16850000 0.16850800 8373.65601827 0 74.28168057 0 2544.22094148 0 278.80778233 0 118.89130221 0 30867
0.16950000 0.16949900 8369.66998134 0 -36.67740813 0 2572.61038231 0 128.95936716 0 -20.53429072 0 30852
0.17050000 0.17049200 8398.20336240 0 -38.44898010 0 2428.70337665 0 273.99796443 0 392.01898190 0 31257
0.17150000 0.17149500 8468.37975710 0 -57.13795716 0 2127.73544342 0 500.86989996 0 425.57255503 0 32608
0.17250000 0.17250900 8521.08402323 0 -81.14751847 0 1916.04366522 0 77.80434071 0 323.32074256 0 32361
0.17350000 0.17350400 8442.95769931 0 176.21937119 0 2041.06128474 0 276.77047456 0 560.37810970 0 32508
0.17450000 0.17449800 8348.26717746 0 292.44445758 0 2208.97309062 0 -62.20254926 0 686.28483691 0 32791
0.17550000 0.17549800 8090.95742100 0 116.40999421 0 1823.62296996 0 113.78806770 0 1042.29108234 0 33633
0.17650000 0.17650100 8016.40745800 0 8.13153749 0 1817.47782968 0 313.94359068 0 725.32142529 0 33984
0.17750000 0.17750300 8195.88984331 0 -41.46851380 0 1744.43370285 0 299.56506967 0 832.97874673 0 34069
0.17850000 0.17849800 8077.00629173 0 -18.75496812 0 1601.47891712 0 173.75356445 0 831.58141934 0 34536
