### header ###
fiducial parameters:
Omega_m = 0.31
Omega_nu = 0
Omega_de = 0.69
Omega_k = 0
H_0 = 100
w_de = -1
zeff = 0
beta = 0
fgrowth = 0
b_1 = 2
gamma = 0.55
Lx = 3500 Ly = 3500 Lz = 3500
nx = 700 ny = 700 nz = 700
xoffset = -685.467585 yoffset = -31.7331281 zoffset = 572.489161
bins = 400 dk = 0.001
kx_ny = 0.628318531 ky_ny = 0.628318531 kz_ny = 0.628318531
############################
A(data) = 7.99172208 (not used)
A(ran) = 7.98881993 (used)
Ngal = 475126
weighted Ngal = 0
Nran = 23820508
weighted Nran = 0
SN(data) = 3487.65311
SN(ran) = 69.5855189
SN(data+ran) = 3557.23863
############################
13 columns: k_central k_mean P_0(k) sigma^{lin}_{P_0(k)} P^img_1(k) sigma^{lin}_{P_1(k)} P_2(k) sigma^{lin}_{P_2(k)} P^img_3(k) sigma^{lin}_{P_3(k)} P_4(k) sigma^{lin}_{P_4(k)} N_modes
### header ###
0.00050000 0 0 0 0 0 0 0 0 0 0 0 0
0.00150000 0.00179520 81.78129834 0 -4663.38640549 0 -2869.54798930 0 2406.43693143 0 15840.40005530 0 3
0.00250000 0.00253879 6260.15958456 0 -10529.67017928 0 -1838.06128152 0 2766.90753823 0 -21811.37266025 0 6
0.00350000 0.00331552 14231.70198240 0 -10884.17280300 0 8193.35428093 0 -12901.14070894 0 10168.77882415 0 7
0.00450000 0.00420575 30362.52911769 0 -15009.20063116 0 3556.43073175 0 7477.86065115 0 6340.34536090 0 24
0.00550000 0.00557378 50399.89389550 0 -12063.63005966 0 7072.11530817 0 -5753.27962669 0 -1232.81478996 0 45
0.00650000 0.00659388 56033.82493297 0 8960.63317388 0 29155.42426596 0 3349.87651226 0 17279.13794223 0 40
0.00750000 0.00754703 64504.15341924 0 4414.34767567 0 36564.80258810 0 3796.29050430 0 6696.94065401 0 57
0.00850000 0.00846663 53244.92775765 0 5702.67910227 0 39030.27715547 0 21376.78391112 0 44135.39395961 0 75
0.00950000 0.00948925 66238.63310208 0 -1628.91613802 0 39777.21618774 0 21167.40624880 0 8853.94025193 0 112
0.01050000 0.01054430 61901.27130087 0 -5807.88833270 0 35034.93946791 0 24267.65719802 0 13126.35179575 0 105
0.01150000 0.01145670 74896.30532427 0 -1130.75009978 0 36800.53238349 0 11983.68787447 0 5446.91947128 0 144
0.01250000 0.01249090 72375.24768632 0 -1680.91177537 0 38528.81156444 0 -7894.11363038 0 25786.78016314 0 169
0.01350000 0.01339930 78449.96797482 0 -3297.02830590 0 58740.34401164 0 3346.67661038 0 25713.14920309 0 180
0.01450000 0.01448870 77474.27471180 0 6874.81755222 0 49547.21416122 0 5570.25409744 0 2641.43595339 0 267
0.01550000 0.01550050 75953.93379095 0 5380.99484931 0 53107.52020665 0 12647.14157760 0 6448.38910648 0 238
0.01650000 0.01653350 64491.64169219 0 3977.04620696 0 40626.24205483 0 4888.97395135 0 -4992.86557512 0 315
0.01750000 0.01747870 72570.89566586 0 -2020.21209711 0 33787.19918410 0 16777.45090470 0 -13247.92592226 0 297
0.01850000 0.01844180 67978.42750083 0 -4728.62454332 0 34941.37832319 0 3796.16870872 0 -13408.80680188 0 388
0.01950000 0.01947590 70221.45906259 0 1866.31785446 0 25531.78452256 0 -5918.85517203 0 -25186.21726497 0 399
0.02050000 0.02045430 69150.32235964 0 1293.43576834 0 20423.67819073 0 -5279.93774069 0 -27445.41442097 0 462
0.02150000 0.02154770 65991.60953537 0 6908.01238203 0 25558.69027187 0 -12150.32636299 0 -26141.09455733 0 571
0.02250000 0.02255340 65408.20874068 0 5836.41064143 0 34499.26039319 0 -4098.73105672 0 -21844.92180445 0 510
0.02350000 0.02348930 61345.88348797 0 111.19603646 0 35813.21317942 0 4977.84043034 0 -17057.91289236 0 555
0.02450000 0.02439640 59378.22064444 0 3443.74768207 0 33401.99300366 0 8198.54720127 0 -14829.27535286 0 592
0.02550000 0.02547300 60915.83439201 0 926.51553234 0 36787.35631696 0 9900.34138124 0 -1756.83470665 0 837
0.02650000 0.02652900 58494.64912392 0 -271.96730006 0 27726.65147136 0 10720.42419126 0 3731.73885060 0 723
0.02750000 0.02749970 59120.12475292 0 2230.73020889 0 32515.43195543 0 11909.06040519 0 15216.25310527 0 826
0.02850000 0.02848090 55632.89605129 0 -618.40594961 0 16518.13705745 0 12584.80438887 0 10405.10652507 0 831
0.02950000 0.02946900 57143.93621929 0 -58.48191595 0 21697.43843787 0 12996.91631862 0 9342.35157201 0 996
0.03050000 0.03053250 54736.03774098 0 1395.43402457 0 8624.54382634 0 5537.81218572 0 4954.40031870 0 1041
0.03150000 0.03150510 52856.95349601 0 855.55964597 0 10175.90940133 0 1258.94547653 0 10528.68474238 0 1036
0.03250000 0.03246190 52699.83720683 0 1489.67058110 0 3525.25106506 0 -2050.81600291 0 78.53289969 0 1059
0.03350000 0.03345080 51233.08633810 0 1087.84262664 0 5444.84894654 0 3169.48619631 0 5546.43752675 0 1302
0.03450000 0.03451200 49607.22616173 0 40.61937721 0 1652.31196036 0 3011.71663997 0 7447.32317930 0 1339
0.03550000 0.03553350 49873.07268063 0 -263.50472220 0 645.82102586 0 7557.91355958 0 6063.27150464 0 1365
0.03650000 0.03647120 49168.54065242 0 138.03092289 0 5744.52141776 0 2006.10595529 0 3545.85666155 0 1308
0.03750000 0.03744890 49081.18000960 0 1250.08761667 0 4212.38847098 0 -873.52338576 0 9460.12789110 0 1579
0.03850000 0.03847530 47025.93507676 0 3639.04134722 0 7184.68763460 0 -4336.04419455 0 12702.50320170 0 1662
0.03950000 0.03950240 47074.76402921 0 1879.89252468 0 11151.38121785 0 -4297.73395068 0 13809.07134407 0 1683
0.04050000 0.04050350 44728.53840014 0 1143.89294934 0 14698.73264325 0 747.57569094 0 14020.10985511 0 1822
0.04150000 0.04152450 44708.94038521 0 1407.28141213 0 14666.62290128 0 470.87607926 0 8953.69082622 0 1887
0.04250000 0.04250150 41356.12970688 0 1612.50695264 0 13551.08617580 0 -2053.78338596 0 10478.29459213 0 1920
0.04350000 0.04349210 42655.35630110 0 -619.93171597 0 13736.43689326 0 1293.48005764 0 6353.86466951 0 2005
0.04450000 0.04448520 41968.76143909 0 -599.07809941 0 12751.66432389 0 840.77919957 0 3307.42521890 0 2151
0.04550000 0.04548030 44360.38359992 0 -246.30829452 0 15262.53542301 0 -4273.66271653 0 -949.90803298 0 2274
0.04650000 0.04648670 42761.98278910 0 2210.78895189 0 17221.45112993 0 -2813.40023014 0 -964.82466898 0 2311
0.04750000 0.04749250 40605.86897717 0 4128.57097210 0 17841.83348952 0 -1319.28964679 0 599.72029424 0 2568
0.04850000 0.04851840 38682.05253993 0 2778.26774349 0 16086.98072901 0 1739.51759063 0 2565.72339628 0 2493
0.04950000 0.04949480 36520.07039584 0 -802.46009784 0 16541.94255581 0 8947.61211990 0 1094.98649062 0 2644
0.05050000 0.05050630 36813.04411054 0 -1260.98278430 0 12121.64904171 0 7379.84843185 0 -2676.11447472 0 2829
0.05150000 0.05149060 36934.17534405 0 1181.02952678 0 9993.11639090 0 1354.66572459 0 -3119.31749256 0 2784
0.05250000 0.05249300 35417.93118339 0 1430.48900495 0 6545.55982909 0 -1028.66215772 0 -1183.05576222 0 3055
0.05350000 0.05348950 34337.05083459 0 1251.96991189 0 7990.87467697 0 -2089.98988812 0 35.13149014 0 3009
0.05450000 0.05448610 34111.72902453 0 -300.67340938 0 9567.41871860 0 -1390.42933375 0 -2372.42274959 0 3336
0.05550000 0.05550870 34377.13265044 0 658.54423431 0 10105.41190921 0 -75.02540863 0 -2671.24265180 0 3349
0.05650000 0.05647670 33665.40361109 0 460.23557511 0 10704.66827304 0 -599.07920664 0 -2228.93649227 0 3324
0.05750000 0.05747970 34295.52961652 0 211.02079532 0 12533.65024821 0 1324.59329038 0 -987.65026659 0 3639
0.05850000 0.05849280 33721.09740493 0 -877.54153243 0 11849.04840467 0 1175.69266622 0 1823.31294486 0 3846
0.05950000 0.05951020 35477.94318391 0 -176.77077296 0 10605.39380872 0 2658.12194689 0 -703.77135950 0 3787
0.06050000 0.06049470 35150.97743201 0 -136.78196465 0 9699.21260091 0 938.21012181 0 266.31044931 0 3930
0.06150000 0.06148310 35190.28418512 0 909.62580806 0 11122.48245007 0 -1204.58036167 0 -1755.82712509 0 4083
0.06250000 0.06249100 33583.35768419 0 1614.03493346 0 12203.14135237 0 -1272.38727886 0 704.13896068 0 4303
0.06350000 0.06350600 33003.94292643 0 1328.62361661 0 12910.77363153 0 -849.91276031 0 -165.66190947 0 4470
0.06450000 0.06451750 31581.37063373 0 714.12398320 0 12110.68744014 0 323.53222397 0 1019.18092598 0 4479
0.06550000 0.06550280 31850.31740357 0 366.46294899 0 13387.65866147 0 732.61144395 0 -17.87471829 0 4636
0.06650000 0.06648880 31683.45746856 0 544.03203657 0 13552.96847102 0 2490.96305910 0 2919.09664286 0 4653
0.06750000 0.06749660 31927.60223081 0 73.37142475 0 13004.33477625 0 179.52113845 0 3797.89599139 0 5220
0.06850000 0.06852730 31217.42331694 0 396.91627117 0 12977.87191994 0 1750.89994055 0 2720.58093119 0 5029
0.06950000 0.06949320 31426.69025601 0 636.64871198 0 13307.49502979 0 1388.41417063 0 3137.02213994 0 5040
0.07050000 0.07048030 30430.40246883 0 571.01639938 0 12855.85490043 0 697.96281790 0 3091.34880007 0 5475
0.07150000 0.07148790 30092.91800836 0 806.98092806 0 11410.14144886 0 867.98611611 0 2630.80652156 0 5509
0.07250000 0.07249820 29048.68705471 0 281.35109534 0 12105.81561722 0 126.21675231 0 1687.58838723 0 5916
0.07350000 0.07351270 29135.38335804 0 532.11157167 0 9873.07024521 0 1950.82183747 0 760.44505408 0 5721
0.07450000 0.07449140 27455.49023656 0 843.19960977 0 9872.95952197 0 744.19309571 0 -786.92784058 0 6028
0.07550000 0.07549160 27363.58994056 0 1408.74295900 0 9061.26953416 0 -657.30191946 0 -821.46685062 0 6183
0.07650000 0.07648840 25828.96572070 0 1073.68001597 0 8955.11915612 0 215.82286260 0 -4167.91094218 0 6330
0.07750000 0.07749960 24911.62360947 0 819.90786729 0 7582.66020555 0 156.58371035 0 -1686.35935918 0 6583
0.07850000 0.07848650 24320.14001766 0 -5.70925606 0 7156.73001443 0 1903.94161419 0 -3026.50926593 0 6549
0.07950000 0.07947320 25315.09912586 0 -918.02970260 0 6564.82567427 0 1935.73025874 0 -3961.52280756 0 6828
0.08050000 0.08048110 24779.30932789 0 270.81356381 0 5226.02659115 0 904.10625414 0 -3658.50649425 0 7147
0.08150000 0.08149960 24929.33932918 0 619.96604018 0 5408.11097280 0 -842.06469648 0 -3718.93924311 0 7386
0.08250000 0.08250610 24366.86522839 0 458.23148432 0 6058.80935774 0 -1579.28997818 0 -1884.46539483 0 7227
0.08350000 0.08350160 23891.86249368 0 890.38210752 0 7467.23121932 0 -1386.17756102 0 -2917.56866204 0 7798
0.08450000 0.08449610 23295.94997194 0 886.54111804 0 7740.60691909 0 -283.00087174 0 -2693.68625421 0 7371
0.08550000 0.08548940 22617.21646055 0 552.32631509 0 8462.85466701 0 452.76618479 0 -1353.91280650 0 8256
0.08650000 0.08650700 21953.09841793 0 602.85376217 0 6925.49558292 0 1464.42568051 0 -2254.87894932 0 8037
0.08750000 0.08749060 21139.06109726 0 545.97412234 0 6702.56539502 0 2458.24433926 0 -1135.42262085 0 8155
0.08850000 0.08849210 20731.93171368 0 472.59007514 0 4723.67521413 0 1592.92001003 0 -3573.00600200 0 8718
0.08950000 0.08949900 20207.98930326 0 306.53841984 0 5323.64020675 0 442.83209496 0 -2274.14479450 0 8571
0.09050000 0.09049190 19588.82489940 0 371.37906121 0 4550.37118607 0 178.70953704 0 -1464.93500746 0 8932
0.09150000 0.09150830 19147.92492513 0 601.82292873 0 4258.58221012 0 -645.61397339 0 -1472.99565992 0 9285
0.09250000 0.09250820 19269.16688189 0 145.12163970 0 4972.60322070 0 -222.77960428 0 -1312.59089028 0 9204
0.09350000 0.09350330 19091.45606855 0 58.51723667 0 4909.51311389 0 -249.96216171 0 -919.01956843 0 9349
0.09450000 0.09448040 18707.35712059 0 733.21710012 0 5429.58021062 0 243.63986424 0 28.10133894 0 9564
0.09550000 0.09549270 18718.31872216 0 204.87122612 0 5640.86231281 0 279.82865068 0 65.89096210 0 10155
0.09650000 0.09649430 18471.51660195 0 88.43598701 0 5710.42972964 0 1235.56072651 0 641.34337770 0 9913
0.09750000 0.09749140 18373.85869705 0 -4.43138798 0 5777.48372875 0 -355.29429494 0 162.76096037 0 10476
0.09850000 0.09850240 18011.68295224 0 593.90843095 0 6102.78863192 0 36.92753195 0 499.82467250 0 10575
0.09950000 0.09950330 17649.17503767 0 700.81394154 0 6200.84514051 0 -423.07685302 0 582.71320332 0 10882
0.10050000 0.10051200 17150.80969759 0 684.25527977 0 5802.68434003 0 -403.30057366 0 187.93831977 0 10875
0.10150000 0.10150300 16434.87317481 0 153.37052169 0 6920.41338583 0 -1199.25457343 0 -55.93849222 0 11118
0.10250000 0.10250800 16618.00942731 0 387.63987744 0 6436.08775361 0 -113.68509508 0 -1309.78959210 0 11575
0.10350000 0.10349800 15974.37518561 0 494.58303393 0 6274.96328285 0 -6.56880064 0 -1428.67314367 0 11364
0.10450000 0.10450100 15908.93774593 0 129.46869410 0 6028.27188589 0 140.00954733 0 -1471.67805327 0 12093
0.10550000 0.10551000 15775.51623186 0 -131.82267036 0 6122.24270662 0 1246.45589413 0 -1016.87677518 0 12067
0.10650000 0.10649700 16037.37671382 0 -80.04393986 0 5215.81790767 0 1188.11581466 0 -1360.50083977 0 12054
0.10750000 0.10749900 15945.91931082 0 -9.57683019 0 5067.64805695 0 1112.28146198 0 -1002.39971048 0 12807
0.10850000 0.10850100 15929.53227009 0 270.12818690 0 5401.48972255 0 472.09624946 0 -960.94603359 0 12736
0.10950000 0.10950300 15577.65378735 0 268.90912394 0 4960.20221691 0 335.26667381 0 -59.47665361 0 12933
0.11050000 0.11050200 15451.65073092 0 266.33370119 0 5082.39639361 0 367.30776737 0 805.04437845 0 13428
0.11150000 0.11150900 15331.29456014 0 -56.04345786 0 4623.65890404 0 678.06806466 0 562.56267939 0 13453
0.11250000 0.11250000 15693.35958171 0 -198.26547713 0 4690.13714226 0 759.14959208 0 133.07052137 0 13668
0.11350000 0.11349100 15309.37135700 0 360.69205329 0 4077.23967424 0 -343.36940111 0 -122.91609228 0 13791
0.11450000 0.11448600 15090.69294183 0 728.96311292 0 4231.96434126 0 -605.29299533 0 -619.02599980 0 14205
0.11550000 0.11549300 14338.88208664 0 680.87711347 0 3967.36899507 0 -443.56286840 0 -67.25075431 0 14776
0.11650000 0.11649800 14120.86801096 0 158.45714771 0 4142.85427112 0 156.31576009 0 -76.08669097 0 14553
0.11750000 0.11747300 13919.79459226 0 -100.01542430 0 4118.92697719 0 660.59593610 0 -1214.99941932 0 14568
0.11850000 0.11849100 14178.44410002 0 -156.17071264 0 3953.88290344 0 567.71241766 0 -1149.99380031 0 16015
0.11950000 0.11950300 14003.27992139 0 -112.38852584 0 3870.58580383 0 -24.28559436 0 -1370.44378745 0 15270
0.12050000 0.12050700 14367.33796143 0 102.27417856 0 3980.06895164 0 -57.05115014 0 -699.13869879 0 15999
0.12150000 0.12150000 13964.30533803 0 206.90299772 0 3832.57451273 0 -173.50443714 0 -506.53117964 0 15670
0.12250000 0.12250700 14301.12545901 0 146.08050303 0 4080.33992519 0 -45.98181485 0 -435.24090906 0 16887
0.12350000 0.12352200 13920.01603875 0 177.20370086 0 3988.46177385 0 456.79540379 0 286.37571634 0 16407
0.12450000 0.12449800 13971.50234916 0 119.61543225 0 3522.00687389 0 656.35302123 0 217.51028490 0 16306
0.12550000 0.12549900 13598.36500277 0 268.17281434 0 3626.16423346 0 182.39994290 0 515.31374769 0 17523
0.12650000 0.12650100 13685.06130610 0 295.84144683 0 3752.36659174 0 22.00635630 0 255.17169054 0 17154
0.12750000 0.12750600 13165.76927211 0 234.51848305 0 3436.79426208 0 342.05622339 0 440.73278217 0 18007
0.12850000 0.12850300 13145.28547119 0 84.50199000 0 3451.17721202 0 -116.72444824 0 251.48349914 0 17496
0.12950000 0.12949900 13077.85501305 0 -40.11780090 0 3694.69085176 0 -176.30684255 0 -63.09453575 0 18405
0.13050000 0.13049000 13236.85359744 0 -90.12185918 0 4051.44115742 0 -143.65787836 0 -86.69785346 0 18100
0.13150000 0.13148800 13258.99824708 0 296.12489834 0 3814.61520187 0 -95.82953190 0 -228.05888875 0 19059
0.13250000 0.13249300 12882.53920325 0 282.66980923 0 4126.14613297 0 74.43802180 0 228.07217554 0 18957
0.13350000 0.13349100 12767.82991813 0 334.04096745 0 4156.06355463 0 161.51200213 0 770.21195180 0 19468
0.13450000 0.13450700 12598.31262515 0 192.89982853 0 4027.01560887 0 440.82689693 0 653.18965803 0 19953
0.13550000 0.13551000 12263.15335289 0 363.61182535 0 4158.20051332 0 471.83937152 0 1030.55884696 0 19956
0.13650000 0.13649900 11990.44199261 0 342.11379948 0 3640.97900406 0 732.76534927 0 1445.25948625 0 19723
0.13750000 0.13749600 11848.49478843 0 -89.83287150 0 3621.73530353 0 568.51626844 0 1307.71906736 0 20946
0.13850000 0.13851100 11792.69027135 0 -49.21858756 0 2991.76431065 0 568.97134099 0 1423.46915101 0 20955
0.13950000 0.13949800 11698.79695689 0 221.96357394 0 3301.57903140 0 -99.60862709 0 462.28506243 0 20506
0.14050000 0.14048300 11313.25860670 0 579.08369525 0 2875.22809193 0 -8.35324972 0 928.38896970 0 21447
0.14150000 0.14148400 11049.59333579 0 402.28745594 0 3044.69002328 0 -504.69206649 0 1251.65988680 0 21771
0.14250000 0.14249400 10710.79126867 0 129.83740252 0 2736.79081472 0 -106.65571894 0 836.92160160 0 22470
0.14350000 0.14350900 10787.62213058 0 -28.46583988 0 3044.65680631 0 203.64109083 0 698.17872823 0 22519
0.14450000 0.14449900 10694.91355488 0 31.46190025 0 2714.20327209 0 392.46187489 0 713.93796814 0 22218
0.14550000 0.14550500 10776.05155115 0 58.68509311 0 2849.98319135 0 418.81511520 0 327.87700423 0 23559
0.14650000 0.14650700 10588.39779012 0 21.89441510 0 2668.40813664 0 26.54722743 0 428.31959882 0 23044
0.14750000 0.14750500 10589.94791560 0 273.07453254 0 2980.78056443 0 -247.97135771 0 -9.27423463 0 23649
0.14850000 0.14849900 10417.24179308 0 299.04356317 0 2818.60422281 0 -66.19655827 0 660.87606592 0 23640
0.14950000 0.14949500 10241.86724027 0 147.78896275 0 3178.23333292 0 -57.76188267 0 541.79542696 0 24457
0.15050000 0.15050000 10070.79982183 0 113.21009234 0 2806.25858064 0 96.34085186 0 818.28134277 0 24591
0.15150000 0.15149900 10184.18042797 0 -22.98692139 0 2960.08638934 0 631.96954751 0 743.29291570 0 25020
0.15250000 0.15250500 10054.20240692 0 10.83130245 0 2632.73310608 0 369.51226724 0 576.40308541 0 25297
0.15350000 0.15350100 9947.43197870 0 271.48343946 0 2442.88702474 0 324.57745143 0 873.86330613 0 25452
0.15450000 0.15450400 9661.89886627 0 259.20866017 0 2334.65504964 0 191.46485523 0 987.77981279 0 26061
0.15550000 0.15549900 9510.24123323 0 185.27653289 0 2262.19775602 0 -16.76870377 0 1124.49423626 0 26128
0.15650000 0.15649500 9370.40884310 0 169.49293386 0 2213.00341685 0 187.62829468 0 1089.62305647 0 26331
0.15750000 0.15749700 9327.79146487 0 1.17455222 0 2164.69486367 0 41.68796728 0 1469.59645620 0 27345
0.15850000 0.15849900 9359.39187990 0 -57.90538000 0 2110.39618276 0 103.08201538 0 957.62765785 0 26980
0.15950000 0.15949700 9443.19830645 0 106.26896264 0 2390.17168628 0 -25.85786449 0 956.40305872 0 27777
0.16050000 0.16050000 9200.41544016 0 253.18642270 0 2413.02496470 0 -181.89615212 0 1085.92711445 0 28224
0.16150000 0.16150500 9022.48318032 0 272.06252205 0 2454.33580860 0 6.84659420 0 999.90400847 0 28075
0.16250000 0.16249700 8867.26025869 0 119.56892848 0 2244.06128797 0 213.06585372 0 1139.14292199 0 28590
0.16350000 0.16349900 8800.44985073 0 21.17681772 0 2290.14430386 0 299.61378790 0 365.45647466 0 29163
0.16450000 0.16449100 8682.66245931 0 52.68267510 0 2200.94565513 0 -61.37179273 0 557.52920052 0 28996
0.16550000 0.16550500 8583.79767101 0 272.05477142 0 2090.68744458 0 -112.84249116 0 405.59033043 0 30777
0.16650000 0.16650700 8430.81135899 0 288.47502913 0 2027.90736286 0 -88.36977450 0 846.00644412 0 29211
0.16750000 0.16749900 8325.65749018 0 120.42481919 0 2284.32026101 0 -251.02621213 0 784.34798890 0 30922
0.16850000 0.16850800 8254.91640692 0 24.88770739 0 2368.07132594 0 124.26248697 0 878.03757258 0 30867
0.16950000 0.16949900 8317.91793514 0 -55.00520596 0 2812.49229951 0 -15.65039896 0 507.39592821 0 30852
0.17050000 0.17049200 8306.17019850 0 25.21234795 0 2792.58425949 0 -71.14323010 0 739.89260475 0 31257
0.17150000 0.17149500 8361.99686024 0 155.57280710 0 3136.10313698 0 -161.74230649 0 790.35583234 0 32608
0.17250000 0.17250900 8252.61336336 0 130.47295397 0 2855.40863051 0 68.48952601 0 849.82418171 0 32361
0.17350000 0.17350400 8254.98284087 0 85.52916957 0 3059.34978134 0 191.52575302 0 1137.59279652 0 32508
0.17450000 0.17449800 8119.24721091 0 57.38409494 0 2628.00522338 0 306.36347710 0 851.28129966 0 32791
0.17550000 0.17549800 8040.29046263 0 85.19843923 0 2430.39744234 0 423.10564106 0 877.61239531 0 33633
0.17650000 0.17650100 7969.05112475 0 56.23810933 0 1944.13415328 0 537.82046235 0 618.47349079 0 33984
0.17750000 0.17750300 7904.63233895 0 0.52149100 0 1935.84098199 0 140.79125346 0 517.71644217 0 34069
0.17850000 0.17849800 7910.55603273 0 116.14979458 0 1704.78370768 0 -206.80223957 0 31.44163789 0 34536
