### header ###
fiducial parameters:
Omega_m = 0.31
Omega_nu = 0
Omega_de = 0.69
Omega_k = 0
H_0 = 100
w_de = -1
zeff = 0
beta = 0
fgrowth = 0
b_1 = 2
gamma = 0.55
Lx = 3500 Ly = 3500 Lz = 3500
nx = 700 ny = 700 nz = 700
xoffset = -685.467585 yoffset = -31.7331281 zoffset = 572.489161
bins = 400 dk = 0.001
kx_ny = 0.628318531 ky_ny = 0.628318531 kz_ny = 0.628318531
############################
A(data) = 8.06480043 (not used)
A(ran) = 8.0548291 (used)
Ngal = 478636
weighted Ngal = 0
Nran = 23820508
weighted Nran = 0
SN(data) = 3500.0505
SN(ran) = 70.1604827
SN(data+ran) = 3570.21099
############################
13 columns: k_central k_mean P_0(k) sigma^{lin}_{P_0(k)} P^img_1(k) sigma^{lin}_{P_1(k)} P_2(k) sigma^{lin}_{P_2(k)} P^img_3(k) sigma^{lin}_{P_3(k)} P_4(k) sigma^{lin}_{P_4(k)} N_modes
### header ###
0.00050000 0 0 0 0 0 0 0 0 0 0 0 0
0.00150000 0.00179520 82304.46569068 0 -36146.15798671 0 47316.36215675 0 81649.20550792 0 -201464.27177272 0 3
0.00250000 0.00253879 133166.85059386 0 -19195.20375210 0 33642.04100573 0 15880.70331764 0 167400.26446815 0 6
0.00350000 0.00331552 104397.51829432 0 26667.80504896 0 39236.88673659 0 -89373.37002465 0 104490.96871579 0 7
0.00450000 0.00420575 72641.97999120 0 44701.74337408 0 18617.89273606 0 -6581.00234083 0 43163.46528703 0 24
0.00550000 0.00557378 46050.46326024 0 3738.22723295 0 32275.49467661 0 60520.99528898 0 -14046.79415793 0 45
0.00650000 0.00659388 47673.55535540 0 -5169.84561502 0 23054.57329089 0 59022.24540152 0 -4743.61647113 0 40
0.00750000 0.00754703 43964.10509466 0 -7221.66919949 0 -3417.86058664 0 27803.38268236 0 7703.84680069 0 57
0.00850000 0.00846663 51871.95948014 0 -9306.89798794 0 620.14430461 0 -2770.55033310 0 6970.72602980 0 75
0.00950000 0.00948925 57979.34312686 0 -2929.32747100 0 -3912.67171046 0 -5293.08059025 0 12570.07819686 0 112
0.01050000 0.01054430 61156.87890331 0 -1005.63836549 0 -17882.35819835 0 3395.54985213 0 51513.43760251 0 105
0.01150000 0.01145670 57779.70911038 0 -2673.84464813 0 -11743.08625616 0 5646.04416082 0 5855.01214713 0 144
0.01250000 0.01249090 64617.42330213 0 -4982.98906138 0 -20777.10679894 0 -6097.47391600 0 22052.41717155 0 169
0.01350000 0.01339930 69628.53606855 0 -4024.97830110 0 -13839.07734433 0 8385.70270768 0 9346.80264658 0 180
0.01450000 0.01448870 70505.90708718 0 -3227.60482929 0 -6050.46082482 0 -18895.14374952 0 -10032.89925397 0 267
0.01550000 0.01550050 73496.65274395 0 229.25912876 0 5337.94565042 0 -30001.68205185 0 -1007.59816698 0 238
0.01650000 0.01653350 74369.59483265 0 6903.72739232 0 22226.14194796 0 -20513.58546826 0 -10551.39408058 0 315
0.01750000 0.01747870 72613.96700941 0 14.86204943 0 33755.64305837 0 -18990.14429646 0 4068.22680184 0 297
0.01850000 0.01844180 76337.92201566 0 -5351.92999667 0 28933.64559985 0 5217.85521544 0 605.28856640 0 388
0.01950000 0.01947590 84355.17097035 0 -5751.47483775 0 35761.83759226 0 12466.44123656 0 -13193.22863766 0 399
0.02050000 0.02045430 90099.71453276 0 1388.09307321 0 36449.20751700 0 13459.73949604 0 -19541.87824217 0 462
0.02150000 0.02154770 83571.13964994 0 8959.93561742 0 25002.63811948 0 -2167.46294487 0 -12768.38353437 0 571
0.02250000 0.02255340 72443.56393045 0 5630.63148468 0 32567.91477507 0 654.18948896 0 933.85205476 0 510
0.02350000 0.02348930 75941.31134066 0 3944.42713804 0 22816.29686079 0 2126.30711352 0 -4818.31037436 0 555
0.02450000 0.02439640 70850.25638904 0 -420.83138554 0 28033.02269910 0 5544.16770017 0 -10339.24833705 0 592
0.02550000 0.02547300 68761.79448175 0 3967.02575300 0 21327.29061918 0 4135.76798324 0 -5465.54312163 0 837
0.02650000 0.02652900 66685.73357825 0 2352.50363724 0 23521.05033550 0 8023.83698795 0 3422.63275864 0 723
0.02750000 0.02749970 61317.20616669 0 4425.76324256 0 25935.48148545 0 9444.71521495 0 -1987.92519794 0 826
0.02850000 0.02848090 60426.54835827 0 2718.78721457 0 26902.98122811 0 2116.07628539 0 8045.26193648 0 831
0.02950000 0.02946900 58883.39844830 0 1839.31245422 0 24139.43967662 0 3792.33768434 0 2193.25038938 0 996
0.03050000 0.03053250 57765.75798110 0 -1113.72086421 0 28301.63729920 0 -157.90685317 0 13830.10876123 0 1041
0.03150000 0.03150510 57255.98814645 0 601.63691367 0 26722.17016382 0 -2748.17316464 0 2915.75280077 0 1036
0.03250000 0.03246190 57780.92706611 0 4238.48594058 0 31375.20394561 0 2140.80078671 0 11744.30421189 0 1059
0.03350000 0.03345080 53662.35440331 0 3773.35971960 0 23000.09745278 0 5157.89857654 0 6463.79071030 0 1302
0.03450000 0.03451200 51380.12681169 0 -430.82858762 0 22577.57753770 0 4724.09596247 0 5247.89443267 0 1339
0.03550000 0.03553350 51472.69144718 0 -742.17128920 0 19834.63051038 0 979.86199331 0 -4509.87969421 0 1365
0.03650000 0.03647120 51999.51266205 0 751.48865053 0 17587.17001869 0 2623.48771485 0 -11277.82716728 0 1308
0.03750000 0.03744890 50556.34584519 0 1432.26057692 0 18431.98840235 0 -4841.31866533 0 -861.45455170 0 1579
0.03850000 0.03847530 49688.49702590 0 2244.67026583 0 19968.93781043 0 -1149.73913684 0 -3931.08498664 0 1662
0.03950000 0.03950240 48660.21021999 0 2221.07514165 0 22607.58353796 0 496.83846649 0 -5746.43692995 0 1683
0.04050000 0.04050350 46226.51322486 0 2500.75099424 0 22670.69578943 0 -161.27283991 0 -6637.89194575 0 1822
0.04150000 0.04152450 44336.35665506 0 1636.27923402 0 21700.42796557 0 2597.06914784 0 -6046.03189490 0 1887
0.04250000 0.04250150 42982.54349949 0 0.49191460 0 23562.01793733 0 6989.42718642 0 -2131.32287667 0 1920
0.04350000 0.04349210 43401.40954738 0 6.51142385 0 18846.20407382 0 6294.32877896 0 -3990.39943069 0 2005
0.04450000 0.04448520 43723.28202986 0 1347.15868836 0 16664.62391480 0 567.17651714 0 -4823.00504008 0 2151
0.04550000 0.04548030 42405.89682293 0 1226.02745484 0 12710.91816856 0 -3204.31973019 0 -6293.98553689 0 2274
0.04650000 0.04648670 40904.93247052 0 -370.61174910 0 14709.91569132 0 -2192.28709712 0 -4383.09050271 0 2311
0.04750000 0.04749250 41565.61809245 0 -382.64736618 0 16062.84306091 0 -1136.09803267 0 -7381.55356987 0 2568
0.04850000 0.04851840 42302.92420212 0 497.49505536 0 15289.21972583 0 2281.37502261 0 -8288.03373045 0 2493
0.04950000 0.04949480 39900.67260947 0 1711.53782582 0 14419.15644158 0 2726.70392681 0 -6653.26033260 0 2644
0.05050000 0.05050630 40505.77516081 0 1526.45284415 0 13598.36500277 0 4974.99484286 0 -5131.54644348 0 2829
0.05150000 0.05149060 36900.40475336 0 1194.43811214 0 12006.93975659 0 4571.94007482 0 -2093.59946601 0 2784
0.05250000 0.05249300 36197.31212737 0 2315.06810703 0 11804.31621241 0 1656.43086519 0 -958.80686044 0 3055
0.05350000 0.05348950 33885.29998199 0 1659.36503127 0 11620.95851341 0 1128.03738020 0 2291.94909281 0 3009
0.05450000 0.05448610 33154.63726721 0 -69.78166632 0 12731.06979973 0 -1179.01436366 0 1293.15896022 0 3336
0.05550000 0.05550870 33676.14376617 0 817.48634985 0 15057.58669062 0 893.33066762 0 1027.82398273 0 3349
0.05650000 0.05647670 33685.22307252 0 1153.76946308 0 14293.92844788 0 -1672.02069854 0 831.10309491 0 3324
0.05750000 0.05747970 33179.10710506 0 678.56631928 0 13886.79906430 0 -2725.24237994 0 722.16913441 0 3639
0.05850000 0.05849280 33616.13176565 0 -778.67563689 0 15208.83464764 0 -76.70109427 0 2049.78627670 0 3846
0.05950000 0.05951020 34218.46623579 0 -732.99233192 0 16650.67278553 0 800.32092468 0 -1735.13295001 0 3787
0.06050000 0.06049470 34598.68987006 0 611.58982645 0 17736.42495724 0 853.95858780 0 -678.26404481 0 3930
0.06150000 0.06148310 34106.41430862 0 434.18460928 0 15260.65312780 0 1994.34714633 0 -1117.49652697 0 4083
0.06250000 0.06249100 33692.19863716 0 -304.39813945 0 16041.14130426 0 2579.65238090 0 3300.50501589 0 4303
0.06350000 0.06350600 33932.91097871 0 215.42758060 0 14632.18797109 0 3151.93656147 0 3096.79638388 0 4470
0.06450000 0.06451750 33428.78802972 0 609.62559603 0 13606.89069288 0 2839.91844808 0 6603.40165394 0 4479
0.06550000 0.06550280 33018.33694869 0 1233.15803203 0 14016.56671117 0 -465.59790202 0 3999.26836287 0 4636
0.06650000 0.06648880 32240.94902318 0 1454.91455349 0 15430.72403701 0 -1083.12803073 0 7600.75238431 0 4653
0.06750000 0.06749660 31197.49313227 0 1356.16048844 0 15083.05303770 0 257.75264945 0 6608.45063406 0 5220
0.06850000 0.06852730 29691.98912667 0 928.13430623 0 13922.23050372 0 2256.78338919 0 5618.40763808 0 5029
0.06950000 0.06949320 28678.64995927 0 564.08733851 0 12858.40153514 0 2274.54339820 0 4315.95899733 0 5040
0.07050000 0.07048030 28466.83638549 0 -96.43795615 0 11319.56983185 0 2996.76900147 0 2706.72945284 0 5475
0.07150000 0.07148790 28081.18731206 0 -27.36569368 0 9728.64284028 0 2954.36199741 0 2634.12821901 0 5509
0.07250000 0.07249820 27517.38453229 0 408.58428706 0 7832.11968372 0 2029.63464553 0 1536.52865973 0 5916
0.07350000 0.07351270 27208.02377686 0 573.69479476 0 7713.23613214 0 198.58546732 0 2541.64108980 0 5721
0.07450000 0.07449140 26649.42498976 0 768.90320301 0 6746.78826034 0 -808.97062483 0 2316.76217273 0 6028
0.07550000 0.07549160 26760.25896119 0 -12.51637742 0 8443.85455762 0 -265.87419971 0 2045.05839400 0 6183
0.07650000 0.07648840 26695.81803075 0 175.56610402 0 9017.95459947 0 -1203.46205686 0 1651.51475297 0 6330
0.07750000 0.07749960 26765.35223061 0 690.76027060 0 9247.35102506 0 -988.07212217 0 1589.65367421 0 6583
0.07850000 0.07848650 26345.82184323 0 453.92324273 0 9512.38926425 0 -677.02172997 0 1114.51807160 0 6549
0.07950000 0.07947320 25908.35428965 0 715.26553989 0 9835.23611131 0 -117.24152581 0 1045.79879484 0 6828
0.08050000 0.08048110 25635.86437586 0 94.87642618 0 10077.64251856 0 210.88017680 0 -231.28868590 0 7147
0.08150000 0.08149960 25993.38974425 0 9.89235824 0 10281.62795870 0 917.39636562 0 481.51104725 0 7386
0.08250000 0.08250610 25433.79444792 0 230.15709431 0 10000.98881384 0 1133.70641051 0 -813.10503092 0 7227
0.08350000 0.08350160 25128.19828293 0 879.05622647 0 10428.02623745 0 353.64784024 0 -410.21191881 0 7798
0.08450000 0.08449610 24190.15092429 0 1056.38283013 0 9764.49502804 0 -734.53359954 0 -770.15105402 0 7371
0.08550000 0.08548940 22895.57470649 0 1195.76679111 0 10717.52324216 0 -538.37297135 0 737.88740673 0 8256
0.08650000 0.08650700 22717.75316991 0 213.61061210 0 9777.71538388 0 293.91596954 0 301.77399847 0 8037
0.08750000 0.08749060 22713.65640972 0 -157.01553102 0 10632.67601707 0 1430.92082561 0 -1391.99053155 0 8155
0.08850000 0.08849210 22305.41979366 0 241.25820717 0 9277.76670134 0 526.09597760 0 -951.94755521 0 8718
0.08950000 0.08949900 21958.41313384 0 985.29629033 0 8751.74269386 0 613.63488484 0 -1024.45688875 0 8571
0.09050000 0.09049190 21182.02171756 0 669.28992555 0 7973.17002958 0 639.26510233 0 -1489.77023202 0 8932
0.09150000 0.09150830 19998.83308744 0 875.83307271 0 7682.78723889 0 952.33840828 0 -510.11750565 0 9285
0.09250000 0.09250820 19611.63388853 0 431.55493213 0 6727.26775169 0 1318.70281358 0 -1192.68868481 0 9204
0.09350000 0.09350330 18819.85194075 0 298.09909386 0 6303.28628973 0 1220.87882380 0 -1092.52179111 0 9349
0.09450000 0.09448040 19107.06804655 0 44.04194354 0 5320.07491816 0 502.46985090 0 -1773.97466547 0 9564
0.09550000 0.09549270 18875.32428809 0 -365.93258463 0 5693.57765127 0 -665.74013821 0 -1545.78512328 0 10155
0.09650000 0.09649430 18977.18967642 0 163.48176871 0 6128.23283435 0 -185.61756049 0 -1323.30890070 0 9913
0.09750000 0.09749140 18711.12171103 0 696.16356511 0 6237.32845079 0 -544.50703930 0 -962.72424896 0 10476
0.09850000 0.09850240 18300.78135325 0 912.34295657 0 6638.96596126 0 107.38449936 0 -1097.52648193 0 10575
0.09950000 0.09950330 17618.06180493 0 626.28723041 0 7126.33648280 0 507.09586821 0 -17.61640096 0 10882
0.10050000 0.10051200 17258.87558782 0 565.82790797 0 6578.74358657 0 868.37032578 0 -229.63890951 0 10875
0.10150000 0.10150300 16727.51471977 0 53.59437033 0 5900.34224493 0 1006.57840587 0 382.86659821 0 11118
0.10250000 0.10250800 16519.02284343 0 -19.41764676 0 5626.82260494 0 551.65976114 0 -287.62024565 0 11575
0.10350000 0.10349800 16471.30112347 0 238.92859003 0 5145.56400670 0 847.97288900 0 536.67447673 0 11364
0.10450000 0.10450100 16184.52791066 0 103.02532508 0 4821.99745852 0 423.94713775 0 -796.85307255 0 12093
0.10550000 0.10551000 15810.17260855 0 714.67538498 0 4538.99990848 0 -68.94570580 0 -253.88065746 0 12067
0.10650000 0.10649700 15283.01922393 0 509.62035827 0 4524.15192090 0 -374.76829983 0 -754.52246753 0 12054
0.10750000 0.10749900 14924.49734630 0 414.80914808 0 4794.59345459 0 -128.44339683 0 334.94779086 0 12807
0.10850000 0.10850100 14932.24797367 0 51.69103769 0 4928.12569191 0 -170.93122885 0 1.64839236 0 12736
0.10950000 0.10950300 14756.08728581 0 179.16350236 0 5531.88849194 0 274.03561033 0 403.72464370 0 12933
0.11050000 0.11050200 14676.47727036 0 234.43765508 0 5161.44172049 0 748.51351686 0 849.33478496 0 13428
0.11150000 0.11150900 14485.14749750 0 -21.70430328 0 4662.01343722 0 777.05686301 0 729.97623064 0 13453
0.11250000 0.11250000 14551.47072316 0 96.13224926 0 4850.46440563 0 -56.94707028 0 306.48416545 0 13668
0.11350000 0.11349100 14290.71747368 0 267.00136237 0 4649.49063785 0 154.91732547 0 583.93669522 0 13791
0.11450000 0.11448600 14238.23465404 0 393.31222944 0 5539.11872005 0 -523.57923816 0 387.13387219 0 14205
0.11550000 0.11549300 13785.04439921 0 345.16090327 0 5022.31795914 0 -432.78949635 0 637.89988468 0 14776
0.11650000 0.11649800 13507.79338576 0 102.76955438 0 5364.08740932 0 300.22719469 0 574.77434643 0 14553
0.11750000 0.11747300 13683.17901088 0 84.04005261 0 5322.79871007 0 367.92449586 0 437.63917462 0 14568
0.11850000 0.11849100 13587.18195471 0 -199.43139294 0 4953.22665227 0 729.93637027 0 498.72297618 0 16015
0.11950000 0.11950300 13762.45685658 0 -130.20500370 0 4768.90566102 0 452.79718730 0 228.64793643 0 15270
0.12050000 0.12050700 13956.22254091 0 -103.94012056 0 4673.47329340 0 106.99608221 0 -59.94202342 0 15999
0.12150000 0.12150000 13927.54521963 0 206.48446385 0 4866.98431426 0 -337.84763273 0 -11.53603378 0 15670
0.12250000 0.12250700 13755.14912220 0 305.98480360 0 4474.31538689 0 -220.28500950 0 82.15366063 0 16887
0.12350000 0.12352200 13509.56495773 0 227.47980617 0 4923.95142545 0 -57.63266864 0 416.99371776 0 16407
0.12450000 0.12449800 13418.32900122 0 293.71002430 0 4700.66692316 0 729.12033994 0 183.98882151 0 16306
0.12550000 0.12549900 13159.90093995 0 366.00898367 0 4559.72730054 0 281.82831254 0 -245.64727673 0 17523
0.12650000 0.12650100 12882.31775675 0 205.27979491 0 4629.25042808 0 371.53518099 0 307.59250516 0 17154
0.12750000 0.12750600 12536.19688292 0 389.53213775 0 4687.97803892 0 -273.79423365 0 -61.96250126 0 18007
0.12850000 0.12850300 12399.45367141 0 346.14080402 0 4724.92638684 0 -269.29665531 0 295.56353148 0 17496
0.12950000 0.12949900 12209.23113102 0 -160.04934802 0 4568.00939951 0 179.46245513 0 122.27611190 0 18405
0.13050000 0.13049000 12288.95186972 0 -154.77781417 0 4600.67275772 0 74.04617222 0 -289.92439645 0 18100
0.13150000 0.13148800 12405.21128031 0 43.37140355 0 4499.85924025 0 264.64295719 0 -528.48317083 0 19059
0.13250000 0.13249300 12436.21378981 0 117.85603983 0 4345.27851345 0 161.38909932 0 -623.72620168 0 18957
0.13350000 0.13349100 12091.53231820 0 204.97419874 0 4025.06687970 0 450.42438809 0 -278.60737325 0 19468
0.13450000 0.13450700 12187.75082088 0 -4.51118623 0 3740.44169791 0 548.89057270 0 -295.88905783 0 19953
0.13550000 0.13551000 12123.86350667 0 -80.58083689 0 3440.61421415 0 439.52146984 0 -252.20652195 0 19956
0.13650000 0.13649900 12265.92143410 0 108.14217855 0 3693.69434253 0 269.24129369 0 -352.23833329 0 19723
0.13750000 0.13749600 11997.41755724 0 264.10594943 0 2976.09697103 0 157.77398527 0 420.21354982 0 20946
0.13850000 0.13851100 11689.71765053 0 384.00372597 0 3535.89156921 0 4.45231468 0 182.77750918 0 20955
0.13950000 0.13949800 11662.36900823 0 160.34940802 0 3475.85742404 0 -50.96635403 0 554.16210655 0 20506
0.14050000 0.14048300 11524.18639450 0 157.64665354 0 4121.89436024 0 -77.92890437 0 469.66808862 0 21447
0.14150000 0.14148400 11314.91945542 0 452.57906250 0 4016.41939402 0 -247.46203077 0 577.81591406 0 21771
0.14250000 0.14249400 11218.25805976 0 217.48371132 0 4082.91977688 0 -250.19910946 0 747.49264851 0 22470
0.14350000 0.14350900 10876.02357194 0 129.27160672 0 4186.37957998 0 242.42190851 0 1064.40140777 0 22519
0.14450000 0.14449900 10929.18180339 0 -44.54263407 0 4006.42108470 0 435.89085453 0 989.87358941 0 22218
0.14550000 0.14550500 10796.26961627 0 52.87788019 0 3734.88339085 0 711.45112399 0 301.11298068 0 23559
0.14650000 0.14650700 10629.48718752 0 329.25661590 0 3289.69842687 0 680.95904867 0 482.70685833 0 23044
0.14750000 0.14750500 10282.93449303 0 365.78642994 0 3123.50283134 0 178.27439467 0 392.95459335 0 23649
0.14850000 0.14849900 9911.05939167 0 340.25918507 0 2851.89870354 0 372.97236875 0 741.74057576 0 23640
0.14950000 0.14949500 9699.66656623 0 149.01909804 0 2752.23670785 0 -32.66811931 0 877.29904852 0 24457
0.15050000 0.15050000 9688.20671004 0 -94.70092983 0 2955.72389336 0 8.33114936 0 824.71989965 0 24591
0.15150000 0.15149900 9886.66706009 0 -123.51399782 0 2943.85436116 0 62.84352614 0 806.98757145 0 25020
0.15250000 0.15250500 9875.30685483 0 65.86184189 0 2914.03659042 0 -128.62498295 0 366.87705394 0 25297
0.15350000 0.15350100 9844.07182651 0 54.96335257 0 2814.90606632 0 66.53127465 0 372.36339088 0 25452
0.15450000 0.15450400 9861.65467833 0 35.84820173 0 2682.33712127 0 31.16815147 0 158.35971125 0 26061
0.15550000 0.15549900 9754.40814013 0 98.33110225 0 2501.84715440 0 57.13762499 0 105.66419225 0 26128
0.15650000 0.15649500 9739.54908023 0 180.62062030 0 2555.97975044 0 225.98614955 0 -331.59951983 0 26331
0.15750000 0.15749700 9472.06385726 0 149.25493856 0 2329.01923630 0 13.54067819 0 -15.63988025 0 27345
0.15850000 0.15849900 9479.70376138 0 193.43683628 0 2274.37731332 0 57.42993437 0 -464.22714821 0 26980
0.15950000 0.15949700 9274.78824596 0 77.97551886 0 2573.29686645 0 -117.64898736 0 -16.92426993 0 27777
0.16050000 0.16050000 9275.37507918 0 100.08484778 0 2347.33286155 0 344.08578053 0 -94.77732888 0 28224
0.16150000 0.16150500 9233.67670391 0 7.73740702 0 2451.25770230 0 213.87524066 0 286.74331753 0 28075
0.16250000 0.16249700 9203.17244904 0 18.18485411 0 2204.12341235 0 271.95290603 0 382.17457791 0 28590
0.16350000 0.16349900 9099.41369316 0 178.60656442 0 2245.93251086 0 226.10019449 0 11.11163157 0 29163
0.16450000 0.16449100 8836.72278684 0 344.76783574 0 2101.57153988 0 7.28453786 0 294.88479797 0 28996
0.16550000 0.16550500 8697.84261664 0 116.39227849 0 2241.81360603 0 16.31340977 0 298.85311918 0 30777
0.16650000 0.16650700 8545.66458433 0 143.39103533 0 2064.61211963 0 8.62276118 0 403.35593528 0 29211
0.16750000 0.16749900 8551.72114601 0 102.61664557 0 2340.25764599 0 -62.28913484 0 16.54471064 0 30922
0.16850000 0.16850800 8413.41673670 0 118.23803504 0 2443.36313471 0 -308.33656539 0 297.44804116 0 30867
0.16950000 0.16949900 8372.18339907 0 270.31641642 0 2582.02185841 0 -276.23346681 0 318.43341839 0 30852
0.17050000 0.17049200 8351.45600701 0 66.32566158 0 2917.17005834 0 -254.99342611 0 692.13434611 0 31257
0.17150000 0.17149500 8277.30464770 0 14.71844138 0 2880.70889272 0 134.66604337 0 547.34044723 0 32608
0.17250000 0.17250900 8344.34757448 0 106.79954844 0 2902.66531283 0 388.84122468 0 524.43734334 0 32361
0.17350000 0.17350400 8191.58270896 0 -22.58112068 0 2736.77974240 0 289.05632618 0 834.76581996 0 32508
0.17450000 0.17449800 8169.16125120 0 38.80628402 0 2787.92281074 0 348.57450101 0 739.36999102 0 32791
0.17550000 0.17549800 8126.73210249 0 123.00799257 0 2485.59298156 0 231.64078583 0 895.78540204 0 33633
0.17650000 0.17650100 8062.70084807 0 120.50011100 0 2411.49698388 0 79.75594869 0 528.38130544 0 33984
0.17750000 0.17750300 8047.78642654 0 17.18170148 0 2429.16841429 0 -178.94980649 0 840.33409211 0 34069
0.17850000 0.17849800 8003.02101729 0 83.96099621 0 2485.39367972 0 29.47408577 0 592.93074467 0 34536
