### header ###
fiducial parameters:
Omega_m = 0.31
Omega_nu = 0
Omega_de = 0.69
Omega_k = 0
H_0 = 100
w_de = -1
zeff = 0
beta = 0
fgrowth = 0
b_1 = 2
gamma = 0.55
Lx = 3500 Ly = 3500 Lz = 3500
nx = 700 ny = 700 nz = 700
xoffset = -685.467585 yoffset = -31.7331281 zoffset = 572.489161
bins = 400 dk = 0.001
kx_ny = 0.628318531 ky_ny = 0.628318531 kz_ny = 0.628318531
############################
A(data) = 8.00519864 (not used)
A(ran) = 7.99497623 (used)
Ngal = 475420
weighted Ngal = 0
Nran = 23820508
weighted Nran = 0
SN(data) = 3497.6007
SN(ran) = 69.6391425
SN(data+ran) = 3567.23984
############################
13 columns: k_central k_mean P_0(k) sigma^{lin}_{P_0(k)} P^img_1(k) sigma^{lin}_{P_1(k)} P_2(k) sigma^{lin}_{P_2(k)} P^img_3(k) sigma^{lin}_{P_3(k)} P_4(k) sigma^{lin}_{P_4(k)} N_modes
### header ###
0.00050000 0 0 0 0 0 0 0 0 0 0 0 0
0.00150000 0.00179520 34454.30675442 0 -31316.85279381 0 23406.78394337 0 -43247.28278590 0 120920.85934444 0 3
0.00250000 0.00253879 55238.94273424 0 -30311.59642353 0 -20202.56386410 0 -5622.65941081 0 -43392.21951778 0 6
0.00350000 0.00331552 77586.65880871 0 -36202.40539679 0 -23915.33582229 0 12406.87212904 0 52230.81352751 0 7
0.00450000 0.00420575 96733.58722460 0 -36428.61299284 0 -20336.31754791 0 -32220.24377576 0 -52.40088444 0 24
0.00550000 0.00557378 144951.12589834 0 -23858.31334947 0 4691.23330241 0 -31186.19936095 0 -18585.56154759 0 45
0.00650000 0.00659388 119606.57438846 0 -477.99336965 0 24862.13031753 0 -55352.21261714 0 1655.46757294 0 40
0.00750000 0.00754703 144024.37231102 0 38152.68469035 0 35312.30120462 0 -44860.96340497 0 7346.55395112 0 57
0.00850000 0.00846663 108975.70316034 0 36883.02120339 0 86187.86217433 0 -53655.71100842 0 42536.99314879 0 75
0.00950000 0.00948925 102344.59854970 0 17154.13139503 0 92611.02852487 0 16756.08131780 0 1784.05048105 0 112
0.01050000 0.01054430 95483.30030608 0 -486.35961829 0 106120.48275935 0 8838.41685254 0 9564.46240787 0 105
0.01150000 0.01145670 100059.93504662 0 1675.13202181 0 102482.55971694 0 51955.44480927 0 -31693.64400739 0 144
0.01250000 0.01249090 98844.19378153 0 543.97224602 0 89810.06251550 0 29428.79996574 0 -7842.35051185 0 169
0.01350000 0.01339930 106304.72624433 0 1778.17107658 0 63943.11872068 0 41784.96084710 0 -17737.86435947 0 180
0.01450000 0.01448870 90683.89039019 0 4247.88634435 0 60095.48584620 0 20748.76164741 0 -18107.79073166 0 267
0.01550000 0.01550050 85312.70562066 0 11951.13523950 0 40296.72966823 0 8488.63103919 0 -14162.49995228 0 238
0.01650000 0.01653350 77108.33437654 0 8057.51900005 0 32885.57977412 0 2614.80701220 0 -11582.31609979 0 315
0.01750000 0.01747870 68279.04111966 0 4575.52750806 0 29627.54819623 0 -308.04093431 0 14693.52865058 0 297
0.01850000 0.01844180 69230.92888432 0 2448.85500782 0 28624.83846065 0 11236.52739571 0 7705.93947008 0 388
0.01950000 0.01947590 70742.85483830 0 -2356.91042252 0 41197.35256898 0 8316.19065246 0 25974.12389907 0 399
0.02050000 0.02045430 72820.02297428 0 -705.92603391 0 30405.04684500 0 14312.19778383 0 17523.06125799 0 462
0.02150000 0.02154770 78274.02873345 0 934.20747639 0 47955.01385229 0 7778.45212532 0 38363.83392464 0 571
0.02250000 0.02255340 76165.52591823 0 3701.00207691 0 54078.67381650 0 12886.63596343 0 41402.85491761 0 510
0.02350000 0.02348930 74819.46339003 0 2478.62848925 0 56346.28593935 0 2831.22667310 0 43119.95105049 0 555
0.02450000 0.02439640 72503.46520772 0 4955.60720211 0 55736.31156509 0 7433.84815999 0 35282.95954385 0 592
0.02550000 0.02547300 71814.43443425 0 1886.62449817 0 47397.85446742 0 8477.21547230 0 20195.36685297 0 837
0.02650000 0.02652900 65189.41960226 0 1892.23816686 0 46876.12652197 0 10055.25427778 0 19841.27390527 0 723
0.02750000 0.02749970 66745.52413227 0 4138.86823418 0 29012.36982931 0 5892.28159247 0 6528.55273817 0 826
0.02850000 0.02848090 60421.12291911 0 860.10151361 0 29588.01999663 0 9765.58011587 0 6717.19193610 0 831
0.02950000 0.02946900 57483.30297498 0 5343.88041652 0 21303.70656732 0 9017.83280390 0 -1358.82891872 0 996
0.03050000 0.03053250 53724.91303854 0 3141.73895032 0 23374.78492464 0 7316.48151691 0 1913.64097073 0 1041
0.03150000 0.03150510 52448.82760319 0 905.86675378 0 16734.93317740 0 7960.51436231 0 2044.95874308 0 1036
0.03250000 0.03246190 51977.03584267 0 1415.38635389 0 25233.05319896 0 1106.06324436 0 9583.26321541 0 1059
0.03350000 0.03345080 50990.49170133 0 222.76631749 0 16058.85702397 0 4601.76891788 0 13316.46361289 0 1302
0.03450000 0.03451200 52577.15584784 0 -4519.63441237 0 18590.54409376 0 9485.91533561 0 17702.43292005 0 1339
0.03550000 0.03553350 56512.81370463 0 -3253.72444353 0 13567.47321653 0 5796.50598278 0 9886.71134939 0 1365
0.03650000 0.03647120 55347.89441046 0 1485.48524232 0 12948.53025917 0 158.08733206 0 5838.68046802 0 1308
0.03750000 0.03744890 53696.78933350 0 6068.82981170 0 11718.61641831 0 -4690.46931200 0 9963.48684968 0 1579
0.03850000 0.03847530 50511.50292967 0 624.95412251 0 15362.07562313 0 -337.48113877 0 12283.96932355 0 1662
0.03950000 0.03950240 49941.49964801 0 -1561.67390940 0 15222.67505367 0 2765.30205113 0 9238.95820285 0 1683
0.04050000 0.04050350 51393.96721772 0 -1016.51471016 0 15900.63350231 0 2095.92465422 0 4656.90909547 0 1822
0.04150000 0.04152450 51662.36037132 0 328.16820637 0 15845.71477121 0 2002.16420766 0 2180.59472211 0 1887
0.04250000 0.04250150 50569.30046523 0 3133.15789858 0 17304.71501257 0 -6988.55247276 0 3566.77228313 0 1920
0.04350000 0.04349210 49135.87729420 0 5443.65313546 0 20569.83287834 0 -2571.17098009 0 1901.21782228 0 2005
0.04450000 0.04448520 45328.21551232 0 4258.74829500 0 22559.97254124 0 -8746.61620746 0 6763.16422875 0 2151
0.04550000 0.04548030 43758.27057628 0 1824.07693527 0 23185.89106324 0 2166.71002679 0 5624.89602042 0 2274
0.04650000 0.04648670 43158.15057111 0 -369.89315522 0 23107.49900352 0 2493.25503034 0 7609.66560579 0 2311
0.04750000 0.04749250 44030.76049007 0 -1262.59934372 0 25095.09203172 0 7168.62169129 0 1627.87533949 0 2568
0.04850000 0.04851840 43143.31365586 0 2051.90109074 0 21584.72217121 0 4952.91662718 0 2059.44134394 0 2493
0.04950000 0.04949480 40649.71538345 0 1964.82832837 0 23092.99425801 0 1154.56667046 0 5950.27842987 0 2644
0.05050000 0.05050630 39144.43282435 0 1517.71677987 0 20911.63554549 0 2507.97015002 0 8708.26167429 0 2829
0.05150000 0.05149060 38996.39584153 0 691.86528862 0 19609.19797707 0 3120.98941361 0 9364.18619655 0 2784
0.05250000 0.05249300 37290.59347997 0 819.29003156 0 18714.77557822 0 3273.63248356 0 5874.35549858 0 3055
0.05350000 0.05348950 36813.59772678 0 428.54215255 0 18010.13282676 0 3024.17300539 0 7535.44781253 0 3009
0.05450000 0.05448610 36246.14107982 0 939.10033673 0 16426.34748470 0 2561.91451654 0 4601.86856880 0 3336
0.05550000 0.05550870 34860.99324501 0 721.47600688 0 14000.84400993 0 2012.60540996 0 6575.04543008 0 3349
0.05650000 0.05647670 34699.66947240 0 613.00376233 0 13920.23748525 0 4530.33027815 0 6347.40950414 0 3324
0.05750000 0.05747970 34186.68866356 0 953.33934644 0 15369.16191102 0 75.80733621 0 6226.45542782 0 3639
0.05850000 0.05849280 33077.79533297 0 1412.29717527 0 13356.87759848 0 -1485.33022977 0 8051.94962067 0 3846
0.05950000 0.05951020 32346.13610895 0 964.44931717 0 16335.77586769 0 -321.94998875 0 9956.59986365 0 3787
0.06050000 0.06049470 32370.82739330 0 201.54620698 0 16809.11775368 0 1377.33077349 0 9266.43971305 0 3930
0.06150000 0.06148310 32330.74557745 0 -1152.19719295 0 16765.82496364 0 4859.98660497 0 8694.04480923 0 4083
0.06250000 0.06249100 32881.81518368 0 -90.72928692 0 13270.62418814 0 3028.41370580 0 6375.32283500 0 4303
0.06350000 0.06350600 32630.03051730 0 452.80825962 0 10808.63740309 0 3595.50496603 0 4688.21055774 0 4470
0.06450000 0.06451750 31712.46695958 0 -216.47612976 0 9863.94664956 0 1819.71443929 0 3544.06294493 0 4479
0.06550000 0.06550280 31163.83326482 0 1516.99707875 0 7298.28968724 0 1076.42705975 0 3872.02520606 0 4636
0.06650000 0.06648880 30435.93863124 0 934.81977595 0 6539.75793089 0 -1427.16730750 0 2550.79790242 0 4653
0.06750000 0.06749660 29649.91429236 0 838.62895409 0 7495.80888968 0 -1672.77361663 0 1823.83334413 0 5220
0.06850000 0.06852730 29199.60284199 0 940.33268648 0 9014.23429833 0 -1702.65782131 0 2169.32309544 0 5029
0.06950000 0.06949320 29018.68105445 0 -130.69882939 0 9305.28142851 0 -330.80895584 0 3243.00643311 0 5040
0.07050000 0.07048030 29538.30525819 0 -702.20130384 0 10749.53333321 0 785.03336580 0 2141.85265757 0 5475
0.07150000 0.07148790 30398.29272686 0 105.21565238 0 10329.79257166 0 2037.35205593 0 1999.79473015 0 5509
0.07250000 0.07249820 28958.44760744 0 823.45322569 0 11130.67597044 0 2284.10988684 0 4597.31784330 0 5916
0.07350000 0.07351270 28362.31363920 0 1314.17423273 0 9148.29800723 0 2152.55959567 0 2810.02317107 0 5721
0.07450000 0.07449140 27627.00054800 0 849.22516894 0 9086.11583105 0 905.45929223 0 3793.52242309 0 6028
0.07550000 0.07549160 26139.65515511 0 1284.16823247 0 8433.19190882 0 745.63803410 0 1726.62940454 0 6183
0.07650000 0.07648840 25303.69463130 0 1042.77605017 0 7683.81696510 0 -1057.56978336 0 3024.07335447 0 6330
0.07750000 0.07749960 25127.20177369 0 282.92668716 0 7820.92556333 0 -452.58570589 0 369.86990333 0 6583
0.07850000 0.07848650 25001.08799401 0 -806.13389521 0 7729.24671383 0 -1401.86704529 0 432.29124173 0 6549
0.07950000 0.07947320 24742.54920949 0 317.44023085 0 8789.04535617 0 -350.37043210 0 -3739.74414145 0 6828
0.08050000 0.08048110 25086.67706486 0 567.67698622 0 8190.78550157 0 -1356.96876815 0 -2822.40203022 0 7147
0.08150000 0.08149960 24762.59011741 0 625.78454687 0 8601.24765492 0 -694.46839218 0 -2433.49769329 0 7386
0.08250000 0.08250610 23972.69046485 0 546.64289076 0 7636.17275140 0 1065.71569272 0 -2006.43812504 0 7227
0.08350000 0.08350160 24099.46858402 0 -247.80084391 0 8285.75283154 0 1179.22473784 0 -2199.72769940 0 7798
0.08450000 0.08449610 24092.27157289 0 -31.69010086 0 8261.12798114 0 1946.97974076 0 -3734.81695690 0 7371
0.08550000 0.08548940 23033.75732023 0 848.53314864 0 7398.69352869 0 669.13934193 0 -1309.62350722 0 8256
0.08650000 0.08650700 22909.08294277 0 1271.98867517 0 7552.28881858 0 402.60855336 0 -736.92854340 0 8037
0.08750000 0.08749060 21724.34418718 0 849.58059057 0 7855.34942119 0 565.91427211 0 692.05351814 0 8155
0.08850000 0.08849210 21066.20519996 0 656.52132056 0 7404.41792062 0 261.34340439 0 825.86256357 0 8718
0.08950000 0.08949900 20837.22952271 0 565.35179801 0 7581.99586606 0 430.05684658 0 963.30776048 0 8571
0.09050000 0.09049190 20419.58143055 0 344.21421950 0 7807.09622963 0 -455.79003669 0 934.82752658 0 8932
0.09150000 0.09150830 19895.97118987 0 648.56031902 0 7597.46390384 0 413.42067854 0 1388.69097875 0 9285
0.09250000 0.09250820 19616.28426495 0 104.19932368 0 7686.58504630 0 817.75762181 0 530.59355594 0 9204
0.09350000 0.09350330 19455.40338534 0 290.62970354 0 7864.72768031 0 379.34559891 0 1193.08728851 0 9349
0.09450000 0.09448040 19021.03608270 0 589.45182021 0 7801.65971814 0 295.35758623 0 304.65833908 0 9564
0.09550000 0.09549270 18488.45725893 0 694.35102554 0 7562.12104301 0 157.16832910 0 1567.44259063 0 10155
0.09650000 0.09649430 18131.48550677 0 590.67088317 0 8246.85575445 0 -699.71003075 0 962.74528638 0 9913
0.09750000 0.09749140 17921.77567471 0 -41.21019647 0 8442.21585355 0 201.54067081 0 1425.42895250 0 10476
0.09850000 0.09850240 18137.24311568 0 -196.70206487 0 8707.68591340 0 -373.01112189 0 618.27861787 0 10575
0.09950000 0.09950330 17874.05395474 0 -225.63626408 0 8399.12236536 0 453.91438487 0 334.02546620 0 10882
0.10050000 0.10051200 18336.76640891 0 206.85095780 0 8428.55260472 0 984.62862915 0 -202.63129481 0 10875
0.10150000 0.10150300 17427.06420181 0 482.73453914 0 7517.72102049 0 877.15289383 0 -112.81370311 0 11118
0.10250000 0.10250800 17532.02984109 0 763.13452178 0 7593.06819088 0 673.38668573 0 -148.04694792 0 11575
0.10350000 0.10349800 16812.55017438 0 433.90669392 0 6626.27707702 0 453.93320782 0 328.34757803 0 11364
0.10450000 0.10450100 16438.41631876 0 287.15077908 0 7215.39119132 0 -13.71263139 0 446.44056562 0 12093
0.10550000 0.10551000 16291.70801491 0 270.17579790 0 7260.34483008 0 45.88205320 0 1163.05914360 0 12067
0.10650000 0.10649700 16274.98880443 0 38.01118038 0 7306.28390576 0 258.66390179 0 51.55008700 0 12054
0.10750000 0.10749900 16288.60776396 0 125.93440802 0 7322.41628302 0 -112.47488997 0 1151.42213022 0 12807
0.10850000 0.10850100 16179.98825749 0 49.45697471 0 6899.18773915 0 508.63824305 0 67.44972399 0 12736
0.10950000 0.10950300 16113.22213883 0 33.80192538 0 6810.13303063 0 474.12137766 0 871.56912042 0 12933
0.11050000 0.11050200 15906.83400421 0 229.06314862 0 5478.57524794 0 609.98433935 0 -111.70314893 0 13428
0.11150000 0.11150900 15916.24548031 0 119.04963645 0 5802.08643449 0 835.37147613 0 -184.16154978 0 13453
0.11250000 0.11250000 15321.44019105 0 258.78126843 0 4829.94738774 0 511.77724714 0 106.05415953 0 13668
0.11350000 0.11349100 15296.41673696 0 264.79243357 0 4595.04801671 0 100.81506760 0 -881.28287099 0 13791
0.11450000 0.11448600 14692.97503434 0 373.78175569 0 4555.35373224 0 105.75686761 0 -225.76359582 0 14205
0.11550000 0.11549300 14552.91012539 0 433.21245916 0 4721.00678385 0 111.24918362 0 -468.59407311 0 14776
0.11650000 0.11649800 14402.76940085 0 17.64762491 0 4763.84560857 0 265.31615454 0 -280.87830707 0 14553
0.11750000 0.11747300 14310.64765836 0 54.52422417 0 5296.92268697 0 52.78243675 0 286.56948203 0 14568
0.11850000 0.11849100 14334.89604971 0 215.94133647 0 5133.51731729 0 116.27159015 0 670.22442976 0 16015
0.11950000 0.11950300 14272.66958423 0 16.42457591 0 5256.75229252 0 115.55299627 0 1073.10425508 0 15270
0.12050000 0.12050700 14117.21414377 0 224.08503138 0 5010.13840184 0 427.11271541 0 1108.40614830 0 15999
0.12150000 0.12150000 14247.09251390 0 139.37953205 0 5074.09214999 0 285.41796025 0 1067.16173835 0 15670
0.12250000 0.12250700 13880.70928565 0 183.31562416 0 4789.17908776 0 385.09213550 0 1016.85905946 0 16887
0.12350000 0.12352200 13892.88884295 0 178.63645969 0 4850.25403146 0 154.30724037 0 847.96735284 0 16407
0.12450000 0.12449800 13734.66532129 0 155.71453285 0 4877.02691287 0 -271.62848692 0 985.68603617 0 16306
0.12550000 0.12549900 13369.83221852 0 451.79957083 0 4762.81588236 0 145.66418362 0 771.34354340 0 17523
0.12650000 0.12650100 13346.13744340 0 186.43801976 0 4701.61914309 0 222.53490590 0 850.85612239 0 17154
0.12750000 0.12750600 13055.71036341 0 -106.58009496 0 4773.00242120 0 424.11543709 0 813.07292118 0 18007
0.12850000 0.12850300 13163.00119090 0 -4.57718836 0 4462.24655284 0 453.61100317 0 120.57429558 0 17496
0.12950000 0.12949900 12946.31579420 0 313.28921628 0 4402.68851764 0 488.75124045 0 1119.67777496 0 18405
0.13050000 0.13049000 12705.60345264 0 422.74911220 0 4327.71780629 0 208.23499840 0 1370.32199188 0 18100
0.13150000 0.13148800 12374.98383356 0 59.59568110 0 4211.12622595 0 664.10807753 0 1698.17352976 0 19059
0.13250000 0.13249300 12402.88609210 0 133.29418233 0 4010.69500208 0 647.27814381 0 1796.85008854 0 18957
0.13350000 0.13349100 12110.13382390 0 112.25787241 0 3601.38437051 0 894.34157088 0 2208.18695556 0 19468
0.13450000 0.13450700 12190.96179507 0 6.30736091 0 3380.19253761 0 360.93896614 0 2082.95896186 0 19953
0.13550000 0.13551000 12207.79172880 0 -34.04518435 0 3040.05071918 0 689.57553185 0 2316.21962881 0 19956
0.13650000 0.13649900 12168.04208270 0 63.54949757 0 3050.22618569 0 -43.13357001 0 2548.50593118 0 19723
0.13750000 0.13749600 12108.14080543 0 360.83488628 0 2875.47168308 0 -117.79292758 0 2318.40087680 0 20946
0.13850000 0.13851100 11861.89230146 0 108.74008409 0 2653.36084722 0 61.30701963 0 2156.10273961 0 20955
0.13950000 0.13949800 11732.78899408 0 89.37303785 0 2612.19394354 0 -269.81926904 0 1661.01480767 0 20506
0.14050000 0.14048300 11610.10763509 0 139.70616563 0 2924.56637132 0 -160.29847533 0 1276.06329070 0 21447
0.14150000 0.14148400 11518.31806234 0 300.92807285 0 2983.78116445 0 -201.87394779 0 879.95640647 0 21771
0.14250000 0.14249400 11114.51037621 0 387.53026142 0 2725.64098363 0 -178.41169150 0 677.19777993 0 22470
0.14350000 0.14350900 10993.16876852 0 274.81620923 0 3180.86854623 0 -78.16496633 0 864.21377505 0 22519
0.14450000 0.14449900 10874.53988041 0 6.35572482 0 2968.97746617 0 -141.17103421 0 360.77620296 0 22218
0.14550000 0.14550500 10696.98407962 0 130.69993662 0 3007.87454326 0 238.85772715 0 195.59151069 0 23559
0.14650000 0.14650700 10624.77037715 0 235.49616934 0 3150.74075039 0 -75.47328417 0 44.58736626 0 23044
0.14750000 0.14750500 10512.74059464 0 219.15231067 0 3353.77397059 0 141.59399701 0 154.71248746 0 23649
0.14850000 0.14849900 10305.02378104 0 249.57463034 0 3245.70808036 0 -196.54040893 0 358.07344847 0 23640
0.14950000 0.14949500 9933.93481474 0 328.59559811 0 3400.96421897 0 14.42092801 0 170.50051542 0 24457
0.15050000 0.15050000 9973.10869995 0 84.21643474 0 3496.39658658 0 -66.64930563 0 565.37947882 0 24591
0.15150000 0.15149900 9796.02900913 0 48.07049820 0 3606.54407388 0 77.33166317 0 284.12914164 0 25020
0.15250000 0.15250500 9857.79043696 0 119.29322760 0 3484.72635622 0 217.42613523 0 580.28947142 0 25297
0.15350000 0.15350100 9613.05884150 0 69.20745556 0 3069.96814084 0 556.59912524 0 622.80055533 0 25452
0.15450000 0.15450400 9680.26785315 0 -63.30834234 0 2689.71128960 0 501.49880801 0 205.08713645 0 26061
0.15550000 0.15549900 9616.23659872 0 -27.03285960 0 2327.24766433 0 409.64169408 0 -60.02672671 0 26128
0.15650000 0.15649500 9702.76681718 0 13.44290956 0 2227.56352399 0 7.29649597 0 -175.73772506 0 26331
0.15750000 0.15749700 9552.34928452 0 -25.43368372 0 1884.01142952 0 -189.07434030 0 -612.75463502 0 27345
0.15850000 0.15849900 9509.10078378 0 345.49750194 0 2207.50047142 0 -488.18101572 0 -647.12091679 0 26980
0.15950000 0.15949700 9374.69383280 0 286.01475855 0 2337.97674708 0 -304.19330144 0 -773.32991847 0 27777
0.16050000 0.16050000 9071.46714532 0 78.85410783 0 2136.41614608 0 -92.56707140 0 -726.82283254 0 28224
0.16150000 0.16150500 9186.04356254 0 91.87028999 0 2152.51530637 0 438.83055677 0 -474.39929302 0 28075
0.16250000 0.16249700 9093.05817871 0 55.94269970 0 2275.05272514 0 457.55053634 0 -728.48035956 0 28590
0.16350000 0.16349900 8949.49441512 0 183.83048727 0 2007.86645494 0 215.55823403 0 -293.53951050 0 29163
0.16450000 0.16449100 8855.26893091 0 247.65358199 0 2237.27395286 0 49.44258069 0 -206.76016473 0 28996
0.16550000 0.16550500 8560.75616306 0 278.49332830 0 2136.11719331 0 72.25998478 0 128.40575092 0 30777
0.16650000 0.16650700 8335.56722090 0 132.63759347 0 2212.85947663 0 72.82489480 0 431.36780984 0 29211
0.16750000 0.16749900 8394.17303616 0 12.33235538 0 2266.78169850 0 108.74130204 0 166.52555081 0 30922
0.16850000 0.16850800 8384.24116080 0 -48.29670580 0 2207.20151865 0 308.74402694 0 357.38364264 0 30867
0.16950000 0.16949900 8420.31479506 0 -55.14571376 0 1988.09128281 0 373.32446868 0 340.11967378 0 30852
0.17050000 0.17049200 8439.71350814 0 56.73271008 0 1787.07322573 0 217.23015508 0 761.61318435 0 31257
0.17150000 0.17149500 8390.24236085 0 109.40818817 0 1805.30934471 0 129.69789123 0 442.30173060 0 32608
0.17250000 0.17250900 8214.17025159 0 239.63721882 0 1747.67789402 0 -329.61203753 0 539.82012421 0 32361
0.17350000 0.17350400 8078.66714045 0 259.56518903 0 1940.79031119 0 -166.60305708 0 435.74359261 0 32508
0.17450000 0.17449800 7887.11592109 0 111.40198170 0 1915.87758034 0 -269.41180749 0 373.46730167 0 32791
0.17550000 0.17549800 7914.18775527 0 -86.67460157 0 1936.93714215 0 30.63501903 0 -108.14682892 0 33633
0.17650000 0.17650100 7966.28304355 0 1.27913032 0 1959.01535784 0 -112.70851603 0 -208.82958224 0 33984
0.17750000 0.17750300 7964.85471364 0 172.97407278 0 1796.30754463 0 -11.94316317 0 -110.87161734 0 34069
0.17850000 0.17849800 7893.99183480 0 257.71389632 0 2021.27504029 0 -4.05977862 0 132.96644151 0 34536
