### header ###
fiducial parameters:
Omega_m = 0.31
Omega_nu = 0
Omega_de = 0.69
Omega_k = 0
H_0 = 100
w_de = -1
zeff = 0
beta = 0
fgrowth = 0
b_1 = 2
gamma = 0.55
Lx = 3500 Ly = 3500 Lz = 3500
nx = 700 ny = 700 nz = 700
xoffset = -685.467585 yoffset = -31.7331281 zoffset = 572.489161
bins = 400 dk = 0.001
kx_ny = 0.628318531 ky_ny = 0.628318531 kz_ny = 0.628318531
############################
A(data) = 7.99349572 (not used)
A(ran) = 7.98590379 (used)
Ngal = 474428
weighted Ngal = 0
Nran = 23820508
weighted Nran = 0
SN(data) = 3494.27632
SN(ran) = 69.5601183
SN(data+ran) = 3563.83644
############################
13 columns: k_central k_mean P_0(k) sigma^{lin}_{P_0(k)} P^img_1(k) sigma^{lin}_{P_1(k)} P_2(k) sigma^{lin}_{P_2(k)} P^img_3(k) sigma^{lin}_{P_3(k)} P_4(k) sigma^{lin}_{P_4(k)} N_modes
### header ###
0.00050000 0 0 0 0 0 0 0 0 0 0 0 0
0.00150000 0.00179520 26626.17310764 0 -10103.86178373 0 43158.59346411 0 -33814.99071939 0 -29745.46845555 0 3
0.00250000 0.00253879 47088.71515848 0 -9931.37710771 0 1634.87304877 0 3099.46481416 0 19091.56679180 0 6
0.00350000 0.00331552 36484.41750992 0 3903.16058345 0 2664.72105248 0 9336.18428708 0 70377.46811929 0 7
0.00450000 0.00420575 34255.33707743 0 -1286.22768488 0 -12416.94794462 0 -10168.87847507 0 -3920.73236293 0 24
0.00550000 0.00557378 44829.51800249 0 -7882.10015795 0 5336.97128584 0 -11963.09335031 0 -26544.57007373 0 45
0.00650000 0.00659388 51323.43650862 0 -9089.27144363 0 -15411.34746858 0 -6648.64317315 0 23963.83260500 0 40
0.00750000 0.00754703 46813.12499375 0 -8351.92104465 0 -2552.15979837 0 -24356.34651982 0 2097.59657527 0 57
0.00850000 0.00846663 59418.63463003 0 1930.54841073 0 7449.11689592 0 -9598.79768713 0 9994.09075548 0 75
0.00950000 0.00948925 59874.48224282 0 -4884.61145537 0 10280.41000297 0 13987.44649690 0 -14704.71169865 0 112
0.01050000 0.01054430 63743.48470420 0 2367.05267206 0 -4100.75729216 0 -2527.96676864 0 19956.09391364 0 105
0.01150000 0.01145670 60713.76446407 0 3769.21867011 0 92.40840498 0 27086.44965035 0 10344.45232972 0 144
0.01250000 0.01249090 59723.23428579 0 -5644.31687815 0 -10951.84685229 0 7891.81058681 0 12790.30673751 0 169
0.01350000 0.01339930 61897.28526393 0 724.99922064 0 -17173.95085646 0 18184.18977291 0 14793.40102045 0 180
0.01450000 0.01448870 58635.26764911 0 -3729.15899892 0 -20740.01451080 0 5618.80624177 0 13051.05998699 0 267
0.01550000 0.01550050 61212.79414365 0 50.75919084 0 -26664.04045852 0 -3088.29283842 0 21140.61122274 0 238
0.01650000 0.01653350 59901.83088512 0 -546.72150427 0 -23698.20753260 0 -12488.80733270 0 15450.43277519 0 315
0.01750000 0.01747870 63371.12242054 0 4264.07408323 0 -11892.67336446 0 -15288.00177010 0 14571.62235433 0 297
0.01850000 0.01844180 60707.12106918 0 1445.06018441 0 -7178.48713270 0 -16144.99971106 0 5248.35947031 0 388
0.01950000 0.01947590 56332.66697983 0 4025.04473505 0 7649.68098768 0 -13180.16329437 0 -1389.43282452 0 399
0.02050000 0.02045430 62191.25548787 0 -5448.30351189 0 7293.44000897 0 -6288.73725492 0 -20043.23310996 0 462
0.02150000 0.02154770 61565.22624262 0 -602.90580210 0 22425.99741093 0 -13410.02475761 0 -19654.26233908 0 571
0.02250000 0.02255340 65499.00180419 0 5692.43720181 0 28332.63980869 0 -15715.72567784 0 -21118.90946609 0 510
0.02350000 0.02348930 60190.48639314 0 3333.69984570 0 36712.17523144 0 -991.48682714 0 5107.25376282 0 555
0.02450000 0.02439640 60657.95994698 0 2814.06456963 0 33256.17048580 0 3005.62686132 0 -1623.66785606 0 592
0.02550000 0.02547300 57830.75252779 0 515.29824643 0 36834.19225094 0 8251.35111833 0 -6481.07460935 0 837
0.02650000 0.02652900 62804.66228282 0 234.93148077 0 37604.49388858 0 7817.82531238 0 1110.47667304 0 723
0.02750000 0.02749970 58674.68512547 0 -177.33435430 0 34133.09861143 0 7809.77573223 0 4882.82881107 0 826
0.02850000 0.02848090 61960.95113164 0 345.12657906 0 34643.75423207 0 2135.24247965 0 12250.64162585 0 831
0.02950000 0.02946900 61996.16112456 0 -735.11600382 0 35138.57642822 0 1829.39165119 0 -1036.07950812 0 996
0.03050000 0.03053250 60045.88183101 0 2367.55092667 0 35862.15285511 0 -2051.35854683 0 -2172.56728662 0 1041
0.03150000 0.03150510 60650.54148935 0 4855.79019387 0 34736.87248379 0 -2350.14523206 0 -7233.49444240 0 1036
0.03250000 0.03246190 54858.60837672 0 3700.16058022 0 31846.77425963 0 2582.76370417 0 -7429.82890608 0 1059
0.03350000 0.03345080 52099.38503191 0 2040.06477551 0 28183.16342364 0 5558.71673498 0 -4406.72991620 0 1302
0.03450000 0.03451200 53151.47733618 0 -628.06987471 0 23098.08752743 0 14446.61580713 0 -5898.70354086 0 1339
0.03550000 0.03553350 50938.78394442 0 -595.40762373 0 19097.98874019 0 11352.12246681 0 -5275.07699010 0 1365
0.03650000 0.03647120 49628.59574863 0 196.93458369 0 11679.42038845 0 8305.40620809 0 -5900.50832981 0 1308
0.03750000 0.03744890 50284.74171739 0 1767.86274217 0 13853.36064335 0 995.58801625 0 -606.09463164 0 1579
0.03850000 0.03847530 47110.08474538 0 2135.18711803 0 9654.53577027 0 -1981.78005767 0 1313.59847183 0 1662
0.03950000 0.03950240 45204.98053709 0 3301.14721073 0 14065.50638687 0 -3272.17093668 0 1614.43353716 0 1683
0.04050000 0.04050350 43555.42558561 0 2509.27668435 0 15711.85036416 0 -4619.48463759 0 2784.53467934 0 1822
0.04150000 0.04152450 41727.16331155 0 1409.20799664 0 17347.89707936 0 -1458.00373212 0 -1334.18192367 0 1887
0.04250000 0.04250150 41874.86812463 0 1524.02800501 0 20848.85546377 0 449.92170454 0 1733.63818615 0 1920
0.04350000 0.04349210 40254.87628042 0 14.08211487 0 16547.47871822 0 3107.66940685 0 -3090.86161777 0 2005
0.04450000 0.04448520 39931.67511896 0 -110.86386671 0 15522.95650275 0 5053.73014465 0 -2252.95236480 0 2151
0.04550000 0.04548030 41131.47223631 0 -1558.20827173 0 12872.90628065 0 3591.78466490 0 -4192.20362284 0 2274
0.04650000 0.04648670 41306.63641494 0 -347.37204654 0 10625.14683620 0 3034.21560400 0 -3610.03185620 0 2311
0.04750000 0.04749250 41291.68877643 0 733.37211267 0 9690.14436689 0 -2738.48488042 0 -3551.62534278 0 2568
0.04850000 0.04851840 40568.55524253 0 2337.10203342 0 9826.54433633 0 -1446.32242944 0 -1025.76785201 0 2493
0.04950000 0.04949480 39373.85139460 0 1079.35458244 0 10551.85911822 0 -3035.66607855 0 -691.18323341 0 2644
0.05050000 0.05050630 37776.55781626 0 583.72189211 0 12864.15914405 0 824.61471257 0 -2681.16345484 0 2829
0.05150000 0.05149060 38870.06061535 0 549.66674267 0 12802.26484831 0 2742.82523175 0 -4618.11166931 0 2784
0.05250000 0.05249300 37525.76965912 0 538.49255246 0 11179.06202990 0 2419.28082822 0 -235.57146114 0 3055
0.05350000 0.05348950 36930.41075362 0 342.96415403 0 9553.77761442 0 2949.03620917 0 -2074.42219942 0 3009
0.05450000 0.05448610 36379.45187064 0 113.69838187 0 9195.17823052 0 1764.86214214 0 -1774.06324407 0 3336
0.05550000 0.05550870 37048.99535242 0 716.21111643 0 9847.34923466 0 969.19713005 0 -1416.07283803 0 3349
0.05650000 0.05647670 34654.27294065 0 1124.30600673 0 8349.47406087 0 -1728.56706139 0 1482.48464229 0 3324
0.05750000 0.05747970 34592.04647517 0 829.65926375 0 10357.58410695 0 -81.52929223 0 2899.19967516 0 3639
0.05850000 0.05849280 34047.62026383 0 1324.05074646 0 12085.77470930 0 -1027.56156863 0 3215.34776571 0 3846
0.05950000 0.05951020 33098.61130363 0 1195.95502064 0 12202.36628964 0 -1102.11928226 0 2677.59816624 0 3787
0.06050000 0.06049470 33124.74199020 0 485.23577732 0 15162.33088341 0 343.59416931 0 3763.46106121 0 3930
0.06150000 0.06148310 32434.71470750 0 1075.14045561 0 15040.20314066 0 -382.78244854 0 4389.68960830 0 4083
0.06250000 0.06249100 32208.06421846 0 -186.13574529 0 15558.27721892 0 1512.87817392 0 2900.98231946 0 4303
0.06350000 0.06350600 32468.26385170 0 -631.42146743 0 14560.66075276 0 2677.34350277 0 1930.30481958 0 4470
0.06450000 0.06451750 31723.98217739 0 -173.96504585 0 11642.77099330 0 2923.52557279 0 -626.69912090 0 4479
0.06550000 0.06550280 32321.66627110 0 1032.05361081 0 11806.41995412 0 1560.14592857 0 108.71306762 0 4636
0.06650000 0.06648880 31116.00082160 0 686.94142577 0 10219.18004672 0 614.80080065 0 416.15000661 0 4653
0.06750000 0.06749660 30461.73714807 0 496.66241653 0 11398.29406131 0 -921.07569915 0 1207.94634842 0 5220
0.06850000 0.06852730 30040.54591197 0 1379.02483919 0 10329.56005284 0 873.79908664 0 794.28429319 0 5029
0.06950000 0.06949320 29362.36601682 0 237.64862928 0 11673.10916331 0 1122.83338753 0 1186.56568919 0 5040
0.07050000 0.07048030 29135.16191154 0 61.44409501 0 9746.19247512 0 1976.49855873 0 987.43324902 0 5475
0.07150000 0.07148790 29330.14555160 0 126.96967039 0 10362.17912175 0 781.98294032 0 67.54273152 0 5509
0.07250000 0.07249820 28525.18753729 0 962.44633361 0 9606.11649384 0 1411.20101511 0 1686.80225217 0 5916
0.07350000 0.07351270 27980.76132595 0 834.43918638 0 10252.80669719 0 -1239.56890810 0 2995.96072175 0 5721
0.07450000 0.07449140 27447.73960918 0 275.70974584 0 11475.24671880 0 -438.95235234 0 1918.51279365 0 6028
0.07550000 0.07549160 26561.17856095 0 877.53046011 0 11236.63811896 0 -198.62532769 0 3321.57565002 0 6183
0.07650000 0.07648840 26873.30739759 0 550.50270319 0 13227.10995160 0 -246.13888795 0 4090.13893266 0 6330
0.07750000 0.07749960 26610.00751340 0 317.45794657 0 12642.93409417 0 350.75242730 0 4154.33627196 0 6583
0.07850000 0.07848650 25624.79205104 0 344.93170615 0 12319.17931647 0 2046.04383091 0 5255.53433679 0 6549
0.07950000 0.07947320 26083.40774503 0 585.41485058 0 11754.82292047 0 898.86683003 0 2246.78507987 0 6828
0.08050000 0.08048110 25541.19599866 0 458.13847679 0 10416.38922406 0 940.90401844 0 1820.89917805 0 7147
0.08150000 0.08149960 23890.20164495 0 1507.49702406 0 10083.84302046 0 -545.97855127 0 -14.26325811 0 7386
0.08250000 0.08250610 22588.31769278 0 1392.88738986 0 9050.77297023 0 -447.25548872 0 564.06297940 0 7227
0.08350000 0.08350160 21573.76056964 0 576.83601331 0 8517.40801139 0 466.01754313 0 -1197.72659261 0 7798
0.08450000 0.08449610 21506.33011150 0 -343.60191993 0 7704.48899553 0 1099.64793936 0 -3112.29763862 0 7371
0.08550000 0.08548940 21185.67558475 0 -79.89291335 0 7980.83207836 0 1079.99788451 0 -2244.30487912 0 8256
0.08650000 0.08650700 21757.67188488 0 271.32289075 0 7626.87199855 0 339.76646662 0 -2329.98252856 0 8037
0.08750000 0.08749060 21228.08258881 0 224.74494194 0 7217.06311237 0 12.75011420 0 -753.15503542 0 8155
0.08850000 0.08849210 21688.58057801 0 181.01700953 0 8582.45791970 0 165.03078696 0 -1176.78882638 0 8718
0.08950000 0.08949900 21479.97797843 0 135.53522087 0 7856.53415994 0 552.61862447 0 680.32681892 0 8571
0.09050000 0.09049190 21691.12721272 0 199.34170710 0 8570.41123030 0 463.35354178 0 727.87802509 0 8932
0.09150000 0.09150830 21140.83266923 0 379.37217249 0 8791.24874881 0 -30.41036156 0 1467.62558239 0 9285
0.09250000 0.09250820 20860.37068158 0 947.67585230 0 9830.41965001 0 339.76978831 0 2200.15952006 0 9204
0.09350000 0.09350330 19859.32179472 0 1013.81306290 0 9980.37214503 0 -149.64025546 0 2984.73338439 0 9349
0.09450000 0.09448040 19448.53854395 0 983.14383039 0 10642.09856549 0 556.32120989 0 3366.96110945 0 9564
0.09550000 0.09549270 18595.41591668 0 344.60728703 0 9731.61022333 0 1035.33544789 0 4177.98675777 0 10155
0.09650000 0.09649430 18314.84320577 0 -121.28956776 0 9121.68013837 0 2219.74646267 0 3109.75100392 0 9913
0.09750000 0.09749140 18584.01142211 0 -377.61278008 0 7943.17510165 0 773.33102570 0 2343.01465487 0 10476
0.09850000 0.09850240 18753.63943833 0 9.31518009 0 7684.22664112 0 853.77921614 0 1144.74551835 0 10575
0.09950000 0.09950330 18155.62317488 0 599.40805468 0 6541.80631098 0 148.18756644 0 862.17536005 0 10882
0.10050000 0.10051200 17634.89173866 0 681.10631059 0 5738.71951956 0 47.93353354 0 616.99533543 0 10875
0.10150000 0.10150300 17064.99918024 0 198.33634001 0 5598.33351318 0 476.66801237 0 566.24533462 0 11118
0.10250000 0.10250800 16886.07041117 0 202.23712005 0 5700.64179450 0 1013.38788563 0 -581.10550176 0 11575
0.10350000 0.10349800 16572.39144906 0 341.14718552 0 5618.25262553 0 641.38545254 0 51.48354233 0 11364
0.10450000 0.10450100 15888.67539151 0 634.99450665 0 5384.31654676 0 331.14998344 0 572.70603615 0 12093
0.10550000 0.10551000 15666.78600214 0 652.09460510 0 5339.36290800 0 148.03476836 0 1782.62215115 0 12067
0.10650000 0.10649700 15451.87217741 0 129.95809086 0 5685.43949253 0 116.49525111 0 1970.16518893 0 12054
0.10750000 0.10749900 15335.05915058 0 138.66868880 0 5547.11293857 0 225.54657825 0 2300.91767591 0 12807
0.10850000 0.10850100 15490.95748402 0 -6.98390210 0 5869.66083286 0 584.42609197 0 2553.06772901 0 12736
0.10950000 0.10950300 15414.89061252 0 -96.23765780 0 5247.69513082 0 536.72762389 0 1848.08173548 0 12933
0.11050000 0.11050200 15361.96489989 0 -52.39335526 0 4900.99849610 0 1055.90229124 0 2414.47543925 0 13428
0.11150000 0.11150900 15356.98235372 0 -3.28212496 0 4469.57643187 0 769.32727305 0 2025.11713701 0 13453
0.11250000 0.11250000 15356.20729098 0 38.51840358 0 4221.15775224 0 579.53323164 0 1429.65858058 0 13668
0.11350000 0.11349100 15161.88799041 0 183.65775900 0 3643.22668600 0 411.89601942 0 1436.03623968 0 13791
0.11450000 0.11448600 15066.88744347 0 179.81455505 0 3612.48991231 0 -756.98163088 0 1251.95883957 0 14205
0.11550000 0.11549300 14813.10975863 0 253.51637798 0 3764.08111140 0 -702.87893012 0 1034.65892884 0 14776
0.11650000 0.11649800 14587.45577882 0 531.07741653 0 4723.59770786 0 -1098.50084651 0 847.02288353 0 14553
0.11750000 0.11747300 14498.65573378 0 224.41387942 0 4623.50389150 0 -284.40041359 0 496.75210236 0 14568
0.11850000 0.11849100 14117.10342053 0 173.77903080 0 4920.37506453 0 -177.00107732 0 166.45468793 0 16015
0.11950000 0.11950300 14258.93990145 0 165.90217892 0 5123.75152680 0 408.71826219 0 -308.57572760 0 15270
0.12050000 0.12050700 14077.57522092 0 -14.47783976 0 4963.04780439 0 308.52700937 0 -422.72253862 0 15999
0.12150000 0.12150000 13955.22603168 0 437.52955860 0 4924.12858265 0 12.81765538 0 -185.64856300 0 15670
0.12250000 0.12250700 13720.16057578 0 266.72344702 0 4809.29750195 0 -103.83460130 0 210.92114440 0 16887
0.12350000 0.12352200 13554.40787324 0 97.61649441 0 5046.74350769 0 397.10007176 0 443.54183098 0 16407
0.12450000 0.12449800 13521.08017554 0 245.47676293 0 5026.18220050 0 26.77465298 0 331.92726065 0 16306
0.12550000 0.12549900 13243.60771558 0 117.70434898 0 5044.28545158 0 123.00799257 0 349.59204766 0 17523
0.12650000 0.12650100 13372.93246946 0 270.86560374 0 5305.63660660 0 -301.77067677 0 338.10451066 0 17154
0.12750000 0.12750600 13002.78465078 0 211.71945902 0 5018.90768310 0 26.18494096 0 637.97849819 0 18007
0.12850000 0.12850300 13082.28394298 0 -63.89417904 0 5097.39939373 0 155.04133551 0 298.09134323 0 17496
0.12950000 0.12949900 13076.96922706 0 -165.96196947 0 4954.17887221 0 596.34987857 0 316.19348708 0 18405
0.13050000 0.13049000 13201.42215802 0 84.02355484 0 4944.74525146 0 791.09435641 0 277.59646999 0 18100
0.13150000 0.13148800 12866.81650200 0 361.93768983 0 4333.68578937 0 265.02938132 0 343.12138104 0 19059
0.13250000 0.13249300 12710.80744531 0 270.55114971 0 4550.36011374 0 382.44695710 0 810.94149865 0 18957
0.13350000 0.13349100 12527.78191606 0 106.45420263 0 4599.31086177 0 24.26167814 0 1265.51136515 0 19468
0.13450000 0.13450700 12431.56341338 0 247.26162169 0 4717.79580965 0 122.58392253 0 1213.81468057 0 19953
0.13550000 0.13551000 12305.89252669 0 59.12366790 0 4532.25686267 0 316.14366162 0 686.19958001 0 19956
0.13650000 0.13649900 12251.19524209 0 48.18963642 0 4432.05232306 0 532.04845942 0 807.42714275 0 19723
0.13750000 0.13749600 12091.31087171 0 2.84706010 0 3909.53824254 0 335.24120746 0 979.84206313 0 20946
0.13850000 0.13851100 12247.76282139 0 172.20565344 0 3908.84068608 0 620.88393590 0 617.25774952 0 20955
0.13950000 0.13949800 11880.93670015 0 101.14502288 0 3584.75373864 0 345.01253412 0 453.26443940 0 20506
0.14050000 0.14048300 11717.84135557 0 365.60595105 0 3164.59222874 0 252.76567435 0 296.52903820 0 21447
0.14150000 0.14148400 11277.05210454 0 335.79593094 0 3130.22373251 0 -71.18973387 0 685.89398384 0 21771
0.14250000 0.14249400 11391.42921992 0 0.84112133 0 2937.00059209 0 217.23679848 0 896.76641001 0 22470
0.14350000 0.14350900 11173.52586749 0 2.72692537 0 2604.46546082 0 410.21745497 0 1011.23431845 0 22519
0.14450000 0.14449900 11330.86360316 0 35.27686977 0 2750.45406355 0 325.30379594 0 852.78159967 0 22218
0.14550000 0.14550500 11209.73236965 0 265.19546620 0 2732.74941617 0 -133.02623207 0 764.78429818 0 23559
0.14650000 0.14650700 10765.57713187 0 312.22073693 0 2683.26719655 0 21.92187446 0 624.47690531 0 23044
0.14750000 0.14750500 10689.20023527 0 287.33900860 0 2936.59091608 0 -264.40600944 0 527.61177886 0 23649
0.14850000 0.14849900 10400.02432798 0 168.21518757 0 2560.45296966 0 8.50777509 0 362.09270238 0 23640
0.14950000 0.14949500 10428.19232232 0 44.35285442 0 2910.63738670 0 223.56906104 0 45.34925293 0 24457
0.15050000 0.15050000 10304.72482827 0 -34.84958875 0 2424.71733971 0 16.25738381 0 -13.34591600 0 24591
0.15150000 0.15149900 10367.31668047 0 60.05462897 0 2442.12303433 0 249.83372274 0 -302.65535552 0 25020
0.15250000 0.15250500 10240.06245133 0 188.08447446 0 2570.52878525 0 -152.17913954 0 -405.39324305 0 25297
0.15350000 0.15350100 9952.60275439 0 336.49238017 0 2343.66792204 0 -141.69696963 0 -192.04061612 0 25452
0.15450000 0.15450400 9885.11693462 0 277.93196144 0 2784.97757233 0 -114.50555434 0 -49.91647619 0 26061
0.15550000 0.15549900 9669.51662575 0 141.38140838 0 2833.92832036 0 -132.62319945 0 126.23557526 0 26128
0.15650000 0.15649500 9579.69792682 0 122.51970305 0 3179.61737352 0 106.14174162 0 371.06903611 0 26331
0.15750000 0.15749700 9581.32555857 0 144.37204331 0 3227.30587651 0 251.31630704 0 940.61613799 0 27345
0.15850000 0.15849900 9442.36788209 0 24.00413587 0 2975.58764409 0 254.68007932 0 410.29828294 0 26980
0.15950000 0.15949700 9359.74619430 0 297.35060470 0 3175.06664802 0 190.94224150 0 760.13835068 0 27777
0.16050000 0.16050000 9179.43338463 0 346.99890919 0 3198.67284453 0 -129.04905299 0 719.73543742 0 28224
0.16150000 0.16150500 8804.75698509 0 124.26359421 0 2780.63722101 0 309.01308443 0 1243.33349854 0 28075
0.16250000 0.16249700 8913.80831223 0 -121.39586208 0 2597.44560688 0 486.45926921 0 925.47030487 0 28590
0.16350000 0.16349900 9024.31011392 0 -175.55281723 0 2324.82282520 0 269.34758800 0 502.04135193 0 29163
0.16450000 0.16449100 9036.85505794 0 57.29485201 0 2291.51727214 0 164.17489625 0 161.76002221 0 28996
0.16550000 0.16550500 8961.71826172 0 113.79028216 0 2158.33934922 0 -496.65688037 0 51.02957701 0 30777
0.16650000 0.16650700 8745.14358826 0 272.66485652 0 2385.59881613 0 -352.01688680 0 148.39240445 0 29211
0.16750000 0.16749900 8674.62395149 0 180.32056030 0 2884.16345806 0 -501.30504233 0 -340.40755422 0 30922
0.16850000 0.16850800 8570.11227753 0 79.29766516 0 2714.10362117 0 -90.78974182 0 -252.76788882 0 30867
0.16950000 0.16949900 8516.48900843 0 209.60685944 0 3149.81067511 0 12.25407405 0 -174.27839265 0 30852
0.17050000 0.17049200 8359.08483881 0 122.86515958 0 2869.17153026 0 244.46364521 0 -157.22590519 0 31257
0.17150000 0.17149500 8323.56482079 0 54.69595593 0 2991.27712836 0 502.08674846 0 192.65623738 0 32608
0.17250000 0.17250900 8259.35640917 0 -27.84601113 0 2209.78137033 0 716.83116662 0 296.94646485 0 32361
0.17350000 0.17350400 8329.11205553 0 -73.07756525 0 2400.97827530 0 462.18319704 0 346.43311339 0 32508
0.17450000 0.17449800 8334.89180908 0 100.18671317 0 1975.67920669 0 251.13472091 0 91.04949856 0 32791
0.17550000 0.17549800 8194.40615178 0 151.05086964 0 2076.40414557 0 -78.99151538 0 381.43273214 0 33633
0.17650000 0.17650100 7969.64903029 0 176.25923156 0 1983.29696617 0 -108.52893485 0 379.14740430 0 33984
0.17750000 0.17750300 8032.35160574 0 -29.36812363 0 1991.40190793 0 24.12515638 0 437.02244613 0 34069
0.17850000 0.17849800 8011.88994947 0 -21.09244661 0 1870.33710837 0 175.62589458 0 28.41003536 0 34536
