### header ###
fiducial parameters:
Omega_m = 0.31
Omega_nu = 0
Omega_de = 0.69
Omega_k = 0
H_0 = 100
w_de = -1
zeff = 0
beta = 0
fgrowth = 0
b_1 = 2
gamma = 0.55
Lx = 3500 Ly = 3500 Lz = 3500
nx = 700 ny = 700 nz = 700
xoffset = -685.467585 yoffset = -31.7331281 zoffset = 572.489161
bins = 400 dk = 0.001
kx_ny = 0.628318531 ky_ny = 0.628318531 kz_ny = 0.628318531
############################
A(data) = 8.0477755 (not used)
A(ran) = 8.04357856 (used)
Ngal = 478385
weighted Ngal = 0
Nran = 23820508
weighted Nran = 0
SN(data) = 3491.44958
SN(ran) = 70.0624864
SN(data+ran) = 3561.51206
############################
13 columns: k_central k_mean P_0(k) sigma^{lin}_{P_0(k)} P^img_1(k) sigma^{lin}_{P_1(k)} P_2(k) sigma^{lin}_{P_2(k)} P^img_3(k) sigma^{lin}_{P_3(k)} P_4(k) sigma^{lin}_{P_4(k)} N_modes
### header ###
0.00050000 0 0 0 0 0 0 0 0 0 0 0 0
0.00150000 0.00179520 48238.46536765 0 -21155.11596825 0 29125.63971220 0 35657.42556922 0 -154703.62959861 0 3
0.00250000 0.00253879 79310.95195272 0 -8213.48376745 0 24580.67182064 0 3406.37858581 0 88563.54018742 0 6
0.00350000 0.00331552 61024.01100549 0 18579.02887594 0 25317.42431408 0 -25162.30104337 0 103643.16080443 0 7
0.00450000 0.00420575 39025.73750230 0 29362.47674007 0 12460.68362766 0 -75.75274965 0 21079.71343624 0 24
0.00550000 0.00557378 40491.04896880 0 -15541.66873169 0 11855.02746008 0 41368.86288042 0 -18893.37217755 0 45
0.00650000 0.00659388 56495.20870816 0 -28219.03775605 0 334.68426953 0 28780.73679410 0 11141.19467902 0 40
0.00750000 0.00754703 63953.30525951 0 -776.44345621 0 -6417.26480142 0 -3727.26563138 0 -6245.98700880 0 57
0.00850000 0.00846663 76495.59192108 0 -7225.63309178 0 -1858.34578059 0 -15798.21449774 0 -9555.41631849 0 75
0.00950000 0.00948925 81561.40197211 0 -11795.12618281 0 8821.04437490 0 -32303.72910490 0 -27375.65877461 0 112
0.01050000 0.01054430 81729.47986285 0 15238.61920141 0 25124.65513898 0 -45061.15103769 0 -17499.14503638 0 105
0.01150000 0.01145670 81430.74853925 0 7171.04653042 0 16774.12920726 0 -29918.75033896 0 -29319.84828952 0 144
0.01250000 0.01249090 76176.59824305 0 -3960.30485183 0 31015.90700524 0 -7486.05417151 0 -25918.43010523 0 169
0.01350000 0.01339930 87960.43065455 0 -11791.02942262 0 32993.75638760 0 1456.46467897 0 -50790.19334536 0 180
0.01450000 0.01448870 85215.15843901 0 -2905.53304496 0 18176.10697579 0 9326.09739917 0 -56391.68247111 0 267
0.01550000 0.01550050 92026.29905120 0 8753.35925328 0 16841.55966540 0 -6321.06844339 0 -54286.94424633 0 238
0.01650000 0.01653350 72434.37390085 0 10355.53572686 0 -162.06118944 0 1563.95480831 0 -16623.10269673 0 315
0.01750000 0.01747870 72915.46641422 0 4006.03355334 0 -7128.79453891 0 16953.16869957 0 -23060.88451604 0 297
0.01850000 0.01844180 66048.52128494 0 -7355.52253422 0 -5254.81463568 0 19110.61119049 0 -24886.48943213 0 388
0.01950000 0.01947590 76503.89616469 0 -4599.18906619 0 -8503.11364005 0 1986.30863852 0 -22399.97744761 0 399
0.02050000 0.02045430 75079.10940703 0 3025.39096112 0 -10086.61110167 0 -11366.51648908 0 -25364.14952481 0 462
0.02150000 0.02154770 73873.44395753 0 8969.00385145 0 4640.14559570 0 -26678.21303429 0 -11240.29198615 0 571
0.02250000 0.02255340 64454.77085054 0 3849.16085530 0 5881.69644994 0 -13684.61841311 0 -312.32149509 0 510
0.02350000 0.02348930 62365.31243402 0 1301.19746804 0 16465.21134482 0 4084.34810678 0 -1867.72403971 0 555
0.02450000 0.02439640 66041.98861330 0 -3037.44872285 0 11349.90800185 0 13910.71528591 0 -7577.69980403 0 592
0.02550000 0.02547300 63229.95027911 0 -766.32224409 0 8029.78282638 0 9331.02458372 0 -24456.55105943 0 837
0.02650000 0.02652900 66955.56613408 0 2874.75198196 0 4701.86273424 0 2167.35222163 0 -9950.57651894 0 723
0.02750000 0.02749970 61241.69291142 0 2704.80286832 0 748.38507789 0 -4999.18787259 0 -14176.67252805 0 826
0.02850000 0.02848090 59619.48660224 0 2392.10934312 0 5615.81671407 0 -6366.11066075 0 -7743.19784310 0 831
0.02950000 0.02946900 60780.86275247 0 -1074.14726807 0 13856.01800130 0 -1943.30372892 0 -12495.67217408 0 996
0.03050000 0.03053250 59647.16741429 0 3044.08104542 0 13482.99137816 0 863.61586951 0 -13751.27380852 0 1041
0.03150000 0.03150510 57154.23348137 0 4235.30818335 0 12608.38844074 0 -5563.10137561 0 -7215.35797434 0 1036
0.03250000 0.03246190 54831.14901117 0 2453.07356357 0 15193.44411615 0 -525.35413183 0 -8660.68389455 0 1059
0.03350000 0.03345080 52807.90309706 0 774.74939051 0 15487.19289359 0 -1190.87282354 0 -4046.04893523 0 1302
0.03450000 0.03451200 53151.47733618 0 712.51738887 0 12789.53167477 0 4772.50416658 0 -9341.36613510 0 1339
0.03550000 0.03553350 53856.45225738 0 -3017.37459795 0 6716.64939219 0 5840.44096766 0 -10291.59305103 0 1365
0.03650000 0.03647120 54692.41278119 0 -1387.25157653 0 8320.12132777 0 3051.76523884 0 -9969.25553091 0 1308
0.03750000 0.03744890 52960.25828656 0 2266.08414203 0 2820.77439847 0 525.35413183 0 -7475.20329319 0 1579
0.03850000 0.03847530 51266.96765205 0 2662.10798382 0 4605.31206182 0 934.59279329 0 -9001.14681040 0 1662
0.03950000 0.03950240 46621.68449763 0 1901.95966805 0 8083.83791614 0 -3819.52024177 0 -7436.45015632 0 1683
0.04050000 0.04050350 47610.00021095 0 2593.08311090 0 12829.72421386 0 -1411.48889556 0 -1350.66861533 0 1822
0.04150000 0.04152450 44294.94616024 0 436.60834118 0 15161.99871366 0 -3228.02557763 0 3310.94621819 0 1887
0.04250000 0.04250150 44980.65523626 0 703.37275580 0 17873.72178500 0 2750.24368938 0 6468.20856791 0 1920
0.04350000 0.04349210 45816.17286708 0 1621.64162061 0 16289.05065695 0 2879.91168533 0 6250.12805828 0 2005
0.04450000 0.04448520 43210.41194426 0 2306.18810253 0 18036.92785282 0 2618.91484470 0 7533.02297339 0 2151
0.04550000 0.04548030 41678.11291260 0 2666.12723773 0 17847.70182167 0 993.05688280 0 5396.35216384 0 2274
0.04650000 0.04648670 39347.05636853 0 1992.30983857 0 17627.69472753 0 734.47380899 0 2728.67480063 0 2311
0.04750000 0.04749250 37737.80467939 0 2327.44696618 0 16931.90983592 0 -1523.88406479 0 5214.76603681 0 2568
0.04850000 0.04851840 36217.90665154 0 2269.61621365 0 19030.55828205 0 -2247.25011752 0 5473.48197852 0 2493
0.04950000 0.04949480 35909.98529833 0 -581.93371166 0 19288.54345032 0 -996.33982711 0 5053.57513210 0 2644
0.05050000 0.05050630 36472.90229211 0 -1626.61309446 0 17806.06988035 0 2985.60809805 0 5156.06057062 0 2829
0.05150000 0.05149060 38339.69625653 0 -1249.52292811 0 19575.09521663 0 762.84996303 0 -1117.39687605 0 2784
0.05250000 0.05249300 39063.82629967 0 79.02805405 0 17261.09005278 0 2185.24509853 0 458.12408277 0 3055
0.05350000 0.05348950 38728.33485767 0 820.85122936 0 16196.92891446 0 399.82939983 0 1378.93626059 0 3009
0.05450000 0.05448610 37688.75428045 0 684.39921999 0 16106.13585095 0 2037.23026036 0 1460.65001775 0 3336
0.05550000 0.05550870 37199.80041645 0 339.58820219 0 14388.48610183 0 2435.51285641 0 233.85967973 0 3349
0.05650000 0.05647670 36335.27329461 0 1308.27268360 0 14872.45741965 0 1554.47689826 0 -1152.44078410 0 3324
0.05750000 0.05747970 35366.99848922 0 317.10363218 0 12916.53124044 0 1729.70751084 0 88.25993704 0 3639
0.05850000 0.05849280 35378.51370704 0 866.28097809 0 13614.41987376 0 -815.85650363 0 -876.59817036 0 3846
0.05950000 0.05951020 34663.02007725 0 545.05179769 0 13387.54793823 0 -403.89958643 0 66.81749424 0 3787
0.06050000 0.06049470 35018.55242718 0 -0.31107254 0 15015.17968657 0 -295.78165628 0 695.25120555 0 3930
0.06150000 0.06148310 33958.15587930 0 1677.15825725 0 16287.83270122 0 -2452.49780268 0 -807.37288836 0 4083
0.06250000 0.06249100 33724.86199537 0 1519.39977324 0 17498.70214339 0 -131.39860032 0 727.51042391 0 4303
0.06350000 0.06350600 32016.51299910 0 1303.26799278 0 16312.63470882 0 263.20244773 0 -114.74139486 0 4470
0.06450000 0.06451750 32107.41678586 0 286.58166158 0 16922.27691333 0 1121.06181556 0 537.32110050 0 4479
0.06550000 0.06550280 31111.35044518 0 -705.55400379 0 15447.99686373 0 2294.39607660 0 -528.54296138 0 4636
0.06650000 0.06648880 31818.09693835 0 -113.52897530 0 12857.51574916 0 2883.06729790 0 -2661.91975430 0 4653
0.06750000 0.06749660 32077.41078560 0 -660.59925780 0 11602.35700771 0 2164.29625998 0 -2711.66770971 0 5220
0.06850000 0.06852730 31610.60157125 0 -172.82127470 0 10088.26087806 0 1586.99631626 0 -4588.23853695 0 5029
0.06950000 0.06949320 31478.61945941 0 1087.83709048 0 9152.46120137 0 842.55852217 0 -2540.43420639 0 5040
0.07050000 0.07048030 30926.11045096 0 1520.41842712 0 9192.53194489 0 -46.80670305 0 -4452.63577490 0 5475
0.07150000 0.07148790 28636.90729471 0 2155.43840012 0 9256.91751371 0 -681.07530808 0 -2771.89008440 0 5509
0.07250000 0.07249820 27773.59812860 0 1255.11445214 0 10246.57297832 0 -747.41735670 0 -2482.04983762 0 5916
0.07350000 0.07351270 26549.55261989 0 710.29849498 0 11541.90211421 0 139.21787611 0 -552.32077893 0 5721
0.07450000 0.07449140 26568.26484884 0 400.90562980 0 11561.50012913 0 -480.00410384 0 -287.20724794 0 6028
0.07550000 0.07549160 26235.43076479 0 34.01396040 0 10853.33637838 0 2592.72879651 0 -352.93146083 0 6183
0.07650000 0.07648840 26891.68745679 0 -534.35039575 0 10526.56992834 0 1893.97652185 0 -997.35626653 0 6330
0.07750000 0.07749960 26376.27073648 0 -235.01452321 0 8436.29215977 0 2363.97456576 0 -99.67960069 0 6583
0.07850000 0.07848650 26847.06598777 0 125.83032817 0 8799.89623449 0 1796.29647230 0 -764.68907618 0 6549
0.07950000 0.07947320 25588.36410239 0 882.73334554 0 6103.65227325 0 73.99225000 0 -332.40004892 0 6828
0.08050000 0.08048110 25790.32330708 0 1263.21939391 0 8005.93303872 0 -352.63804422 0 -374.44055902 0 7147
0.08150000 0.08149960 23740.17164366 0 1039.84963472 0 7680.16309791 0 -779.93013130 0 645.59625767 0 7386
0.08250000 0.08250610 23133.96185984 0 964.88667400 0 9269.72819352 0 -200.21420630 0 1144.19190211 0 7227
0.08350000 0.08350160 22691.62248333 0 526.00075560 0 8561.46479185 0 438.03002769 0 751.51190242 0 7798
0.08450000 0.08449610 22232.78534285 0 134.04488595 0 8281.80001158 0 1399.69686962 0 1635.68132848 0 7371
0.08550000 0.08548940 22410.82832593 0 -433.35750661 0 8123.08930763 0 2413.05818168 0 2088.21831615 0 8256
0.08650000 0.08650700 22930.67397617 0 -102.55685502 0 8098.23193841 0 1480.44733453 0 1896.40136099 0 8037
0.08750000 0.08749060 22435.96250327 0 678.22639891 0 6810.85273174 0 -133.13806255 0 1583.18743652 0 8155
0.08850000 0.08849210 21814.47291120 0 1339.20875914 0 7667.02024835 0 223.10955956 0 2033.46566992 0 8718
0.08950000 0.08949900 20454.34853048 0 750.45228093 0 6373.82807115 0 -861.30286085 0 2670.87726508 0 8571
0.09050000 0.09049190 20096.71243884 0 548.84960510 0 7206.31188497 0 975.33451969 0 2268.15466677 0 8932
0.09150000 0.09150830 19804.73523337 0 149.86280919 0 6143.65658282 0 1185.93456668 0 2107.57273993 0 9285
0.09250000 0.09250820 19918.11583951 0 -174.54966460 0 5803.72513857 0 730.81994179 0 1427.30017540 0 9204
0.09350000 0.09350330 19721.24990424 0 -20.71089430 0 6055.95269793 0 125.41068706 0 1337.75828459 0 9349
0.09450000 0.09448040 19533.68472181 0 496.47972317 0 6068.57514823 0 -338.62490993 0 1109.11477708 0 9564
0.09550000 0.09549270 19423.62581311 0 455.16112864 0 6500.28509291 0 -250.09502961 0 913.96505216 0 10155
0.09650000 0.09649430 18730.94117246 0 388.06616194 0 6543.10177298 0 -198.81023551 0 937.94327878 0 9913
0.09750000 0.09749140 18625.20047044 0 575.12201743 0 6793.29202458 0 -137.21932148 0 538.60438294 0 10476
0.09850000 0.09850240 18094.72538838 0 474.40372195 0 7328.42855539 0 -375.58433017 0 187.94828487 0 10575
0.09950000 0.09950330 17979.01959402 0 431.13971995 0 7266.14672829 0 254.19732595 0 1096.40928435 0 10882
0.10050000 0.10051200 17766.32023426 0 -158.73284860 0 7238.51020554 0 490.41541087 0 385.15414051 0 10875
0.10150000 0.10150300 17779.49630079 0 -286.10776608 0 6673.73306119 0 861.84983370 0 177.37200020 0 11118
0.10250000 0.10250800 18269.88956701 0 -124.37321022 0 6799.58110508 0 557.22914052 0 562.61804101 0 11575
0.10350000 0.10349800 17881.14024262 0 308.67094960 0 6021.35168288 0 706.69113155 0 1692.10589576 0 11364
0.10450000 0.10450100 17644.52466125 0 732.18737391 0 5598.30029621 0 942.73980989 0 1759.34812438 0 12093
0.10550000 0.10551000 16993.02906892 0 459.32875171 0 5608.84114943 0 -2.59997010 0 1563.98802528 0 12067
0.10650000 0.10649700 16551.68620165 0 670.61860452 0 5664.12526725 0 735.43267231 0 1172.61455992 0 12054
0.10750000 0.10749900 15888.01105202 0 577.65204365 0 5242.90081418 0 -18.45501884 0 1656.05440615 0 12807
0.10850000 0.10850100 15469.80934362 0 240.33698975 0 4932.73177903 0 620.23509767 0 1264.75844706 0 12736
0.10950000 0.10950300 15406.03275266 0 152.07505969 0 5163.84441497 0 -57.24380859 0 1848.79036427 0 12933
0.11050000 0.11050200 15302.28506911 0 171.77383277 0 5132.03362577 0 -14.30566511 0 1961.66164347 0 13428
0.11150000 0.11150900 15228.43266257 0 187.57182582 0 5156.49239129 0 382.55103695 0 2409.34895286 0 13453
0.11250000 0.11250000 15164.10245538 0 57.26816770 0 4957.95453497 0 83.51832466 0 2026.09150159 0 13668
0.11350000 0.11349100 14971.22255704 0 184.89453768 0 5088.17614716 0 333.48956568 0 2017.47723288 0 13791
0.11450000 0.11448600 14999.78915507 0 223.98095152 0 5366.57868240 0 -25.94090692 0 2125.49883381 0 14205
0.11550000 0.11549300 14857.50978115 0 125.29110595 0 4624.71077490 0 426.72739851 0 1812.17418609 0 14776
0.11650000 0.11649800 14476.84325388 0 192.68723989 0 5183.50886385 0 575.00243632 0 1738.01175446 0 14553
0.11750000 0.11747300 14451.26618355 0 169.29252478 0 4423.98059826 0 508.71353486 0 1275.07785379 0 14568
0.11850000 0.11849100 14254.28952503 0 123.06224696 0 4535.82215126 0 332.88944567 0 1049.90662735 0 16015
0.11950000 0.11950300 14022.98865957 0 298.73464530 0 5025.86110308 0 -622.20486425 0 1097.54973381 0 15270
0.12050000 0.12050700 13946.36817182 0 182.48630703 0 4915.89077298 0 -267.60037515 0 253.20746012 0 15999
0.12150000 0.12150000 13816.37907845 0 32.91613939 0 5215.30858073 0 -322.15150506 0 1022.37196999 0 15670
0.12250000 0.12250700 13785.59801546 0 143.70106043 0 5233.23467461 0 -313.34347067 0 501.65049886 0 16887
0.12350000 0.12352200 13771.20399319 0 85.49451319 0 5556.74586116 0 170.14398656 0 666.80640309 0 16407
0.12450000 0.12449800 13694.47278220 0 63.70904977 0 5068.41204736 0 233.49207854 0 374.75612028 0 16306
0.12550000 0.12549900 13764.33915180 0 -11.59338842 0 5340.91303347 0 610.95981117 0 983.16486781 0 17523
0.12650000 0.12650100 13532.37394685 0 135.69023342 0 4749.66196048 0 492.22684321 0 145.54238804 0 17154
0.12750000 0.12750600 13624.93858234 0 201.42662587 0 4541.63512179 0 518.07961443 0 571.04518743 0 18007
0.12850000 0.12850300 13267.63466044 0 239.48774243 0 4308.61804598 0 77.10623063 0 711.97595219 0 17496
0.12950000 0.12949900 13323.99279377 0 178.19799563 0 4204.85929010 0 716.86438359 0 1046.81412703 0 18405
0.13050000 0.13049000 12899.81202996 0 55.10386037 0 3753.45167957 0 530.69652856 0 450.01692653 0 18100
0.13150000 0.13148800 12718.33662619 0 332.85401423 0 4117.32149009 0 256.76831978 0 1029.91997382 0 19059
0.13250000 0.13249300 12652.45629352 0 307.11418073 0 3479.25662776 0 282.71852745 0 990.06181894 0 18957
0.13350000 0.13349100 12183.43261420 0 174.19313574 0 3819.47595247 0 147.54758607 0 1252.77819161 0 19468
0.13450000 0.13450700 12182.10393522 0 180.42464015 0 3472.02639966 0 422.85208482 0 1427.96451489 0 19953
0.13550000 0.13551000 12086.66049528 0 41.35491175 0 3510.40307748 0 -46.68667904 0 1196.78544500 0 19956
0.13650000 0.13649900 12004.17167538 0 -133.05834181 0 3282.70071758 0 386.02996141 0 1281.47765754 0 19723
0.13750000 0.13749600 12204.69147785 0 69.01900459 0 3350.68479197 0 -299.44770302 0 708.83916256 0 20946
0.13850000 0.13851100 12053.22207433 0 346.63020077 0 3104.95668727 0 -747.75063368 0 128.66262886 0 20955
0.13950000 0.13949800 11720.60943678 0 490.51506179 0 3581.81957256 0 -365.46976145 0 401.55336080 0 20506
0.14050000 0.14048300 11545.00236515 0 213.00606316 0 3264.36494768 0 -252.09247701 0 488.06586354 0 21447
0.14150000 0.14148400 11306.83665831 0 119.65529262 0 3513.53654540 0 226.13784040 0 312.11333538 0 21771
0.14250000 0.14249400 11324.33093152 0 4.39048682 0 3643.19346903 0 439.88242763 0 -411.45201919 0 22470
0.14350000 0.14350900 11338.61423053 0 122.11224149 0 3714.67639806 0 78.84336768 0 -317.68382200 0 22519
0.14450000 0.14449900 10955.20176671 0 295.83037450 0 3488.08127064 0 -138.94106799 0 184.01096616 0 22218
0.14550000 0.14550500 11049.05079188 0 210.10289960 0 3427.10597787 0 -32.99785315 0 363.03938615 0 23559
0.14650000 0.14650700 10861.41917550 0 19.55339346 0 3579.45009505 0 393.56910738 0 505.41730376 0 23044
0.14750000 0.14750500 10776.78232459 0 -29.07160677 0 3220.99465137 0 473.65301832 0 115.02927531 0 23649
0.14850000 0.14849900 10622.02444060 0 153.06381829 0 3045.12184395 0 573.38919859 0 208.71000113 0 23640
0.14950000 0.14949500 10592.84886470 0 206.92292791 0 2761.11671235 0 393.31998007 0 -94.42279303 0 24457
0.15050000 0.15050000 10279.40242141 0 203.51043740 0 2462.96114963 0 219.88419134 0 153.11917992 0 24591
0.15150000 0.15149900 10126.44932636 0 227.19303295 0 2329.77215439 0 139.97079419 0 536.04556868 0 25020
0.15250000 0.15250500 9953.47746805 0 233.78106622 0 2521.27908445 0 -83.85769142 0 449.74344011 0 25297
0.15350000 0.15350100 9810.47839301 0 117.95347629 0 2453.08463590 0 4.07902232 0 691.52426101 0 25452
0.15450000 0.15450400 9663.68151057 0 235.87927177 0 2608.34077450 0 5.41774390 0 669.29767617 0 26061
0.15550000 0.15549900 9694.75045401 0 53.21536465 0 2714.79010531 0 84.69409483 0 759.10641001 0 26128
0.15650000 0.15649500 9416.39220807 0 92.64247393 0 2772.10045857 0 79.67323842 0 639.63713245 0 26331
0.15750000 0.15749700 9508.93469890 0 116.94035857 0 2792.75034436 0 -108.21293070 0 735.33191416 0 27345
0.15850000 0.15849900 9394.17005216 0 102.22468527 0 2834.07226058 0 169.31134773 0 373.22924668 0 26980
0.15950000 0.15949700 9209.40616791 0 128.68477351 0 2692.88904682 0 -80.13550798 0 745.22503638 0 27777
0.16050000 0.16050000 9193.69453899 0 189.98780710 0 2788.23283583 0 56.58854841 0 340.07649171 0 28224
0.16150000 0.16150500 9006.41723701 0 108.16100150 0 2700.94969929 0 -12.35228557 0 532.28208547 0 28075
0.16250000 0.16249700 9081.34365906 0 101.08390365 0 2972.47632081 0 136.68231372 0 174.53969951 0 28590
0.16350000 0.16349900 8936.47336113 0 123.14861110 0 2828.71325537 0 22.95602960 0 365.79307334 0 29163
0.16450000 0.16449100 8811.34501835 0 141.26072004 0 2762.04678764 0 10.96531080 0 374.91224006 0 28996
0.16550000 0.16550500 8668.20200310 0 152.51905991 0 2745.48258971 0 120.90978702 0 346.07326283 0 30777
0.16650000 0.16650700 8624.49953704 0 60.31803958 0 2722.83968545 0 151.84475533 0 657.25763016 0 29211
0.16750000 0.16749900 8521.09509556 0 88.34032212 0 2623.87524622 0 305.34482322 0 327.50165242 0 30922
0.16850000 0.16850800 8495.07513223 0 164.64989898 0 2410.21259420 0 288.31890935 0 446.76055581 0 30867
0.16950000 0.16949900 8319.31304806 0 124.55701081 0 2240.58457798 0 232.15011278 0 469.80206375 0 30852
0.17050000 0.17049200 8201.28206550 0 70.81349627 0 2193.18395543 0 96.29224436 0 622.54699909 0 31257
0.17150000 0.17149500 8283.74874075 0 -8.01276466 0 2261.97630953 0 4.19272402 0 495.64819158 0 32608
0.17250000 0.17250900 8161.79815519 0 93.93417134 0 2123.02970538 0 -66.88913219 0 371.43995899 0 32361
0.17350000 0.17350400 8138.95594909 0 115.16878660 0 2331.64337728 0 -97.46757164 0 456.33811677 0 32508
0.17450000 0.17449800 8113.47852968 0 -47.87916843 0 2280.00205433 0 -110.25654970 0 552.67066439 0 32791
0.17550000 0.17549800 8203.27508396 0 25.91787649 0 2210.83324119 0 128.49432952 0 539.92420406 0 33633
0.17650000 0.17650100 8199.14510681 0 -33.53142848 0 2036.01230463 0 304.50886270 0 436.03036582 0 33984
0.17750000 0.17750300 8185.38220706 0 -121.50326363 0 1754.71989261 0 448.77904062 0 194.25729555 0 34069
0.17850000 0.17849800 8175.51676564 0 169.25820057 0 1588.88968380 0 127.93849881 0 -28.07631549 0 34536
