### header ###
fiducial parameters:
Omega_m = 0.31
Omega_nu = 0
Omega_de = 0.69
Omega_k = 0
H_0 = 100
w_de = -1
zeff = 0
beta = 0
fgrowth = 0
b_1 = 2
gamma = 0.55
Lx = 3500 Ly = 3500 Lz = 3500
nx = 700 ny = 700 nz = 700
xoffset = -685.467585 yoffset = -31.7331281 zoffset = 572.489161
bins = 400 dk = 0.001
kx_ny = 0.628318531 ky_ny = 0.628318531 kz_ny = 0.628318531
############################
A(data) = 8.04651011 (not used)
A(ran) = 8.04411859 (used)
Ngal = 477849
weighted Ngal = 0
Nran = 23820508
weighted Nran = 0
SN(data) = 3490.33893
SN(ran) = 70.0671903
SN(data+ran) = 3560.40612
############################
13 columns: k_central k_mean P_0(k) sigma^{lin}_{P_0(k)} P^img_1(k) sigma^{lin}_{P_1(k)} P_2(k) sigma^{lin}_{P_2(k)} P^img_3(k) sigma^{lin}_{P_3(k)} P_4(k) sigma^{lin}_{P_4(k)} N_modes
### header ###
0.00050000 0 0 0 0 0 0 0 0 0 0 0 0
0.00150000 0.00179520 91260.42634349 0 -113907.64880431 0 18572.82837405 0 -69440.19582339 0 -14114.22461607 0 3
0.00250000 0.00253879 123489.63870236 0 -54744.45270784 0 13796.89178677 0 6833.14132160 0 81017.64010026 0 6
0.00350000 0.00331552 140130.23567231 0 12737.60247137 0 38970.37587820 0 -104336.17761483 0 30104.76539591 0 7
0.00450000 0.00420575 114961.73412704 0 58519.45113151 0 9177.66181265 0 -60391.44908860 0 67287.51443215 0 24
0.00550000 0.00557378 83053.61918791 0 10886.91873956 0 10076.28062261 0 -13392.08759140 0 14974.76570098 0 45
0.00650000 0.00659388 66358.21421012 0 -14723.20248110 0 27667.08236384 0 -12885.52873095 0 -24903.76225885 0 40
0.00750000 0.00754703 96176.09566998 0 -6705.46634412 0 44626.34084206 0 21136.29301606 0 -51200.20153339 0 57
0.00850000 0.00846663 95111.49163867 0 2600.98875082 0 38989.53100014 0 -19930.07395032 0 -51231.86838237 0 75
0.00950000 0.00948925 94962.12597686 0 -1177.17635774 0 39353.03542394 0 -23151.23468656 0 -37617.33778537 0 112
0.01050000 0.01054430 87707.98164868 0 3060.26878430 0 46619.35930942 0 -1333.22970374 0 1353.95709580 0 105
0.01150000 0.01145670 100467.72876969 0 2866.59167857 0 50789.63972912 0 16494.77445208 0 -14164.27152425 0 144
0.01250000 0.01249090 99417.18659090 0 -9810.50053766 0 43568.60165214 0 24039.34586026 0 17765.76661801 0 169
0.01350000 0.01339930 106147.05633892 0 -1699.80116151 0 64817.16804186 0 19634.55360091 0 -8465.84419471 0 180
0.01450000 0.01448870 103467.77517930 0 12159.29494609 0 44559.46400016 0 25239.69659385 0 6170.55125981 0 267
0.01550000 0.01550050 86967.90745780 0 14893.49483681 0 39185.06825644 0 18335.32700669 0 22394.88417819 0 238
0.01650000 0.01653350 79929.78418683 0 14041.47944201 0 32392.41842669 0 4735.54474634 0 6635.34531104 0 315
0.01750000 0.01747870 70368.72098268 0 7952.05510615 0 47964.64677489 0 -1593.68400045 0 13373.59680895 0 297
0.01850000 0.01844180 60089.39606755 0 6639.98461514 0 35477.16812117 0 5589.91854632 0 -4323.44388891 0 388
0.01950000 0.01947590 56865.02435711 0 2839.73021856 0 26420.67075901 0 7130.55503856 0 10370.63837791 0 399
0.02050000 0.02045430 57072.96261720 0 -3857.16614615 0 22782.52627009 0 13592.27522412 0 -1725.44466579 0 462
0.02150000 0.02154770 63327.60818401 0 -8213.97094974 0 17554.83883022 0 13496.16744470 0 -9224.86313336 0 571
0.02250000 0.02255340 67764.17801559 0 -5188.67963954 0 12649.57748906 0 5673.41494778 0 -5150.61298681 0 510
0.02350000 0.02348930 72009.41807431 0 1737.60207844 0 22707.23446133 0 -1451.13889073 0 -5956.12461737 0 555
0.02450000 0.02439640 73214.86207731 0 821.38048649 0 19129.21269618 0 -7501.37826906 0 12030.19163871 0 592
0.02550000 0.02547300 71433.87863023 0 3812.77719595 0 33959.59528153 0 -4134.24000241 0 11043.14924275 0 837
0.02650000 0.02652900 71210.32839215 0 4691.04507289 0 34921.44813852 0 -1594.72479898 0 17265.40825946 0 723
0.02750000 0.02749970 66827.01644294 0 6148.90486479 0 38209.81788641 0 3601.63903398 0 14168.25756119 0 826
0.02850000 0.02848090 61981.65637905 0 2904.72476525 0 36256.32761866 0 6469.55939154 0 16607.37999549 0 831
0.02950000 0.02946900 63455.49353566 0 -2031.89339979 0 32881.04012094 0 11994.98164578 0 18165.92043696 0 996
0.03050000 0.03053250 66169.43107196 0 -2592.37448211 0 30868.42363866 0 8788.20385948 0 9818.41724991 0 1041
0.03150000 0.03150510 66782.94859016 0 -1342.87369866 0 33329.57999934 0 -1298.59547171 0 8431.60856637 0 1036
0.03250000 0.03246190 67117.00062994 0 3344.41785612 0 23247.34246598 0 -941.64032804 0 5833.44325838 0 1059
0.03350000 0.03345080 63692.88417977 0 5629.46889057 0 31298.58345786 0 -7518.16391348 0 13225.67054938 0 1302
0.03450000 0.03451200 60044.33170553 0 5543.96839832 0 38183.57647659 0 5135.98644573 0 15164.21317863 0 1339
0.03550000 0.03553350 58660.62327295 0 -3115.94043349 0 34216.14104757 0 11803.20897993 0 5940.33548218 0 1365
0.03650000 0.03647120 56513.14587437 0 -794.23336050 0 30252.24876250 0 9951.24085843 0 -1089.99951552 0 1308
0.03750000 0.03744890 58744.44077182 0 3247.16962724 0 28285.36098171 0 3204.68511691 0 -5511.17217221 0 1579
0.03850000 0.03847530 54531.97479457 0 3249.28444128 0 23820.44599859 0 -5025.71716286 0 -2460.48094887 0 1662
0.03950000 0.03950240 50572.84360917 0 3584.44371354 0 23805.16619035 0 -2886.69902044 0 -3648.27566612 0 1683
0.04050000 0.04050350 47804.98385100 0 3908.20956356 0 23600.99252069 0 -1477.40244520 0 -3928.25047148 0 1822
0.04150000 0.04152450 46126.53013174 0 1114.04196163 0 23086.35086312 0 4254.99477688 0 -1216.53847247 0 1887
0.04250000 0.04250150 46712.03466815 0 491.15504217 0 23181.46213331 0 7605.98959395 0 -1733.11778689 0 1920
0.04350000 0.04349210 45009.00038780 0 690.92856994 0 21701.64592130 0 6090.96338901 0 337.95060535 0 2005
0.04450000 0.04448520 44597.88496728 0 739.04225021 0 20152.73840242 0 7884.29247826 0 1250.90696871 0 2151
0.04550000 0.04548030 42022.57293771 0 1409.81697451 0 17881.69385887 0 2858.48673681 0 5793.41680416 0 2274
0.04650000 0.04648670 40656.35877834 0 1664.23685419 0 16928.14524548 0 532.57550208 0 6144.27663301 0 2311
0.04750000 0.04749250 40306.58403732 0 1198.60130627 0 16692.63689659 0 -489.35136045 0 7291.49127980 0 2568
0.04850000 0.04851840 38970.59732470 0 276.72397080 0 15009.53280091 0 324.45344139 0 4773.57818209 0 2493
0.04950000 0.04949480 37885.84166222 0 1614.00171649 0 17220.01172770 0 -1285.00972915 0 2608.30755753 0 2644
0.05050000 0.05050630 37186.29218018 0 1421.01109490 0 16577.48471848 0 1489.09482021 0 1780.17516737 0 2829
0.05150000 0.05149060 35992.25267173 0 1017.74927438 0 20237.22024078 0 1514.30650382 0 1627.66496532 0 2784
0.05250000 0.05249300 36274.48623136 0 767.08512727 0 15918.12777553 0 818.31788144 0 584.10278009 0 3055
0.05350000 0.05348950 34780.49744358 0 1563.06902232 0 17190.55934369 0 3398.17399312 0 3415.93400213 0 3009
0.05450000 0.05448610 35329.35258484 0 -106.49129492 0 14286.06709726 0 1661.87844901 0 4115.45026719 0 3336
0.05550000 0.05550870 35019.10604342 0 -856.82078377 0 12404.65766407 0 1840.40861438 0 1330.86022623 0 3349
0.05650000 0.05647670 35562.86791527 0 -578.02850269 0 14027.63903599 0 -264.64074272 0 -1958.58353717 0 3324
0.05750000 0.05747970 35122.74300372 0 1269.88493345 0 13204.52240897 0 -1850.55086391 0 -2623.76452298 0 3639
0.05850000 0.05849280 34689.04004058 0 1155.14243135 0 15130.11041818 0 -185.30310647 0 -967.42777254 0 3846
0.05950000 0.05951020 33704.04602471 0 184.14826299 0 14648.68573507 0 438.29133455 0 -201.38012210 0 3787
0.06050000 0.06049470 33635.72978058 0 74.80307635 0 13714.95658311 0 3470.54270813 0 -361.03972429 0 3930
0.06150000 0.06148310 33696.95973683 0 191.25115936 0 15582.63633352 0 2431.44931320 0 942.01014369 0 4083
0.06250000 0.06249100 33806.90792228 0 530.83936155 0 13849.48532966 0 517.69097583 0 3354.15042964 0 4303
0.06350000 0.06350600 33629.75072518 0 544.93664551 0 14174.12589334 0 788.43589122 0 3782.33937502 0 4470
0.06450000 0.06451750 32703.77220059 0 273.87063269 0 13832.21250294 0 -122.35029648 0 5418.00963118 0 4479
0.06550000 0.06550280 33001.72846146 0 770.78328376 0 14270.89801226 0 963.52256358 0 5488.98323327 0 4636
0.06650000 0.06648880 32778.17822338 0 -683.21226677 0 11240.51343264 0 1517.86072009 0 3354.05077871 0 4653
0.06750000 0.06749660 32084.38635024 0 37.04722378 0 11540.46271198 0 3321.09954005 0 2471.32075487 0 5220
0.06850000 0.06852730 32263.31511931 0 493.28203576 0 10286.75444509 0 2586.01896767 0 704.65160932 0 5029
0.06950000 0.06949320 31427.24387225 0 790.58502947 0 9165.01721771 0 475.14335325 0 288.60236086 0 5040
0.07050000 0.07048030 30260.77445261 0 1617.05767814 0 9511.82457568 0 248.72095410 0 1758.01944541 0 5475
0.07150000 0.07148790 28894.56029324 0 1676.57142404 0 8553.23805451 0 93.41620799 0 3441.54428943 0 5509
0.07250000 0.07249820 27891.73983441 0 635.40750437 0 8947.12493760 0 1048.67095590 0 2767.27292495 0 5916
0.07350000 0.07351270 27864.61263861 0 351.78547521 0 10017.98483244 0 2022.62586392 0 3627.14967037 0 5721
0.07450000 0.07449140 27322.29016899 0 357.73131364 0 7552.84243482 0 394.53904303 0 1223.10436109 0 6028
0.07550000 0.07549160 26901.20965613 0 365.27378130 0 7677.07391928 0 -484.59579694 0 948.20510942 0 6183
0.07650000 0.07648840 26778.97119014 0 360.13400812 0 7808.33633001 0 -1450.38597264 0 911.91002867 0 6330
0.07750000 0.07749960 26336.29964389 0 469.85853261 0 8140.69430409 0 -1317.42949622 0 -378.43323935 0 6583
0.07850000 0.07848650 26541.46982278 0 -103.85132051 0 8695.74994725 0 -27.08545314 0 -809.92948816 0 6549
0.07950000 0.07947320 26200.55294161 0 330.29077104 0 9419.17136160 0 269.92224166 0 -1452.14647229 0 6828
0.08050000 0.08048110 25625.34566728 0 744.89840280 0 9507.21848856 0 285.59954637 0 -766.33774535 0 7147
0.08150000 0.08149960 25310.22730294 0 1105.39004701 0 10117.81291301 0 1205.17826721 0 1564.30912270 0 7386
0.08250000 0.08250610 24522.20994560 0 556.32896051 0 9958.49323119 0 1500.66539965 0 2808.11873121 0 7227
0.08350000 0.08350160 24208.42026024 0 546.10477578 0 10564.10510947 0 1198.36878745 0 2047.36143757 0 7798
0.08450000 0.08449610 23689.01750300 0 590.63102280 0 8944.31256710 0 319.71448637 0 2089.41412723 0 7371
0.08550000 0.08548940 22979.72437511 0 630.99850462 0 9663.98046334 0 95.74626802 0 3618.48004003 0 8256
0.08650000 0.08650700 22641.24340541 0 508.24296106 0 9248.33646197 0 -75.17100970 0 3379.88251252 0 8037
0.08750000 0.08749060 22674.12821012 0 85.13887012 0 9096.01448944 0 831.54488067 0 3446.26109980 0 8155
0.08850000 0.08849210 22157.16136434 0 17.54786327 0 8219.63998005 0 898.63984737 0 826.56012004 0 8718
0.08950000 0.08949900 21659.57108699 0 567.32377906 0 8116.81129945 0 443.07568611 0 1754.23271032 0 8571
0.09050000 0.09049190 21332.27316535 0 586.17441206 0 7528.42795859 0 38.66256525 0 297.34396131 0 8932
0.09150000 0.09150830 20771.45991328 0 763.36814783 0 7553.52891896 0 636.97756003 0 1046.49302961 0 9285
0.09250000 0.09250820 20084.53288154 0 56.55267407 0 6657.39030976 0 517.93788867 0 789.58741300 0 9204
0.09350000 0.09350330 19887.99911600 0 586.27738468 0 6450.32676333 0 768.18460913 0 1172.28239017 0 9349
0.09450000 0.09448040 19279.68559047 0 506.16136399 0 5924.31382817 0 1018.15230700 0 1050.17457761 0 9564
0.09550000 0.09549270 18912.74874598 0 332.61374478 0 5471.79898515 0 1544.48966128 0 1156.84756938 0 10155
0.09650000 0.09649430 18490.45027739 0 509.78644314 0 4865.25703159 0 605.29410256 0 401.80580981 0 9913
0.09750000 0.09749140 18026.51986749 0 532.65854452 0 5072.66382009 0 90.71489290 0 941.23175925 0 10476
0.09850000 0.09850240 17543.21288916 0 543.46181184 0 5041.90490174 0 -453.40062900 0 1474.02538613 0 10575
0.09950000 0.09950330 16921.61257384 0 295.24686299 0 5084.58871392 0 -413.48157633 0 1326.19877748 0 10882
0.10050000 0.10051200 16891.49585033 0 187.07024951 0 5697.07650591 0 412.05878259 0 1145.28806227 0 10875
0.10150000 0.10150300 16766.26785664 0 -9.24359751 0 5870.08158120 0 101.41740207 0 651.11470436 0 11118
0.10250000 0.10250800 16803.36014478 0 185.22227850 0 5759.67943044 0 -0.21408894 0 853.73381961 0 11575
0.10350000 0.10349800 16700.71969371 0 280.60814234 0 6192.28623343 0 -416.59843577 0 656.27219326 0 11364
0.10450000 0.10450100 16642.92215816 0 271.44911525 0 5964.09669124 0 122.26836127 0 944.38847906 0 12093
0.10550000 0.10551000 16467.31508653 0 183.23147449 0 6142.46077174 0 505.35972768 0 729.70163699 0 12067
0.10650000 0.10649700 16264.80226560 0 -77.62430471 0 5338.24460319 0 22.90266099 0 143.27699039 0 12054
0.10750000 0.10749900 16341.53347659 0 194.57950020 0 5483.55779411 0 476.79977304 0 -451.67113186 0 12807
0.10850000 0.10850100 15884.02501509 0 414.78368173 0 5070.22790863 0 -32.18392655 0 -811.20169828 0 12736
0.10950000 0.10950300 15802.97559741 0 440.96972992 0 4949.58385741 0 -150.12300882 0 -637.90763531 0 12933
0.11050000 0.11050200 15128.89246245 0 251.71048180 0 5009.79515977 0 499.77152534 0 -1131.34800532 0 13428
0.11150000 0.11150900 15198.09449257 0 235.13742601 0 4868.55658438 0 75.58577899 0 -1134.89114926 0 13453
0.11250000 0.11250000 14922.06143484 0 180.35377727 0 5313.83012696 0 342.00971963 0 -860.31631671 0 13668
0.11350000 0.11349100 14929.14772273 0 162.92593801 0 4782.57998217 0 29.72764201 0 -911.97203369 0 13791
0.11450000 0.11448600 15002.88940602 0 -73.77888630 0 4792.48971288 0 561.08120233 0 313.02237325 0 14205
0.11550000 0.11549300 14857.95267414 0 53.38632135 0 4913.24448735 0 186.47455843 0 347.81051060 0 14776
0.11650000 0.11649800 15075.52385683 0 36.11892007 0 4342.79831269 0 111.73415144 0 48.53542512 0 14553
0.11750000 0.11747300 14846.43745633 0 6.80507298 0 4806.28582960 0 323.64737615 0 258.67054518 0 14568
0.11850000 0.11849100 14773.02794278 0 343.13688229 0 4961.08800289 0 -220.86962825 0 413.09847389 0 16015
0.11950000 0.11950300 14452.15196954 0 402.06490221 0 5091.25425346 0 12.35139978 0 -165.42274726 0 15270
0.12050000 0.12050700 14100.60565655 0 303.25326106 0 5438.80345719 0 -409.61954943 0 551.19250903 0 15999
0.12150000 0.12150000 14101.93433552 0 200.30499936 0 4961.37588334 0 338.74006211 0 510.88592499 0 15670
0.12250000 0.12250700 14014.57369271 0 -46.63652141 0 4853.06640196 0 556.30127970 0 618.75251338 0 16887
0.12350000 0.12352200 14159.95331757 0 -28.77143604 0 4682.68546765 0 278.18883937 0 25.00352391 0 16407
0.12450000 0.12449800 13959.98713135 0 201.12435140 0 3735.19341595 0 856.29706280 0 -157.99321730 0 16306
0.12550000 0.12549900 13857.78957327 0 99.53200660 0 3822.72014364 0 155.01808362 0 260.44211715 0 17523
0.12650000 0.12650100 13546.87869237 0 278.22759251 0 3628.62228957 0 153.17675601 0 -157.50714224 0 17154
0.12750000 0.12750600 13714.51369012 0 262.54918056 0 3816.02138712 0 127.69601490 0 130.62021589 0 18007
0.12850000 0.12850300 13022.60411220 0 405.46853486 0 3708.13265409 0 -38.58516970 0 478.12734478 0 17496
0.12950000 0.12949900 13083.05900571 0 185.20788447 0 4125.11640676 0 -71.23911644 0 472.51035440 0 18405
0.13050000 0.13049000 12698.73861126 0 308.15719373 0 4703.87789736 0 -45.95391259 0 993.69354148 0 18100
0.13150000 0.13148800 12785.32419134 0 154.38917557 0 4605.62208691 0 -23.50112015 0 271.22323983 0 19059
0.13250000 0.13249300 12594.88020446 0 130.09428046 0 4996.44193604 0 -83.21472151 0 892.98410386 0 18957
0.13350000 0.13349100 12637.84082475 0 81.72482949 0 4987.52871456 0 -136.16523615 0 652.13335824 0 19468
0.13450000 0.13450700 12489.02877919 0 144.28014301 0 5141.63333139 0 144.61009829 0 936.14734770 0 19953
0.13550000 0.13551000 12434.44221784 0 29.41141642 0 4845.94689710 0 535.53734897 0 706.84282240 0 19956
0.13650000 0.13649900 12357.15739060 0 63.72388669 0 4477.59279504 0 778.23495837 0 576.36433227 0 19723
0.13750000 0.13749600 12275.00074045 0 105.69596983 0 4196.20073210 0 538.37075689 0 493.37172159 0 20946
0.13850000 0.13851100 12047.90735842 0 201.85955377 0 4256.44525143 0 -117.89590020 0 274.90478783 0 20955
0.13950000 0.13949800 11812.17756303 0 406.59016136 0 4052.49302827 0 -357.84978751 0 555.46199748 0 20506
0.14050000 0.14048300 11644.87473502 0 258.20993647 0 4220.78129319 0 -362.80354564 0 490.26814895 0 21447
0.14150000 0.14148400 11617.63681596 0 17.90095970 0 4422.46368976 0 -96.94684020 0 270.74934433 0 21771
0.14250000 0.14249400 11526.29013621 0 42.42970232 0 4269.51059472 0 220.90063076 0 215.82839876 0 22470
0.14350000 0.14350900 11586.52358322 0 39.78994936 0 4269.04555708 0 273.58496671 0 268.39868977 0 22519
0.14450000 0.14449900 11505.58488880 0 -78.56755606 0 4066.02340920 0 406.62780727 0 345.82634999 0 22218
0.14550000 0.14550500 11498.38787767 0 149.71554727 0 3926.15780209 0 794.83237327 0 289.99525933 0 23559
0.14650000 0.14650700 11345.14690218 0 291.07148930 0 3632.01042096 0 367.82152324 0 407.16038609 0 23044
0.14750000 0.14750500 11062.32650934 0 248.05661461 0 3437.82398829 0 128.03372081 0 591.72496849 0 23649
0.14850000 0.14849900 10917.81052580 0 218.60976675 0 3392.13957609 0 54.47417726 0 1128.87887689 0 23640
0.14950000 0.14949500 10795.23989006 0 94.89436335 0 3473.74261000 0 70.80784938 0 692.93930413 0 24457
0.15050000 0.15050000 10610.69745231 0 244.12704653 0 3474.48445577 0 -241.86386334 0 314.35215946 0 24591
0.15150000 0.15149900 10408.56109042 0 408.52006758 0 3575.65228763 0 -354.41847405 0 536.81177356 0 25020
0.15250000 0.15250500 10113.07395798 0 273.64365003 0 3766.87133725 0 59.21390734 0 745.64799919 0 25297
0.15350000 0.15350100 9874.01139282 0 161.30716412 0 3398.18506544 0 300.11868591 0 737.23413956 0 25452
0.15450000 0.15450400 9722.16553026 0 178.49473394 0 3814.23874283 0 522.17969631 0 490.38108666 0 26061
0.15550000 0.15549900 9524.38059203 0 243.27337029 0 3323.98941683 0 429.18213292 0 354.30553634 0 26128
0.15650000 0.15649500 9240.57476227 0 234.89051317 0 3168.82185682 0 299.44105963 0 909.44532916 0 26331
0.15750000 0.15749700 9233.05665372 0 43.51512232 0 2847.29261641 0 203.91900619 0 591.00416015 0 27345
0.15850000 0.15849900 9066.91641982 0 -98.58487993 0 2987.65647814 0 38.73807850 0 255.33556095 0 26980
0.15950000 0.15949700 9154.56494308 0 148.31046925 0 2800.37917616 0 -389.20661140 0 118.18267342 0 27777
0.16050000 0.16050000 9025.52806965 0 160.99492456 0 2665.86150194 0 -99.31963941 0 35.25782537 0 28224
0.16150000 0.16150500 8970.63148319 0 -73.92160857 0 2775.98684458 0 -116.46314137 0 21.40025724 0 28075
0.16250000 0.16249700 9068.79871504 0 7.35214548 0 2538.13116283 0 336.17128275 0 -239.52649557 0 28590
0.16350000 0.16349900 9032.11610291 0 129.94037514 0 2586.77188576 0 573.30394169 0 -242.88805338 0 29163
0.16450000 0.16449100 8892.02904931 0 188.89053971 0 2621.12930967 0 233.23187891 0 312.30710107 0 28996
0.16550000 0.16550500 8761.82958176 0 195.30252301 0 2454.66797834 0 239.16885948 0 302.11170437 0 30777
0.16650000 0.16650700 8710.28790973 0 55.76177791 0 2814.90606632 0 178.99409579 0 772.87706039 0 29211
0.16750000 0.16749900 8633.13595040 0 11.97804099 0 2553.38882643 0 -12.45714048 0 900.64061647 0 30922
0.16850000 0.16850800 8721.14986038 0 27.09696836 0 2928.96208428 0 -41.80311946 0 975.57368191 0 30867
0.16950000 0.16949900 8608.26750886 0 218.39607089 0 2590.40360830 0 76.04948795 0 1138.15748508 0 30852
0.17050000 0.17049200 8518.80312432 0 128.17544657 0 2761.32708652 0 91.10353150 0 1258.73510236 0 31257
0.17150000 0.17149500 8386.98709735 0 95.81834886 0 2507.21723193 0 399.98662684 0 1007.74321444 0 32608
0.17250000 0.17250900 8428.47509845 0 140.95290941 0 2568.44718818 0 -119.25668892 0 752.87379837 0 32361
0.17350000 0.17350400 8178.40664242 0 262.63665193 0 2543.53445734 0 -115.74011856 0 1116.98720003 0 32508
0.17450000 0.17449800 7945.74388101 0 171.77383277 0 2511.91189766 0 57.18667539 0 924.56901763 0 32791
0.17550000 0.17549800 7977.95327390 0 -23.32141632 0 2674.67507249 0 168.13546684 0 1227.31184452 0 33633
0.17650000 0.17650100 7934.93729198 0 37.00293448 0 2473.74559401 0 149.32137250 0 562.98232050 0 33984
0.17750000 0.17750300 7900.15911973 0 157.81495287 0 2600.68979805 0 175.59599930 0 857.56262953 0 34069
0.17850000 0.17849800 7856.24627950 0 177.56465865 0 2659.70528934 0 -233.56626312 0 794.82130094 0 34536
