### header ###
fiducial parameters:
Omega_m = 0.31
Omega_nu = 0
Omega_de = 0.69
Omega_k = 0
H_0 = 100
w_de = -1
zeff = 0
beta = 0
fgrowth = 0
b_1 = 2
gamma = 0.55
Lx = 3500 Ly = 3500 Lz = 3500
nx = 700 ny = 700 nz = 700
xoffset = -685.467585 yoffset = -31.7331281 zoffset = 572.489161
bins = 400 dk = 0.001
kx_ny = 0.628318531 ky_ny = 0.628318531 kz_ny = 0.628318531
############################
A(data) = 8.00790582 (not used)
A(ran) = 8.01067298 (used)
Ngal = 476310
weighted Ngal = 0
Nran = 23820508
weighted Nran = 0
SN(data) = 3485.30918
SN(ran) = 69.7758669
SN(data+ran) = 3555.08505
############################
13 columns: k_central k_mean P_0(k) sigma^{lin}_{P_0(k)} P^img_1(k) sigma^{lin}_{P_1(k)} P_2(k) sigma^{lin}_{P_2(k)} P^img_3(k) sigma^{lin}_{P_3(k)} P_4(k) sigma^{lin}_{P_4(k)} N_modes
### header ###
0.00050000 0 0 0 0 0 0 0 0 0 0 0 0
0.00150000 0.00179520 88532.31623143 0 -100559.96123543 0 14286.06709726 0 29035.28954168 0 -173867.60939472 0 3
0.00250000 0.00253879 130594.74953849 0 -57635.10454824 0 28482.22691699 0 -14968.56519908 0 94395.33366940 0 6
0.00350000 0.00331552 148031.44666289 0 -8673.57208064 0 27883.32486755 0 -127113.61061551 0 9702.16891164 0 7
0.00450000 0.00420575 132487.00984999 0 34699.00513291 0 -8890.89967218 0 -50299.57863264 0 93879.91694909 0 24
0.00550000 0.00557378 100318.14166139 0 23692.44992369 0 -4765.82755472 0 -21719.91525725 0 42677.61167398 0 45
0.00650000 0.00659388 86217.20383510 0 769.29848500 0 -5.53067054 0 -8844.80558396 0 -10595.11869129 0 40
0.00750000 0.00754703 108837.29910010 0 -30995.09103458 0 -27866.71638032 0 53080.17156435 0 -36603.33427847 0 57
0.00850000 0.00846663 98912.73147216 0 -16639.26829097 0 5276.09564398 0 -6355.89090495 0 9490.34426553 0 75
0.00950000 0.00948925 119281.04803879 0 -1697.64205817 0 -25841.80961749 0 2678.87148360 0 -29186.20532896 0 112
0.01050000 0.01054430 114467.90844013 0 7175.91835334 0 -29970.79026561 0 -16063.61812364 0 -10306.67355744 0 105
0.01150000 0.01145670 94802.13088324 0 12962.70283493 0 -25166.72997329 0 -15235.51895046 0 5899.51182057 0 144
0.01250000 0.01249090 86673.27289438 0 11031.96619468 0 -13905.73273974 0 -10356.68724864 0 -4216.54059279 0 169
0.01350000 0.01339930 79387.90461020 0 1205.68759415 0 -6480.77565658 0 -13634.01788869 0 4894.27759494 0 180
0.01450000 0.01448870 75451.47169068 0 6930.14595934 0 -9306.92013259 0 -11341.82520473 0 6096.46633445 0 267
0.01550000 0.01550050 73162.26853442 0 11456.53448985 0 -850.92034187 0 -10200.17993733 0 802.98603327 0 238
0.01650000 0.01653350 62646.66020766 0 8129.77699182 0 11433.72550073 0 -17792.22947433 0 3265.85971153 0 315
0.01750000 0.01747870 58129.59457464 0 4299.42801638 0 17322.76290202 0 -12614.47821939 0 -2869.29332583 0 297
0.01850000 0.01844180 65752.22587279 0 -8432.53864166 0 26242.84922242 0 5709.40000344 0 -3597.05509151 0 388
0.01950000 0.01947590 68734.66728594 0 -4794.67096087 0 28187.81380006 0 -1450.10916452 0 758.84731761 0 399
0.02050000 0.02045430 73440.73750361 0 2667.98738830 0 25528.01993213 0 7812.85383853 0 -4948.63163747 0 462
0.02150000 0.02154770 73629.74208827 0 807.49579116 0 25960.28349305 0 8498.78436105 0 -2290.93043893 0 571
0.02250000 0.02255340 74249.34938512 0 -6251.00277194 0 20410.72357069 0 1874.62209807 0 -4879.58461990 0 510
0.02350000 0.02348930 74637.10220027 0 3880.51767919 0 25173.26264494 0 434.02073887 0 -5399.43027014 0 555
0.02450000 0.02439640 71641.04182759 0 9277.46774857 0 20976.29792243 0 -5727.21537407 0 -8122.49140209 0 592
0.02550000 0.02547300 63833.39198172 0 7865.70204489 0 28501.71420867 0 -3060.57880940 0 8741.76652919 0 837
0.02650000 0.02652900 60364.21116954 0 4061.16265861 0 32283.46675048 0 5193.69540268 0 4638.72833812 0 723
0.02750000 0.02749970 58163.80805833 0 704.97270674 0 33282.96551186 0 10008.16368033 0 4760.15852441 0 826
0.02850000 0.02848090 58635.71054211 0 -850.26043131 0 32729.68144067 0 7851.14193776 0 1001.02674220 0 831
0.02950000 0.02946900 59525.70401103 0 -503.27037998 0 31294.70814417 0 6037.38440921 0 4039.25052779 0 996
0.03050000 0.03053250 58536.05961874 0 1823.97728435 0 34007.87061773 0 -2758.11611232 0 9100.46556402 0 1041
0.03150000 0.03150510 57888.21789360 0 4346.18644409 0 32258.99691263 0 6133.11572960 0 9011.44407248 0 1036
0.03250000 0.03246190 52677.58183394 0 1788.05866264 0 29154.64920323 0 2502.75508503 0 5210.20423899 0 1059
0.03350000 0.03345080 53197.98110042 0 1027.76862111 0 32219.35798978 0 54.92028123 0 7339.11334884 0 1302
0.03450000 0.03451200 52713.89905935 0 607.54621343 0 30093.02873161 0 5857.50342021 0 4414.32553102 0 1339
0.03550000 0.03553350 52887.95600550 0 -836.51414005 0 26867.54978869 0 -380.27678143 0 -990.45045754 0 1365
0.03650000 0.03647120 51818.36942802 0 -32.74208244 0 23567.33265324 0 4371.95174394 0 -2951.37246971 0 1308
0.03750000 0.03744890 55361.29192349 0 -659.10449394 0 25272.69212181 0 -3483.95129349 0 -4210.11864439 0 1579
0.03850000 0.03847530 53008.20145303 0 504.93122870 0 22945.95378442 0 2187.40420187 0 -7758.34478345 0 1662
0.03950000 0.03950240 51829.66319933 0 1626.86775793 0 19608.20146784 0 3008.30636393 0 -8286.63861752 0 1683
0.04050000 0.04050350 50956.05677114 0 2209.57099616 0 20275.64120791 0 2038.12711867 0 -9370.64136192 0 1822
0.04150000 0.04152450 47905.74200685 0 2132.09793940 0 16950.28989512 0 10012.98014162 0 -3365.23382678 0 1887
0.04250000 0.04250150 45761.69702897 0 2072.49561490 0 16406.97091627 0 6081.85086569 0 -1483.72474267 0 1920
0.04350000 0.04349210 44698.42167663 0 851.29569368 0 12243.55533796 0 4933.03073180 0 -275.15170067 0 2005
0.04450000 0.04448520 43916.60482119 0 1108.98190919 0 13757.47431042 0 1331.59099966 0 4533.14264865 0 2151
0.04550000 0.04548030 43551.77171842 0 1237.32122616 0 11899.42748260 0 138.27008510 0 3536.11301571 0 2274
0.04650000 0.04648670 41142.54456113 0 1600.73707136 0 14614.02935839 0 -252.31835243 0 8302.09558297 0 2311
0.04750000 0.04749250 41358.45489509 0 1718.41373953 0 15893.21504468 0 713.46850157 0 9048.01596135 0 2568
0.04850000 0.04851840 38412.10926085 0 798.76858474 0 17685.38153983 0 -235.68329162 0 7536.71005756 0 2493
0.04950000 0.04949480 40301.60149115 0 809.54860019 0 18059.18322571 0 1772.74563741 0 7854.93974517 0 2644
0.05050000 0.05050630 39486.45693800 0 734.48931024 0 19252.77984116 0 -1696.40195779 0 6926.09348846 0 2829
0.05150000 0.05149060 38934.05865280 0 753.30561904 0 20572.60095954 0 -652.64047072 0 7736.02297662 0 2784
0.05250000 0.05249300 38486.62600688 0 1005.36377184 0 17703.42942929 0 1057.03166837 0 7726.68900679 0 3055
0.05350000 0.05348950 37244.75405522 0 1710.53024426 0 19858.10383899 0 72.83231325 0 6861.18752037 0 3009
0.05450000 0.05448610 37055.41730082 0 951.66742540 0 19185.46010626 0 1322.66670586 0 -837.61805083 0 3336
0.05550000 0.05550870 35158.72805938 0 1216.60490642 0 19717.70676029 0 708.22907747 0 -136.19845313 0 3349
0.05650000 0.05647670 34832.09447723 0 773.62333508 0 19669.54214733 0 542.81518807 0 -1729.50820900 0 3324
0.05750000 0.05747970 34460.83942607 0 -725.93372485 0 17257.32546234 0 -1.58898933 0 -2192.14315689 0 3639
0.05850000 0.05849280 34482.87335245 0 -171.09399203 0 18834.79957925 0 1158.98452807 0 1392.90953451 0 3846
0.05950000 0.05951020 35707.14030765 0 -656.11828794 0 18311.41078508 0 -1370.87560812 0 -782.43469117 0 3787
0.06050000 0.06049470 35564.75021048 0 886.30195583 0 18728.50526100 0 1885.68335056 0 4284.91219854 0 3930
0.06150000 0.06148310 35356.47978065 0 659.65257402 0 16790.84841773 0 1748.68547558 0 1829.96741208 0 4083
0.06250000 0.06249100 34006.32049226 0 1106.60910998 0 17567.46128051 0 3150.06533858 0 1952.74842199 0 4303
0.06350000 0.06350600 34027.13646292 0 665.37032256 0 15838.40703683 0 1463.73919638 0 134.12792839 0 4470
0.06450000 0.06451750 32342.81441151 0 159.19235008 0 14072.14978176 0 1130.11897726 0 855.92281822 0 4479
0.06550000 0.06550280 32343.14658125 0 218.89543273 0 12995.47691640 0 471.40312192 0 -1792.14435050 0 4636
0.06650000 0.06648880 32553.18858306 0 316.21895343 0 12483.71406328 0 1156.33824244 0 -1636.72212702 0 4653
0.06750000 0.06749660 31531.76661854 0 1195.52319997 0 11145.18071595 0 930.24579857 0 -2865.20763797 0 5220
0.06850000 0.06852730 30578.32872841 0 234.47197929 0 10704.00393355 0 105.28740104 0 -2456.14059755 0 5029
0.06950000 0.06949320 31047.79530072 0 -232.79895101 0 12281.20124235 0 306.66021541 0 -1620.58974976 0 5040
0.07050000 0.07048030 31178.89162657 0 124.68323532 0 12081.78867236 0 720.69762245 0 -297.63294899 0 5475
0.07150000 0.07148790 31376.31117809 0 155.26499647 0 13430.17638878 0 927.79660032 0 575.62912990 0 5509
0.07250000 0.07249820 30735.55574083 0 335.88672400 0 14036.05400285 0 596.33437732 0 2185.88729337 0 5916
0.07350000 0.07351270 31029.30451827 0 1045.69692945 0 13614.53059701 0 1864.60164411 0 3382.07483283 0 5721
0.07450000 0.07449140 29578.82996703 0 912.97186462 0 13376.03272041 0 1387.11870863 0 3548.72439368 0 6028
0.07550000 0.07549160 28733.56869037 0 1540.33753947 0 13512.77593192 0 1254.71584845 0 5423.22469617 0 6183
0.07650000 0.07648840 27428.58448725 0 1428.57349275 0 12929.70730697 0 161.65815682 0 5056.50929818 0 6330
0.07750000 0.07749960 26311.94052929 0 1193.39731360 0 12215.65307942 0 1833.82058111 0 3608.40422445 0 6583
0.07850000 0.07848650 24916.38470914 0 702.80253107 0 11495.73051971 0 169.02125282 0 3198.73927848 0 6549
0.07950000 0.07947320 24616.10326006 0 703.65620732 0 11437.04719817 0 950.81153469 0 214.14429816 0 6828
0.08050000 0.08048110 24152.06212691 0 69.49157141 0 10700.13969219 0 -319.84181811 0 1565.91460980 0 7147
0.08150000 0.08149960 24133.01772823 0 81.69449132 0 10873.69838372 0 255.01335629 0 636.12499102 0 7386
0.08250000 0.08250610 24276.40433463 0 138.76280356 0 10695.20143532 0 668.63001499 0 1256.83066249 0 7227
0.08350000 0.08350160 24414.91911811 0 52.19781800 0 10886.97410118 0 724.23523023 0 163.47844702 0 7798
0.08450000 0.08449610 23266.27614142 0 1256.85280714 0 10379.67339497 0 2.63945401 0 -326.13422030 0 7371
0.08550000 0.08548940 22907.08992430 0 1116.95398306 0 11415.89905777 0 -457.23386785 0 1247.57419894 0 8256
0.08650000 0.08650700 22175.09853054 0 480.87106687 0 10923.94459375 0 -629.58678321 0 808.98058992 0 8037
0.08750000 0.08749060 21449.41836193 0 327.98994194 0 11199.43510756 0 688.96433952 0 522.25388088 0 8155
0.08850000 0.08849210 21542.97950665 0 -0.66959109 0 9844.88010623 0 1052.23956619 0 20.51956452 0 8718
0.08950000 0.08949900 21411.10811806 0 65.46899580 0 9836.15511427 0 1367.85286345 0 -184.08515074 0 8571
0.09050000 0.09049190 20796.37264413 0 753.98656701 0 8975.73582494 0 983.89121231 0 -550.11185013 0 8932
0.09150000 0.09150830 20508.60292209 0 778.56823534 0 8674.29178175 0 1200.41716754 0 -125.05637266 0 9285
0.09250000 0.09250820 19839.94522629 0 94.33720396 0 8011.81244320 0 436.59505439 0 1115.23777271 0 9204
0.09350000 0.09350330 19826.65843651 0 -223.35757964 0 8007.87069556 0 1279.56214534 0 1379.30164731 0 9349
0.09450000 0.09448040 19953.21510919 0 -143.98119024 0 8354.16872659 0 1196.23182876 0 916.41757210 0 9564
0.09550000 0.09549270 19777.27586782 0 536.21497525 0 7675.99990377 0 459.12944986 0 741.68632137 0 10155
0.09650000 0.09649430 19290.09357580 0 899.72161351 0 7316.84690363 0 166.93301236 0 1734.46861052 0 9913
0.09750000 0.09749140 18457.78691918 0 492.27666867 0 6448.89843342 0 191.64422689 0 1357.19021465 0 10476
0.09850000 0.09850240 18327.35493282 0 192.83671627 0 6098.23790642 0 400.55352987 0 1267.75904709 0 10575
0.09950000 0.09950330 18402.86818808 0 106.39219761 0 6566.48652300 0 10.02554723 0 348.95760345 0 10882
0.10050000 0.10051200 17904.05995500 0 479.05188391 0 6482.90154294 0 297.36056979 0 445.48834568 0 10875
0.10150000 0.10150300 17642.86381253 0 363.25418926 0 6753.64202941 0 -133.68946433 0 384.00261873 0 11118
0.10250000 0.10250800 17301.28259187 0 504.01554744 0 6440.09593519 0 291.19217764 0 440.81693184 0 11575
0.10350000 0.10349800 17022.81362268 0 326.76645005 0 7280.33037638 0 127.90749631 0 801.40711975 0 11364
0.10450000 0.10450100 16866.36167300 0 -1.34229794 0 6363.77440022 0 448.77128999 0 924.70520723 0 12093
0.10550000 0.10551000 16660.63787787 0 150.42196159 0 6503.13068039 0 396.96166770 0 695.23791876 0 12067
0.10650000 0.10649700 16618.67376680 0 675.85913586 0 5757.13279573 0 226.45007996 0 389.80008801 0 12054
0.10750000 0.10749900 15811.16911778 0 471.08313173 0 6107.90404598 0 212.67167895 0 82.51738650 0 12807
0.10850000 0.10850100 15807.07235760 0 412.34887750 0 6153.55524121 0 -80.56478202 0 -0.53792676 0 12736
0.10950000 0.10950300 15150.70494235 0 147.61844895 0 6348.97070194 0 274.26480746 0 16.15828650 0 12933
0.11050000 0.11050200 15366.94744605 0 -28.74774127 0 6248.36755863 0 296.00088831 0 275.95887315 0 13428
0.11150000 0.11150900 15092.57523705 0 -29.58071226 0 5932.10874484 0 379.90475132 0 560.75456874 0 13453
0.11250000 0.11250000 15539.01137374 0 161.31934368 0 5890.91969651 0 854.77572537 0 876.24939213 0 13668
0.11350000 0.11349100 15049.83606325 0 87.41323636 0 5178.26058189 0 877.33226549 0 603.58342837 0 13791
0.11450000 0.11448600 15244.93042655 0 23.49447676 0 5328.94385034 0 312.96590439 0 747.00768068 0 14205
0.11550000 0.11549300 15008.20412193 0 176.03335613 0 4596.46527429 0 -233.04364939 0 367.85584745 0 14776
0.11650000 0.11649800 14883.97263747 0 238.35172191 0 5041.47308108 0 -151.87243614 0 442.97935688 0 14553
0.11750000 0.11747300 14555.56748334 0 172.84231212 0 4944.53487729 0 -87.03190550 0 341.98757498 0 14568
0.11850000 0.11849100 14784.98605359 0 152.86451645 0 5094.00019002 0 -148.91391095 0 -355.56003074 0 16015
0.11950000 0.11950300 14482.71158604 0 214.55397417 0 5118.72469134 0 -110.75092900 0 -491.88027944 0 15270
0.12050000 0.12050700 14375.97437479 0 494.67604146 0 5357.55473767 0 134.41248714 0 -828.80448028 0 15999
0.12150000 0.12150000 13939.28188394 0 267.14751706 0 5271.74422033 0 251.67394313 0 438.06435189 0 15670
0.12250000 0.12250700 13577.21686237 0 112.62436636 0 4980.57529457 0 1150.85744165 0 5.17873669 0 16887
0.12350000 0.12352200 13791.35562436 0 -89.90716680 0 4405.40123722 0 1024.11918285 0 1117.16435723 0 16407
0.12450000 0.12449800 13730.23639136 0 -93.43835264 0 4432.28484188 0 1099.08325080 0 657.29970500 0 16306
0.12550000 0.12549900 13698.90171213 0 88.08787311 0 4235.66249775 0 223.52477174 0 1136.40805776 0 17523
0.12650000 0.12650100 13583.97098051 0 388.55998763 0 4264.17373416 0 -205.61750081 0 1164.46532885 0 17154
0.12750000 0.12750600 13210.83363412 0 391.46868736 0 4270.58461023 0 -409.08364891 0 2131.21215342 0 18007
0.12850000 0.12850300 12914.09532898 0 348.15596713 0 4245.10719082 0 125.71185429 0 2388.43333128 0 17496
0.12950000 0.12949900 12892.06140259 0 274.75531144 0 4711.62852473 0 146.03067757 0 2418.36182526 0 18405
0.13050000 0.13049000 12563.21335548 0 30.62350381 0 4282.09982804 0 577.65536535 0 2406.16012331 0 18100
0.13150000 0.13148800 12493.12553938 0 81.02262265 0 4167.73378499 0 442.89299275 0 1879.13960660 0 19059
0.13250000 0.13249300 12315.85761903 0 186.45905718 0 4155.54315536 0 503.15301334 0 2404.10067090 0 18957
0.13350000 0.13349100 12299.24913180 0 288.58575238 0 4105.11978814 0 -271.76910544 0 1581.06155015 0 19468
0.13450000 0.13450700 12086.43904879 0 167.56524211 0 4208.81211006 0 -78.88145647 0 2513.24057664 0 19953
0.13550000 0.13551000 11905.62798450 0 76.68204987 0 4185.71524049 0 33.53231427 0 1930.72556793 0 19956
0.13650000 0.13649900 12039.71383805 0 -4.56835264 0 4218.26787546 0 -0.82288079 0 1546.92557274 0 19723
0.13750000 0.13749600 11863.44242694 0 118.44176582 0 4329.21257014 0 55.47577976 0 1363.00318518 0 20946
0.13850000 0.13851100 11739.65383547 0 300.64351410 0 3939.53317047 0 466.00647080 0 1063.01736717 0 20955
0.13950000 0.13949800 11507.46718402 0 80.07616032 0 3944.32748712 0 104.38777465 0 1204.64679562 0 20506
0.14050000 0.14048300 11389.21475496 0 216.77397530 0 3786.71294333 0 350.64613298 0 606.77115069 0 21447
0.14150000 0.14148400 10982.71649389 0 371.58168475 0 3424.85829593 0 199.70487936 0 483.76980151 0 21771
0.14250000 0.14249400 10695.64432832 0 422.27521670 0 3067.78689285 0 20.34838638 0 429.22642222 0 22470
0.14350000 0.14350900 10517.20274154 0 135.03032286 0 3136.04777536 0 14.40719833 0 639.90951164 0 22519
0.14450000 0.14449900 10345.00594596 0 17.78481102 0 3064.32125518 0 80.98276228 0 555.17300980 0 22218
0.14550000 0.14550500 10485.90127928 0 -93.09522129 0 2952.57935311 0 276.80701323 0 259.35924378 0 23559
0.14650000 0.14650700 10513.61530830 0 -141.00605657 0 2953.00010146 0 285.54197028 0 434.17796588 0 23044
0.14750000 0.14750500 10584.77713991 0 205.74926148 0 2934.29894484 0 -103.28895713 0 282.51811838 0 23649
0.14850000 0.14849900 10463.05907318 0 299.90277557 0 3319.51619760 0 -30.17972503 0 777.08232935 0 23640
0.14950000 0.14949500 10318.78668079 0 159.74707355 0 3414.57210617 0 -362.56991958 0 790.11888459 0 24457
0.15050000 0.15050000 10235.53387048 0 122.63264076 0 3716.39260840 0 -197.94659418 0 905.36185577 0 24591
0.15150000 0.15149900 10172.41054669 0 187.18429445 0 3853.43477268 0 -216.53149139 0 639.68585068 0 25020
0.15250000 0.15250500 10149.41332804 0 157.67987051 0 4084.90172302 0 -199.53436556 0 973.23631414 0 25297
0.15350000 0.15350100 9975.59997303 0 157.59129191 0 4241.45332363 0 -64.14696022 0 845.82042906 0 25452
0.15450000 0.15450400 9903.33090894 0 210.66980263 0 4200.03175648 0 310.60639198 0 683.46250131 0 26061
0.15550000 0.15549900 9575.84475778 0 282.03979394 0 4141.12698845 0 108.34480209 0 869.54067052 0 26128
0.15650000 0.15649500 9515.86597424 0 267.30695854 0 4138.05995447 0 351.10452723 0 671.47338800 0 26331
0.15750000 0.15749700 9216.21564767 0 49.94869666 0 3932.49117189 0 146.33516650 0 1109.77911657 0 27345
0.15850000 0.15849900 9338.71984947 0 -128.98040458 0 3674.01882132 0 351.26507594 0 525.66747863 0 26980
0.15950000 0.15949700 9320.76053861 0 -45.88603924 0 3665.06131054 0 325.66807543 0 1002.44510701 0 27777
0.16050000 0.16050000 9413.96736893 0 -96.12715599 0 3144.83920127 0 463.72225019 0 439.64215818 0 28224
0.16150000 0.16150500 9440.17556178 0 -48.89693652 0 3157.72738735 0 519.10491171 0 795.32509172 0 28075
0.16250000 0.16249700 9435.60269163 0 204.71399911 0 2831.37061332 0 -43.98735698 0 490.23603921 0 28590
0.16350000 0.16349900 9189.19917512 0 264.89208450 0 2843.86019572 0 -64.08240857 0 351.25843255 0 29163
0.16450000 0.16449100 9050.33007724 0 422.30179028 0 3017.19744076 0 -314.40087769 0 778.28589106 0 28996
0.16550000 0.16550500 8747.42448718 0 179.23768693 0 3034.76922024 0 -143.95793836 0 633.51524406 0 30777
0.16650000 0.16650700 8631.04328101 0 84.45448972 0 3251.03386860 0 -33.32116503 0 244.13811886 0 29211
0.16750000 0.16749900 8640.84228847 0 120.74923831 0 3163.14175419 0 -42.90404072 0 324.97162619 0 30922
0.16850000 0.16850800 8420.32586738 0 -0.80302257 0 3059.09511787 0 259.47882489 0 333.02231357 0 30867
0.16950000 0.16949900 8420.31479506 0 78.07129447 0 2990.56849957 0 579.21324145 0 72.58473607 0 30852
0.17050000 0.17049200 8433.81195901 0 -7.76754589 0 2620.63105505 0 398.24052122 0 441.98395488 0 31257
0.17150000 0.17149500 8442.52587864 0 59.09487985 0 2415.35015291 0 452.64106752 0 353.70763080 0 32608
0.17250000 0.17250900 8371.55227656 0 -86.71479411 0 2146.63590189 0 178.73832508 0 593.87299951 0 32361
0.17350000 0.17350400 8355.15416350 0 129.10220015 0 2148.99430708 0 67.84744190 0 502.21186573 0 32508
0.17450000 0.17449800 8274.66943439 0 314.88363105 0 2027.87414589 0 -113.20898511 0 656.98414374 0 32791
0.17550000 0.17549800 8125.80202721 0 77.82615319 0 2045.70058884 0 19.73996213 0 857.96234045 0 33633
0.17650000 0.17650100 8051.19670258 0 -78.38552704 0 1962.97925012 0 148.70685848 0 693.75201277 0 33984
0.17750000 0.17750300 8221.94302361 0 -0.21721133 0 2045.50128700 0 16.50230363 0 278.92847067 0 34069
0.17850000 0.17849800 8139.59814393 0 168.97917799 0 2008.63044535 0 -156.99892253 0 99.55448342 0 34536
