### header ###
fiducial parameters:
Omega_m = 0.31
Omega_nu = 0
Omega_de = 0.69
Omega_k = 0
H_0 = 100
w_de = -1
zeff = 0
beta = 0
fgrowth = 0
b_1 = 2
gamma = 0.55
Lx = 3500 Ly = 3500 Lz = 3500
nx = 700 ny = 700 nz = 700
xoffset = -685.467585 yoffset = -31.7331281 zoffset = 572.489161
bins = 400 dk = 0.001
kx_ny = 0.628318531 ky_ny = 0.628318531 kz_ny = 0.628318531
############################
A(data) = 8.02080092 (not used)
A(ran) = 8.0131931 (used)
Ngal = 476238
weighted Ngal = 0
Nran = 23820508
weighted Nran = 0
SN(data) = 3493.22927
SN(ran) = 69.7978181
SN(data+ran) = 3563.02709
############################
13 columns: k_central k_mean P_0(k) sigma^{lin}_{P_0(k)} P^img_1(k) sigma^{lin}_{P_1(k)} P_2(k) sigma^{lin}_{P_2(k)} P^img_3(k) sigma^{lin}_{P_3(k)} P_4(k) sigma^{lin}_{P_4(k)} N_modes
### header ###
0.00050000 0 0 0 0 0 0 0 0 0 0 0 0
0.00150000 0.00179520 10023.96388784 0 -23307.68663624 0 -16250.51896658 0 39022.19435836 0 -42725.88701019 0 3
0.00250000 0.00253879 28027.37581344 0 -37033.60482093 0 -6160.98477116 0 3781.01069605 0 63255.52734944 0 6
0.00350000 0.00331552 51080.50970210 0 -38506.22402181 0 20711.78008251 0 -51757.36091827 0 -73790.29079814 0 7
0.00450000 0.00420575 81421.00489340 0 -38321.75909033 0 -4749.46265863 0 9004.26920599 0 26407.16252273 0 24
0.00550000 0.00557378 106082.17251548 0 -9723.54957086 0 -5930.12679870 0 -10800.33315948 0 -3067.23327661 0 45
0.00650000 0.00659388 140979.48298590 0 -7935.25838940 0 -24259.13150791 0 -54097.71821518 0 -53358.86198003 0 40
0.00750000 0.00754703 117011.22145097 0 18454.02232874 0 25856.53580950 0 -50512.61016215 0 -26052.84812853 0 57
0.00850000 0.00846663 95887.44016196 0 42760.87555662 0 15142.17925224 0 -39628.62558867 0 4610.53819913 0 75
0.00950000 0.00948925 62502.16636878 0 16968.33778458 0 17734.09976903 0 15129.00318570 0 12684.12314250 0 112
0.01050000 0.01054430 75654.64885110 0 -8316.66676243 0 1667.22638189 0 50398.67593977 0 -14980.85547963 0 105
0.01150000 0.01145670 72810.50077494 0 -18493.55052834 0 -13980.47093226 0 38582.84450955 0 -28675.10681533 0 144
0.01250000 0.01249090 87613.42399473 0 -4983.97449829 0 -16552.57198764 0 2314.37055057 0 -31899.92141876 0 169
0.01350000 0.01339930 77006.35826496 0 7285.91082809 0 -27493.46831068 0 -27337.34853074 0 -9528.57700313 0 180
0.01450000 0.01448870 74680.94860655 0 15188.35084673 0 7807.27338682 0 -24056.95085672 0 14182.09796721 0 267
0.01550000 0.01550050 64981.59206542 0 10373.59468864 0 13273.72443909 0 -11141.52684876 0 13142.73883648 0 238
0.01650000 0.01653350 64180.84153453 0 -1943.17086102 0 31629.42452344 0 2172.82195009 0 -828.33058478 0 315
0.01750000 0.01747870 57235.06145255 0 6478.47261301 0 35895.59127607 0 7076.41137020 0 17233.74141048 0 297
0.01850000 0.01844180 68922.01102188 0 1396.09836406 0 40146.58894369 0 -5432.27078555 0 -8477.47013577 0 388
0.01950000 0.01947590 63662.98890276 0 -793.23795850 0 36873.27755755 0 13203.85806948 0 19007.74929292 0 399
0.02050000 0.02045430 70229.54185971 0 -2593.92460759 0 41305.86135220 0 -6539.63613531 0 5464.59090170 0 462
0.02150000 0.02154770 70937.28486212 0 -1739.20756554 0 35553.34571592 0 5096.18143800 0 2462.65112454 0 571
0.02250000 0.02255340 80937.36574533 0 -7484.98015600 0 34716.94229912 0 6048.88855470 0 -7787.65322725 0 510
0.02350000 0.02348930 73297.79379020 0 1828.98197517 0 27649.80953712 0 6691.98025249 0 -13359.86712618 0 555
0.02450000 0.02439640 77794.15417581 0 6367.71614785 0 30966.96732954 0 778.35564671 0 -17799.86937846 0 592
0.02550000 0.02547300 69411.96139510 0 4056.43477591 0 25071.06508686 0 -1171.87271416 0 -15406.58636891 0 837
0.02650000 0.02652900 66084.17417086 0 6941.99334690 0 29338.67124171 0 4887.31310263 0 -8393.98480664 0 723
0.02750000 0.02749970 65555.13849102 0 -640.64471401 0 27562.78106405 0 -3431.35775060 0 -13341.04417399 0 826
0.02850000 0.02848090 63429.14140259 0 1277.89022429 0 30030.02720339 0 10218.81466000 0 -12275.66507994 0 831
0.02950000 0.02946900 65592.89511865 0 3255.04205019 0 30173.41380979 0 -2713.04067799 0 -6833.82780574 0 996
0.03050000 0.03053250 58594.96438677 0 2504.77024815 0 28836.43058794 0 2730.30243238 0 -3742.39042708 0 1041
0.03150000 0.03150510 60770.89766013 0 -184.23351989 0 31652.67640556 0 1410.14914425 0 -26.79746197 0 1036
0.03250000 0.03246190 59348.43609068 0 3478.49263735 0 33166.37393152 0 4235.98359517 0 -6677.18762653 0 1059
0.03350000 0.03345080 55385.76176134 0 4780.12192606 0 25403.01338492 0 5144.01388122 0 2092.90190955 0 1302
0.03450000 0.03451200 54137.68930778 0 -187.16657873 0 25080.47656296 0 9003.15090119 0 -7141.25090433 0 1339
0.03550000 0.03553350 51161.44839653 0 464.14964193 0 18679.23341555 0 5841.28246435 0 -6738.91583740 0 1365
0.03650000 0.03647120 53047.72965263 0 791.70001258 0 17989.75974910 0 4061.49482835 0 -10618.82453872 0 1308
0.03750000 0.03744890 49015.07823043 0 1837.50766528 0 15591.16202363 0 927.00382186 0 -8620.50242778 0 1579
0.03850000 0.03847530 49175.07332406 0 3024.00692052 0 15623.16104236 0 857.41426038 0 -8456.60987581 0 1662
0.03950000 0.03950240 44688.78875404 0 1698.70500135 0 12365.01874122 0 -1538.43309960 0 -8361.46538865 0 1683
0.04050000 0.04050350 46382.30083505 0 658.04819416 0 14838.79755221 0 -226.21866837 0 -6008.71816026 0 1822
0.04150000 0.04152450 46181.78103259 0 531.26232436 0 16864.70082427 0 -1462.00084138 0 -4130.24289315 0 1887
0.04250000 0.04250150 44880.00780366 0 896.32794595 0 16353.04869440 0 5290.41215997 0 -639.37028942 0 1920
0.04350000 0.04349210 42593.68345186 0 32.54809531 0 14426.24272946 0 4289.65115356 0 5662.01045321 0 2005
0.04450000 0.04448520 46558.46152292 0 -1876.44903167 0 17055.36625765 0 4300.53524886 0 1748.68547558 0 2151
0.04550000 0.04548030 45463.07642861 0 959.43244679 0 16554.56500610 0 4221.55635593 0 4367.23493357 0 2274
0.04650000 0.04648670 43980.27068890 0 2326.14043185 0 16089.85953346 0 -1325.61194426 0 4187.05499180 0 2311
0.04750000 0.04749250 42065.64428126 0 3801.66058183 0 16134.37027924 0 -1604.00340718 0 9749.55846186 0 2568
0.04850000 0.04851840 40103.18543040 0 1620.73368998 0 19548.07874407 0 -746.60575529 0 8893.85598290 0 2493
0.04950000 0.04949480 38715.60168413 0 741.47373274 0 18135.47154371 0 837.21169651 0 2947.34214348 0 2644
0.05050000 0.05050630 38242.37052138 0 838.23145763 0 19589.48923889 0 570.73184064 0 -365.40111304 0 2829
0.05150000 0.05149060 37150.41784776 0 265.31283284 0 19660.68428748 0 -168.00259894 0 2042.73320579 0 2784
0.05250000 0.05249300 37599.06844941 0 711.91062547 0 18731.38406545 0 1391.79122970 0 679.52518261 0 3055
0.05350000 0.05348950 37179.64878528 0 -284.83998489 0 17328.85268067 0 1521.37064706 0 709.88771173 0 3009
0.05450000 0.05448610 37194.70714704 0 251.11368349 0 17206.72493792 0 4158.84270816 0 2582.87442742 0 3336
0.05550000 0.05550870 36761.66852338 0 424.99679414 0 14602.95703357 0 3420.82796970 0 2201.94216436 0 3349
0.05650000 0.05647670 35814.76330489 0 811.57372839 0 14313.52646281 0 4844.56285650 0 4075.60097017 0 3324
0.05750000 0.05747970 36525.38511175 0 619.84203014 0 11126.02559402 0 2382.80859027 0 3484.13952301 0 3639
0.05850000 0.05849280 35593.42753177 0 -166.59530645 0 11440.36889562 0 769.42581674 0 2409.14965102 0 3846
0.05950000 0.05951020 35170.90761669 0 604.56222189 0 11551.64576005 0 -1747.55609845 0 3091.32665542 0 3787
0.06050000 0.06049470 34882.47355516 0 1136.99489098 0 10073.34645653 0 -967.68132878 0 -1009.88792376 0 3930
0.06150000 0.06148310 34642.53627634 0 102.57501363 0 11059.50306651 0 -683.01407216 0 -277.11482386 0 4083
0.06250000 0.06249100 33934.35038094 0 678.07470806 0 9539.67147260 0 1185.38095043 0 738.79312290 0 4303
0.06350000 0.06350600 33480.49578662 0 -326.77309344 0 9994.94332449 0 3718.20846967 0 1628.67254687 0 4470
0.06450000 0.06451750 33646.80210540 0 -328.74286003 0 9924.04722868 0 2489.15827016 0 120.68058990 0 4479
0.06550000 0.06550280 33766.05104370 0 1703.97542797 0 10142.19417226 0 1849.32183586 0 2872.54858933 0 4636
0.06650000 0.06648880 31107.69657799 0 2442.62128894 0 9786.35179723 0 -1042.88898788 0 4817.73461347 0 4653
0.06750000 0.06749660 30014.85811839 0 1697.65313049 0 11345.81124167 0 -832.72851219 0 5861.81055456 0 5220
0.06850000 0.06852730 29692.98563591 0 62.51921775 0 11638.89567962 0 1652.36732199 0 4896.89066359 0 5029
0.06950000 0.06949320 29095.85515844 0 414.99848483 0 10448.12250700 0 528.34255230 0 3510.41414980 0 5040
0.07050000 0.07048030 28692.93325829 0 591.78143735 0 11006.31161808 0 615.65447689 0 3626.51854785 0 5475
0.07150000 0.07148790 28839.64156214 0 222.60023262 0 9920.32692754 0 62.55586714 0 2305.81164348 0 5509
0.07250000 0.07249820 27903.69794522 0 -62.98170876 0 9532.02049615 0 195.76866789 0 2169.45596334 0 5916
0.07350000 0.07351270 28551.65039360 0 -55.30083703 0 10451.57707234 0 806.13278798 0 209.33448025 0 5721
0.07450000 0.07449140 28032.57980610 0 670.22553699 0 10325.23077383 0 -560.68370586 0 406.64884468 0 6028
0.07550000 0.07549160 28214.94099587 0 348.15818160 0 10118.28902297 0 25.08202669 0 1992.92988876 0 6183
0.07650000 0.07648840 27672.72924950 0 459.60777429 0 9963.64186223 0 274.02896694 0 2437.22906676 0 6330
0.07750000 0.07749960 26930.88348665 0 1308.00694780 0 10807.09834994 0 -290.78028715 0 1229.26057369 0 6583
0.07850000 0.07848650 26152.94194489 0 1165.98223735 0 11168.87549106 0 1177.85176956 0 1646.41041123 0 6549
0.07950000 0.07947320 24497.40793801 0 1145.89704013 0 9619.39221129 0 1407.10425493 0 1309.21383121 0 6828
0.08050000 0.08048110 23511.74958265 0 448.09255648 0 9435.33695583 0 1679.53880709 0 2343.38004159 0 7147
0.08150000 0.08149960 23588.70224014 0 -167.22532174 0 8331.71405186 0 1407.13747190 0 -100.15382836 0 7386
0.08250000 0.08250610 23020.69197694 0 655.56577893 0 8508.39513899 0 1120.19817423 0 2147.11201186 0 7227
0.08350000 0.08350160 22606.80847522 0 1152.17504830 0 6839.87329509 0 277.46581656 0 1539.45175349 0 7798
0.08450000 0.08449610 22044.11292794 0 6.27639161 0 6177.21679935 0 557.81154481 0 3246.60493867 0 7371
0.08550000 0.08548940 22054.52091327 0 -46.62090943 0 7768.68633483 0 658.56527173 0 1983.76200381 0 8256
0.08650000 0.08650700 21588.59748490 0 546.69382346 0 7348.35874007 0 559.94186010 0 2620.39853623 0 8037
0.08750000 0.08749060 21407.23280437 0 810.87285023 0 7671.75920337 0 1405.50984015 0 2220.93120142 0 8155
0.08850000 0.08849210 20274.53397542 0 453.50249439 0 6472.16138787 0 -534.45669007 0 3321.88567512 0 8718
0.08950000 0.08949900 20290.03523017 0 650.30974634 0 7067.40957012 0 461.92853357 0 2704.69214507 0 8571
0.09050000 0.09049190 19766.20354300 0 584.35190740 0 6905.75362777 0 -186.54874301 0 2834.86946797 0 8932
0.09150000 0.09150830 18977.52184617 0 616.68863203 0 5940.36869915 0 760.78829615 0 3558.81128159 0 9285
0.09250000 0.09250820 18934.11833288 0 -199.74252526 0 6488.99132159 0 671.96389199 0 2567.70534242 0 9204
0.09350000 0.09350330 18787.41002903 0 86.61857561 0 6099.94304444 0 503.45418057 0 2424.51803786 0 9349
0.09450000 0.09448040 18788.51726151 0 486.16806707 0 6920.67912162 0 360.83820798 0 2408.07563551 0 9564
0.09550000 0.09549270 18473.17745068 0 367.83591727 0 6740.44381822 0 -888.67032611 0 2267.41282101 0 10155
0.09650000 0.09649430 18257.59928646 0 539.76254812 0 7551.35874329 0 -961.23169957 0 3016.62167987 0 9913
0.09750000 0.09749140 18259.48158168 0 216.25689773 0 8372.11696512 0 -1231.01000101 0 1720.12994988 0 10476
0.09850000 0.09850240 18055.97225151 0 -13.01429987 0 8385.44804420 0 20.45689517 0 1602.67472820 0 10575
0.09950000 0.09950330 17842.60855226 0 276.29215013 0 7720.23384143 0 692.47980265 0 1382.15830711 0 10882
0.10050000 0.10051200 18119.97028896 0 -167.84980086 0 7396.67836557 0 1368.84937268 0 215.89261824 0 10875
0.10150000 0.10150300 17308.47960300 0 220.66036131 0 6559.69918788 0 1154.73275534 0 -8.29234086 0 11118
0.10250000 0.10250800 17501.58094784 0 519.92979990 0 5850.59428952 0 893.50450312 0 -727.82598516 0 11575
0.10350000 0.10349800 16478.16596485 0 376.91079469 0 5075.15509317 0 647.08991428 0 1098.45212828 0 11364
0.10450000 0.10450100 16384.27265039 0 631.45579164 0 5470.28207665 0 598.35396936 0 714.75399848 0 12093
0.10550000 0.10551000 16192.16781479 0 -15.86265543 0 5267.19349483 0 2.10643229 0 779.07091889 0 12067
0.10650000 0.10649700 16068.37922332 0 -24.73933824 0 5480.76756826 0 -196.24256339 0 511.03983031 0 12054
0.10750000 0.10749900 16202.02218388 0 179.33955232 0 5629.19208245 0 -533.29520319 0 128.92393572 0 12807
0.10850000 0.10850100 15972.82506013 0 173.62180378 0 5771.96971099 0 -239.37369749 0 493.43151215 0 12736
0.10950000 0.10950300 15936.17566498 0 182.22389294 0 5792.61959677 0 188.73552716 0 365.36568160 0 12933
0.11050000 0.11050200 15551.85527053 0 492.18366114 0 5740.75682732 0 -162.45536420 0 528.76551511 0 13428
0.11150000 0.11150900 15237.73341542 0 327.92018629 0 5082.50711685 0 1115.74709965 0 -130.71875958 0 13453
0.11250000 0.11250000 15060.13332533 0 186.53102729 0 5138.99811808 0 683.32299002 0 740.96662026 0 13668
0.11350000 0.11349100 14821.52472549 0 142.28269562 0 4378.27404141 0 760.89569770 0 226.72245915 0 13791
0.11450000 0.11448600 14903.12775940 0 -46.87568363 0 4559.27333522 0 484.99218617 0 482.05580563 0 14205
0.11550000 0.11549300 14710.69075405 0 33.64691283 0 4136.66484155 0 -189.81175713 0 95.57077167 0 14776
0.11650000 0.11649800 14713.90172825 0 100.80499178 0 4469.49892559 0 -184.45385915 0 -105.56199470 0 14553
0.11750000 0.11747300 14662.41541784 0 272.98041778 0 4150.44988594 0 -510.60358071 0 -195.50625379 0 14568
0.11850000 0.11849100 14519.25025794 0 326.64797617 0 4488.64297521 0 -279.69135385 0 -1066.83067583 0 16015
0.11950000 0.11950300 14305.00077270 0 185.91097710 0 4245.06290152 0 -420.96868237 0 -602.43854999 0 15270
0.12050000 0.12050700 14025.86746402 0 209.50277959 0 4563.25937216 0 216.74075833 0 -1172.65884922 0 15999
0.12150000 0.12150000 13985.45347843 0 126.42712648 0 4609.66348547 0 305.51090809 0 -885.29658873 0 15670
0.12250000 0.12250700 14111.34581162 0 150.27691414 0 4886.68198011 0 348.07513916 0 -862.41009333 0 16887
0.12350000 0.12352200 13641.32562307 0 171.70075543 0 4041.76394552 0 961.35903131 0 161.57511438 0 16407
0.12450000 0.12449800 13735.32966078 0 29.13626914 0 3930.99640804 0 761.91213712 0 237.25556175 0 16306
0.12550000 0.12549900 13613.09119478 0 -102.39597414 0 3901.71010889 0 886.50236491 0 325.34365631 0 17523
0.12650000 0.12650100 13700.45183760 0 67.90634667 0 4108.39719628 0 198.08942717 0 161.34923895 0 17154
0.12750000 0.12750600 13318.78880110 0 302.35972445 0 3474.40694949 0 -167.06809472 0 443.24066375 0 18007
0.12850000 0.12850300 13370.27511151 0 366.17949747 0 3981.12082249 0 -139.89218069 0 577.80594896 0 17496
0.12950000 0.12949900 12849.87584503 0 299.03691977 0 3860.38819267 0 -352.52842820 0 469.12886640 0 18405
0.13050000 0.13049000 12675.26528264 0 499.68848290 0 4089.87319686 0 435.74580708 0 832.17046702 0 18100
0.13150000 0.13148800 12357.71100684 0 136.60037852 0 3754.33746556 0 464.19503846 0 485.83257563 0 19059
0.13250000 0.13249300 12117.66300477 0 184.06743502 0 3596.65648782 0 155.75882215 0 829.12668493 0 18957
0.13350000 0.13349100 11961.98611782 0 267.69559714 0 3448.96274706 0 301.62895101 0 532.46699330 0 19468
0.13450000 0.13450700 11972.17265666 0 90.76626849 0 3189.06206659 0 67.42625066 0 430.76215367 0 19953
0.13550000 0.13551000 11595.60288958 0 100.50758914 0 3402.00501750 0 -514.03267971 0 737.84865359 0 19956
0.13650000 0.13649900 11911.82848640 0 -1.40004011 0 3206.94387117 0 388.06173301 0 609.69424444 0 19723
0.13750000 0.13749600 11644.32111878 0 -21.65613867 0 3510.75739187 0 424.87721303 0 806.46717219 0 20946
0.13850000 0.13851100 11787.59700193 0 332.76765010 0 3359.50943485 0 375.78806095 0 279.15213163 0 20955
0.13950000 0.13949800 11485.65470413 0 356.22769193 0 3335.50463464 0 204.92548051 0 886.37171147 0 20506
0.14050000 0.14048300 11024.92419610 0 266.31266377 0 3254.53272324 0 391.27824337 0 1014.97676424 0 21447
0.14150000 0.14148400 11032.82983602 0 45.23664739 0 2830.20801922 0 297.36610596 0 1433.83284704 0 21771
0.14250000 0.14249400 10879.00202731 0 -184.74616853 0 2705.27897829 0 585.28308991 0 940.78443733 0 22470
0.14350000 0.14350900 11041.70984052 0 30.85358672 0 2708.64496504 0 -95.37523442 0 904.70415968 0 22519
0.14450000 0.14449900 11178.06552066 0 197.86576621 0 2958.22623877 0 -552.22998587 0 704.77783382 0 22218
0.14550000 0.14550500 10881.17220298 0 90.74667047 0 3005.59364435 0 -561.51191576 0 649.40513740 0 23559
0.14650000 0.14650700 11073.65349762 0 4.66705135 0 3318.77435184 0 -262.39527525 0 653.58161832 0 23044
0.14750000 0.14750500 11042.29667374 0 -26.35977297 0 3551.25995606 0 -183.35105560 0 306.07338219 0 23649
0.14850000 0.14849900 11042.19702281 0 272.37476161 0 3630.41600619 0 153.19447173 0 42.84236787 0 23640
0.14950000 0.14949500 10672.39244620 0 335.32978606 0 3369.20879139 0 141.59178255 0 250.25004216 0 24457
0.15050000 0.15050000 10332.04025360 0 335.92658437 0 3318.38682047 0 270.34741893 0 168.90720788 0 24591
0.15150000 0.15149900 10036.27631304 0 351.97370473 0 3334.06523242 0 387.21359293 0 215.95794496 0 25020
0.15250000 0.15250500 9839.10035267 0 260.60155863 0 3008.23992998 0 370.04041714 0 -14.56331811 0 25297
0.15350000 0.15350100 9587.22710770 0 179.84666480 0 2953.27690958 0 -44.52746498 0 506.75373337 0 25452
0.15450000 0.15450400 9480.52311342 0 100.87817985 0 2524.56756493 0 305.77553666 0 522.27381107 0 26061
0.15550000 0.15549900 9396.74990384 0 9.61047899 0 2711.86701156 0 236.48049901 0 612.48447030 0 26128
0.15650000 0.15649500 9492.96840651 0 -49.64210398 0 2529.67190667 0 99.93470705 0 277.26097855 0 26331
0.15750000 0.15749700 9399.91658874 0 115.99367480 0 2826.14447601 0 -130.09428046 0 338.00928867 0 27345
0.15850000 0.15849900 9337.49082141 0 307.98114376 0 2907.22711066 0 -247.37455940 0 313.14195436 0 26980
0.15950000 0.15949700 9250.73915646 0 -49.47358320 0 2855.76294490 0 103.91542927 0 867.01285876 0 27777
0.16050000 0.16050000 9335.42029667 0 -125.88126086 0 2929.90323189 0 298.02380205 0 439.34984880 0 28224
0.16150000 0.16150500 9438.47042376 0 -30.18360035 0 2867.56604316 0 162.24720450 0 320.25370859 0 28075
0.16250000 0.16249700 9385.54471112 0 251.99282608 0 3043.54957382 0 -34.92787009 0 521.21972575 0 28590
0.16350000 0.16349900 9060.54983305 0 341.52807350 0 2844.98957285 0 -139.83239013 0 623.85242619 0 29163
0.16450000 0.16449100 8898.24062353 0 280.51513482 0 2615.72601516 0 246.32268854 0 627.58379965 0 28996
0.16550000 0.16550500 8744.22458530 0 127.61740139 0 2673.45711676 0 176.38102713 0 483.87055967 0 30777
0.16650000 0.16650700 8528.33639599 0 108.54465756 0 2511.83439138 0 327.48061500 0 376.51329823 0 29211
0.16750000 0.16749900 8436.21465350 0 -3.01885829 0 2137.99948853 0 269.16378741 0 250.00866548 0 30922
0.16850000 0.16850800 8437.34403063 0 36.69767049 0 2115.56695845 0 114.02501545 0 58.89214558 0 30867
0.16950000 0.16949900 8339.76363200 0 63.16617369 0 1907.35189023 0 -174.25514076 0 -161.64708449 0 30852
0.17050000 0.17049200 8380.39906409 0 44.04781187 0 2125.46561684 0 -60.16346992 0 -117.67334648 0 31257
0.17150000 0.17149500 8322.98905990 0 121.66159787 0 2147.25595208 0 -292.81316599 0 -215.91144120 0 32608
0.17250000 0.17250900 8299.09498294 0 210.16047569 0 2464.95416810 0 -155.97251802 0 -373.93344654 0 32361
0.17350000 0.17350400 8125.40342351 0 252.93508092 0 2535.66203439 0 -178.21792582 0 76.60875108 0 32508
0.17450000 0.17449800 8064.47242004 0 152.90548405 0 2705.75508826 0 -20.23290203 0 17.17937630 0 32791
0.17550000 0.17549800 7984.88454924 0 -39.64822360 0 2640.36193788 0 172.10932421 0 -155.13987920 0 33633
0.17650000 0.17650100 8088.38864165 0 -60.45024313 0 2711.37982927 0 167.40469340 0 -149.69008092 0 33984
0.17750000 0.17750300 7957.97879993 0 116.90492713 0 2527.93355167 0 131.74959302 0 -208.69228541 0 34069
0.17850000 0.17849800 7940.40702044 0 56.79836896 0 2360.47571111 0 275.25024436 0 -84.52944936 0 34536
