### header ###
fiducial parameters:
Omega_m = 0.31
Omega_nu = 0
Omega_de = 0.69
Omega_k = 0
H_0 = 100
w_de = -1
zeff = 0
beta = 0
fgrowth = 0
b_1 = 2
gamma = 0.55
Lx = 3500 Ly = 3500 Lz = 3500
nx = 700 ny = 700 nz = 700
xoffset = -685.467585 yoffset = -31.7331281 zoffset = 572.489161
bins = 400 dk = 0.001
kx_ny = 0.628318531 ky_ny = 0.628318531 kz_ny = 0.628318531
############################
A(data) = 8.00592174 (not used)
A(ran) = 7.99819838 (used)
Ngal = 475175
weighted Ngal = 0
Nran = 23820508
weighted Nran = 0
SN(data) = 3493.88511
SN(ran) = 69.6672086
SN(data+ran) = 3563.55232
############################
13 columns: k_central k_mean P_0(k) sigma^{lin}_{P_0(k)} P^img_1(k) sigma^{lin}_{P_1(k)} P_2(k) sigma^{lin}_{P_2(k)} P^img_3(k) sigma^{lin}_{P_3(k)} P_4(k) sigma^{lin}_{P_4(k)} N_modes
### header ###
0.00050000 0 0 0 0 0 0 0 0 0 0 0 0
0.00150000 0.00179520 15527.82832567 0 -22852.61408620 0 -11800.88379171 0 -13495.72455170 0 -9099.82336918 0 3
0.00250000 0.00253879 37504.84296521 0 -38670.75876861 0 -26693.49284254 0 -25818.11484237 0 -18917.62056890 0 6
0.00350000 0.00331552 51193.77958500 0 -30868.75580840 0 -39048.76793792 0 3504.56796230 0 13610.65528332 0 7
0.00450000 0.00420575 72197.75831947 0 -19617.50222068 0 -35885.07256749 0 -41763.48053696 0 -12802.04340182 0 24
0.00550000 0.00557378 76188.66707711 0 -2773.63951172 0 -25783.79063544 0 -39513.03051757 0 -6704.54734116 0 45
0.00650000 0.00659388 79630.83141673 0 910.08420231 0 -30099.45068000 0 -18158.39125608 0 52388.15126318 0 40
0.00750000 0.00754703 67240.23560517 0 -4366.01697784 0 -26531.61545369 0 -14907.77813583 0 -2642.70927074 0 57
0.00850000 0.00846663 81410.04329183 0 -7015.15926930 0 -33490.79304870 0 14942.21306601 0 29021.44913566 0 75
0.00950000 0.00948925 92117.31356121 0 -17985.22009592 0 -24959.34532944 0 -2585.25497726 0 -26164.56788595 0 112
0.01050000 0.01054430 89462.05934645 0 2245.14637580 0 -24064.59076085 0 -17156.45658324 0 -1211.74415583 0 105
0.01150000 0.01145670 88259.38342465 0 5321.99043036 0 -14390.36839705 0 -33177.22480984 0 -10704.66827304 0 144
0.01250000 0.01249090 78956.96972826 0 10904.06977070 0 10428.41376882 0 -39751.30694766 0 6884.17366669 0 169
0.01350000 0.01339930 76282.00677533 0 14870.57512443 0 21464.80889343 0 -16902.01455891 0 -10489.11225347 0 180
0.01450000 0.01448870 71526.11109597 0 6063.84726553 0 34815.04309701 0 -29919.85757144 0 -2958.65805944 0 267
0.01550000 0.01550050 73916.62602432 0 -1968.77007600 0 44002.30461529 0 -8798.56755551 0 -4911.62792793 0 238
0.01650000 0.01653350 79401.63429298 0 -9584.32615859 0 48961.15600856 0 -3482.45652964 0 -23761.65195381 0 315
0.01750000 0.01747870 82286.19635473 0 -3832.37521088 0 39842.65362742 0 8669.57497138 0 -29317.96599430 0 297
0.01850000 0.01844180 83508.13812172 0 1368.86044500 0 27543.62594211 0 5374.07464630 0 -49981.69218710 0 388
0.01950000 0.01947590 81302.08812485 0 3711.68687036 0 16584.57100636 0 15013.74028434 0 -28608.11925018 0 399
0.02050000 0.02045430 80593.45933646 0 688.38636416 0 8632.84806995 0 4443.50110692 0 -53604.99976075 0 462
0.02150000 0.02154770 79368.86021152 0 -4973.72152551 0 -418.97898560 0 2179.56499590 0 -47859.34896586 0 571
0.02250000 0.02255340 79014.10292433 0 1680.80105212 0 -10035.99950492 0 -3941.57047824 0 -35826.05707620 0 510
0.02350000 0.02348930 75430.65572002 0 4595.02587206 0 -9766.86450555 0 -1795.41068632 0 -37032.71903494 0 555
0.02450000 0.02439640 73242.43216611 0 -546.75582847 0 -7069.94513250 0 6519.35163624 0 -5280.54671856 0 592
0.02550000 0.02547300 72000.33876796 0 -272.40687135 0 -5922.56440084 0 6166.24412545 0 -10037.12888205 0 837
0.02650000 0.02652900 70320.33492322 0 4556.43882007 0 -3053.06070084 0 4159.17487790 0 2738.06413208 0 723
0.02750000 0.02749970 66288.56928701 0 4953.54774969 0 6914.79971714 0 -648.14067791 0 14010.36620927 0 826
0.02850000 0.02848090 64404.83466561 0 5504.70593451 0 8488.85248569 0 -9672.32899625 0 23611.73267576 0 831
0.02950000 0.02946900 61980.88131631 0 4643.47836547 0 16613.24832764 0 -5889.59101753 0 19698.66236161 0 996
0.03050000 0.03053250 58037.25138566 0 3774.78804950 0 24269.87166298 0 -7238.06731255 0 22616.10922807 0 1041
0.03150000 0.03150510 57834.84928797 0 2515.10072721 0 24239.53349298 0 -2346.14812280 0 11690.82488302 0 1036
0.03250000 0.03246190 54103.58654734 0 -1767.32019825 0 27402.45380068 0 2586.14076324 0 13932.08487281 0 1059
0.03350000 0.03345080 57790.67071195 0 -203.34878146 0 25041.28053310 0 6990.71157610 0 25.66908135 0 1302
0.03450000 0.03451200 55550.62867789 0 438.89477625 0 21507.88023697 0 4528.16010248 0 700.79290412 0 1339
0.03550000 0.03553350 55375.35377601 0 2653.74837858 0 20731.37809744 0 410.70685173 0 -864.24920649 0 1365
0.03650000 0.03647120 52599.85411372 0 3345.97905392 0 20463.42783683 0 2899.52077258 0 1278.55456378 0 1308
0.03750000 0.03744890 50443.62957853 0 2309.45443835 0 20181.96933994 0 -2279.33771484 0 4080.87139678 0 1579
0.03850000 0.03847530 50388.82157068 0 1893.56684584 0 18385.81680786 0 2359.97745650 0 7401.04086155 0 1662
0.03950000 0.03950240 48888.96445075 0 865.50037919 0 19625.58501780 0 1643.56482376 0 2895.34650613 0 1683
0.04050000 0.04050350 48696.19527565 0 1466.98338755 0 16487.35599445 0 1970.71880517 0 -1757.72049264 0 1822
0.04150000 0.04152450 46018.02134852 0 1239.93429482 0 15432.71705548 0 -814.00410369 0 -8848.68089764 0 1887
0.04250000 0.04250150 44360.49432317 0 3692.91927979 0 15091.68945106 0 -1690.82150608 0 -2859.26179954 0 1920
0.04350000 0.04349210 41692.28548837 0 1778.76898212 0 12119.87746974 0 174.91172963 0 -8579.51268130 0 2005
0.04450000 0.04448520 40300.49425867 0 256.03533187 0 13242.72192960 0 156.18178496 0 -6901.13646832 0 2151
0.04550000 0.04548030 38687.81014883 0 976.35206635 0 12110.57671689 0 570.31552122 0 -11206.96428844 0 2274
0.04650000 0.04648670 39829.47756088 0 700.87594656 0 15033.33829927 0 134.26079629 0 -8150.72583037 0 2311
0.04750000 0.04749250 38434.25391049 0 926.60964710 0 15892.55070520 0 -2041.21629729 0 -4076.60855173 0 2568
0.04850000 0.04851840 38899.29155287 0 610.89448445 0 17218.24015573 0 1356.29335634 0 -1459.84173804 0 2493
0.04950000 0.04949480 39042.34598953 0 534.50762276 0 17939.38067117 0 -11.42486764 0 1652.27874339 0 2644
0.05050000 0.05050630 39309.29974090 0 369.79461153 0 18345.29209902 0 2885.68036656 0 1413.30475683 0 2829
0.05150000 0.05149060 37930.24168474 0 -85.43383685 0 20361.67317175 0 2902.03419032 0 -227.84297842 0 2784
0.05250000 0.05249300 38066.76344975 0 1462.15585393 0 19564.02289181 0 1854.73620270 0 -170.20820604 0 3055
0.05350000 0.05348950 37857.49651068 0 1541.03509593 0 17205.72842869 0 1626.31414169 0 1082.30424977 0 3009
0.05450000 0.05448610 35794.16878073 0 334.65658871 0 17964.18267876 0 -492.05300771 0 1389.73177729 0 3336
0.05550000 0.05550870 37125.83728667 0 127.18336626 0 19511.65079542 0 1011.04055277 0 4202.74447606 0 3349
0.05650000 0.05647670 35950.06711417 0 579.04604934 0 18756.73968928 0 -1777.09706107 0 2314.19339337 0 3324
0.05750000 0.05747970 36331.50870418 0 951.02633779 0 19897.74276184 0 1771.01835474 0 1447.90577188 0 3639
0.05850000 0.05849280 36061.34397860 0 200.11455538 0 19883.68090933 0 662.67974763 0 1743.58113384 0 3846
0.05950000 0.05951020 35225.05128505 0 1252.35744326 0 20181.30500045 0 445.60349786 0 -99.32982595 0 3787
0.06050000 0.06049470 34982.78881802 0 1005.26854984 0 19214.91249028 0 1945.00886694 0 1584.54933247 0 3930
0.06150000 0.06148310 33718.44004698 0 466.20466542 0 18348.06018023 0 2275.80564322 0 -77.01123009 0 4083
0.06250000 0.06249100 34041.97337818 0 -334.10186524 0 15869.52026957 0 573.34490929 0 -1503.03487716 0 4303
0.06350000 0.06350600 33643.92330095 0 25.38939443 0 15855.45841705 0 1256.16632300 0 -1782.27890908 0 4470
0.06450000 0.06451750 33418.93366063 0 206.31837897 0 12876.22797810 0 1605.02206106 0 -4139.57686297 0 4479
0.06550000 0.06550280 33138.91456597 0 -210.77609695 0 13240.28601814 0 1701.00804491 0 -4405.30158630 0 4636
0.06650000 0.06648880 32643.64947683 0 1414.56700186 0 11123.03606632 0 1909.59957217 0 -4499.29455168 0 4653
0.06750000 0.06749660 31158.18637916 0 1606.50575259 0 10122.27505991 0 2740.78792398 0 -3389.19433769 0 5220
0.06850000 0.06852730 29915.98225776 0 461.62404464 0 9318.66786922 0 1788.12509659 0 -3308.64317463 0 5029
0.06950000 0.06949320 28728.91831395 0 840.65076060 0 8575.10589602 0 1323.12067118 0 -2511.84546371 0 5040
0.07050000 0.07048030 28788.48742147 0 1112.19288338 0 10178.24566187 0 774.33860726 0 407.15927886 0 5475
0.07150000 0.07148790 27685.35169979 0 -71.05896971 0 8962.88085582 0 964.78923754 0 1568.08478547 0 5509
0.07250000 0.07249820 28062.03219012 0 53.76920234 0 10221.58274121 0 1340.59279974 0 2739.91321032 0 5916
0.07350000 0.07351270 27383.18795549 0 850.69446644 0 9488.77199541 0 837.05004057 0 4307.99799579 0 5721
0.07450000 0.07449140 27095.86112645 0 608.33234849 0 9873.39134263 0 1231.51932795 0 4937.59252963 0 6028
0.07550000 0.07549160 26798.01558883 0 -375.03846456 0 9256.65177791 0 1375.80279267 0 4777.98496737 0 6183
0.07650000 0.07648840 27096.96835893 0 240.11111432 0 9890.80810957 0 -175.25165000 0 3322.19570021 0 6330
0.07750000 0.07749960 26891.13384055 0 1028.11629211 0 10277.34296899 0 -990.38070189 0 2698.25912436 0 6583
0.07850000 0.07848650 26245.94947337 0 1004.63078393 0 10927.62060559 0 -3466.71168374 0 2892.36805075 0 6549
0.07950000 0.07947320 26259.90060264 0 266.09564620 0 12207.79172880 0 -1912.97663124 0 1315.60256263 0 6828
0.08050000 0.08048110 26018.41319834 0 451.62684256 0 13125.13384002 0 -201.10774291 0 2179.86394867 0 7147
0.08150000 0.08149960 25584.93168169 0 393.02324176 0 12727.19448604 0 -74.59757400 0 989.43623258 0 7386
0.08250000 0.08250610 25245.67564925 0 366.75747283 0 12972.66792727 0 1975.29167532 0 -1040.43868240 0 7227
0.08350000 0.08350160 24404.73257927 0 898.82475520 0 11976.82303308 0 765.92585486 0 -1858.78867358 0 7798
0.08450000 0.08449610 23825.87143776 0 841.83328489 0 10746.28914204 0 1437.75245003 0 -1430.73259609 0 7371
0.08550000 0.08548940 23178.69405211 0 60.29013732 0 9657.94604631 0 1590.56160485 0 -782.87204800 0 8256
0.08650000 0.08650700 23272.58736657 0 -285.06696755 0 8762.72644008 0 1343.79270162 0 -2615.26097751 0 8037
0.08750000 0.08749060 22695.71924352 0 553.50219599 0 7955.46538220 0 1209.25288274 0 -2027.14337245 0 8155
0.08850000 0.08849210 22224.92399223 0 760.34208146 0 7139.96651465 0 904.51593015 0 -2000.24869546 0 8718
0.08950000 0.08949900 21101.30446963 0 1136.69593821 0 6670.52208699 0 570.62333185 0 -873.33847793 0 8571
0.09050000 0.09049190 20656.52918167 0 455.16666481 0 6898.40160409 0 1248.50427423 0 -1407.55822025 0 8932
0.09150000 0.09150830 19810.16067253 0 618.63514673 0 5762.24820980 0 671.63393671 0 132.05076025 0 9285
0.09250000 0.09250820 19647.84039069 0 493.76921806 0 6020.74270501 0 741.77822167 0 388.46698010 0 9204
0.09350000 0.09350330 19637.87529835 0 46.42216120 0 5916.36389895 0 -69.91143397 0 57.44488201 0 9349
0.09450000 0.09448040 19419.19688318 0 405.97011117 0 6658.14322785 0 -537.46725518 0 660.49407071 0 9564
0.09550000 0.09549270 19036.75878395 0 618.58864297 0 6885.55770730 0 -648.15175023 0 368.88114473 0 10155
0.09650000 0.09649430 18427.11657943 0 615.53821748 0 6760.88332984 0 -646.08676166 0 487.07046154 0 9913
0.09750000 0.09749140 18184.07904966 0 439.25130511 0 7782.05063089 0 310.38937441 0 141.19871502 0 10476
0.09850000 0.09850240 17871.95021303 0 250.67743389 0 8330.75075960 0 513.00738243 0 304.82996012 0 10575
0.09950000 0.09950330 17372.36691721 0 859.07953803 0 8461.49277106 0 149.36234011 0 1047.29688039 0 10882
0.10050000 0.10051200 16599.62936811 0 933.96831417 0 8062.53476319 0 465.39527847 0 1001.45191948 0 10875
0.10150000 0.10150300 16123.18723117 0 -76.95066447 0 7633.77005692 0 328.30218150 0 1844.71574874 0 11118
0.10250000 0.10250800 16363.34595648 0 -192.25431199 0 7974.70908273 0 991.18233821 0 1477.82319354 0 11575
0.10350000 0.10349800 16490.45624540 0 -214.55618864 0 7288.80070487 0 749.14353214 0 110.14206186 0 11364
0.10450000 0.10450100 16887.50981340 0 -119.30429992 0 6727.69957236 0 688.66427951 0 954.13987553 0 12093
0.10550000 0.10551000 16320.16388969 0 93.24215104 0 5736.10645090 0 -156.13749566 0 326.72991138 0 12067
0.10650000 0.10649700 16685.77205520 0 223.80047263 0 6359.01330055 0 330.38488580 0 227.81529761 0 12054
0.10750000 0.10749900 16312.52398557 0 151.06637090 0 5728.02365378 0 317.87537322 0 265.38480295 0 12807
0.10850000 0.10850100 16279.97135060 0 -94.92603020 0 5574.07404950 0 837.58261939 0 151.86136382 0 12736
0.10950000 0.10950300 15939.05446943 0 263.96754537 0 5037.37632089 0 860.11480040 0 144.08969903 0 12933
0.11050000 0.11050200 15994.19464703 0 452.49380560 0 4972.86895650 0 304.23316181 0 256.31213999 0 13428
0.11150000 0.11150900 15349.67461934 0 263.36853260 0 4784.52871133 0 118.73296796 0 199.72591678 0 13453
0.11250000 0.11250000 15219.90697246 0 470.11983947 0 4835.84893687 0 -248.62905380 0 445.56585196 0 13668
0.11350000 0.11349100 14705.15459164 0 474.20109840 0 5123.23112754 0 -728.76381108 0 149.60925295 0 13791
0.11450000 0.11448600 14646.80343985 0 142.58497008 0 5408.46528719 0 -395.53444503 0 397.86295494 0 14205
0.11550000 0.11549300 14498.98790352 0 96.97961428 0 5494.28687686 0 141.90845104 0 760.89237600 0 14776
0.11650000 0.11649800 14643.26029591 0 82.98408499 0 5515.35751099 0 514.03821587 0 211.32417702 0 14553
0.11750000 0.11747300 14642.81740292 0 74.11360268 0 5472.85085601 0 57.04561397 0 505.85576783 0 14568
0.11850000 0.11849100 14420.70656705 0 202.99668153 0 5115.09296879 0 478.11073630 0 61.42150747 0 16015
0.11950000 0.11950300 14259.93641069 0 184.96761503 0 5247.82799872 0 204.23788914 0 461.35277268 0 15270
0.12050000 0.12050700 14062.18468943 0 139.59987131 0 4640.61063334 0 202.73869636 0 -782.91855176 0 15999
0.12150000 0.12150000 13866.97960287 0 234.99791472 0 4509.10463147 0 37.21142636 0 -353.83939146 0 15670
0.12250000 0.12250700 13660.03785201 0 270.68733931 0 4295.12088203 0 15.52893556 0 -919.03285522 0 16887
0.12350000 0.12352200 13585.41038273 0 -74.60886777 0 4141.86883421 0 259.61612172 0 -562.73097872 0 16407
0.12450000 0.12449800 13688.49372680 0 -46.37499310 0 4470.41792855 0 363.95949635 0 -650.27210044 0 16306
0.12550000 0.12549900 13638.55754186 0 315.84692331 0 4761.34326316 0 323.37942589 0 -521.74676841 0 17523
0.12650000 0.12650100 13386.10853600 0 392.06991460 0 4780.75304857 0 -206.56861351 0 -597.23566456 0 17154
0.12750000 0.12750600 13195.99671886 0 289.87124929 0 5378.52572088 0 -99.81999777 0 590.43836435 0 18007
0.12850000 0.12850300 12980.52927789 0 49.50458571 0 5144.17996609 0 146.73819912 0 509.16639295 0 17496
0.12950000 0.12949900 13019.28241476 0 177.91232965 0 5306.89885163 0 -34.52871278 0 318.97374784 0 18405
0.13050000 0.13049000 12918.74570540 0 177.91011519 0 4869.77454011 0 344.01602488 0 285.03042888 0 18100
0.13150000 0.13148800 12675.59745239 0 -59.33404207 0 4764.69817758 0 564.99637638 0 4.28734811 0 19059
0.13250000 0.13249300 12588.79042581 0 -32.64088140 0 4247.94170597 0 548.99686702 0 -75.22670350 0 18957
0.13350000 0.13349100 12766.27979265 0 4.39092971 0 4393.67564524 0 241.00354370 0 -477.12972832 0 19468
0.13450000 0.13450700 12526.67468358 0 184.23462712 0 4094.74501978 0 -32.23718443 0 -156.48627389 0 19953
0.13550000 0.13551000 12634.40840406 0 122.07238113 0 4255.09442781 0 -66.37305113 0 -11.54710611 0 19956
0.13650000 0.13649900 12414.51203316 0 263.91439821 0 4264.77163970 0 -113.21009234 0 461.78459335 0 19723
0.13750000 0.13749600 12306.77831268 0 238.99613121 0 4375.21807976 0 154.54750982 0 158.67416528 0 20946
0.13850000 0.13851100 12072.48791951 0 318.31273005 0 4297.39070861 0 96.49187837 0 312.31595893 0 20955
0.13950000 0.13949800 11785.60398346 0 269.93552845 0 4010.68392976 0 552.75924299 0 66.26321366 0 20506
0.14050000 0.14048300 11530.94051263 0 10.42812589 0 3777.55613070 0 472.55907263 0 132.49918941 0 21447
0.14150000 0.14148400 11512.78189993 0 126.52677740 0 3519.89205985 0 348.67083024 0 -198.75376666 0 21771
0.14250000 0.14249400 11467.27464493 0 92.98781974 0 3332.41545602 0 77.83379310 0 -2.78847643 0 22470
0.14350000 0.14350900 11300.74687965 0 67.49190955 0 3244.34618441 0 227.61378130 0 -2.36897926 0 22519
0.14450000 0.14449900 11295.98577998 0 42.78235587 0 3413.34307812 0 -158.82253443 0 82.68823247 0 22218
0.14550000 0.14550500 11362.86262189 0 167.78779584 0 3727.23241440 0 -51.33229437 0 160.78455039 0 23559
0.14650000 0.14650700 11137.76225832 0 264.60974021 0 3910.62333037 0 -328.69303457 0 368.45153853 0 23044
0.14750000 0.14750500 11084.50437595 0 294.00122644 0 3837.56813122 0 43.29256859 0 251.20558379 0 23649
0.14850000 0.14849900 10783.13783903 0 104.39275719 0 3979.34925052 0 121.16887942 0 940.98927534 0 23640
0.14950000 0.14949500 10807.71840013 0 134.64168426 0 3634.77850217 0 464.89370216 0 568.36125589 0 24457
0.15050000 0.15050000 10543.83168273 0 152.85455135 0 3692.35459122 0 708.63321732 0 473.31752688 0 24591
0.15150000 0.15149900 10409.19221293 0 126.42712648 0 3111.11289987 0 292.18647241 0 671.91960269 0 25020
0.15250000 0.15250500 10248.25597169 0 216.37647884 0 3272.40345550 0 434.27429511 0 628.19720645 0 25297
0.15350000 0.15350100 10147.34280330 0 144.48830272 0 2924.57744365 0 78.29373747 0 478.17495578 0 25452
0.15450000 0.15450400 9871.18794999 0 212.49673622 0 2875.77063585 0 36.73963460 0 308.48382731 0 26061
0.15550000 0.15549900 9871.79692786 0 284.24982998 0 3088.29283842 0 -332.51409386 0 355.06731228 0 26128
0.15650000 0.15649500 9528.63236476 0 175.63807413 0 2990.96710326 0 -251.08821714 0 265.02605963 0 26331
0.15750000 0.15749700 9422.03909373 0 235.53492247 0 3232.77560498 0 -72.24271196 0 159.79911348 0 27345
0.15850000 0.15849900 9390.92586099 0 7.28565616 0 2991.53179183 0 175.44320122 0 285.38031434 0 26980
0.15950000 0.15949700 9372.14719809 0 9.38798062 0 2962.82125357 0 371.34805870 0 193.05041214 0 27777
0.16050000 0.16050000 9247.28459111 0 149.24386623 0 2910.26092766 0 290.80353904 0 287.52391643 0 28224
0.16150000 0.16150500 9204.86651473 0 86.64935667 0 2540.83281008 0 512.61320766 0 257.29646967 0 28075
0.16250000 0.16249700 8972.19268099 0 85.43295107 0 2801.74107211 0 251.38052652 0 871.49604308 0 28590
0.16350000 0.16349900 9062.46534524 0 133.94412780 0 2565.19192468 0 10.20673475 0 616.79160465 0 29163
0.16450000 0.16449100 8930.97041569 0 62.13290434 0 2940.37765116 0 -82.57706633 0 987.08557803 0 28996
0.16550000 0.16550500 8911.51634099 0 161.02260537 0 2810.35534082 0 -326.39663440 0 900.67715514 0 30777
0.16650000 0.16650700 8732.46577635 0 183.13403804 0 3193.13668212 0 8.72034158 0 977.54344850 0 29211
0.16750000 0.16749900 8721.36023455 0 132.79482048 0 3024.21729469 0 45.27661848 0 818.40203111 0 30922
0.16850000 0.16850800 8595.37932277 0 121.10023101 0 3026.54248290 0 252.74352971 0 760.10181201 0 30867
0.16950000 0.16949900 8369.06100347 0 102.67532889 0 2813.16771132 0 245.01504698 0 733.12298536 0 30852
0.17050000 0.17049200 8378.81572164 0 82.02555383 0 2513.31808291 0 504.55144796 0 677.71817920 0 31257
0.17150000 0.17149500 8369.34888392 0 -37.56297267 0 2421.04132787 0 274.90035890 0 645.80663184 0 32608
0.17250000 0.17250900 8334.18318029 0 60.81319394 0 2148.01994249 0 220.05359791 0 176.60025916 0 32361
0.17350000 0.17350400 8279.62983591 0 71.04413280 0 2049.29909441 0 0.76601665 0 327.94565264 0 32508
0.17450000 0.17449800 8178.56165497 0 111.63339329 0 2210.37927587 0 -210.24683982 0 469.55293644 0 32791
0.17550000 0.17549800 8137.17330480 0 134.70036758 0 2083.98868807 0 111.57138827 0 464.49066954 0 33633
0.17650000 0.17650100 8107.36660638 0 147.83989544 0 2081.38669173 0 -36.85777630 0 375.04289349 0 33984
0.17750000 0.17750300 7984.68524739 0 96.78684511 0 2075.16404519 0 44.38817514 0 501.95609503 0 34069
0.17850000 0.17849800 7932.50138052 0 82.48594109 0 2304.50510915 0 -95.92353594 0 359.26925955 0 34536
