### header ###
fiducial parameters:
Omega_m = 0.31
Omega_nu = 0
Omega_de = 0.69
Omega_k = 0
H_0 = 100
w_de = -1
zeff = 0
beta = 0
fgrowth = 0
b_1 = 2
gamma = 0.55
Lx = 3500 Ly = 3500 Lz = 3500
nx = 700 ny = 700 nz = 700
xoffset = -685.467585 yoffset = -31.7331281 zoffset = 572.489161
bins = 400 dk = 0.001
kx_ny = 0.628318531 ky_ny = 0.628318531 kz_ny = 0.628318531
############################
A(data) = 8.03358966 (not used)
A(ran) = 8.03961837 (used)
Ngal = 477842
weighted Ngal = 0
Nran = 23820508
weighted Nran = 0
SN(data) = 3474.38604
SN(ran) = 70.0279917
SN(data+ran) = 3544.41404
############################
13 columns: k_central k_mean P_0(k) sigma^{lin}_{P_0(k)} P^img_1(k) sigma^{lin}_{P_1(k)} P_2(k) sigma^{lin}_{P_2(k)} P^img_3(k) sigma^{lin}_{P_3(k)} P_4(k) sigma^{lin}_{P_4(k)} N_modes
### header ###
0.00050000 0 0 0 0 0 0 0 0 0 0 0 0
0.00150000 0.00179520 33653.22405379 0 -22353.80585312 0 26785.61458503 0 43914.27963298 0 2165.59172198 0 3
0.00250000 0.00253879 47420.44201005 0 -4542.98594542 0 47471.15325772 0 -43101.68171454 0 22520.44434164 0 6
0.00350000 0.00331552 44678.82366171 0 16920.28389486 0 26054.06608426 0 -5933.80281054 0 12655.00292822 0 7
0.00450000 0.00420575 36892.21123299 0 14383.83572541 0 29550.15264575 0 -2057.57012105 0 35968.00428038 0 24
0.00550000 0.00557378 55977.13462990 0 -29465.78153063 0 32268.62983522 0 7250.92228166 0 -19463.81835220 0 45
0.00650000 0.00659388 81217.49556324 0 -50531.87600734 0 13414.67513403 0 55042.63041521 0 -29819.76375508 0 40
0.00750000 0.00754703 98135.89716288 0 -18942.20113000 0 4708.80508190 0 1911.65902459 0 -52765.60681625 0 57
0.00850000 0.00846663 110920.33556824 0 1919.94112355 0 -28405.38498275 0 -20891.15174457 0 -71390.47511694 0 75
0.00950000 0.00948925 100837.98731162 0 8579.80056175 0 -9190.70501129 0 -37200.13258620 0 -58734.91857248 0 112
0.01050000 0.01054430 91038.20478438 0 25068.85062190 0 -30195.89062917 0 -59560.69255746 0 -39920.04917790 0 105
0.01150000 0.01145670 78116.13738154 0 14999.45698532 0 7725.13888132 0 -42332.70875588 0 -26104.99877843 0 144
0.01250000 0.01249090 67393.36585741 0 11626.49467582 0 12015.35472345 0 -30164.66667318 0 -3884.76945192 0 169
0.01350000 0.01339930 66322.22915446 0 3903.10522182 0 31772.58968335 0 15475.23478278 0 -7569.74987482 0 180
0.01450000 0.01448870 76165.52591823 0 -8043.78931728 0 29684.68139229 0 13192.67502142 0 1271.00323826 0 267
0.01550000 0.01550050 78149.02218625 0 -2230.40911147 0 45025.60887503 0 20789.50780274 0 -19322.75693401 0 238
0.01650000 0.01653350 82969.02662630 0 5236.27956393 0 35667.50138480 0 2213.61239472 0 -10342.20464778 0 315
0.01750000 0.01747870 69372.54391875 0 8095.53029115 0 39711.00368532 0 6847.69035642 0 8383.54360434 0 297
0.01850000 0.01844180 66886.80699696 0 10115.59844804 0 35176.88667209 0 -4150.21736712 0 -6946.69908494 0 388
0.01950000 0.01947590 62370.95931968 0 2164.49556182 0 33506.95864294 0 1005.51324822 0 -13362.08159114 0 399
0.02050000 0.02045430 58632.83173765 0 -1380.69676024 0 27551.70873923 0 -3042.92952363 0 -21348.21731309 0 462
0.02150000 0.02154770 58172.55519494 0 -410.41564959 0 20957.25352374 0 7342.68970976 0 -12994.14823742 0 571
0.02250000 0.02255340 62683.64177255 0 -2255.14468511 0 18802.02549779 0 3187.88840016 0 -12032.51682692 0 510
0.02350000 0.02348930 65323.50545582 0 -4391.81549467 0 12942.44048052 0 15935.28987900 0 -11764.01295007 0 555
0.02450000 0.02439640 63014.92573113 0 -2063.96992479 0 15878.59957592 0 10458.55263697 0 -9082.60590409 0 592
0.02550000 0.02547300 67814.44637027 0 2285.08425142 0 14191.73088980 0 135.32816840 0 -14693.41792734 0 837
0.02650000 0.02652900 62742.65726384 0 4264.43946995 0 24723.06191781 0 -9804.95330293 0 -4392.07015814 0 723
0.02750000 0.02749970 62592.29509280 0 5953.83264613 0 20785.74321230 0 -586.07697560 0 801.40711975 0 826
0.02850000 0.02848090 59010.06584422 0 594.91933420 0 22447.92061408 0 2820.18756526 0 2514.22601354 0 831
0.02950000 0.02946900 63384.29848708 0 -3309.68397317 0 20348.27565872 0 6610.53223113 0 -7098.65567076 0 996
0.03050000 0.03053250 62207.31035886 0 1499.72425204 0 21648.38803892 0 3414.85998662 0 -5074.39110276 0 1041
0.03150000 0.03150510 60856.48673098 0 5089.83699588 0 18772.13022078 0 -4498.35340407 0 -3022.21320390 0 1036
0.03250000 0.03246190 56927.02937609 0 3595.01778374 0 22799.79909681 0 3289.44376340 0 4462.42371003 0 1059
0.03350000 0.03345080 51961.53458792 0 5051.88106641 0 24919.81712984 0 4440.54479619 0 10387.75619208 0 1302
0.03450000 0.03451200 51561.15932248 0 1538.58811215 0 23962.17175627 0 1785.78883605 0 4853.35428241 0 1339
0.03550000 0.03553350 49385.11532587 0 556.14183822 0 28263.99139481 0 4440.23477110 0 5510.23102460 0 1365
0.03650000 0.03647120 51816.26568630 0 241.91036710 0 28560.61897671 0 -309.52241138 0 5386.61959032 0 1308
0.03750000 0.03744890 50114.44936168 0 64.66946323 0 30122.59183887 0 -4754.83273617 0 8851.53755745 0 1579
0.03850000 0.03847530 49464.50389482 0 2218.93818296 0 29021.33841241 0 434.47248972 0 5989.87306342 0 1662
0.03950000 0.03950240 48892.72904119 0 1217.57927101 0 30794.68195536 0 -1586.47591699 0 6016.40235368 0 1683
0.04050000 0.04050350 48893.94699692 0 2266.77062617 0 30443.24636562 0 5382.75534896 0 2674.35397507 0 1822
0.04150000 0.04152450 45224.57855202 0 1330.97094948 0 28888.02762159 0 4717.02074691 0 3390.66695689 0 1887
0.04250000 0.04250150 45159.14111234 0 2801.48640864 0 26071.00674123 0 5678.45285557 0 6144.44271789 0 1920
0.04350000 0.04349210 43662.27352011 0 -222.81614295 0 23124.10749075 0 4110.82203542 0 6909.01996359 0 2005
0.04450000 0.04448520 43878.07313082 0 -796.34374561 0 23872.48592524 0 4279.43139776 0 7133.77708508 0 2151
0.04550000 0.04548030 43213.73364170 0 -280.82626714 0 22260.79832464 0 4017.38268627 0 4380.55494033 0 2274
0.04650000 0.04648670 43527.19115732 0 -5.61774330 0 21644.62344848 0 701.94996206 0 5045.10480362 0 2311
0.04750000 0.04749250 43379.15417449 0 1109.87876750 0 22040.56978400 0 -1085.58497961 0 7420.39528534 0 2568
0.04850000 0.04851840 44018.80237927 0 626.44556466 0 23091.99774878 0 1178.33895185 0 6437.29463701 0 2493
0.04950000 0.04949480 41737.12840389 0 1793.94913944 0 22798.58114108 0 -1065.42781228 0 6761.14906563 0 2644
0.05050000 0.05050630 40550.61807632 0 3171.36849153 0 20539.16253859 0 2315.90960372 0 2992.66116896 0 2829
0.05150000 0.05149060 38303.60047763 0 2447.00592957 0 19655.25884832 0 2766.15462014 0 4754.35662620 0 2784
0.05250000 0.05249300 35912.86410278 0 956.69536810 0 17192.33091566 0 5701.00718122 0 1340.18312372 0 3055
0.05350000 0.05348950 34342.25482726 0 -240.91496510 0 12779.01296619 0 4558.27682599 0 911.12167914 0 3009
0.05450000 0.05448610 35350.27927875 0 -133.19453141 0 11740.31817496 0 2330.87938687 0 -4808.99854918 0 3336
0.05550000 0.05550870 34154.46819833 0 706.90704188 0 10125.44174481 0 -2053.17440810 0 -2033.14457250 0 3349
0.05650000 0.05647670 34483.31624545 0 1565.01775149 0 13408.47463213 0 -421.51344075 0 -2123.37294745 0 3324
0.05750000 0.05747970 32834.09346371 0 237.79810567 0 12924.61403756 0 -3197.49917810 0 1614.71034528 0 3639
0.05850000 0.05849280 33157.29462517 0 24.81119762 0 14083.44355308 0 3326.41425597 0 387.61662555 0 3846
0.05950000 0.05951020 34432.05138154 0 -284.17010924 0 16754.97408532 0 1351.62083526 0 1213.85896987 0 3787
0.06050000 0.06049470 33338.65930570 0 225.62408453 0 13536.80287678 0 2362.00369194 0 175.33690690 0 3930
0.06150000 0.06148310 33029.07710377 0 699.68456440 0 14000.51184019 0 253.87290684 0 -1141.82242460 0 4083
0.06250000 0.06249100 32923.22567850 0 565.76922465 0 11873.62896577 0 220.19089474 0 834.54548070 0 4303
0.06350000 0.06350600 32105.64521389 0 1650.38537584 0 11718.50569506 0 997.22118416 0 -295.88352166 0 4470
0.06450000 0.06451750 29955.06756437 0 1426.80192078 0 10168.57952230 0 2349.30373537 0 -419.54145970 0 4479
0.06550000 0.06550280 29960.05011053 0 767.56788064 0 10055.66395380 0 1627.63174834 0 979.44013774 0 4636
0.06650000 0.06648880 28942.28201320 0 247.74548228 0 10098.34776597 0 1950.65575260 0 2585.45427910 0 4653
0.06750000 0.06749660 28203.64722455 0 559.93300224 0 9460.53756712 0 391.70120618 0 2125.64277403 0 5220
0.06850000 0.06852730 28451.44585399 0 254.84505696 0 11775.30672138 0 7.28881178 0 3838.22139838 0 5029
0.06950000 0.06949320 28145.40679601 0 236.81820492 0 11347.36136714 0 247.41995593 0 4909.90064526 0 5040
0.07050000 0.07048030 27997.14836668 0 508.14995353 0 12226.39323449 0 1808.36530636 0 5116.21127360 0 5475
0.07150000 0.07148790 27726.65147136 0 222.61684111 0 11990.88488560 0 559.05718135 0 4346.31931199 0 5509
0.07250000 0.07249820 27147.12599036 0 83.75139710 0 9681.93977419 0 613.93937378 0 1797.99053800 0 5916
0.07350000 0.07351270 27375.32660487 0 600.11557624 0 10731.69581793 0 542.37893847 0 3274.69542674 0 5721
0.07450000 0.07449140 26659.39008210 0 385.62471432 0 10023.39919928 0 1254.89300565 0 2335.87300537 0 6028
0.07550000 0.07549160 26481.56854551 0 225.61633390 0 9630.08807707 0 742.40491525 0 3496.07548916 0 6183
0.07650000 0.07648840 26612.33270162 0 29.80271237 0 9653.02993409 0 114.69489110 0 4184.08760874 0 6330
0.07750000 0.07749960 26476.91816908 0 788.81124303 0 11084.17220620 0 -356.36388152 0 3415.17001171 0 6583
0.07850000 0.07848650 25864.06499037 0 1108.04076158 0 11987.89535790 0 89.69324949 0 5465.29953048 0 6549
0.07950000 0.07947320 24757.82901774 0 1011.42586967 0 11457.30955259 0 266.85410045 0 5336.50624819 0 6828
0.08050000 0.08048110 24228.90406115 0 617.39836805 0 11124.80763829 0 1231.74077445 0 5257.77094641 0 7147
0.08150000 0.08149960 23984.42712916 0 -94.49277013 0 10274.02127155 0 1594.32619529 0 3561.55721814 0 7386
0.08250000 0.08250610 23620.47981237 0 74.83241801 0 8858.67920695 0 1470.15007245 0 2559.03571209 0 7227
0.08350000 0.08350160 23588.48079364 0 74.95753528 0 7787.29891285 0 2.03347674 0 2044.33869289 0 7798
0.08450000 0.08449610 22943.96076595 0 699.32803555 0 7196.57931145 0 464.00238001 0 251.02289043 0 7371
0.08550000 0.08548940 22659.29129486 0 406.17162748 0 7079.07980048 0 93.55151179 0 1291.36524360 0 8256
0.08650000 0.08650700 22178.64167449 0 22.97684557 0 6588.54259404 0 396.15449522 0 -653.61483530 0 8037
0.08750000 0.08749060 22250.83323230 0 256.93219018 0 7872.82154975 0 138.45942186 0 442.97271348 0 8155
0.08850000 0.08849210 22038.13387254 0 460.75597438 0 6949.33429825 0 -186.61849866 0 -796.78220967 0 8718
0.08950000 0.08949900 21459.93707051 0 659.88398561 0 7297.02744221 0 157.80055885 0 -621.61803104 0 8571
0.09050000 0.09049190 21024.68398189 0 556.90250694 0 7759.13091851 0 -445.84598177 0 10.46794197 0 8932
0.09150000 0.09150830 20377.28514974 0 575.74871101 0 7444.79868924 0 28.77132532 0 147.34606976 0 9285
0.09250000 0.09250820 20618.99400053 0 456.49091486 0 7675.87810820 0 3.83446788 0 689.50909790 0 9204
0.09350000 0.09350330 19875.93028195 0 427.41609711 0 7736.93090725 0 -47.71729104 0 -159.82900876 0 9349
0.09450000 0.09448040 19543.64981414 0 758.48193089 0 7957.62448554 0 242.34550947 0 -523.80843529 0 9564
0.09550000 0.09549270 19077.17276953 0 657.41928611 0 8198.09323595 0 -148.27725227 0 -141.21864520 0 10155
0.09650000 0.09649430 18488.34653568 0 579.08258802 0 8055.38204136 0 276.88230504 0 -62.87984337 0 9913
0.09750000 0.09749140 18174.77829682 0 190.44398688 0 7632.13135284 0 567.19091116 0 -91.21956946 0 10476
0.09850000 0.09850240 18281.51550807 0 -161.74009202 0 7791.12993724 0 1129.28855290 0 -31.31995304 0 10575
0.09950000 0.09950330 18096.05406735 0 151.91008205 0 7087.88229871 0 1060.10202404 0 -457.15414711 0 10882
0.10050000 0.10051200 17694.12867644 0 651.38819078 0 6497.50593938 0 871.41410788 0 780.58672016 0 10875
0.10150000 0.10150300 17451.53403966 0 88.11787911 0 5926.91582450 0 828.31397629 0 1172.72528317 0 11118
0.10250000 0.10250800 16930.80260344 0 218.01739738 0 6353.55464441 0 1066.55718941 0 1225.97209322 0 11575
0.10350000 0.10349800 17250.34989771 0 159.31636012 0 6132.37388383 0 206.66826444 0 1250.90696871 0 11364
0.10450000 0.10450100 17115.37825817 0 383.92621969 0 6547.68571546 0 272.46223297 0 2511.57972791 0 12093
0.10550000 0.10551000 16568.40541213 0 364.31602521 0 6078.97206123 0 -320.61023745 0 2218.19633719 0 12067
0.10650000 0.10649700 16596.75056366 0 160.24643540 0 6818.34869565 0 188.86618059 0 2750.23261705 0 12054
0.10750000 0.10749900 16371.31803035 0 255.62233416 0 6873.25635442 0 -35.11510310 0 1557.37784737 0 12807
0.10850000 0.10850100 16049.99916412 0 621.18067421 0 7607.10789875 0 -245.68602987 0 1302.92475071 0 12736
0.10950000 0.10950300 15489.40735855 0 639.98591068 0 6757.22946265 0 136.53062287 0 1908.40376109 0 12933
0.11050000 0.11050200 15131.21765067 0 286.64698830 0 7311.51004307 0 297.99169231 0 2733.82343167 0 13428
0.11150000 0.11150900 14959.81806247 0 -137.54263336 0 6097.21925253 0 751.15980249 0 1944.93136067 0 13453
0.11250000 0.11250000 15343.03122445 0 -392.42976515 0 6790.55716035 0 945.06721257 0 1416.78146682 0 13668
0.11350000 0.11349100 15112.50542172 0 107.46067696 0 5359.42596057 0 658.67599497 0 940.41794338 0 13791
0.11450000 0.11448600 15210.05260337 0 128.31163616 0 5273.51579230 0 1031.88974040 0 1757.62084171 0 14205
0.11550000 0.11549300 14897.48087374 0 -202.77080610 0 4057.90739511 0 595.44084070 0 1269.66348695 0 14776
0.11650000 0.11649800 15135.42513410 0 144.17827763 0 4202.65589746 0 562.85831046 0 884.52484769 0 14553
0.11750000 0.11747300 14794.72969943 0 235.93131170 0 3724.27610368 0 -153.96178384 0 504.04212102 0 14568
0.11850000 0.11849100 14567.41487090 0 360.15393831 0 3748.93417105 0 23.24767464 0 1139.60795963 0 16015
0.11950000 0.11950300 14314.74441854 0 165.11382939 0 3419.92003906 0 290.08162346 0 1262.83186254 0 15270
0.12050000 0.12050700 14358.36937832 0 -24.19446913 0 3877.38421127 0 375.84452981 0 1301.46320383 0 15999
0.12150000 0.12150000 14044.91186271 0 230.10173268 0 3780.41279051 0 107.40321159 0 1409.92769776 0 15670
0.12250000 0.12250700 14071.81761202 0 456.01923382 0 4071.84745206 0 238.98727335 0 1619.99184422 0 16887
0.12350000 0.12352200 13635.23584442 0 506.97075094 0 4150.39452432 0 -290.77807269 0 2299.65543088 0 16407
0.12450000 0.12449800 13175.07002496 0 328.62438615 0 4457.65153804 0 -245.28742617 0 2051.43605310 0 16306
0.12550000 0.12549900 13248.59026175 0 135.52304132 0 4641.61821490 0 22.06636830 0 1904.83847250 0 17523
0.12650000 0.12650100 13199.53986280 0 -185.34961023 0 4392.13659209 0 254.17961023 0 1220.24770129 0 17154
0.12750000 0.12750600 13204.30096248 0 -14.16139272 0 4251.16375250 0 209.57696417 0 901.53747478 0 18007
0.12850000 0.12850300 13181.49197335 0 203.25355946 0 4276.06541101 0 -272.89737534 0 195.32023873 0 17496
0.12950000 0.12949900 12780.67381492 0 490.05998924 0 4199.98746718 0 -511.89129209 0 250.26222171 0 18405
0.13050000 0.13049000 12684.23386574 0 539.97735122 0 4502.20657311 0 -435.22097888 0 -37.58711034 0 18100
0.13150000 0.13148800 12220.30345584 0 128.61612509 0 4036.11705987 0 -181.08455071 0 -752.88929962 0 19059
0.13250000 0.13249300 12196.83012723 0 61.25985152 0 4430.66828246 0 28.63447138 0 -573.40691431 0 18957
0.13350000 0.13349100 12308.10699166 0 -50.56830396 0 4234.10129995 0 120.84667477 0 -1345.27639314 0 19468
0.13450000 0.13450700 12309.98928687 0 108.52782762 0 4419.69560856 0 153.61964900 0 -1054.19604598 0 19953
0.13550000 0.13551000 12162.72736679 0 204.54459254 0 4343.50694148 0 187.46331704 0 -1157.08008820 0 19956
0.13650000 0.13649900 12029.08440623 0 134.20100573 0 4200.59644505 0 519.41050787 0 -940.20424751 0 19723
0.13750000 0.13749600 11898.65241986 0 70.54155997 0 3941.27152547 0 398.93364875 0 -851.05320977 0 20946
0.13850000 0.13851100 11843.84441201 0 172.08607233 0 3846.20454458 0 222.42639712 0 -959.67271624 0 20955
0.13950000 0.13949800 11556.40685972 0 124.19383856 0 3640.03785645 0 347.74407665 0 -655.42405317 0 20506
0.14050000 0.14048300 11489.75146431 0 285.72909257 0 3580.00371129 0 379.62905043 0 -884.33329648 0 21447
0.14150000 0.14148400 11216.37576454 0 200.71135369 0 3398.68332006 0 314.35769562 0 -268.32229073 0 21771
0.14250000 0.14249400 11057.14466132 0 -27.00517879 0 3271.87198391 0 689.57774631 0 -97.93482374 0 22470
0.14350000 0.14350900 11066.33469092 0 218.84007111 0 3101.16995218 0 353.36992489 0 406.59016136 0 22519
0.14450000 0.14449900 10959.45353945 0 -2.27142100 0 3083.28814760 0 496.78199764 0 539.91866790 0 22218
0.14550000 0.14550500 10989.66991388 0 32.65228589 0 3081.32834611 0 83.89489443 0 842.83090136 0 23559
0.14650000 0.14650700 11003.18922248 0 199.25977190 0 3211.29529483 0 -152.46369829 0 997.04734866 0 23044
0.14750000 0.14750500 10700.29470474 0 300.43646163 0 3306.07439527 0 -368.65084037 0 855.34041394 0 23649
0.14850000 0.14849900 10632.11132851 0 186.99163600 0 3157.51701318 0 -379.47957404 0 657.46357541 0 23640
0.14950000 0.14949500 10211.51799795 0 278.68930845 0 3320.57914079 0 -154.36924539 0 780.73287484 0 24457
0.15050000 0.15050000 10062.52879519 0 373.04655332 0 3224.43814439 0 -107.03516751 0 -139.66076910 0 24591
0.15150000 0.15149900 9838.97855710 0 196.27356590 0 2997.09009889 0 234.23392431 0 -305.33375090 0 25020
0.15250000 0.15250500 9570.55218652 0 163.36329484 0 3010.48761192 0 -4.89287141 0 -591.35293838 0 25297
0.15350000 0.15350100 9553.64474652 0 277.35509331 0 2919.79419933 0 -85.05726709 0 -487.26090553 0 25452
0.15450000 0.15450400 9454.90175379 0 -35.12362879 0 3013.54357357 0 90.70647793 0 -339.71774839 0 26061
0.15550000 0.15549900 9368.49333090 0 -62.35645457 0 2907.96895642 0 411.54170502 0 12.35106761 0 26128
0.15650000 0.15649500 9654.60220422 0 -102.68053288 0 3142.00468611 0 230.47154833 0 -50.06794560 0 26331
0.15750000 0.15749700 9541.03336855 0 68.96641104 0 3244.83336670 0 295.08299258 0 162.27931424 0 27345
0.15850000 0.15849900 9546.45880771 0 199.42474954 0 3095.75558534 0 102.05084977 0 80.28232701 0 26980
0.15950000 0.15949700 9275.16470501 0 177.81267873 0 2753.27750638 0 151.26567274 0 656.38623820 0 27777
0.16050000 0.16050000 9204.89973171 0 152.39062094 0 2856.81481576 0 205.58871277 0 209.16396645 0 28224
0.16150000 0.16150500 8997.05005021 0 150.00453495 0 2254.39176703 0 237.10940706 0 607.36794900 0 28075
0.16250000 0.16249700 9056.23162637 0 4.17854037 0 2220.98656305 0 377.89733883 0 384.06905268 0 28590
0.16350000 0.16349900 8838.51650346 0 -2.27598280 0 1810.76800084 0 367.06417623 0 304.25309199 0 29163
0.16450000 0.16449100 8811.54432020 0 204.46155010 0 1851.56951780 0 286.18305789 0 -258.88313382 0 28996
0.16550000 0.16550500 8592.52266296 0 235.30018919 0 1853.42966837 0 -102.17984236 0 23.89020164 0 30777
0.16650000 0.16650700 8506.61249470 0 219.58745304 0 1984.27133075 0 -380.75953479 0 289.06296958 0 29211
0.16750000 0.16749900 8433.28048742 0 159.23663938 0 2226.56701476 0 -224.62314636 0 572.51559217 0 30922
0.16850000 0.16850800 8356.53820410 0 35.18175850 0 2473.66808773 0 5.08070233 0 810.72558831 0 30867
0.16950000 0.16949900 8428.33115823 0 -18.15518028 0 2743.54493286 0 242.32890098 0 584.52795736 0 30852
0.17050000 0.17049200 8353.03934946 0 -12.09441112 0 2534.31121077 0 358.71453608 0 739.08764674 0 31257
0.17150000 0.17149500 8319.84451965 0 179.34841018 0 2639.05540355 0 179.92306384 0 511.24688278 0 32608
0.17250000 0.17250900 8235.87200823 0 197.16931698 0 2657.33581183 0 -47.57534383 0 788.86771189 0 32361
0.17350000 0.17350400 8018.37833182 0 196.83271830 0 2599.99224159 0 -51.57798926 0 1050.56321621 0 32508
0.17450000 0.17449800 8004.60435974 0 146.21890709 0 2527.56816495 0 -37.12882681 0 894.85864845 0 32791
0.17550000 0.17549800 7872.32329513 0 86.16383523 0 2598.37568217 0 -178.01751674 0 739.37663441 0 33633
0.17650000 0.17650100 7891.52270637 0 56.72529162 0 2608.17468963 0 -70.26397679 0 510.44524646 0 33984
0.17750000 0.17750300 7805.35787463 0 3.41152722 0 2421.80531828 0 51.52971392 0 480.48464274 0 34069
0.17850000 0.17849800 7868.22653495 0 0.07846082 0 2382.70893935 0 97.08502281 0 287.52059473 0 34536
