### header ###
fiducial parameters:
Omega_m = 0.31
Omega_nu = 0
Omega_de = 0.69
Omega_k = 0
H_0 = 100
w_de = -1
zeff = 0
beta = 0
fgrowth = 0
b_1 = 2
gamma = 0.55
Lx = 3500 Ly = 3500 Lz = 3500
nx = 700 ny = 700 nz = 700
xoffset = -685.467585 yoffset = -31.7331281 zoffset = 572.489161
bins = 400 dk = 0.001
kx_ny = 0.628318531 ky_ny = 0.628318531 kz_ny = 0.628318531
############################
A(data) = 8.03181366 (not used)
A(ran) = 8.03065394 (used)
Ngal = 477795
weighted Ngal = 0
Nran = 23820508
weighted Nran = 0
SN(data) = 3486.41938
SN(ran) = 69.9499083
SN(data+ran) = 3556.36929
############################
13 columns: k_central k_mean P_0(k) sigma^{lin}_{P_0(k)} P^img_1(k) sigma^{lin}_{P_1(k)} P_2(k) sigma^{lin}_{P_2(k)} P^img_3(k) sigma^{lin}_{P_3(k)} P_4(k) sigma^{lin}_{P_4(k)} N_modes
### header ###
0.00050000 0 0 0 0 0 0 0 0 0 0 0 0
0.00150000 0.00179520 57923.98150276 0 -31171.58389219 0 39049.76444715 0 -35008.03371860 0 -194308.22824242 0 3
0.00250000 0.00253879 88849.64906073 0 -4055.74829177 0 23396.26523479 0 12559.67021154 0 170018.86928776 0 6
0.00350000 0.00331552 79546.46030161 0 9979.80745647 0 10416.35600709 0 8954.62090151 0 61837.05181692 0 7
0.00450000 0.00420575 60424.55533981 0 12720.66181440 0 -1815.21907542 0 14471.08564498 0 50443.07596229 0 24
0.00550000 0.00557378 83623.95463932 0 -26028.04612094 0 -3615.40193373 0 51558.94485752 0 -18521.00989389 0 45
0.00650000 0.00659388 89320.88720501 0 -9629.39052061 0 41325.57009038 0 -10613.84199256 0 31920.73738942 0 40
0.00750000 0.00754703 85874.07248897 0 25692.11178594 0 5911.06025536 0 9393.71608684 0 39824.71646121 0 57
0.00850000 0.00846663 73385.48660277 0 19056.02462913 0 51635.01172902 0 14806.24491724 0 45356.89283360 0 75
0.00950000 0.00948925 55151.58209142 0 6415.09462575 0 28779.62956162 0 40032.76544455 0 49472.25452219 0 112
0.01050000 0.01054430 63885.98552461 0 -13944.48587660 0 45983.47569509 0 43568.82309864 0 32181.60136215 0 105
0.01150000 0.01145670 76947.34277368 0 -17069.42811017 0 28918.36579160 0 29851.76277381 0 24127.92445881 0 144
0.01250000 0.01249090 80596.89175715 0 -585.65512003 0 29770.60263289 0 6864.24348202 0 13907.83648145 0 169
0.01350000 0.01339930 74012.95525024 0 10689.35524782 0 3383.19313764 0 1330.70521368 0 19688.36509952 0 180
0.01450000 0.01448870 74376.90256703 0 -151.02983222 0 1389.65427101 0 -2095.41532728 0 10728.32983118 0 267
0.01550000 0.01550050 73896.36366990 0 -1625.37299408 0 -1235.95933021 0 -11515.66070438 0 -14759.85187625 0 238
0.01650000 0.01653350 78602.65533407 0 -1093.99773201 0 -8291.13398140 0 -5619.37093034 0 -28182.94197714 0 315
0.01750000 0.01747870 76009.95975453 0 -3385.42974725 0 -1784.02833640 0 -11223.24060592 0 -21187.11498698 0 297
0.01850000 0.01844180 76264.62322536 0 4176.10446255 0 -6637.60406531 0 -19353.20582726 0 -33428.78802972 0 388
0.01950000 0.01947590 73669.82390411 0 2298.30460726 0 3525.52787318 0 -4022.48702802 0 -29467.33165610 0 399
0.02050000 0.02045430 74497.81235405 0 4035.55237130 0 14988.16321401 0 -16628.52813589 0 -16703.93066791 0 462
0.02150000 0.02154770 72433.82028461 0 3775.83992036 0 17330.73497589 0 -4290.13833586 0 -9122.45520111 0 571
0.02250000 0.02255340 73514.47918691 0 -3179.53986725 0 37523.66591740 0 -702.60655092 0 -8123.05609065 0 510
0.02350000 0.02348930 72736.09475216 0 449.57403354 0 26836.43655595 0 8537.70358279 0 -2380.81557180 0 555
0.02450000 0.02439640 77565.28922181 0 -793.90783415 0 34326.53212602 0 2157.70822671 0 -7788.26220511 0 592
0.02550000 0.02547300 74476.99638339 0 5222.77132766 0 31224.39888158 0 -1377.96189601 0 1198.87811439 0 837
0.02650000 0.02652900 74469.46720251 0 4769.78037468 0 33838.13187827 0 -2053.98268781 0 198.50242488 0 723
0.02750000 0.02749970 65900.59502536 0 1976.62035430 0 28702.45545763 0 -3061.30958283 0 -2615.34955611 0 826
0.02850000 0.02848090 66955.45541084 0 4823.66937957 0 36175.61037073 0 4513.44498280 0 -5971.17190680 0 831
0.02950000 0.02946900 59488.05810664 0 3720.73295973 0 34980.79579955 0 9574.46071718 0 -6514.46874100 0 996
0.03050000 0.03053250 56218.62203419 0 5659.92885615 0 29499.55212133 0 5379.42257919 0 -9541.62020177 0 1041
0.03150000 0.03150510 54595.75138553 0 2661.84224803 0 28556.19004678 0 3098.72296840 0 -6734.76371559 0 1036
0.03250000 0.03246190 50717.89106429 0 -889.22837128 0 27159.96988715 0 -92.79338971 0 -2834.74767239 0 1059
0.03350000 0.03345080 51906.06224058 0 255.19051349 0 30114.39831851 0 3683.76246716 0 -3275.12724741 0 1302
0.03450000 0.03451200 58375.51090887 0 -7948.11335852 0 27941.45457285 0 4836.17003429 0 -10771.67798285 0 1339
0.03550000 0.03553350 57360.62161599 0 1797.78016383 0 26518.32866391 0 3482.06899827 0 -9224.25415549 0 1365
0.03650000 0.03647120 58794.93057300 0 4240.21322325 0 25340.45474970 0 839.50366775 0 -9568.53702340 0 1308
0.03750000 0.03744890 51591.27604599 0 5911.29277418 0 22837.00210820 0 -314.57471319 0 576.39865648 0 1579
0.03850000 0.03847530 50920.18243873 0 2006.88101803 0 24167.45265841 0 1270.25032017 0 -3341.55012399 0 1662
0.03950000 0.03950240 48216.87433426 0 1192.42294902 0 23496.69122090 0 6665.51739618 0 -2655.88533727 0 1683
0.04050000 0.04050350 48005.72509996 0 817.55278380 0 22896.23904598 0 5347.48999441 0 2117.01743300 0 1822
0.04150000 0.04152450 44327.49879521 0 2675.39477360 0 22187.94242733 0 6361.62636920 0 2212.74875338 0 1887
0.04250000 0.04250150 45395.09235422 0 1906.53253820 0 20566.95407388 0 4593.67504844 0 6247.70321914 0 1920
0.04350000 0.04349210 41077.99290743 0 1224.49947402 0 18977.18967642 0 2902.75389143 0 9917.04951939 0 2005
0.04450000 0.04448520 42247.78402452 0 122.33922415 0 16965.56970337 0 2533.42542478 0 12279.98328662 0 2151
0.04550000 0.04548030 42540.64701598 0 -1647.50657139 0 17061.01314331 0 3821.88971928 0 9410.01454897 0 2274
0.04650000 0.04648670 42425.05194487 0 -1375.17167015 0 14988.60610700 0 2446.07585429 0 4011.99046409 0 2311
0.04750000 0.04749250 42680.04758544 0 2633.15385442 0 14364.68060347 0 -577.19807833 0 3550.18594055 0 2568
0.04850000 0.04851840 39931.12150272 0 2629.38926398 0 11856.46686230 0 -663.28540380 0 1280.14897856 0 2493
0.04950000 0.04949480 37996.01129416 0 805.63564059 0 11667.35155440 0 -459.54687651 0 2317.27149967 0 2644
0.05050000 0.05050630 37798.92391239 0 860.10262084 0 14370.65965887 0 -523.43751241 0 -852.67198366 0 2829
0.05150000 0.05149060 38378.44939340 0 852.56790380 0 16671.04586319 0 -472.17154126 0 -332.31589925 0 2784
0.05250000 0.05249300 37104.46769977 0 731.45992217 0 15557.83432593 0 -48.59787303 0 2875.47168308 0 3055
0.05350000 0.05348950 37269.99895580 0 620.43882845 0 16739.47283057 0 85.70444447 0 4435.00863378 0 3009
0.05450000 0.05448610 37310.85583439 0 692.23621150 0 16721.64638762 0 317.14349255 0 3379.14066675 0 3336
0.05550000 0.05550870 36842.05360156 0 1055.33317374 0 16594.09320571 0 1320.13114348 0 2977.18205886 0 3349
0.05650000 0.05647670 35340.75707940 0 444.31910818 0 17779.49630079 0 -126.06173976 0 3903.12736647 0 3324
0.05750000 0.05747970 36262.19595081 0 608.87378517 0 17908.71033142 0 175.07117110 0 2481.92804205 0 3639
0.05850000 0.05849280 34190.12108425 0 749.16567679 0 16170.46605814 0 1636.75534399 0 1036.65969794 0 3846
0.05950000 0.05951020 34107.63226435 0 176.11086240 0 16005.37769510 0 1956.34692756 0 -539.78469277 0 3787
0.06050000 0.06049470 32967.62570102 0 505.17260539 0 14282.19178357 0 1543.90282806 0 -299.26943859 0 3930
0.06150000 0.06148310 33150.54050703 0 1317.32984530 0 14307.87957715 0 2471.29861022 0 1391.17117951 0 4083
0.06250000 0.06249100 32629.91979405 0 -162.75763867 0 12711.36106155 0 2982.69607662 0 1189.38913202 0 4303
0.06350000 0.06350600 31396.90570225 0 -141.95274034 0 11328.64913820 0 1623.25818004 0 961.03461219 0 4470
0.06450000 0.06451750 32307.38297209 0 351.20307092 0 10629.28788568 0 136.29810405 0 -1195.51212764 0 4479
0.06550000 0.06550280 30996.64116006 0 1317.08625415 0 11127.68644274 0 639.57955636 0 218.87439532 0 4636
0.06650000 0.06648880 29796.51187296 0 1364.24328556 0 11069.12491677 0 -1062.27884310 0 1135.93194779 0 4653
0.06750000 0.06749660 29237.13802312 0 404.84294851 0 10529.52623906 0 1112.35896826 0 1652.93201055 0 5220
0.06850000 0.06852730 29059.31648654 0 436.04475985 0 11362.41972889 0 998.35609746 0 135.89950036 0 5029
0.06950000 0.06949320 28622.07037945 0 1168.93854808 0 10719.17301856 0 -190.09188695 0 1594.07153182 0 5040
0.07050000 0.07048030 28146.51402849 0 457.70222719 0 11246.82465779 0 -362.44701678 0 764.44659227 0 5475
0.07150000 0.07148790 27613.93520471 0 -202.98339474 0 10855.57298800 0 -535.60931908 0 2796.92461081 0 5509
0.07250000 0.07249820 28412.36054738 0 -196.59466332 0 11808.30224934 0 1592.10065800 0 1075.14820624 0 5916
0.07350000 0.07351270 28671.12077840 0 21.49924382 0 11647.19992323 0 -12.15874133 0 523.18727787 0 5721
0.07450000 0.07449140 28252.25473051 0 140.84993679 0 10574.15878041 0 1092.68787598 0 1332.52107495 0 6028
0.07550000 0.07549160 28380.58297515 0 247.58936250 0 10489.49978484 0 1002.05093225 0 719.83730281 0 6183
0.07650000 0.07648840 28036.12295005 0 49.17717707 0 9898.29300115 0 846.78150685 0 -24.91904207 0 6330
0.07750000 0.07749960 27614.26737446 0 684.38261151 0 9271.04580017 0 499.10386415 0 -329.84344911 0 6583
0.07850000 0.07848650 27440.43187480 0 988.33564350 0 8858.25845861 0 -725.76653275 0 -1311.66081499 0 6549
0.07950000 0.07947320 26179.40480121 0 767.94987584 0 8930.12891901 0 -734.48820301 0 -2772.82015968 0 6828
0.08050000 0.08048110 25002.41667299 0 1359.81435563 0 10064.26715018 0 -407.30100462 0 -3816.34248454 0 7147
0.08150000 0.08149960 23767.52028596 0 1303.44514998 0 9400.35948173 0 -867.31956216 0 -3555.52280111 0 7386
0.08250000 0.08250610 22685.20053494 0 839.71736362 0 9429.01465836 0 878.46607155 0 -4394.68322679 0 7227
0.08350000 0.08350160 22314.83126976 0 578.61976484 0 9279.06216334 0 591.09827491 0 -3067.99726702 0 7798
0.08450000 0.08449610 22186.06013211 0 -8.13471525 0 8512.40332058 0 2020.67713475 0 -2509.07738250 0 7371
0.08550000 0.08548940 22087.73788772 0 -146.25101683 0 7708.71862361 0 2512.03369323 0 566.34498554 0 8256
0.08650000 0.08650700 22524.43037857 0 -37.55134673 0 7465.69216617 0 1538.83170330 0 -175.53177981 0 8037
0.08750000 0.08749060 22159.70799905 0 276.56120762 0 6901.30255319 0 1888.81681849 0 2426.12352496 0 8155
0.08850000 0.08849210 21873.82057223 0 537.68095105 0 7211.56016693 0 333.55267793 0 2144.94183619 0 8718
0.08950000 0.08949900 21198.18731179 0 390.50760956 0 6788.73022676 0 309.76378806 0 3699.66232560 0 8571
0.09050000 0.09049190 21175.59976916 0 829.06135821 0 6974.83386231 0 11.21847951 0 2200.81278723 0 8932
0.09150000 0.09150830 20244.86014491 0 407.95759348 0 7449.78123540 0 -532.92095861 0 1421.48720487 0 9285
0.09250000 0.09250820 19799.64196395 0 879.85454109 0 7434.49035483 0 -412.39427403 0 1429.01638574 0 9204
0.09350000 0.09350330 19320.76391555 0 623.76384759 0 7270.64209216 0 33.43941746 0 47.45886298 0 9349
0.09450000 0.09448040 18613.24235963 0 243.13828793 0 6921.65348621 0 439.67537515 0 273.80752044 0 9564
0.09550000 0.09549270 18587.77601255 0 295.36755133 0 7217.18490794 0 417.42996736 0 159.20452964 0 10155
0.09650000 0.09649430 17911.36768938 0 807.19905286 0 7389.49242677 0 -77.37517740 0 609.52594510 0 9913
0.09750000 0.09749140 17492.83381123 0 577.18589877 0 7051.07789101 0 240.04800207 0 97.00009808 0 10476
0.09850000 0.09850240 17474.78592178 0 51.60201620 0 7166.57331119 0 259.34484976 0 449.39687634 0 10575
0.09950000 0.09950330 17354.09758126 0 -286.10001545 0 7790.04484941 0 32.84494434 0 600.07350141 0 10882
0.10050000 0.10051200 17346.45767713 0 278.21652018 0 7526.24671060 0 -88.41749622 0 -38.53921955 0 10875
0.10150000 0.10150300 17374.58138217 0 454.47353727 0 7781.36414675 0 -174.80322084 0 768.33408551 0 11118
0.10250000 0.10250800 16689.64736889 0 510.12193458 0 7307.39113824 0 54.89226824 0 334.90239432 0 11575
0.10350000 0.10349800 16404.75645131 0 372.58151568 0 7026.77413803 0 1015.69757259 0 -24.61211722 0 11364
0.10450000 0.10450100 16169.91244190 0 224.54453286 0 6629.69842539 0 569.68329148 0 -842.51312564 0 12093
0.10550000 0.10551000 15930.52877932 0 126.69286227 0 6410.70998512 0 715.54899141 0 -395.76696385 0 12067
0.10650000 0.10649700 15867.85942085 0 -14.99148491 0 5881.87360714 0 24.00092489 0 -969.30120990 0 12054
0.10750000 0.10749900 15460.95148376 0 352.48856783 0 5570.14337419 0 401.57550545 0 -782.69821250 0 12807
0.10850000 0.10850100 15803.86138340 0 -222.63455683 0 5459.04366696 0 677.83886754 0 -951.87890680 0 12736
0.10950000 0.10950300 15548.09068009 0 13.57799193 0 5162.79254411 0 725.95476227 0 -929.40319465 0 12933
0.11050000 0.11050200 15599.68771374 0 116.54396934 0 5003.79395972 0 606.70582397 0 -1119.32346057 0 13428
0.11150000 0.11150900 15473.13104107 0 151.91672544 0 4326.45556126 0 381.87783960 0 -1041.53594979 0 13453
0.11250000 0.11250000 15207.17379892 0 275.35432422 0 4167.60091709 0 103.04857696 0 -119.50470900 0 13668
0.11350000 0.11349100 15245.04114980 0 194.40455747 0 4098.12207885 0 104.79302174 0 -687.38985493 0 13791
0.11450000 0.11448600 14894.60206929 0 72.70730671 0 4420.10528458 0 103.72509601 0 -719.20839476 0 14205
0.11550000 0.11549300 14687.99248818 0 516.74982822 0 4472.01234333 0 -590.27560117 0 -1108.11826785 0 14776
0.11650000 0.11649800 14749.44389092 0 332.81083217 0 4953.76919619 0 -307.47956745 0 -238.96291424 0 14553
0.11750000 0.11747300 14217.08651364 0 70.50956095 0 4934.04938569 0 73.17112639 0 -255.30898737 0 14568
0.11850000 0.11849100 14416.16691388 0 -14.42369609 0 5267.59209852 0 207.03475839 0 82.91399717 0 16015
0.11950000 0.11950300 14445.84074439 0 36.14139689 0 5221.67516750 0 742.21336403 0 -431.02567501 0 15270
0.12050000 0.12050700 14050.66947161 0 446.64540363 0 5191.38128680 0 591.27875380 0 -21.47610266 0 15999
0.12150000 0.12150000 13727.24686366 0 452.37643895 0 4318.81565714 0 477.08101009 0 893.89978512 0 15670
0.12250000 0.12250700 13679.30369720 0 -203.39085629 0 4401.14946449 0 860.14137398 0 780.35420134 0 16887
0.12350000 0.12352200 13676.97850898 0 -188.97801107 0 4001.11744112 0 326.17075897 0 697.54871295 0 16407
0.12450000 0.12449800 14009.14825354 0 104.73312046 0 4058.07347998 0 -68.99077016 0 169.51397128 0 16306
0.12550000 0.12549900 13708.20246497 0 272.62942508 0 3754.62534600 0 -573.47113380 0 670.71271928 0 17523
0.12650000 0.12650100 13646.97250873 0 306.14203061 0 3919.09365886 0 -217.66640468 0 631.84221578 0 17154
0.12750000 0.12750600 13438.70207889 0 24.33486621 0 3810.18627194 0 8.00016436 0 112.10064539 0 18007
0.12850000 0.12850300 13167.87301382 0 213.23304582 0 3925.24987146 0 840.58986281 0 250.41834149 0 17496
0.12950000 0.12949900 12951.51978687 0 385.06445468 0 3453.63526813 0 464.61357234 0 -146.77695226 0 18405
0.13050000 0.13049000 12493.78987886 0 228.12975163 0 3100.59419129 0 692.37461556 0 -79.84342005 0 18100
0.13150000 0.13148800 12630.86526012 0 191.04521412 0 3250.17022727 0 64.43229403 0 -44.32805241 0 19059
0.13250000 0.13249300 12153.42661394 0 98.02163077 0 2963.61846096 0 -132.96644151 0 -119.12935719 0 18957
0.13350000 0.13349100 12219.30694661 0 45.41170084 0 3358.88938466 0 -118.24910737 0 98.02805272 0 19468
0.13450000 0.13450700 12129.17822259 0 -56.25748589 0 3054.79905584 0 18.33123025 0 91.29829369 0 19953
0.13550000 0.13551000 12374.20877082 0 102.05461436 0 3300.43858194 0 245.01726145 0 -127.09146597 0 19956
0.13650000 0.13649900 12201.36978040 0 108.00609968 0 3108.53304819 0 71.03704651 0 48.47497023 0 19723
0.13750000 0.13749600 12101.94030353 0 317.62735314 0 2835.37879491 0 239.40580723 0 158.41950181 0 20946
0.13850000 0.13851100 11968.40806622 0 75.03260564 0 2737.39979259 0 -293.70227367 0 -148.47987582 0 20955
0.13950000 0.13949800 11972.17265666 0 210.29334358 0 3036.10897155 0 -262.82377422 0 -299.97806738 0 20506
0.14050000 0.14048300 11755.48725996 0 365.72553215 0 3261.90689157 0 -353.17615921 0 -794.86337578 0 21447
0.14150000 0.14148400 11229.33038457 0 403.62056385 0 3344.50643472 0 -494.98717379 0 -419.49384871 0 21771
0.14250000 0.14249400 11269.19075392 0 257.34740236 0 3393.95543736 0 83.45587675 0 -739.06882378 0 22470
0.14350000 0.14350900 10901.73351017 0 43.85947163 0 3573.37138872 0 174.83311612 0 -674.91909548 0 22519
0.14450000 0.14449900 11131.11886343 0 44.90503126 0 3882.90930135 0 247.43988612 0 -719.39994598 0 22218
0.14550000 0.14550500 10920.27965424 0 138.57678850 0 3795.58187551 0 78.01604357 0 -558.01859728 0 23559
0.14650000 0.14650700 10658.21987043 0 432.06536631 0 3653.82290085 0 226.38918217 0 269.76169295 0 23044
0.14750000 0.14750500 10434.42604119 0 91.45197756 0 3721.54123944 0 337.70258527 0 365.51183629 0 23649
0.14850000 0.14849900 10346.60036073 0 98.28338053 0 3277.31956772 0 739.84610099 0 465.57243567 0 23640
0.14950000 0.14949500 10286.01259933 0 190.47056046 0 3466.31308005 0 441.29857797 0 310.91641707 0 24457
0.15050000 0.15050000 9962.75607624 0 150.41199650 0 3077.13193500 0 349.62194294 0 334.59569093 0 24591
0.15150000 0.15149900 10053.46056116 0 50.70050751 0 2859.27287187 0 98.07444576 0 444.05337239 0 25020
0.15250000 0.15250500 9899.18985946 0 77.89458016 0 2834.36014103 0 -128.74899299 0 445.75297425 0 25297
0.15350000 0.15350100 9780.02949976 0 249.49269514 0 2970.29507282 0 -223.66096134 0 81.84728940 0 25452
0.15450000 0.15450400 9652.29916065 0 276.56120762 0 2723.28257845 0 149.21839988 0 181.47983271 0 26061
0.15550000 0.15549900 9449.75312275 0 145.39844782 0 2923.58093441 0 56.23423401 0 129.80307831 0 26128
0.15650000 0.15649500 9297.61937974 0 121.92511921 0 2770.10744010 0 289.50918427 0 416.77559296 0 26331
0.15750000 0.15749700 9336.27286568 0 10.37772467 0 2842.04433445 0 125.54244772 0 413.53693795 0 27345
0.15850000 0.15849900 9126.88413104 0 87.64697314 0 2467.44544119 0 400.08738500 0 333.96124672 0 26980
0.15950000 0.15949700 9321.56881832 0 73.36101676 0 2778.25667117 0 -24.20122325 0 594.54287516 0 27777
0.16050000 0.16050000 9091.57448719 0 101.00872256 0 2646.44064420 0 99.37987286 0 804.64909645 0 28224
0.16150000 0.16150500 9019.12826590 0 114.47787353 0 2672.02878686 0 -80.16861423 0 805.66996480 0 28075
0.16250000 0.16249700 9047.58414068 0 127.92742649 0 2569.43262509 0 231.21228686 0 640.29704301 0 28590
0.16350000 0.16349900 8922.22327909 0 -66.04309585 0 2499.40017061 0 -24.11807009 0 371.12771943 0 29163
0.16450000 0.16449100 9023.76757000 0 50.29481753 0 2131.42252759 0 235.41423413 0 325.34254908 0 28996
0.16550000 0.16550500 8814.32347373 0 48.79695343 0 2203.32620496 0 300.41985314 0 22.10678229 0 30777
0.16650000 0.16650700 8830.97625026 0 93.39040947 0 1839.85499814 0 220.00487968 0 130.56042533 0 29211
0.16750000 0.16749900 8708.22845732 0 26.53294413 0 1610.58036812 0 234.45647803 0 -18.74688532 0 30922
0.16850000 0.16850800 8727.04033718 0 43.87408709 0 1353.63599838 0 385.42541247 0 307.01452980 0 30867
0.16950000 0.16949900 8668.81098096 0 42.57131736 0 1224.55483564 0 124.13626247 0 43.01952506 0 30852
0.17050000 0.17049200 8610.06122548 0 231.65960879 0 1386.28828427 0 -28.81395377 0 131.16829596 0 31257
0.17150000 0.17149500 8430.96637153 0 192.04283058 0 1566.14712862 0 -420.31984414 0 153.23543933 0 32608
0.17250000 0.17250900 8184.88395244 0 337.58078970 0 1583.69676346 0 -188.77981646 0 -92.26712212 0 32361
0.17350000 0.17350400 7993.36595005 0 179.42813092 0 1868.67625964 0 -264.66288737 0 133.84558411 0 32508
0.17450000 0.17449800 7840.62322918 0 111.46730841 0 1859.45301307 0 -24.47714558 0 -191.51468069 0 32791
0.17550000 0.17549800 7835.00956050 0 81.23277537 0 1931.73314949 0 101.14147973 0 -225.42256822 0 33633
0.17650000 0.17650100 7824.38012867 0 0.52350838 0 1843.48672068 0 -10.58786632 0 -302.12166947 0 33984
0.17750000 0.17750300 7730.50895886 0 50.56918974 0 1840.68542250 0 172.93864134 0 -216.99763626 0 34069
0.17850000 0.17849800 7814.13822821 0 -8.69525169 0 1960.63191726 0 -73.14388848 0 -411.82072761 0 34536
