### header ###
fiducial parameters:
Omega_m = 0.31
Omega_nu = 0
Omega_de = 0.69
Omega_k = 0
H_0 = 100
w_de = -1
zeff = 0
beta = 0
fgrowth = 0
b_1 = 2
gamma = 0.55
Lx = 3500 Ly = 3500 Lz = 3500
nx = 700 ny = 700 nz = 700
xoffset = -685.467585 yoffset = -31.7331281 zoffset = 572.489161
bins = 400 dk = 0.001
kx_ny = 0.628318531 ky_ny = 0.628318531 kz_ny = 0.628318531
############################
A(data) = 8.0108287 (not used)
A(ran) = 8.00547073 (used)
Ngal = 475622
weighted Ngal = 0
Nran = 23820508
weighted Nran = 0
SN(data) = 3496.2586
SN(ran) = 69.7305534
SN(data+ran) = 3565.98916
############################
13 columns: k_central k_mean P_0(k) sigma^{lin}_{P_0(k)} P^img_1(k) sigma^{lin}_{P_1(k)} P_2(k) sigma^{lin}_{P_2(k)} P^img_3(k) sigma^{lin}_{P_3(k)} P_4(k) sigma^{lin}_{P_4(k)} N_modes
### header ###
0.00050000 0 0 0 0 0 0 0 0 0 0 0 0
0.00150000 0.00179520 10948.03797256 0 -14325.81674336 0 5211.97581096 0 -28801.55276476 0 -24002.69646511 0 3
0.00250000 0.00253879 14444.95495841 0 -8300.54545750 0 -9794.33494343 0 7719.07124732 0 27783.00960469 0 6
0.00350000 0.00331552 22861.58266930 0 -11577.55500012 0 -9939.02808416 0 -3959.36370422 0 -24436.95304450 0 7
0.00450000 0.00420575 29736.16770270 0 -11077.30736481 0 -3382.00839888 0 -11005.09366235 0 3235.41081828 0 24
0.00550000 0.00557378 47661.59724460 0 -5290.22393045 0 10991.04288215 0 -15662.57851871 0 -8466.82963162 0 45
0.00650000 0.00659388 55609.20127618 0 -5912.24499411 0 31136.04172952 0 -15312.58233120 0 35386.15361116 0 40
0.00750000 0.00754703 65969.57560898 0 -8786.78660191 0 28615.42698456 0 16714.22792999 0 6908.48849200 0 57
0.00850000 0.00846663 73963.24051181 0 -8060.74104657 0 29861.28497315 0 35358.80496886 0 6012.00664073 0 75
0.00950000 0.00948925 74629.24084965 0 -8444.75141593 0 27598.76611971 0 8205.17952383 0 -26533.60847216 0 112
0.01050000 0.01054430 101785.66759285 0 -2887.89483152 0 17246.25313752 0 20018.32037912 0 7457.72009230 0 105
0.01150000 0.01145670 87184.59285450 0 -6599.95816092 0 -2835.11305911 0 -1430.54436657 0 -21514.30218537 0 144
0.01250000 0.01249090 93545.42201632 0 -3151.19471571 0 6610.66509902 0 -4325.83551107 0 -2712.16596433 0 169
0.01350000 0.01339930 94726.28545823 0 -5620.09063145 0 12224.95383227 0 -6467.32278192 0 -19500.57847060 0 180
0.01450000 0.01448870 95648.38866912 0 672.44553812 0 -1578.96888076 0 -14672.15906368 0 -15338.82374102 0 267
0.01550000 0.01550050 92699.49640017 0 13030.02256983 0 1587.70494504 0 -16582.35654140 0 13939.06043744 0 238
0.01650000 0.01653350 77321.47662930 0 10031.99132334 0 7904.00121644 0 -2570.35162805 0 -8764.14369765 0 315
0.01750000 0.01747870 73808.33868759 0 10405.49405644 0 17299.06812691 0 7347.89370242 0 -5231.36345172 0 297
0.01850000 0.01844180 66266.31391412 0 5315.76778381 0 8040.67799400 0 -473.96857958 0 -18108.67651765 0 388
0.01950000 0.01947590 64875.85136340 0 -6018.16285333 0 6011.81841121 0 -5130.48350029 0 -24769.12278906 0 399
0.02050000 0.02045430 68636.89865780 0 -2195.57557759 0 13897.76066587 0 -16226.60274497 0 -19426.94751056 0 462
0.02150000 0.02154770 72702.43488471 0 -244.97961554 0 19168.07655630 0 -9612.74881640 0 -21194.31199811 0 571
0.02250000 0.02255340 72163.21266604 0 2352.60328817 0 20957.03207724 0 -5567.39743764 0 -12354.61075589 0 510
0.02350000 0.02348930 67326.82118525 0 7523.81079914 0 22886.05250715 0 916.39653469 0 -18151.74786119 0 555
0.02450000 0.02439640 67502.64970337 0 5922.24330342 0 29542.40201837 0 1345.15459757 0 -14283.40973930 0 592
0.02550000 0.02547300 60754.39989615 0 5439.13562694 0 32064.23471907 0 -4533.72948187 0 -8948.58648448 0 837
0.02650000 0.02652900 57767.41882983 0 6072.17365379 0 39090.51060249 0 2866.92384832 0 1111.47318227 0 723
0.02750000 0.02749970 53887.67621337 0 2373.02065513 0 40748.81269057 0 2208.75164412 0 8530.18547423 0 826
0.02850000 0.02848090 56119.52472707 0 -2801.87394001 0 37567.18015394 0 12063.85150616 0 5670.99010864 0 831
0.02950000 0.02946900 59193.64498972 0 -1947.89874372 0 33717.44353774 0 7799.21273436 0 -4371.76351442 0 996
0.03050000 0.03053250 59426.16381091 0 220.75779777 0 27743.59212834 0 6737.84182189 0 -1683.48055473 0 1041
0.03150000 0.03150510 58557.31848239 0 -639.67588559 0 20439.51161522 0 9253.81726276 0 -4704.04398223 0 1036
0.03250000 0.03246190 56892.48372266 0 617.51130576 0 18578.69670620 0 5468.39978143 0 -10571.62321802 0 1059
0.03350000 0.03345080 55173.50529456 0 4667.30600848 0 14602.51414058 0 322.70622854 0 -10846.30545212 0 1302
0.03450000 0.03451200 48531.43908235 0 6148.92700944 0 13834.09479816 0 1373.02363914 0 -9100.83095074 0 1339
0.03550000 0.03553350 47070.44582253 0 1517.93822636 0 14565.75402218 0 539.46580981 0 -1086.56377313 0 1365
0.03650000 0.03647120 46166.39050109 0 -2146.89056536 0 14509.94950509 0 5813.11447001 0 -7341.99215330 0 1308
0.03750000 0.03744890 48639.72641908 0 -1217.76750053 0 16185.63514315 0 3494.68037624 0 -4254.05362927 0 1579
0.03850000 0.03847530 49383.12230740 0 2393.33837117 0 17976.91585231 0 -4729.88678835 0 -3976.13827632 0 1662
0.03950000 0.03950240 46785.00128871 0 3568.35562558 0 22706.57012184 0 -3566.69477686 0 6387.24772883 0 1683
0.04050000 0.04050350 44434.56817621 0 2420.50985628 0 25345.76946561 0 -588.75204928 0 5280.32527206 0 1822
0.04150000 0.04152450 42800.29303297 0 1849.46577608 0 25296.60834342 0 4253.16784329 0 323.79131637 0 1887
0.04250000 0.04250150 41820.28156328 0 926.64950747 0 25030.54037802 0 3349.32289602 0 -4225.02199360 0 1920
0.04350000 0.04349210 39665.82860006 0 868.79328859 0 19361.39934763 0 1855.23445731 0 -2973.47283005 0 2005
0.04450000 0.04448520 40562.02257088 0 -1066.82292521 0 17822.01402809 0 5349.02904756 0 -2944.47441135 0 2151
0.04550000 0.04548030 40465.36117522 0 -1490.05811247 0 12468.87714802 0 3054.96514071 0 -8490.90086578 0 2274
0.04650000 0.04648670 41532.51184124 0 -22.65929129 0 13095.01711652 0 1055.94547330 0 -6559.79883881 0 2311
0.04750000 0.04749250 40692.56528050 0 973.95490802 0 10412.96787570 0 442.27404979 0 -4103.52537336 0 2568
0.04850000 0.04851840 40273.69923261 0 1039.95371457 0 8869.50794063 0 171.28997218 0 -4158.25587494 0 2493
0.04950000 0.04949480 39442.38908522 0 1068.35312050 0 9570.48575257 0 1149.16337595 0 -4364.33398447 0 2644
0.05050000 0.05050630 38406.24092869 0 1039.13768423 0 11335.62470283 0 -19.96539467 0 -3415.62397703 0 2829
0.05150000 0.05149060 37564.30134948 0 828.14567695 0 10556.28804815 0 1143.38362240 0 82.78544748 0 2784
0.05250000 0.05249300 37868.12594251 0 328.01872998 0 10977.20247613 0 1198.86704206 0 -5329.63033448 0 3055
0.05350000 0.05348950 35898.02718753 0 1345.83000938 0 11510.67815822 0 1798.63273284 0 3335.99181693 0 3009
0.05450000 0.05448610 35277.09121170 0 1465.57720230 0 11671.11614484 0 689.99074403 0 -1364.97405899 0 3336
0.05550000 0.05550870 34495.49580275 0 258.50999647 0 11744.19348864 0 2371.78055475 0 3659.55836511 0 3349
0.05650000 0.05647670 34658.03753109 0 265.27075801 0 13122.25503557 0 -1311.50580244 0 -210.87353340 0 3324
0.05750000 0.05747970 34134.09512067 0 517.24808283 0 12062.30138068 0 165.21015862 0 2201.69857321 0 3639
0.05850000 0.05849280 34986.11051546 0 52.56165459 0 13210.83363412 0 -1035.97099933 0 2556.57765598 0 3846
0.05950000 0.05951020 33959.92745127 0 -1065.39127361 0 10505.16712446 0 529.63026368 0 696.33297168 0 3787
0.06050000 0.06049470 36432.37758327 0 -542.24496334 0 13433.05519323 0 635.38757418 0 655.03873627 0 3930
0.06150000 0.06148310 35661.96522239 0 182.13088541 0 10117.91256393 0 305.90729732 0 -1329.32117308 0 4083
0.06250000 0.06249100 35700.60763601 0 1173.19032081 0 11111.85301825 0 -30.77641262 0 -2413.83324441 0 4303
0.06350000 0.06350600 33989.37983529 0 1618.60780361 0 11043.52570179 0 -809.41351782 0 -2185.64370223 0 4470
0.06450000 0.06451750 33463.99802264 0 603.95988742 0 12237.46555931 0 -372.93029391 0 190.26018629 0 4479
0.06550000 0.06550280 33932.91097871 0 -4.04878380 0 11685.95306010 0 1328.61254429 0 812.01329969 0 4636
0.06650000 0.06648880 32511.66736499 0 248.52165225 0 12422.70555353 0 2157.38712929 0 798.86159227 0 4653
0.06750000 0.06749660 33127.84224115 0 933.16889232 0 12269.79674778 0 1589.00040705 0 63.03817761 0 5220
0.06850000 0.06852730 31290.50066074 0 1712.78899852 0 12572.62483157 0 194.51085179 0 1578.68100032 0 5029
0.06950000 0.06949320 30691.37716481 0 1263.47405738 0 12348.07808425 0 1144.77873532 0 2890.09822416 0 5040
0.07050000 0.07048030 28894.00667699 0 -204.96534088 0 10507.61410825 0 1788.51262796 0 2361.42793105 0 5475
0.07150000 0.07148790 29625.77662426 0 5.21022638 0 9911.53550163 0 2555.83581021 0 1610.48071720 0 5509
0.07250000 0.07249820 28876.51240378 0 -96.71044607 0 9225.60497912 0 1542.66272768 0 1128.87887689 0 5916
0.07350000 0.07351270 29298.70014912 0 438.25922481 0 9326.10847150 0 153.69604804 0 1279.46249442 0 5721
0.07450000 0.07449140 28789.37320746 0 795.83884759 0 8958.85052959 0 -205.56546089 0 801.53334425 0 6028
0.07550000 0.07549160 28078.97284709 0 919.21001242 0 8650.82952546 0 337.02828069 0 2187.45956350 0 6183
0.07650000 0.07648840 27335.02334253 0 475.90623643 0 7424.56955179 0 911.97646262 0 3130.64448085 0 6330
0.07750000 0.07749960 26575.57258322 0 293.84621390 0 7607.80545522 0 2435.84502615 0 3497.55918069 0 6583
0.07850000 0.07848650 26632.92722578 0 819.20256019 0 6832.87558581 0 1868.96414009 0 3366.81716923 0 6549
0.07950000 0.07947320 25410.98545879 0 950.63991365 0 5651.95678228 0 2307.92645752 0 2561.18374310 0 6828
0.08050000 0.08048110 24807.76520267 0 542.69228527 0 5153.70216544 0 248.13301365 0 3611.03943775 0 7147
0.08150000 0.08149960 23608.63242481 0 807.88332253 0 5272.00995612 0 -426.56574257 0 3066.92325152 0 7386
0.08250000 0.08250610 23505.54908075 0 692.48644604 0 5391.60213649 0 -192.47132956 0 1597.22714439 0 7227
0.08350000 0.08350160 23178.47260561 0 268.71646549 0 5250.61822458 0 -1305.89213376 0 1145.62023201 0 7798
0.08450000 0.08449610 22784.74073506 0 462.25959609 0 6911.27871785 0 -1649.65460241 0 213.66929542 0 7371
0.08550000 0.08548940 22704.68782662 0 725.84736072 0 7340.50846177 0 -1984.30454772 0 618.00845315 0 8256
0.08650000 0.08650700 22905.87196857 0 285.71691302 0 8836.86672706 0 -372.52947576 0 -223.84808363 0 8037
0.08750000 0.08749060 22274.30656092 0 137.75965093 0 8746.06259122 0 352.40773986 0 1236.88940549 0 8155
0.08850000 0.08849210 22060.49996867 0 494.79230087 0 8400.08565761 0 1249.34577091 0 195.61697704 0 8718
0.08950000 0.08949900 21651.82045961 0 265.40916207 0 8015.43309342 0 1223.38116921 0 148.86740719 0 8571
0.09050000 0.09049190 21213.24567355 0 151.40296957 0 7151.10527342 0 1197.50514611 0 -553.44129820 0 8932
0.09150000 0.09150830 21040.29595988 0 341.20476161 0 5963.45449640 0 685.19421291 0 -1009.99643254 0 9285
0.09250000 0.09250820 20615.45085659 0 147.78231935 0 4997.02876925 0 -129.28932244 0 -257.57438502 0 9204
0.09350000 0.09350330 20463.64928333 0 -43.68021069 0 4267.97154157 0 1016.52135356 0 -1418.38695392 0 9349
0.09450000 0.09448040 20470.84629446 0 -55.22056268 0 3978.77348963 0 110.21226040 0 -1729.79608944 0 9564
0.09550000 0.09549270 19861.86842943 0 673.88715481 0 3873.58640385 0 -223.81375942 0 -2939.42543123 0 10155
0.09650000 0.09649430 19411.22480931 0 949.74969874 0 4230.75745785 0 419.78837255 0 -2242.99834479 0 9913
0.09750000 0.09749140 18752.08931286 0 1107.63108556 0 4566.28211683 0 -318.73126393 0 -1740.39230429 0 10476
0.09850000 0.09850240 17717.82345155 0 843.09110099 0 4712.73575721 0 -739.69662460 0 -1390.03073006 0 10575
0.09950000 0.09950330 17756.90875816 0 284.60082267 0 5733.78126269 0 -143.26923976 0 -520.40923157 0 10882
0.10050000 0.10051200 17184.02667204 0 62.78008172 0 5571.41669155 0 165.43160512 0 789.43682938 0 10875
0.10150000 0.10150300 17327.41327844 0 588.04009879 0 6030.60814642 0 1066.58819192 0 379.78517021 0 11118
0.10250000 0.10250800 16990.26098772 0 4.92678594 0 5716.81846106 0 751.33806692 0 221.76205763 0 11575
0.10350000 0.10349800 16600.73660060 0 180.37481469 0 5423.26898547 0 1198.25806420 0 1063.21666901 0 11364
0.10450000 0.10450100 16537.29217939 0 293.60815891 0 5253.51917368 0 382.41263289 0 1126.90800307 0 12093
0.10550000 0.10551000 16235.57132808 0 -58.71997093 0 4904.97346071 0 870.24708484 0 1443.76472240 0 12067
0.10650000 0.10649700 16256.49802198 0 174.60502623 0 5131.41357558 0 -98.15128769 0 1064.19103360 0 12054
0.10750000 0.10749900 15987.10835915 0 273.14207372 0 4894.43260748 0 -525.39731390 0 781.66627183 0 12807
0.10850000 0.10850100 15718.27231255 0 413.38524710 0 5150.87872261 0 -242.81497604 0 -225.04389471 0 12736
0.10950000 0.10950300 15699.44936036 0 165.43381958 0 4542.98594542 0 -207.94822519 0 754.02532015 0 12933
0.11050000 0.11050200 15436.70309241 0 -29.22307617 0 4443.14679253 0 -104.26708631 0 -477.87489578 0 13428
0.11150000 0.11150900 15586.06875422 0 254.80630382 0 4707.19959480 0 -126.69064781 0 -951.30868207 0 13453
0.11250000 0.11250000 15259.76734181 0 517.68322520 0 4598.45829276 0 29.87689695 0 -1120.99538161 0 13668
0.11350000 0.11349100 14836.91525699 0 293.14090681 0 4352.63053713 0 180.91846584 0 -980.32592372 0 13791
0.11450000 0.11448600 14501.20236848 0 259.33599190 0 4119.77954620 0 451.88593496 0 -1037.90754894 0 14205
0.11550000 0.11549300 14634.95605229 0 -44.88499035 0 4171.87483447 0 610.19471352 0 -478.54587866 0 14776
0.11650000 0.11649800 14455.47366698 0 51.07043389 0 4097.11449729 0 837.13086854 0 384.24399541 0 14553
0.11750000 0.11747300 14479.38988859 0 263.58887187 0 3594.89598817 0 1024.19668912 0 1309.68994117 0 14568
0.11850000 0.11849100 14251.85361357 0 191.83799258 0 3458.76175452 0 871.80938987 0 2363.53167276 0 16015
0.11950000 0.11950300 14264.47606386 0 -37.52853774 0 3295.56675902 0 1009.61554457 0 3433.77151741 0 15270
0.12050000 0.12050700 14304.55787971 0 -123.66679590 0 3692.93035211 0 605.60966382 0 2877.44255690 0 15999
0.12150000 0.12150000 14046.68343468 0 255.07757578 0 3527.46553002 0 -323.68502205 0 3200.57728440 0 15670
0.12250000 0.12250700 13925.88437091 0 592.55428562 0 3964.51233527 0 -1068.70079150 0 3292.99797966 0 16887
0.12350000 0.12352200 13451.87814542 0 478.71749970 0 4148.21327633 0 -603.94660063 0 3869.63358389 0 16407
0.12450000 0.12449800 13413.67862480 0 48.53597874 0 4697.00198364 0 67.94199955 0 3038.68882323 0 16306
0.12550000 0.12549900 13295.20474924 0 3.81956453 0 4445.68235491 0 287.36558218 0 2606.42526231 0 17523
0.12650000 0.12650100 13379.57586436 0 51.88114951 0 4294.27938534 0 132.90111480 0 1365.90413428 0 17154
0.12750000 0.12750600 13224.89548664 0 214.10997395 0 4396.18906297 0 -82.22319483 0 1451.94717044 0 18007
0.12850000 0.12850300 12957.83101201 0 82.77836119 0 4065.06011694 0 -102.12348422 0 1135.55548875 0 17496
0.12950000 0.12949900 12801.26833908 0 125.48154994 0 4239.78140258 0 -146.20229860 0 457.47303007 0 18405
0.13050000 0.13049000 12864.49131379 0 36.34069873 0 4045.11885994 0 88.47784039 0 682.49256566 0 18100
0.13150000 0.13148800 12729.29822776 0 202.46520994 0 3828.69919904 0 112.92996252 0 298.92066036 0 19059
0.13250000 0.13249300 12658.65679541 0 247.07007047 0 3561.86724324 0 317.72811130 0 488.64051720 0 18957
0.13350000 0.13349100 12424.92001849 0 170.10634065 0 3552.11252507 0 234.26160512 0 -150.20494402 0 19468
0.13450000 0.13450700 12136.70740346 0 435.21987165 0 3379.20710070 0 277.92310358 0 130.15185655 0 19953
0.13550000 0.13551000 11940.28436118 0 281.03774855 0 3080.55328337 0 273.33473217 0 272.45669681 0 19956
0.13650000 0.13649900 11720.38799028 0 10.55980905 0 3349.45576391 0 297.12472928 0 721.33538836 0 19723
0.13750000 0.13749600 11893.11625745 0 -3.77834227 0 3573.68141382 0 130.03227544 0 1004.59756696 0 20946
0.13850000 0.13851100 11813.94913500 0 62.35822615 0 3682.21234169 0 48.88830011 0 1010.83460753 0 20955
0.13950000 0.13949800 11743.63987240 0 244.83013916 0 3806.17809036 0 -183.68543981 0 1855.14587871 0 20506
0.14050000 0.14048300 11768.33115675 0 237.73610065 0 4314.89605415 0 28.19157839 0 1870.19316814 0 21447
0.14150000 0.14148400 11532.37991486 0 313.46305178 0 4281.76765829 0 -202.72319510 0 2274.78698934 0 21771
0.14250000 0.14249400 11416.34195076 0 187.87742199 0 4294.85514623 0 -30.08439232 0 2011.43174353 0 22470
0.14350000 0.14350900 11202.31391202 0 187.16768597 0 4536.45327377 0 -48.19140799 0 1733.53853523 0 22519
0.14450000 0.14449900 11087.82607339 0 44.35296514 0 4299.17335291 0 226.14116210 0 1444.14118145 0 22218
0.14550000 0.14550500 10915.99466453 0 109.85750311 0 4190.44312319 0 204.92548051 0 956.19047008 0 23559
0.14650000 0.14650700 10791.77425239 0 259.54082991 0 3778.78515876 0 -4.63455407 0 704.94391869 0 23044
0.14750000 0.14750500 10594.96367874 0 121.91847581 0 3800.58656633 0 425.19277429 0 679.28823486 0 23649
0.14850000 0.14849900 10384.96596623 0 29.49279800 0 3390.39014877 0 628.98334151 0 489.81750533 0 23640
0.14950000 0.14949500 10540.58749156 0 26.20863574 0 3116.61584530 0 417.17308942 0 497.81726001 0 24457
0.15050000 0.15050000 10459.95882223 0 145.25672206 0 3018.88043413 0 317.83883455 0 576.86812305 0 24591
0.15150000 0.15149900 10374.25902813 0 28.28469664 0 3012.15953296 0 76.03808346 0 832.72740496 0 25020
0.15250000 0.15250500 10247.39233036 0 112.09510923 0 3012.45848573 0 153.90863668 0 870.42867097 0 25297
0.15350000 0.15350100 10181.26840654 0 130.78851522 0 3012.76851083 0 94.12771558 0 722.44815700 0 25452
0.15450000 0.15450400 10068.86216498 0 119.42166656 0 2701.91299155 0 -31.42048975 0 372.97901214 0 26061
0.15550000 0.15549900 9909.80821896 0 115.52088653 0 2705.68865431 0 -119.93210074 0 155.12991410 0 26128
0.15650000 0.15649500 9836.62015191 0 270.75045156 0 2901.33663385 0 -244.50682727 0 442.92178079 0 26331
0.15750000 0.15749700 9576.19907218 0 233.67698637 0 2565.50194978 0 -63.26870342 0 -95.46669182 0 27345
0.15850000 0.15849900 9529.78388654 0 68.48664721 0 2864.56544313 0 54.31495723 0 59.66676543 0 26980
0.15950000 0.15949700 9410.20277850 0 59.86119545 0 2528.76397603 0 258.23429558 0 101.62899420 0 27777
0.16050000 0.16050000 9475.20839751 0 -29.44540845 0 2614.37519153 0 460.59874736 0 109.59708203 0 28224
0.16150000 0.16150500 9412.22901394 0 65.59322729 0 2496.55458313 0 87.80519666 0 319.19962327 0 28075
0.16250000 0.16249700 9405.36417255 0 184.53579436 0 2567.62783614 0 112.47156828 0 621.54273923 0 28590
0.16350000 0.16349900 9219.90273184 0 174.24517567 0 2581.94435214 0 204.23235298 0 687.43635869 0 29163
0.16450000 0.16449100 9068.27831577 0 204.69517615 0 2492.67926945 0 155.18527573 0 641.13964693 0 28996
0.16550000 0.16550500 8885.02026770 0 27.18621130 0 2246.47505478 0 279.27060551 0 599.50438391 0 30777
0.16650000 0.16650700 8881.44390678 0 64.79469122 0 2147.49954323 0 341.22579903 0 474.65838542 0 29211
0.16750000 0.16749900 8766.45781354 0 118.51705763 0 2017.96441517 0 132.35414195 0 265.88970096 0 30922
0.16850000 0.16850800 8723.14287885 0 129.93151728 0 2020.99823217 0 -172.10268082 0 495.75337866 0 30867
0.16950000 0.16949900 8588.72485555 0 207.38685832 0 1976.90823475 0 -243.36969951 0 495.19754796 0 30852
0.17050000 0.17049200 8491.87523036 0 184.31434786 0 2286.35756878 0 -126.33301172 0 736.36164037 0 31257
0.17150000 0.17149500 8532.34457757 0 77.69062794 0 2364.20708458 0 -236.00328181 0 658.75128678 0 32608
0.17250000 0.17250900 8393.39797342 0 118.41740670 0 2509.97424081 0 -18.87643152 0 673.04012196 0 32361
0.17350000 0.17350400 8253.58772794 0 86.38029918 0 2537.96507796 0 108.94115751 0 657.72266781 0 32508
0.17450000 0.17449800 8302.22845087 0 108.06755108 0 2403.85707975 0 37.66395227 0 287.25818063 0 32791
0.17550000 0.17549800 8139.05560002 0 64.27008447 0 2454.86728019 0 118.10184545 0 222.95454701 0 33633
0.17650000 0.17650100 8099.35024322 0 68.58718392 0 2204.35593117 0 -17.87671131 0 100.14951015 0 33984
0.17750000 0.17750300 8048.76079112 0 116.61040329 0 2146.66911886 0 168.89502832 0 49.62527405 0 34069
0.17850000 0.17849800 8032.38482271 0 -32.81715281 0 2123.67190022 0 272.26625283 0 -207.36692813 0 34536
