### header ###
fiducial parameters:
Omega_m = 0.31
Omega_nu = 0
Omega_de = 0.69
Omega_k = 0
H_0 = 100
w_de = -1
zeff = 0
beta = 0
fgrowth = 0
b_1 = 2
gamma = 0.55
Lx = 3500 Ly = 3500 Lz = 3500
nx = 700 ny = 700 nz = 700
xoffset = -685.467585 yoffset = -31.7331281 zoffset = 572.489161
bins = 400 dk = 0.001
kx_ny = 0.628318531 ky_ny = 0.628318531 kz_ny = 0.628318531
############################
A(data) = 7.99463939 (not used)
A(ran) = 7.98367169 (used)
Ngal = 474259
weighted Ngal = 0
Nran = 23820508
weighted Nran = 0
SN(data) = 3500.80877
SN(ran) = 69.5406758
SN(data+ran) = 3570.34945
############################
13 columns: k_central k_mean P_0(k) sigma^{lin}_{P_0(k)} P^img_1(k) sigma^{lin}_{P_1(k)} P_2(k) sigma^{lin}_{P_2(k)} P^img_3(k) sigma^{lin}_{P_3(k)} P_4(k) sigma^{lin}_{P_4(k)} N_modes
### header ###
0.00050000 0 0 0 0 0 0 0 0 0 0 0 0
0.00150000 0.00179520 57621.37486547 0 -31589.01053785 0 45022.28717758 0 35171.23978643 0 -143197.26964707 0 3
0.00250000 0.00253879 101922.30008111 0 -26909.62462300 0 38556.16020674 0 -36621.49289118 0 97881.23369205 0 6
0.00350000 0.00331552 89766.10538597 0 17085.81515090 0 23955.63908463 0 -52500.86752984 0 70232.97428040 0 7
0.00450000 0.00420575 67477.07263304 0 50323.16268451 0 19369.48214475 0 -23868.83205805 0 50827.72852649 0 24
0.00550000 0.00557378 38072.96395165 0 -729.29417543 0 23544.74511061 0 31999.46161888 0 11028.82165443 0 45
0.00650000 0.00659388 47108.31317341 0 -36211.15253340 0 25939.57824564 0 54497.31841789 0 -2974.41397766 0 40
0.00750000 0.00754703 65554.47415153 0 -25762.08887879 0 14169.14334717 0 22863.24351802 0 -36404.47532473 0 57
0.00850000 0.00846663 87644.64795072 0 -22733.91876414 0 -26647.65341779 0 33963.91348820 0 -31235.58192964 0 75
0.00950000 0.00948925 93333.49771929 0 -8934.53570429 0 -17535.46226179 0 -17122.79671580 0 -12425.03074174 0 112
0.01050000 0.01054430 99971.35644807 0 3869.95468131 0 -25885.76674702 0 -43100.68520530 0 2714.73474369 0 105
0.01150000 0.01145670 84370.56150184 0 17810.38808703 0 -18732.38057468 0 -16591.10367800 0 9336.66039705 0 144
0.01250000 0.01249090 79102.12790664 0 16255.39078950 0 -15028.90936934 0 -19430.60137775 0 26361.43382123 0 169
0.01350000 0.01339930 69462.89408927 0 -4340.55063076 0 -21891.97918493 0 -2360.71930226 0 -1195.97716529 0 180
0.01450000 0.01448870 84816.55474554 0 -10572.81902910 0 3833.13920129 0 -5419.54868433 0 -25527.13414614 0 267
0.01550000 0.01550050 88019.88903882 0 -766.36431893 0 -9558.20654435 0 -35442.17957474 0 -16194.71444950 0 238
0.01650000 0.01653350 88084.88358551 0 15087.92486062 0 30224.78939695 0 -19592.70021309 0 1168.36278719 0 315
0.01750000 0.01747870 72757.24289256 0 10012.11650029 0 8746.73800304 0 -19593.58599908 0 207.52969131 0 297
0.01850000 0.01844180 73035.93330824 0 -1971.70424208 0 40596.01460808 0 12082.67445835 0 -4704.22113942 0 388
0.01950000 0.01947590 73856.94619355 0 -3940.48539041 0 18260.14592117 0 19578.41691407 0 -24497.51866125 0 399
0.02050000 0.02045430 73443.50558482 0 1233.65628664 0 23337.24974351 0 10902.29819873 0 -33764.50091822 0 462
0.02150000 0.02154770 69504.08313759 0 7195.15098155 0 16141.78873686 0 925.68067905 0 -11465.83524270 0 571
0.02250000 0.02255340 67187.53133903 0 -231.41601764 0 23657.35065402 0 -5975.09150978 0 -5817.02300067 0 510
0.02350000 0.02348930 66900.31523324 0 -574.86292503 0 18603.05582080 0 -4460.07637717 0 -19172.94837922 0 555
0.02450000 0.02439640 68139.30838045 0 245.35053842 0 25062.42867350 0 -4976.26816022 0 -2874.69662034 0 592
0.02550000 0.02547300 68048.29387044 0 2283.87736802 0 28208.96194047 0 -6655.09833852 0 -9994.06861083 0 837
0.02650000 0.02652900 69332.90499590 0 2869.53691697 0 35254.61439231 0 -2914.91130408 0 -3821.29181374 0 723
0.02750000 0.02749970 65674.60887582 0 5641.85882204 0 37679.78569734 0 74.75978356 0 -6513.39472549 0 826
0.02850000 0.02848090 60482.79576835 0 5903.29855566 0 38287.76705313 0 4617.96772909 0 78.70994616 0 831
0.02950000 0.02946900 58423.56479858 0 2268.78578929 0 33682.67643781 0 13644.64732051 0 1071.13781019 0 996
0.03050000 0.03053250 53795.99736388 0 521.99700295 0 30238.74052622 0 11558.51060143 0 -199.37270961 0 1041
0.03150000 0.03150510 55133.20203222 0 1675.69671038 0 25341.11908919 0 13976.37417208 0 2379.61976072 0 1036
0.03250000 0.03246190 53819.80286224 0 -2233.98547238 0 24328.11209153 0 -812.10409275 0 327.42746784 0 1059
0.03350000 0.03345080 54349.50288156 0 1023.22896793 0 28009.77081698 0 120.55215093 0 5081.52167994 0 1302
0.03450000 0.03451200 55088.24839346 0 3676.57652836 0 30107.75492361 0 -3257.83227604 0 8980.48585228 0 1339
0.03550000 0.03553350 51893.21834379 0 2754.48438978 0 31689.87941695 0 -502.29712263 0 11793.24388759 0 1365
0.03650000 0.03647120 51176.17458854 0 3102.76436695 0 29814.22759267 0 914.56517216 0 4451.40674684 0 1308
0.03750000 0.03744890 47132.67228801 0 2746.99949821 0 32572.34370500 0 5432.68046157 0 5720.74913637 0 1579
0.03850000 0.03847530 47391.21107253 0 328.99641627 0 34398.28079084 0 5850.05174561 0 8749.11855287 0 1662
0.03950000 0.03950240 46633.86405493 0 -10.40429825 0 29344.09668087 0 4952.09727514 0 5672.10841345 0 1683
0.04050000 0.04050350 48014.80440632 0 -1804.52320964 0 25785.23003766 0 5997.81192031 0 8633.41275852 0 1822
0.04150000 0.04152450 47163.78552075 0 885.02863847 0 26344.60388750 0 4524.79411574 0 5607.93321880 0 1887
0.04250000 0.04250150 46832.83373192 0 1490.43457151 0 21798.63948671 0 7010.53103752 0 11389.43620145 0 1920
0.04350000 0.04349210 45083.96002682 0 1653.29739727 0 22686.19704417 0 7689.12060868 0 8796.18700568 0 2005
0.04450000 0.04448520 42914.00580886 0 1856.39705142 0 18770.69081855 0 7375.38628495 0 14502.42032421 0 2151
0.04550000 0.04548030 41404.18359659 0 1872.30798218 0 16240.00025800 0 6372.47724753 0 15097.44705997 0 2274
0.04650000 0.04648670 41010.00883305 0 -2074.74329684 0 11559.28566417 0 5705.38074953 0 16346.07312977 0 2311
0.04750000 0.04749250 41270.54063603 0 -1276.32902649 0 9377.70550515 0 3743.36479166 0 10735.94759066 0 2568
0.04850000 0.04851840 42359.06088895 0 233.43450245 0 5931.15652490 0 -1896.41243331 0 6791.40972936 0 2493
0.04950000 0.04949480 40516.40459263 0 2993.69089517 0 10225.09266817 0 -6751.29469655 0 8772.41472429 0 2644
0.05050000 0.05050630 39198.68721596 0 2810.37748547 0 9993.74751341 0 -5606.93670956 0 9554.89591923 0 2829
0.05150000 0.05149060 38107.73105158 0 1488.77372279 0 17791.01151860 0 -1713.33154244 0 4796.67505166 0 2784
0.05250000 0.05249300 36500.58310416 0 869.94038144 0 15781.71673376 0 335.94762179 0 5645.46839993 0 3055
0.05350000 0.05348950 36833.74935795 0 1566.93326369 0 17397.83326429 0 3757.96918810 0 4559.25119057 0 3009
0.05450000 0.05448610 35992.58484148 0 -202.84831238 0 17731.55313432 0 3822.45440784 0 6365.11415152 0 3336
0.05550000 0.05550870 36881.69252441 0 -1259.16692303 0 19380.44374632 0 770.43339830 0 9278.03243714 0 3349
0.05650000 0.05647670 37317.27778278 0 736.80674782 0 19981.89243047 0 272.24521541 0 7260.63271053 0 3324
0.05750000 0.05747970 36987.10105669 0 -75.74045937 0 18279.63321285 0 1479.40653599 0 11529.50111041 0 3639
0.05850000 0.05849280 35978.96588195 0 340.91688117 0 16228.81720994 0 4609.01021831 0 8966.88903741 0 3846
0.05950000 0.05951020 36442.89629185 0 587.10670181 0 14542.28069356 0 3425.79944354 0 7455.63849523 0 3787
0.06050000 0.06049470 34951.01124579 0 1152.21933760 0 11574.89764216 0 4130.68578614 0 6822.67797465 0 3930
0.06150000 0.06148310 33178.66421207 0 1763.47810154 0 9525.06707616 0 536.02453126 0 3915.89375699 0 4083
0.06250000 0.06249100 32167.98240262 0 592.57421581 0 8341.36911910 0 578.51789945 0 3966.94824673 0 4303
0.06350000 0.06350600 30692.26295079 0 322.08064218 0 7481.07162534 0 -958.19898981 0 2632.55594888 0 4470
0.06450000 0.06451750 31115.89009835 0 -48.43045948 0 7019.30031878 0 -588.92367031 0 -859.42278010 0 4479
0.06550000 0.06550280 31235.47120639 0 64.99122499 0 7229.35339292 0 -447.71388297 0 -1529.26521465 0 4636
0.06650000 0.06648880 31146.56043810 0 314.11078278 0 7704.10146416 0 -1396.70734192 0 1143.37255007 0 4653
0.06750000 0.06749660 31768.05003017 0 -585.27533929 0 9033.06832285 0 171.47820170 0 -2390.17168628 0 5220
0.06850000 0.06852730 30959.43814867 0 542.91151730 0 8581.87108649 0 1572.52478772 0 -914.13224426 0 5029
0.06950000 0.06949320 31674.82105520 0 862.19418300 0 6881.35022387 0 -812.81715047 0 -1550.63480155 0 5040
0.07050000 0.07048030 30203.53053330 0 1033.41882846 0 8394.09552989 0 -181.01258060 0 -1603.11762119 0 5475
0.07150000 0.07148790 29697.08239609 0 469.87181940 0 8420.53624155 0 -28.50437157 0 -688.41958113 0 5509
0.07250000 0.07249820 28572.79853401 0 1404.08151025 0 8766.24743937 0 -333.31019402 0 -2165.44778176 0 5916
0.07350000 0.07351270 27559.12719686 0 1569.11451167 0 8002.69991987 0 -225.28859308 0 -413.00435913 0 5721
0.07450000 0.07449140 27338.34503998 0 68.82180648 0 9113.87414937 0 -774.73056756 0 -533.61408615 0 6028
0.07550000 0.07549160 26651.41800823 0 -425.56591164 0 8541.10278651 0 1369.38084427 0 -1620.66725603 0 6183
0.07650000 0.07648840 27567.43144047 0 25.42593310 0 10055.27642243 0 833.95089685 0 -1142.34282386 0 6330
0.07750000 0.07749960 27214.88861825 0 486.67850124 0 8881.01208611 0 806.66758127 0 -645.25523006 0 6583
0.07850000 0.07848650 26341.61435980 0 632.38143799 0 8325.10387394 0 1297.36644365 0 335.46154673 0 6549
0.07950000 0.07947320 26204.98187154 0 256.01540169 0 7913.99952575 0 1557.84288501 0 -245.29517680 0 6828
0.08050000 0.08048110 25041.72342609 0 825.45067309 0 8297.57807444 0 965.71377666 0 -419.24693586 0 7147
0.08150000 0.08149960 24747.97464865 0 865.37636915 0 6865.15141266 0 -240.46099978 0 -980.92161480 0 7386
0.08250000 0.08250610 23476.76103622 0 891.56020288 0 7161.54647573 0 -314.15507208 0 687.29131124 0 7227
0.08350000 0.08350160 23438.00789936 0 612.50218602 0 7172.75166844 0 56.71421929 0 380.75842756 0 7798
0.08450000 0.08449610 22996.66503209 0 94.87255087 0 7204.19707093 0 308.73406185 0 -175.86948572 0 7371
0.08550000 0.08548940 22793.59859491 0 296.46038979 0 8025.68606620 0 47.89334100 0 624.19566826 0 8256
0.08650000 0.08650700 22880.18417500 0 626.64265204 0 8918.46976097 0 381.74940063 0 -613.24624624 0 8037
0.08750000 0.08749060 22694.05839479 0 13.29586909 0 9228.17375848 0 165.75491700 0 1801.46724799 0 8155
0.08850000 0.08849210 22530.07726423 0 426.65321393 0 8450.80797761 0 451.75306707 0 1454.41629888 0 8718
0.08950000 0.08949900 22274.08511442 0 311.41356445 0 8806.68356961 0 1334.10441740 0 2073.34818392 0 8571
0.09050000 0.09049190 22234.55691482 0 180.09468487 0 8737.17151439 0 531.27339668 0 2266.44952875 0 8932
0.09150000 0.09150830 21426.27720306 0 354.47162121 0 7407.92784759 0 1027.90370347 0 1373.11221773 0 9285
0.09250000 0.09250820 21106.72990879 0 728.61654916 0 7326.25837973 0 332.13763482 0 252.97604853 0 9204
0.09350000 0.09350330 20203.44965009 0 846.63092324 0 7039.71768575 0 82.65147235 0 46.68678977 0 9349
0.09450000 0.09448040 20028.83908770 0 573.43238066 0 6935.79284500 0 -207.03254392 0 454.86106864 0 9564
0.09550000 0.09549270 18751.42497337 0 749.02395103 0 7059.65894274 0 -551.78155671 0 382.78134131 0 10155
0.09650000 0.09649430 18572.93909729 0 1078.56844737 0 6387.12593326 0 865.39076318 0 1228.33049841 0 9913
0.09750000 0.09749140 17675.52717074 0 128.78331720 0 6424.65004207 0 429.61063189 0 1184.74982792 0 10476
0.09850000 0.09850240 17800.20154820 0 -185.57437843 0 6299.26703582 0 1398.15781647 0 1350.21465001 0 10575
0.09950000 0.09950330 17819.91028638 0 78.65392020 0 6704.96808950 0 206.54203993 0 1132.85384149 0 10882
0.10050000 0.10051200 17714.28030761 0 295.13281804 0 6150.55464119 0 -17.51143532 0 1191.13855934 0 10875
0.10150000 0.10150300 17203.73541022 0 390.56186396 0 5987.37071801 0 -697.63950601 0 1547.14701923 0 11118
0.10250000 0.10250800 17289.10303457 0 315.38520737 0 6849.81624278 0 -760.78165275 0 596.82155961 0 11575
0.10350000 0.10349800 16987.16073677 0 413.72295301 0 7137.84062829 0 -746.82055839 0 203.46171917 0 11364
0.10450000 0.10450100 16549.69318318 0 667.93799468 0 7113.79153878 0 -55.51231843 0 -192.32296040 0 12093
0.10550000 0.10551000 16148.09996201 0 216.78947655 0 6796.89053015 0 369.77689581 0 -795.07707165 0 12067
0.10650000 0.10649700 15721.37256350 0 -37.26568075 0 6305.61147795 0 808.57866453 0 -1061.63996996 0 12054
0.10750000 0.10749900 15719.26882178 0 183.42634741 0 6370.46208441 0 1037.55102008 0 -1069.34741527 0 12807
0.10850000 0.10850100 15518.85974257 0 276.25893316 0 5149.35074178 0 887.16448993 0 -1326.79668302 0 12736
0.10950000 0.10950300 15448.32903347 0 170.21374220 0 5121.73636369 0 429.25078134 0 -273.16643283 0 12933
0.11050000 0.11050200 15340.04169675 0 -50.44628694 0 5120.66234818 0 -148.47101796 0 -242.30675633 0 13428
0.11150000 0.11150900 15527.82832567 0 35.18629815 0 5665.91898387 0 189.89258510 0 -368.93318465 0 13453
0.11250000 0.11250000 15321.21874455 0 291.93513063 0 5937.15772496 0 51.35742855 0 667.73647837 0 13668
0.11350000 0.11349100 15329.30154167 0 176.66669311 0 5981.48024120 0 -376.68270480 0 115.09460202 0 13791
0.11450000 0.11448600 15062.01562055 0 383.11240382 0 5989.99485899 0 222.98333506 0 1457.67156237 0 14205
0.11550000 0.11549300 14861.93871108 0 381.05848756 0 5817.75377411 0 333.91474295 0 546.03944906 0 14776
0.11650000 0.11649800 14222.06905981 0 226.86639937 0 5778.30308078 0 1151.80966158 0 1789.04409955 0 14553
0.11750000 0.11747300 14308.65463989 0 243.51806867 0 4672.63179672 0 1456.77470406 0 838.16502368 0 14568
0.11850000 0.11849100 14006.38017234 0 -358.33586257 0 4327.82852954 0 1114.24126347 0 428.86214274 0 16015
0.11950000 0.11950300 14292.93193865 0 -62.86489573 0 3765.15512691 0 672.38685480 0 -125.63102632 0 15270
0.12050000 0.12050700 14155.08149465 0 157.16722187 0 3705.12098174 0 -569.59360565 0 -2.59997010 0 15999
0.12150000 0.12150000 14169.03262393 0 436.33817645 0 4023.83785164 0 -805.95784525 0 793.00322521 0 15670
0.12250000 0.12250700 13730.56856111 0 418.71989320 0 4244.30998343 0 -482.51309264 0 1344.41275180 0 16887
0.12350000 0.12352200 13665.46329117 0 185.81575511 0 4698.40816889 0 448.71592837 0 1370.70952325 0 16407
0.12450000 0.12449800 13329.97184917 0 93.76930442 0 4420.37102037 0 595.74200794 0 1080.50831868 0 16306
0.12550000 0.12549900 13474.35496480 0 167.90184078 0 4098.48746557 0 751.73113445 0 1147.75719070 0 17523
0.12650000 0.12650100 13120.15129385 0 89.80928745 0 4021.44622948 0 684.18220243 0 898.43279490 0 17154
0.12750000 0.12750600 12828.61698138 0 423.88734719 0 3901.93155539 0 -33.62720409 0 953.67483788 0 18007
0.12850000 0.12850300 12653.89569574 0 414.48915789 0 3599.73459411 0 -113.70502526 0 1076.33515946 0 17496
0.12950000 0.12949900 12373.43370809 0 37.37872919 0 3577.53458285 0 -315.20251401 0 983.46714227 0 18405
0.13050000 0.13049000 12503.75497120 0 75.78474867 0 3524.11061560 0 -114.23096069 0 1150.11559589 0 18100
0.13150000 0.13148800 12410.63671948 0 92.80955531 0 4125.26034698 0 54.45989396 0 436.46993712 0 19059
0.13250000 0.13249300 12319.06859323 0 140.75471479 0 4197.48512177 0 -349.29973829 0 797.11548665 0 18957
0.13350000 0.13349100 12252.63464431 0 295.01766586 0 4445.49412539 0 33.01113994 0 537.71306080 0 19468
0.13450000 0.13450700 12084.66747682 0 22.90542908 0 4411.01490590 0 163.67885610 0 917.61781211 0 19953
0.13550000 0.13551000 12115.89143280 0 -63.06995519 0 4663.68535826 0 452.06087770 0 828.71479445 0 19956
0.13650000 0.13649900 12165.16327825 0 27.53465736 0 4668.01463727 0 517.01667124 0 692.58720420 0 19723
0.13750000 0.13749600 11900.42399183 0 466.01311420 0 4360.76869587 0 141.93945355 0 1032.47103746 0 20946
0.13850000 0.13851100 11657.05429232 0 364.89067886 0 4115.00737420 0 306.40223024 0 1203.71672033 0 20955
0.13950000 0.13949800 11298.86458444 0 99.89872200 0 3788.19663485 0 166.52001465 0 1302.78081049 0 20506
0.14050000 0.14048300 11395.52598010 0 -59.12942551 0 3871.98091676 0 380.97323066 0 1059.49083171 0 21447
0.14150000 0.14148400 11293.66059177 0 51.63534390 0 3901.71010889 0 375.73823549 0 785.36442832 0 21771
0.14250000 0.14249400 11296.53939622 0 133.04837672 0 3524.84138904 0 248.98004650 0 781.36399736 0 22470
0.14350000 0.14350900 11002.31450882 0 272.31497105 0 3188.79633080 0 196.01225903 0 1085.98801224 0 22519
0.14450000 0.14449900 10782.17454677 0 236.74402034 0 3109.66242532 0 311.69923043 0 804.16080693 0 22218
0.14550000 0.14550500 10854.79792526 0 -164.49267197 0 2928.89565033 0 565.06391756 0 835.51320189 0 23559
0.14650000 0.14650700 10854.10036880 0 -16.93711383 0 2614.29768526 0 93.51176215 0 335.22792067 0 23044
0.14750000 0.14750500 10799.69096464 0 323.11147563 0 2685.26021502 0 -207.19862880 0 653.73995257 0 23649
0.14850000 0.14849900 10605.15021757 0 253.55070218 0 2740.40039261 0 -490.09209898 0 696.28646792 0 23640
0.14950000 0.14949500 10325.23077383 0 231.26432679 0 2693.53124166 0 -264.72599962 0 687.11193957 0 24457
0.15050000 0.15050000 10132.06299505 0 216.69979072 0 2900.38441392 0 303.84452321 0 653.86174814 0 24591
0.15150000 0.15149900 9998.30931124 0 122.13549338 0 2829.95335575 0 311.05703560 0 150.54043547 0 25020
0.15250000 0.15250500 9837.52808255 0 240.98139905 0 2759.74374407 0 156.18732112 0 198.16582621 0 25297
0.15350000 0.15350100 9667.34645008 0 194.69797408 0 2615.62636423 0 28.82823707 0 266.32262886 0 25452
0.15450000 0.15450400 9552.20534429 0 68.74529672 0 2606.69099810 0 7.23885345 0 265.08363572 0 26061
0.15550000 0.15549900 9375.61283576 0 76.51906525 0 2467.32364561 0 38.72080568 0 366.81061999 0 26128
0.15650000 0.15649500 9457.69197964 0 54.35935725 0 2841.30248869 0 -52.56099025 0 180.84428126 0 26331
0.15750000 0.15749700 9508.24821476 0 25.76529985 0 2870.88774060 0 99.76906507 0 320.15737936 0 27345
0.15850000 0.15849900 9511.18238084 0 17.25488955 0 2976.05268173 0 -103.11700393 0 26.54146982 0 26980
0.15950000 0.15949700 9411.28786633 0 129.24614038 0 2983.64829656 0 -116.59600927 0 291.32947447 0 27777
0.16050000 0.16050000 9515.21270708 0 190.74293965 0 3322.91540132 0 -185.52566020 0 270.04071554 0 28224
0.16150000 0.16150500 9277.08021720 0 85.32876049 0 2942.74712868 0 -177.52036935 0 339.10766329 0 28075
0.16250000 0.16249700 9290.35593466 0 94.49000205 0 3303.04057827 0 210.87906957 0 449.70800867 0 28590
0.16350000 0.16349900 9137.43605659 0 159.73710846 0 2970.85976139 0 205.75701210 0 380.30335501 0 29163
0.16450000 0.16449100 9184.12805035 0 134.03492086 0 3042.08802695 0 536.32237680 0 543.47066970 0 28996
0.16550000 0.16550500 8985.65662797 0 71.53441534 0 2646.96104347 0 352.44095684 0 692.36797216 0 30777
0.16650000 0.16650700 8889.90316294 0 33.48448182 0 2610.92062619 0 521.90510265 0 415.69714853 0 29211
0.16750000 0.16749900 8861.28120329 0 74.15457028 0 2471.56434602 0 21.28543723 0 361.05744001 0 30922
0.16850000 0.16850800 8778.47128597 0 223.98095152 0 2609.91304463 0 -48.72653345 0 120.56211602 0 30867
0.16950000 0.16949900 8460.11980278 0 245.53655348 0 2582.99622299 0 -287.23160705 0 441.34397450 0 30852
0.17050000 0.17049200 8453.03351490 0 117.64123673 0 2859.49431836 0 -281.83274147 0 672.63708934 0 31257
0.17150000 0.17149500 8394.42769963 0 -52.48060518 0 2755.63591157 0 -101.56997871 0 249.38307912 0 32608
0.17250000 0.17250900 8355.82957531 0 136.60702192 0 2919.43988493 0 177.62112751 0 127.86431424 0 32361
0.17350000 0.17350400 8374.55287658 0 57.27924003 0 2617.88511850 0 48.15287630 0 386.33002141 0 32508
0.17450000 0.17449800 8306.52451290 0 5.21365880 0 2641.46917036 0 514.93175248 0 396.88859036 0 32791
0.17550000 0.17549800 8324.59454700 0 -66.74474907 0 2355.06134428 0 215.61027396 0 531.49927211 0 33633
0.17650000 0.17650100 8306.13698153 0 132.45600734 0 2170.91751022 0 544.12947303 0 313.38997443 0 33984
0.17750000 0.17750300 8128.91335048 0 150.26473458 0 1903.91946954 0 165.20794415 0 303.01299161 0 34069
0.17850000 0.17849800 8027.71230164 0 81.35279937 0 1775.12618725 0 188.84625041 0 668.01882266 0 34536
