### header ###
fiducial parameters:
Omega_m = 0.31
Omega_nu = 0
Omega_de = 0.69
Omega_k = 0
H_0 = 100
w_de = -1
zeff = 0
beta = 0
fgrowth = 0
b_1 = 2
gamma = 0.55
Lx = 3500 Ly = 3500 Lz = 3500
nx = 700 ny = 700 nz = 700
xoffset = -685.467585 yoffset = -31.7331281 zoffset = 572.489161
bins = 400 dk = 0.001
kx_ny = 0.628318531 ky_ny = 0.628318531 kz_ny = 0.628318531
############################
A(data) = 8.05050904 (not used)
A(ran) = 8.04584667 (used)
Ngal = 477565
weighted Ngal = 0
Nran = 23820508
weighted Nran = 0
SN(data) = 3488.61054
SN(ran) = 70.0822425
SN(data+ran) = 3558.69278
############################
13 columns: k_central k_mean P_0(k) sigma^{lin}_{P_0(k)} P^img_1(k) sigma^{lin}_{P_1(k)} P_2(k) sigma^{lin}_{P_2(k)} P^img_3(k) sigma^{lin}_{P_3(k)} P_4(k) sigma^{lin}_{P_4(k)} N_modes
### header ###
0.00050000 0 0 0 0 0 0 0 0 0 0 0 0
0.00150000 0.00179520 23228.07662080 0 -35894.70549008 0 21123.22767277 0 -37128.71609112 0 -30946.81569837 0 3
0.00250000 0.00253879 40242.80744636 0 -36916.12745460 0 -13850.70328539 0 21511.53410416 0 28649.86191474 0 6
0.00350000 0.00331552 42410.21502961 0 -12332.13393651 0 7031.80097350 0 -36096.22180178 0 -19747.04842106 0 7
0.00450000 0.00420575 49713.63120324 0 -4641.75108280 0 -25555.03640468 0 -7458.57266131 0 12937.12576460 0 24
0.00550000 0.00557378 50052.33361944 0 783.25625767 0 -30922.56730702 0 -20723.62747007 0 12129.62111558 0 45
0.00650000 0.00659388 57372.91189654 0 1031.87866808 0 -41381.70677721 0 -20601.94262031 0 47179.72966849 0 40
0.00750000 0.00754703 57295.84851580 0 -14231.14836616 0 -37324.80696366 0 2430.72961209 0 17413.77741203 0 57
0.00850000 0.00846663 72708.08177036 0 -18869.45595594 0 -23176.47958714 0 -8724.11724343 0 11429.73946379 0 75
0.00950000 0.00948925 87081.50951044 0 -8003.38640401 0 -29454.15558957 0 -14507.84576338 0 -12156.30541839 0 112
0.01050000 0.01054430 90318.06077818 0 698.55850897 0 -3001.02077420 0 -19719.47833226 0 17359.41229717 0 105
0.01150000 0.01145670 87642.76565550 0 4351.08041166 0 -10657.22336120 0 -22351.48066490 0 16946.85747443 0 144
0.01250000 0.01249090 96232.34308006 0 -2850.60324153 0 16120.97276620 0 -8563.93392028 0 17410.45571458 0 169
0.01350000 0.01339930 94841.88052933 0 -4262.32465591 0 12158.63060660 0 -9336.82648192 0 9887.39783353 0 180
0.01450000 0.01448870 89581.19756150 0 10057.52410437 0 31127.29459292 0 13602.90465595 0 19612.74112101 0 267
0.01550000 0.01550050 82905.91437483 0 7921.45120035 0 34561.26541217 0 7954.61281319 0 34201.52557881 0 238
0.01650000 0.01653350 73023.75375094 0 6817.20824619 0 36357.41794425 0 22453.12460674 0 10381.01314627 0 315
0.01750000 0.01747870 69697.73809867 0 8001.39338555 0 30331.52660820 0 13604.34405817 0 19955.20812765 0 297
0.01850000 0.01844180 61706.39838406 0 8239.08298243 0 22768.46441758 0 8568.46250113 0 14115.66401830 0 388
0.01950000 0.01947590 59921.20745355 0 -155.31814363 0 20751.97262160 0 7992.97841868 0 26333.42083943 0 399
0.02050000 0.02045430 58860.58945917 0 -4404.58188518 0 7809.29962227 0 1486.08314786 0 24452.56502249 0 462
0.02150000 0.02154770 63476.30950632 0 -4308.97236037 0 7193.05831216 0 8797.71498650 0 11470.37489588 0 571
0.02250000 0.02255340 66775.08723954 0 -2199.17408315 0 7813.75069684 0 7331.44022774 0 17104.41665660 0 510
0.02350000 0.02348930 64471.60078427 0 473.29095330 0 -5291.66333268 0 7472.94453893 0 11669.34457287 0 555
0.02450000 0.02439640 66539.57889065 0 1025.90182714 0 9522.54258611 0 -3161.13766340 0 6848.85295052 0 592
0.02550000 0.02547300 67311.65210025 0 331.36589378 0 8004.31647930 0 -8447.28697832 0 5035.67118287 0 837
0.02650000 0.02652900 65505.42375259 0 5273.73723880 0 19523.38745973 0 -7336.95424550 0 3205.22766083 0 723
0.02750000 0.02749970 62096.36566417 0 6930.88780510 0 12216.64958865 0 -13542.67120893 0 8785.51328455 0 826
0.02850000 0.02848090 60972.74614158 0 2449.51934730 0 21711.05739739 0 -2056.01999557 0 6274.26572638 0 831
0.02950000 0.02946900 57287.32282569 0 400.74729556 0 16816.31476482 0 3612.29061046 0 1884.81970923 0 996
0.03050000 0.03053250 61408.22067669 0 -861.07809266 0 19691.90824347 0 7339.66696508 0 -385.13753203 0 1041
0.03150000 0.03150510 55992.52516140 0 144.30893106 0 18179.98228948 0 7928.12781222 0 5047.97253574 0 1036
0.03250000 0.03246190 63800.50717701 0 479.25118575 0 18945.63355069 0 7738.99035967 0 3573.79213706 0 1059
0.03350000 0.03345080 59510.31347953 0 -2408.89498754 0 12882.64992649 0 5507.79511314 0 11919.91128351 0 1302
0.03450000 0.03451200 60686.08365202 0 1101.78821975 0 11838.64041934 0 3723.54533024 0 9068.10115857 0 1339
0.03550000 0.03553350 61406.44910472 0 1010.59655254 0 14373.31701683 0 1073.45303331 0 11930.42999209 0 1365
0.03650000 0.03647120 56298.34277289 0 3866.52226062 0 10754.23907126 0 -1926.50701217 0 5223.08135275 0 1308
0.03750000 0.03744890 54686.43372579 0 2843.24014553 0 12914.31677548 0 1584.70434502 0 1253.37609715 0 1579
0.03850000 0.03847530 50463.33831671 0 1117.16435723 0 9946.76763921 0 -3133.10253696 0 -4541.07043322 0 1662
0.03950000 0.03950240 49701.23019944 0 2410.46725767 0 10980.74562007 0 -2517.01623940 0 -13170.41964853 0 1683
0.04050000 0.04050350 48072.71266512 0 1899.30231009 0 9098.53897950 0 -2470.57890911 0 -9985.65364397 0 1822
0.04150000 0.04152450 47135.55109247 0 2479.96824056 0 13218.69498474 0 -2599.31682978 0 -11381.13195784 0 1887
0.04250000 0.04250150 44807.92696909 0 1610.93468251 0 11018.94514070 0 -2231.13988491 0 -4509.07141450 0 1920
0.04350000 0.04349210 44694.32491645 0 1660.01829844 0 13803.75662816 0 5102.20478271 0 -5384.23904049 0 2005
0.04450000 0.04448520 43348.04094175 0 1605.40959243 0 14855.62748593 0 3585.47343975 0 463.88279890 0 2151
0.04550000 0.04548030 41487.44747923 0 812.97880641 0 14785.76111632 0 5576.48781631 0 359.67229218 0 2274
0.04650000 0.04648670 41220.16155810 0 1034.93905866 0 12292.60573691 0 3792.71414338 0 1385.32499201 0 2311
0.04750000 0.04749250 39909.41974607 0 819.97651570 0 13597.03632379 0 343.45022908 0 4637.16714032 0 2568
0.04850000 0.04851840 38557.04599272 0 1918.09204531 0 10970.97982958 0 -1727.62591378 0 3762.61956452 0 2493
0.04950000 0.04949480 38852.89851188 0 -204.57780951 0 13503.14300933 0 -1598.05756875 0 5256.65264160 0 2644
0.05050000 0.05050630 38452.85541618 0 -98.02439885 0 13033.34426728 0 -424.38892351 0 2981.47812089 0 2829
0.05150000 0.05149060 38938.70902922 0 -575.44865101 0 13901.08236331 0 240.24841115 0 -819.19923850 0 2784
0.05250000 0.05249300 39469.07338804 0 316.85339764 0 14254.17880178 0 1264.78059171 0 -492.47043435 0 3055
0.05350000 0.05348950 39459.99408168 0 946.73138299 0 14394.79732698 0 -27.07349503 0 2130.93534530 0 3009
0.05450000 0.05448610 37626.41709172 0 1582.48988006 0 14704.60097540 0 821.31294531 0 484.53379192 0 3336
0.05550000 0.05550870 36309.47477779 0 2827.30707012 0 15695.68476992 0 -1282.26379260 0 2062.15406352 0 3349
0.05650000 0.05647670 34823.45806388 0 1443.31075709 0 16450.37442956 0 1366.30273797 0 862.92384921 0 3324
0.05750000 0.05747970 33256.05976255 0 772.48731455 0 14442.07615395 0 1104.22191675 0 4291.76596761 0 3639
0.05850000 0.05849280 33434.32419213 0 -708.18146647 0 13954.67241544 0 3651.51985729 0 2470.57890911 0 3846
0.05950000 0.05951020 34053.48859599 0 -1445.31484788 0 11643.76750254 0 2457.75715697 0 -1982.31152926 0 3787
0.06050000 0.06049470 34276.37449459 0 1030.54334571 0 11798.22643376 0 -1128.98960013 0 -2377.75961015 0 3930
0.06150000 0.06148310 33354.04983719 0 1920.89334349 0 10572.77473980 0 -1051.59737135 0 -3945.00289893 0 4083
0.06250000 0.06249100 31632.52477439 0 1773.88608687 0 12158.74132985 0 -2476.03756524 0 -2257.62488587 0 4303
0.06350000 0.06350600 30162.89510121 0 1167.73166467 0 11806.53067737 0 -2291.09652380 0 -1271.78937332 0 4470
0.06450000 0.06451750 30476.24189358 0 152.60653128 0 13595.48619832 0 955.13970646 0 -865.46937668 0 4479
0.06550000 0.06550280 30298.08818725 0 -249.07526849 0 13853.69281309 0 3336.96618152 0 -1346.50542120 0 4636
0.06650000 0.06648880 30986.67606772 0 -630.66190595 0 13534.25624207 0 2604.69797964 0 382.39491717 0 4653
0.06750000 0.06749660 30600.69482454 0 -380.51594365 0 12431.12052039 0 3108.79878398 0 -1048.06308527 0 5220
0.06850000 0.06852730 30251.80586951 0 1072.17085809 0 12228.71842271 0 1804.24640152 0 307.97339313 0 5029
0.06950000 0.06949320 29609.94319977 0 1864.21411274 0 11050.49019410 0 -546.87319512 0 1304.50809316 0 5040
0.07050000 0.07048030 27940.90095661 0 979.54975375 0 12017.45846517 0 -920.17109022 0 2709.02142408 0 5475
0.07150000 0.07148790 28111.74692856 0 586.97272668 0 11330.30998692 0 597.45489659 0 4150.98135754 0 5509
0.07250000 0.07249820 27937.02564292 0 -591.12041956 0 12201.81267340 0 1051.46339622 0 2346.86782391 0 5916
0.07350000 0.07351270 28473.70122688 0 -262.66433274 0 11008.94683138 0 1365.87091730 0 3307.17055543 0 5721
0.07450000 0.07449140 28652.96216569 0 -254.67011422 0 10942.09213413 0 761.75158841 0 3358.52399794 0 6028
0.07550000 0.07549160 28709.54174552 0 326.46860451 0 10952.48904713 0 1605.54246033 0 4414.83485796 0 6183
0.07650000 0.07648840 28968.63414627 0 211.03518935 0 9634.78274279 0 1364.16577928 0 4237.32334647 0 6330
0.07750000 0.07749960 28116.50802823 0 414.53233996 0 9112.43474715 0 1697.32096075 0 3287.24037076 0 6583
0.07850000 0.07848650 27430.46678247 0 595.16735428 0 8497.53318834 0 2281.88434955 0 4521.49456294 0 6549
0.07950000 0.07947320 27085.67458761 0 479.29768952 0 5906.23272174 0 634.84281580 0 1958.93785156 0 6828
0.08050000 0.08048110 26608.01449494 0 493.88658470 0 7196.57931145 0 450.99239835 0 685.97481181 0 7147
0.08150000 0.08149960 25857.97521172 0 908.84410193 0 6605.60504658 0 -1652.64413011 0 64.98635317 0 7386
0.08250000 0.08250610 25147.90702110 0 1137.16097585 0 7752.64253617 0 -1272.94089510 0 678.27733160 0 7227
0.08350000 0.08350160 24517.44884593 0 980.31928033 0 8467.95900875 0 -609.63445389 0 1367.53176603 0 7798
0.08450000 0.08449610 23738.28934844 0 153.13578840 0 8720.68482274 0 260.91158372 0 1063.70495854 0 7371
0.08550000 0.08548940 23849.56621287 0 692.48201711 0 9644.08349564 0 787.33973106 0 935.09879854 0 8256
0.08650000 0.08650700 22824.26893466 0 745.61256775 0 8963.75556948 0 825.67987021 0 510.02671259 0 8037
0.08750000 0.08749060 22236.21776354 0 366.09091887 0 9249.31082656 0 1183.46543824 0 1244.29679079 0 8155
0.08850000 0.08849210 22241.42175621 0 348.70072551 0 8556.11685896 0 -108.43260563 0 601.20177131 0 8718
0.08950000 0.08949900 21660.78904272 0 772.49617241 0 9077.75622582 0 -754.72841278 0 150.97557783 0 8571
0.09050000 0.09049190 21121.78827055 0 631.47350736 0 9020.33514931 0 -78.86595522 0 1370.86453580 0 8932
0.09150000 0.09150830 20349.16144470 0 943.85922193 0 9126.15335760 0 216.33108231 0 1372.12678083 0 9285
0.09250000 0.09250820 19795.43448052 0 348.95871068 0 8236.41455215 0 1398.47891389 0 290.29974826 0 9204
0.09350000 0.09350330 19811.15718176 0 -71.25173889 0 8705.69289493 0 1067.63120492 0 576.96334504 0 9349
0.09450000 0.09448040 19148.92143436 0 447.43707485 0 7922.86845793 0 1335.26701150 0 1175.50443670 0 9564
0.09550000 0.09549270 19150.69300633 0 558.74494179 0 7969.13970335 0 1018.72031726 0 1774.66114961 0 10155
0.09650000 0.09649430 18819.74121750 0 -198.87999116 0 7198.20694320 0 331.72242264 0 1748.22043794 0 9913
0.09750000 0.09749140 19063.66453326 0 -140.44579693 0 7864.58374009 0 622.88802670 0 2364.55032665 0 10476
0.09850000 0.09850240 18793.72125418 0 241.16298518 0 7861.64957401 0 119.07621003 0 2725.77385153 0 10575
0.09950000 0.09950330 18765.26537939 0 666.80529586 0 7821.86671094 0 157.44070829 0 2854.70000172 0 10882
0.10050000 0.10051200 18357.02876333 0 523.71874946 0 7887.99063475 0 -282.14498103 0 4319.71251545 0 10875
0.10150000 0.10150300 17942.81309186 0 641.98114361 0 8471.42464642 0 213.79551992 0 3995.94666543 0 11118
0.10250000 0.10250800 17242.48854709 0 415.61299886 0 8459.85406699 0 675.21915549 0 2701.42580925 0 11575
0.10350000 0.10349800 16816.53621131 0 268.22706873 0 8472.72010843 0 62.56173548 0 2958.94593989 0 11364
0.10450000 0.10450100 16857.28236664 0 305.58730713 0 7632.75140303 0 -16.92792380 0 1862.70827657 0 12093
0.10550000 0.10551000 16385.26915963 0 -32.57699408 0 7561.05809983 0 202.67779857 0 1049.87119591 0 12067
0.10650000 0.10649700 16479.71609033 0 171.72511454 0 6733.09179454 0 314.98549644 0 370.19542968 0 12054
0.10750000 0.10749900 16285.61823626 0 181.13548341 0 6011.32015659 0 565.15360339 0 -140.49119346 0 12807
0.10850000 0.10850100 16181.98127596 0 143.18287562 0 5610.63486605 0 591.12927742 0 -339.71110499 0 12736
0.10950000 0.10950300 16050.99567335 0 -7.86348758 0 5123.13147661 0 982.55699717 0 -592.56978688 0 12933
0.11050000 0.11050200 15572.44979469 0 171.65868059 0 4682.60796138 0 748.23117257 0 -580.31161607 0 13428
0.11150000 0.11150900 15627.36852579 0 478.44290604 0 4356.99303311 0 408.27204750 0 -1211.95453000 0 13453
0.11250000 0.11250000 15106.85853606 0 305.36364617 0 4414.70199007 0 -216.21482290 0 117.01122145 0 13668
0.11350000 0.11349100 15018.61210726 0 327.23813109 0 4798.20303249 0 -248.76745786 0 -76.64872217 0 13791
0.11450000 0.11448600 14489.79787392 0 410.28278169 0 4619.60643316 0 505.09952804 0 346.90700889 0 14205
0.11550000 0.11549300 14455.25222049 0 130.97453028 0 4486.91569253 0 590.48818981 0 468.57082123 0 14776
0.11650000 0.11649800 14332.90303124 0 187.23190545 0 4260.76345811 0 747.51590039 0 748.12044932 0 14553
0.11750000 0.11747300 13981.57816475 0 246.18317725 0 3807.66178188 0 808.94405125 0 711.06912878 0 14568
0.11850000 0.11849100 14035.94327961 0 7.87472599 0 3442.61830494 0 558.42273714 0 597.19248249 0 16015
0.11950000 0.11950300 13741.53016268 0 -186.70486279 0 3214.32911183 0 -34.94071398 0 438.17728961 0 15270
0.12050000 0.12050700 14246.98179065 0 -6.66137635 0 3448.47556477 0 -287.21942749 0 199.87428593 0 15999
0.12150000 0.12150000 13914.59059959 0 104.84362226 0 3547.79431839 0 -698.84638942 0 183.92460203 0 15670
0.12250000 0.12250700 14019.66696212 0 484.25034041 0 4109.39370552 0 -585.17015220 0 30.61531029 0 16887
0.12350000 0.12352200 13438.25918589 0 242.30675633 0 4631.79706279 0 -275.88136688 0 26.93044059 0 16407
0.12450000 0.12449800 13638.66826511 0 376.17005616 0 4339.25516875 0 -14.89150182 0 -281.61793837 0 16306
0.12550000 0.12549900 13311.37034347 0 39.85162221 0 4617.90129514 0 88.98450998 0 -5.44725164 0 17523
0.12650000 0.12650100 13285.79327314 0 53.28467740 0 4139.86474342 0 661.04990142 0 -349.26984301 0 17154
0.12750000 0.12750600 13394.85567261 0 -132.79039155 0 3610.93978683 0 521.71355143 0 -86.85452685 0 18007
0.12850000 0.12850300 13099.66749294 0 4.65137293 0 3407.79584338 0 904.04867805 0 -992.89079793 0 17496
0.12950000 0.12949900 13183.48499182 0 158.95872403 0 2753.43251893 0 588.31579968 0 -351.94934562 0 18405
0.13050000 0.13049000 12729.63039750 0 279.73675038 0 2579.24270488 0 360.30784362 0 -197.15713742 0 18100
0.13150000 0.13148800 12863.71625106 0 166.60194985 0 2571.20419706 0 314.74411976 0 -21.93305751 0 19059
0.13250000 0.13249300 12662.42138585 0 60.01853319 0 2717.17065515 0 -270.32416705 0 115.98149524 0 18957
0.13350000 0.13349100 12446.06815890 0 375.61976161 0 2958.82414431 0 -123.93585339 0 696.38944054 0 19468
0.13450000 0.13450700 12343.64915432 0 326.51510827 0 3046.01870226 0 -272.89073195 0 880.47791297 0 19953
0.13550000 0.13551000 12039.93528455 0 277.34844992 0 3121.97485052 0 -9.70750577 0 886.90318307 0 19956
0.13650000 0.13649900 11955.89633917 0 168.48645953 0 3154.80429360 0 271.45022249 0 528.82530566 0 19723
0.13750000 0.13749600 11717.50918583 0 125.09401857 0 3279.56724966 0 -83.68728834 0 401.92096199 0 20946
0.13850000 0.13851100 11405.49107244 0 241.15966348 0 3161.22624200 0 294.41643863 0 47.08572563 0 20955
0.13950000 0.13949800 11486.65121336 0 98.63337672 0 3117.77843941 0 446.84027654 0 329.87334439 0 20506
0.14050000 0.14048300 11467.49609142 0 -100.62008396 0 2644.68014456 0 139.78256467 0 129.51519787 0 21447
0.14150000 0.14148400 11438.15443065 0 -7.42455848 0 3102.87509020 0 41.28471321 0 190.84148334 0 21771
0.14250000 0.14249400 11601.36049848 0 147.11576540 0 2785.14365721 0 -192.16019723 0 352.14864746 0 22470
0.14350000 0.14350900 11328.64913820 0 253.20303119 0 3220.49639675 0 -41.91605717 0 764.40341020 0 22519
0.14450000 0.14449900 11133.22260515 0 320.68110033 0 2964.33816207 0 -30.65971032 0 458.38538963 0 22218
0.14550000 0.14550500 10797.37684875 0 429.54309071 0 3318.58612232 0 19.25621226 0 249.78721898 0 23559
0.14650000 0.14650700 10494.60412658 0 419.50492103 0 3144.39630827 0 -52.49422413 0 147.20434400 0 23044
0.14750000 0.14750500 10329.15037682 0 101.54849840 0 3133.23540486 0 -245.51108713 0 99.54750785 0 23649
0.14850000 0.14849900 10193.60297639 0 9.54737781 0 3122.46203281 0 93.32929024 0 60.75772159 0 23640
0.14950000 0.14949500 10297.98178245 0 83.06214488 0 3380.70186455 0 -41.59174878 0 -50.26625093 0 24457
0.15050000 0.15050000 10237.61546754 0 79.03325805 0 3455.03038106 0 347.95223636 0 757.64264867 0 24591
0.15150000 0.15149900 10139.29322315 0 -34.41034962 0 3286.39887407 0 575.71438681 0 890.29685062 0 25020
0.15250000 0.15250500 10301.79066219 0 103.13427676 0 3307.40307425 0 514.46339314 0 1170.62154145 0 25297
0.15350000 0.15350100 10141.74020694 0 146.43813912 0 3115.56397445 0 530.92904738 0 1259.70946694 0 25452
0.15450000 0.15450400 10033.64109973 0 116.61815392 0 3002.90306942 0 349.30084552 0 1502.76914136 0 26061
0.15550000 0.15549900 9891.09599002 0 140.82557767 0 2775.15642022 0 -56.69683574 0 1497.08903873 0 26128
0.15650000 0.15649500 9822.31470825 0 264.57209431 0 2742.52627898 0 -69.44927513 0 1401.36879067 0 26331
0.15750000 0.15749700 9537.29092276 0 131.97325398 0 2510.58321868 0 214.61044303 0 1524.37124708 0 27345
0.15850000 0.15849900 9452.79801207 0 17.25953993 0 2394.73348410 0 65.32815583 0 1157.13544982 0 26980
0.15950000 0.15949700 9400.29304778 0 118.38086803 0 2185.01257971 0 124.75299096 0 576.52598821 0 27777
0.16050000 0.16050000 9285.08550804 0 81.34571308 0 2301.96954677 0 31.23292457 0 262.19597340 0 28224
0.16150000 0.16150500 9145.39705813 0 11.18116577 0 1994.85647328 0 -282.83146517 0 360.60568916 0 28075
0.16250000 0.16249700 9321.14806998 0 -73.04711636 0 2163.14473819 0 58.21108689 0 115.50981421 0 28590
0.16350000 0.16349900 9216.48138347 0 20.31140482 0 2168.10513971 0 -110.97901889 0 -136.67456310 0 29163
0.16450000 0.16449100 9201.54481729 0 106.90373902 0 2226.50058081 0 64.88205187 0 -480.23108650 0 28996
0.16550000 0.16550500 8992.92007305 0 218.23441494 0 2035.84621975 0 -40.54629987 0 -447.83124961 0 30777
0.16650000 0.16650700 8936.25191463 0 203.84260714 0 2052.91974463 0 35.63439513 0 -456.21521397 0 29211
0.16750000 0.16749900 8784.38390742 0 119.45377631 0 2049.77520438 0 31.96934490 0 -507.55979862 0 30922
0.16850000 0.16850800 8747.11446208 0 92.02984220 0 2010.41308965 0 35.82395333 0 -365.84732773 0 30867
0.16950000 0.16949900 8665.14604145 0 139.06507802 0 2034.34038358 0 11.57456547 0 -357.40025112 0 30852
0.17050000 0.17049200 8532.83175987 0 190.90570283 0 2153.00248866 0 8.82520757 0 114.83550962 0 31257
0.17150000 0.17149500 8366.71367061 0 260.63034667 0 2258.77640765 0 82.59533566 0 112.11503942 0 32608
0.17250000 0.17250900 8217.27050253 0 201.06234638 0 2174.80389623 0 -25.06431097 0 276.28772120 0 32361
0.17350000 0.17350400 8187.87348014 0 2.34340219 0 2245.42318392 0 369.38382827 0 332.32586434 0 32508
0.17450000 0.17449800 8195.03727430 0 -95.77140220 0 2221.20800954 0 299.60935897 0 234.93590970 0 32791
0.17550000 0.17549800 8159.68334115 0 56.85683084 0 2216.60192242 0 80.89263355 0 264.55216412 0 33633
0.17650000 0.17650100 8222.16447010 0 129.36682872 0 1944.53275698 0 -226.27956616 0 178.62206567 0 33984
0.17750000 0.17750300 8025.39818575 0 155.73335581 0 2115.58910310 0 -106.67343466 0 249.46169263 0 34069
0.17850000 0.17849800 7926.51125280 0 150.92132344 0 2068.65351819 0 -59.03032820 0 127.73144634 0 34536
