### header ###
fiducial parameters:
Omega_m = 0.31
Omega_nu = 0
Omega_de = 0.69
Omega_k = 0
H_0 = 100
w_de = -1
zeff = 0
beta = 0
fgrowth = 0
b_1 = 2
gamma = 0.55
Lx = 3500 Ly = 3500 Lz = 3500
nx = 700 ny = 700 nz = 700
xoffset = -685.467585 yoffset = -31.7331281 zoffset = 572.489161
bins = 400 dk = 0.001
kx_ny = 0.628318531 ky_ny = 0.628318531 kz_ny = 0.628318531
############################
A(data) = 7.99771566 (not used)
A(ran) = 7.98730786 (used)
Ngal = 474862
weighted Ngal = 0
Nran = 23820508
weighted Nran = 0
SN(data) = 3494.95515
SN(ran) = 69.5723482
SN(data+ran) = 3564.5275
############################
13 columns: k_central k_mean P_0(k) sigma^{lin}_{P_0(k)} P^img_1(k) sigma^{lin}_{P_1(k)} P_2(k) sigma^{lin}_{P_2(k)} P^img_3(k) sigma^{lin}_{P_3(k)} P_4(k) sigma^{lin}_{P_4(k)} N_modes
### header ###
0.00050000 0 0 0 0 0 0 0 0 0 0 0 0
0.00150000 0.00179520 17943.47743135 0 -21658.90674750 0 -4806.75086725 0 -8070.88329611 0 -23972.13684861 0 3
0.00250000 0.00253879 27690.66641570 0 -15208.39175465 0 -1880.13611583 0 958.85225697 0 11101.00213993 0 6
0.00350000 0.00331552 33618.34623061 0 -5211.07895265 0 4756.22784910 0 -11214.38274607 0 8387.97253426 0 7
0.00450000 0.00420575 30205.52355176 0 8522.99953543 0 -5358.04191997 0 11662.14756174 0 20661.73317433 0 24
0.00550000 0.00557378 25643.83644973 0 -5363.66666097 0 -10767.42621012 0 21474.33109277 0 -3719.16068961 0 45
0.00650000 0.00659388 25735.95819222 0 -15766.65837201 0 -18428.99887465 0 14973.87991499 0 120.15576170 0 40
0.00750000 0.00754703 45616.42812735 0 -16558.21887329 0 -13502.14650010 0 7755.21131553 0 -4881.14581770 0 57
0.00850000 0.00846663 49347.35869824 0 -3634.40204312 0 -2831.86886794 0 -20302.21478747 0 11896.99157114 0 75
0.00950000 0.00948925 54249.51978845 0 5821.38549665 0 1797.19333061 0 -15036.32782697 0 14952.62105134 0 112
0.01050000 0.01054430 60548.78682427 0 1328.38002547 0 -7934.30616947 0 -12344.20277056 0 31214.32306599 0 105
0.01150000 0.01145670 63600.20882104 0 -9769.14540447 0 15313.13594744 0 -585.83670615 0 13630.47474475 0 144
0.01250000 0.01249090 70703.88025494 0 -7986.05821567 0 13972.83102814 0 -6363.86297882 0 -14900.69184794 0 169
0.01350000 0.01339930 74805.84443050 0 -246.57403032 0 27485.05334382 0 6170.73948933 0 -32249.36399004 0 180
0.01450000 0.01448870 71221.40071696 0 7971.98529083 0 10926.41372219 0 1153.42622101 0 -13239.40023215 0 267
0.01550000 0.01550050 62779.63882873 0 2662.68374471 0 18686.76259643 0 1362.00667594 0 -3900.34821294 0 238
0.01650000 0.01653350 69092.85699383 0 -519.28428337 0 1671.25670813 0 -5025.98289865 0 -18730.38755621 0 315
0.01750000 0.01747870 71109.01662005 0 -4769.22675843 0 9985.56506537 0 -10419.27910084 0 -14842.67286589 0 297
0.01850000 0.01844180 71773.46683242 0 -1683.71307355 0 -3957.24889018 0 -11978.26243531 0 -14699.61842923 0 388
0.01950000 0.01947590 77467.96348665 0 -4995.48971610 0 11152.48845033 0 -11420.32798770 0 -23224.31203036 0 399
0.02050000 0.02045430 85272.73452807 0 -7886.61766648 0 19224.32396637 0 -15674.20445977 0 -34867.08302366 0 462
0.02150000 0.02154770 88684.11780469 0 1992.79702086 0 34571.67339750 0 -7897.92251011 0 -25846.90288690 0 571
0.02250000 0.02255340 84598.87283960 0 7937.83824109 0 39402.30726938 0 -6832.31089724 0 -24850.72582297 0 510
0.02350000 0.02348930 79146.19575941 0 5581.43714551 0 31393.69472805 0 17884.35121682 0 -5986.32991947 0 555
0.02450000 0.02439640 79964.10839377 0 612.06704365 0 40999.60084772 0 15529.15700465 0 95.20162036 0 592
0.02550000 0.02547300 77869.77815432 0 2292.29233488 0 26900.10242365 0 17149.59174186 0 -17198.53141756 0 837
0.02650000 0.02652900 77936.87644272 0 1088.43831772 0 23725.88834464 0 1032.78992041 0 -13641.10417657 0 723
0.02750000 0.02749970 69495.22527774 0 1550.52407830 0 21307.36043451 0 -6164.63863835 0 -4742.89677002 0 826
0.02850000 0.02848090 74643.63487191 0 2325.94113000 0 25104.28206132 0 -2546.20288762 0 -11282.58826695 0 831
0.02950000 0.02946900 67691.87573452 0 2749.26932479 0 18581.68623390 0 -597.99744050 0 -12970.01056931 0 996
0.03050000 0.03053250 62512.35290761 0 7320.21289038 0 21507.21589748 0 3496.66232238 0 -5292.09515335 0 1041
0.03150000 0.03150510 57727.22629074 0 6248.73294535 0 21036.42064619 0 3541.94813089 0 -7449.95839260 0 1036
0.03250000 0.03246190 54126.50625971 0 4006.31036146 0 23850.34127561 0 6230.02071641 0 -2973.71642119 0 1059
0.03350000 0.03345080 51200.86587288 0 2917.57973436 0 22971.53085475 0 -1576.23401653 0 9112.64512132 0 1302
0.03450000 0.03451200 51393.30287823 0 971.76590941 0 24060.38327741 0 796.67480812 0 9343.86848051 0 1339
0.03550000 0.03553350 52739.47612968 0 -2470.03636519 0 25692.99757192 0 2111.08266690 0 15448.99337296 0 1365
0.03650000 0.03647120 55002.88076911 0 676.38839299 0 25846.79216366 0 8051.18563025 0 5948.51793022 0 1308
0.03750000 0.03744890 53318.66944094 0 2038.13819099 0 25346.54452835 0 6062.92826257 0 8667.26085549 0 1579
0.03850000 0.03847530 51150.37607171 0 1343.64876139 0 21234.83670694 0 1536.24077929 0 1922.00057597 0 1662
0.03950000 0.03950240 49583.08849363 0 -404.96806578 0 17244.37084230 0 5019.90419233 0 1685.91646619 0 1683
0.04050000 0.04050350 48471.42708184 0 139.52015057 0 13070.99017166 0 4020.69331140 0 -3153.15451720 0 1822
0.04150000 0.04152450 48469.43406337 0 1468.36742815 0 9270.48111161 0 2867.80963430 0 -7043.78122895 0 1887
0.04250000 0.04250150 46751.78431425 0 2039.22327882 0 8589.07916994 0 -2863.36963205 0 -9490.58785668 0 1920
0.04350000 0.04349210 44265.60449947 0 2999.27134687 0 7140.99624086 0 -2199.94914589 0 -7590.27796503 0 2005
0.04450000 0.04448520 41595.84553920 0 2472.51656595 0 10746.26699739 0 -1545.57474911 0 -10137.64344676 0 2151
0.04550000 0.04548030 40253.21543169 0 2933.90034115 0 10959.27638225 0 39.19193310 0 -6063.57045741 0 2274
0.04650000 0.04648670 39263.68176265 0 -246.94495320 0 13232.31394427 0 2915.27669080 0 -5836.99747465 0 2311
0.04750000 0.04749250 38979.56590780 0 -856.20405527 0 10541.79437496 0 3193.31383932 0 -2630.19754369 0 2568
0.04850000 0.04851840 39489.44646570 0 196.82386044 0 10609.66772610 0 2052.59864721 0 -4475.09044963 0 2493
0.04950000 0.04949480 39901.33694896 0 1081.61776563 0 9187.82620684 0 2446.56303658 0 -2448.73321224 0 2644
0.05050000 0.05050630 36933.28955807 0 1596.78425140 0 9254.22693877 0 -1025.70916869 0 -2491.06271002 0 2829
0.05150000 0.05149060 36361.29325794 0 1935.74133107 0 10390.87858768 0 366.31568707 0 -918.46373773 0 2784
0.05250000 0.05249300 34747.39119237 0 928.58827154 0 8118.38356958 0 -803.11557947 0 -3098.33543703 0 3055
0.05350000 0.05348950 34114.93999873 0 778.37557689 0 8962.33831191 0 1015.23253495 0 1199.49816458 0 3009
0.05450000 0.05448610 34572.44846024 0 -936.00451471 0 9225.97036584 0 2481.54051068 0 1766.97695618 0 3336
0.05550000 0.05550870 35512.15666760 0 -1676.25032662 0 8684.03542759 0 1845.39116055 0 2255.21111906 0 3349
0.05650000 0.05647670 36257.21340464 0 -499.53900652 0 9728.84214213 0 1870.30389139 0 558.16585920 0 3324
0.05750000 0.05747970 37019.65369165 0 1731.40157654 0 11396.19031959 0 -2456.70528611 0 1541.37833800 0 3639
0.05850000 0.05849280 35684.55276502 0 1853.64004254 0 12976.87541070 0 -2739.91321032 0 4602.92043966 0 3846
0.05950000 0.05951020 33891.61120714 0 1717.91548491 0 14381.39981395 0 -2725.71848991 0 6550.42057969 0 3787
0.06050000 0.06049470 32277.93058807 0 1490.45671616 0 14341.09655161 0 1422.90446244 0 5594.94538179 0 3930
0.06150000 0.06148310 32374.37053724 0 710.16673431 0 13794.12370557 0 1771.04049939 0 2842.44293814 0 4083
0.06250000 0.06249100 31423.14711207 0 -141.01712889 0 13714.62441337 0 3900.65823804 0 2879.22520119 0 4303
0.06350000 0.06350600 30485.65336968 0 -858.47277463 0 11787.59700193 0 511.11290765 0 2043.22038808 0 4470
0.06450000 0.06451750 31268.24528786 0 658.03822906 0 11817.49227894 0 1507.30879454 0 -1373.67690630 0 4479
0.06550000 0.06550280 31626.21354924 0 10.71357042 0 11907.73172621 0 -2687.03178699 0 1151.45534719 0 4636
0.06650000 0.06648880 29946.09898126 0 1804.56749894 0 12021.99811834 0 -2087.43218108 0 -1181.83780649 0 4653
0.06750000 0.06749660 31134.93449704 0 197.39408517 0 13026.47942589 0 -2150.40049233 0 -678.84091293 0 5220
0.06850000 0.06852730 29942.66656057 0 -61.26228744 0 14289.38879470 0 787.81141210 0 -272.55745497 0 5029
0.06950000 0.06949320 30628.04346684 0 575.54940917 0 13340.60128099 0 267.34681891 0 -441.62964048 0 5040
0.07050000 0.07048030 30005.33591904 0 76.34412252 0 13175.07002496 0 2417.25459278 0 -2012.53897601 0 5475
0.07150000 0.07148790 29110.58135045 0 1256.52063739 0 12484.59984926 0 2103.80814949 0 -369.30078584 0 5509
0.07250000 0.07249820 28257.23727667 0 624.19677549 0 11125.13980803 0 2402.63912402 0 -2256.68373826 0 5916
0.07350000 0.07351270 26922.46851979 0 613.21635097 0 10338.42898502 0 1927.79140185 0 -754.83692156 0 5721
0.07450000 0.07449140 26778.19612740 0 862.36469680 0 8807.27040282 0 754.17258207 0 -371.83191929 0 6028
0.07550000 0.07549160 26226.79435143 0 91.81415331 0 8232.97105913 0 777.41782079 0 -2396.54934537 0 6183
0.07650000 0.07648840 25878.12684289 0 381.33751015 0 8302.44989736 0 358.06126892 0 29.01868105 0 6330
0.07750000 0.07749960 26086.28654948 0 895.85847938 0 8323.01120455 0 117.70545622 0 114.36715028 0 6583
0.07850000 0.07848650 24288.03027569 0 856.90714790 0 8446.79979602 0 331.76781917 0 1510.76335988 0 6549
0.07950000 0.07947320 24471.83086768 0 585.94410771 0 8060.25386428 0 311.17329501 0 -102.31337459 0 6828
0.08050000 0.08048110 23850.45199885 0 90.65875621 0 9046.53226983 0 1001.14853778 0 1679.73810894 0 7147
0.08150000 0.08149960 23990.84907755 0 47.07465331 0 8674.42464965 0 182.22500017 0 545.85232677 0 7386
0.08250000 0.08250610 23403.13007618 0 563.78949298 0 8798.68935109 0 764.97363493 0 319.35574305 0 7227
0.08350000 0.08350160 22992.34682541 0 704.90959449 0 8015.05663437 0 -768.08495820 0 64.96542647 0 7798
0.08450000 0.08449610 22422.12209725 0 277.84006114 0 7123.14765325 0 -35.20113506 0 -536.45967363 0 7371
0.08550000 0.08548940 22111.65410933 0 162.24609727 0 7759.58488383 0 381.61321104 0 265.39698251 0 8256
0.08650000 0.08650700 22502.61789868 0 -57.03088778 0 7407.34101438 0 746.34555566 0 -1200.27322732 0 8037
0.08750000 0.08749060 21946.89791603 0 267.10101330 0 8268.91182549 0 454.62301366 0 -198.85895374 0 8155
0.08850000 0.08849210 22029.60818243 0 787.23786568 0 7674.21725948 0 401.68512147 0 -874.83102732 0 8718
0.08950000 0.08949900 21351.09611754 0 495.70023150 0 7915.95932724 0 -113.82128467 0 644.87544932 0 8571
0.09050000 0.09049190 20809.88088040 0 444.28810567 0 7934.35045877 0 138.15050399 0 -228.92585179 0 8932
0.09150000 0.09150830 20823.49983993 0 616.16934000 0 8197.78321085 0 -152.17692507 0 31.24145026 0 9285
0.09250000 0.09250820 20106.67753117 0 422.47119685 0 8019.02052666 0 -75.42777692 0 -354.95437457 0 9204
0.09350000 0.09350330 19524.93758520 0 560.02379530 0 7423.90521230 0 731.19418637 0 -512.94648464 0 9349
0.09450000 0.09448040 19108.06455578 0 479.11167446 0 6760.96083611 0 346.67449007 0 -881.49213793 0 9564
0.09550000 0.09549270 18580.91117116 0 518.84914100 0 6801.07586893 0 806.09624931 0 -1842.76701957 0 10155
0.09650000 0.09649430 18250.18082883 0 515.09894459 0 5869.67190519 0 406.97104934 0 -1229.78097296 0 9913
0.09750000 0.09749140 17737.42146648 0 -117.28249341 0 6259.67240227 0 549.43200938 0 -740.27017103 0 10476
0.09850000 0.09850240 18071.58422951 0 -31.04137335 0 6278.28498029 0 213.83427306 0 178.90662442 0 10575
0.09950000 0.09950330 18302.66364847 0 -169.69666464 0 6521.56610121 0 1375.72528639 0 -421.49461780 0 10882
0.10050000 0.10051200 18147.42965451 0 147.63837913 0 6649.85005656 0 292.10121551 0 1476.94847988 0 10875
0.10150000 0.10150300 18184.96483565 0 608.84499713 0 6496.32120062 0 87.53868580 0 2057.23795130 0 11118
0.10250000 0.10250800 18093.50743265 0 101.04038941 0 6838.68855634 0 538.55898641 0 2083.10290208 0 11575
0.10350000 0.10349800 17696.45386465 0 286.37239464 0 6464.32218190 0 222.31124494 0 1496.43577156 0 11364
0.10450000 0.10450100 17286.22423012 0 302.77382940 0 6232.20196440 0 47.72360226 0 715.54677694 0 12093
0.10550000 0.10551000 16890.83151084 0 412.51496237 0 5792.81889862 0 -28.55331124 0 646.25063206 0 12067
0.10650000 0.10649700 16856.17513416 0 229.46507401 0 5163.35723268 0 419.30340472 0 -109.85606371 0 12054
0.10750000 0.10749900 16581.02786242 0 -18.44516447 0 5013.33830371 0 -23.20128159 0 -1028.72084104 0 12807
0.10850000 0.10850100 16047.67397591 0 518.21248232 0 5149.87114105 0 89.01274441 0 -1486.84713827 0 12736
0.10950000 0.10950300 16148.54285500 0 863.84949556 0 5973.30886549 0 -600.25398030 0 -705.37684659 0 12933
0.11050000 0.11050200 15310.58931273 0 752.26482050 0 6225.40355696 0 -323.61194471 0 277.24990623 0 13428
0.11150000 0.11150900 14763.06285045 0 427.17914936 0 6430.05333658 0 344.05920695 0 760.81597696 0 13453
0.11250000 0.11250000 14603.62137306 0 36.73963460 0 6909.93896655 0 668.77174074 0 916.91250502 0 13668
0.11350000 0.11349100 14727.07779479 0 17.81791727 0 6550.73060478 0 919.14690017 0 720.56696901 0 13791
0.11450000 0.11448600 14466.87816155 0 189.52166222 0 6291.29496195 0 771.97688038 0 1354.47749507 0 14205
0.11550000 0.11549300 14236.90597506 0 116.32916624 0 5694.45236493 0 165.65748054 0 466.39068048 0 14776
0.11650000 0.11649800 14084.88295530 0 48.32228287 0 4910.11101943 0 337.17222091 0 201.65250129 0 14553
0.11750000 0.11747300 14100.93782629 0 173.92075655 0 4569.68132055 0 114.95176903 0 107.94165875 0 14568
0.11850000 0.11849100 13833.98407491 0 146.28755550 0 4300.71240606 0 -221.65465608 0 65.32261967 0 16015
0.11950000 0.11950300 13868.30828185 0 -106.78626165 0 4293.09464658 0 516.99674106 0 -940.75564929 0 15270
0.12050000 0.12050700 13829.88731473 0 33.32581541 0 3924.90662939 0 232.75355448 0 -975.61907844 0 15999
0.12150000 0.12150000 13521.96596152 0 452.73961121 0 4039.75985473 0 393.99760635 0 -311.21094091 0 15670
0.12250000 0.12250700 13427.29758432 0 356.78573710 0 4222.69680539 0 163.68328503 0 -150.95896934 0 16887
0.12350000 0.12352200 13092.47048181 0 183.57028763 0 4687.56836290 0 120.59311853 0 794.20235799 0 16407
0.12450000 0.12449800 13223.23463792 0 155.38789927 0 4691.08936219 0 308.08190192 0 719.09767151 0 16306
0.12550000 0.12549900 13042.64502012 0 24.97971841 0 4563.49189098 0 448.67717523 0 1188.87980508 0 17523
0.12650000 0.12650100 13042.09140388 0 10.55559049 0 4641.23068353 0 339.63470595 0 1647.65051161 0 17154
0.12750000 0.12750600 13243.05409934 0 -26.52397555 0 4641.36355143 0 260.97912491 0 1280.31506343 0 18007
0.12850000 0.12850300 13037.33030421 0 136.41547070 0 4368.44181697 0 49.95135402 0 1344.43489645 0 17496
0.12950000 0.12949900 12964.47440690 0 310.33622725 0 4427.67875475 0 -130.18839522 0 1132.07877876 0 18405
0.13050000 0.13049000 12703.72115743 0 241.72878098 0 4503.55739674 0 49.74330503 0 1476.54987619 0 18100
0.13150000 0.13148800 12580.92907519 0 186.69932663 0 4368.46396162 0 -46.90413950 0 718.95594575 0 19059
0.13250000 0.13249300 12313.20026107 0 252.59626779 0 4367.41209077 0 305.11562610 0 1040.52393930 0 18957
0.13350000 0.13349100 12206.24160332 0 135.08568448 0 4354.05886703 0 279.16652565 0 568.72885708 0 19468
0.13450000 0.13450700 11976.60158659 0 67.46555742 0 4079.50950083 0 340.58028249 0 1100.40196468 0 19953
0.13550000 0.13551000 11876.50777022 0 184.27670196 0 3834.45680795 0 570.70526706 0 894.53201487 0 19956
0.13650000 0.13649900 11742.53263992 0 114.20881604 0 3618.46896771 0 407.66860580 0 938.62201229 0 19723
0.13750000 0.13749600 11655.39344360 0 149.25715302 0 3440.80244367 0 71.57028967 0 630.71062418 0 20946
0.13850000 0.13851100 11415.78833452 0 154.24412812 0 3547.24070215 0 68.06302006 0 760.48269998 0 20955
0.13950000 0.13949800 11467.82826117 0 32.54322349 0 3263.70060819 0 -197.39629963 0 747.68198526 0 20506
0.14050000 0.14048300 11590.84178990 0 -118.31775578 0 3395.89309420 0 -55.09168081 0 1098.95591906 0 21447
0.14150000 0.14148400 11772.20647043 0 -146.92753588 0 3224.37171044 0 67.06916819 0 728.21905269 0 21771
0.14250000 0.14249400 11769.21694273 0 160.36380205 0 3428.31286127 0 87.85081464 0 378.97356880 0 22470
0.14350000 0.14350900 11476.68612102 0 356.03503347 0 3525.91540455 0 176.63679783 0 810.26387237 0 22519
0.14450000 0.14449900 11182.38372734 0 287.94023584 0 3233.05241310 0 241.29585308 0 787.11053394 0 22218
0.14550000 0.14550500 10978.59758906 0 243.26894136 0 3222.25689640 0 504.90576236 0 588.64907666 0 23559
0.14650000 0.14650700 10815.75690795 0 156.55824401 0 2944.31939880 0 273.06567468 0 576.13624238 0 23044
0.14750000 0.14750500 10553.82999204 0 195.28037836 0 2659.45062587 0 190.75401198 0 282.63880672 0 23649
0.14850000 0.14849900 10441.41267816 0 238.10591630 0 2587.33657432 0 132.40064572 0 917.14280938 0 23640
0.14950000 0.14949500 10218.34962236 0 125.88679703 0 2339.74831905 0 74.31046862 0 686.69894186 0 24457
0.15050000 0.15050000 10241.21397311 0 62.48278980 0 2569.36619114 0 48.03207723 0 821.39155881 0 24591
0.15150000 0.15149900 10041.93427102 0 127.85767084 0 2322.91838533 0 157.13954106 0 666.64253268 0 25020
0.15250000 0.15250500 10032.36778238 0 273.14428818 0 2600.47942388 0 121.14119861 0 934.99139699 0 25297
0.15350000 0.15350100 9769.67687606 0 137.55481292 0 2607.33319294 0 -29.56465739 0 1194.03950844 0 25452
0.15450000 0.15450400 9586.18630916 0 121.48997684 0 2661.05611296 0 325.72122259 0 1077.53650670 0 26061
0.15550000 0.15549900 9604.04596910 0 8.46771542 0 2289.92285737 0 198.75376666 0 1012.46888267 0 26128
0.15650000 0.15649500 9753.41163090 0 -259.75563301 0 2298.09423308 0 297.28084906 0 623.02421629 0 26331
0.15750000 0.15749700 9793.07269840 0 88.03206860 0 1977.50614029 0 -26.57512969 0 784.74769982 0 27345
0.15850000 0.15849900 9805.03080920 0 140.91747797 0 1715.09204208 0 83.47458898 0 607.57610870 0 26980
0.15950000 0.15949700 9569.27886916 0 23.57176158 0 1768.57137096 0 30.44701096 0 474.69713855 0 27777
0.16050000 0.16050000 9691.11873147 0 102.86510854 0 1687.55517026 0 94.96987660 0 437.87722960 0 28224
0.16150000 0.16150500 9613.15849242 0 106.28103147 0 1985.58893740 0 38.95542824 0 144.86365453 0 28075
0.16250000 0.16249700 9545.65052800 0 97.31643440 0 1954.51999396 0 -222.26141948 0 329.96856639 0 28590
0.16350000 0.16349900 9481.82964775 0 199.35388666 0 2160.40987396 0 -139.56776157 0 483.79748232 0 29163
0.16450000 0.16449100 9284.52081948 0 194.75001400 0 2155.16159200 0 -222.49283107 0 319.03796732 0 28996
0.16550000 0.16550500 9103.65439357 0 314.18386012 0 2551.19650611 0 16.80579606 0 375.59429527 0 30777
0.16650000 0.16650700 8908.92541698 0 173.98497604 0 2353.01296418 0 -180.17772731 0 272.86748006 0 29211
0.16750000 0.16749900 8709.71214884 0 238.09041504 0 2473.15876079 0 246.90509283 0 225.85217442 0 30922
0.16850000 0.16850800 8487.49058973 0 262.00552942 0 2352.31540772 0 53.40957323 0 381.79811886 0 30867
0.16950000 0.16949900 8345.52124091 0 22.53705283 0 2104.67179083 0 314.88141659 0 219.01501384 0 30852
0.17050000 0.17049200 8339.15465414 0 -61.60054696 0 1677.30219748 0 471.66110709 0 267.82735781 0 31257
0.17150000 0.17149500 8332.76592272 0 72.85036114 0 1816.71383927 0 254.99342611 0 265.16999985 0 32608
0.17250000 0.17250900 8259.06852872 0 28.01929302 0 1575.32608590 0 19.77018958 0 -60.70069912 0 32361
0.17350000 0.17350400 8179.03776494 0 103.14014509 0 1803.18345834 0 -27.80548642 0 448.90637235 0 32508
0.17450000 0.17449800 8282.59721896 0 16.60140094 0 1725.47788276 0 -146.44256805 0 69.39413495 0 32791
0.17550000 0.17549800 8196.29951933 0 70.00433077 0 1977.34005541 0 -12.55048018 0 446.72401713 0 33633
0.17650000 0.17650100 8228.78572035 0 141.30279487 0 1910.68466000 0 -177.12951629 0 437.59599255 0 33984
0.17750000 0.17750300 8148.50029309 0 118.50377084 0 1983.75093148 0 160.00284426 0 664.39263628 0 34069
0.17850000 0.17849800 8058.94732995 0 125.43172448 0 1933.07290079 0 18.95471286 0 482.01705249 0 34536
