### header ###
fiducial parameters:
Omega_m = 0.31
Omega_nu = 0
Omega_de = 0.69
Omega_k = 0
H_0 = 100
w_de = -1
zeff = 0
beta = 0
fgrowth = 0
b_1 = 2
gamma = 0.55
Lx = 3500 Ly = 3500 Lz = 3500
nx = 700 ny = 700 nz = 700
xoffset = -685.467585 yoffset = -31.7331281 zoffset = 572.489161
bins = 400 dk = 0.001
kx_ny = 0.628318531 ky_ny = 0.628318531 kz_ny = 0.628318531
############################
A(data) = 8.00669538 (not used)
A(ran) = 8.00253659 (used)
Ngal = 475491
weighted Ngal = 0
Nran = 23820508
weighted Nran = 0
SN(data) = 3491.92969
SN(ran) = 69.704996
SN(data+ran) = 3561.63469
############################
13 columns: k_central k_mean P_0(k) sigma^{lin}_{P_0(k)} P^img_1(k) sigma^{lin}_{P_1(k)} P_2(k) sigma^{lin}_{P_2(k)} P^img_3(k) sigma^{lin}_{P_3(k)} P_4(k) sigma^{lin}_{P_4(k)} N_modes
### header ###
0.00050000 0 0 0 0 0 0 0 0 0 0 0 0
0.00150000 0.00179520 7368.68752843 0 -13778.95462056 0 -16958.37269224 0 19112.49348571 0 48235.03294696 0 3
0.00250000 0.00253879 13075.19765509 0 -11767.55609401 0 1483.00504156 0 -15457.07617008 0 -26562.50723993 0 6
0.00350000 0.00331552 26837.32234193 0 -19656.03391105 0 -6276.14802160 0 -44521.59664928 0 -35216.19342519 0 7
0.00450000 0.00420575 34588.06043823 0 -9758.39417707 0 -3056.67027873 0 -3693.09643699 0 9063.58365005 0 24
0.00550000 0.00557378 40971.58786593 0 1142.86322313 0 5525.53297750 0 -36364.39350889 0 -8511.96042758 0 45
0.00650000 0.00659388 32386.32864804 0 10590.97764181 0 15617.62487995 0 4704.13256083 0 -8133.70766713 0 40
0.00750000 0.00754703 44279.66635199 0 -1981.90185324 0 22133.02369623 0 -20080.87901435 0 -9310.75115697 0 57
0.00850000 0.00846663 37417.03942940 0 -11392.64717565 0 14701.94361745 0 -8650.14304132 0 -17942.14875238 0 75
0.00950000 0.00948925 51941.16151026 0 -6935.52710920 0 25876.90888716 0 -3036.27505642 0 -8577.90719420 0 112
0.01050000 0.01054430 57773.39788523 0 -6947.35235211 0 21126.43864697 0 -907.48663490 0 -16145.44260405 0 105
0.01150000 0.01145670 60660.28513519 0 -44.76707009 0 25669.30279681 0 6428.49213878 0 16630.85332410 0 144
0.01250000 0.01249090 65703.61836684 0 -796.47550627 0 28221.25222101 0 4355.77507738 0 -445.68432583 0 169
0.01350000 0.01339930 64431.85113817 0 -5099.22632733 0 26485.22241270 0 12526.12106733 0 -4193.96412248 0 180
0.01450000 0.01448870 74513.64577854 0 -413.03425441 0 37769.13935863 0 10106.29769519 0 7828.70940767 0 267
0.01550000 0.01550050 76366.48861369 0 2218.96032761 0 36331.39798093 0 -5047.16425603 0 14204.57478659 0 238
0.01650000 0.01653350 71902.01652357 0 10317.49121878 0 44600.87449498 0 -3711.05574784 0 8700.23423880 0 315
0.01750000 0.01747870 74565.35353544 0 1343.59339977 0 38338.14613106 0 -2314.74700961 0 6024.25263198 0 297
0.01850000 0.01844180 75411.94349108 0 -10919.17242175 0 35133.15098905 0 -426.90898464 0 -25893.29592789 0 388
0.01950000 0.01947590 85113.18232743 0 -3904.74392589 0 44684.35982411 0 -6999.06010901 0 -15509.11609673 0 399
0.02050000 0.02045430 87309.15650871 0 2994.73169370 0 40767.63564277 0 -4621.20084793 0 -22078.10496513 0 462
0.02150000 0.02154770 80597.66681989 0 4883.52636754 0 35113.22080438 0 3885.10162167 0 -11247.15682753 0 571
0.02250000 0.02255340 81078.31644027 0 255.29791504 0 41008.68015407 0 21558.48076139 0 -7381.77501637 0 510
0.02350000 0.02348930 80703.51824516 0 1573.67630950 0 38178.26176068 0 21771.29084441 0 -18458.67270517 0 555
0.02450000 0.02439640 71783.43192476 0 5483.80138526 0 31942.43914606 0 21543.86529263 0 994.12425491 0 592
0.02550000 0.02547300 70009.09187257 0 7572.98299366 0 29465.33863764 0 5120.68449283 0 -1388.46953226 0 837
0.02650000 0.02652900 63206.03405750 0 4984.90457358 0 25433.79444792 0 -2923.66951301 0 16842.66689788 0 723
0.02750000 0.02749970 57564.24166940 0 5544.53308689 0 30872.07750585 0 5742.47303767 0 8564.47646420 0 826
0.02850000 0.02848090 57496.58976476 0 4579.15923060 0 27484.27828108 0 603.06302911 0 8578.50509974 0 831
0.02950000 0.02946900 53265.74372831 0 18.94242258 0 26042.88303619 0 6138.46366248 0 3174.51303178 0 996
0.03050000 0.03053250 52587.67455642 0 540.63283285 0 21123.22767277 0 4443.44574530 0 -195.88714176 0 1041
0.03150000 0.03150510 51746.06714695 0 636.17481648 0 20524.21490008 0 507.59855175 0 8013.22970078 0 1036
0.03250000 0.03246190 51385.66297410 0 3540.38693309 0 21822.11281533 0 -1455.52353136 0 1151.42213022 0 1059
0.03350000 0.03345080 49681.41073802 0 1024.55100351 0 24215.06365513 0 3188.59702895 0 8166.51496557 0 1302
0.03450000 0.03451200 49734.00428091 0 782.34832704 0 21360.50759364 0 1362.01774827 0 4252.13811708 0 1339
0.03550000 0.03553350 48952.74104170 0 -1074.57023088 0 18843.54671586 0 3077.30909220 0 5933.54814706 0 1365
0.03650000 0.03647120 50192.95214464 0 -636.65424814 0 20989.36326572 0 5647.17353795 0 3091.54810191 0 1308
0.03750000 0.03744890 50316.85145936 0 1349.36208100 0 20040.13285901 0 5498.12897357 0 2682.61392939 0 1579
0.03850000 0.03847530 45193.46531928 0 3204.19793462 0 13562.71211686 0 4419.69560856 0 6609.58001119 0 1662
0.03950000 0.03950240 44746.80773609 0 3885.27877886 0 12394.69257174 0 3248.78618666 0 1709.35657783 0 1683
0.04050000 0.04050350 40801.84912646 0 1374.78413878 0 10857.49957251 0 -938.89882041 0 -7.27142823 0 1822
0.04150000 0.04152450 40590.92133866 0 218.98068964 0 12812.45138714 0 -359.18732435 0 -2898.81214380 0 1887
0.04250000 0.04250150 38874.71099177 0 501.29064830 0 13526.61633795 0 -1295.70559493 0 1101.16041893 0 1920
0.04350000 0.04349210 40986.09261144 0 -70.55506821 0 16185.96731289 0 381.70621857 0 1598.87692079 0 2005
0.04450000 0.04448520 42410.43647611 0 -3195.10755594 0 12881.76414051 0 8210.54960137 0 5291.80727290 0 2151
0.04550000 0.04548030 43159.36852684 0 -1505.48186094 0 9634.27341585 0 5760.81987989 0 16.62531716 0 2274
0.04650000 0.04648670 45739.44165608 0 97.76187403 0 6184.21450863 0 5428.69442463 0 2341.77455449 0 2311
0.04750000 0.04749250 43629.94233163 0 1757.16687639 0 8945.51945051 0 516.71107508 0 7491.18065790 0 2568
0.04850000 0.04851840 41614.77921464 0 2115.29015033 0 8112.83633484 0 -1857.89181527 0 5041.92704639 0 2493
0.04950000 0.04949480 40004.97390926 0 2404.72072109 0 10422.64508759 0 -3179.67273515 0 8350.35984685 0 2644
0.05050000 0.05050630 38619.93679769 0 1573.28877813 0 10366.65234098 0 -606.07691592 0 4013.72881908 0 2829
0.05150000 0.05149060 37760.17077553 0 456.08566777 0 14353.82972515 0 -51.28324397 0 8881.92001675 0 2784
0.05250000 0.05249300 35988.70952779 0 1462.60981924 0 12840.35364569 0 1223.03792714 0 4841.13043581 0 3055
0.05350000 0.05348950 37746.10892301 0 85.67067388 0 14549.03481170 0 990.13157458 0 6168.49180739 0 3009
0.05450000 0.05448610 35720.75926718 0 519.07169473 0 11970.29036144 0 163.42197816 0 2625.85719237 0 3336
0.05550000 0.05550870 36167.97046660 0 2117.07279462 0 13571.45925346 0 -1021.61683744 0 4279.92965237 0 3349
0.05650000 0.05647670 33586.90082813 0 380.55358955 0 10804.58493221 0 -223.99423831 0 2374.24968319 0 3324
0.05750000 0.05747970 33700.39215752 0 251.04282061 0 12863.71625106 0 724.68808831 0 -98.37361998 0 3639
0.05850000 0.05849280 33089.75344377 0 735.24112109 0 10672.60282037 0 -310.52667124 0 -3082.31378301 0 3846
0.05950000 0.05951020 32611.98262785 0 1067.71314012 0 11923.89732045 0 -1521.35957473 0 -5235.54879050 0 3787
0.06050000 0.06049470 31383.28674272 0 1173.26782708 0 10311.24642759 0 -663.41495000 0 -3233.39565517 0 3930
0.06150000 0.06148310 31414.73214521 0 -151.44282994 0 11214.16129957 0 564.80482516 0 -3190.00321420 0 4083
0.06250000 0.06249100 31181.43826128 0 -430.03138024 0 11182.49445059 0 1139.51938104 0 -2151.68488201 0 4303
0.06350000 0.06350600 31828.83709343 0 478.25910545 0 10668.68321738 0 2513.38451686 0 -2836.67425691 0 4470
0.06450000 0.06451750 31128.29110215 0 696.00523087 0 11070.96292269 0 36.43215614 0 -2372.97636583 0 4479
0.06550000 0.06550280 30260.99589910 0 1317.93882316 0 10984.35519796 0 78.74593122 0 -37.08697343 0 4636
0.06650000 0.06648880 30341.15953079 0 221.40109984 0 12776.02343849 0 172.73380333 0 1885.27367455 0 4653
0.06750000 0.06749660 29776.80313479 0 -161.63822663 0 12118.54879076 0 690.11032513 0 3009.23643921 0 5220
0.06850000 0.06852730 30608.11328217 0 -26.13899082 0 13534.47768857 0 2648.52224127 0 1975.84529156 0 5029
0.06950000 0.06949320 30219.91757403 0 19.68017158 0 11061.54037427 0 801.90315990 0 2656.50538746 0 5040
0.07050000 0.07048030 29771.82058862 0 868.89626121 0 12198.82314570 0 932.58095187 0 2624.06347575 0 5475
0.07150000 0.07148790 29084.78283362 0 776.86531179 0 11537.69463077 0 992.87751114 0 2869.27118118 0 5509
0.07250000 0.07249820 28998.97231628 0 170.61345313 0 10841.95402847 0 868.57405656 0 2077.76604152 0 5916
0.07350000 0.07351270 28066.79328979 0 1151.45534719 0 10524.30010175 0 -1251.09519823 0 1393.40778913 0 5721
0.07450000 0.07449140 27247.99486945 0 889.40331401 0 9200.14970436 0 -890.69434708 0 215.49069285 0 6028
0.07550000 0.07549160 26742.65396473 0 557.74068193 0 10112.13281037 0 273.58828841 0 -1519.69872601 0 6183
0.07650000 0.07648840 26436.83635324 0 61.69975499 0 10038.20289756 0 -1091.78437428 0 -2806.72361828 0 6330
0.07750000 0.07749960 26151.94543566 0 480.53114650 0 9521.64572779 0 591.93423543 0 -3400.73170015 0 6583
0.07850000 0.07848650 26042.21869670 0 408.37612736 0 9816.62353329 0 1093.59469939 0 -2542.15041674 0 6549
0.07950000 0.07947320 24935.20766134 0 654.12194778 0 9013.44816327 0 928.03244084 0 -1556.27061488 0 6828
0.08050000 0.08048110 24901.87996363 0 368.27770303 0 9433.58752851 0 1934.19120559 0 -957.21798183 0 7147
0.08150000 0.08149960 24621.30725273 0 184.77274211 0 8504.07693231 0 2687.14251024 0 -516.49737921 0 7386
0.08250000 0.08250610 23852.11284758 0 510.03889214 0 8894.73069656 0 270.23448122 0 331.91175939 0 7227
0.08350000 0.08350160 23701.52923004 0 840.13479026 0 8972.56914004 0 430.11663714 0 1529.58631207 0 7798
0.08450000 0.08449610 23211.02524058 0 615.72533977 0 9438.13825401 0 -1256.66457762 0 2014.91952585 0 7371
0.08550000 0.08548940 22627.84589238 0 815.81221434 0 9188.65663120 0 -711.95048584 0 3025.96672201 0 8256
0.08650000 0.08650700 22110.32543035 0 452.97766619 0 10020.36538228 0 528.05245739 0 1552.08527610 0 8037
0.08750000 0.08749060 22077.32990240 0 227.13102793 0 9852.61966127 0 -361.59001884 0 1373.92049745 0 8155
0.08850000 0.08849210 21339.47017648 0 303.31969501 0 9813.11360632 0 563.03214596 0 -250.55563832 0 8718
0.08950000 0.08949900 21527.25680540 0 391.93261777 0 9192.31049839 0 -243.04195870 0 -1144.92267555 0 8571
0.09050000 0.09049190 20601.61045057 0 318.73680009 0 8132.82188114 0 1090.42247832 0 -2226.73309963 0 8932
0.09150000 0.09150830 20603.60346903 0 248.63569720 0 7881.90085610 0 657.01846795 0 -2398.01089225 0 9285
0.09250000 0.09250820 20040.13285901 0 349.51564862 0 7206.92086283 0 327.46622098 0 -3002.05050040 0 9204
0.09350000 0.09350330 19894.53178765 0 616.50150974 0 7145.69090659 0 -46.75455240 0 -3675.58001912 0 9349
0.09450000 0.09448040 18934.89339562 0 984.60316280 0 6753.08841317 0 -65.46977087 0 -2175.80040546 0 9564
0.09550000 0.09549270 18580.80044791 0 546.99166899 0 7329.90117459 0 895.66692816 0 -1798.94275794 0 10155
0.09650000 0.09649430 18159.27704207 0 -245.51440883 0 6603.97741483 0 945.52560682 0 80.94434131 0 9913
0.09750000 0.09749140 18912.97019247 0 -264.37611416 0 7090.82753711 0 638.67273296 0 -1770.55331710 0 10476
0.09850000 0.09850240 18299.00978128 0 506.06171307 0 6561.06108384 0 817.86834505 0 -15.61031715 0 10575
0.09950000 0.09950330 18038.58870155 0 411.59706665 0 5335.35472641 0 818.48064462 0 408.52006758 0 10882
0.10050000 0.10051200 17850.13773313 0 -189.58698894 0 5258.37992427 0 754.69962473 0 263.63205393 0 10875
0.10150000 0.10150300 18011.46150574 0 -0.76411221 0 4804.96822295 0 1204.04889008 0 -1010.44486169 0 11118
0.10250000 0.10250800 17336.16041505 0 558.06288658 0 4453.30011438 0 149.44316808 0 -1644.45060974 0 11575
0.10350000 0.10349800 16853.62849945 0 833.85567486 0 3921.49635334 0 -48.58270395 0 -940.80658198 0 11364
0.10450000 0.10450100 16126.28748212 0 767.65756647 0 4280.30611142 0 -122.32593736 0 -966.55527335 0 12093
0.10550000 0.10551000 15830.10279322 0 223.89348016 0 4627.96603840 0 -228.41209592 0 -108.22278507 0 12067
0.10650000 0.10649700 15759.12919113 0 77.33210606 0 5045.59198591 0 278.36046041 0 -509.45870232 0 12054
0.10750000 0.10749900 15724.69426095 0 218.61530292 0 4780.95235042 0 131.34877486 0 58.48612343 0 12807
0.10850000 0.10850100 15575.88221538 0 159.41047488 0 4530.56279697 0 542.80522298 0 506.44924444 0 12736
0.10950000 0.10950300 15388.64920270 0 51.54189348 0 4500.27998859 0 848.21205122 0 65.68811711 0 12933
0.11050000 0.11050200 14981.63054237 0 378.01802717 0 3804.63903721 0 370.31168909 0 265.15117690 0 13428
0.11150000 0.11150900 14805.02696151 0 353.37213935 0 3579.23972088 0 333.96899734 0 -470.36010892 0 13453
0.11250000 0.11250000 14390.14695055 0 101.33148083 0 3550.71741214 0 -61.70994153 0 458.57251192 0 13668
0.11350000 0.11349100 14450.04822782 0 29.19439885 0 3846.52564200 0 -519.21895665 0 -277.48353228 0 13791
0.11450000 0.11448600 14781.88580264 0 132.11830143 0 4264.62769947 0 -607.67575963 0 -371.33809361 0 14205
0.11550000 0.11549300 14451.93052304 0 76.83518012 0 4448.83796748 0 -563.51822102 0 314.44073806 0 14776
0.11650000 0.11649800 14498.21284078 0 140.23542276 0 4751.47782175 0 107.12939300 0 1014.36446468 0 14553
0.11750000 0.11747300 14389.48261106 0 124.53708063 0 4505.73864473 0 757.23629435 0 32.00023668 0 14568
0.11850000 0.11849100 14701.16855471 0 -242.16503057 0 4616.01899992 0 1083.50781148 0 -322.21793901 0 16015
0.11950000 0.11950300 14309.54042587 0 165.60765508 0 3752.53267661 0 539.63300192 0 -473.29538223 0 15270
0.12050000 0.12050700 14273.88753996 0 73.60449719 0 3489.50960055 0 417.76102987 0 -397.23404689 0 15999
0.12150000 0.12150000 14128.39719184 0 288.43406153 0 3187.86625551 0 -237.82467924 0 -395.94522828 0 15670
0.12250000 0.12250700 13935.51729350 0 132.99744402 0 3170.17268045 0 341.10843239 0 -248.76524340 0 16887
0.12350000 0.12352200 13741.08726968 0 155.31814363 0 3275.30440460 0 -158.98640484 0 -159.25546233 0 16407
0.12450000 0.12449800 13834.86986090 0 270.69508993 0 3247.23606119 0 -355.51795590 0 -860.59644653 0 16306
0.12550000 0.12549900 13648.63335745 0 204.22128065 0 3563.24021151 0 -171.31543852 0 -558.70508142 0 17523
0.12650000 0.12650100 13357.09904497 0 145.78819365 0 3611.78128352 0 -724.93389392 0 -477.37110500 0 17154
0.12750000 0.12750600 13446.56342951 0 287.25928786 0 4183.67793273 0 -110.90926324 0 -566.68933485 0 18007
0.12850000 0.12850300 13212.49448284 0 287.14524292 0 4093.81494450 0 -306.16306803 0 -846.93762663 0 17496
0.12950000 0.12949900 12953.95569833 0 168.81530758 0 3800.74157887 0 358.55288014 0 -190.29893943 0 18405
0.13050000 0.13049000 12763.29026495 0 229.65994692 0 4093.06202641 0 409.82438744 0 -791.92699524 0 18100
0.13150000 0.13148800 12752.88227962 0 197.50037949 0 3703.88088136 0 131.32109405 0 -466.27331383 0 19059
0.13250000 0.13249300 12420.26964207 0 301.88029279 0 3955.42195659 0 18.39854998 0 -441.54549082 0 18957
0.13350000 0.13349100 12109.69093091 0 334.56468842 0 3796.13549175 0 140.76357265 0 52.42081462 0 19468
0.13450000 0.13450700 12184.31840018 0 113.78806770 0 3777.70007093 0 -77.61101792 0 -627.33356511 0 19953
0.13550000 0.13551000 11824.68929007 0 26.18793049 0 3850.98778890 0 98.84131498 0 -373.60902743 0 19956
0.13650000 0.13649900 11853.25588811 0 118.40190545 0 3872.63418392 0 -18.03183458 0 -580.25957614 0 19723
0.13750000 0.13749600 11759.25185040 0 179.01513320 0 4034.86588716 0 -133.88212278 0 -718.27499778 0 20946
0.13850000 0.13851100 11817.49227894 0 79.67755663 0 3969.19592866 0 53.49560519 0 -849.01036584 0 20955
0.13950000 0.13949800 11491.74448278 0 199.11250998 0 3649.84793624 0 292.39463211 0 -304.12243856 0 20506
0.14050000 0.14048300 11627.15901531 0 153.62186346 0 3911.57555031 0 190.55803183 0 -271.47236714 0 21447
0.14150000 0.14148400 11371.16686550 0 125.22356477 0 3829.60712967 0 553.64613621 0 13.12801264 0 21771
0.14250000 0.14249400 11259.55783133 0 221.64911992 0 3656.94529645 0 488.57629772 0 -186.17228397 0 22470
0.14350000 0.14350900 10956.08755270 0 313.57709672 0 3384.23393617 0 445.63560760 0 362.44148061 0 22519
0.14450000 0.14449900 10656.28221359 0 252.52208321 0 3106.40716182 0 105.77092946 0 511.42625444 0 22218
0.14550000 0.14550500 10705.79765017 0 -62.82857850 0 3380.79044315 0 130.52720836 0 628.58030888 0 23559
0.14650000 0.14650700 10528.48544053 0 93.90826210 0 3322.29535113 0 263.76049290 0 532.40720274 0 23044
0.14750000 0.14750500 10605.24986850 0 79.63902494 0 3250.46918004 0 114.95730520 0 660.10986104 0 23649
0.14850000 0.14849900 10549.56714698 0 9.73034798 0 3108.68806073 0 175.09885191 0 669.11498281 0 23640
0.14950000 0.14949500 10667.46526165 0 113.18905492 0 3276.51128801 0 -252.64720048 0 328.44501449 0 24457
0.15050000 0.15050000 10306.42996629 0 303.79469775 0 3193.36920095 0 -72.06046149 0 325.72454428 0 24591
0.15150000 0.15149900 10204.57565028 0 178.01640950 0 3394.24331781 0 -277.08160689 0 562.93913843 0 25020
0.15250000 0.15250500 10104.09430255 0 33.54338659 0 3015.14906066 0 73.81586787 0 109.74644769 0 25297
0.15350000 0.15350100 10048.89876333 0 147.48336658 0 3341.43940075 0 179.45470450 0 -218.31413568 0 25452
0.15450000 0.15450400 9872.48341200 0 245.35607459 0 3064.44305076 0 -158.51250934 0 -425.71760249 0 26061
0.15550000 0.15549900 9673.90126638 0 318.80877020 0 3131.61884543 0 184.49814845 0 -199.13797633 0 26128
0.15650000 0.15649500 9434.46224217 0 164.92559987 0 2769.79741501 0 185.34185960 0 -269.70854579 0 26331
0.15750000 0.15749700 9268.59881639 0 30.16466667 0 2914.40197714 0 607.95810391 0 -354.84032963 0 27345
0.15850000 0.15849900 9075.14315716 0 163.61795831 0 2586.81617506 0 503.69445002 0 -233.47104113 0 26980
0.15950000 0.15949700 9127.07236056 0 -23.65934367 0 2523.29424757 0 265.33829919 0 82.34244376 0 27777
0.16050000 0.16050000 9032.13824756 0 28.27938193 0 2325.55359863 0 102.05660738 0 -73.29391848 0 28224
0.16150000 0.16150500 9020.55659580 0 188.54176148 0 2563.03282135 0 -19.12290147 0 397.08457051 0 28075
0.16250000 0.16249700 8992.23358892 0 174.44004859 0 2670.94369903 0 -138.16268355 0 385.44202096 0 28590
0.16350000 0.16349900 8901.52910400 0 51.06423338 0 2648.11256525 0 -57.65979583 0 601.96686895 0 29163
0.16450000 0.16449100 8894.66426261 0 70.59537147 0 2830.90557568 0 -134.25636736 0 363.33723169 0 28996
0.16550000 0.16550500 8876.56101154 0 123.91370874 0 2931.01046437 0 -105.47507695 0 188.41442974 0 30777
0.16650000 0.16650700 8786.78660191 0 83.63314467 0 2953.17725865 0 -170.07865984 0 369.68499551 0 29211
0.16750000 0.16749900 8676.98235668 0 146.15247314 0 2850.40393969 0 232.33059167 0 400.52917076 0 30922
0.16850000 0.16850800 8771.00853904 0 -9.67345837 0 2825.44691955 0 160.09142286 0 335.76935736 0 30867
0.16950000 0.16949900 8583.87517728 0 121.08805145 0 2562.13596303 0 375.70169682 0 249.91012178 0 30852
0.17050000 0.17049200 8559.47177338 0 221.34463098 0 2602.95962464 0 178.65971158 0 370.82101604 0 31257
0.17150000 0.17149500 8274.70265137 0 173.16451677 0 2415.29479129 0 140.29410608 0 294.20827892 0 32608
0.17250000 0.17250900 8325.00422302 0 72.28301522 0 2393.32729885 0 139.44707323 0 229.05429076 0 32361
0.17350000 0.17350400 8214.20346856 0 -40.95929759 0 2255.98618180 0 -179.42923815 0 268.46180202 0 32508
0.17450000 0.17449800 8325.24781417 0 100.08540139 0 2344.88587777 0 -51.38876323 0 113.38060614 0 32791
0.17550000 0.17549800 8217.04905604 0 53.01683787 0 2358.84807936 0 -7.84199620 0 150.97114890 0 33633
0.17650000 0.17650100 8055.48169228 0 196.86039911 0 2233.55365172 0 33.40996508 0 -175.96027879 0 33984
0.17750000 0.17750300 8006.51987194 0 243.15821811 0 2339.07290724 0 -24.40296101 0 -98.59473430 0 34069
0.17850000 0.17849800 7863.76438805 0 25.05257430 0 2255.39934858 0 227.69460927 0 -14.66396554 0 34536
