### header ###
fiducial parameters:
Omega_m = 0.31
Omega_nu = 0
Omega_de = 0.69
Omega_k = 0
H_0 = 100
w_de = -1
zeff = 0
beta = 0
fgrowth = 0
b_1 = 2
gamma = 0.55
Lx = 3500 Ly = 3500 Lz = 3500
nx = 700 ny = 700 nz = 700
xoffset = -685.467585 yoffset = -31.7331281 zoffset = 572.489161
bins = 400 dk = 0.001
kx_ny = 0.628318531 ky_ny = 0.628318531 kz_ny = 0.628318531
############################
A(data) = 8.06468033 (not used)
A(ran) = 8.05749323 (used)
Ngal = 478802
weighted Ngal = 0
Nran = 23820508
weighted Nran = 0
SN(data) = 3493.77376
SN(ran) = 70.1836882
SN(data+ran) = 3563.95745
############################
13 columns: k_central k_mean P_0(k) sigma^{lin}_{P_0(k)} P^img_1(k) sigma^{lin}_{P_1(k)} P_2(k) sigma^{lin}_{P_2(k)} P^img_3(k) sigma^{lin}_{P_3(k)} P_4(k) sigma^{lin}_{P_4(k)} N_modes
### header ###
0.00050000 0 0 0 0 0 0 0 0 0 0 0 0
0.00150000 0.00179520 14304.77932620 0 -7904.11193969 0 13848.48882043 0 -39373.29777835 0 9996.37165439 0 3
0.00250000 0.00253879 22243.19332818 0 -1097.67152938 0 5148.21029233 0 -1206.31871667 0 11987.56318816 0 6
0.00350000 0.00331552 24000.81416989 0 -1192.34544275 0 11812.06683978 0 5167.70865633 0 29582.04094123 0 7
0.00450000 0.00420575 26048.08702886 0 -6269.68178391 0 15887.67888228 0 94.97585566 0 6961.27026441 0 24
0.00550000 0.00557378 37137.79539747 0 -3864.96106282 0 26906.08147906 0 9609.85893963 0 3311.37803886 0 45
0.00650000 0.00659388 51222.67835277 0 1430.89868096 0 43217.16606240 0 18736.14516512 0 40445.43099054 0 40
0.00750000 0.00754703 44555.58868647 0 1639.88881192 0 32714.29090917 0 24156.71250334 0 22846.41358430 0 57
0.00850000 0.00846663 50805.69460010 0 -2783.54924243 0 43259.46234320 0 37726.40018483 0 32339.49271406 0 75
0.00950000 0.00948925 58256.92631006 0 -1597.49288018 0 29276.88766922 0 25882.33432632 0 5468.68766188 0 112
0.01050000 0.01054430 60241.30836406 0 1844.47215759 0 35021.98484787 0 17949.01359376 0 8456.33306769 0 105
0.01150000 0.01145670 66269.19271858 0 -7984.09841418 0 31879.99123409 0 -18795.82499589 0 -20137.23714767 0 144
0.01250000 0.01249090 70218.91242788 0 -8888.45268839 0 44058.33057887 0 -20399.76196912 0 -33672.37917573 0 169
0.01350000 0.01339930 88386.38299032 0 -2067.47985176 0 50311.97963644 0 -37821.06856203 0 -63956.18406396 0 180
0.01450000 0.01448870 86063.51996662 0 5938.10994489 0 68730.34907927 0 -37241.21091128 0 -47287.24194248 0 267
0.01550000 0.01550050 83092.48304803 0 -457.49185302 0 46594.22513208 0 -14666.06928503 0 -46941.12106865 0 238
0.01650000 0.01653350 87650.95917586 0 -3517.53365466 0 67711.69519595 0 16252.40126180 0 -37225.82037978 0 315
0.01750000 0.01747870 85703.33724026 0 4390.34287547 0 44075.38195909 0 33138.91456597 0 -37188.61736839 0 297
0.01850000 0.01844180 87782.71984121 0 1161.14363141 0 51234.08284734 0 37160.38294010 0 -47014.19841245 0 388
0.01950000 0.01947590 79319.03474983 0 4701.09874383 0 29715.01956230 0 19077.17276953 0 -6561.61470008 0 399
0.02050000 0.02045430 79546.01740862 0 2856.34977812 0 29414.95955971 0 11187.47699676 0 -9951.97163187 0 462
0.02150000 0.02154770 76700.76209997 0 4107.63320587 0 32760.90539666 0 7354.93570101 0 14557.89267156 0 571
0.02250000 0.02255340 71419.92750096 0 5299.87899769 0 28823.47596790 0 -6450.83609027 0 22406.28867276 0 510
0.02350000 0.02348930 74279.35538538 0 7318.36381213 0 49645.86857535 0 3988.59464175 0 21733.53421678 0 555
0.02450000 0.02439640 69615.24927877 0 2836.61889529 0 42436.89933243 0 6919.27293637 0 40084.14103171 0 592
0.02550000 0.02547300 65890.18704003 0 -318.69583249 0 41783.74289137 0 14704.82242190 0 20213.08257268 0 837
0.02650000 0.02652900 68218.36477965 0 -2986.46066706 0 39643.90539692 0 5251.44864894 0 12429.79184141 0 723
0.02750000 0.02749970 70127.34430163 0 654.22381316 0 40710.94533970 0 -853.21009864 0 -11751.39049977 0 826
0.02850000 0.02848090 68420.32398434 0 4219.70727769 0 36632.01159975 0 -4904.77415886 0 9296.22426681 0 831
0.02950000 0.02946900 61942.79251894 0 6454.10242609 0 33405.42542435 0 -1418.90735318 0 -1289.43865908 0 996
0.03050000 0.03053250 60593.18684679 0 2914.68985759 0 37273.54209975 0 3494.22641092 0 -10615.94573427 0 1041
0.03150000 0.03150510 55836.84827445 0 3815.35704763 0 34488.07734512 0 4491.05674202 0 455.37150282 0 1036
0.03250000 0.03246190 52971.99495087 0 4162.91732369 0 36371.81196652 0 3858.52804210 0 -11903.41351953 0 1059
0.03350000 0.03345080 50589.89498939 0 -114.16895567 0 36298.73462271 0 2886.36685070 0 2702.35588454 0 1302
0.03450000 0.03451200 52888.06672875 0 -1793.63911435 0 31913.20820854 0 8423.14931021 0 -6168.70218156 0 1339
0.03550000 0.03553350 53076.62842041 0 -4034.92124879 0 30537.36112658 0 6956.81918983 0 -4447.24355271 0 1365
0.03650000 0.03647120 56764.04475476 0 -55.75568813 0 23627.12320726 0 1809.04071817 0 -11771.43140770 0 1308
0.03750000 0.03744890 55236.94971577 0 2731.87470250 0 21996.39120797 0 1775.40299537 0 -5542.44041750 0 1579
0.03850000 0.03847530 52923.71961466 0 2405.72830265 0 20959.13581896 0 2135.84038519 0 -5228.46250261 0 1662
0.03950000 0.03950240 49078.85482139 0 4289.79509379 0 21011.39719210 0 4696.22692091 0 -152.14813703 0 1683
0.04050000 0.04050350 45968.08516359 0 2198.72011784 0 19533.13110557 0 8031.52118138 0 104.52485003 0 1822
0.04150000 0.04152450 46516.05451886 0 97.36537408 0 18951.61260609 0 7162.53191263 0 4937.30464918 0 1887
0.04250000 0.04250150 44624.23710035 0 -682.91885016 0 17308.36887976 0 3958.65507544 0 2991.39892393 0 1920
0.04350000 0.04349210 45755.27508057 0 520.25864795 0 17630.35208548 0 -2275.18559303 0 2852.14229468 0 2005
0.04450000 0.04448520 44490.59413979 0 1170.40009496 0 15780.72022453 0 -3225.31285805 0 4204.32781851 0 2151
0.04550000 0.04548030 45185.05035241 0 1663.84932282 0 17387.86817195 0 -2128.85374823 0 4603.29689870 0 2274
0.04650000 0.04648670 43480.90883958 0 -199.04939773 0 11518.65023209 0 -877.80283930 0 -1804.16889525 0 2311
0.04750000 0.04749250 43878.84819356 0 -18.02873433 0 12644.26277315 0 3705.60816403 0 -5169.92312130 0 2568
0.04850000 0.04851840 41993.34200019 0 1483.87975522 0 8600.11827779 0 2221.50696231 0 -9956.74380387 0 2493
0.04950000 0.04949480 39859.04066815 0 2792.55104251 0 9758.90350401 0 3374.98854495 0 -7581.09900775 0 2644
0.05050000 0.05050630 37768.58574239 0 2159.57944960 0 6736.26955177 0 1795.88679629 0 -6929.91344052 0 2829
0.05150000 0.05149060 35460.78108044 0 2711.49055251 0 9545.25192431 0 640.76872404 0 -5974.75934004 0 2784
0.05250000 0.05249300 33769.81563413 0 1024.97950248 0 8005.99947267 0 230.14270029 0 -2201.37747579 0 3055
0.05350000 0.05348950 32467.26734247 0 211.95419231 0 10049.08699286 0 769.20437024 0 2902.11169659 0 3009
0.05450000 0.05448610 33486.14267228 0 438.15071603 0 10459.30555506 0 1265.24562935 0 -830.61591262 0 3336
0.05550000 0.05550870 33119.75944403 0 -331.48879658 0 10274.43094757 0 1952.95879616 0 2612.80292140 0 3349
0.05650000 0.05647670 33585.35070266 0 534.11898416 0 9613.29136032 0 206.97718230 0 315.19697784 0 3324
0.05750000 0.05747970 33878.65658710 0 -622.09303377 0 10427.16259611 0 -1489.67058110 0 -722.51126925 0 3639
0.05850000 0.05849280 33800.26452739 0 651.41254989 0 11058.57299122 0 -3240.53730467 0 -1372.56967382 0 3846
0.05950000 0.05951020 33886.73938422 0 2175.35751247 0 13672.32813256 0 -3164.02754018 0 -1146.93783866 0 3787
0.06050000 0.06049470 31647.80458264 0 1243.61030666 0 12804.14714353 0 -451.91140131 0 1071.25960576 0 3930
0.06150000 0.06148310 31877.77676912 0 -284.99610467 0 12348.96387024 0 2269.89302177 0 -1352.81664634 0 4083
0.06250000 0.06249100 31421.81843309 0 -527.49109052 0 13444.90258079 0 2190.59303142 0 -3325.48418068 0 4303
0.06350000 0.06350600 31547.26787329 0 774.34303619 0 12433.44570860 0 1752.26183650 0 -3578.75253858 0 4470
0.06450000 0.06451750 30482.77456522 0 860.66620218 0 12062.07993419 0 -586.45564911 0 -3128.62931773 0 4479
0.06550000 0.06550280 30159.79485026 0 492.90889842 0 10707.36992030 0 -951.58327573 0 -1785.33487073 0 4636
0.06650000 0.06648880 30356.43933904 0 -13.65472314 0 12000.51780819 0 -934.03806982 0 -2273.94549266 0 4653
0.06750000 0.06749660 30399.28923609 0 645.73687619 0 12694.86329757 0 1326.65274280 0 -2509.36526295 0 5220
0.06850000 0.06852730 29262.38292371 0 1105.06894960 0 10723.19227246 0 740.12733804 0 -1392.90953451 0 5029
0.06950000 0.06949320 28790.25899344 0 712.83295013 0 11561.38940589 0 3038.75525718 0 -2881.08535176 0 5040
0.07050000 0.07048030 28510.12917553 0 -441.60306690 0 9895.25918415 0 1336.03100192 0 -1488.27546817 0 5475
0.07150000 0.07148790 29128.29707016 0 454.49678916 0 9902.13509786 0 980.63594882 0 -3415.14786706 0 5509
0.07250000 0.07249820 27584.59354394 0 917.17934805 0 9452.02294934 0 -391.10108617 0 -2179.47641730 0 5916
0.07350000 0.07351270 27216.54946697 0 808.74032047 0 10437.45985819 0 -599.23311195 0 -1697.91886629 0 5721
0.07450000 0.07449140 26818.94228273 0 -261.67446690 0 9885.24980251 0 427.50799741 0 -1661.53520694 0 6028
0.07550000 0.07549160 27317.30762282 0 308.90568288 0 9921.00233935 0 67.37354640 0 -2683.49971537 0 6183
0.07650000 0.07648840 27003.62866071 0 566.13793307 0 9782.78650864 0 1173.89894960 0 -1536.57294903 0 6330
0.07750000 0.07749960 27346.87073009 0 -2.16289007 0 10169.89712895 0 1043.98293357 0 -797.57166643 0 6583
0.07850000 0.07848650 26447.35506182 0 -341.78827313 0 9224.46452966 0 649.66201534 0 -263.66084198 0 6549
0.07950000 0.07947320 27406.32911436 0 255.90800014 0 9092.57099642 0 527.08030727 0 -1433.77748542 0 6828
0.08050000 0.08048110 26163.23920697 0 1279.37391582 0 10297.71604666 0 137.15620923 0 -451.45189983 0 7147
0.08150000 0.08149960 25146.79978862 0 1600.31632301 0 8988.57972173 0 -514.24969727 0 456.16981744 0 7386
0.08250000 0.08250610 24286.14798047 0 358.15427644 0 9496.65549068 0 246.94163150 0 538.25560471 0 7227
0.08350000 0.08350160 23742.60755512 0 472.48378082 0 9749.89063161 0 333.17732612 0 -88.22616645 0 7798
0.08450000 0.08449610 23419.40639366 0 960.69912075 0 9825.52568244 0 890.54819240 0 -821.75473107 0 7371
0.08550000 0.08548940 22311.84174205 0 1088.49146488 0 8969.73462488 0 931.59994389 0 1545.39759191 0 8256
0.08650000 0.08650700 21506.10866500 0 638.13240351 0 8544.19196513 0 1693.92175703 0 716.01845798 0 8037
0.08750000 0.08749060 21248.67711297 0 155.13877196 0 8100.90036869 0 1544.77754172 0 1394.47073231 0 8155
0.08850000 0.08849210 20543.59146852 0 189.08319816 0 7226.50780544 0 914.77554633 0 14.41705270 0 8718
0.08950000 0.08949900 20579.90869392 0 295.69197044 0 7041.82142746 0 886.52672402 0 -4.19891345 0 8571
0.09050000 0.09049190 19861.86842943 0 604.76927436 0 7096.08689140 0 -76.91069338 0 558.10828311 0 8932
0.09150000 0.09150830 19498.58545213 0 588.43538079 0 6030.95138849 0 13.82390826 0 651.04827041 0 9285
0.09250000 0.09250820 18789.62449399 0 242.67103582 0 6341.61867826 0 354.05862349 0 -105.22539602 0 9204
0.09350000 0.09350330 18968.66398631 0 241.07329935 0 5592.79735077 0 101.73617430 0 -999.44118529 0 9349
0.09450000 0.09448040 18625.64336343 0 309.63867079 0 5845.29064593 0 -371.37906121 0 -858.81269500 0 9564
0.09550000 0.09549270 18404.41831355 0 312.73670727 0 5975.74477695 0 -710.69709867 0 -1161.40936720 0 10155
0.09650000 0.09649430 18926.92132175 0 -321.19042727 0 6660.87809208 0 -356.68940787 0 -1126.71977355 0 9913
0.09750000 0.09749140 18766.59405837 0 -214.44103646 0 7100.57118295 0 -583.14502399 0 -2582.94086137 0 10476
0.09850000 0.09850240 18897.57966098 0 489.47869219 0 7753.14079079 0 -376.92740317 0 -769.38263467 0 10575
0.09950000 0.09950330 18427.00585618 0 704.08913522 0 7581.80763654 0 520.92188021 0 -1358.15350690 0 10882
0.10050000 0.10051200 18214.41721967 0 378.05788754 0 7453.71191072 0 1399.70794195 0 94.05419534 0 10875
0.10150000 0.10150300 17374.58138217 0 39.02972354 0 6692.63351966 0 1103.37156220 0 -199.75691929 0 11118
0.10250000 0.10250800 17694.68229268 0 -106.11981842 0 6249.40835717 0 1414.04660259 0 -732.87607251 0 11575
0.10350000 0.10349800 17573.99395216 0 210.54800705 0 6066.51569581 0 451.49176020 0 -587.56952499 0 11364
0.10450000 0.10450100 16966.78765910 0 625.26968376 0 5413.28174849 0 -433.81479363 0 -996.58895442 0 12093
0.10550000 0.10551000 16545.26425326 0 544.42510410 0 5214.26778220 0 -470.69227867 0 -778.91922804 0 12067
0.10650000 0.10649700 16238.67157903 0 347.49273488 0 5568.42716384 0 -352.51514141 0 -1125.74540896 0 12054
0.10750000 0.10749900 15728.01595839 0 417.44325415 0 5168.92661206 0 -203.10519031 0 -1273.80453644 0 12807
0.10850000 0.10850100 15970.72131842 0 0.12324715 0 5458.56755699 0 135.25066212 0 -2127.17075486 0 12736
0.10950000 0.10950300 15284.79079590 0 232.83881138 0 5012.97291699 0 682.26558300 0 -2076.81382158 0 12933
0.11050000 0.11050200 15478.77792672 0 154.48439757 0 5016.21710816 0 79.23123121 0 -1800.61467898 0 13428
0.11150000 0.11150900 15167.75632257 0 220.02038094 0 4973.58865761 0 559.84995981 0 -1864.78987363 0 13453
0.11250000 0.11250000 15211.71345210 0 126.91763047 0 4631.36524212 0 505.18589218 0 -924.63212989 0 13668
0.11350000 0.11349100 15024.48043941 0 94.12727269 0 4474.92436476 0 472.00324193 0 -457.50181811 0 13791
0.11450000 0.11448600 14998.34975284 0 -4.54993937 0 4860.01982195 0 407.97752366 0 -116.03353517 0 14205
0.11550000 0.11549300 14834.03645253 0 399.57695082 0 4786.55494678 0 293.42435832 0 -110.31678314 0 14776
0.11650000 0.11649800 14701.94361745 0 511.97654899 0 5295.45006777 0 -149.75540764 0 648.01556064 0 14553
0.11750000 0.11747300 14216.86506714 0 548.56172465 0 5181.58227933 0 -142.95035680 0 276.47373626 0 14568
0.11850000 0.11849100 13931.30981007 0 338.86407214 0 5601.42269180 0 -364.31048904 0 1138.45643785 0 16015
0.11950000 0.11950300 13889.34569901 0 160.22761245 0 5513.66344529 0 324.47669328 0 620.30706778 0 15270
0.12050000 0.12050700 13860.66837773 0 -118.96659401 0 5604.50079810 0 278.86757288 0 1001.04999409 0 15999
0.12150000 0.12150000 13981.57816475 0 7.37657102 0 5561.96092615 0 -49.35156618 0 244.03514624 0 15670
0.12250000 0.12250700 13956.99760365 0 81.33973403 0 5804.94309430 0 574.72673543 0 394.55122259 0 16887
0.12350000 0.12352200 13921.12327124 0 -168.70790603 0 4896.80208500 0 489.34914599 0 161.92942878 0 16407
0.12450000 0.12449800 14043.36173723 0 -72.29973443 0 4773.07992747 0 21.11514488 0 -378.29594252 0 16306
0.12550000 0.12549900 13975.04549310 0 277.10042984 0 5200.28343595 0 102.51455874 0 -444.84504361 0 17523
0.12650000 0.12650100 13597.81138653 0 480.28644812 0 5399.10917272 0 37.92271250 0 154.06254199 0 17154
0.12750000 0.12750600 13266.08453496 0 291.69375395 0 4815.98518614 0 92.54725193 0 281.76077136 0 18007
0.12850000 0.12850300 13255.67654964 0 138.31548163 0 4757.03612881 0 311.17218777 0 137.51605978 0 17496
0.12950000 0.12949900 13112.73283623 0 1.66139127 0 5049.92126491 0 131.64440593 0 -80.21976837 0 18405
0.13050000 0.13049000 13230.65309555 0 198.22783123 0 5090.88886674 0 86.17501828 0 -19.63466432 0 18100
0.13150000 0.13148800 13032.67992779 0 96.81674038 0 4533.82913279 0 -125.04087141 0 625.42137461 0 19059
0.13250000 0.13249300 12998.02355111 0 36.64784502 0 4423.09481228 0 398.95468617 0 513.57096376 0 18957
0.13350000 0.13349100 12890.17910737 0 -54.29004450 0 3886.47458994 0 709.16801061 0 -337.97053553 0 19468
0.13450000 0.13450700 12790.08529101 0 56.04578304 0 4036.31636171 0 335.80257433 0 -506.54335920 0 19953
0.13550000 0.13551000 12813.00500339 0 123.68672608 0 3452.48374635 0 180.10464997 0 -729.03951196 0 19956
0.13650000 0.13649900 12514.93801927 0 261.98117030 0 3537.90673233 0 222.77960428 0 -158.46932727 0 19723
0.13750000 0.13749600 12242.11593574 0 281.26805290 0 3429.20971958 0 12.60207722 0 -183.93124542 0 20946
0.13850000 0.13851100 12012.69736549 0 246.68364633 0 3388.34176868 0 373.73082300 0 -619.56632925 0 20955
0.13950000 0.13949800 11827.12520153 0 259.09018629 0 3417.80522502 0 124.71977399 0 -52.58546009 0 20506
0.14050000 0.14048300 11492.96243851 0 299.75108472 0 3421.44801989 0 187.85749180 0 -334.61008495 0 21447
0.14150000 0.14148400 11379.58183236 0 189.08651986 0 3435.36593218 0 27.85686201 0 -12.64935604 0 21771
0.14250000 0.14249400 11234.86654698 0 334.24912716 0 3696.93853370 0 -205.68282753 0 78.65724190 0 22470
0.14350000 0.14350900 10940.42021308 0 277.10264431 0 3387.42276572 0 -59.69112454 0 376.34499889 0 22519
0.14450000 0.14449900 10864.36441390 0 69.87899206 0 3443.39336768 0 453.42166642 0 354.24020962 0 22218
0.14550000 0.14550500 10779.24038070 0 -193.27407310 0 3135.35021890 0 421.96408437 0 -119.58221527 0 23559
0.14650000 0.14650700 10876.89828560 0 73.85019208 0 3124.98652287 0 179.36723313 0 -279.81757835 0 23044
0.14750000 0.14750500 10842.56300633 0 228.14082396 0 2927.17943998 0 -121.95833618 0 -326.61697366 0 23649
0.14850000 0.14849900 10436.68479546 0 166.75142623 0 2818.13918517 0 -176.06657310 0 -72.35409955 0 23640
0.14950000 0.14949500 10731.54080538 0 24.07975985 0 3096.05453811 0 -41.63603808 0 -332.08670212 0 24457
0.15050000 0.15050000 10496.44213250 0 145.11831800 0 3143.08977394 0 39.40131076 0 -618.64732629 0 24591
0.15150000 0.15149900 10304.61410502 0 311.41910062 0 3048.59855394 0 119.61321778 0 -660.54057447 0 25020
0.15250000 0.15250500 10066.23802400 0 235.92799000 0 2993.19264055 0 22.65785189 0 -430.84630334 0 25297
0.15350000 0.15350100 9980.69324245 0 69.78443440 0 3003.06915429 0 319.71891530 0 -291.60406812 0 25452
0.15450000 0.15450400 9962.20246000 0 171.80926421 0 2902.29992611 0 373.30786019 0 -40.16087224 0 26061
0.15550000 0.15549900 9726.90448528 0 117.25259813 0 2718.64327435 0 354.47826460 0 182.63689065 0 26128
0.15650000 0.15649500 9641.64758418 0 124.10304550 0 2531.68706978 0 257.68621550 0 50.02697800 0 26331
0.15750000 0.15749700 9605.16427390 0 213.32383889 0 2464.38947954 0 196.18498730 0 350.54426760 0 27345
0.15850000 0.15849900 9345.36324436 0 134.54314057 0 2422.99005704 0 57.96505983 0 157.82159627 0 26980
0.15950000 0.15949700 9313.02098356 0 76.45661734 0 2766.68609173 0 24.06248702 0 343.48566052 0 27777
0.16050000 0.16050000 9288.23004829 0 70.90141053 0 2560.65227151 0 -90.33289769 0 377.89180267 0 28224
0.16150000 0.16150500 9196.89444086 0 86.39137150 0 2476.22579477 0 194.16650248 0 626.47103101 0 28075
0.16250000 0.16249700 9148.70768325 0 70.42109308 0 2438.57989038 0 375.45367674 0 811.79517489 0 28590
0.16350000 0.16349900 9125.64403066 0 60.79414954 0 2214.08850469 0 418.08323452 0 670.77140261 0 29163
0.16450000 0.16449100 9033.66622839 0 55.40347748 0 1963.75431286 0 303.59428867 0 336.86330305 0 28996
0.16550000 0.16550500 8910.95165242 0 181.67359839 0 1917.91488811 0 -79.90498218 0 517.67215287 0 30777
0.16650000 0.16650700 8748.54279198 0 218.95633052 0 2088.76086006 0 -432.23255841 0 244.24330594 0 29211
0.16750000 0.16749900 8586.44395664 0 293.96247331 0 2292.62450462 0 -428.36610258 0 654.46851154 0 30922
0.16850000 0.16850800 8508.53907921 0 77.90985997 0 2336.81415298 0 -30.79523557 0 542.84951228 0 30867
0.16950000 0.16949900 8661.92399493 0 -194.69686684 0 2592.17518027 0 11.97881605 0 156.76418925 0 30852
0.17050000 0.17049200 8716.30018211 0 -63.28763709 0 2466.48214893 0 110.27315818 0 -39.15107622 0 31257
0.17150000 0.17149500 8714.25180202 0 232.23204798 0 2631.10547433 0 39.41969082 0 -23.25221429 0 32608
0.17250000 0.17250900 8474.13736600 0 269.24682985 0 2331.26691824 0 -17.31833397 0 -5.47305016 0 32361
0.17350000 0.17350400 8205.21274081 0 157.58132682 0 2390.75851949 0 255.48282287 0 -83.04631145 0 32508
0.17450000 0.17449800 8165.09770799 0 99.08224877 0 2195.37627574 0 355.84791118 0 92.87366407 0 32791
0.17550000 0.17549800 7987.29831605 0 155.03801381 0 1871.76543827 0 337.36487936 0 -104.44900460 0 33633
0.17650000 0.17650100 7900.84560387 0 99.83749204 0 1893.86579861 0 21.71781152 0 9.84666275 0 33984
0.17750000 0.17750300 7848.14133773 0 -0.19765207 0 1721.99010045 0 169.86717844 0 267.19512806 0 34069
0.17850000 0.17849800 7939.95305513 0 -50.71102622 0 1859.69660422 0 47.66237231 0 217.68412040 0 34536
