### header ###
fiducial parameters:
Omega_m = 0.31
Omega_nu = 0
Omega_de = 0.69
Omega_k = 0
H_0 = 100
w_de = -1
zeff = 0
beta = 0
fgrowth = 0
b_1 = 2
gamma = 0.55
Lx = 3500 Ly = 3500 Lz = 3500
nx = 700 ny = 700 nz = 700
xoffset = -685.467585 yoffset = -31.7331281 zoffset = 572.489161
bins = 400 dk = 0.001
kx_ny = 0.628318531 ky_ny = 0.628318531 kz_ny = 0.628318531
############################
A(data) = 8.04319017 (not used)
A(ran) = 8.03488415 (used)
Ngal = 477286
weighted Ngal = 0
Nran = 23820508
weighted Nran = 0
SN(data) = 3499.41964
SN(ran) = 69.9867549
SN(data+ran) = 3569.40639
############################
13 columns: k_central k_mean P_0(k) sigma^{lin}_{P_0(k)} P^img_1(k) sigma^{lin}_{P_1(k)} P_2(k) sigma^{lin}_{P_2(k)} P^img_3(k) sigma^{lin}_{P_3(k)} P_4(k) sigma^{lin}_{P_4(k)} N_modes
### header ###
0.00050000 0 0 0 0 0 0 0 0 0 0 0 0
0.00150000 0.00179520 45038.45277181 0 -8548.68732901 0 43951.48264437 0 -7565.08842607 0 -84887.74979412 0 3
0.00250000 0.00253879 79918.71186201 0 760.41737327 0 35879.97929807 0 -23195.63470908 0 74181.25458748 0 6
0.00350000 0.00331552 78126.32392037 0 912.85781967 0 22920.04454434 0 -33800.70742038 0 22886.82756989 0 7
0.00450000 0.00420575 73327.24617422 0 -833.29430799 0 27238.14050037 0 -14657.65431817 0 48531.54980560 0 24
0.00550000 0.00557378 82387.39740358 0 21454.95452434 0 75503.95451032 0 -12555.57345135 0 -39336.31621346 0 45
0.00650000 0.00659388 56093.06187075 0 11643.43533279 0 82406.99541851 0 33401.66083391 0 40340.02245827 0 40
0.00750000 0.00754703 71569.07171627 0 -3364.19302825 0 61322.96377559 0 35570.06492640 0 8078.45676628 0 57
0.00850000 0.00846663 44266.71173196 0 934.39792038 0 53640.54192342 0 39188.05778414 0 4143.02035599 0 75
0.00950000 0.00948925 73406.30257343 0 -2102.76735096 0 61435.01570276 0 36676.30089903 0 -53073.41744621 0 112
0.01050000 0.01054430 60491.98579795 0 -5917.94724139 0 7069.02612954 0 25376.77197510 0 4500.62323066 0 105
0.01150000 0.01145670 61938.14214251 0 -5167.40970356 0 -143.04779326 0 -1341.84397245 0 -32251.68917825 0 144
0.01250000 0.01249090 72070.09441431 0 -11313.59077644 0 -2928.25345549 0 -4542.93058379 0 -10703.08493059 0 169
0.01350000 0.01339930 79768.79258397 0 -13845.72073922 0 8761.28703785 0 -6920.70126627 0 -37297.67976785 0 180
0.01450000 0.01448870 83691.49582072 0 -1574.31850434 0 -4929.88619155 0 -19172.17331648 0 -17369.26666626 0 267
0.01550000 0.01550050 89578.09731055 0 2346.94533018 0 -12864.04842080 0 -28460.63588359 0 -26130.02223252 0 238
0.01650000 0.01653350 83709.65443342 0 8366.12683740 0 10632.94175287 0 -19866.29735936 0 -19784.91577194 0 315
0.01750000 0.01747870 79642.34663454 0 5711.59232375 0 9010.09324885 0 -15866.86291162 0 -11568.14352403 0 297
0.01850000 0.01844180 79538.37750449 0 6698.86723853 0 28614.87336832 0 -12444.07514043 0 -34838.95931862 0 388
0.01950000 0.01947590 73747.33017784 0 4014.85819622 0 29852.20566680 0 2639.69759839 0 -16225.60623574 0 399
0.02050000 0.02045430 66731.46227975 0 3820.46138937 0 22774.11130323 0 11248.04261352 0 -12233.25807588 0 462
0.02150000 0.02154770 71061.40562333 0 -4816.00733079 0 22222.26663427 0 26753.28339656 0 -18307.20330165 0 571
0.02250000 0.02255340 72678.07577011 0 -2430.55245489 0 18915.84899693 0 11437.49009117 0 -17302.50054760 0 510
0.02350000 0.02348930 70504.13551521 0 7541.02826424 0 10042.65397214 0 5633.26669798 0 -11216.59721103 0 555
0.02450000 0.02439640 67445.73795381 0 5293.85565299 0 9825.13815107 0 -4176.02695628 0 8688.33148962 0 592
0.02550000 0.02547300 65198.05601562 0 1110.89742138 0 12730.62690673 0 -11674.65928878 0 6821.69253774 0 837
0.02650000 0.02652900 64750.62336970 0 -180.73023632 0 16038.81611605 0 -6558.68053400 0 12546.05125201 0 723
0.02750000 0.02749970 65956.84243544 0 -981.94469761 0 17100.76278941 0 2543.92198871 0 1898.81512780 0 826
0.02850000 0.02848090 66676.54354865 0 -3360.78275220 0 18849.41504802 0 3835.58618508 0 2134.34562134 0 831
0.02950000 0.02946900 69409.85765339 0 2417.65319648 0 22663.49877829 0 3368.02405264 0 -10288.47065544 0 996
0.03050000 0.03053250 63153.10834486 0 7181.96384269 0 21934.49691223 0 -4520.04408839 0 -7924.88362105 0 1041
0.03150000 0.03150510 58801.02035165 0 5427.83078330 0 25876.79816391 0 -181.86957854 0 581.46424508 0 1036
0.03250000 0.03246190 57584.61474707 0 2588.83133817 0 26718.18412688 0 -9634.97097231 0 -3386.08301441 0 1059
0.03350000 0.03345080 54359.02508090 0 441.98949104 0 30240.40137494 0 4687.76766474 0 -569.61132137 0 1302
0.03450000 0.03451200 55905.49668832 0 95.06974897 0 27247.10908347 0 1148.75369993 0 -7206.27866799 0 1339
0.03550000 0.03553350 55540.77430880 0 2486.91058822 0 29321.28769175 0 814.09378952 0 -5846.60825259 0 1365
0.03650000 0.03647120 51059.47228495 0 2415.04012782 0 24873.20264235 0 6543.86576339 0 -3943.09845907 0 1308
0.03750000 0.03744890 51764.11503641 0 220.73122419 0 27036.29201892 0 4116.51321038 0 2562.34633721 0 1579
0.03850000 0.03847530 50115.11370116 0 -461.87649365 0 21661.12121246 0 7142.47993239 0 1112.06001549 0 1662
0.03950000 0.03950240 50607.27853935 0 943.89576060 0 22030.82613816 0 7767.37980050 0 596.54142979 0 1683
0.04050000 0.04050350 48455.81510384 0 2207.01328913 0 16189.73190333 0 3510.67988560 0 2851.43366590 0 1822
0.04150000 0.04152450 47568.47899288 0 2683.65472792 0 19739.62996343 0 -480.02292679 0 1462.82019342 0 1887
0.04250000 0.04250150 44807.81624584 0 1013.65472866 0 14626.09819244 0 3387.98745428 0 6559.21200559 0 1920
0.04350000 0.04349210 45042.99242499 0 -777.96700811 0 17756.90875816 0 3310.33724033 0 7906.78036997 0 2005
0.04450000 0.04448520 45166.55956997 0 -403.54859374 0 13818.03992717 0 2984.66695044 0 4097.30272682 0 2151
0.04550000 0.04548030 45226.12867749 0 1668.82079667 0 12756.97903980 0 3868.94709976 0 4030.27087236 0 2274
0.04650000 0.04648670 42967.26369124 0 2751.15162001 0 12629.31513464 0 -129.24724761 0 7412.77752586 0 2311
0.04750000 0.04749250 40605.64753067 0 2572.36679117 0 10363.00954611 0 465.06864489 0 4812.29810198 0 2568
0.04850000 0.04851840 38265.84384999 0 1090.01390954 0 10328.89571335 0 2550.76468545 0 5619.52594288 0 2493
0.04950000 0.04949480 38464.03846425 0 -211.26327924 0 10141.09801210 0 323.62190980 0 2504.15019796 0 2644
0.05050000 0.05050630 37234.23534664 0 -356.05385643 0 9034.81775017 0 1810.77907317 0 2170.54105117 0 2829
0.05150000 0.05149060 39627.29690969 0 -396.58077973 0 10971.76596464 0 -522.43214531 0 -16.89924648 0 2784
0.05250000 0.05249300 38815.36333074 0 -353.50168555 0 7604.88236146 0 -1014.61912815 0 -118.80715254 0 3055
0.05350000 0.05348950 39279.18301740 0 588.21614876 0 12050.23254663 0 597.26334537 0 2755.20409090 0 3009
0.05450000 0.05448610 39028.72703000 0 1056.54337884 0 10894.27076324 0 -1080.16507661 0 2606.24810511 0 3336
0.05550000 0.05550870 37703.48047245 0 1029.69631286 0 12257.61719048 0 934.01481794 0 5656.10890408 0 3349
0.05650000 0.05647670 37736.03310742 0 1098.52188393 0 12572.40338508 0 2917.75689156 0 1392.61058174 0 3324
0.05750000 0.05747970 34928.42370316 0 1141.46811020 0 10304.99056406 0 1499.53602251 0 4515.99161751 0 3639
0.05850000 0.05849280 34716.16723638 0 1909.62171682 0 9339.25132106 0 2587.75732267 0 3418.08203314 0 3846
0.05950000 0.05951020 32978.47657935 0 975.69326302 0 7989.65672124 0 1064.78783190 0 2160.97456253 0 3787
0.06050000 0.06049470 31502.64640427 0 1099.86717140 0 8670.72649316 0 -798.43309330 0 2893.29812604 0 3930
0.06150000 0.06148310 31142.90657091 0 1315.61363495 0 7667.20847787 0 -2128.73195266 0 3203.45608886 0 4083
0.06250000 0.06249100 30628.48635984 0 1199.11063321 0 10140.95407188 0 -1815.51802819 0 4612.25440948 0 4303
0.06350000 0.06350600 30214.49213487 0 332.24946530 0 13067.55775097 0 142.32919938 0 4443.04714160 0 4470
0.06450000 0.06451750 30685.50883265 0 67.04480907 0 14763.17357369 0 -1459.02238600 0 7616.30900068 0 4479
0.06550000 0.06550280 30667.01805020 0 -12.22484311 0 15351.44619131 0 1749.32767042 0 5487.22273362 0 4636
0.06650000 0.06648880 31018.01074696 0 205.55771026 0 16333.89357247 0 1168.88318645 0 7612.68835046 0 4653
0.06750000 0.06749660 30614.86740031 0 772.63236201 0 15549.19791257 0 2156.60099423 0 7025.40116976 0 5220
0.06850000 0.06852730 29716.79113427 0 353.21712681 0 14827.83595063 0 2014.27733101 0 7707.27922139 0 5029
0.06950000 0.06949320 29642.82800448 0 -469.12665194 0 12300.02419454 0 3948.62354915 0 6687.24129747 0 5040
0.07050000 0.07048030 30227.66820140 0 -550.04320171 0 11827.01447829 0 2299.27897184 0 3738.92478941 0 5475
0.07150000 0.07148790 29899.15232403 0 586.78671162 0 9531.68832641 0 814.02957004 0 3778.72979713 0 5509
0.07250000 0.07249820 29127.41128417 0 1074.90461509 0 9314.94756808 0 -578.06836306 0 3855.81532252 0 5916
0.07350000 0.07351270 27558.13068763 0 1817.25638319 0 9471.26664987 0 -428.41924974 0 3145.42603448 0 5721
0.07450000 0.07449140 26716.85544790 0 912.84453288 0 9155.77182649 0 43.05274204 0 3574.47862120 0 6028
0.07550000 0.07549160 25329.60387138 0 52.65089753 0 7746.49739590 0 1941.18891488 0 2101.80405870 0 6183
0.07650000 0.07648840 25456.93560679 0 -41.62684805 0 7054.62103495 0 1832.19294937 0 1381.04000230 0 6330
0.07750000 0.07749960 25657.67685575 0 -609.46172562 0 5619.99098053 0 1374.91700668 0 62.21661111 0 6583
0.07850000 0.07848650 25802.72431088 0 -272.59288641 0 6113.70594419 0 260.07894490 0 649.22355128 0 6549
0.07950000 0.07947320 25973.90245257 0 332.05016345 0 6089.61256538 0 -1411.05707489 0 -1031.07260283 0 6828
0.08050000 0.08048110 25899.38570654 0 432.96776078 0 6665.86063824 0 -1136.51878101 0 -516.92477095 0 7147
0.08150000 0.08149960 25446.52762146 0 754.32538015 0 7148.40362617 0 -1541.28975941 0 -1314.77213827 0 7386
0.08250000 0.08250610 24758.27191073 0 1402.04420249 0 8022.18721155 0 -648.74301238 0 -1119.38989452 0 7227
0.08350000 0.08350160 23801.18015341 0 1117.67368417 0 7755.07844763 0 64.75150916 0 -744.54630287 0 7798
0.08450000 0.08449610 22713.87785622 0 334.70419971 0 8178.79417379 0 1592.02315172 0 -917.04869462 0 7371
0.08550000 0.08548940 22884.17021193 0 -210.98647112 0 7232.86331988 0 1171.79520788 0 -466.26224151 0 8256
0.08650000 0.08650700 23088.67605133 0 -320.05551398 0 6875.32687916 0 1734.31359797 0 -1089.32963987 0 8037
0.08750000 0.08749060 22241.08958646 0 769.59522331 0 5285.14173336 0 704.93173914 0 769.95618110 0 8155
0.08850000 0.08849210 22213.96239066 0 725.10772942 0 5334.03711976 0 1040.51065251 0 932.82454302 0 8718
0.08950000 0.08949900 22157.71498058 0 20.74865092 0 5785.54438121 0 296.86231518 0 1484.64374563 0 8571
0.09050000 0.09049190 20879.19363377 0 808.06601589 0 5340.14904306 0 -323.88653836 0 1633.54436979 0 8932
0.09150000 0.09150830 20992.35279342 0 1237.35444313 0 6799.33751393 0 -683.98622228 0 1788.88908700 0 9285
0.09250000 0.09250820 19816.80406742 0 667.49842339 0 6862.05116171 0 -154.01603823 0 2080.48983342 0 9204
0.09350000 0.09350330 19724.35015518 0 625.57085100 0 8400.56176758 0 -873.22443298 0 2475.40644273 0 9349
0.09450000 0.09448040 19142.49948596 0 397.41895472 0 7655.36109031 0 -169.64573194 0 2649.78448630 0 9564
0.09550000 0.09549270 18707.57856709 0 469.64372951 0 8627.37834149 0 50.79949410 0 2515.72077739 0 10155
0.09650000 0.09649430 18531.19643273 0 186.76686781 0 8656.86394248 0 862.22739998 0 2553.94244267 0 9913
0.09750000 0.09749140 18333.44471147 0 -128.89293321 0 8102.67194066 0 930.00442189 0 1926.32985497 0 10476
0.09850000 0.09850240 18477.82782710 0 -28.37681838 0 7787.86360142 0 773.11622260 0 1901.35069018 0 10575
0.09950000 0.09950330 18199.13741142 0 -107.54039769 0 7292.88639272 0 556.10308509 0 1814.95333962 0 10882
0.10050000 0.10051200 18577.58947372 0 59.08015366 0 6906.30724401 0 1070.98501211 0 1642.26936175 0 10875
0.10150000 0.10150300 18070.14482728 0 366.06655976 0 5912.97576755 0 971.62307642 0 1388.30344739 0 11118
0.10250000 0.10250800 18150.52990546 0 88.19151007 0 5600.23795305 0 491.27573051 0 1678.90768458 0 11575
0.10350000 0.10349800 17502.02384083 0 236.85142189 0 5376.58806404 0 215.60695226 0 2046.68602575 0 11364
0.10450000 0.10450100 17349.11503509 0 773.49489611 0 5654.47020001 0 669.58002046 0 1868.03406480 0 12093
0.10550000 0.10551000 16952.50436008 0 797.20185078 0 5575.96741705 0 -41.50593826 0 2730.32457703 0 12067
0.10650000 0.10649700 16211.10149023 0 268.66996172 0 5203.30618063 0 217.20801043 0 2667.99846063 0 12054
0.10750000 0.10749900 16139.35282540 0 141.32604675 0 5584.98028945 0 29.32505228 0 3155.24718660 0 12807
0.10850000 0.10850100 16437.19836303 0 -63.04393522 0 5699.14703065 0 121.94615662 0 2375.72230239 0 12736
0.10950000 0.10950300 16415.60732963 0 42.90271204 0 5612.11855758 0 197.58674362 0 2147.48847090 0 12933
0.11050000 0.11050200 15880.92476414 0 260.98909000 0 5132.03362577 0 -484.85710381 0 1554.02293295 0 13428
0.11150000 0.11150900 15940.82604141 0 259.93168298 0 5486.22622439 0 103.85907114 0 428.96290089 0 13453
0.11250000 0.11250000 15420.53749818 0 347.94891466 0 5060.71678161 0 333.03670759 0 926.82555743 0 13668
0.11350000 0.11349100 15302.72796211 0 391.32253267 0 4577.81947929 0 596.20704558 0 137.17613941 0 13791
0.11450000 0.11448600 14723.09175785 0 -73.45557442 0 3829.30817690 0 642.84478495 0 138.94217522 0 14205
0.11550000 0.11549300 15052.38269796 0 179.15575173 0 4305.22991458 0 585.75587818 0 54.23811529 0 14776
0.11650000 0.11649800 14785.98256282 0 84.16594494 0 3630.33849991 0 -4.49086851 0 239.87305934 0 14553
0.11750000 0.11747300 14681.34909328 0 249.84922400 0 3609.65539715 0 -218.13476402 0 541.49979588 0 14568
0.11850000 0.11849100 14541.72707732 0 386.78952289 0 3993.26716282 0 -107.82849959 0 30.86388399 0 16015
0.11950000 0.11950300 14211.99324422 0 190.77394216 0 4339.27731340 0 -402.15126634 0 -128.81653417 0 15270
0.12050000 0.12050700 14216.53289740 0 116.16972476 0 4400.27475083 0 -61.24877920 0 -969.78285603 0 15999
0.12150000 0.12150000 13884.69532258 0 67.41108158 0 4309.22702384 0 45.65119523 0 -218.66180668 0 15670
0.12250000 0.12250700 14281.97033708 0 143.95572390 0 4378.77229603 0 -69.44119233 0 -1189.01267298 0 16887
0.12350000 0.12352200 13685.61492234 0 179.15132280 0 4041.39855881 0 80.75589034 0 -507.53543950 0 16407
0.12450000 0.12449800 13819.03643641 0 304.07372033 0 3824.00453332 0 498.08742473 0 -623.76938375 0 16306
0.12550000 0.12549900 13497.27467718 0 234.02022844 0 3973.02695305 0 307.80509380 0 191.69737405 0 17523
0.12650000 0.12650100 13315.57782690 0 292.45995883 0 3996.48920934 0 419.38312546 0 118.89019497 0 17154
0.12750000 0.12750600 13233.97479299 0 122.91498504 0 4117.66473216 0 345.16976113 0 948.54502980 0 18007
0.12850000 0.12850300 13074.31186911 0 14.65621492 0 4239.48244981 0 637.80023376 0 1240.28860921 0 17496
0.12950000 0.12949900 13253.35136142 0 -48.98573657 0 4110.56737195 0 426.32436589 0 1109.74589960 0 18405
0.13050000 0.13049000 13121.03707984 0 -38.82344613 0 3821.49111558 0 573.22532819 0 1501.35188378 0 18100
0.13150000 0.13148800 13212.82665259 0 124.09640210 0 3881.76885190 0 -271.30296057 0 1010.64969970 0 19059
0.13250000 0.13249300 13059.47495385 0 171.98531418 0 3850.21272616 0 -194.30601378 0 1600.09487652 0 18957
0.13350000 0.13349100 12813.89078937 0 343.25314170 0 3948.08100523 0 -66.46140828 0 1143.23968217 0 19468
0.13450000 0.13450700 12553.02681664 0 302.65867722 0 3847.42250031 0 262.26572905 0 1076.00409695 0 19953
0.13550000 0.13551000 12191.73685781 0 405.73869958 0 3589.52591063 0 173.69488113 0 806.02870813 0 19956
0.13650000 0.13649900 12051.78267210 0 295.85251915 0 3509.66123172 0 -45.69958129 0 562.78301865 0 19723
0.13750000 0.13749600 11793.24388759 0 30.69281657 0 3059.41621529 0 312.99247797 0 918.93874046 0 20946
0.13850000 0.13851100 11787.48627868 0 153.07821232 0 3480.86211486 0 -150.95564765 0 693.02123933 0 20955
0.13950000 0.13949800 11803.09825668 0 159.45697864 0 3398.27364404 0 -290.42597276 0 377.45112414 0 20506
0.14050000 0.14048300 11480.00781847 0 234.98794963 0 3906.50442554 0 -194.82973474 0 714.07747944 0 21447
0.14150000 0.14148400 11366.84865882 0 386.75187699 0 4057.08804307 0 -432.04100719 0 635.85704076 0 21771
0.14250000 0.14249400 11040.52510177 0 312.62044786 0 3971.83114197 0 373.17499229 0 913.16341584 0 22470
0.14350000 0.14350900 10816.45446441 0 112.70519433 0 3956.00878980 0 384.57395069 0 768.92866936 0 22519
0.14450000 0.14449900 10768.90990164 0 1.79761408 0 3757.28270396 0 507.91411301 0 272.27068176 0 22218
0.14550000 0.14550500 10690.83893934 0 39.24685183 0 3388.61857680 0 609.45729669 0 43.13146627 0 23559
0.14650000 0.14650700 10424.83740790 0 225.64401471 0 2960.19711259 0 200.64159804 0 512.38733224 0 23044
0.14750000 0.14750500 10318.08912432 0 131.29673493 0 2585.18854331 0 323.69498714 0 325.45105786 0 23649
0.14850000 0.14849900 10413.41076869 0 -70.64851863 0 2636.76343231 0 236.21365598 0 388.76482564 0 23640
0.14950000 0.14949500 10353.74201024 0 43.75362020 0 2627.23016064 0 123.96685590 0 128.25295284 0 24457
0.15050000 0.15050000 10175.89832900 0 338.43557317 0 2816.75514456 0 -267.91261471 0 323.79906700 0 24591
0.15150000 0.15149900 9977.64835313 0 266.63265396 0 2921.32218015 0 -117.78074803 0 599.15339121 0 25020
0.15250000 0.15250500 9882.14955157 0 121.72692459 0 3232.24413338 0 -36.45175415 0 575.81625219 0 25297
0.15350000 0.15350100 9823.00119238 0 70.41123871 0 3295.71069924 0 -173.89750467 0 556.77960413 0 25452
0.15450000 0.15450400 9792.49693751 0 -0.04722878 0 3295.61104832 0 90.93301770 0 400.94438294 0 26061
0.15550000 0.15549900 9773.36396022 0 -36.68460514 0 3114.57853754 0 250.03966798 0 666.02137526 0 26128
0.15650000 0.15649500 9885.29409181 0 61.49547060 0 3129.32687419 0 258.10032045 0 304.63840890 0 26331
0.15750000 0.15749700 9754.35277851 0 176.87153112 0 2942.54782683 0 264.92530147 0 509.16196402 0 27345
0.15850000 0.15849900 9581.87917481 0 221.67569350 0 2912.39788635 0 -145.92659771 0 394.69516281 0 26980
0.15950000 0.15949700 9461.45657008 0 248.68441543 0 2851.42259357 0 157.64222461 0 656.59218344 0 27777
0.16050000 0.16050000 9205.86302397 0 189.31350252 0 3013.12282522 0 -20.31428362 0 542.83954719 0 28224
0.16150000 0.16150500 9166.14659484 0 54.10535812 0 2706.89553771 0 108.76865069 0 594.01472527 0 28075
0.16250000 0.16249700 9018.31998619 0 92.36998401 0 2886.90939462 0 424.50629015 0 431.82731132 0 28590
0.16350000 0.16349900 8941.02408663 0 93.28046128 0 2375.19083080 0 229.08861496 0 -30.87617427 0 29163
0.16450000 0.16449100 8895.35074675 0 22.78573724 0 2517.23768590 0 159.46251481 0 121.34050046 0 28996
0.16550000 0.16550500 8797.31638281 0 80.43833607 0 2243.70697358 0 -143.34785326 0 -143.32127969 0 30777
0.16650000 0.16650700 8718.35963453 0 309.72282045 0 2329.93823926 0 -89.46704189 0 2.98869728 0 29211
0.16750000 0.16749900 8539.38657616 0 182.07109485 0 2432.63405196 0 -151.96322921 0 211.26438647 0 30922
0.16850000 0.16850800 8505.92601056 0 17.58993810 0 2353.76588227 0 -70.25600472 0 -96.47161602 0 30867
0.16950000 0.16949900 8513.35554051 0 25.65867336 0 2578.46764214 0 17.76720602 0 158.97201082 0 30852
0.17050000 0.17049200 8542.90757545 0 -66.38667008 0 2400.07034466 0 169.05225533 0 21.67861549 0 31257
0.17150000 0.17149500 8400.11887459 0 116.76209414 0 2481.05332839 0 283.61870746 0 268.23371213 0 32608
0.17250000 0.17250900 8428.58582170 0 75.18031046 0 2226.14626641 0 181.05797713 0 -42.27513267 0 32361
0.17350000 0.17350400 8314.50765909 0 156.84944615 0 2303.34251505 0 231.77033203 0 -44.40046542 0 32508
0.17450000 0.17449800 8259.16817965 0 192.83339458 0 2186.34125869 0 -40.09388468 0 150.77627599 0 32791
0.17550000 0.17549800 8058.26084581 0 36.00410006 0 2141.18831808 0 166.26978010 0 381.77154528 0 33633
0.17650000 0.17650100 8052.07141624 0 102.12270916 0 2188.47821738 0 44.55226699 0 237.04297311 0 33984
0.17750000 0.17750300 7965.67406568 0 202.02563864 0 2278.44085653 0 164.57792887 0 414.68845974 0 34069
0.17850000 0.17849800 7818.67788139 0 150.62458514 0 2059.41919929 0 242.21707050 0 342.67295188 0 34536
