### header ###
fiducial parameters:
Omega_m = 0.31
Omega_nu = 0
Omega_de = 0.69
Omega_k = 0
H_0 = 100
w_de = -1
zeff = 0
beta = 0
fgrowth = 0
b_1 = 2
gamma = 0.55
Lx = 3500 Ly = 3500 Lz = 3500
nx = 700 ny = 700 nz = 700
xoffset = -685.467585 yoffset = -31.7331281 zoffset = 572.489161
bins = 400 dk = 0.001
kx_ny = 0.628318531 ky_ny = 0.628318531 kz_ny = 0.628318531
############################
A(data) = 8.06584991 (not used)
A(ran) = 8.07149791 (used)
Ngal = 479848
weighted Ngal = 0
Nran = 23820508
weighted Nran = 0
SN(data) = 3479.44964
SN(ran) = 70.305674
SN(data+ran) = 3549.75532
############################
13 columns: k_central k_mean P_0(k) sigma^{lin}_{P_0(k)} P^img_1(k) sigma^{lin}_{P_1(k)} P_2(k) sigma^{lin}_{P_2(k)} P^img_3(k) sigma^{lin}_{P_3(k)} P_4(k) sigma^{lin}_{P_4(k)} N_modes
### header ###
0.00050000 0 0 0 0 0 0 0 0 0 0 0 0
0.00150000 0.00179520 93463.26536616 0 -82484.94458523 0 38042.73650490 0 116454.28351259 0 -36319.88276312 0 3
0.00250000 0.00253879 148846.36976954 0 -53354.32232686 0 54511.38027041 0 -68465.60979285 0 62203.21359867 0 6
0.00350000 0.00331552 147771.24702965 0 8678.11173381 0 15193.00122315 0 -38835.51496191 0 -9104.35195003 0 7
0.00450000 0.00420575 120656.23078127 0 53587.83765728 0 17449.20885145 0 -14597.08870141 0 65802.16205773 0 24
0.00550000 0.00557378 72708.96755635 0 36476.77760580 0 3603.88671592 0 32112.39933203 0 15152.03362132 0 45
0.00650000 0.00659388 48024.10515916 0 1184.94912977 0 40091.22731960 0 42456.16517761 0 -148.31821988 0 40
0.00750000 0.00754703 56182.96914828 0 -6335.01957266 0 -11798.78005000 0 15413.45121029 0 -17541.99493343 0 57
0.00850000 0.00846663 64998.64344564 0 -8152.45311305 0 -13451.10308268 0 18057.74382348 0 -9818.73834733 0 75
0.00950000 0.00948925 68270.84759929 0 170.90354804 0 -16738.69776784 0 -21824.88089653 0 6981.25581070 0 112
0.01050000 0.01054430 65345.65010545 0 816.74671855 0 -20336.64971766 0 4927.33955685 0 5595.58757662 0 105
0.01150000 0.01145670 62999.53519963 0 -273.19189918 0 -22361.55648049 0 9187.64904964 0 7177.47955114 0 144
0.01250000 0.01249090 74726.12369181 0 -16163.49049351 0 -32395.40795440 0 12785.87780758 0 -11491.30158978 0 169
0.01350000 0.01339930 81718.73970778 0 -17200.30298953 0 -7355.33430470 0 -21879.91035088 0 -22327.01082706 0 180
0.01450000 0.01448870 86902.91291112 0 6746.41180130 0 -20126.93988559 0 -12100.16873156 0 -1296.09312630 0 267
0.01550000 0.01550050 80293.17788738 0 1573.39950138 0 8655.84528860 0 -20398.10112040 0 20876.42555256 0 238
0.01650000 0.01653350 79624.74163808 0 11436.16141219 0 751.92711460 0 -21764.53672627 0 9190.99289174 0 315
0.01750000 0.01747870 82019.90694285 0 3370.54854269 0 25040.28402387 0 15202.30197600 0 19489.50614578 0 297
0.01850000 0.01844180 74075.51388547 0 4628.65252254 0 24537.93264684 0 309.99409241 0 6104.70414411 0 388
0.01950000 0.01947590 72462.94049888 0 1669.88373985 0 29165.16791180 0 17353.65468826 0 6732.92570967 0 399
0.02050000 0.02045430 69890.61799701 0 5339.97188586 0 26360.65875849 0 10085.11633782 0 12195.94434124 0 462
0.02150000 0.02154770 62418.45959315 0 6176.41959196 0 20411.60935668 0 8922.48901488 0 3056.20524109 0 571
0.02250000 0.02255340 58321.69941025 0 4431.66479169 0 20543.81291501 0 2142.12946569 0 21395.71758656 0 510
0.02350000 0.02348930 57203.83749656 0 -1589.93048233 0 12560.77744402 0 8375.37222862 0 121.86532865 0 555
0.02450000 0.02439640 55108.95364087 0 -4490.66921065 0 2671.94020826 0 7521.78456370 0 6256.92646572 0 592
0.02550000 0.02547300 64730.25029203 0 -7938.70188242 0 3124.20038780 0 644.26647146 0 -17551.73857927 0 837
0.02650000 0.02652900 63764.85429110 0 115.13003346 0 566.38263145 0 -8310.65449005 0 -17628.58051351 0 723
0.02750000 0.02749970 64393.43017105 0 11595.93505932 0 10060.84580181 0 -14447.94448611 0 -15625.59695382 0 826
0.02850000 0.02848090 55167.74768566 0 7182.45102498 0 11744.63638163 0 -10826.04309771 0 -2032.25878651 0 831
0.02950000 0.02946900 51453.09343225 0 2325.06641634 0 13187.02813576 0 -1263.65121458 0 -8544.07016956 0 996
0.03050000 0.03053250 53200.52773513 0 -432.39310712 0 26068.23866003 0 1486.96893384 0 -13028.14027461 0 1041
0.03150000 0.03150510 51092.57853615 0 3248.47616157 0 23811.25596900 0 -2022.02795838 0 -5946.40311618 0 1036
0.03250000 0.03246190 51412.90089316 0 1337.90222481 0 25789.43752109 0 3887.82541357 0 -5910.88309816 0 1059
0.03350000 0.03345080 50062.85232802 0 -1056.30421663 0 23291.96393500 0 5810.06958069 0 5461.74531422 0 1302
0.03450000 0.03451200 51081.61693458 0 336.49902356 0 22849.73528174 0 8108.90565953 0 -4055.43826668 0 1339
0.03550000 0.03553350 50876.55747894 0 790.89284010 0 16033.61212339 0 7247.01375100 0 -2393.57089000 0 1365
0.03650000 0.03647120 48712.80376288 0 2122.81933121 0 13060.91435608 0 6233.60814965 0 280.79858633 0 1308
0.03750000 0.03744890 47932.86920266 0 1808.94106725 0 13060.36073983 0 954.71895812 0 3019.12402527 0 1579
0.03850000 0.03847530 45776.86611397 0 1026.56948833 0 11922.01502523 0 2231.42776535 0 -1637.07644141 0 1662
0.03950000 0.03950240 44767.84515325 0 251.65622741 0 10506.62867134 0 -568.85286712 0 -5747.66595801 0 1683
0.04050000 0.04050350 44802.61225318 0 -821.41923962 0 10586.28297608 0 -2033.35494667 0 -5230.89841407 0 1822
0.04150000 0.04152450 46022.78244819 0 144.09634242 0 13781.72270177 0 -1830.41030507 0 -5040.95268181 0 1887
0.04250000 0.04250150 47561.61415149 0 1067.30789303 0 12365.68308071 0 199.10143766 0 -6345.11753290 0 1920
0.04350000 0.04349210 43626.50991094 0 1750.40168593 0 12856.51923992 0 2320.88107756 0 -4321.35121952 0 2005
0.04450000 0.04448520 45446.13577164 0 1031.51106689 0 13059.14278410 0 -1267.78119174 0 -3918.36288542 0 2151
0.04550000 0.04548030 42963.38837755 0 484.46625074 0 14079.67896264 0 3524.28777280 0 -2864.89761288 0 2274
0.04650000 0.04648670 43394.54470599 0 70.49826718 0 14019.99913187 0 -222.93018790 0 -174.27507095 0 2311
0.04750000 0.04749250 43165.67975199 0 581.47531741 0 17989.98119559 0 812.04098050 0 2126.96038069 0 2568
0.04850000 0.04851840 43246.50772317 0 1452.54507598 0 19000.22011205 0 108.19410775 0 4936.80639457 0 2493
0.04950000 0.04949480 41461.98113214 0 1237.11085199 0 20258.14693469 0 3725.07331106 0 7006.14639690 0 2644
0.05050000 0.05050630 40406.78857693 0 1047.72316489 0 17755.69080243 0 3359.23262673 0 8745.06608199 0 2829
0.05150000 0.05149060 39765.03663044 0 265.56638908 0 16680.45733929 0 3429.91834837 0 7406.93133836 0 2784
0.05250000 0.05249300 39766.91892566 0 -10.30688393 0 17571.66876394 0 1817.69927618 0 5592.90807402 0 3055
0.05350000 0.05348950 39947.28709695 0 711.96709433 0 15811.16911778 0 -1101.94433953 0 5534.39083735 0 3009
0.05450000 0.05448610 37904.33244466 0 1364.49794903 0 14903.68137564 0 -1402.55352943 0 6286.22383719 0 3336
0.05550000 0.05550870 38167.63232885 0 656.16811340 0 14380.29258147 0 41.90221677 0 6137.17927280 0 3349
0.05650000 0.05647670 37395.33767275 0 199.97393685 0 13775.96509286 0 4716.12388860 0 4272.07937408 0 3324
0.05750000 0.05747970 36570.89236676 0 349.22223201 0 12945.76217796 0 2882.08186099 0 1491.28714052 0 3639
0.05850000 0.05849280 35991.92050199 0 2380.98165668 0 11351.23668083 0 2124.20337181 0 1376.10174544 0 3846
0.05950000 0.05951020 33405.09325461 0 1940.73494956 0 11949.80656052 0 -91.50700702 0 2183.37387564 0 3787
0.06050000 0.06049470 31891.61717515 0 1879.80394609 0 10733.09093085 0 124.75963436 0 3778.03224067 0 3930
0.06150000 0.06148310 31357.15605615 0 507.79121021 0 11989.55620662 0 772.84495064 0 3554.60379815 0 4083
0.06250000 0.06249100 30540.12920778 0 711.36033093 0 9346.45940451 0 241.90150924 0 2158.99261639 0 4303
0.06350000 0.06350600 29355.61189868 0 682.37852071 0 10642.64110941 0 -176.74309215 0 401.71169505 0 4470
0.06450000 0.06451750 29268.69414886 0 517.42745450 0 10999.65715086 0 697.56089250 0 4553.58216027 0 4479
0.06550000 0.06550280 29934.36231695 0 -1160.93325724 0 9994.20147873 0 1126.33224218 0 3257.56654024 0 4636
0.06650000 0.06648880 30365.74009189 0 -1424.38815397 0 9792.29763566 0 1140.58232422 0 732.43207229 0 4653
0.06750000 0.06749660 32068.55292575 0 -646.10890630 0 9175.43627537 0 1145.06661577 0 -865.73732694 0 5220
0.06850000 0.06852730 30977.59676137 0 885.75276852 0 9696.90955735 0 -1191.23821026 0 -240.20965801 0 5029
0.06950000 0.06949320 30498.82943621 0 1484.13441869 0 8709.82287209 0 675.88349497 0 -732.72881059 0 5040
0.07050000 0.07048030 29290.39590550 0 539.36726612 0 8041.58592464 0 116.43988949 0 -713.66005279 0 5475
0.07150000 0.07148790 28667.24546471 0 590.41954140 0 8292.73946850 0 2047.95934311 0 -1660.10687703 0 5509
0.07250000 0.07249820 28551.31822386 0 1513.30999459 0 7658.73814938 0 220.80983770 0 -1798.07911660 0 5916
0.07350000 0.07351270 27503.65484952 0 638.92296750 0 8477.86873947 0 711.58177742 0 2095.88036492 0 5721
0.07450000 0.07449140 26114.07808478 0 769.21101364 0 8479.07562287 0 1287.15776017 0 3994.17509345 0 6028
0.07550000 0.07549160 26278.05921534 0 354.70635450 0 8907.54137638 0 1641.78217946 0 4761.81937313 0 6183
0.07650000 0.07648840 26144.63770128 0 -53.58551247 0 8537.03924330 0 2174.32778626 0 5631.97123598 0 6330
0.07750000 0.07749960 25600.10076670 0 330.13908019 0 7565.11057072 0 1961.37376302 0 3959.99482674 0 6583
0.07850000 0.07848650 25717.46740977 0 -30.06711949 0 7767.36872818 0 341.50925054 0 6109.93028143 0 6549
0.07950000 0.07947320 25720.45693747 0 -143.08765363 0 6378.19056713 0 -71.45425171 0 4068.12715092 0 6828
0.08050000 0.08048110 25298.93353163 0 268.26028571 0 6237.91528400 0 204.67413874 0 3331.61824863 0 7147
0.08150000 0.08149960 24885.49292290 0 836.96146197 0 6087.32059415 0 -713.84717508 0 1592.43282774 0 7386
0.08250000 0.08250610 24370.85126533 0 1301.02031084 0 5943.93398774 0 -969.20266621 0 2451.44593182 0 7227
0.08350000 0.08350160 23254.09658412 0 1020.17632798 0 6076.38113722 0 -1283.23815718 0 1104.75781727 0 7798
0.08450000 0.08449610 22562.29772945 0 567.55519065 0 6745.06097767 0 366.90362752 0 1276.37331579 0 7371
0.08550000 0.08548940 22345.05871651 0 318.04588702 0 7139.87793606 0 -78.92784951 0 1127.72735510 0 8256
0.08650000 0.08650700 22439.17347747 0 172.26322953 0 7750.28413098 0 522.11104789 0 825.30784010 0 8037
0.08750000 0.08749060 22132.69152649 0 499.59658261 0 8042.73744642 0 314.57139149 0 2525.17654279 0 8155
0.08850000 0.08849210 21514.41290862 0 705.14986394 0 8139.39884208 0 819.33321363 0 2984.34585302 0 8718
0.08950000 0.08949900 21237.60478815 0 297.06161702 0 8159.60583488 0 1321.99129405 0 3834.71147142 0 8571
0.09050000 0.09049190 20604.59997827 0 438.34226725 0 7837.14651919 0 1503.75457827 0 2578.09118310 0 8932
0.09150000 0.09150830 20491.44081862 0 304.43357089 0 7702.35203684 0 142.18415193 0 3989.08182404 0 9285
0.09250000 0.09250820 20231.24118538 0 250.71950873 0 6953.88502375 0 692.59495482 0 3541.90384159 0 9204
0.09350000 0.09350330 20183.40874217 0 -93.93195688 0 6528.94026954 0 444.88047505 0 2534.28906612 0 9349
0.09450000 0.09448040 19950.77919773 0 -5.77590039 0 6419.00315641 0 177.46057880 0 3017.11993448 0 9564
0.09550000 0.09549270 19982.88893970 0 447.71056127 0 6243.42930176 0 -145.95760022 0 1197.38335054 0 10155
0.09650000 0.09649430 19352.09859478 0 491.90685302 0 6143.10296658 0 17.45563080 0 1406.34026452 0 9913
0.09750000 0.09749140 19286.32898536 0 313.18292196 0 6429.40006942 0 -144.20485121 0 1737.23669172 0 10476
0.09850000 0.09850240 18911.19862050 0 -39.47649185 0 6567.15086249 0 564.17813158 0 1401.34664602 0 10575
0.09950000 0.09950330 19108.06455578 0 157.83377582 0 6156.60013054 0 112.19918908 0 -50.95328869 0 10882
0.10050000 0.10051200 18746.77459695 0 341.52696626 0 6544.53010288 0 -137.60131668 0 596.73076654 0 10875
0.10150000 0.10150300 18039.25304103 0 864.06540589 0 6471.67420558 0 -365.28485363 0 29.42027428 0 11118
0.10250000 0.10250800 17816.58858893 0 884.87251869 0 6650.28187722 0 -391.89386463 0 334.43071329 0 11575
0.10350000 0.10349800 17077.62163054 0 296.51685864 0 6922.50605522 0 289.84689017 0 899.42044627 0 11364
0.10450000 0.10450100 16665.73114728 0 552.96186654 0 6211.72923581 0 691.78224618 0 758.06893317 0 12093
0.10550000 0.10551000 16397.89160992 0 97.51750782 0 5843.09832562 0 1393.49636773 0 398.61808749 0 12067
0.10650000 0.10649700 16015.34278743 0 48.57406753 0 5663.49414474 0 577.12942992 0 349.70055644 0 12054
0.10750000 0.10749900 16232.80324687 0 297.62409113 0 5856.25224751 0 149.06228010 0 260.10994741 0 12807
0.10850000 0.10850100 15624.71116783 0 569.48841856 0 5383.97330469 0 -495.12336338 0 112.60997234 0 12736
0.10950000 0.10950300 15457.18689333 0 572.85219084 0 5912.10105389 0 -561.00701775 0 731.24401184 0 12933
0.11050000 0.11050200 15117.93086088 0 192.62634210 0 6103.89586440 0 -273.36019852 0 1238.33988004 0 13428
0.11150000 0.11150900 15002.66795952 0 23.79088289 0 6178.30188718 0 598.08048294 0 11.77541744 0 13453
0.11250000 0.11250000 15053.26848394 0 160.25197157 0 6024.10869176 0 702.51022170 0 989.56910048 0 13668
0.11350000 0.11349100 14792.29378797 0 -1.04156031 0 5811.76364638 0 723.34501531 0 768.77144234 0 13791
0.11450000 0.11448600 14789.41498351 0 -35.56419659 0 5159.39334039 0 632.24635563 0 821.91417254 0 14205
0.11550000 0.11549300 14947.08488893 0 180.79777750 0 5528.61108380 0 -115.68143524 0 460.24221850 0 14776
0.11650000 0.11649800 14760.18404599 0 421.68727625 0 5496.08059348 0 -100.34670826 0 951.52348517 0 14553
0.11750000 0.11747300 14314.19080230 0 306.83847984 0 5577.81649529 0 -263.34638795 0 1104.95711911 0 14568
0.11850000 0.11849100 14231.36981265 0 42.75954688 0 5448.46959676 0 515.25063544 0 1040.21391420 0 16015
0.11950000 0.11950300 14254.28952503 0 33.89991545 0 5626.70080937 0 340.23482596 0 1155.70711992 0 15270
0.12050000 0.12050700 14064.62060089 0 215.28917654 0 4916.02364088 0 689.40501804 0 1284.27895571 0 15999
0.12150000 0.12150000 13973.27392113 0 -27.46324086 0 4929.64260041 0 153.72815778 0 1233.61199734 0 15670
0.12250000 0.12250700 14163.60718476 0 -3.86900246 0 5030.98758947 0 231.31304502 0 1383.48698609 0 16887
0.12350000 0.12352200 14035.94327961 0 151.76392736 0 4977.13180155 0 -84.12818831 0 1276.50618369 0 16407
0.12450000 0.12449800 13875.72673948 0 196.71867336 0 4727.43980457 0 149.19071907 0 1365.42802431 0 16306
0.12550000 0.12549900 13507.12904627 0 281.99771911 0 4809.58538240 0 167.79886816 0 736.34060295 0 17523
0.12650000 0.12650100 13294.54040975 0 307.07874929 0 4486.72746301 0 392.10091711 0 500.21109663 0 17154
0.12750000 0.12750600 13023.15772844 0 282.57126553 0 4340.62813703 0 125.28224809 0 291.43687602 0 18007
0.12850000 0.12850300 12684.89820523 0 316.23445468 0 3644.07925501 0 417.68905976 0 -34.56104397 0 17496
0.12950000 0.12949900 12591.11561402 0 102.66326006 0 3430.07336092 0 -99.09265675 0 -128.69916753 0 18405
0.13050000 0.13049000 12451.82576780 0 93.47223395 0 3474.79448086 0 97.88566262 0 -134.27076138 0 18100
0.13150000 0.13148800 12558.56297905 0 61.04825940 0 3916.04876953 0 -259.56076010 0 -508.21970918 0 19059
0.13250000 0.13249300 12369.44767115 0 48.66353192 0 3964.44590132 0 -172.38502510 0 -586.92733015 0 18957
0.13350000 0.13349100 12258.39225322 0 253.59609872 0 4017.41590325 0 -318.56628629 0 -420.87567484 0 19468
0.13450000 0.13450700 12330.80525753 0 301.46397337 0 4428.91885513 0 -53.64164916 0 -237.78260441 0 19953
0.13550000 0.13551000 12024.54475305 0 223.73625315 0 4517.63032158 0 96.87077333 0 -71.60406026 0 19956
0.13650000 0.13649900 11941.39159366 0 64.85868926 0 4126.65545991 0 556.41532465 0 39.42223745 0 19723
0.13750000 0.13749600 11811.07033055 0 86.98462667 0 4119.07091741 0 278.76681473 0 -156.42759057 0 20946
0.13850000 0.13851100 11913.71078162 0 89.06013396 0 3941.80299706 0 143.62798308 0 -619.92175088 0 20955
0.13950000 0.13949800 11564.15748709 0 216.14506725 0 3889.84057669 0 117.87818448 0 -391.22177451 0 20506
0.14050000 0.14048300 11371.72048174 0 218.88768211 0 3988.88252219 0 -23.46967475 0 -420.21908598 0 21447
0.14150000 0.14148400 11373.27060722 0 38.20572113 0 3766.77168633 0 375.07832493 0 -40.24723638 0 21771
0.14250000 0.14249400 11354.44765503 0 47.81528111 0 3970.32530580 0 337.59629095 0 18.35470358 0 22470
0.14350000 0.14350900 11338.94640028 0 191.22569301 0 3623.63974340 0 207.11226466 0 147.22205972 0 22519
0.14450000 0.14449900 11128.12933573 0 298.41686958 0 4063.16674940 0 170.82714900 0 473.99515316 0 22218
0.14550000 0.14550500 10842.51871704 0 290.28978317 0 3637.53551105 0 124.79617303 0 713.39985316 0 23559
0.14650000 0.14650700 10606.21316076 0 159.58763208 0 3674.33991874 0 168.75108810 0 682.55678514 0 23044
0.14750000 0.14750500 10511.04652894 0 94.79006205 0 3431.62348639 0 337.96499937 0 380.22141981 0 23649
0.14850000 0.14849900 10474.74037586 0 101.81766661 0 3631.95505934 0 184.00432277 0 452.12509718 0 23640
0.14950000 0.14949500 10245.16679307 0 85.97217329 0 3118.92996119 0 161.16765283 0 200.64602697 0 24457
0.15050000 0.15050000 10050.71462460 0 205.94081270 0 3097.01783037 0 -170.34993180 0 -0.58179088 0 24591
0.15150000 0.15149900 10079.36980123 0 269.86577280 0 3326.07101390 0 -90.84964309 0 -114.60077634 0 25020
0.15250000 0.15250500 9821.24069274 0 268.35107877 0 3204.56332134 0 75.53141388 0 618.80123160 0 25297
0.15350000 0.15350100 9630.26523427 0 73.49742781 0 3335.91431066 0 233.57512098 0 591.20456923 0 25452
0.15450000 0.15450400 9590.78132396 0 18.77954868 0 3284.97054417 0 346.41207597 0 549.73428385 0 26061
0.15550000 0.15549900 9569.23457987 0 126.98738611 0 3056.80314663 0 568.92372999 0 528.67361481 0 26128
0.15650000 0.15649500 9356.04803781 0 98.21428922 0 2761.67032859 0 448.74139472 0 472.66093802 0 26331
0.15750000 0.15749700 9351.76304810 0 -5.47702512 0 2526.58272804 0 318.22968761 0 913.20659791 0 27345
0.15850000 0.15849900 9250.56199926 0 159.31746735 0 2212.89269361 0 449.19093110 0 294.12523648 0 26980
0.15950000 0.15949700 9081.10006791 0 197.48155654 0 2064.95536170 0 54.42114082 0 701.78830612 0 27777
0.16050000 0.16050000 8992.62112028 0 78.63664737 0 1856.25311120 0 183.28129996 0 488.88521558 0 28224
0.16150000 0.16150500 8817.75589442 0 48.54472587 0 1946.43719684 0 -135.66919600 0 623.92550353 0 28075
0.16250000 0.16249700 9030.75420696 0 35.63295573 0 1854.62547945 0 32.05792349 0 315.64208530 0 28590
0.16350000 0.16349900 8836.56777429 0 103.87855843 0 1958.24029510 0 -148.52416512 0 83.61476461 0 29163
0.16450000 0.16449100 8899.61359181 0 262.87249245 0 2090.24455159 0 -415.70711362 0 -45.70168503 0 28996
0.16550000 0.16550500 8697.72082106 0 106.43360811 0 2339.17255816 0 -533.29852489 0 32.85612739 0 30777
0.16650000 0.16650700 8640.11151503 0 50.73837487 0 2517.41484309 0 43.88814895 0 38.40446936 0 29211
0.16750000 0.16749900 8658.44728493 0 45.86976292 0 2359.40169561 0 122.28939869 0 -420.06185897 0 30922
0.16850000 0.16850800 8597.73772795 0 15.45630111 0 2458.68723225 0 345.78316792 0 -572.65288899 0 30867
0.16950000 0.16949900 8495.97199054 0 147.56419456 0 2412.67065031 0 119.21682855 0 -603.10842564 0 30852
0.17050000 0.17049200 8309.39224503 0 310.96402807 0 2328.01165474 0 74.40181530 0 -237.07951178 0 31257
0.17150000 0.17149500 8158.39895147 0 265.08695741 0 2281.61861375 0 185.13812883 0 99.60176225 0 32608
0.17250000 0.17250900 8003.94002025 0 146.14804421 0 2336.13874116 0 -55.23340657 0 67.21554432 0 32361
0.17350000 0.17350400 7924.23035388 0 67.25418673 0 2304.39438591 0 130.99778216 0 87.55662297 0 32508
0.17450000 0.17449800 7859.55690462 0 159.75925311 0 2370.77297319 0 176.59029407 0 119.02195564 0 32791
0.17550000 0.17549800 7770.96723374 0 155.23510119 0 2271.27706237 0 20.37540285 0 595.34561871 0 33633
0.17650000 0.17650100 7609.63238881 0 60.70003478 0 2093.57732136 0 374.37633954 0 685.62271189 0 33984
0.17750000 0.17750300 7732.29160315 0 -196.11855335 0 1967.77356677 0 492.24788062 0 733.70317518 0 34069
0.17850000 0.17849800 7766.51615917 0 -105.18719650 0 1782.32319838 0 407.33311436 0 754.85685174 0 34536
