### header ###
fiducial parameters:
Omega_m = 0.31
Omega_nu = 0
Omega_de = 0.69
Omega_k = 0
H_0 = 100
w_de = -1
zeff = 0
beta = 0
fgrowth = 0
b_1 = 2
gamma = 0.55
Lx = 3500 Ly = 3500 Lz = 3500
nx = 700 ny = 700 nz = 700
xoffset = -685.467585 yoffset = -31.7331281 zoffset = 572.489161
bins = 400 dk = 0.001
kx_ny = 0.628318531 ky_ny = 0.628318531 kz_ny = 0.628318531
############################
A(data) = 7.97028556 (not used)
A(ran) = 7.96667887 (used)
Ngal = 473490
weighted Ngal = 0
Nran = 23820508
weighted Nran = 0
SN(data) = 3489.00199
SN(ran) = 69.3926622
SN(data+ran) = 3558.39465
############################
13 columns: k_central k_mean P_0(k) sigma^{lin}_{P_0(k)} P^img_1(k) sigma^{lin}_{P_1(k)} P_2(k) sigma^{lin}_{P_2(k)} P^img_3(k) sigma^{lin}_{P_3(k)} P_4(k) sigma^{lin}_{P_4(k)} N_modes
### header ###
0.00050000 0 0 0 0 0 0 0 0 0 0 0 0
0.00150000 0.00179520 12733.17354144 0 -43224.25235028 0 -22525.53761105 0 -80075.05308845 0 3288.91229181 0 3
0.00250000 0.00253879 33471.30575702 0 -55002.65932261 0 -38165.41786389 0 -3618.38038911 0 11708.65132597 0 6
0.00350000 0.00331552 75892.37166496 0 -68608.88567600 0 -43928.34148550 0 -39690.40916116 0 -72813.04740964 0 7
0.00450000 0.00420575 110825.11357479 0 -46866.82576912 0 -52725.52500041 0 -32308.71165107 0 15293.75937900 0 24
0.00550000 0.00557378 111997.67277309 0 19023.02910117 0 -37662.18070088 0 -62170.66096371 0 38687.81014883 0 45
0.00650000 0.00659388 93354.20296670 0 25193.08210636 0 -46852.87463985 0 -25803.49937361 0 45859.57638037 0 40
0.00750000 0.00754703 85751.39112998 0 6192.51875225 0 22749.97363513 0 -22565.84087339 0 17264.96536647 0 57
0.00850000 0.00846663 81568.59898324 0 4122.78014622 0 -5720.60519615 0 12611.26724519 0 12242.66955198 0 75
0.00950000 0.00948925 86232.92653634 0 3039.10957157 0 32295.75703103 0 6880.67481205 0 10260.57946922 0 112
0.01050000 0.01054430 78443.65674967 0 5621.12035766 0 13673.76753479 0 9344.28922885 0 7116.95822368 0 105
0.01150000 0.01145670 75792.83146484 0 10820.31870577 0 24944.17624444 0 13189.79621696 0 22995.22562986 0 144
0.01250000 0.01249090 74766.53767740 0 -6101.52638689 0 4543.07452401 0 19235.61773769 0 14490.90510640 0 169
0.01350000 0.01339930 80740.49981005 0 -19966.39117572 0 27404.33609589 0 10051.13537295 0 -862.37909083 0 180
0.01450000 0.01448870 83936.85853870 0 5732.91762135 0 9836.27690984 0 -2995.49568411 0 -1453.66338079 0 267
0.01550000 0.01550050 91187.79189268 0 3279.00256109 0 7582.71556718 0 -21318.98637557 0 12635.29419005 0 238
0.01650000 0.01653350 78081.03811186 0 -1921.25873021 0 26059.49152342 0 -22042.00918622 0 20229.13744367 0 315
0.01750000 0.01747870 93028.89806353 0 -1447.25250472 0 53289.54922667 0 9163.96534685 0 25516.28326782 0 297
0.01850000 0.01844180 81246.50505426 0 14901.68835718 0 56062.72370075 0 -2951.48319296 0 2943.95401208 0 388
0.01950000 0.01947590 76020.58918636 0 18395.89262344 0 51062.46181265 0 14138.03011443 0 40672.63509582 0 399
0.02050000 0.02045430 69841.12470507 0 -4657.94989401 0 41413.37362619 0 19144.60322768 0 35491.45142019 0 462
0.02150000 0.02154770 72408.79683052 0 -6588.67546193 0 43955.35795805 0 20755.51576555 0 14691.42490887 0 571
0.02250000 0.02255340 73123.95829055 0 3891.29105124 0 28320.57097464 0 10229.88698482 0 1071.40908215 0 510
0.02350000 0.02348930 73212.42616585 0 6000.84573731 0 25097.08505018 0 -4491.14532061 0 9489.31453932 0 555
0.02450000 0.02439640 69647.69119049 0 2361.29506315 0 27488.15359477 0 -4013.26378144 0 17864.31030890 0 592
0.02550000 0.02547300 64812.51766544 0 532.29647949 0 25359.49914839 0 1976.65357127 0 5135.88679480 0 837
0.02650000 0.02652900 72463.05122213 0 191.65419198 0 30338.83434258 0 2413.19104957 0 -4321.09655605 0 723
0.02750000 0.02749970 67642.82533558 0 -3350.18653735 0 29935.02665644 0 -466.47261568 0 -5520.56150365 0 826
0.02850000 0.02848090 70697.45830655 0 6650.22651560 0 33861.71593013 0 -2157.13246582 0 4705.12907006 0 831
0.02950000 0.02946900 64340.72590491 0 3841.96384417 0 29394.58648205 0 1349.88248027 0 -340.17503540 0 996
0.03050000 0.03053250 61772.16799348 0 562.27590617 0 30106.53696788 0 7246.07260339 0 3357.54963336 0 1041
0.03150000 0.03150510 65062.53075984 0 623.43499954 0 31747.45550601 0 8290.15961682 0 -3174.41338086 0 1036
0.03250000 0.03246190 58696.38688211 0 842.50316054 0 24458.32263140 0 5210.83536150 0 -6273.04777065 0 1059
0.03350000 0.03345080 59027.56011744 0 4101.75380139 0 24075.88453216 0 4072.91039524 0 -1740.92377589 0 1302
0.03450000 0.03451200 54327.80112491 0 2554.79501168 0 20511.92461954 0 3433.46149231 0 -1911.90261573 0 1339
0.03550000 0.03553350 52994.36104701 0 1786.02135487 0 20446.37645661 0 3664.72914080 0 -6013.91108060 0 1365
0.03650000 0.03647120 51629.69701311 0 2300.26440875 0 19605.21194014 0 -3673.91917040 0 -5256.61942463 0 1308
0.03750000 0.03744890 49014.52461419 0 3568.49956580 0 18996.67696810 0 -2300.84016964 0 -2047.28393129 0 1579
0.03850000 0.03847530 48877.44923294 0 1027.61139409 0 23521.82539824 0 -893.89867789 0 -1052.26281807 0 1662
0.03950000 0.03950240 47243.50625945 0 -368.79367336 0 20358.24075105 0 2911.16885829 0 -13.64221141 0 1683
0.04050000 0.04050350 48138.48227454 0 293.83846327 0 23412.65227552 0 6964.10477956 0 -2438.50238411 0 1822
0.04150000 0.04152450 46232.82445000 0 310.70493567 0 24472.49520716 0 4621.02369074 0 -140.50669472 0 1887
0.04250000 0.04250150 46507.63955200 0 1353.43669653 0 22263.67712909 0 5810.73392018 0 862.71236780 0 1920
0.04350000 0.04349210 43540.81011684 0 3220.14208236 0 17988.54179337 0 394.28880849 0 4645.07278024 0 2005
0.04450000 0.04448520 43024.95050354 0 1838.64811473 0 18596.85531890 0 1658.15814787 0 3020.98417584 0 2151
0.04550000 0.04548030 41912.84619876 0 -280.96688567 0 21006.52536918 0 -461.08814412 0 8710.78616435 0 2274
0.04650000 0.04648670 42271.81096938 0 674.22486072 0 20565.84684140 0 498.05088606 0 3652.39457095 0 2311
0.04750000 0.04749250 41274.74811946 0 2890.88435923 0 23336.47468077 0 -236.59565119 0 4342.14504553 0 2568
0.04850000 0.04851840 38279.13063978 0 2933.15849538 0 19836.95569859 0 -90.04479580 0 6350.73120158 0 2493
0.04950000 0.04949480 37548.24647850 0 309.93873079 0 20241.31700097 0 2696.53184168 0 5851.45793086 0 2644
0.05050000 0.05050630 36803.63263444 0 192.51008269 0 19433.70162870 0 1516.94171713 0 2683.92046372 0 2829
0.05150000 0.05149060 37053.42428235 0 1190.39671358 0 17194.21321088 0 3871.51587911 0 -2663.50309675 0 2784
0.05250000 0.05249300 34333.72913715 0 1140.63768584 0 13259.10897033 0 1037.71267603 0 -3624.52552938 0 3055
0.05350000 0.05348950 34218.90912878 0 -112.44499470 0 8616.44995690 0 27.57296760 0 -5095.25136272 0 3009
0.05450000 0.05448610 34019.05366580 0 -1716.59787826 0 7573.20444016 0 2646.79495860 0 -9482.97009720 0 3336
0.05550000 0.05550870 35246.19942545 0 -1572.07082240 0 6665.37345595 0 738.43659404 0 -11883.59405811 0 3349
0.05650000 0.05647670 36201.18744106 0 63.49646114 0 7635.18731449 0 67.18730989 0 -11324.10948502 0 3324
0.05750000 0.05747970 35470.96761927 0 1324.34969923 0 8912.31354838 0 -2286.52365365 0 -8661.42574031 0 3639
0.05850000 0.05849280 34452.09228946 0 1437.46456958 0 9086.27084360 0 -1783.03182717 0 -2365.39182333 0 3846
0.05950000 0.05951020 33645.25197992 0 910.32336452 0 11661.48322225 0 1393.40778913 0 -2295.54759838 0 3787
0.06050000 0.06049470 33663.29986938 0 682.22461540 0 12119.21313025 0 1600.16131047 0 1901.95966805 0 3930
0.06150000 0.06148310 34200.97196257 0 -575.30581802 0 12707.15357812 0 3146.31182047 0 492.40953657 0 4083
0.06250000 0.06249100 33756.41812110 0 -83.44137200 0 11624.28021086 0 643.24560311 0 1000.50080678 0 4303
0.06350000 0.06350600 33820.19471206 0 1786.15422277 0 12235.47254085 0 300.47742923 0 -328.92001723 0 4470
0.06450000 0.06451750 32133.65819568 0 1400.82624676 0 11588.29515520 0 -968.13972303 0 919.84334940 0 4479
0.06550000 0.06550280 30884.92140264 0 953.67483788 0 10576.84935534 0 -66.20840566 0 1064.63724829 0 4636
0.06650000 0.06648880 30707.98565203 0 309.34636141 0 10645.75243268 0 1126.56476100 0 -67.62876348 0 4653
0.06750000 0.06749660 31328.47873487 0 -497.64121004 0 10725.55067765 0 2324.80068055 0 -268.71425102 0 5220
0.06850000 0.06852730 30823.58072314 0 -250.40948363 0 10473.51134780 0 1022.05530150 0 -543.83937812 0 5029
0.06950000 0.06949320 30007.66110725 0 1855.97630308 0 9988.34421890 0 79.94506400 0 -1988.35701861 0 5040
0.07050000 0.07048030 28901.86802762 0 1704.70620140 0 10182.29813275 0 -524.17050031 0 1507.92884473 0 5475
0.07150000 0.07148790 27681.91927910 0 686.79748555 0 9564.80564994 0 813.07181394 0 958.99619719 0 5509
0.07250000 0.07249820 27120.88458054 0 -280.10988773 0 9992.41883443 0 919.78355885 0 2745.70403620 0 5916
0.07350000 0.07351270 27764.07592925 0 26.61476861 0 10460.53458312 0 3703.31619279 0 2225.49299925 0 5721
0.07450000 0.07449140 26757.04798700 0 -578.96632860 0 7261.09774817 0 3135.37236355 0 1776.65416808 0 6028
0.07550000 0.07549160 27603.74866588 0 -419.25136479 0 6862.73764585 0 1791.64609588 0 1176.83311567 0 6183
0.07650000 0.07648840 27629.99007570 0 186.68603984 0 6120.42684535 0 1027.92474089 0 1406.18525197 0 6330
0.07750000 0.07749960 26727.70632623 0 1332.32177310 0 5932.58485481 0 -968.92142916 0 1902.24754849 0 6583
0.07850000 0.07848650 25925.73783961 0 1574.34064899 0 6293.23261880 0 -2099.08026679 0 3263.34629380 0 6549
0.07950000 0.07947320 24891.91487130 0 577.13385885 0 6286.07989697 0 -485.67313415 0 2825.92302951 0 6828
0.08050000 0.08048110 25073.61172157 0 -90.52865640 0 8259.88788076 0 -1136.68486588 0 2551.18543379 0 7147
0.08150000 0.08149960 24568.60298659 0 532.69729765 0 8223.86960813 0 -630.69955185 0 388.13481036 0 7386
0.08250000 0.08250610 24832.12431727 0 575.95465625 0 9803.83499812 0 -393.45949136 0 1085.26720389 0 7227
0.08350000 0.08350160 24505.60145837 0 1091.88623967 0 10611.09605600 0 -925.50905801 0 1568.04049617 0 7798
0.08450000 0.08449610 23313.55496840 0 1131.53623484 0 10005.66133492 0 -295.77390565 0 1804.09138898 0 7371
0.08550000 0.08548940 22903.54678036 0 315.72291327 0 10861.66276665 0 368.38067565 0 3111.44506961 0 8256
0.08650000 0.08650700 22804.44947324 0 218.25545236 0 9926.81530988 0 2248.62308579 0 1297.75397502 0 8037
0.08750000 0.08749060 22362.11009673 0 372.67341598 0 9702.75574485 0 1324.49363946 0 1858.76652893 0 8155
0.08850000 0.08849210 21722.35116871 0 636.73618335 0 8041.38662279 0 890.00343402 0 1125.55717944 0 8718
0.08950000 0.08949900 21299.27763739 0 186.76243888 0 7806.52046874 0 1355.72866777 0 2130.55888625 0 8571
0.09050000 0.09049190 20942.74877823 0 222.12744435 0 7687.11651789 0 701.91231616 0 1904.88276180 0 8932
0.09150000 0.09150830 21228.30403530 0 256.85246945 0 7969.52723472 0 89.68649537 0 1530.85962943 0 9285
0.09250000 0.09250820 20432.09315759 0 511.79274839 0 8124.40691428 0 -116.95032366 0 1211.12410564 0 9204
0.09350000 0.09350330 19876.26245170 0 1080.34444828 0 8350.92453542 0 -1325.05832802 0 1845.65689634 0 9349
0.09450000 0.09448040 19158.33291046 0 939.67499038 0 8997.16077346 0 385.78526303 0 1778.02713635 0 9564
0.09550000 0.09549270 18665.28228628 0 218.42707339 0 8607.16027637 0 123.98457162 0 1327.48316716 0 10155
0.09650000 0.09649430 18260.92098390 0 -101.71247953 0 7584.53142845 0 1874.15706043 0 1440.91913492 0 9913
0.09750000 0.09749140 18267.12148580 0 108.90616896 0 7384.35486805 0 1789.57557114 0 512.01087319 0 10476
0.09850000 0.09850240 18086.42114476 0 147.87864858 0 6439.08835363 0 1113.90909373 0 412.20936621 0 10575
0.09950000 0.09950330 17584.62338398 0 672.45218151 0 5892.92378730 0 583.56023617 0 697.06706682 0 10882
0.10050000 0.10051200 16816.09331832 0 861.71696580 0 5224.53182730 0 326.23054953 0 1685.68394737 0 10875
0.10150000 0.10150300 16784.42646934 0 213.34598354 0 5347.93288741 0 27.96957828 0 1100.76624417 0 11118
0.10250000 0.10250800 16101.26402803 0 -70.12701213 0 5094.55380626 0 625.72586355 0 1858.60044406 0 11575
0.10350000 0.10349800 16172.23763011 0 325.53188583 0 5075.86372196 0 582.87153757 0 897.74963246 0 11364
0.10450000 0.10450100 16182.20272245 0 116.92928625 0 4832.91477079 0 480.06167993 0 1477.32493893 0 12093
0.10550000 0.10551000 16137.47053018 0 299.80533911 0 4707.08887155 0 -47.54290192 0 709.46364168 0 12067
0.10650000 0.10649700 15427.29161632 0 564.03419135 0 4807.80273810 0 -636.17592371 0 1319.98720325 0 12054
0.10750000 0.10749900 15355.43222824 0 490.75422401 0 4551.10195951 0 236.56575591 0 1743.52577222 0 12807
0.10850000 0.10850100 14897.70232024 0 226.21534667 0 5148.06635210 0 -291.77126023 0 1323.25353908 0 12736
0.10950000 0.10950300 14981.63054237 0 -3.82497890 0 4916.23401505 0 255.46732161 0 1355.21934083 0 12933
0.11050000 0.11050200 14903.90282214 0 -132.83910978 0 4984.02985992 0 728.43496303 0 588.22500662 0 13428
0.11150000 0.11150900 15164.76679487 0 -239.84205683 0 4311.10931906 0 378.02356333 0 -72.23551495 0 13453
0.11250000 0.11250000 14854.63097670 0 21.83384948 0 4153.50584759 0 -20.19359528 0 -16.98848942 0 13668
0.11350000 0.11349100 15188.68301647 0 307.63900892 0 4029.13042291 0 -379.16179832 0 -258.33394651 0 13791
0.11450000 0.11448600 14703.16157318 0 338.96593753 0 3498.16815855 0 332.41776464 0 287.55934787 0 14205
0.11550000 0.11549300 14599.63533612 0 147.35603485 0 3902.55160558 0 409.23755423 0 -161.33373770 0 14776
0.11650000 0.11649800 14229.70896393 0 75.79648533 0 3779.92560821 0 616.37417800 0 201.52849126 0 14553
0.11750000 0.11747300 14429.01081067 0 160.61403659 0 3864.91677352 0 587.12552476 0 321.85587399 0 14568
0.11850000 0.11849100 14253.07156930 0 223.97209366 0 4025.63156826 0 59.14979858 0 1192.29008112 0 16015
0.11950000 0.11950300 13792.35213359 0 253.22074690 0 4094.94432163 0 -115.98481694 0 1530.38351946 0 15270
0.12050000 0.12050700 13826.89778703 0 361.62766474 0 4290.72516907 0 -94.38248977 0 1442.56891132 0 15999
0.12150000 0.12150000 13695.69073793 0 187.45888811 0 4601.48103743 0 -232.72476643 0 1699.84545081 0 15670
0.12250000 0.12250700 13351.56288256 0 324.04044368 0 4371.06595796 0 51.69291999 0 768.90320301 0 16887
0.12350000 0.12352200 13177.72738291 0 215.07548067 0 4487.00427113 0 -420.48703624 0 864.18941593 0 16407
0.12450000 0.12449800 12880.21401503 0 267.58598112 0 4267.42899765 0 -3.64581761 0 712.45206215 0 16306
0.12550000 0.12549900 13022.71483545 0 -52.04756655 0 4210.35116321 0 364.32377583 0 126.04845297 0 17523
0.12650000 0.12650100 12893.61152807 0 -151.33542839 0 3895.19958190 0 436.68584745 0 110.08083190 0 17154
0.12750000 0.12750600 13096.34579549 0 123.37116483 0 3858.53911443 0 481.34053345 0 116.14536565 0 18007
0.12850000 0.12850300 13021.49687972 0 -95.02047713 0 3430.48303694 0 165.77595442 0 592.38930798 0 17496
0.12950000 0.12949900 13058.58916786 0 -68.87262845 0 3630.06169179 0 425.50722832 0 485.02983208 0 18405
0.13050000 0.13049000 13070.99017166 0 -109.22128732 0 3494.25962789 0 173.81667670 0 -149.84730793 0 18100
0.13150000 0.13148800 13318.23518486 0 298.62392206 0 3607.80631891 0 -179.78908871 0 335.12494805 0 19059
0.13250000 0.13249300 12673.27226417 0 377.26289462 0 3237.68064487 0 -105.34719159 0 926.57532289 0 18957
0.13350000 0.13349100 12727.74810228 0 69.02974474 0 3289.89772871 0 318.70579758 0 948.58378293 0 19468
0.13450000 0.13450700 12758.30771878 0 87.25977394 0 3178.38834547 0 406.19930830 0 540.09139617 0 19953
0.13550000 0.13551000 12418.71951659 0 202.12418233 0 3060.98848541 0 409.05153917 0 638.25530631 0 19956
0.13650000 0.13649900 12310.43217987 0 381.31647273 0 3249.50588778 0 -116.88721141 0 815.91850865 0 19723
0.13750000 0.13749600 12063.40861316 0 330.79234735 0 2967.38305140 0 190.83816164 0 1645.24781713 0 20946
0.13850000 0.13851100 11802.87681018 0 100.65927999 0 3372.33118699 0 433.01647901 0 1818.28610939 0 20955
0.13950000 0.13949800 11645.53907451 0 95.38265287 0 3041.11366236 0 296.46814041 0 1673.46010077 0 20506
0.14050000 0.14048300 11651.96102290 0 174.61166962 0 3150.67431645 0 472.49485315 0 1515.90091860 0 21447
0.14150000 0.14148400 11642.21737706 0 159.21006580 0 3307.21484473 0 -197.49484333 0 1589.90833768 0 21771
0.14250000 0.14249400 11166.66102610 0 195.69116161 0 2991.43214090 0 -185.07058765 0 1298.55118241 0 22470
0.14350000 0.14350900 11112.18518799 0 351.56070701 0 3210.75275091 0 -383.30395504 0 1183.18863012 0 22519
0.14450000 0.14449900 10922.08444318 0 265.14674797 0 3207.95145273 0 -183.79284136 0 526.67838188 0 22218
0.14550000 0.14550500 10653.66914493 0 40.20228274 0 2915.90781332 0 183.39091597 0 706.18180461 0 23559
0.14650000 0.14650700 10673.18965358 0 16.86636167 0 2936.63520538 0 296.47589104 0 315.74173623 0 23044
0.14750000 0.14750500 10589.88148165 0 -1.79756979 0 2577.85866428 0 580.49984559 0 408.09156861 0 23649
0.14850000 0.14849900 10544.52923919 0 170.82493453 0 2550.54323895 0 357.10904898 0 260.11105464 0 23640
0.14950000 0.14949500 10294.83724221 0 280.15971319 0 2362.97805652 0 87.27328218 0 736.35388974 0 24457
0.15050000 0.15050000 10100.13041027 0 359.75754908 0 2599.20610653 0 -114.93405331 0 713.49175345 0 24591
0.15150000 0.15149900 9895.07095463 0 206.08807462 0 2568.25895866 0 -125.88015363 0 827.95855466 0 25020
0.15250000 0.15250500 9874.48750279 0 2.89416177 0 2613.94337086 0 -60.54878682 0 1040.19509125 0 25297
0.15350000 0.15350100 9639.15631110 0 152.58770833 0 2787.24739892 0 -77.72694516 0 535.43548358 0 25452
0.15450000 0.15450400 9693.07853296 0 282.24020302 0 2857.09162388 0 -126.48913150 0 566.41363396 0 26061
0.15550000 0.15549900 9390.79299309 0 203.93561467 0 2857.77810802 0 -91.52405840 0 864.14734110 0 26128
0.15650000 0.15649500 9234.90573197 0 148.11006017 0 2859.90399438 0 288.80719887 0 653.86174814 0 26331
0.15750000 0.15749700 9244.22862946 0 -54.48026704 0 2851.75476332 0 180.04043048 0 837.86496368 0 27345
0.15850000 0.15849900 9220.78851782 0 122.09563301 0 2754.96049975 0 83.46584184 0 557.46719550 0 26980
0.15950000 0.15949700 9195.01214564 0 136.72217409 0 2794.25618053 0 -82.35938442 0 619.11568563 0 27777
0.16050000 0.16050000 9097.54247027 0 116.31366499 0 2593.02774928 0 67.22971690 0 594.19852586 0 28224
0.16150000 0.16150500 8866.80629337 0 103.48349788 0 2637.57171202 0 -196.07315682 0 558.85123611 0 28075
0.16250000 0.16249700 8980.99517923 0 102.10754008 0 2883.39946765 0 160.92073998 0 409.38038722 0 28590
0.16350000 0.16349900 8799.24296733 0 92.76615180 0 2696.78650515 0 102.74563815 0 599.25082767 0 29163
0.16450000 0.16449100 8756.41521493 0 198.78255470 0 2857.88883127 0 144.98655734 0 560.29838896 0 28996
0.16550000 0.16550500 8703.85488901 0 33.13968963 0 2558.58174677 0 523.30021558 0 924.64320221 0 30777
0.16650000 0.16650700 8658.23691076 0 76.43104027 0 2781.39013909 0 312.66805886 0 864.40311180 0 29211
0.16750000 0.16749900 8598.13633165 0 66.95379456 0 2204.01268910 0 -38.31223689 0 851.44517007 0 30922
0.16850000 0.16850800 8606.54022618 0 88.55612173 0 2371.78055475 0 314.33887267 0 1174.96189278 0 30867
0.16950000 0.16949900 8440.86502992 0 168.33255422 0 2090.76495086 0 107.33921355 0 1236.31364460 0 30852
0.17050000 0.17049200 8306.02625828 0 78.93006398 0 1837.70696713 0 327.78953286 0 902.95916129 0 31257
0.17150000 0.17149500 8161.47705777 0 -13.61718795 0 1721.75758162 0 328.36197205 0 905.48586581 0 32608
0.17250000 0.17250900 8185.95796795 0 165.09611367 0 1430.15683520 0 298.91844590 0 286.48201066 0 32361
0.17350000 0.17350400 8020.92496653 0 109.17611224 0 1316.57692721 0 74.16874286 0 598.17459770 0 32508
0.17450000 0.17449800 7942.49968983 0 139.31531257 0 1226.65857736 0 -164.52256725 0 423.83530727 0 32791
0.17550000 0.17549800 7972.46140079 0 29.23780236 0 1537.06013132 0 -222.52715528 0 647.51287709 0 33633
0.17650000 0.17650100 7869.14553791 0 76.96893381 0 1490.33492059 0 -258.40370215 0 236.42735185 0 33984
0.17750000 0.17750300 7866.82034970 0 192.11701516 0 1796.85008854 0 -350.79118044 0 240.69794754 0 34069
0.17850000 0.17849800 7805.31358533 0 75.11741965 0 1765.06144399 0 -76.31765966 0 251.44917493 0 34536
