### header ###
fiducial parameters:
Omega_m = 0.31
Omega_nu = 0
Omega_de = 0.69
Omega_k = 0
H_0 = 100
w_de = -1
zeff = 0
beta = 0
fgrowth = 0
b_1 = 2
gamma = 0.55
Lx = 3500 Ly = 3500 Lz = 3500
nx = 700 ny = 700 nz = 700
xoffset = -685.467585 yoffset = -31.7331281 zoffset = 572.489161
bins = 400 dk = 0.001
kx_ny = 0.628318531 ky_ny = 0.628318531 kz_ny = 0.628318531
############################
A(data) = 8.08502772 (not used)
A(ran) = 8.08366649 (used)
Ngal = 480406
weighted Ngal = 0
Nran = 23820508
weighted Nran = 0
SN(data) = 3486.82861
SN(ran) = 70.4116668
SN(data+ran) = 3557.24028
############################
13 columns: k_central k_mean P_0(k) sigma^{lin}_{P_0(k)} P^img_1(k) sigma^{lin}_{P_1(k)} P_2(k) sigma^{lin}_{P_2(k)} P^img_3(k) sigma^{lin}_{P_3(k)} P_4(k) sigma^{lin}_{P_4(k)} N_modes
### header ###
0.00050000 0 0 0 0 0 0 0 0 0 0 0 0
0.00150000 0.00179520 2913.08437049 0 -32.81969944 0 13274.61022508 0 -3373.85916781 0 -7136.84411906 0 3
0.00250000 0.00253879 12499.99038076 0 -7230.26132355 0 14864.15317604 0 19050.37774347 0 -8722.21280356 0 6
0.00350000 0.00331552 26278.28066184 0 -13639.00043486 0 19901.06445929 0 57283.66895850 0 3271.92734553 0 7
0.00450000 0.00420575 46164.84037562 0 -14966.35073412 0 24310.28564857 0 47313.48335230 0 -11777.85335609 0 24
0.00550000 0.00557378 58408.28499033 0 3207.86287413 0 24675.56164434 0 40648.49742772 0 -12453.04372353 0 45
0.00650000 0.00659388 67330.14288270 0 13359.20278669 0 12698.96005775 0 23444.20840126 0 2832.03495281 0 40
0.00750000 0.00754703 51489.29993441 0 6812.70180999 0 13181.15980361 0 20987.59169374 0 6611.56195733 0 57
0.00850000 0.00846663 45703.78877017 0 3632.44224163 0 16254.28355702 0 14686.44236270 0 13957.21905014 0 75
0.00950000 0.00948925 45821.37685974 0 -1706.74350917 0 11915.26090709 0 6896.13177750 0 -1449.37839109 0 112
0.01050000 0.01054430 51931.30714117 0 -11390.32198744 0 -3057.05781010 0 2614.20910666 0 -15100.43658767 0 105
0.01150000 0.01145670 57118.91276520 0 -5391.11495420 0 7574.84314423 0 -18103.58324823 0 -26528.29375624 0 144
0.01250000 0.01249090 61807.04581666 0 -2949.25765567 0 3838.62000208 0 -16715.22443922 0 -20954.92833553 0 169
0.01350000 0.01339930 61948.21795810 0 -3015.48123041 0 -2188.11283066 0 -5577.78327832 0 -28238.74649423 0 180
0.01450000 0.01448870 59406.45507273 0 9016.24946145 0 13310.15238774 0 -13286.12544289 0 -26895.56277048 0 267
0.01550000 0.01550050 63506.75839957 0 2250.07356035 0 26922.57924303 0 2166.78753306 0 -12232.59373639 0 238
0.01650000 0.01653350 63600.31954429 0 -9739.06189793 0 19146.81769264 0 -4548.23422738 0 -20596.62790440 0 315
0.01750000 0.01747870 66569.03127467 0 -5754.95154774 0 20109.22416588 0 3005.95903107 0 13217.47702901 0 297
0.01850000 0.01844180 79288.03224034 0 3110.31569248 0 24931.99668714 0 2091.15248222 0 -20532.74059019 0 388
0.01950000 0.01947590 72659.14209467 0 2531.68706978 0 17624.92664632 0 7245.86222922 0 8135.09170773 0 399
0.02050000 0.02045430 76758.33818902 0 2341.71919287 0 14512.60686305 0 -1429.09389202 0 -9677.69907379 0 462
0.02150000 0.02154770 70929.31278825 0 -350.23534973 0 15457.29761657 0 1843.36492511 0 -14909.99260079 0 571
0.02250000 0.02255340 68048.95820993 0 2882.91228536 0 20220.61175356 0 -6587.84503757 0 -30524.62795304 0 510
0.02350000 0.02348930 71367.44468132 0 -727.34323180 0 23791.65795407 0 -9432.75710415 0 -33395.34960877 0 555
0.02450000 0.02439640 66613.87419018 0 2128.47728919 0 25944.78223830 0 -8764.05511905 0 -29488.03690352 0 592
0.02550000 0.02547300 70245.59673070 0 4126.52259201 0 30638.89434517 0 -9211.07808896 0 -16690.42243163 0 837
0.02650000 0.02652900 65122.76420685 0 1660.49440840 0 31963.47656322 0 6630.76136857 0 3409.63384930 0 723
0.02750000 0.02749970 65188.53381628 0 1580.49686159 0 31023.21473962 0 19922.43404619 0 -1146.58352427 0 826
0.02850000 0.02848090 64120.82953401 0 460.34186943 0 31149.10707281 0 18530.19992349 0 19737.96911471 0 831
0.02950000 0.02946900 62611.56093798 0 2931.26512784 0 28682.74671946 0 18687.31621267 0 15976.14675758 0 996
0.03050000 0.03053250 59609.18934016 0 179.73040539 0 18379.94847570 0 11314.47656243 0 22521.21940437 0 1041
0.03150000 0.03150510 59563.12846892 0 -2200.02665217 0 15138.96827804 0 7951.06966924 0 19259.86612904 0 1036
0.03250000 0.03246190 58204.77566016 0 -1921.66840622 0 10163.59697613 0 2531.34382771 0 13029.80112333 0 1059
0.03350000 0.03345080 59552.60976034 0 2132.72906192 0 8427.10213017 0 -2027.03264920 0 6088.10672921 0 1302
0.03450000 0.03451200 55353.31984962 0 4018.52313573 0 4527.97187296 0 -5062.08974989 0 4800.68323324 0 1339
0.03550000 0.03553350 53191.11625903 0 2934.99650130 0 3865.12714769 0 -2789.31792366 0 3578.19892234 0 1365
0.03650000 0.03647120 50461.56674474 0 1014.80403598 0 5346.95852282 0 -3497.16057699 0 -2309.50979997 0 1308
0.03750000 0.03744890 49677.53542433 0 2244.34916841 0 11076.08940908 0 -2503.46371382 0 -2768.26943418 0 1579
0.03850000 0.03847530 48985.07223017 0 2935.92657659 0 12338.44516166 0 -4698.79570026 0 -2146.58054027 0 1662
0.03950000 0.03950240 46791.09106736 0 2854.77750799 0 19991.74679956 0 -6523.40410713 0 1418.65268971 0 1683
0.04050000 0.04050350 44919.86817301 0 2712.57564035 0 19363.83525909 0 -1189.90953129 0 623.44496463 0 1822
0.04150000 0.04152450 45655.51343396 0 -344.38473330 0 22721.29631385 0 2079.39367327 0 16.93035971 0 1887
0.04250000 0.04250150 44359.27636744 0 -975.85381173 0 19014.94630405 0 2640.30657625 0 2723.38222937 0 1920
0.04350000 0.04349210 46823.53297908 0 -1171.67341231 0 21876.03503719 0 1837.28621878 0 -634.79520481 0 2005
0.04450000 0.04448520 46531.66649686 0 -9.90441600 0 19082.93037844 0 3196.45837957 0 477.69773858 0 2151
0.04550000 0.04548030 47668.24063949 0 1201.29188120 0 20536.94807363 0 -1640.66387465 0 -4665.77802765 0 2274
0.04650000 0.04648670 45829.01676387 0 1724.79139862 0 19158.11146396 0 -2121.53494153 0 -1078.27392353 0 2311
0.04750000 0.04749250 43315.70975328 0 3234.92363599 0 21022.58024017 0 -1410.97956861 0 1215.49767394 0 2568
0.04850000 0.04851840 42052.35749147 0 887.87422595 0 19878.36619341 0 4744.35831689 0 903.74308188 0 2493
0.04950000 0.04949480 41015.87716520 0 785.44525629 0 20098.26256431 0 3245.02159622 0 132.08840616 0 2644
0.05050000 0.05050630 39683.54431977 0 1718.88984950 0 18207.99527127 0 5329.09886289 0 -181.24067049 0 2829
0.05150000 0.05149060 37859.26808265 0 1466.41869898 0 17426.95347856 0 5906.44309591 0 -1395.48938619 0 2784
0.05250000 0.05249300 35534.85493347 0 1363.66752466 0 12901.58360193 0 1642.23614478 0 -2048.83405677 0 3055
0.05350000 0.05348950 35398.55461496 0 1094.52588190 0 11836.42595438 0 856.67573631 0 -3457.24484602 0 3009
0.05450000 0.05448610 34320.77451711 0 790.55181249 0 9964.33941869 0 113.71720482 0 155.99244821 0 3336
0.05550000 0.05550870 33059.85816676 0 24.57657506 0 9199.23070140 0 -1415.19812437 0 -2278.28584398 0 3349
0.05650000 0.05647670 33873.00970144 0 -1484.18978032 0 9666.21707295 0 2017.51044986 0 -3305.77544250 0 3324
0.05750000 0.05747970 34972.04866294 0 -971.49020852 0 9421.66263468 0 907.50767232 0 -6727.89887420 0 3639
0.05850000 0.05849280 34765.32835858 0 -508.30607331 0 7271.69396302 0 1454.44951585 0 -3277.88425629 0 3846
0.05950000 0.05951020 36686.70888436 0 -518.93550514 0 8088.30006305 0 -63.35993937 0 -3801.92631763 0 3787
0.06050000 0.06049470 35921.16834640 0 208.06005567 0 6600.26818602 0 2160.57595884 0 -3469.19188450 0 3930
0.06150000 0.06148310 35896.47706205 0 1547.41275503 0 7322.34984907 0 226.11680298 0 -1629.49189891 0 4083
0.06250000 0.06249100 34440.68779490 0 2523.15030735 0 8172.52723794 0 -1144.98910950 0 -220.75336884 0 4303
0.06350000 0.06350600 32908.05659350 0 629.13503236 0 9497.36411947 0 484.89807141 0 -43.01354601 0 4470
0.06450000 0.06451750 31882.42714555 0 1158.65235832 0 11264.76182399 0 -2030.36541897 0 -195.67012420 0 4479
0.06550000 0.06550280 31294.70814417 0 1406.51742171 0 13285.90399639 0 -1980.13028127 0 51.27139658 0 4636
0.06650000 0.06648880 30790.47447193 0 778.91147741 0 13092.02758882 0 -2515.64327112 0 884.99763596 0 4653
0.06750000 0.06749660 30184.04324162 0 306.07338219 0 13212.27303635 0 1277.61341617 0 -759.84050514 0 5220
0.06850000 0.06852730 30858.67999282 0 -476.91271075 0 11250.03563199 0 2970.70474884 0 -1456.90757196 0 5029
0.06950000 0.06949320 30515.10575369 0 -476.14318418 0 11571.57594472 0 1970.28698450 0 -2252.35445926 0 5040
0.07050000 0.07048030 30607.67038918 0 289.44939371 0 8868.74395021 0 2287.80804333 0 -2498.30401046 0 5475
0.07150000 0.07148790 30277.16149334 0 385.06556192 0 9221.14283222 0 1113.53263469 0 -1179.92229430 0 5509
0.07250000 0.07249820 29862.61365213 0 809.46002159 0 8784.45034137 0 -151.98205216 0 -924.63323712 0 5916
0.07350000 0.07351270 29761.08043354 0 383.96165113 0 10265.24091797 0 -967.13989210 0 635.11630222 0 5721
0.07450000 0.07449140 29088.43670081 0 636.36526046 0 9861.42215950 0 -210.07078985 0 -379.83831737 0 6028
0.07550000 0.07549160 28697.69435796 0 904.93889296 0 10778.33245006 0 379.21162378 0 1059.51961976 0 6183
0.07650000 0.07648840 28014.08902366 0 687.80728157 0 10387.87798766 0 1113.73193653 0 -650.31528250 0 6330
0.07750000 0.07749960 27015.14387852 0 1242.24841070 0 10058.83063870 0 1249.55614508 0 497.95344960 0 6583
0.07850000 0.07848650 26098.90899978 0 929.68664617 0 8613.68187569 0 1715.19169301 0 291.82662185 0 6549
0.07950000 0.07947320 25287.19686732 0 610.59885338 0 8358.38728235 0 1497.32155755 0 1654.26068953 0 6828
0.08050000 0.08048110 24434.07424004 0 340.19275112 0 6758.41420140 0 2107.78311410 0 24.49320045 0 7147
0.08150000 0.08149960 24294.56294733 0 46.00174503 0 6791.23257217 0 860.32628180 0 -450.70562514 0 7386
0.08250000 0.08250610 23508.42788521 0 692.01255054 0 6254.84486865 0 -440.63423848 0 -772.04109986 0 7227
0.08350000 0.08350160 23176.47958714 0 415.24539767 0 6815.51418049 0 -1822.69289467 0 -1692.78130757 0 7798
0.08450000 0.08449610 23089.78328381 0 928.80861081 0 7744.88083647 0 -1447.55145749 0 -1503.56634875 0 7371
0.08550000 0.08548940 21883.67494132 0 644.27090038 0 7659.56857374 0 -925.90987617 0 -905.74938714 0 8256
0.08650000 0.08650700 21689.35564075 0 722.44926423 0 7920.67613762 0 273.82302170 0 -599.06259815 0 8037
0.08750000 0.08749060 21322.52951951 0 437.34907971 0 7477.76100022 0 688.22360099 0 -1291.87457054 0 8155
0.08850000 0.08849210 21545.74758785 0 -264.10484220 0 7855.30513189 0 942.69662783 0 -1792.00041027 0 8718
0.08950000 0.08949900 21193.86910512 0 -13.47413352 0 6910.59223371 0 1320.19757743 0 -1924.72436787 0 8571
0.09050000 0.09049190 21401.58591871 0 156.50620408 0 6738.59473998 0 -66.22169245 0 -2612.83613838 0 8932
0.09150000 0.09150830 20342.73949631 0 969.92236732 0 5793.66039531 0 245.19441864 0 -1224.55483564 0 9285
0.09250000 0.09250820 19975.02758908 0 999.87300596 0 6341.72940150 0 -232.79562931 0 -1803.43812181 0 9204
0.09350000 0.09350330 19431.26571724 0 380.59344992 0 6146.53538728 0 -219.99270012 0 -1993.32849245 0 9349
0.09450000 0.09448040 18909.31632528 0 424.17412041 0 6308.74494587 0 -98.49098662 0 -1023.73940210 0 9564
0.09550000 0.09549270 19000.33083529 0 2.59350386 0 6640.15070002 0 389.07927966 0 -1601.11353040 0 10155
0.09650000 0.09649430 18950.39465036 0 43.19945034 0 7003.44474964 0 900.28519484 0 -459.73067710 0 9913
0.09750000 0.09749140 18863.25545404 0 157.85813494 0 6643.30631259 0 587.05355465 0 -817.82073406 0 10476
0.09850000 0.09850240 18732.71274443 0 165.65526608 0 6571.43585219 0 186.33726161 0 1078.24070656 0 10575
0.09950000 0.09950330 18530.86426298 0 502.32480344 0 6863.05874326 0 901.29831256 0 89.75348294 0 10882
0.10050000 0.10051200 18049.77174961 0 490.59367530 0 7002.28215553 0 -128.62498295 0 918.65418172 0 10875
0.10150000 0.10150300 17731.77458082 0 402.70598982 0 6692.79960453 0 618.62075271 0 766.72416948 0 11118
0.10250000 0.10250800 17002.55126827 0 408.53003267 0 7307.31363196 0 -263.44493164 0 1522.48895186 0 11575
0.10350000 0.10349800 17019.82409498 0 496.37675055 0 6885.46912870 0 614.66793275 0 2017.63224543 0 11364
0.10450000 0.10450100 16848.75667653 0 -89.06843820 0 7070.16657900 0 624.48354870 0 1854.48153923 0 12093
0.10550000 0.10551000 16688.87230615 0 -140.10809102 0 6256.80467014 0 1189.12339622 0 2333.13814114 0 12067
0.10650000 0.10649700 16777.22945821 0 -76.16297928 0 5851.77902828 0 714.55358940 0 768.05063400 0 12054
0.10750000 0.10749900 16616.34857859 0 293.47861271 0 5546.20500793 0 244.37506661 0 565.20785778 0 12807
0.10850000 0.10850100 16211.87655297 0 615.54043195 0 4368.18715350 0 -131.70198202 0 -190.80715913 0 12736
0.10950000 0.10950300 15810.94767128 0 323.96515187 0 4586.87664100 0 -12.49190758 0 -722.34296991 0 12933
0.11050000 0.11050200 15312.69305444 0 368.98854628 0 4105.04228186 0 -331.64270190 0 -1003.94540703 0 13428
0.11150000 0.11150900 15151.48000508 0 539.43591454 0 4018.95495640 0 127.70265830 0 -2137.12477487 0 13453
0.11250000 0.11250000 14608.60391923 0 179.35283911 0 3982.73738192 0 -190.80162297 0 -1285.30868192 0 13668
0.11350000 0.11349100 14842.22997290 0 -310.86548438 0 3513.08258008 0 633.29822649 0 -1549.62721999 0 13791
0.11450000 0.11448600 15039.53880117 0 -365.98130286 0 3966.13996701 0 192.76585340 0 -1949.49315849 0 14205
0.11550000 0.11549300 15374.69807343 0 8.21105893 0 3763.66036305 0 215.29139101 0 -2220.42187448 0 14776
0.11650000 0.11649800 15228.65410907 0 297.48900876 0 4173.92321456 0 -79.68464292 0 -1024.68830034 0 14553
0.11750000 0.11747300 14794.50825293 0 698.06246882 0 3902.07549561 0 -392.74200471 0 -1133.69533818 0 14568
0.11850000 0.11849100 14532.53704772 0 477.95018759 0 4677.76935543 0 -65.82297803 0 -660.15082864 0 16015
0.11950000 0.11950300 14117.54631352 0 285.58736681 0 4722.44618608 0 195.56161541 0 -299.07567291 0 15270
0.12050000 0.12050700 13965.74474025 0 373.44294255 0 5053.95159115 0 6.81502700 0 -130.68443537 0 15999
0.12150000 0.12150000 13852.25341086 0 -17.21026808 0 4994.16103713 0 510.46960558 0 485.57901939 0 15670
0.12250000 0.12250700 14089.42260848 0 -218.20341243 0 5607.93321880 0 199.52882939 0 667.64789977 0 16887
0.12350000 0.12352200 13915.80855532 0 104.26376461 0 5121.12738582 0 294.61684770 0 677.57645344 0 16407
0.12450000 0.12449800 13928.65245211 0 259.82428143 0 5196.72921968 0 292.15989883 0 908.43221144 0 16306
0.12550000 0.12549900 13730.34711461 0 370.77008334 0 5055.49064430 0 189.78186186 0 1275.17750471 0 17523
0.12650000 0.12650100 13418.55044772 0 316.20123771 0 4833.04763869 0 60.66858938 0 297.79792662 0 17154
0.12750000 0.12750600 13032.34775804 0 320.39211265 0 4775.42726033 0 135.66698154 0 765.20283205 0 18007
0.12850000 0.12850300 12946.86941044 0 233.09458208 0 4429.81571344 0 -24.95702014 0 890.62459144 0 17496
0.12950000 0.12949900 12681.79795428 0 -50.38948591 0 4672.36606092 0 458.95561436 0 702.89443137 0 18405
0.13050000 0.13049000 12916.19907070 0 -90.35570668 0 4411.74567934 0 357.04704396 0 868.05365729 0 18100
0.13150000 0.13148800 12777.01994773 0 255.78509733 0 4165.12071633 0 385.93031048 0 19.47843382 0 19059
0.13250000 0.13249300 12401.22524338 0 146.43481742 0 4047.87586882 0 207.29938695 0 696.10045286 0 18957
0.13350000 0.13349100 12551.36596792 0 -109.91574354 0 3862.04904139 0 371.72894667 0 841.48118496 0 19468
0.13450000 0.13450700 12677.47974761 0 -180.47335838 0 3471.82709781 0 343.53105706 0 491.67211973 0 19953
0.13550000 0.13551000 12386.05615838 0 134.98271186 0 3331.78433350 0 376.62291424 0 -49.43172981 0 19956
0.13650000 0.13649900 12479.94947284 0 455.89190208 0 3488.30271714 0 1.51993124 0 266.39570621 0 19723
0.13750000 0.13749600 12062.30138068 0 230.69078036 0 3016.02377433 0 257.86890886 0 429.59291617 0 20946
0.13850000 0.13851100 11884.81201384 0 265.15892752 0 3133.02503068 0 210.42953318 0 516.97681087 0 20955
0.13950000 0.13949800 11910.05691443 0 121.54090953 0 2888.61453264 0 143.90700567 0 569.75083266 0 20506
0.14050000 0.14048300 11702.22937758 0 -8.57484016 0 3038.82169113 0 258.08039027 0 883.88043839 0 21447
0.14150000 0.14148400 11795.01545956 0 158.55015524 0 2897.90421316 0 216.63003508 0 1153.42622101 0 21771
0.14250000 0.14249400 11526.84375245 0 239.67043579 0 2847.22618247 0 248.39985668 0 859.67522910 0 22470
0.14350000 0.14350900 11334.84964010 0 245.25088750 0 2544.90742562 0 279.93383776 0 913.25088720 0 22519
0.14450000 0.14449900 11141.63757201 0 282.54026302 0 2624.20741597 0 -44.39780806 0 840.94085551 0 22218
0.14550000 0.14550500 10810.04358834 0 330.51553923 0 2903.39608627 0 -66.72050068 0 1169.92398499 0 23559
0.14650000 0.14650700 10722.15147393 0 163.20496059 0 2852.15336701 0 -141.51316904 0 898.71956811 0 23044
0.14750000 0.14750500 10564.40406224 0 -26.37350266 0 2937.95281203 0 -54.09229278 0 546.66282095 0 23649
0.14850000 0.14849900 10520.24763086 0 62.24838868 0 2982.27532828 0 165.12268725 0 573.48552782 0 23640
0.14950000 0.14949500 10567.34930064 0 32.01750951 0 2937.18882162 0 31.60993723 0 426.41848065 0 24457
0.15050000 0.15050000 10514.46787731 0 151.47383245 0 2909.26441842 0 10.61946673 0 171.92552362 0 24591
0.15150000 0.15149900 10375.58770711 0 351.72014849 0 2957.41795906 0 -59.27225850 0 369.42147418 0 25020
0.15250000 0.15250500 10068.66286314 0 196.61902243 0 2937.24418324 0 47.31126889 0 406.66988210 0 25297
0.15350000 0.15350100 9829.10204336 0 184.47046764 0 3047.56882773 0 102.40007090 0 629.03870313 0 25452
0.15450000 0.15450400 9923.40503384 0 97.64317871 0 2973.06315403 0 -9.61512937 0 466.70181280 0 26061
0.15550000 0.15549900 9690.34366873 0 152.10716943 0 3060.92205147 0 256.62105786 0 663.22118431 0 26128
0.15650000 0.15649500 9695.49229977 0 177.28785053 0 3037.29371030 0 -92.52411078 0 624.98512502 0 26331
0.15750000 0.15749700 9434.80548424 0 239.74904930 0 3011.26267465 0 136.20952545 0 786.65103246 0 27345
0.15850000 0.15849900 9328.78797410 0 99.50642953 0 2934.43181274 0 243.65204380 0 575.91590312 0 26980
0.15950000 0.15949700 9252.31142658 0 -27.77525898 0 2768.23621721 0 218.16133760 0 995.66220083 0 27777
0.16050000 0.16050000 9196.60656042 0 76.95930088 0 2698.94560849 0 232.81223780 0 301.36764415 0 28224
0.16150000 0.16150500 9231.97156589 0 135.53964980 0 2586.24041416 0 171.94213211 0 635.69649205 0 28075
0.16250000 0.16249700 9051.81376877 0 45.61676030 0 2281.84006025 0 186.10806448 0 584.95645633 0 28590
0.16350000 0.16349900 9072.82904127 0 51.35311034 0 2116.31987654 0 251.78355914 0 488.37478140 0 29163
0.16450000 0.16449100 9096.59025033 0 -18.09804709 0 2210.16890170 0 -16.16980172 0 540.99268341 0 28996
0.16550000 0.16550500 8917.26287757 0 210.42399702 0 2434.73779367 0 -4.52451731 0 382.08489207 0 30777
0.16650000 0.16650700 8752.83885401 0 308.97543853 0 2347.54323572 0 -183.83602343 0 481.05486747 0 29211
0.16750000 0.16749900 8527.12951258 0 225.47350091 0 2516.20795969 0 -62.48876886 0 529.01021349 0 30922
0.16850000 0.16850800 8410.72616177 0 104.59825954 0 2452.44244106 0 158.95429510 0 386.55146791 0 30867
0.16950000 0.16949900 8392.80006788 0 11.36197684 0 2551.37366331 0 119.52131749 0 645.16886593 0 30852
0.17050000 0.17049200 8432.85973908 0 19.02601863 0 2525.37584464 0 251.48792807 0 725.46868721 0 31257
0.17150000 0.17149500 8343.55036709 0 169.21058958 0 2527.46851403 0 -47.31104744 0 638.12243841 0 32608
0.17250000 0.17250900 8293.99064120 0 115.79215849 0 2366.07830747 0 106.27837411 0 983.20362094 0 32361
0.17350000 0.17350400 8257.79521137 0 -6.83826781 0 2694.93742691 0 -53.89896998 0 919.95517988 0 32508
0.17450000 0.17449800 8185.76973843 0 104.08395006 0 2445.28971922 0 266.04139181 0 822.35928000 0 32791
0.17550000 0.17549800 8152.37560677 0 12.26138178 0 2324.74531892 0 0.36560374 0 371.18529552 0 33633
0.17650000 0.17650100 8042.43849365 0 13.92145544 0 2097.27547785 0 19.79388436 0 126.77369024 0 33984
0.17750000 0.17750300 8106.38116948 0 55.19775369 0 2096.62221068 0 -120.34066952 0 -331.65045253 0 34069
0.17850000 0.17849800 7989.60135961 0 67.85065287 0 1791.69038518 0 51.66501773 0 -232.58304068 0 34536
