### header ###
fiducial parameters:
Omega_m = 0.31
Omega_nu = 0
Omega_de = 0.69
Omega_k = 0
H_0 = 100
w_de = -1
zeff = 0
beta = 0
fgrowth = 0
b_1 = 2
gamma = 0.55
Lx = 3500 Ly = 3500 Lz = 3500
nx = 700 ny = 700 nz = 700
xoffset = -685.467585 yoffset = -31.7331281 zoffset = 572.489161
bins = 400 dk = 0.001
kx_ny = 0.628318531 ky_ny = 0.628318531 kz_ny = 0.628318531
############################
A(data) = 8.04449542 (not used)
A(ran) = 8.04033841 (used)
Ngal = 477913
weighted Ngal = 0
Nran = 23820508
weighted Nran = 0
SN(data) = 3491.34491
SN(ran) = 70.0342635
SN(data+ran) = 3561.37918
############################
13 columns: k_central k_mean P_0(k) sigma^{lin}_{P_0(k)} P^img_1(k) sigma^{lin}_{P_1(k)} P_2(k) sigma^{lin}_{P_2(k)} P^img_3(k) sigma^{lin}_{P_3(k)} P_4(k) sigma^{lin}_{P_4(k)} N_modes
### header ###
0.00050000 0 0 0 0 0 0 0 0 0 0 0 0
0.00150000 0.00179520 34675.86397404 0 -26986.35583399 0 31947.42169223 0 -5966.52153037 0 -56914.51764905 0 3
0.00250000 0.00253879 46490.58817178 0 -8186.13512514 0 6400.06948097 0 -2029.85609203 0 86709.14722679 0 6
0.00350000 0.00331552 53603.00674229 0 49.99697200 0 21323.63675199 0 -27346.31711384 0 -5947.22246822 0 7
0.00450000 0.00420575 45524.19566161 0 3094.96945028 0 16167.36580719 0 -13713.62790413 0 18180.75735222 0 24
0.00550000 0.00557378 56342.63207216 0 -11706.54758426 0 13112.84355947 0 18788.96015451 0 -9855.74205687 0 45
0.00650000 0.00659388 65439.76486641 0 -23432.25029045 0 -8328.10447397 0 -11676.76303050 0 -9648.33526837 0 40
0.00750000 0.00754703 78487.72460245 0 -16035.27297211 0 -14500.64875224 0 -18006.03606658 0 -47194.45586050 0 57
0.00850000 0.00846663 87970.61719338 0 -2062.81840301 0 -23044.27602881 0 -32449.55162276 0 -48571.63162144 0 75
0.00950000 0.00948925 79071.12539714 0 16348.28759473 0 -17287.22073935 0 -56798.81185469 0 -31758.86000057 0 112
0.01050000 0.01054430 68154.58818870 0 15187.35433750 0 -10512.26448467 0 -37850.74239254 0 -21640.96958129 0 105
0.01150000 0.01145670 52612.03367102 0 1058.87299599 0 12.78997457 0 -7993.33273308 0 -23606.08579011 0 144
0.01250000 0.01249090 63843.57852056 0 -6968.53370949 0 8800.54950166 0 -1615.64042056 0 -45803.88258653 0 169
0.01350000 0.01339930 69155.08345931 0 465.40413633 0 21380.43777831 0 1253.09928903 0 -22177.31299551 0 180
0.01450000 0.01448870 64057.38511280 0 11335.29253309 0 17477.88617273 0 -1883.80105535 0 -10568.66690730 0 267
0.01550000 0.01550050 60146.63998686 0 1871.95366779 0 4624.00214611 0 6883.33217001 0 20985.59867528 0 238
0.01650000 0.01653350 63311.88548276 0 -4622.59596086 0 11061.16391523 0 21199.07309778 0 -975.26144235 0 315
0.01750000 0.01747870 71615.46475726 0 -6592.08573798 0 11159.02112198 0 7074.00867571 0 -5224.13322361 0 297
0.01850000 0.01844180 75859.70830674 0 -7873.61875714 0 -1616.21618145 0 1024.23876395 0 89.44190772 0 388
0.01950000 0.01947590 71411.62325735 0 7646.27071164 0 10735.50469766 0 -4995.27934193 0 554.41787725 0 399
0.02050000 0.02045430 70529.26969255 0 3182.71762447 0 9561.41751854 0 -460.86891209 0 4297.95539718 0 462
0.02150000 0.02154770 69354.71747579 0 -2830.52911664 0 8285.85248246 0 2575.85457349 0 -4374.18835356 0 571
0.02250000 0.02255340 71023.75971895 0 -727.02434885 0 22706.34867534 0 -1639.50128055 0 -14264.25461737 0 510
0.02350000 0.02348930 72936.39310812 0 970.10948961 0 15743.51721314 0 -6994.52045584 0 928.98798247 0 555
0.02450000 0.02439640 72817.14416983 0 -644.48902518 0 17499.14503638 0 6754.29529657 0 747.62330194 0 592
0.02550000 0.02547300 72822.56960899 0 2453.31715472 0 17490.61934627 0 -5464.74591424 0 -4500.94432808 0 837
0.02650000 0.02652900 73557.66125370 0 4957.75523312 0 14568.41138013 0 -247.46203077 0 -12529.88565777 0 723
0.02750000 0.02749970 65394.36833466 0 2273.00434505 0 20906.09938308 0 -2068.08882963 0 -13401.38834425 0 826
0.02850000 0.02848090 65271.79769891 0 2256.75017221 0 18931.68242142 0 -156.13195950 0 -5294.35390761 0 831
0.02950000 0.02946900 61697.76197070 0 853.18463230 0 17203.62468697 0 7471.31690718 0 -11283.69549943 0 996
0.03050000 0.03053250 63157.86944454 0 -1309.36884375 0 15602.45579495 0 9793.88097811 0 -4566.83573307 0 1041
0.03150000 0.03150510 61046.04493188 0 3219.65490007 0 13428.07264706 0 2607.22246970 0 -3349.93187388 0 1036
0.03250000 0.03246190 62017.75215796 0 5271.45633988 0 12140.36127065 0 -725.56169474 0 1645.93430127 0 1059
0.03350000 0.03345080 55436.03011601 0 4002.29110755 0 19731.76861281 0 -2353.24548301 0 4045.19636622 0 1302
0.03450000 0.03451200 53749.05070664 0 4496.40467490 0 16029.40463995 0 1526.44177182 0 15496.05075344 0 1339
0.03550000 0.03553350 51347.90634647 0 -921.65699621 0 20713.10876149 0 3785.61678317 0 14500.64875224 0 1365
0.03650000 0.03647120 50013.24831283 0 436.04365261 0 12341.43468936 0 10258.66395702 0 10957.54909958 0 1308
0.03750000 0.03744890 52919.51213123 0 -168.61157680 0 19879.03053290 0 5928.78704739 0 4968.86077491 0 1579
0.03850000 0.03847530 47112.40993360 0 4223.95905042 0 14796.39054815 0 -1694.44215630 0 5646.71957264 0 1662
0.03950000 0.03950240 45825.47361992 0 4504.91929269 0 17993.41361629 0 -3082.93383320 0 7262.90253712 0 1683
0.04050000 0.04050350 41768.46308312 0 1223.58047106 0 19306.92350952 0 -2469.48274895 0 6222.24794439 0 1822
0.04150000 0.04152450 41499.29486678 0 661.24588156 0 18477.82782710 0 -471.52713196 0 2798.69618279 0 1887
0.04250000 0.04250150 41124.93956466 0 474.72260490 0 17422.85671838 0 3901.53295170 0 3489.48745590 0 1920
0.04350000 0.04349210 40331.05387517 0 -444.22388619 0 15897.97614436 0 112.88456599 0 -2691.87039293 0 2005
0.04450000 0.04448520 41126.71113664 0 714.89793871 0 13569.79840474 0 4068.03857232 0 -1650.33001422 0 2151
0.04550000 0.04548030 39227.25381400 0 1420.14745356 0 13891.33871747 0 -1592.10065800 0 -4528.14903016 0 2274
0.04650000 0.04648670 38844.37282177 0 1036.36960303 0 12978.42553618 0 496.62919956 0 -3386.75842623 0 2311
0.04750000 0.04749250 37828.59774291 0 1875.65182428 0 13024.26496093 0 -1355.40757035 0 -4100.27010987 0 2568
0.04850000 0.04851840 36439.68531765 0 1477.74568727 0 12754.32168185 0 1524.09443896 0 -3451.99656406 0 2493
0.04950000 0.04949480 36887.00724033 0 389.45020254 0 14613.03284915 0 623.60219165 0 -2687.80684973 0 2644
0.05050000 0.05050630 36066.32652477 0 -219.30732322 0 13400.39183501 0 2948.52688223 0 -979.38256165 0 2829
0.05150000 0.05149060 36698.44554867 0 -203.42296603 0 16915.63351844 0 191.85681553 0 -1171.54054441 0 2784
0.05250000 0.05249300 36537.45394580 0 294.08869781 0 13506.13253703 0 809.34044048 0 1651.86906737 0 3055
0.05350000 0.05348950 37181.42035726 0 1417.37937236 0 16347.95542499 0 645.00167382 0 3383.50316273 0 3009
0.05450000 0.05448610 35102.70209580 0 47.42022056 0 15028.57719960 0 -142.92267599 0 4370.85558378 0 3336
0.05550000 0.05550870 35580.80508147 0 250.15924909 0 16964.01957790 0 1616.63692980 0 2273.65761221 0 3349
0.05650000 0.05647670 35542.27339110 0 795.00067261 0 17472.57145682 0 1589.08898565 0 2555.11610910 0 3324
0.05750000 0.05747970 34398.50223734 0 1373.56618305 0 16570.84132359 0 601.66127279 0 1895.46021338 0 3639
0.05850000 0.05849280 32743.30040020 0 637.56771494 0 16088.64157773 0 -301.68652710 0 2822.66776602 0 3846
0.05950000 0.05951020 33220.73904638 0 -332.32807880 0 15056.92235113 0 876.95137752 0 -649.31655880 0 3787
0.06050000 0.06049470 33207.12008685 0 -95.03055294 0 12781.78104740 0 2824.07395127 0 -1151.08996047 0 3930
0.06150000 0.06148310 33396.23539475 0 62.27374431 0 11906.51377048 0 -919.61415228 0 -3343.05596017 0 4083
0.06250000 0.06249100 32406.14810947 0 1766.00259160 0 11675.32362827 0 609.10741123 0 -3297.80336864 0 4303
0.06350000 0.06350600 31665.40957910 0 883.47740577 0 11073.87494412 0 976.67980716 0 -2644.08223902 0 4470
0.06450000 0.06451750 30569.47086855 0 -520.98831416 0 9853.29507309 0 1839.84392582 0 -597.09393880 0 4479
0.06550000 0.06550280 31310.98446166 0 -131.52371759 0 10369.02181849 0 2178.52419737 0 -3034.72493094 0 4636
0.06650000 0.06648880 31449.27779864 0 39.23522589 0 9887.26496563 0 2290.19966549 0 -1428.61778205 0 4653
0.06750000 0.06749660 30705.77118707 0 1133.27458984 0 9759.75607302 0 -403.66817484 0 -304.58969067 0 5220
0.06850000 0.06852730 30335.06975214 0 1202.99701922 0 10092.98876076 0 -819.14830580 0 449.32490623 0 5029
0.06950000 0.06949320 28907.07202028 0 1145.38771319 0 11536.14450530 0 -949.96560907 0 1461.40293584 0 5040
0.07050000 0.07048030 28494.40647429 0 1008.46402278 0 12109.46948441 0 -1266.07605371 0 1512.21383443 0 5475
0.07150000 0.07148790 27794.41409926 0 596.70197850 0 13371.82523698 0 585.65622726 0 3097.54930197 0 5509
0.07250000 0.07249820 27605.63096110 0 707.37207953 0 12557.45574657 0 743.14897548 0 1286.27197418 0 5916
0.07350000 0.07351270 26680.87039224 0 350.78453704 0 11654.28621111 0 736.67166546 0 1678.97411853 0 5721
0.07450000 0.07449140 26883.82610617 0 540.05153580 0 12482.27466105 0 1076.88988293 0 698.79213502 0 6028
0.07550000 0.07549160 26410.15205043 0 -230.84690014 0 11382.23919032 0 736.70045351 0 1429.72501453 0 6183
0.07650000 0.07648840 26002.57977385 0 -173.46014784 0 10644.34624743 0 2133.40447373 0 2092.31507633 0 6330
0.07750000 0.07749960 26282.04525228 0 1.67897412 0 9403.50402198 0 1589.06684100 0 960.21083123 0 6583
0.07850000 0.07848650 26051.51944955 0 3.63106927 0 9112.74477224 0 2217.59843165 0 311.25412298 0 6549
0.07950000 0.07947320 25553.37555596 0 570.18376056 0 8198.66899684 0 590.10619460 0 232.23536968 0 6828
0.08050000 0.08048110 25446.19545172 0 782.50223235 0 9362.93502384 0 -1408.33328298 0 1261.60283449 0 7147
0.08150000 0.08149960 25035.85509394 0 799.54364748 0 9668.42046559 0 -760.29114876 0 1196.75222802 0 7386
0.08250000 0.08250610 23992.95281927 0 525.83024180 0 9782.16645845 0 237.66302330 0 2040.45230688 0 7227
0.08350000 0.08350160 23986.75231737 0 332.54066744 0 8802.18820573 0 509.25164985 0 1537.19299922 0 7798
0.08450000 0.08449610 23797.08339323 0 313.92144603 0 9553.39008305 0 949.74194811 0 -317.11249004 0 7371
0.08550000 0.08548940 23064.53838323 0 1334.91269711 0 9731.43306613 0 1391.50334926 0 1084.68479960 0 8256
0.08650000 0.08650700 21665.43941914 0 1219.09617951 0 8624.98671933 0 272.87080176 0 2406.45907608 0 8037
0.08750000 0.08749060 21096.65409321 0 408.62414743 0 7937.29569717 0 1253.38716947 0 3677.70590549 0 8155
0.08850000 0.08849210 21018.70492648 0 -215.91697736 0 7822.13244673 0 1627.37708487 0 2339.31649838 0 8718
0.08950000 0.08949900 20792.27588394 0 16.57482736 0 7918.94885495 0 299.66582782 0 2560.02114899 0 8571
0.09050000 0.09049190 20870.22505067 0 1182.18104856 0 7808.59099348 0 58.51336135 0 2414.17648648 0 8932
0.09150000 0.09150830 19096.10644497 0 1162.19550226 0 6946.36691520 0 -559.82449346 0 3912.00737098 0 9285
0.09250000 0.09250820 18914.74176445 0 299.55399734 0 7369.39615722 0 270.90657134 0 1714.29483470 0 9204
0.09350000 0.09350330 18509.49467608 0 -337.11796652 0 7265.26094230 0 843.13981922 0 1607.05936883 0 9349
0.09450000 0.09448040 18646.34861084 0 40.52326943 0 6824.16166618 0 1069.00749489 0 1434.17608911 0 9564
0.09550000 0.09549270 18465.75899305 0 424.94032528 0 6263.37055876 0 832.71633264 0 463.94480392 0 10155
0.09650000 0.09649430 18203.45561810 0 274.94464820 0 5345.74056709 0 417.78428175 0 1302.29362819 0 9913
0.09750000 0.09749140 17610.86479380 0 387.15048068 0 5947.88680770 0 363.21765058 0 1447.31893867 0 10476
0.09850000 0.09850240 17618.94759092 0 378.96360371 0 5438.09482840 0 551.19693796 0 680.96790653 0 10575
0.09950000 0.09950330 16735.48679364 0 520.65725164 0 5251.14969617 0 -484.02778668 0 426.11177725 0 10882
0.10050000 0.10051200 16887.50981340 0 543.14957228 0 5748.35244215 0 -803.59279667 0 -287.84833554 0 10875
0.10150000 0.10150300 16251.07258282 0 480.90871278 0 6267.48946359 0 -534.06583700 0 833.55229316 0 11118
0.10250000 0.10250800 16095.28497263 0 286.76546218 0 6477.18822334 0 -358.25060567 0 -412.86927677 0 11575
0.10350000 0.10349800 15975.26097159 0 40.55925449 0 6386.41730447 0 156.43866290 0 988.59805760 0 11364
0.10450000 0.10450100 16017.22508265 0 -187.30276833 0 6474.67480560 0 624.64852634 0 -702.20905446 0 12093
0.10550000 0.10551000 15823.45939833 0 32.00333693 0 5536.48350674 0 603.78937362 0 214.84849801 0 12067
0.10650000 0.10649700 15931.96818155 0 10.73689981 0 5831.22879342 0 610.64646438 0 -1428.77279460 0 12054
0.10750000 0.10749900 15934.40409301 0 205.62303697 0 5059.52097053 0 477.69330965 0 -593.14222607 0 12807
0.10850000 0.10850100 15357.64669321 0 333.01124125 0 4625.26439114 0 792.58358410 0 -1040.20616357 0 12736
0.10950000 0.10950300 15241.16583611 0 391.98797939 0 4040.77850862 0 -374.47266876 0 -693.51395778 0 12933
0.11050000 0.11050200 14933.57665265 0 420.01978414 0 4462.58979491 0 89.08094993 0 -1185.44738438 0 13428
0.11150000 0.11150900 14780.44640041 0 255.49610966 0 4451.16315569 0 -90.80635030 0 -348.05853067 0 13453
0.11250000 0.11250000 14630.08422937 0 0.09428217 0 4827.06858329 0 563.15726323 0 141.34929863 0 13668
0.11350000 0.11349100 14559.22135053 0 -175.52845812 0 4666.70810294 0 1129.00067246 0 713.94461154 0 13791
0.11450000 0.11448600 14854.18808370 0 -143.25927467 0 4727.62803409 0 869.96363333 0 395.41043499 0 14205
0.11550000 0.11549300 14937.67341284 0 0.96268771 0 4569.96920100 0 882.06457712 0 1526.63000135 0 14776
0.11650000 0.11649800 15046.18219606 0 256.70852922 0 4470.44007320 0 65.31165807 0 2024.65209936 0 14553
0.11750000 0.11747300 14602.95703357 0 40.76276382 0 4426.06219533 0 -590.34092789 0 1678.92982923 0 14568
0.11850000 0.11849100 14694.96805281 0 179.02841999 0 4760.49069415 0 -343.04387476 0 1840.78507342 0 16015
0.11950000 0.11950300 14651.67526277 0 418.43644169 0 4972.18247236 0 -66.46760878 0 1591.13736574 0 15270
0.12050000 0.12050700 14307.87957715 0 -46.19894314 0 4228.84194566 0 274.35670775 0 1248.60392515 0 15999
0.12150000 0.12150000 14334.56387996 0 24.11950949 0 4235.92823354 0 319.71116467 0 1234.74137448 0 15670
0.12250000 0.12250700 14272.44813773 0 186.64396500 0 3961.65567546 0 352.86613411 0 909.54940902 0 16887
0.12350000 0.12352200 13990.65747110 0 370.33826267 0 3670.14350764 0 581.27490833 0 1065.61825627 0 16407
0.12450000 0.12449800 13753.59899673 0 242.56252703 0 3523.49056541 0 584.70732902 0 1031.14900187 0 16306
0.12550000 0.12549900 13406.26016717 0 323.80349593 0 3160.87192760 0 277.12811065 0 1052.22185047 0 17523
0.12650000 0.12650100 13226.99922835 0 200.42900940 0 3379.69428299 0 -133.36836691 0 1249.94367645 0 17154
0.12750000 0.12750600 13170.19820204 0 10.90678249 0 3557.22793914 0 -68.78283190 0 1042.35419459 0 18007
0.12850000 0.12850300 13046.74178031 0 284.97506725 0 3799.94437149 0 -471.97445388 0 902.00915582 0 17496
0.12950000 0.12949900 12923.17463533 0 107.16183491 0 3958.79901566 0 -576.04766378 0 516.87715995 0 18405
0.13050000 0.13049000 12864.82348354 0 198.57993116 0 4394.60572052 0 416.37588204 0 993.86073358 0 18100
0.13150000 0.13148800 12614.58894264 0 329.73051140 0 4522.33605963 0 -124.02553922 0 726.05219873 0 19059
0.13250000 0.13249300 12438.98187101 0 351.37247749 0 4148.65616932 0 570.80381075 0 1273.46129437 0 18957
0.13350000 0.13349100 12366.79031319 0 7.60732935 0 3941.44868267 0 427.09389246 0 1146.00776338 0 19468
0.13450000 0.13450700 12201.70195015 0 76.85212078 0 4190.17738739 0 -68.41556288 0 1334.12656205 0 19953
0.13550000 0.13551000 12254.84910928 0 273.02581431 0 4243.51277605 0 -323.64737615 0 1404.22545048 0 19956
0.13650000 0.13649900 11992.43501108 0 196.27578036 0 4435.98299837 0 -141.83315923 0 1830.87534271 0 19723
0.13750000 0.13749600 11756.48376919 0 195.16633342 0 4480.00656185 0 -53.90362036 0 1829.31414491 0 20946
0.13850000 0.13851100 11719.72365079 0 107.63993789 0 4171.63124332 0 617.97966510 0 855.97375092 0 20955
0.13950000 0.13949800 11612.76499304 0 -108.78714147 0 4000.48631860 0 390.56518565 0 1148.49903646 0 20506
0.14050000 0.14048300 11462.29209876 0 120.32184657 0 3551.53676418 0 610.27221980 0 733.23260137 0 21447
0.14150000 0.14148400 11576.89066063 0 92.44339353 0 3744.17307137 0 284.42809441 0 1027.95463616 0 21771
0.14250000 0.14249400 11250.81069472 0 282.61001867 0 3300.84825796 0 -28.01375685 0 1031.35494711 0 22470
0.14350000 0.14350900 11151.49194110 0 176.14740107 0 3145.83571050 0 82.05268102 0 995.80835552 0 22519
0.14450000 0.14449900 10953.76236449 0 117.44304212 0 3091.11628125 0 135.85742552 0 472.05860355 0 22218
0.14550000 0.14550500 10907.41361280 0 159.54887894 0 3038.32343651 0 408.76587319 0 490.63685736 0 23559
0.14650000 0.14650700 10612.40259033 0 162.20070073 0 2648.86548334 0 133.07827200 0 -0.14296586 0 23044
0.14750000 0.14750500 10492.61110812 0 238.72264479 0 2656.88184651 0 15.36473298 0 -286.64034491 0 23649
0.14850000 0.14849900 10267.83184197 0 262.04981872 0 2466.08354523 0 87.81040065 0 -338.50865052 0 23640
0.14950000 0.14949500 9949.87896248 0 277.40602601 0 2616.04711258 0 -414.78257450 0 -745.70668251 0 24457
0.15050000 0.15050000 9874.34356257 0 223.80268709 0 2591.71014263 0 -79.15007107 0 -550.97438423 0 24591
0.15150000 0.15149900 9760.98510107 0 103.42116069 0 2765.39062973 0 -199.63512371 0 -203.74738515 0 25020
0.15250000 0.15250500 9840.53975490 0 5.33063792 0 2968.68958573 0 241.40436186 0 -210.15051059 0 25297
0.15350000 0.15350100 9840.94943092 0 -10.96942970 0 2916.31748933 0 245.34278780 0 249.32771750 0 25452
0.15450000 0.15450400 9904.33849050 0 -77.44382582 0 2627.65090899 0 158.15598048 0 -30.02725912 0 26061
0.15550000 0.15549900 9871.47583044 0 142.73223200 0 2881.32894291 0 82.18466314 0 252.19544963 0 26128
0.15650000 0.15649500 9778.04755362 0 343.80011455 0 2827.62816754 0 145.58667734 0 490.09652791 0 26331
0.15750000 0.15749700 9372.31328297 0 137.59356606 0 2552.72448694 0 294.53712697 0 969.08197787 0 27345
0.15850000 0.15849900 9390.39438939 0 -0.28383351 0 2503.88446216 0 460.04291666 0 538.49033800 0 26980
0.15950000 0.15949700 9241.61556081 0 63.40433939 0 2284.04345289 0 568.31143043 0 406.93008173 0 27777
0.16050000 0.16050000 9176.91996689 0 171.41951838 0 2201.59892229 0 243.19143508 0 586.37592837 0 28224
0.16150000 0.16150500 9110.17599288 0 230.11169778 0 2053.37370994 0 -224.82687714 0 588.82623386 0 28075
0.16250000 0.16249700 8908.62646421 0 88.41838201 0 2082.36105632 0 111.63450052 0 839.38740834 0 28590
0.16350000 0.16349900 8791.84665435 0 154.79995882 0 2095.55926750 0 112.27337366 0 967.11110405 0 29163
0.16450000 0.16449100 8832.73674990 0 -22.17410202 0 1962.56957411 0 50.67659129 0 667.90477771 0 28996
0.16550000 0.16550500 8727.28392833 0 197.78383100 0 2035.80193046 0 105.22749976 0 669.58112769 0 30777
0.16650000 0.16650700 8619.92666689 0 165.91325125 0 1793.88270549 0 -130.04556223 0 861.97827267 0 29211
0.16750000 0.16749900 8459.53296957 0 126.44152050 0 2026.04721229 0 -21.22409655 0 566.13018244 0 30922
0.16850000 0.16850800 8425.54093237 0 224.64307655 0 2060.48214248 0 -99.40179606 0 480.40492200 0 30867
0.16950000 0.16949900 8291.63223602 0 106.74983370 0 2165.07132271 0 -272.68257224 0 514.94171757 0 30852
0.17050000 0.17049200 8268.56858342 0 85.77397867 0 2403.11523399 0 -15.59846976 0 613.41897451 0 31257
0.17150000 0.17149500 8138.95594909 0 59.96682543 0 2602.94855232 0 7.65343451 0 540.77234414 0 32608
0.17250000 0.17250900 8171.46429476 0 78.96737771 0 2580.25028644 0 61.12177963 0 234.34796925 0 32361
0.17350000 0.17350400 8120.13299690 0 15.82113421 0 2456.76064774 0 -132.22348852 0 396.17110371 0 32508
0.17450000 0.17449800 8147.34877130 0 70.39606962 0 2602.61638257 0 120.68723329 0 425.80839555 0 32791
0.17550000 0.17549800 8086.60599735 0 146.15468761 0 2561.39411727 0 -104.12281392 0 305.88293821 0 33633
0.17650000 0.17650100 7895.09906729 0 340.00784330 0 2479.81322801 0 -160.31286935 0 -113.30420710 0 33984
0.17750000 0.17750300 7719.22625987 0 250.59328423 0 2669.18319938 0 -196.73085291 0 218.16465930 0 34069
0.17850000 0.17849800 7620.02930182 0 -26.13090802 0 2480.96474979 0 83.79801159 0 142.84738418 0 34536
