### header ###
fiducial parameters:
Omega_m = 0.31
Omega_nu = 0
Omega_de = 0.69
Omega_k = 0
H_0 = 100
w_de = -1
zeff = 0
beta = 0
fgrowth = 0
b_1 = 2
gamma = 0.55
Lx = 3500 Ly = 3500 Lz = 3500
nx = 700 ny = 700 nz = 700
xoffset = -685.467585 yoffset = -31.7331281 zoffset = 572.489161
bins = 400 dk = 0.001
kx_ny = 0.628318531 ky_ny = 0.628318531 kz_ny = 0.628318531
############################
A(data) = 8.01565714 (not used)
A(ran) = 8.0088909 (used)
Ngal = 476722
weighted Ngal = 0
Nran = 23820508
weighted Nran = 0
SN(data) = 3493.26519
SN(ran) = 69.7603443
SN(data+ran) = 3563.02554
############################
13 columns: k_central k_mean P_0(k) sigma^{lin}_{P_0(k)} P^img_1(k) sigma^{lin}_{P_1(k)} P_2(k) sigma^{lin}_{P_2(k)} P^img_3(k) sigma^{lin}_{P_3(k)} P_4(k) sigma^{lin}_{P_4(k)} N_modes
### header ###
0.00050000 0 0 0 0 0 0 0 0 0 0 0 0
0.00150000 0.00179520 10748.22679888 0 -14322.60576916 0 -3870.37542966 0 190.40855544 0 46993.49316504 0 3
0.00250000 0.00253879 19672.19950529 0 -10787.44497339 0 -2636.36482862 0 4831.47536857 0 10413.48827496 0 6
0.00350000 0.00331552 28618.41651226 0 -10299.28831678 0 3747.01865885 0 -18621.54660325 0 -10737.99597075 0 7
0.00450000 0.00420575 34459.51074709 0 -6867.22193740 0 -4780.38766185 0 417.46207710 0 18817.52675254 0 24
0.00550000 0.00557378 42005.85372724 0 -13117.49393590 0 -8977.79527735 0 7383.20334627 0 183.79505583 0 45
0.00650000 0.00659388 70844.72022663 0 -27665.53223837 0 -33958.37732580 0 6668.40727295 0 -11795.34762930 0 40
0.00750000 0.00754703 83347.36796535 0 -29948.20272298 0 -24069.68403026 0 -21973.69294209 0 -24380.04129493 0 57
0.00850000 0.00846663 88891.05955555 0 -1780.13087807 0 -20253.93945126 0 -29600.64244692 0 5321.73576689 0 75
0.00950000 0.00948925 110392.85001387 0 -9148.43087513 0 945.24104807 0 -40122.45127558 0 4548.69926502 0 112
0.01050000 0.01054430 101632.53734061 0 5758.86007840 0 -65.20901762 0 -31245.98991497 0 2354.47451106 0 105
0.01150000 0.01145670 103003.62332290 0 12249.09150037 0 32365.73412388 0 -24311.17143456 0 -11182.05155760 0 144
0.01250000 0.01249090 94234.89568278 0 7509.15104108 0 19268.05964941 0 4995.40113751 0 -21645.28778797 0 169
0.01350000 0.01339930 88010.58828597 0 5555.82685820 0 44693.66057696 0 -16532.97397271 0 -10024.48428711 0 180
0.01450000 0.01448870 86599.53121109 0 12518.03827022 0 38542.76269371 0 6749.01379763 0 -39027.28762777 0 267
0.01550000 0.01550050 76702.64439519 0 9565.76894220 0 37451.36363633 0 -18210.09901299 0 -18898.90833995 0 238
0.01650000 0.01653350 73153.41067457 0 4186.55673718 0 31981.19228293 0 5539.05228610 0 -25742.82303361 0 315
0.01750000 0.01747870 77808.32675158 0 -5524.39252804 0 41797.47257415 0 -3396.14775767 0 -45310.83196235 0 297
0.01850000 0.01844180 70898.08883226 0 -85.70920557 0 31679.80360137 0 974.91155689 0 -40774.38976091 0 388
0.01950000 0.01947590 72714.17154901 0 10923.28025426 0 41195.58099701 0 2647.99076968 0 -28327.10364628 0 399
0.02050000 0.02045430 67230.27051283 0 3810.21948892 0 29830.94680315 0 4527.70613717 0 -26960.00370092 0 462
0.02150000 0.02154770 64405.83117485 0 620.89390100 0 30871.85605935 0 15704.32118328 0 -27429.02738024 0 571
0.02250000 0.02255340 69965.24546629 0 -4971.49598822 0 24335.19837941 0 17647.18201921 0 -27746.47093279 0 510
0.02350000 0.02348930 64451.55987635 0 -1347.66801530 0 23082.03265644 0 6718.60919368 0 -15474.34899680 0 555
0.02450000 0.02439640 69246.65158556 0 7078.79192003 0 17171.73639149 0 2052.76473208 0 -17991.08842807 0 592
0.02550000 0.02547300 67895.16361819 0 -1238.72741141 0 16638.38250498 0 2236.65390267 0 -7914.27633387 0 837
0.02650000 0.02652900 62373.50595438 0 854.03277238 0 18679.45486205 0 203.12622773 0 -2579.94026134 0 723
0.02750000 0.02749970 66900.31523324 0 3939.96499114 0 22663.94167129 0 1329.64227050 0 -7443.44786561 0 826
0.02850000 0.02848090 60494.31098616 0 2251.64583047 0 25876.79816391 0 -2384.45836667 0 -8728.85619846 0 831
0.02950000 0.02946900 57930.18200466 0 6142.71543521 0 24866.33780096 0 -929.56595782 0 -2473.83417261 0 996
0.03050000 0.03053250 56682.22027435 0 2199.74984405 0 23610.18255029 0 2557.93955193 0 -502.89945710 0 1041
0.03150000 0.03150510 52965.79444897 0 324.77010988 0 25381.86524452 0 4045.17422157 0 8131.28282799 0 1036
0.03250000 0.03246190 55547.52842694 0 -407.08066535 0 19440.01285384 0 11891.67685523 0 -3748.24768691 0 1059
0.03350000 0.03345080 52922.50165893 0 -1110.80884278 0 20124.28252763 0 5226.67985832 0 3928.92588330 0 1302
0.03450000 0.03451200 54808.22929880 0 284.35501706 0 18843.10382287 0 -186.84658855 0 -3740.82922928 0 1339
0.03550000 0.03553350 53351.66496890 0 2311.36995054 0 23507.43137597 0 -4926.73057898 0 3880.08585852 0 1365
0.03650000 0.03647120 54846.09664968 0 1769.97755621 0 30408.36854244 0 -10913.51446377 0 210.61222654 0 1308
0.03750000 0.03744890 54121.52371354 0 1008.24921968 0 31105.81428277 0 -3668.22799544 0 9152.04045302 0 1579
0.03850000 0.03847530 54656.09555579 0 -55.86408619 0 31053.88507937 0 4760.16959673 0 4725.32499053 0 1662
0.03950000 0.03950240 54385.26649072 0 276.04302282 0 28273.18142441 0 9081.69797345 0 -11.73345333 0 1683
0.04050000 0.04050350 52499.98174385 0 731.91720918 0 27076.59528126 0 7881.18115499 0 -455.23420599 0 1822
0.04150000 0.04152450 49773.20031076 0 5258.01453755 0 21484.51763160 0 9043.50952515 0 -6800.79906081 0 1887
0.04250000 0.04250150 44199.17055056 0 3751.91262642 0 14404.54097282 0 4690.51360130 0 675.52142995 0 1920
0.04350000 0.04349210 41686.30643297 0 1101.73728706 0 11527.17592220 0 2610.54416714 0 633.92824177 0 2005
0.04450000 0.04448520 41312.61547034 0 479.56563978 0 11127.02210325 0 979.66158423 0 3030.27385637 0 2151
0.04550000 0.04548030 39410.50078975 0 1577.93915455 0 12794.51422094 0 774.93097664 0 -1759.17096719 0 2274
0.04650000 0.04648670 40506.55022354 0 1780.87272383 0 14684.33862099 0 -4200.37499855 0 310.93634725 0 2311
0.04750000 0.04749250 38387.97159274 0 1904.25163929 0 17643.19598227 0 -4763.88989787 0 973.08019436 0 2568
0.04850000 0.04851840 37468.63646305 0 1252.62317906 0 19005.97772095 0 -549.08323115 0 1153.89125865 0 2493
0.04950000 0.04949480 36977.68958059 0 -1179.85586035 0 19110.27902074 0 2459.67266916 0 -1124.44994696 0 2644
0.05050000 0.05050630 37867.46160302 0 -1180.54234449 0 16372.20381634 0 4909.62383714 0 -5876.32637240 0 2829
0.05150000 0.05149060 39010.56841730 0 -665.93390389 0 13731.12217735 0 4907.26543195 0 -9536.49371538 0 2784
0.05250000 0.05249300 37375.73965782 0 771.20956827 0 7876.09895790 0 2785.65298415 0 -10168.78989647 0 3055
0.05350000 0.05348950 37786.63363184 0 519.65077732 0 7877.31691363 0 -665.68809828 0 -7761.38967278 0 3009
0.05450000 0.05448610 37502.40705375 0 667.61357557 0 7938.83475032 0 -2421.87175223 0 -8191.01802039 0 3336
0.05550000 0.05550870 36963.29555833 0 894.80550129 0 12762.73664871 0 -4181.51882939 0 -7654.91819732 0 3349
0.05650000 0.05647670 36511.43398248 0 1289.48294838 0 13233.64262325 0 -2582.79692115 0 -3709.30632052 0 3324
0.05750000 0.05747970 36997.28759552 0 704.01052171 0 18251.95240080 0 -2019.27094950 0 -3747.92658949 0 3639
0.05850000 0.05849280 35667.83355455 0 995.31785153 0 18358.13599581 0 436.69691978 0 250.98413729 0 3846
0.05950000 0.05951020 35897.69501778 0 921.43001355 0 19595.24684780 0 3285.26949694 0 -283.19463742 0 3787
0.06050000 0.06049470 34318.22788240 0 12.68290519 0 16554.89717585 0 5095.46173689 0 1156.60397823 0 3930
0.06150000 0.06148310 34318.33860565 0 380.67206343 0 16947.41109067 0 4484.98910802 0 1080.71980009 0 4083
0.06250000 0.06249100 33148.76893506 0 1116.99827235 0 15975.92531108 0 2104.60535688 0 1507.38630081 0 4303
0.06350000 0.06350600 32208.72855795 0 2299.05752534 0 14373.64918657 0 1362.34991801 0 2491.79348346 0 4470
0.06450000 0.06451750 30145.73299774 0 755.86775500 0 13787.70175717 0 611.78802106 0 5326.95083187 0 4479
0.06550000 0.06550280 30568.03146633 0 -168.75108810 0 14120.09294823 0 1715.31348858 0 4423.73700712 0 4636
0.06650000 0.06648880 30179.83575818 0 235.13631878 0 13822.35813385 0 -58.22005547 0 4226.81571022 0 4653
0.06750000 0.06749660 30302.62784042 0 478.23474633 0 13169.09096955 0 1181.20668398 0 4353.48310614 0 5220
0.06850000 0.06852730 30217.48166257 0 -344.19982547 0 12832.60301831 0 -196.35217940 0 3908.99569862 0 5029
0.06950000 0.06949320 30290.55900637 0 -506.10157344 0 11219.25456899 0 2165.92389172 0 4604.38198653 0 5040
0.07050000 0.07048030 30589.84394622 0 71.92659708 0 11553.41733202 0 1188.27082721 0 543.13296379 0 5475
0.07150000 0.07148790 30342.59893302 0 815.56862319 0 10128.09910276 0 765.69776497 0 1037.36721949 0 5509
0.07250000 0.07249820 29639.39558379 0 831.27360871 0 10257.84460499 0 653.53843626 0 636.56234785 0 5916
0.07350000 0.07351270 29154.64920323 0 793.23242233 0 10775.96297255 0 -219.46344300 0 3486.52007284 0 5721
0.07450000 0.07449140 28964.86955583 0 182.53834696 0 10227.10783129 0 1413.24939520 0 -202.71101555 0 6028
0.07550000 0.07549160 27720.89386246 0 624.48687040 0 10962.48735645 0 685.24736007 0 2143.26991515 0 6183
0.07650000 0.07648840 27670.40406129 0 929.43087546 0 10190.35878522 0 -177.12840905 0 385.75204605 0 6330
0.07750000 0.07749960 26876.62909504 0 816.06355611 0 10560.48445925 0 954.33142675 0 1063.90536762 0 6583
0.07850000 0.07848650 25614.27334246 0 688.20920696 0 9961.59348214 0 326.48853469 0 -171.37080015 0 6549
0.07950000 0.07947320 25118.45463708 0 731.37909420 0 8893.11413714 0 1464.17101704 0 -320.63570380 0 6828
0.08050000 0.08048110 24371.29415832 0 983.03532161 0 8570.80983399 0 418.81068627 0 -511.04979540 0 7147
0.08150000 0.08149960 23319.09113081 0 1109.69053797 0 8493.34784956 0 197.79490333 0 333.60803955 0 7386
0.08250000 0.08250610 22597.72916887 0 885.38627457 0 8440.45535390 0 96.13202782 0 849.28606673 0 7227
0.08350000 0.08350160 22217.28408810 0 145.98417380 0 8760.34589024 0 229.90353807 0 1800.69218526 0 7798
0.08450000 0.08449610 22460.76451086 0 -461.83109712 0 8896.70157038 0 1388.03771159 0 1951.78512973 0 7371
0.08550000 0.08548940 22814.30384232 0 -512.23896309 0 8637.54273568 0 859.94760829 0 2560.34224641 0 8256
0.08650000 0.08650700 23048.92640523 0 215.01015396 0 8382.45851650 0 1039.57061213 0 1281.99805680 0 8037
0.08750000 0.08749060 22562.74062244 0 486.45816198 0 7027.63777937 0 421.51565522 0 2050.53919479 0 8155
0.08850000 0.08849210 21921.43156895 0 980.63484159 0 7051.69794120 0 736.52772524 0 878.32988196 0 8718
0.08950000 0.08949900 21032.32388601 0 829.36141822 0 6199.17321946 0 547.56742988 0 1406.90495308 0 8571
0.09050000 0.09049190 20460.10613938 0 140.03501368 0 5975.31295628 0 266.64151182 0 229.66437585 0 8932
0.09150000 0.09150830 20077.00370066 0 427.65747380 0 6058.31110312 0 -56.99335260 0 29.65843998 0 9285
0.09250000 0.09250820 20033.26801762 0 280.54060116 0 6249.48586344 0 -595.01787789 0 -610.24896791 0 9204
0.09350000 0.09350330 19273.92798156 0 712.82852120 0 6338.35234243 0 -822.21976871 0 -481.98162105 0 9349
0.09450000 0.09448040 19010.18520438 0 1161.91869414 0 7226.52995009 0 -1145.06661577 0 -235.84384033 0 9564
0.09550000 0.09549270 18270.44318325 0 514.65826606 0 7732.07015666 0 -72.14405754 0 -81.89279665 0 10155
0.09650000 0.09649430 17681.28477965 0 242.41969404 0 7776.60304708 0 812.58241719 0 548.20187410 0 9913
0.09750000 0.09749140 17947.46346829 0 -127.87095763 0 7674.51621225 0 990.26001355 0 -623.17258544 0 10476
0.09850000 0.09850240 17737.53218973 0 300.71991314 0 7417.97044620 0 934.73562628 0 -497.76411285 0 10575
0.09950000 0.09950330 17558.82486715 0 503.12643976 0 7118.06545616 0 64.82812964 0 -1226.52570946 0 10882
0.10050000 0.10051200 16947.41109067 0 324.74021461 0 6275.62762234 0 -282.36974922 0 336.84005117 0 10875
0.10150000 0.10150300 17689.36757677 0 -123.13532431 0 7433.31668840 0 -369.58755905 0 82.93813484 0 11118
0.10250000 0.10250800 16864.81154752 0 309.31203720 0 7119.95882371 0 622.50270979 0 -294.08094718 0 11575
0.10350000 0.10349800 17008.64104692 0 646.59055243 0 7404.17432948 0 781.79138910 0 -91.20650412 0 11364
0.10450000 0.10450100 16344.52300429 0 21.10506906 0 6590.82349295 0 686.81077234 0 305.67034957 0 12093
0.10550000 0.10551000 16524.78045234 0 148.53966637 0 6567.18407946 0 1251.16163218 0 308.13504908 0 12067
0.10650000 0.10649700 15998.18068397 0 95.97668310 0 6159.56751359 0 536.34119975 0 718.41118737 0 12054
0.10750000 0.10749900 15896.09384914 0 429.05701565 0 5698.27231699 0 797.62813529 0 1219.78266365 0 12807
0.10850000 0.10850100 15769.42645321 0 173.33060164 0 5636.27837033 0 178.45598080 0 1042.18368079 0 12736
0.10950000 0.10950300 15496.60436968 0 126.32969002 0 5462.11070094 0 -9.50504831 0 588.59703673 0 12933
0.11050000 0.11050200 15214.03864031 0 411.93145086 0 5276.77105580 0 -332.06234301 0 788.71380657 0 13428
0.11150000 0.11150900 15258.99227907 0 145.72397417 0 5700.73037310 0 -116.07007384 0 69.76051818 0 13453
0.11250000 0.11250000 14911.32127977 0 -78.94966199 0 4915.06034862 0 793.61441754 0 535.61042631 0 13668
0.11350000 0.11349100 15079.84206351 0 -392.35225888 0 4589.46756500 0 1042.82587563 0 276.19028474 0 13791
0.11450000 0.11448600 15144.39371720 0 -231.46805757 0 4043.90090421 0 1267.71475779 0 354.01765589 0 14205
0.11550000 0.11549300 15373.81228744 0 119.37405557 0 3461.74020990 0 1412.79542988 0 322.67744049 0 14776
0.11650000 0.11649800 15099.77224818 0 123.86056158 0 3246.27276893 0 -311.92842756 0 751.50525902 0 14553
0.11750000 0.11747300 14887.07288841 0 445.13735299 0 3383.53637971 0 52.29669386 0 1315.58041798 0 14568
0.11850000 0.11849100 14787.86485804 0 354.01433419 0 3735.13805432 0 -854.37047828 0 1012.38362577 0 16015
0.11950000 0.11950300 14519.58242768 0 333.53828391 0 4163.90276060 0 -1026.98027158 0 1709.63338595 0 15270
0.12050000 0.12050700 14338.43919365 0 303.27651295 0 4825.05342017 0 -291.25418266 0 698.09679303 0 15999
0.12150000 0.12150000 14379.07462574 0 184.49039783 0 5041.51737037 0 -411.61921130 0 926.14350222 0 15670
0.12250000 0.12250700 13910.49383941 0 378.93038673 0 5011.83246754 0 128.24188051 0 379.64898061 0 16887
0.12350000 0.12352200 13918.46591328 0 23.79564399 0 4511.18622854 0 370.50213308 0 377.47437602 0 16407
0.12450000 0.12449800 13549.86822007 0 349.82013755 0 4569.07234269 0 821.47349402 0 346.94133310 0 16306
0.12550000 0.12549900 13567.36249328 0 45.45809388 0 3671.81542868 0 659.65035956 0 198.07171145 0 17523
0.12650000 0.12650100 13347.24467589 0 0.53712844 0 3652.19526911 0 127.51221431 0 -12.33124815 0 17154
0.12750000 0.12750600 13256.56233562 0 98.83489303 0 3307.23698938 0 411.67678738 0 -307.27805113 0 18007
0.12850000 0.12850300 13047.62756629 0 289.92439645 0 3058.29791048 0 98.16224930 0 -33.92659975 0 17496
0.12950000 0.12949900 12944.21205249 0 247.88056464 0 3205.12800990 0 -327.38428577 0 -259.49211168 0 18405
0.13050000 0.13049000 12625.88271395 0 227.36133229 0 3347.92778309 0 -10.33532873 0 315.62215512 0 18100
0.13150000 0.13148800 12612.48520092 0 82.44486277 0 3372.25368072 0 405.10204091 0 139.37399589 0 19059
0.13250000 0.13249300 12371.32996637 0 198.10492842 0 3412.25799029 0 344.70361625 0 -87.58662897 0 18957
0.13350000 0.13349100 12262.26756691 0 53.42130989 0 3168.75542287 0 499.14261729 0 322.31094654 0 19468
0.13450000 0.13450700 12176.56777281 0 176.78184529 0 3475.46989268 0 160.52877969 0 160.47895422 0 19953
0.13550000 0.13551000 12240.12291727 0 105.43189488 0 3294.39309259 0 -262.80052234 0 583.95108924 0 19956
0.13650000 0.13649900 12133.60715251 0 114.80672158 0 3710.47998695 0 -257.69507336 0 382.02731599 0 19723
0.13750000 0.13749600 12072.37719627 0 130.10756725 0 3337.53087008 0 -135.14547504 0 519.20345540 0 20946
0.13850000 0.13851100 11935.63398476 0 161.91060582 0 3435.89740377 0 -64.22546300 0 6.82647578 0 20955
0.13950000 0.13949800 11733.23188707 0 337.35491427 0 3178.01188642 0 496.06229652 0 418.20281563 0 20506
0.14050000 0.14048300 11558.84277118 0 171.36747845 0 2912.73005609 0 502.75773134 0 -143.71656168 0 21447
0.14150000 0.14148400 11194.89545439 0 181.85186282 0 2678.71647105 0 658.96276819 0 51.69546662 0 21771
0.14250000 0.14249400 11156.80665701 0 194.60939548 0 2767.82654119 0 379.91582364 0 69.18962911 0 22470
0.14350000 0.14350900 10859.19363821 0 209.56146291 0 2549.61316366 0 95.09720834 0 550.86919714 0 22519
0.14450000 0.14449900 10796.30283324 0 244.87664292 0 2718.65434667 0 -484.11304358 0 849.72120909 0 22218
0.14550000 0.14550500 10691.95724415 0 101.77071995 0 3102.65364371 0 -226.70474343 0 1152.80617082 0 23559
0.14650000 0.14650700 10708.61002068 0 192.42482579 0 3398.20721009 0 -117.93686781 0 1238.81599001 0 23044
0.14750000 0.14750500 10567.53753016 0 100.20996505 0 3266.50190637 0 -120.21223056 0 1021.92575530 0 23649
0.14850000 0.14849900 10560.01942161 0 19.33393998 0 3515.34133435 0 299.26390243 0 1343.00656655 0 23640
0.14950000 0.14949500 10435.01287441 0 66.67089666 0 3276.73273451 0 314.89359614 0 1029.03086614 0 24457
0.15050000 0.15050000 10464.78635585 0 154.19098096 0 3197.02306814 0 436.87850590 0 1079.02130546 0 24591
0.15150000 0.15149900 10214.96149096 0 225.36388489 0 3018.53719206 0 95.65746798 0 548.12879675 0 25020
0.15250000 0.15250500 9927.84503609 0 200.61723892 0 3009.31394549 0 60.24806248 0 948.43652101 0 25297
0.15350000 0.15350100 9986.67229785 0 59.41309847 0 3001.58546276 0 -89.22057194 0 742.15689518 0 25452
0.15450000 0.15450400 9842.82065381 0 23.57873715 0 3103.18511530 0 -280.91927467 0 536.86492071 0 26061
0.15550000 0.15549900 9771.34879711 0 308.07858022 0 3135.39450820 0 -113.80799788 0 467.93194809 0 26128
0.15650000 0.15649500 9646.47511780 0 183.81387878 0 3008.99284807 0 153.04610257 0 787.38623483 0 26331
0.15750000 0.15749700 9395.31050161 0 111.70757786 0 2689.17981800 0 458.29570380 0 666.40226323 0 27345
0.15850000 0.15849900 9462.38664537 0 84.71778961 0 2696.04465939 0 396.00612607 0 478.33218279 0 26980
0.15950000 0.15949700 9255.68848565 0 172.97407278 0 2358.75950077 0 428.09815232 0 327.85928851 0 27777
0.16050000 0.16050000 9094.48650862 0 163.97116547 0 2464.87666183 0 18.15052991 0 821.63072103 0 28224
0.16150000 0.16150500 9003.51628791 0 13.89156016 0 2104.51677828 0 85.21305470 0 783.78440756 0 28075
0.16250000 0.16249700 9176.52136320 0 -32.30228970 0 2476.15936082 0 87.05803618 0 881.03706538 0 28590
0.16350000 0.16349900 9023.75649767 0 126.06173976 0 2262.36384089 0 -202.35670115 0 571.61651939 0 29163
0.16450000 0.16449100 8953.11506533 0 226.94833458 0 2520.80297449 0 59.80162635 0 566.97389359 0 28996
0.16550000 0.16550500 8761.04344670 0 267.16301832 0 2292.17053931 0 -51.31579660 0 665.54083636 0 30777
0.16650000 0.16650700 8510.31065118 0 200.16991700 0 2438.94527710 0 182.90705538 0 870.60582817 0 29211
0.16750000 0.16749900 8412.84097581 0 95.13496497 0 2287.53123521 0 68.80962692 0 378.63697013 0 30922
0.16850000 0.16850800 8390.30879480 0 -41.30420050 0 2382.08888916 0 153.69272634 0 517.86370409 0 30867
0.16950000 0.16949900 8413.69354482 0 10.29417290 0 2352.61436049 0 17.09201565 0 413.53361626 0 30852
0.17050000 0.17049200 8473.90484718 0 71.18264758 0 2505.04705627 0 -299.44216686 0 420.77602392 0 31257
0.17150000 0.17149500 8447.91810083 0 138.87463404 0 2560.55262059 0 -259.25184223 0 488.70805838 0 32608
0.17250000 0.17250900 8238.21934109 0 196.93015476 0 2606.76850438 0 -89.22090411 0 496.42657601 0 32361
0.17350000 0.17350400 8313.74366868 0 75.31284618 0 2576.93966132 0 209.87370247 0 471.46291248 0 32508
0.17450000 0.17449800 8148.76602888 0 -2.19891942 0 2353.32298928 0 407.96977304 0 430.14542518 0 32791
0.17550000 0.17549800 8130.75135640 0 79.87752281 0 2256.63944896 0 705.51746512 0 349.75370360 0 33633
0.17650000 0.17650100 8111.80660864 0 74.19332342 0 1937.95579603 0 310.98506548 0 299.06238612 0 33984
0.17750000 0.17750300 7869.69915415 0 172.76812754 0 1743.47041059 0 264.97844863 0 693.57153387 0 34069
0.17850000 0.17849800 7714.65338972 0 227.24064395 0 1593.55113255 0 43.59495379 0 771.84511971 0 34536
