### header ###
fiducial parameters:
Omega_m = 0.31
Omega_nu = 0
Omega_de = 0.69
Omega_k = 0
H_0 = 100
w_de = -1
zeff = 0
beta = 0
fgrowth = 0
b_1 = 2
gamma = 0.55
Lx = 3500 Ly = 3500 Lz = 3500
nx = 700 ny = 700 nz = 700
xoffset = -685.467585 yoffset = -31.7331281 zoffset = 572.489161
bins = 400 dk = 0.001
kx_ny = 0.628318531 ky_ny = 0.628318531 kz_ny = 0.628318531
############################
A(data) = 8.0411985 (not used)
A(ran) = 8.03427212 (used)
Ngal = 477656
weighted Ngal = 0
Nran = 23820508
weighted Nran = 0
SN(data) = 3488.81879
SN(ran) = 69.9814239
SN(data+ran) = 3558.80021
############################
13 columns: k_central k_mean P_0(k) sigma^{lin}_{P_0(k)} P^img_1(k) sigma^{lin}_{P_1(k)} P_2(k) sigma^{lin}_{P_2(k)} P^img_3(k) sigma^{lin}_{P_3(k)} P_4(k) sigma^{lin}_{P_4(k)} N_modes
### header ###
0.00050000 0 0 0 0 0 0 0 0 0 0 0 0
0.00150000 0.00179520 24273.74697667 0 -15102.65105263 0 45739.55237933 0 -83312.37941893 0 29393.92214256 0 3
0.00250000 0.00253879 38859.98479976 0 -2367.88309642 0 -12061.85848769 0 29385.72862219 0 1819.71443929 0 6
0.00350000 0.00331552 61686.24675289 0 -25857.53231873 0 -15412.56542431 0 3329.99061688 0 34703.54478609 0 7
0.00450000 0.00420575 66779.73761596 0 -24969.86403802 0 -6529.90356180 0 -77178.09002290 0 -39238.65830856 0 24
0.00550000 0.00557378 80870.15673368 0 22750.19508162 0 16977.30636768 0 -61794.53408962 0 9370.86280841 0 45
0.00650000 0.00659388 78373.34748707 0 -5150.49119124 0 50452.81960813 0 -70302.06558727 0 32359.97651498 0 40
0.00750000 0.00754703 77956.47445765 0 -14968.12230609 0 59477.98229106 0 -2774.93497372 0 1473.63785476 0 57
0.00850000 0.00846663 106356.65544773 0 -19296.07263120 0 66025.82301906 0 33809.67600348 0 -16576.48820924 0 75
0.00950000 0.00948925 101464.12728012 0 17791.34368835 0 53970.38647977 0 19943.02857035 0 -57596.57285788 0 112
0.01050000 0.01054430 87901.41516326 0 20962.45751641 0 35214.97546946 0 35762.16976200 0 -987.10440098 0 105
0.01150000 0.01145670 77720.85538551 0 5925.27712042 0 21346.66718761 0 18640.03738569 0 -21570.99248844 0 144
0.01250000 0.01249090 72756.02493683 0 -5001.92273682 0 17152.02765332 0 14841.67635666 0 -16896.92128950 0 169
0.01350000 0.01339930 79391.66920064 0 1340.85853554 0 11257.34336637 0 32439.14363743 0 -54196.15118282 0 180
0.01450000 0.01448870 71557.00288222 0 -6004.51067683 0 3630.71495896 0 -7313.97917150 0 -14364.79132672 0 267
0.01550000 0.01550050 73362.34544390 0 -2376.63023302 0 207.51197559 0 -5347.00281212 0 -31186.97442369 0 238
0.01650000 0.01653350 75947.40111931 0 -3670.04385671 0 -2753.68718240 0 -18273.43271095 0 -33929.25711152 0 315
0.01750000 0.01747870 81816.72978242 0 4587.57419746 0 -519.29314123 0 -16938.77467731 0 -52527.21966291 0 297
0.01850000 0.01844180 79378.82530385 0 3871.98091676 0 3395.31733331 0 -26954.13536877 0 -42382.97711056 0 388
0.01950000 0.01947590 73266.79128071 0 7306.91502827 0 12664.30368107 0 -21403.57893718 0 -33061.96190848 0 399
0.02050000 0.02045430 70509.56095437 0 1894.23118532 0 15170.30295728 0 -3831.95446254 0 -26894.89843099 0 462
0.02150000 0.02154770 73054.09192095 0 -1494.30988520 0 19743.94817011 0 6376.15325936 0 -44174.36854297 0 571
0.02250000 0.02255340 73153.18922807 0 1436.25768618 0 29586.02697816 0 -4582.87953174 0 -40617.82708797 0 510
0.02350000 0.02348930 72891.88236235 0 7690.30534744 0 27254.08464811 0 2575.38953584 0 -16671.71020268 0 555
0.02450000 0.02439640 64739.66176813 0 4518.78184336 0 29845.11937892 0 7615.29034679 0 -748.71503317 0 592
0.02550000 0.02547300 67534.53799885 0 -1682.84943221 0 31900.91792799 0 22163.25114299 0 9142.06428836 0 837
0.02650000 0.02652900 67410.86013063 0 -4606.77360870 0 31030.19030426 0 22008.23859553 0 14148.21665327 0 723
0.02750000 0.02749970 70690.15057217 0 5465.23309653 0 27428.14159425 0 20565.51467166 0 17543.87722865 0 826
0.02850000 0.02848090 65980.98010355 0 1585.15831034 0 22057.17827123 0 -1668.26718043 0 22387.35499732 0 831
0.02950000 0.02946900 62701.46821551 0 4830.92175232 0 19984.54978842 0 -396.59406652 0 20454.90214672 0 996
0.03050000 0.03053250 59261.40761761 0 4324.88329114 0 27682.91578833 0 -6465.10831696 0 21476.43483449 0 1041
0.03150000 0.03150510 54384.04853499 0 2651.12423760 0 19049.15978774 0 -1503.72136130 0 13480.33402021 0 1036
0.03250000 0.03246190 53699.33596821 0 2644.46977039 0 21759.22201036 0 2733.52447890 0 6986.27157385 0 1059
0.03350000 0.03345080 51115.71969503 0 1467.65879936 0 12964.91729990 0 -256.60112767 0 -1093.85822072 0 1302
0.03450000 0.03451200 51971.27823376 0 1347.34691788 0 15176.50345917 0 168.68908308 0 -2604.44331617 0 1339
0.03550000 0.03553350 49314.47389353 0 2340.12477810 0 13321.11398931 0 673.75982307 0 620.83743214 0 1365
0.03650000 0.03647120 49023.82536704 0 277.14582637 0 9914.07106402 0 1489.73701505 0 1186.43282129 0 1308
0.03750000 0.03744890 48986.51163240 0 656.03524550 0 15969.28191619 0 1090.27300194 0 -2368.94603960 0 1579
0.03850000 0.03847530 47396.19361870 0 1771.67162191 0 13487.64175459 0 77.63648427 0 -5634.48465371 0 1662
0.03950000 0.03950240 45633.03661458 0 2942.62533310 0 16670.49224695 0 -1247.52990964 0 -3567.10445287 0 1683
0.04050000 0.04050350 42699.31343063 0 1917.00695748 0 14329.24916405 0 -753.00998796 0 -2537.14572592 0 1822
0.04150000 0.04152450 42853.44019210 0 225.41371036 0 17873.27889200 0 4942.42006325 0 116.52071746 0 1887
0.04250000 0.04250150 42065.20138826 0 -22.54934311 0 13327.86810745 0 1125.35787759 0 -5910.60629004 0 1920
0.04350000 0.04349210 41102.35202203 0 1537.73554314 0 15386.32401449 0 -354.35868350 0 -4488.37723941 0 2005
0.04450000 0.04448520 40899.61775460 0 1784.60409729 0 17907.82454544 0 -617.19020834 0 -2212.16192017 0 2151
0.04550000 0.04548030 39163.03433005 0 1751.79679886 0 19053.03510143 0 -1665.56553317 0 -2318.66661260 0 2274
0.04650000 0.04648670 38462.15616903 0 1661.62378553 0 20013.00566321 0 1989.57497434 0 1418.06585650 0 2311
0.04750000 0.04749250 37765.15332169 0 -34.21182284 0 19559.70468513 0 3490.10750609 0 3677.37373574 0 2568
0.04850000 0.04851840 38993.95993007 0 -453.22347180 0 18732.60202118 0 1062.15815476 0 2213.13628475 0 2493
0.04950000 0.04949480 39563.85248848 0 -524.17603647 0 19124.56231976 0 4556.05128870 0 -506.96632201 0 2644
0.05050000 0.05050630 38741.40020095 0 621.13195598 0 15269.40026440 0 685.34701100 0 -1468.28992188 0 2829
0.05150000 0.05149060 38459.60953432 0 489.86290186 0 13139.08496929 0 -132.12494483 0 -663.86005745 0 2784
0.05250000 0.05249300 38369.70225679 0 382.61968536 0 15325.75839773 0 -586.77231760 0 -4839.96784170 0 3055
0.05350000 0.05348950 37406.07782783 0 1273.06269067 0 14745.45785398 0 -1689.18280201 0 -6005.64005396 0 3009
0.05450000 0.05448610 35341.64286539 0 1289.98120300 0 14128.84008483 0 -1244.86147936 0 -6267.50053592 0 3336
0.05550000 0.05550870 35387.70373663 0 570.03760587 0 15220.34986546 0 -78.91456272 0 -5833.13323328 0 3349
0.05650000 0.05647670 35162.38192658 0 620.21959641 0 16192.27853804 0 403.81322230 0 -5476.25005973 0 3324
0.05750000 0.05747970 34997.73645652 0 -729.85554230 0 17879.03650091 0 2817.60771358 0 -3420.40722135 0 3639
0.05850000 0.05849280 34834.86255844 0 540.72916208 0 17423.96395086 0 2851.66618472 0 148.05248408 0 3846
0.05950000 0.05951020 35610.70035848 0 757.34923206 0 16085.65205003 0 2876.37961371 0 2641.73490616 0 3787
0.06050000 0.06049470 35125.51108493 0 684.00615246 0 17823.56415357 0 2296.72126481 0 5115.60229574 0 3930
0.06150000 0.06148310 33903.90148769 0 770.00268486 0 15174.17827096 0 2107.86062038 0 7365.16652914 0 4083
0.06250000 0.06249100 34257.10864940 0 -204.98969999 0 15768.65139048 0 2357.80728083 0 6045.44506168 0 4303
0.06350000 0.06350600 33986.50103083 0 -40.91832998 0 15124.35280928 0 1414.65558045 0 6381.11366088 0 4470
0.06450000 0.06451750 33735.26998070 0 462.17544642 0 14015.01658570 0 697.13460800 0 3849.89162874 0 4479
0.06550000 0.06550280 33131.49610834 0 877.97999649 0 12271.90048950 0 -424.58490366 0 601.31581625 0 4636
0.06650000 0.06648880 31813.77873167 0 909.18512953 0 13076.08344108 0 -1073.29802076 0 -81.87308792 0 4653
0.06750000 0.06749660 31409.52815254 0 1244.30786312 0 12884.31077522 0 -1179.30224411 0 -1850.62837019 0 5220
0.06850000 0.06852730 29932.81219148 0 1200.29537197 0 13154.03260780 0 -7.46209366 0 -2748.63820228 0 5029
0.06950000 0.06949320 29656.55768726 0 1025.65159260 0 12538.74351763 0 780.41952805 0 -2236.00063550 0 5040
0.07050000 0.07048030 28675.43898507 0 259.78109936 0 12397.57137619 0 443.04136190 0 -2085.50559657 0 5475
0.07150000 0.07148790 28704.33775285 0 438.92910046 0 11768.44187999 0 1837.09798926 0 -1524.33803011 0 5509
0.07250000 0.07249820 28513.11870323 0 452.83040427 0 12409.30804050 0 1510.61941966 0 -2667.88773738 0 5916
0.07350000 0.07351270 27847.33981189 0 488.43125026 0 11081.07195525 0 554.67696965 0 -1172.38204110 0 5721
0.07450000 0.07449140 27444.86080473 0 523.40761713 0 10141.43018184 0 567.73456231 0 -1698.39497626 0 6028
0.07550000 0.07549160 27694.09883640 0 -163.54930990 0 11735.88924503 0 -150.66333827 0 -1881.08833576 0 6183
0.07650000 0.07648840 27084.01373889 0 656.88781452 0 11307.27955130 0 1238.71633909 0 -616.81374930 0 6330
0.07750000 0.07749960 26934.86952358 0 789.63391677 0 10977.11389753 0 1551.66452776 0 -820.53677534 0 6583
0.07850000 0.07848650 25899.93932278 0 20.94828494 0 10159.73273477 0 2551.72797771 0 335.85682872 0 6549
0.07950000 0.07947320 25977.55631976 0 80.25996091 0 9857.24789305 0 2014.44341588 0 30.72946596 0 6828
0.08050000 0.08048110 25646.16163794 0 -37.12816247 0 9387.26092147 0 1420.60141888 0 1829.26985561 0 7147
0.08150000 0.08149960 25227.18486680 0 536.48513997 0 8975.28185962 0 239.99153321 0 2140.47968929 0 7386
0.08250000 0.08250610 25183.11701403 0 754.81699137 0 8028.21055626 0 197.44391063 0 3532.10483412 0 7227
0.08350000 0.08350160 24676.44743032 0 221.61036678 0 9135.90807576 0 -8.30354606 0 3151.23900501 0 7798
0.08450000 0.08449610 23883.00463382 0 797.16974104 0 8275.21197831 0 894.51319191 0 2249.78567990 0 7371
0.08550000 0.08548940 23483.51515436 0 1010.21123564 0 8099.62705134 0 1125.03678017 0 3227.91485438 0 8256
0.08650000 0.08650700 22438.17696823 0 706.29474232 0 7077.78433847 0 1241.00831032 0 2848.25590867 0 8037
0.08750000 0.08749060 22453.34605324 0 332.89055291 0 6471.37525281 0 357.36149799 0 2295.16006701 0 8155
0.08850000 0.08849210 21755.12525017 0 284.57424909 0 6864.48707317 0 176.02560550 0 2445.32293620 0 8718
0.08950000 0.08949900 21123.67056577 0 805.85487263 0 6330.72351063 0 -402.37492730 0 1147.81255232 0 8571
0.09050000 0.09049190 20679.55961729 0 365.57384130 0 6700.84918467 0 -1193.61876010 0 1102.71608057 0 8932
0.09150000 0.09150830 20514.02836125 0 243.33094638 0 7282.26803322 0 -767.01204993 0 -490.56378002 0 9285
0.09250000 0.09250820 19950.44702798 0 782.58084586 0 7760.27136797 0 -677.69049839 0 302.70850268 0 9204
0.09350000 0.09350330 20070.91392201 0 720.60904385 0 8172.43865934 0 -830.09662058 0 660.94692879 0 9349
0.09450000 0.09448040 19222.77384090 0 391.39339555 0 7843.45774433 0 403.17656362 0 420.96425344 0 9564
0.09550000 0.09549270 19095.55282873 0 425.49837046 0 8699.00521074 0 1016.90777769 0 149.03127759 0 10155
0.09650000 0.09649430 18452.14003352 0 265.88637927 0 7717.88650856 0 751.27384743 0 -45.82458783 0 9913
0.09750000 0.09749140 18484.47122199 0 14.56974006 0 7947.80333342 0 545.59323437 0 535.92709480 0 10476
0.09850000 0.09850240 18448.48616633 0 219.34607635 0 8817.08048261 0 -30.45088627 0 80.21821825 0 10575
0.09950000 0.09950330 18321.59732391 0 243.42173944 0 8479.21956309 0 -308.18819623 0 -208.12095345 0 10882
0.10050000 0.10051200 17804.29830838 0 552.54997605 0 8836.15809827 0 27.04359975 0 -223.67203366 0 10875
0.10150000 0.10150300 17266.51549194 0 728.29323727 0 7409.47797307 0 414.06951678 0 568.98794948 0 11118
0.10250000 0.10250800 16913.86194647 0 259.53086482 0 7781.25342350 0 1468.01311376 0 -133.81125990 0 11575
0.10350000 0.10349800 16711.68129528 0 -207.76442459 0 6326.79283532 0 1634.15334766 0 796.90289801 0 11364
0.10450000 0.10450100 16567.74107264 0 193.24528506 0 5598.37780248 0 1354.01245742 0 2.78160051 0 12093
0.10550000 0.10551000 16476.72656263 0 208.19181633 0 5361.13109859 0 208.42987132 0 649.90339202 0 12067
0.10650000 0.10649700 15840.95367154 0 286.58166158 0 5236.56744438 0 -20.87255024 0 583.33878968 0 12054
0.10750000 0.10749900 15765.21896978 0 580.69139681 0 5549.43812678 0 30.80819019 0 840.42820687 0 12807
0.10850000 0.10850100 15568.79592750 0 458.23369878 0 5820.68794019 0 -199.73256017 0 1545.86262956 0 12736
0.10950000 0.10950300 15311.25365222 0 -16.18541370 0 5773.54198111 0 322.61875717 0 1107.77502578 0 12933
0.11050000 0.11050200 15188.46156998 0 -76.69024339 0 5950.78775681 0 297.41371695 0 998.36606255 0 13428
0.11150000 0.11150900 15100.65803417 0 613.66035119 0 5672.04197950 0 480.93085743 0 443.58833474 0 13453
0.11250000 0.11250000 14796.05837841 0 249.38529359 0 5248.69164006 0 360.44624768 0 1301.97253077 0 13668
0.11350000 0.11349100 14302.34341474 0 100.67057376 0 4749.39622468 0 319.51075559 0 371.64368977 0 13791
0.11450000 0.11448600 14543.94154228 0 254.84948589 0 4963.73428852 0 370.49991862 0 1123.67488422 0 14205
0.11550000 0.11549300 14197.26705221 0 128.44893299 0 4600.56203447 0 296.72944728 0 1436.30197547 0 14776
0.11650000 0.11649800 14183.42664619 0 136.54501690 0 5065.53324291 0 265.67046893 0 1360.20188700 0 14553
0.11750000 0.11747300 14217.64012988 0 -102.44391730 0 4670.15159596 0 694.57800820 0 1847.56133621 0 14568
0.11850000 0.11849100 13980.91382526 0 227.30597067 0 5171.68362094 0 81.83178814 0 2026.15793554 0 16015
0.11950000 0.11950300 14234.58078685 0 330.62294078 0 5114.30683373 0 -34.67287445 0 2011.64211770 0 15270
0.12050000 0.12050700 13679.52514369 0 249.28453543 0 5341.77667481 0 -37.90411100 0 2001.89847186 0 15999
0.12150000 0.12150000 13690.92963826 0 169.17072921 0 5280.04846394 0 -159.90651503 0 1704.93872022 0 15670
0.12250000 0.12250700 13529.16297266 0 -170.64888457 0 4799.33240962 0 107.26547187 0 1387.84948207 0 16887
0.12350000 0.12352200 13797.22395652 0 -77.05175480 0 4981.47215288 0 71.55467769 0 867.67055486 0 16407
0.12450000 0.12449800 13719.93912928 0 136.85061306 0 4498.78522474 0 181.27720916 0 796.64823454 0 16306
0.12550000 0.12549900 13601.46525372 0 333.97453350 0 4470.31827763 0 325.15985572 0 618.61743101 0 17523
0.12650000 0.12650100 13239.62167865 0 475.17657022 0 4365.18655348 0 76.15356781 0 956.52817599 0 17154
0.12750000 0.12750600 12591.22633727 0 582.64787661 0 4436.64733786 0 484.79177709 0 1531.61254751 0 18007
0.12850000 0.12850300 12514.05223328 0 24.10179377 0 4453.52156088 0 405.85495899 0 930.01770868 0 17496
0.12950000 0.12949900 12428.24171594 0 -230.98862590 0 4199.47814024 0 423.44445420 0 1271.88902424 0 18405
0.13050000 0.13049000 12825.40600718 0 -208.91594638 0 4039.26160012 0 63.05832924 0 717.15558574 0 18100
0.13150000 0.13148800 12811.12270817 0 -28.48289126 0 3811.08313025 0 -24.16700977 0 869.07341841 0 19059
0.13250000 0.13249300 12886.63596343 0 219.47230086 0 3933.98593574 0 -247.75101844 0 324.49662346 0 18957
0.13350000 0.13349100 12520.91707467 0 323.53886736 0 3503.60467004 0 227.22514270 0 482.37690305 0 19468
0.13450000 0.13450700 12318.29353049 0 207.64595072 0 3448.63057731 0 230.42615180 0 -140.16566711 0 19953
0.13550000 0.13551000 12171.25305690 0 177.28674330 0 3329.16019252 0 451.10090713 0 283.68957034 0 19956
0.13650000 0.13649900 11958.77514363 0 124.48836240 0 3492.08945223 0 373.85815473 0 281.39206294 0 19723
0.13750000 0.13749600 11844.39802825 0 42.06929815 0 3147.87301827 0 346.66895391 0 1058.20865650 0 20946
0.13850000 0.13851100 11793.46533408 0 133.93748440 0 3041.47904908 0 -153.02727962 0 631.51779666 0 20955
0.13950000 0.13949800 11716.62339984 0 129.58606075 0 3473.63188676 0 119.91770672 0 888.32265511 0 20506
0.14050000 0.14048300 11635.02036593 0 249.32882473 0 3465.91447636 0 -240.05575270 0 1103.41031534 0 21447
0.14150000 0.14148400 11533.15497760 0 218.08383133 0 3727.18812510 0 -272.85640774 0 1004.66953707 0 21771
0.14250000 0.14249400 11371.94192824 0 423.60943184 0 3882.14531094 0 -296.33195082 0 596.61672160 0 22470
0.14350000 0.14350900 11131.11886343 0 334.02546620 0 4415.60992070 0 -340.47509541 0 943.02215418 0 22519
0.14450000 0.14449900 10702.33201251 0 293.98018903 0 4174.72042195 0 153.55985844 0 1175.28299020 0 22218
0.14550000 0.14550500 10801.17465616 0 79.47747972 0 4328.44857973 0 410.10451726 0 1104.40018118 0 23559
0.14650000 0.14650700 10841.96510079 0 -109.81886070 0 4201.12791664 0 532.31973138 0 1331.09274505 0 23044
0.14750000 0.14750500 10752.53393323 0 16.98350687 0 3840.40264637 0 712.65247123 0 1170.69904773 0 23649
0.14850000 0.14849900 10803.43341043 0 246.83755165 0 3501.00267371 0 275.30671322 0 1324.10610809 0 23640
0.14950000 0.14949500 10467.91982377 0 112.28998215 0 3405.64781237 0 268.12963227 0 1194.27202726 0 24457
0.15050000 0.15050000 10244.94534657 0 323.98065312 0 3451.22150132 0 98.16468521 0 1163.14772220 0 24591
0.15150000 0.15149900 10014.50812245 0 317.00508849 0 3226.47545215 0 198.65190127 0 1029.97976437 0 25020
0.15250000 0.15250500 9753.83237924 0 27.14147910 0 2764.39412050 0 432.46950616 0 1271.54578217 0 25297
0.15350000 0.15350100 9654.53577027 0 -35.51691777 0 2696.96366235 0 350.10912523 0 878.71519886 0 25452
0.15450000 0.15450400 9786.79469023 0 -19.92453779 0 2541.40857097 0 319.39006725 0 379.20830209 0 26061
0.15550000 0.15549900 9667.56789658 0 134.33498086 0 2267.93322028 0 -13.26940623 0 396.08695404 0 26128
0.15650000 0.15649500 9571.84764852 0 297.55654994 0 2405.30755430 0 -392.05994950 0 545.81578810 0 26331
0.15750000 0.15749700 9464.50145941 0 30.98058629 0 2606.83493833 0 -312.45657745 0 270.79806255 0 27345
0.15850000 0.15849900 9311.19404997 0 192.53222734 0 2663.59167535 0 -187.67036951 0 199.18005116 0 26980
0.15950000 0.15949700 9216.50352812 0 169.11868928 0 2871.91746681 0 -114.68271154 0 83.29067766 0 27777
0.16050000 0.16050000 9076.79293356 0 147.78342659 0 2756.42204663 0 37.20035403 0 -90.94763317 0 28224
0.16150000 0.16150500 9153.23626410 0 52.22560953 0 2871.96175611 0 173.99937006 0 -101.81456636 0 28075
0.16250000 0.16249700 9077.42405607 0 74.02048443 0 2940.33336187 0 9.54294888 0 -76.89275621 0 28590
0.16350000 0.16349900 8924.54846730 0 113.15473072 0 2590.34824667 0 409.77456198 0 248.33452996 0 29163
0.16450000 0.16449100 8897.98596006 0 42.84358582 0 2517.69165121 0 334.30005985 0 384.84632988 0 28996
0.16550000 0.16550500 9039.68957309 0 -25.34654453 0 2402.18515870 0 411.72329115 0 268.74082460 0 30777
0.16650000 0.16650700 8735.33350847 0 121.05040554 0 2437.40622395 0 185.91097710 0 458.56586853 0 29211
0.16750000 0.16749900 8758.56324594 0 217.33866387 0 2152.19420895 0 256.81593077 0 587.26503606 0 30922
0.16850000 0.16850800 8484.63392993 0 245.43358086 0 2193.51612517 0 -156.46412924 0 840.79248636 0 30867
0.16950000 0.16949900 8384.08614825 0 160.76019127 0 2197.86754883 0 40.23915358 0 676.34631815 0 30852
0.17050000 0.17049200 8267.66065278 0 126.71832862 0 2299.12395929 0 -113.91761390 0 615.41310021 0 31257
0.17150000 0.17149500 8174.30988224 0 85.07409702 0 2153.48967095 0 72.10840466 0 477.98008286 0 32608
0.17250000 0.17250900 8131.12781545 0 9.41622612 0 2276.97930966 0 -127.28633888 0 457.06667575 0 32361
0.17350000 0.17350400 8246.65645260 0 25.22419534 0 2256.61730431 0 -0.81275625 0 427.78148383 0 32508
0.17450000 0.17449800 8228.60856315 0 31.80569593 0 2522.93993318 0 -192.50897546 0 239.08028088 0 32791
0.17550000 0.17549800 8173.59018112 0 238.89869475 0 2546.03680275 0 -99.41463996 0 328.79600719 0 33633
0.17650000 0.17650100 8027.77873559 0 167.38476321 0 2566.24379554 0 -158.51361657 0 270.56997266 0 33984
0.17750000 0.17750300 7942.94258283 0 105.49788593 0 2705.47828014 0 63.55935194 0 496.67238162 0 34069
0.17850000 0.17849800 7875.82214978 0 73.19526406 0 2748.18423696 0 192.41928963 0 539.06388442 0 34536
