### header ###
fiducial parameters:
Omega_m = 0.31
Omega_nu = 0
Omega_de = 0.69
Omega_k = 0
H_0 = 100
w_de = -1
zeff = 0
beta = 0
fgrowth = 0
b_1 = 2
gamma = 0.55
Lx = 3500 Ly = 3500 Lz = 3500
nx = 700 ny = 700 nz = 700
xoffset = -685.467585 yoffset = -31.7331281 zoffset = 572.489161
bins = 400 dk = 0.001
kx_ny = 0.628318531 ky_ny = 0.628318531 kz_ny = 0.628318531
############################
A(data) = 8.06413819 (not used)
A(ran) = 8.05747523 (used)
Ngal = 479292
weighted Ngal = 0
Nran = 23820508
weighted Nran = 0
SN(data) = 3494.76293
SN(ran) = 70.1835315
SN(data+ran) = 3564.94646
############################
13 columns: k_central k_mean P_0(k) sigma^{lin}_{P_0(k)} P^img_1(k) sigma^{lin}_{P_1(k)} P_2(k) sigma^{lin}_{P_2(k)} P^img_3(k) sigma^{lin}_{P_3(k)} P_4(k) sigma^{lin}_{P_4(k)} N_modes
### header ###
0.00050000 0 0 0 0 0 0 0 0 0 0 0 0
0.00150000 0.00179520 60073.11975006 0 -38022.58487373 0 100254.47579368 0 -78187.11098362 0 119202.43453258 0 3
0.00250000 0.00253879 94027.06814593 0 -10358.37024202 0 50347.07890611 0 26308.39738534 0 -12849.43295204 0 6
0.00350000 0.00331552 94262.02287858 0 13442.57739257 0 16654.10520622 0 94646.78616603 0 100666.25555369 0 7
0.00450000 0.00420575 83347.03579561 0 14732.50323395 0 5170.25529104 0 39676.23658539 0 13887.24195729 0 24
0.00550000 0.00557378 95797.75433093 0 -21498.35803763 0 6759.53250621 0 72385.87711814 0 -18786.08135005 0 45
0.00650000 0.00659388 133038.41162596 0 -41669.03360625 0 -32972.16535420 0 47982.91611084 0 -25770.94673865 0 40
0.00750000 0.00754703 119751.62184359 0 8458.76897915 0 -33346.63137957 0 22883.50587244 0 18807.22949046 0 57
0.00850000 0.00846663 115365.87398292 0 33337.66279646 0 14004.71932362 0 -62263.66849218 0 59197.29885691 0 75
0.00950000 0.00948925 85340.05426296 0 25177.69157486 0 26292.78540735 0 -2185.68799153 0 42348.21001063 0 112
0.01050000 0.01054430 69862.82646172 0 9157.38838591 0 31948.41820147 0 4514.05396066 0 63650.92006871 0 105
0.01150000 0.01145670 71662.96503073 0 -706.96461797 0 39490.22152844 0 45948.81931840 0 26965.09697034 0 144
0.01250000 0.01249090 81088.72442560 0 -12202.80918263 0 51058.47577571 0 21683.15513885 0 25476.53362172 0 169
0.01350000 0.01339930 86392.58946023 0 -5100.49964468 0 15626.15057006 0 17362.62327137 0 -10409.64617825 0 180
0.01450000 0.01448870 97297.94362061 0 -823.03026288 0 35196.81685676 0 3919.23759908 0 32320.00542238 0 267
0.01550000 0.01550050 88906.11791731 0 -1115.72495500 0 80.41076598 0 -5830.12156093 0 17456.73803233 0 238
0.01650000 0.01653350 94937.65613902 0 441.98395488 0 21791.99609182 0 8384.83906634 0 4655.23717443 0 315
0.01750000 0.01747870 88613.91926534 0 -2871.74030961 0 3648.28673844 0 3789.41459058 0 -25383.52609324 0 297
0.01850000 0.01844180 85052.61671067 0 5786.88413252 0 24816.18016954 0 -3967.84510504 0 -21366.92954203 0 388
0.01950000 0.01947590 78557.36952556 0 12083.22807459 0 7237.70192583 0 -7524.34227073 0 -9279.63792423 0 399
0.02050000 0.02045430 71100.15876020 0 8155.80802747 0 14364.45915697 0 -11188.58422924 0 -9140.85740496 0 462
0.02150000 0.02154770 66836.87081203 0 2965.26823736 0 13529.16297266 0 6165.23654389 0 -5859.58501728 0 571
0.02250000 0.02255340 69893.49680146 0 -1421.98545948 0 31093.74544872 0 2995.55104574 0 2428.92482314 0 510
0.02350000 0.02348930 67176.45901422 0 1176.06912526 0 18262.02821639 0 2736.40328336 0 3334.81815050 0 555
0.02450000 0.02439640 68274.16929674 0 1721.42541188 0 25827.52631847 0 13648.74408070 0 9740.14698577 0 592
0.02550000 0.02547300 67436.99081720 0 3753.94993419 0 32801.31938225 0 221.60815232 0 13642.87574854 0 837
0.02650000 0.02652900 62177.52580509 0 5586.38647470 0 40463.25743350 0 3913.92288317 0 17864.97464839 0 723
0.02750000 0.02749970 57584.06113083 0 5301.15231505 0 38822.78178837 0 -765.00795914 0 18248.63070336 0 826
0.02850000 0.02848090 58501.40324206 0 414.35739722 0 42008.28963870 0 3168.96579705 0 25815.01459143 0 831
0.02950000 0.02946900 60840.54258324 0 -3214.52841367 0 42957.29859890 0 2927.99879202 0 10149.64584686 0 996
0.03050000 0.03053250 61485.50550393 0 2579.72988717 0 41410.49482174 0 1905.73533081 0 2057.48154245 0 1041
0.03150000 0.03150510 58470.62217906 0 4362.90565456 0 40839.93792383 0 1578.75850659 0 6488.85845369 0 1036
0.03250000 0.03246190 57126.66339257 0 2876.63427718 0 33442.73915899 0 9674.72061841 0 4070.29732658 0 1059
0.03350000 0.03345080 53667.89056572 0 1652.15694781 0 34892.21720100 0 8386.51098739 0 2936.80129025 0 1302
0.03450000 0.03451200 51737.54145684 0 2179.18853686 0 26082.18978930 0 14331.79579876 0 1534.26990547 0 1339
0.03550000 0.03553350 51680.29753753 0 111.37762258 0 27005.95384892 0 6341.95084800 0 8358.70837977 0 1365
0.03650000 0.03647120 49984.23882181 0 1084.30169717 0 19455.07121560 0 3549.05656342 0 8550.07136961 0 1308
0.03750000 0.03744890 52449.27049618 0 -432.50715207 0 25479.08025643 0 2998.48521181 0 9033.89874721 0 1579
0.03850000 0.03847530 50626.98727753 0 364.23409000 0 24289.13750817 0 1051.28181009 0 7120.40171670 0 1662
0.03950000 0.03950240 49096.23837135 0 2044.81480286 0 22492.32063660 0 -2156.43490935 0 7961.33371435 0 1683
0.04050000 0.04050350 47336.29234143 0 2658.43197198 0 25129.41623866 0 559.52554069 0 1742.69534786 0 1822
0.04150000 0.04152450 44186.65882352 0 3724.43111622 0 17988.65251661 0 5145.37577717 0 6095.72448868 0 1887
0.04250000 0.04250150 44441.43301759 0 -1437.71923305 0 19159.32941969 0 4725.45785843 0 -2439.21101290 0 1920
0.04350000 0.04349210 44375.88485467 0 -1754.74203726 0 14546.59890024 0 4328.60359228 0 -4130.51970127 0 2005
0.04450000 0.04448520 47474.47495517 0 -1577.05336857 0 15683.39448937 0 1074.37425073 0 -6858.13155872 0 2151
0.04550000 0.04548030 44739.61072496 0 1401.15841650 0 10745.58051325 0 -100.60890091 0 -4013.87275931 0 2274
0.04650000 0.04648670 44088.44730238 0 1673.71476424 0 13648.52263420 0 1154.57774279 0 -1973.27651220 0 2311
0.04750000 0.04749250 43374.17162832 0 1189.33377039 0 10865.39414011 0 1363.46822282 0 -3573.38246105 0 2568
0.04850000 0.04851840 41755.84063283 0 1558.60687542 0 13176.95232017 0 -470.69560037 0 -5261.04835455 0 2493
0.04950000 0.04949480 40383.75814130 0 2256.57301501 0 11223.01915943 0 -389.21214756 0 -7517.36670610 0 2644
0.05050000 0.05050630 38025.13150844 0 2189.06505060 0 11634.68819619 0 -2463.94658654 0 -5217.33481617 0 2829
0.05150000 0.05149060 37243.64682274 0 875.32596024 0 12356.93594411 0 -3298.09124908 0 -8931.42438101 0 2784
0.05250000 0.05249300 36290.31965585 0 981.62802912 0 14106.80615844 0 -1395.55582014 0 -6712.91801872 0 3055
0.05350000 0.05348950 36801.75033922 0 1222.53967253 0 15010.19714040 0 -258.93074481 0 -6210.17911033 0 3009
0.05450000 0.05448610 35912.97482603 0 917.79275484 0 16164.26555625 0 2032.91205368 0 -6848.48756380 0 3336
0.05550000 0.05550870 35611.80759096 0 -127.25533637 0 15713.84338262 0 -69.03129487 0 -5693.03510735 0 3349
0.05650000 0.05647670 35576.48687479 0 182.79522490 0 17071.42112864 0 1202.18873951 0 -5514.54923128 0 3324
0.05750000 0.05747970 35692.52483889 0 225.69494741 0 16178.99174825 0 2900.53942647 0 -2705.66650966 0 3639
0.05850000 0.05849280 34518.19406863 0 246.60614006 0 15630.46877674 0 3222.46727057 0 -1338.04616503 0 3846
0.05950000 0.05951020 34542.88535297 0 412.05767536 0 14276.54489791 0 2328.88636841 0 -412.89363588 0 3787
0.06050000 0.06049470 34183.69913585 0 274.86271300 0 11115.72833194 0 3266.73442519 0 -286.41446948 0 3930
0.06150000 0.06148310 33340.43087767 0 819.53915887 0 11263.21169852 0 2628.42597172 0 -1242.45878487 0 4083
0.06250000 0.06249100 32785.15378801 0 501.21978543 0 10255.05437913 0 426.58677999 0 -595.44859133 0 4303
0.06350000 0.06350600 32184.14799686 0 919.52557368 0 9032.74722543 0 118.49491298 0 -714.05090586 0 4470
0.06450000 0.06451750 31352.61640298 0 704.82655205 0 9849.79621845 0 578.65851797 0 -208.08220032 0 4479
0.06550000 0.06550280 30451.21843949 0 1186.75391871 0 7401.62769477 0 -10.97677066 0 -877.68657989 0 4636
0.06650000 0.06648880 30133.55344044 0 270.55336418 0 9455.40000840 0 -85.46539298 0 1527.63758290 0 4653
0.06750000 0.06749660 30314.58595123 0 167.35597517 0 9741.64174962 0 59.44908352 0 -275.80053891 0 5220
0.06850000 0.06852730 29337.23183949 0 659.04359616 0 10728.39626513 0 -245.67163584 0 1978.23691372 0 5029
0.06950000 0.06949320 30255.79190644 0 912.27098646 0 10646.64929099 0 -708.56013998 0 1705.35946857 0 5040
0.07050000 0.07048030 29205.36045090 0 -187.98260907 0 11202.75680501 0 734.05527511 0 1661.24732649 0 5475
0.07150000 0.07148790 28534.48829013 0 599.87309233 0 12437.43174554 0 598.33514641 0 2751.47271743 0 5509
0.07250000 0.07249820 28443.58450337 0 797.43326237 0 10496.46427715 0 682.06074499 0 918.05959787 0 5916
0.07350000 0.07351270 27634.64045212 0 261.24707517 0 10328.99536427 0 1568.99271610 0 2562.43491580 0 5721
0.07450000 0.07449140 27836.48893357 0 -387.52915419 0 9933.41441548 0 1990.81507472 0 1603.74874371 0 6028
0.07550000 0.07549160 27411.97600002 0 247.31255438 0 8100.12530595 0 2215.31753274 0 2199.10764921 0 6183
0.07650000 0.07648840 27512.18053963 0 866.27212023 0 7928.92501961 0 1354.48856739 0 1643.12193076 0 6330
0.07750000 0.07749960 26577.23343194 0 546.49009268 0 6077.10083834 0 875.81424976 0 988.16180800 0 6583
0.07850000 0.07848650 25534.10971078 0 1067.46954898 0 7059.85824459 0 87.66856417 0 -295.99645938 0 6549
0.07950000 0.07947320 24633.59753328 0 1190.16419476 0 6170.20801774 0 -608.19062273 0 390.85749503 0 6828
0.08050000 0.08048110 23612.72918500 0 608.04114635 0 7135.27184893 0 607.90052782 0 -35.12274300 0 7147
0.08150000 0.08149960 23100.19126914 0 465.56579228 0 5815.26250103 0 442.20429414 0 1089.82125109 0 7386
0.08250000 0.08250610 23587.37356116 0 -281.93682132 0 6202.59456783 0 744.35364442 0 1473.70428871 0 7227
0.08350000 0.08350160 23654.80401931 0 -378.91488548 0 6809.72335461 0 899.95413233 0 -243.29440771 0 7798
0.08450000 0.08449610 23558.91768638 0 850.17849611 0 7308.14405632 0 -1656.68552867 0 859.92657088 0 7371
0.08550000 0.08548940 23182.79081229 0 995.77181685 0 8699.08271702 0 -666.02691142 0 1354.84288178 0 8256
0.08650000 0.08650700 22508.26478434 0 326.51178658 0 8864.31502029 0 -514.07032561 0 2811.30756075 0 8037
0.08750000 0.08749060 22237.43571927 0 278.82217635 0 9826.22323891 0 967.02141822 0 2967.41626837 0 8155
0.08850000 0.08849210 22511.58648178 0 172.43374333 0 9012.93883633 0 1547.05844064 0 12.76616907 0 8718
0.08950000 0.08949900 21414.09764576 0 673.92590795 0 8455.42513706 0 198.00195580 0 1425.26286763 0 8571
0.09050000 0.09049190 21046.05356879 0 1386.45436914 0 7885.92011001 0 92.93290101 0 770.63159291 0 8932
0.09150000 0.09150830 19965.50538973 0 402.17230376 0 7774.94219835 0 253.76329082 0 1708.23827302 0 9285
0.09250000 0.09250820 19494.37796870 0 121.09137315 0 7307.20290872 0 718.07901763 0 959.66718008 0 9204
0.09350000 0.09350330 19594.13961532 0 191.82802748 0 7099.78504789 0 1059.92818854 0 860.16462586 0 9349
0.09450000 0.09448040 19829.98013395 0 -4.10879580 0 7174.24643229 0 137.75522200 0 356.45578182 0 9564
0.09550000 0.09549270 19422.96147362 0 189.02230037 0 7250.30223147 0 339.93698042 0 1683.59127797 0 10155
0.09650000 0.09649430 19185.34938301 0 249.87469034 0 7002.88006107 0 102.48643503 0 1032.40792521 0 9913
0.09750000 0.09749140 19132.31294713 0 501.28511214 0 6981.23366605 0 915.87945712 0 2049.08872024 0 10476
0.09850000 0.09850240 18688.53416840 0 653.12765301 0 6831.90122123 0 219.62952787 0 1405.23303203 0 10575
0.09950000 0.09950330 17757.35165115 0 731.44884984 0 6416.84405307 0 803.61604855 0 2572.01247677 0 10882
0.10050000 0.10051200 17638.32415935 0 248.26255985 0 6318.16749429 0 741.78707953 0 2181.49158042 0 10875
0.10150000 0.10150300 17043.74031659 0 203.96883165 0 5744.60999636 0 561.30929222 0 1984.38205400 0 11118
0.10250000 0.10250800 17027.57472236 0 235.28468793 0 5975.82228322 0 710.11247992 0 1278.96423980 0 11575
0.10350000 0.10349800 16601.62238658 0 461.17007932 0 4960.19114458 0 118.99095313 0 1449.97629663 0 11364
0.10450000 0.10450100 16238.89302552 0 135.67916110 0 4930.29586757 0 46.79718085 0 802.20654160 0 12093
0.10550000 0.10551000 16046.67746667 0 420.67748023 0 5438.47128745 0 -103.69940821 0 842.85304601 0 12067
0.10650000 0.10649700 15769.20500672 0 310.46577345 0 5235.49342887 0 -515.01922385 0 -401.86670760 0 12054
0.10750000 0.10749900 15436.26019942 0 259.57072519 0 4787.17499697 0 -159.70167702 0 -384.47208531 0 12807
0.10850000 0.10850100 15467.81632515 0 200.08133840 0 5109.80039753 0 -107.27765143 0 216.16278297 0 12736
0.10950000 0.10950300 15273.93991758 0 90.23058941 0 5033.88853857 0 296.88335259 0 -676.55004893 0 12933
0.11050000 0.11050200 15285.34441214 0 160.03716846 0 5101.46293694 0 378.26161831 0 -495.06910899 0 13428
0.11150000 0.11150900 15132.76777614 0 311.30394844 0 4876.35150106 0 140.86543804 0 -436.51865535 0 13453
0.11250000 0.11250000 14821.52472549 0 263.91993438 0 5045.90201100 0 55.15711825 0 266.37245432 0 13668
0.11350000 0.11349100 14719.77006040 0 222.27249180 0 5274.68945873 0 836.18086307 0 442.49328182 0 13791
0.11450000 0.11448600 14250.30348809 0 103.89372752 0 4987.92731825 0 641.75083926 0 997.65854099 0 14205
0.11550000 0.11549300 14741.36109380 0 -218.18569671 0 4824.37800836 0 481.00836370 0 82.64748631 0 14776
0.11650000 0.11649800 14478.06120961 0 -11.39475092 0 4329.42294431 0 -196.14512693 0 696.24328585 0 14553
0.11750000 0.11747300 14519.80387418 0 224.11492665 0 4700.87729733 0 94.09261631 0 557.78497123 0 14568
0.11850000 0.11849100 14504.63478918 0 103.43267591 0 4536.99581769 0 -438.09867610 0 628.73199973 0 16015
0.11950000 0.11950300 14398.11902442 0 128.59176598 0 4392.98916110 0 494.67161253 0 150.03775192 0 15270
0.12050000 0.12050700 14232.14487539 0 147.84100268 0 4093.65993195 0 446.46160303 0 -214.60269240 0 15999
0.12150000 0.12150000 13972.60958164 0 207.66809537 0 3612.74457578 0 180.25855528 0 -208.21285375 0 15670
0.12250000 0.12250700 13908.05792795 0 104.65173887 0 3656.41382486 0 403.56852392 0 -454.92196643 0 16887
0.12350000 0.12352200 13566.47670729 0 326.86831544 0 3470.81951625 0 191.47260586 0 -435.46235556 0 16407
0.12450000 0.12449800 13286.90050562 0 402.13687232 0 3332.72548111 0 137.54041890 0 1.11315618 0 16306
0.12550000 0.12549900 13001.23452530 0 272.58070685 0 2790.63553032 0 570.81709754 0 6.15879245 0 17523
0.12650000 0.12650100 13084.94130093 0 -31.77081811 0 2781.84410441 0 770.66148819 0 259.05364762 0 17154
0.12750000 0.12750600 12873.79206664 0 -84.66431028 0 2656.81541256 0 707.02551576 0 -166.45690239 0 18007
0.12850000 0.12850300 12809.46185944 0 264.33182486 0 2274.79806167 0 106.33362501 0 191.61433161 0 17496
0.12950000 0.12949900 12710.47527557 0 445.56474472 0 2640.18478068 0 -208.01023021 0 185.84011422 0 18405
0.13050000 0.13049000 12274.11495446 0 247.83959704 0 2815.71434603 0 -282.26677660 0 954.83632476 0 18100
0.13150000 0.13148800 12085.44253955 0 62.72250563 0 2748.57176833 0 280.03348869 0 448.40036711 0 19059
0.13250000 0.13249300 12178.45006803 0 -95.17205726 0 2900.35119695 0 339.31471576 0 1066.81960351 0 18957
0.13350000 0.13349100 12490.68962791 0 -31.46356110 0 3134.01046759 0 10.00583849 0 286.05572615 0 19468
0.13450000 0.13450700 12441.86067546 0 153.98725018 0 2987.03642795 0 -176.00567532 0 1137.54850722 0 19953
0.13550000 0.13551000 12299.91347129 0 260.05347855 0 3203.76611395 0 -261.17953398 0 1770.96299312 0 19956
0.13650000 0.13649900 12230.26854818 0 122.96148881 0 3322.51679763 0 -177.06308234 0 1331.61314431 0 19723
0.13750000 0.13749600 12027.86645050 0 247.33802073 0 3674.09632760 0 172.85006274 0 1794.82385310 0 20946
0.13850000 0.13851100 11872.52173329 0 407.55898978 0 3804.82726673 0 -95.77040569 0 1326.91847859 0 20955
0.13950000 0.13949800 11446.01578128 0 315.22465866 0 3693.91578902 0 -85.09092695 0 1252.53460046 0 20506
0.14050000 0.14048300 11184.93036205 0 200.43233110 0 3767.64639999 0 -85.47735109 0 1003.50140680 0 21447
0.14150000 0.14148400 11160.68197070 0 93.04174196 0 3920.57735038 0 -85.23431356 0 1292.46140376 0 21771
0.14250000 0.14249400 11102.99515839 0 -73.02364303 0 4075.85563364 0 203.34767422 0 1002.45285764 0 22470
0.14350000 0.14350900 11035.25467515 0 153.27529970 0 3478.48156503 0 426.11620618 0 941.71340538 0 22519
0.14450000 0.14449900 11104.43456062 0 119.05849431 0 3692.83070119 0 241.82068127 0 1173.64428613 0 22218
0.14550000 0.14550500 10938.96973853 0 1.66196703 0 3129.20507862 0 222.66666657 0 990.67744020 0 23559
0.14650000 0.14650700 11057.43254177 0 -23.97601216 0 3368.21228216 0 47.11650669 0 464.18285891 0 23044
0.14750000 0.14750500 10980.32487173 0 20.66704789 0 3154.38354526 0 -169.17847983 0 -4.31688907 0 23649
0.14850000 0.14849900 10926.28085429 0 156.30136607 0 3336.98832617 0 -40.55781509 0 196.14844863 0 23640
0.14950000 0.14949500 10917.66658558 0 110.94248022 0 3037.90268817 0 -48.63352592 0 117.49951098 0 24457
0.15050000 0.15050000 10829.97377302 0 79.97905603 0 3063.43546920 0 302.49480681 0 -140.29742778 0 24591
0.15150000 0.15149900 10498.12512588 0 418.10537917 0 2898.01493641 0 215.34453817 0 -97.17703383 0 25020
0.15250000 0.15250500 10221.51630726 0 334.55693779 0 2806.88970315 0 363.89416963 0 126.15253282 0 25297
0.15350000 0.15350100 9782.90830422 0 357.73352810 0 2561.73735934 0 133.38165370 0 -186.34501223 0 25452
0.15450000 0.15450400 9746.53571719 0 153.65950937 0 2706.07618568 0 250.89888039 0 -221.98461136 0 26061
0.15550000 0.15549900 9360.15587031 0 111.77733351 0 2684.17512719 0 -19.74261949 0 81.88471386 0 26128
0.15650000 0.15649500 9403.43758803 0 143.10315489 0 2348.72797448 0 153.73480118 0 -78.89341458 0 26331
0.15750000 0.15749700 9342.78339267 0 8.07711701 0 2645.55485822 0 -74.92896868 0 219.43576219 0 27345
0.15850000 0.15849900 9259.26484657 0 205.23107668 0 2680.48804302 0 26.34393955 0 49.20352920 0 26980
0.15950000 0.15949700 9143.79157103 0 247.23061918 0 2900.76087296 0 -176.86267326 0 458.05211266 0 27777
0.16050000 0.16050000 8943.20533462 0 238.07602102 0 2985.22056668 0 -105.48315974 0 617.70174975 0 28224
0.16150000 0.16150500 8878.55403000 0 73.81321051 0 3376.48330880 0 -72.79699254 0 1251.07305358 0 28075
0.16250000 0.16249700 8869.36400040 0 117.22381009 0 3527.14443260 0 220.85191253 0 1240.16681364 0 28590
0.16350000 0.16349900 8887.82156588 0 10.18110232 0 3558.85557088 0 112.62104466 0 1352.28517475 0 29163
0.16450000 0.16449100 8950.55735830 0 26.58022296 0 3564.10385285 0 -20.29313548 0 1228.38586003 0 28996
0.16550000 0.16550500 8887.43403451 0 115.33708594 0 3709.01844007 0 -30.91138426 0 1212.03203627 0 30777
0.16650000 0.16650700 8683.71433017 0 242.94341501 0 3598.58307233 0 -47.29720703 0 992.03933615 0 29211
0.16750000 0.16749900 8575.96953736 0 175.76540587 0 3588.55154605 0 -73.85583896 0 393.10960590 0 30922
0.16850000 0.16850800 8421.80955891 0 92.91064563 0 3273.37782009 0 15.30051350 0 159.03180137 0 30867
0.16950000 0.16949900 8299.64859919 0 161.47878516 0 3202.14955453 0 219.90633599 0 -42.58737223 0 30852
0.17050000 0.17049200 8266.63092658 0 -6.99872794 0 2762.19072786 0 306.76097357 0 -295.24132682 0 31257
0.17150000 0.17149500 8188.99178495 0 -14.49621982 0 2572.86504578 0 410.28056723 0 -415.79679945 0 32608
0.17250000 0.17250900 8200.15268836 0 -18.93732931 0 2274.22230078 0 345.87728268 0 -744.77992893 0 32361
0.17350000 0.17350400 8277.92469789 0 53.72136989 0 2004.83263794 0 107.87611058 0 -686.20954510 0 32508
0.17450000 0.17449800 8089.92769480 0 123.26154881 0 2080.40125483 0 0.93495818 0 -548.25280679 0 32791
0.17550000 0.17549800 8023.52696286 0 125.37747008 0 2115.96556214 0 98.19635206 0 -306.01580611 0 33633
0.17650000 0.17650100 7840.73395243 0 172.80688068 0 1981.95721486 0 298.34268501 0 24.20963822 0 33984
0.17750000 0.17750300 7821.33523934 0 54.36278967 0 1982.52190343 0 398.84507015 0 -51.18004990 0 34069
0.17850000 0.17849800 7826.79389548 0 -13.95068638 0 1764.78463587 0 283.61206407 0 217.01535198 0 34536
