### header ###
fiducial parameters:
Omega_m = 0.31
Omega_nu = 0
Omega_de = 0.69
Omega_k = 0
H_0 = 100
w_de = -1
zeff = 0
beta = 0
fgrowth = 0
b_1 = 2
gamma = 0.55
Lx = 3500 Ly = 3500 Lz = 3500
nx = 700 ny = 700 nz = 700
xoffset = -685.467585 yoffset = -31.7331281 zoffset = 572.489161
bins = 400 dk = 0.001
kx_ny = 0.628318531 ky_ny = 0.628318531 kz_ny = 0.628318531
############################
A(data) = 8.04401585 (not used)
A(ran) = 8.04588267 (used)
Ngal = 478033
weighted Ngal = 0
Nran = 23820508
weighted Nran = 0
SN(data) = 3486.01198
SN(ran) = 70.0825561
SN(data+ran) = 3556.09453
############################
13 columns: k_central k_mean P_0(k) sigma^{lin}_{P_0(k)} P^img_1(k) sigma^{lin}_{P_1(k)} P_2(k) sigma^{lin}_{P_2(k)} P^img_3(k) sigma^{lin}_{P_3(k)} P_4(k) sigma^{lin}_{P_4(k)} N_modes
### header ###
0.00050000 0 0 0 0 0 0 0 0 0 0 0 0
0.00150000 0.00179520 40175.59843471 0 -34159.22929801 0 61430.14387984 0 -101811.68755618 0 -3461.06479809 0 3
0.00250000 0.00253879 59263.95425232 0 -8983.06570397 0 4360.01577779 0 20009.01962627 0 42506.21208579 0 6
0.00350000 0.00331552 71335.88855559 0 -2796.20490970 0 15094.12536252 0 5764.04192642 0 18885.06793393 0 7
0.00450000 0.00420575 59141.71578632 0 11073.43205113 0 8743.28343769 0 -11919.80056027 0 12072.59864276 0 24
0.00550000 0.00557378 65388.50000250 0 -4549.35253219 0 9579.78650542 0 37638.81809551 0 4299.97056030 0 45
0.00650000 0.00659388 64428.08654773 0 -30676.87241929 0 5164.16551239 0 12626.76849994 0 25776.59362431 0 40
0.00750000 0.00754703 87715.84299930 0 -11581.87320680 0 12559.44876504 0 19775.50429585 0 -21245.57686202 0 57
0.00850000 0.00846663 98749.96829732 0 4481.22451758 0 15116.04856566 0 5369.94466915 0 16293.70103338 0 75
0.00950000 0.00948925 79614.88726899 0 13838.08083510 0 16518.35850395 0 -7865.64668327 0 34207.72608071 0 112
0.01050000 0.01054430 76928.07692849 0 25310.67019594 0 15108.74083128 0 9467.69028895 0 32647.63551376 0 105
0.01150000 0.01145670 66677.65078114 0 -1444.86088256 0 38851.45910965 0 -10935.09442484 0 14796.50127140 0 144
0.01250000 0.01249090 62360.32988785 0 -731.37577250 0 24226.35742645 0 18055.86152826 0 16768.15015185 0 169
0.01350000 0.01339930 66126.58117491 0 -1834.79494570 0 21031.88099302 0 5677.29026146 0 16147.32489927 0 180
0.01450000 0.01448870 80548.28425120 0 -15403.59684120 0 6984.90967789 0 27983.30796066 0 -1998.02315817 0 267
0.01550000 0.01550050 73211.87254961 0 -696.31968489 0 12718.22590294 0 21911.79864636 0 10890.58367907 0 238
0.01650000 0.01653350 83493.19048321 0 8092.31931696 0 -4817.57960092 0 2308.15897634 0 -8215.67608776 0 315
0.01750000 0.01747870 71354.04716829 0 5443.74171406 0 -2812.14905744 0 7514.57648024 0 10024.57286571 0 297
0.01850000 0.01844180 69271.89648615 0 1706.93173869 0 -4086.95010311 0 -8492.60600380 0 14076.24654195 0 388
0.01950000 0.01947590 67952.40753751 0 -3349.25646207 0 15179.93587987 0 -4009.24452753 0 21042.17825510 0 399
0.02050000 0.02045430 71831.04292148 0 2660.02638676 0 20310.74047758 0 -2723.49295262 0 14597.86376415 0 462
0.02150000 0.02154770 75878.30981244 0 1533.86022945 0 25651.69780035 0 -4667.32815313 0 36092.34648809 0 571
0.02250000 0.02255340 66588.51856635 0 8237.47749533 0 20298.33947378 0 2612.07214797 0 21252.88459640 0 510
0.02350000 0.02348930 67307.66606332 0 6536.56910134 0 26072.77831320 0 9013.30422305 0 24112.75537381 0 555
0.02450000 0.02439640 64410.59227452 0 -1626.18127379 0 21656.24938954 0 13593.60390310 0 23263.28661372 0 592
0.02550000 0.02547300 64133.56270756 0 -4331.02843141 0 12947.09085694 0 14062.07396618 0 8771.67287853 0 837
0.02650000 0.02652900 65410.31248239 0 -350.03383342 0 7507.56769863 0 10988.57375372 0 7131.57369244 0 723
0.02750000 0.02749970 61250.99366427 0 4424.23526174 0 2348.36258776 0 -3394.04401596 0 4489.93843721 0 826
0.02850000 0.02848090 59970.25785250 0 3094.51548496 0 3915.29585145 0 1901.77143853 0 1345.32068244 0 831
0.02950000 0.02946900 59904.15607333 0 -1515.36944700 0 3204.84012946 0 -3120.14791692 0 -7002.10499834 0 996
0.03050000 0.03053250 58289.81111477 0 1701.04126189 0 7170.01680421 0 -11054.03333805 0 -13157.35430525 0 1041
0.03150000 0.03150510 57414.76528435 0 3153.29845743 0 6394.79905436 0 -7178.17710760 0 -10476.76661130 0 1036
0.03250000 0.03246190 55187.12425409 0 1380.98464068 0 9875.57259062 0 -6800.57761431 0 -13993.31482905 0 1059
0.03350000 0.03345080 56544.14838386 0 -1495.39497303 0 7720.35563700 0 230.18698958 0 -10397.46662095 0 1302
0.03450000 0.03451200 55503.90346715 0 1232.43833091 0 12413.62624718 0 3755.20110689 0 -12095.51835514 0 1339
0.03550000 0.03553350 56561.31048733 0 2297.10879618 0 10425.68997691 0 6211.83995906 0 -827.32521768 0 1365
0.03650000 0.03647120 52083.33016093 0 2257.99027259 0 11071.09579059 0 8208.32406408 0 6264.79888866 0 1308
0.03750000 0.03744890 52490.68099100 0 234.74989464 0 14392.13996902 0 5542.42934517 0 16953.16869957 0 1579
0.03850000 0.03847530 52574.05559689 0 364.26952144 0 12147.11538879 0 3402.60292304 0 13931.42053332 0 1662
0.03950000 0.03950240 52278.97814047 0 2279.65881226 0 19144.93539742 0 1508.01742333 0 19436.46970990 0 1683
0.04050000 0.04050350 49319.12426995 0 2058.15695426 0 15219.35335622 0 -2009.49408669 0 22456.11413444 0 1822
0.04150000 0.04152450 48610.05258857 0 2157.58643114 0 15304.94242707 0 2117.23887950 0 17342.91453319 0 1887
0.04250000 0.04250150 46234.04240573 0 548.54400893 0 13671.33162333 0 61.21035823 0 11440.25817237 0 1920
0.04350000 0.04349210 45637.68699100 0 1344.93315107 0 10966.50661035 0 2036.42198065 0 376.27745771 0 2005
0.04450000 0.04448520 43383.69382767 0 2705.71079896 0 11617.52609272 0 -4486.22920840 0 1143.57185192 0 2151
0.04550000 0.04548030 42151.45479860 0 2337.81066221 0 10839.65098491 0 -6663.01505077 0 -3327.82044122 0 2274
0.04650000 0.04648670 40636.20714717 0 2906.44097560 0 16413.94648091 0 -3963.94764670 0 2252.85271388 0 2311
0.04750000 0.04749250 38915.12497736 0 830.22063062 0 18053.09344706 0 -2000.84660100 0 550.30893751 0 2568
0.04850000 0.04851840 39528.75321881 0 -305.17984558 0 22492.43135985 0 2813.57738734 0 -45.93398240 0 2493
0.04950000 0.04949480 41206.43187533 0 -1379.57845543 0 23116.57830987 0 3726.85595536 0 4616.31795269 0 2644
0.05050000 0.05050630 41076.55350521 0 304.47564572 0 22274.41728417 0 5959.56811039 0 7830.50312429 0 2829
0.05150000 0.05149060 41849.29105430 0 -516.69003766 0 22872.43354762 0 3901.47759007 0 10395.13036041 0 2784
0.05250000 0.05249300 42653.03111289 0 -11.21360768 0 21873.70984898 0 4062.70171176 0 7393.89921205 0 3055
0.05350000 0.05348950 41778.42817546 0 683.86664117 0 19796.65243625 0 888.62160788 0 11533.93004034 0 3009
0.05450000 0.05448610 40712.60618842 0 896.47520787 0 18851.29734323 0 -118.73628966 0 5059.73134470 0 3336
0.05550000 0.05550870 40304.03740261 0 1039.72562468 0 17912.80709161 0 22.90498618 0 3200.20082536 0 3349
0.05650000 0.05647670 38398.60102457 0 2315.35598748 0 18201.68404612 0 -433.86572632 0 4259.56764703 0 3324
0.05750000 0.05747970 36928.86062814 0 1630.55484209 0 17264.30102698 0 3857.34330335 0 1407.53607560 0 3639
0.05850000 0.05849280 35082.88263438 0 935.93365183 0 13665.13112143 0 3783.00371451 0 2328.66492191 0 3846
0.05950000 0.05951020 34795.88797508 0 484.27137783 0 11861.44940847 0 4400.85051172 0 -1395.83262826 0 3787
0.06050000 0.06049470 32628.59111508 0 274.77745609 0 10487.09709036 0 1439.15863528 0 1519.20047139 0 3930
0.06150000 0.06148310 32840.95830510 0 25.28476096 0 8635.08467957 0 1097.55526997 0 -464.47406105 0 4083
0.06250000 0.06249100 32972.60824719 0 641.34116324 0 9220.03559973 0 -1684.88673998 0 -502.83745208 0 4303
0.06350000 0.06350600 32408.91619067 0 618.70600961 0 8887.23473266 0 -2265.67446602 0 659.10781564 0 4470
0.06450000 0.06451750 32413.34512060 0 659.21189550 0 10061.55443060 0 -2439.72033984 0 -1170.53296285 0 4479
0.06550000 0.06550280 31904.46107194 0 544.82370779 0 11112.62808099 0 -561.11109760 0 -944.22017972 0 4636
0.06650000 0.06648880 31349.07325903 0 1037.45579809 0 11797.78354076 0 450.54839813 0 -3659.82410091 0 4653
0.06750000 0.06749660 30153.92651811 0 1261.01600127 0 11357.99079897 0 1841.92552288 0 -879.36514433 0 5220
0.06850000 0.06852730 29035.51098818 0 537.45286116 0 11473.36442358 0 976.53365247 0 -3591.60750770 0 5029
0.06950000 0.06949320 28629.04594408 0 625.37376362 0 9909.35425364 0 2019.12700928 0 -2226.85489520 0 5040
0.07050000 0.07048030 28751.83802632 0 581.94921291 0 10324.17890298 0 -25.33812956 0 -1257.70537615 0 5475
0.07150000 0.07148790 27868.15578255 0 471.94234414 0 11012.16887791 0 -129.88279905 0 1613.32630468 0 5509
0.07250000 0.07249820 28183.38487013 0 -164.05752961 0 11442.25119084 0 617.49691174 0 1421.99653181 0 5916
0.07350000 0.07351270 28209.84772645 0 84.52092367 0 11946.15269333 0 1121.21682811 0 364.38467362 0 5721
0.07450000 0.07449140 27388.50267140 0 752.28364346 0 11506.80284453 0 624.16798744 0 246.05030935 0 6028
0.07550000 0.07549160 27503.32267977 0 252.73688631 0 11588.51660169 0 799.99982726 0 2498.95727762 0 6183
0.07650000 0.07648840 26642.11725538 0 388.16359840 0 10021.92658008 0 355.58438985 0 1039.26723043 0 6330
0.07750000 0.07749960 26996.43164958 0 -114.36382859 0 10642.63003708 0 2004.19044310 0 738.70232983 0 6583
0.07850000 0.07848650 26718.95918962 0 159.75039525 0 8433.93375459 0 160.21543289 0 663.24000726 0 6549
0.07950000 0.07947320 25734.74023649 0 950.47936494 0 7512.99313779 0 1673.19436497 0 409.23866146 0 6828
0.08050000 0.08048110 25554.59351169 0 814.83231359 0 6978.80882692 0 721.20252046 0 964.17029458 0 7147
0.08150000 0.08149960 24286.59087346 0 557.42733513 0 6567.64911710 0 524.80937345 0 -678.94610002 0 7386
0.08250000 0.08250610 23821.11033808 0 823.24617322 0 6786.10608578 0 530.13073276 0 -463.74660931 0 7227
0.08350000 0.08350160 22781.97265385 0 1055.39628599 0 6101.45995294 0 -321.80494130 0 -144.48608826 0 7798
0.08450000 0.08449610 22389.90163203 0 532.74158695 0 5905.81197339 0 813.04524036 0 -677.09037838 0 7371
0.08550000 0.08548940 21648.16659242 0 599.62617948 0 6645.43219895 0 370.68593367 0 505.22575254 0 8256
0.08650000 0.08650700 21561.58101234 0 71.74910772 0 6860.64497645 0 613.36582735 0 533.03500356 0 8037
0.08750000 0.08749060 20953.04604031 0 536.92914020 0 6297.09686016 0 1381.93686062 0 1292.58319933 0 8155
0.08850000 0.08849210 21291.74845651 0 258.66168732 0 7070.68697826 0 -7.46269157 0 1348.25484852 0 8718
0.08950000 0.08949900 20692.29279083 0 378.21511455 0 7195.48315130 0 -60.77864829 0 1767.03231781 0 8571
0.09050000 0.09049190 20500.52012497 0 828.94952773 0 7396.10260468 0 -914.87630449 0 2013.61299152 0 8932
0.09150000 0.09150830 19631.67479645 0 615.20161881 0 7887.91312848 0 -913.20549067 0 2208.16481091 0 9285
0.09250000 0.09250820 19674.74614000 0 688.77057383 0 8706.30187280 0 260.16198733 0 2120.89274669 0 9204
0.09350000 0.09350330 18905.33028835 0 752.11202242 0 7747.84821952 0 301.73745980 0 1335.28915615 0 9349
0.09450000 0.09448040 18076.56677567 0 308.93557816 0 7176.29481238 0 1209.16430415 0 1384.56100160 0 9564
0.09550000 0.09549270 18018.32634713 0 -119.30429992 0 6551.93748819 0 1434.36431863 0 256.63766634 0 10155
0.09650000 0.09649430 17704.20449202 0 -230.10283992 0 6132.01956944 0 506.84895536 0 770.68363284 0 9913
0.09750000 0.09749140 17832.64345992 0 436.38910915 0 6322.27532680 0 33.50673720 0 310.40487566 0 10476
0.09850000 0.09850240 17260.53643654 0 494.73804648 0 6316.75023671 0 -142.18636639 0 1289.47187605 0 10575
0.09950000 0.09950330 17175.27953544 0 418.25928449 0 6350.01150047 0 221.64358375 0 1810.92301339 0 10882
0.10050000 0.10051200 17236.28804519 0 91.18923129 0 6783.20513667 0 -408.89541939 0 1581.24977968 0 10875
0.10150000 0.10150300 16966.12331961 0 383.50104242 0 6767.47136311 0 -279.61938374 0 1387.59481860 0 11118
0.10250000 0.10250800 16664.07029856 0 59.57076837 0 7081.90324331 0 172.63858134 0 1126.42082078 0 11575
0.10350000 0.10349800 16596.86128691 0 137.57031417 0 6508.37896235 0 350.89304583 0 682.91552847 0 11364
0.10450000 0.10450100 16455.02480598 0 29.88974085 0 6287.67431174 0 476.52517938 0 250.60878548 0 12093
0.10550000 0.10551000 16716.88528794 0 -196.89583055 0 6010.20185178 0 655.33990351 0 -589.80834907 0 12067
0.10650000 0.10649700 16794.05939193 0 -198.81023551 0 5250.36356110 0 312.02032785 0 -870.97675105 0 12054
0.10750000 0.10749900 16616.45930184 0 488.95386399 0 4873.08516523 0 489.08008849 0 -720.00006598 0 12807
0.10850000 0.10850100 16177.44162278 0 375.82902855 0 5019.33950376 0 -49.88658092 0 -843.66796911 0 12736
0.10950000 0.10950300 15801.97908818 0 224.96971013 0 4817.41351605 0 275.47833426 0 -307.45299387 0 12933
0.11050000 0.11050200 15959.75971684 0 289.03085983 0 4921.51551399 0 397.87624173 0 -215.24710171 0 13428
0.11150000 0.11150900 15380.78785208 0 215.56930636 0 4477.11668507 0 474.30407102 0 -36.79422116 0 13453
0.11250000 0.11250000 15338.15940153 0 227.83301333 0 5139.17527528 0 680.93026063 0 1520.11947435 0 13668
0.11350000 0.11349100 15259.65661856 0 148.37025980 0 4641.25282818 0 396.31836563 0 1191.76968185 0 13791
0.11450000 0.11448600 14870.68584768 0 445.86148303 0 4697.84348033 0 564.96315941 0 1443.63185450 0 14205
0.11550000 0.11549300 14776.79253322 0 208.02462423 0 4768.30775547 0 248.79956760 0 1561.65176475 0 14776
0.11650000 0.11649800 14389.59333431 0 1.84182587 0 4800.37320815 0 -194.46213356 0 1297.82040897 0 14553
0.11750000 0.11747300 14586.34854634 0 15.05515078 0 4447.52036083 0 -391.51851282 0 625.68600318 0 14568
0.11850000 0.11849100 14471.52853797 0 145.32426324 0 4422.05401375 0 -54.82605574 0 805.16395956 0 16015
0.11950000 0.11950300 14221.18327382 0 297.13247990 0 4047.22260166 0 365.43100831 0 421.43704171 0 15270
0.12050000 0.12050700 14051.22308785 0 194.89395423 0 3627.98009473 0 572.07159194 0 146.60311676 0 15999
0.12150000 0.12150000 13675.09621377 0 268.79618623 0 3451.13292272 0 695.34089138 0 -253.79761503 0 15670
0.12250000 0.12250700 13474.90858104 0 293.14755020 0 3137.23251412 0 213.27733512 0 -40.58737819 0 16887
0.12350000 0.12352200 13073.53680637 0 411.15417365 0 3834.14678285 0 156.40323146 0 696.77254298 0 16407
0.12450000 0.12449800 13061.68941881 0 259.19315891 0 3941.34903174 0 -257.64856960 0 802.47781356 0 16306
0.12550000 0.12549900 12844.78257562 0 176.00013915 0 4102.04168184 0 -233.74784925 0 1402.92998847 0 17523
0.12650000 0.12650100 12812.89428014 0 157.09303729 0 4768.97209496 0 -207.34146179 0 1382.11401781 0 17154
0.12750000 0.12750600 12814.66585211 0 131.01439065 0 4854.40615326 0 -299.84519948 0 1251.00661963 0 18007
0.12850000 0.12850300 12852.64392624 0 38.17903682 0 5200.92563079 0 -108.52362014 0 1102.10045931 0 17496
0.12950000 0.12949900 12931.70032544 0 17.07828597 0 5023.14838350 0 292.36695130 0 1222.10785186 0 18405
0.13050000 0.13049000 12913.65243599 0 -102.48300261 0 4700.72228478 0 295.74954653 0 1080.89806452 0 18100
0.13150000 0.13148800 12828.94915112 0 112.60775787 0 4459.01343399 0 732.51732919 0 770.83753815 0 19059
0.13250000 0.13249300 12917.30630318 0 33.29027325 0 4142.66604160 0 384.98141225 0 488.96272185 0 18957
0.13350000 0.13349100 12426.24869747 0 281.48507047 0 3513.07150776 0 364.51975598 0 589.98550626 0 19468
0.13450000 0.13450700 12384.94892590 0 204.52134066 0 3360.11841271 0 369.06937425 0 391.73553039 0 19953
0.13550000 0.13551000 12273.00772198 0 -35.85362717 0 3179.92739862 0 364.75116757 0 635.03325979 0 19956
0.13650000 0.13649900 12283.96932355 0 68.06722755 0 3027.57220911 0 364.38024469 0 342.95197447 0 19723
0.13750000 0.13749600 12075.25600072 0 139.82242504 0 2963.95063070 0 68.32620922 0 338.18533863 0 20946
0.13850000 0.13851100 11956.78212516 0 370.39916046 0 3232.17769944 0 -166.68388505 0 573.93838590 0 20955
0.13950000 0.13949800 11781.17505354 0 347.97991717 0 3092.48924952 0 -123.09103501 0 604.86338912 0 20506
0.14050000 0.14048300 11372.71699098 0 248.07765203 0 3081.88196235 0 -68.03866095 0 710.16230538 0 21447
0.14150000 0.14148400 11246.71393454 0 230.52026656 0 3440.20453813 0 -95.95564568 0 201.57942395 0 21771
0.14250000 0.14249400 11029.57457252 0 334.20151616 0 3544.76050139 0 -132.04190239 0 -514.28845041 0 22470
0.14350000 0.14350900 10737.32055893 0 347.33882956 0 3659.04903817 0 -383.69148641 0 -147.89304260 0 22519
0.14450000 0.14449900 10644.02515001 0 -57.61229556 0 3330.57745010 0 62.83289671 0 -440.46483191 0 22218
0.14550000 0.14550500 10619.46673356 0 -71.90290231 0 3316.21664481 0 86.51205985 0 -313.38997443 0 23559
0.14650000 0.14650700 10777.66811057 0 44.48660810 0 3266.04794106 0 312.05243760 0 -741.78375783 0 23044
0.14750000 0.14750500 10730.55536847 0 221.87942427 0 3423.11994093 0 -70.88590927 0 -455.45565249 0 23649
0.14850000 0.14849900 10453.91333288 0 294.21160062 0 3288.64655601 0 123.92921000 0 139.86449988 0 23640
0.14950000 0.14949500 10474.84002678 0 46.95418641 0 3376.40580252 0 181.88729426 0 204.56230826 0 24457
0.15050000 0.15050000 10460.42385987 0 14.66396554 0 3617.82677287 0 94.59242105 0 410.16762951 0 24591
0.15150000 0.15149900 10409.09256201 0 123.05892527 0 3654.62010824 0 236.97653916 0 -41.27984139 0 25020
0.15250000 0.15250500 10255.50834445 0 233.54411847 0 3825.49929717 0 -93.50379008 0 535.78758351 0 25297
0.15350000 0.15350100 9991.73235030 0 269.32101442 0 3410.12103160 0 41.43164296 0 463.36904303 0 25452
0.15450000 0.15450400 9837.02982793 0 72.27781123 0 3630.19455969 0 336.43923301 0 666.86840811 0 26061
0.15550000 0.15549900 9624.76228883 0 126.62864279 0 3225.65610012 0 509.64471738 0 418.34121969 0 26128
0.15650000 0.15649500 9598.39908344 0 183.93345989 0 3065.36205372 0 480.85445839 0 507.79342467 0 26331
0.15750000 0.15749700 9346.68085101 0 174.87519095 0 2971.47981158 0 298.29064508 0 857.99112850 0 27345
0.15850000 0.15849900 9372.03647485 0 162.20955859 0 2793.00500783 0 245.42361577 0 1097.68592341 0 26980
0.15950000 0.15949700 9026.12597519 0 263.07954492 0 2541.55251120 0 103.82773646 0 986.73901426 0 27777
0.16050000 0.16050000 8901.63982725 0 34.35321643 0 2363.99671041 0 382.28087222 0 1056.23888991 0 28224
0.16150000 0.16150500 8899.55823018 0 -82.75200906 0 2240.03096174 0 309.21681521 0 1008.79508530 0 28075
0.16250000 0.16249700 8916.59853808 0 74.42794598 0 2067.12553737 0 251.80127486 0 662.69081995 0 28590
0.16350000 0.16349900 8739.41919633 0 103.99991111 0 1741.97564674 0 -97.61870887 0 384.33589571 0 29163
0.16450000 0.16449100 8768.27367481 0 22.61112668 0 1965.17157044 0 -74.54542335 0 456.50198718 0 28996
0.16550000 0.16550500 8571.86170485 0 184.90782447 0 1932.45285060 0 -218.58872934 0 515.20966783 0 30777
0.16650000 0.16650700 8614.96626537 0 224.63200422 0 2205.54066993 0 -34.66711684 0 309.74496510 0 29211
0.16750000 0.16749900 8515.99075382 0 88.11533248 0 2126.38461980 0 3.90419031 0 524.67761279 0 30922
0.16850000 0.16850800 8508.20690947 0 25.22209160 0 2424.80591831 0 48.19472968 0 723.47788321 0 30867
0.16950000 0.16949900 8431.03280548 0 -5.89942324 0 2259.16393902 0 -18.60515956 0 641.49174686 0 30852
0.17050000 0.17049200 8564.73112767 0 50.87855050 0 2355.59281587 0 87.98556483 0 690.54214580 0 31257
0.17150000 0.17149500 8434.44308153 0 146.01406908 0 2242.72153667 0 28.69880159 0 617.15920583 0 32608
0.17250000 0.17250900 8204.63697992 0 297.13026544 0 2287.70839240 0 -75.92691732 0 810.34359311 0 32361
0.17350000 0.17350400 8140.47285759 0 189.57591661 0 1996.46196037 0 121.09137315 0 599.12571040 0 32508
0.17450000 0.17449800 7796.14570038 0 116.67019385 0 2031.69409795 0 418.86604789 0 632.78557785 0 32791
0.17550000 0.17549800 7786.68993499 0 128.85418008 0 1861.33530829 0 117.66781031 0 310.99724504 0 33633
0.17650000 0.17650100 7702.82814681 0 103.60750792 0 1786.70783901 0 78.50499743 0 -37.24575056 0 33984
0.17750000 0.17750300 7708.28680295 0 18.35813600 0 1791.13676894 0 -215.45969034 0 231.55774340 0 34069
0.17850000 0.17849800 7594.70689496 0 17.75092970 0 1967.24209518 0 -293.53729603 0 224.11160496 0 34536
