### header ###
fiducial parameters:
Omega_m = 0.31
Omega_nu = 0
Omega_de = 0.69
Omega_k = 0
H_0 = 100
w_de = -1
zeff = 0
beta = 0
fgrowth = 0
b_1 = 2
gamma = 0.55
Lx = 3500 Ly = 3500 Lz = 3500
nx = 700 ny = 700 nz = 700
xoffset = -685.467585 yoffset = -31.7331281 zoffset = 572.489161
bins = 400 dk = 0.001
kx_ny = 0.628318531 ky_ny = 0.628318531 kz_ny = 0.628318531
############################
A(data) = 8.07471182 (not used)
A(ran) = 8.08271244 (used)
Ngal = 480134
weighted Ngal = 0
Nran = 23820508
weighted Nran = 0
SN(data) = 3474.09965
SN(ran) = 70.4033567
SN(data+ran) = 3544.50301
############################
13 columns: k_central k_mean P_0(k) sigma^{lin}_{P_0(k)} P^img_1(k) sigma^{lin}_{P_1(k)} P_2(k) sigma^{lin}_{P_2(k)} P^img_3(k) sigma^{lin}_{P_3(k)} P_4(k) sigma^{lin}_{P_4(k)} N_modes
### header ###
0.00050000 0 0 0 0 0 0 0 0 0 0 0 0
0.00150000 0.00179520 25331.70761309 0 -6444.29234630 0 48297.03796594 0 28253.14051649 0 -50114.89225467 0 3
0.00250000 0.00253879 55349.00164294 0 -16496.76747055 0 24249.49858532 0 19695.56211066 0 74354.42574765 0 6
0.00350000 0.00331552 51621.17132300 0 -11699.46129637 0 -8057.71830190 0 -20351.81880266 0 -19628.24237576 0 7
0.00450000 0.00420575 50036.83236470 0 3156.94125229 0 -10838.68769265 0 -24826.47743162 0 -955.56045480 0 24
0.00550000 0.00557378 45805.87560500 0 8146.18617720 0 1853.99435693 0 -32822.68896915 0 8770.85352649 0 45
0.00650000 0.00659388 50258.83247731 0 3087.32954616 0 9743.14758579 0 -15094.12536252 0 14000.73328668 0 40
0.00750000 0.00754703 46769.61075721 0 -1438.62716369 0 13708.42391147 0 -11460.52052679 0 11161.01414044 0 57
0.00850000 0.00846663 56988.59150208 0 -6591.28853059 0 21749.03547152 0 13437.81629290 0 -134.17553938 0 75
0.00950000 0.00948925 59225.64400844 0 -246.55520736 0 14846.43745633 0 12776.35560824 0 -5265.48835681 0 112
0.01050000 0.01054430 67735.94358730 0 -5446.88625431 0 14214.20770919 0 22434.74454754 0 -19452.85675063 0 105
0.01150000 0.01145670 65456.81624663 0 -8767.06679140 0 -843.98463760 0 20223.37983476 0 1251.70417610 0 144
0.01250000 0.01249090 77409.39088836 0 -4229.49521283 0 3137.34323736 0 10039.75302303 0 -27101.17584236 0 169
0.01350000 0.01339930 74581.40840643 0 -5569.45689005 0 364.16876329 0 -473.60319286 0 8471.55751432 0 180
0.01450000 0.01448870 79585.54560822 0 851.03327958 0 1750.65634940 0 -7259.02722343 0 -21187.11498698 0 267
0.01550000 0.01550050 76374.46068756 0 5319.87561632 0 -9091.71842741 0 -3598.66057861 0 -6691.78095065 0 238
0.01650000 0.01653350 71452.36941268 0 5536.30634955 0 1740.40337662 0 -11808.74514233 0 -19283.00728791 0 315
0.01750000 0.01747870 68643.32060619 0 4996.26477884 0 3541.64917812 0 -14434.54697308 0 -10777.29165153 0 297
0.01850000 0.01844180 64693.04728064 0 6670.11241098 0 20330.55993901 0 -21959.40964308 0 -20694.50725579 0 388
0.01950000 0.01947590 63549.82974312 0 2449.40862406 0 20539.38398509 0 -16600.95804709 0 -5283.76876508 0 399
0.02050000 0.02045430 66601.03029339 0 -4393.76422383 0 32110.18486707 0 -11263.21169852 0 -9605.76217944 0 462
0.02150000 0.02154770 73163.92938315 0 -4549.25288126 0 40959.29758538 0 6844.42402060 0 -9242.23561100 0 571
0.02250000 0.02255340 80266.16141482 0 -4303.70193376 0 53360.74427525 0 15012.52232861 0 -10361.86909666 0 510
0.02350000 0.02348930 77163.91744713 0 1742.50711833 0 45823.25915496 0 10116.30707683 0 -5849.49812937 0 555
0.02450000 0.02439640 79165.79377434 0 5034.49751644 0 42256.64188438 0 16303.00178622 0 7206.64405471 0 592
0.02550000 0.02547300 73067.93232697 0 3803.63145565 0 36013.40081214 0 8697.43294062 0 5288.99490240 0 837
0.02650000 0.02652900 70035.55472889 0 5170.79783496 0 39232.78997641 0 5780.37360552 0 12450.05419583 0 723
0.02750000 0.02749970 66151.27245926 0 5739.05168930 0 28564.38356714 0 5400.19426055 0 -419.39309055 0 826
0.02850000 0.02848090 60836.66726956 0 5059.22201776 0 23172.82571995 0 -1809.16251374 0 9374.33951841 0 831
0.02950000 0.02946900 59627.56939936 0 203.78281659 0 25495.68874366 0 6441.01493815 0 7507.99951930 0 996
0.03050000 0.03053250 59612.84320735 0 -3007.08840820 0 24605.47382824 0 7340.54167874 0 10286.73230044 0 1041
0.03150000 0.03150510 60300.65602509 0 685.94602377 0 21828.64548697 0 15447.66469398 0 6528.41987027 0 1036
0.03250000 0.03246190 58577.47011356 0 859.34084489 0 17851.35568886 0 9341.12254395 0 13054.93530067 0 1059
0.03350000 0.03345080 59640.85618914 0 1826.46855743 0 11272.51245137 0 7428.23449131 0 17433.81831995 0 1302
0.03450000 0.03451200 54937.22188293 0 689.96749214 0 14110.12785589 0 3503.31678959 0 16451.14949230 0 1339
0.03550000 0.03553350 56960.46779704 0 1029.31874658 0 11256.12541064 0 -5168.76052719 0 8288.84201016 0 1365
0.03650000 0.03647120 56816.97046739 0 3153.39810835 0 17559.48920664 0 -4711.27421033 0 8398.63518306 0 1308
0.03750000 0.03744890 54329.46197364 0 486.25553843 0 14260.37930368 0 -6046.59658346 0 1363.05854680 0 1579
0.03850000 0.03847530 51970.50317102 0 920.82657185 0 15633.34758119 0 -5312.11391662 0 -5975.00293119 0 1662
0.03950000 0.03950240 53209.27487173 0 3918.76148911 0 16840.23098642 0 -2878.57193403 0 -8774.26380254 0 1683
0.04050000 0.04050350 48790.19931337 0 2795.20840047 0 18492.22184937 0 1465.51076835 0 -8800.06231936 0 1822
0.04150000 0.04152450 47623.84061697 0 1737.74601866 0 15671.32565532 0 3798.74856041 0 -8012.06710667 0 1887
0.04250000 0.04250150 45221.92119406 0 1618.82925011 0 17725.90624867 0 2807.93050168 0 -10989.19380391 0 1920
0.04350000 0.04349210 43411.48536296 0 2088.04115895 0 16596.86128691 0 -212.28304035 0 -9146.61501386 0 2005
0.04450000 0.04448520 43386.68335537 0 -1041.88915695 0 14562.98594097 0 395.01626023 0 -7511.80839904 0 2151
0.04550000 0.04548030 41420.79208382 0 3.29449274 0 14255.50748076 0 2021.82865653 0 -8244.19839649 0 2274
0.04650000 0.04648670 44501.77718786 0 -1035.37420102 0 11410.47361861 0 1569.82314046 0 -10213.99819870 0 2311
0.04750000 0.04749250 44641.39920382 0 -808.82004121 0 11576.77993738 0 2315.32277050 0 -8267.49456791 0 2568
0.04850000 0.04851840 43853.93546272 0 1863.41690535 0 10149.05901364 0 636.68857235 0 -5404.04742959 0 2493
0.04950000 0.04949480 40602.10438673 0 2741.36368487 0 11683.07425564 0 1780.03122714 0 -3529.20388502 0 2644
0.05050000 0.05050630 39500.51879052 0 2798.76261673 0 10593.03709422 0 561.47759155 0 -85.79667694 0 2829
0.05150000 0.05149060 38272.26579839 0 537.28788352 0 16599.29719837 0 1092.71555679 0 1406.84959146 0 2784
0.05250000 0.05249300 36514.09134044 0 1685.40713924 0 16791.84492697 0 -1927.12706236 0 4352.37587366 0 3055
0.05350000 0.05348950 36675.41511304 0 576.89358940 0 17451.86620941 0 704.84869670 0 5792.14348681 0 3009
0.05450000 0.05448610 37432.09779115 0 -620.63813029 0 18569.28523010 0 2181.91232876 0 6749.48990760 0 3336
0.05550000 0.05550870 37360.79201932 0 -58.47449749 0 16123.40867766 0 2309.39907672 0 6638.88845499 0 3349
0.05650000 0.05647670 36893.65063522 0 307.66890420 0 14970.22604780 0 5546.14964631 0 7024.11678008 0 3324
0.05750000 0.05747970 36055.47564645 0 184.61883679 0 11412.90953007 0 4061.76056415 0 6315.72051050 0 3639
0.05850000 0.05849280 35777.00667726 0 690.53218071 0 10811.09545920 0 4034.44513882 0 6068.99589657 0 3846
0.05950000 0.05951020 34810.39272059 0 743.31284589 0 9080.30286052 0 4042.31756177 0 6486.88757988 0 3787
0.06050000 0.06049470 33780.66651246 0 1245.07185353 0 8551.41112091 0 -762.10590280 0 5498.11790125 0 3930
0.06150000 0.06148310 32209.72506719 0 2219.86825824 0 7937.38427577 0 -771.08777270 0 6537.38845337 0 4083
0.06250000 0.06249100 31204.13652716 0 703.18120458 0 8221.74372176 0 -1921.30301951 0 4366.30485828 0 4303
0.06350000 0.06350600 30714.51832368 0 -139.53786629 0 9505.12581917 0 -1340.40457022 0 3617.69390497 0 4470
0.06450000 0.06451750 31173.68763391 0 -95.88079677 0 10726.60254851 0 -2290.76435405 0 1662.97460916 0 4479
0.06550000 0.06550280 30782.83456781 0 12.63319045 0 9808.91719521 0 70.25932641 0 1257.92682265 0 4636
0.06650000 0.06648880 31346.63734757 0 151.38525385 0 9647.93666468 0 -921.12220292 0 -1341.01354809 0 4653
0.06750000 0.06749660 31722.32132867 0 496.25716944 0 11408.48060014 0 -1201.39153212 0 -2639.95226186 0 5220
0.06850000 0.06852730 31012.69603104 0 1035.89681476 0 11491.52303628 0 -1801.78834541 0 -3019.01330203 0 5029
0.06950000 0.06949320 30909.94485673 0 817.97796107 0 12113.67696784 0 -357.78003186 0 -908.11665019 0 5040
0.07050000 0.07048030 30391.20643897 0 -8.51387594 0 12859.39804438 0 1478.04464004 0 -842.83643752 0 5475
0.07150000 0.07148790 30671.00408714 0 449.00823774 0 13036.00162523 0 1913.55239213 0 -100.09016249 0 5509
0.07250000 0.07249820 30240.51209819 0 147.75242408 0 12144.12586109 0 2949.42374054 0 1693.42350241 0 5916
0.07350000 0.07351270 30544.66886096 0 -177.66320234 0 11318.35187612 0 2812.60302276 0 2493.00036687 0 5721
0.07450000 0.07449140 29569.30776768 0 783.34594350 0 10854.41039389 0 2050.89350918 0 3892.01075235 0 6028
0.07550000 0.07549160 29529.55812159 0 952.21329101 0 10608.49405967 0 1155.27529925 0 1365.61625383 0 6183
0.07650000 0.07648840 27077.92396024 0 1583.97357158 0 9377.74979445 0 -1139.90691240 0 4254.24185879 0 6330
0.07750000 0.07749960 26958.23212895 0 1680.80105212 0 9811.33096203 0 -318.70136865 0 2587.62445477 0 6583
0.07850000 0.07848650 25399.58096423 0 380.56909081 0 9208.74182842 0 -544.58786728 0 2683.64365559 0 6549
0.07950000 0.07947320 25211.12999582 0 834.34396438 0 10290.86227760 0 1035.13503881 0 1724.93533885 0 6828
0.08050000 0.08048110 24797.24649410 0 -24.14552946 0 9944.95177794 0 159.69835532 0 1729.70751084 0 7147
0.08150000 0.08149960 24222.14994302 0 133.21889052 0 9379.52136642 0 1512.11418351 0 8.69060132 0 7386
0.08250000 0.08250610 23914.45003631 0 668.24691255 0 9331.32353649 0 729.34953706 0 887.77457503 0 7227
0.08350000 0.08350160 23577.07629908 0 193.90630285 0 8973.94210832 0 1185.64668623 0 178.73278892 0 7798
0.08450000 0.08449610 22801.57066878 0 348.45270544 0 7819.81833084 0 889.90599756 0 47.87053201 0 7371
0.08550000 0.08548940 23022.13137917 0 242.07755921 0 7725.19424294 0 470.29921114 0 1089.79246304 0 8256
0.08650000 0.08650700 22066.58974732 0 783.77887140 0 6433.04286428 0 1452.19076159 0 766.78063834 0 8037
0.08750000 0.08749060 21792.10681507 0 490.60474762 0 5821.36335200 0 542.14199072 0 2419.18117730 0 8155
0.08850000 0.08849210 21518.84183854 0 -363.26636881 0 5146.66016685 0 1689.47068245 0 1261.62497914 0 8718
0.08950000 0.08949900 21855.88340602 0 -299.12217667 0 5301.36268922 0 1677.67865652 0 1147.10392354 0 8571
0.09050000 0.09049190 21626.24338928 0 671.82548793 0 5237.10998830 0 -712.37455588 0 -84.43976353 0 8932
0.09150000 0.09150830 20716.43045894 0 1349.66103377 0 5645.61234016 0 -880.80454656 0 2142.74951588 0 9285
0.09250000 0.09250820 20185.51248388 0 827.40715289 0 6119.84001214 0 -629.84366115 0 3143.45516066 0 9204
0.09350000 0.09350330 19306.70206303 0 308.69530871 0 5839.23408426 0 81.20276937 0 2659.79386794 0 9349
0.09450000 0.09448040 19481.09117892 0 159.98734300 0 6265.55180675 0 1399.29826593 0 1849.34398051 0 9564
0.09550000 0.09549270 19032.88347026 0 304.61294255 0 5851.93404083 0 7.95607436 0 1252.81140858 0 10155
0.09650000 0.09649430 18933.56471664 0 279.13663038 0 6263.42592039 0 -213.05921032 0 1563.77765111 0 9913
0.09750000 0.09749140 18402.86818808 0 585.46024711 0 5968.60312744 0 147.31063832 0 2272.87147715 0 10476
0.09850000 0.09850240 18231.57932313 0 460.80579984 0 6824.21702780 0 -441.57317163 0 2053.75016899 0 10575
0.09950000 0.09950330 17840.72625704 0 560.47665339 0 7062.98064019 0 -1107.43178371 0 1471.66698095 0 10882
0.10050000 0.10051200 17542.21637993 0 542.76868431 0 7589.13751557 0 -319.76099014 0 2516.42940618 0 10875
0.10150000 0.10150300 17315.89806063 0 172.16357861 0 8306.70167009 0 -2.85467786 0 2071.69840752 0 11118
0.10250000 0.10250800 17268.28706391 0 -50.03041042 0 7944.22697251 0 1022.09626910 0 1789.30983534 0 11575
0.10350000 0.10349800 17087.25455313 0 178.92212567 0 7936.86387650 0 717.01053828 0 1887.62100741 0 11364
0.10450000 0.10450100 17015.39516505 0 310.16128452 0 7561.08024448 0 464.77522828 0 1775.10404260 0 12093
0.10550000 0.10551000 16645.24734637 0 380.26238741 0 7475.77905408 0 251.41595796 0 1677.36863143 0 12067
0.10650000 0.10649700 16426.56893120 0 445.40973218 0 7438.87499546 0 -1.26122638 0 1178.57147067 0 12054
0.10750000 0.10749900 16366.00331444 0 97.62136623 0 6834.52536221 0 284.26976016 0 1593.78365137 0 12807
0.10850000 0.10850100 15832.87087442 0 99.41796165 0 6431.64775136 0 790.56842098 0 1043.59872390 0 12736
0.10950000 0.10950300 15862.65542819 0 25.07870499 0 5507.97227033 0 985.44355225 0 170.06426582 0 12933
0.11050000 0.11050200 15691.92017948 0 97.22674857 0 5171.84970582 0 573.54974730 0 -898.72953320 0 13428
0.11150000 0.11150900 15231.09002053 0 502.63482854 0 4490.33704090 0 703.66395794 0 -693.59921468 0 13453
0.11250000 0.11250000 14785.09677683 0 382.94521171 0 4007.34008766 0 -48.75565366 0 -282.33321055 0 13668
0.11350000 0.11349100 14608.60391923 0 -27.30590313 0 3788.88311899 0 66.25191989 0 -414.82022040 0 13791
0.11450000 0.11448600 14968.89736882 0 -54.37862310 0 4077.48326539 0 605.75138957 0 -489.84186444 0 14205
0.11550000 0.11549300 14734.16408267 0 24.38015202 0 4205.55684657 0 -18.62929723 0 -242.63781884 0 14776
0.11650000 0.11649800 14661.52963186 0 455.36596665 0 4407.62677451 0 18.66218204 0 123.79523487 0 14553
0.11750000 0.11747300 14575.16549827 0 428.70602296 0 4900.28986731 0 -110.86718841 0 945.07053427 0 14568
0.11850000 0.11849100 14076.57871169 0 368.73609727 0 4685.34282561 0 368.25666561 0 1330.27339301 0 16015
0.11950000 0.11950300 14041.03654902 0 90.43365585 0 4824.55516555 0 545.18023665 0 1227.57758032 0 15270
0.12050000 0.12050700 13903.18610503 0 -93.73055129 0 4544.58036019 0 669.38404031 0 1267.62617919 0 15999
0.12150000 0.12150000 13811.28580903 0 -14.07148544 0 4433.62459318 0 717.02050337 0 686.63582961 0 15670
0.12250000 0.12250700 13794.45587531 0 104.24925987 0 3909.12856652 0 -20.35635846 0 1021.36660290 0 16887
0.12350000 0.12352200 14025.20312453 0 84.91133385 0 3708.09943712 0 -120.23216074 0 660.07885853 0 16407
0.12450000 0.12449800 13792.46285684 0 -14.37243123 0 3876.86381200 0 -535.17417671 0 801.62081562 0 16306
0.12550000 0.12549900 13834.20552141 0 217.25340696 0 4484.74551687 0 -101.54960563 0 966.79111386 0 17523
0.12650000 0.12650100 13675.98199975 0 268.98441575 0 4103.10462502 0 196.71313719 0 1393.49636773 0 17154
0.12750000 0.12750600 13465.60782820 0 234.92040844 0 4244.55357458 0 404.88391611 0 865.31768583 0 18007
0.12850000 0.12850300 13299.96584891 0 165.02857249 0 4203.37559858 0 322.17918588 0 774.58552011 0 17496
0.12950000 0.12949900 12924.83548405 0 447.34185286 0 4334.68229860 0 381.55784941 0 804.76203417 0 18405
0.13050000 0.13049000 12614.81038913 0 376.26638538 0 3986.46875538 0 -98.82149552 0 723.30515494 0 18100
0.13150000 0.13148800 12479.83874959 0 88.87810494 0 3913.87859387 0 31.82994433 0 899.66735912 0 19059
0.13250000 0.13249300 12278.98677738 0 -53.42064555 0 3980.05787931 0 74.57886177 0 892.21236282 0 18957
0.13350000 0.13349100 12525.01383485 0 -32.78581813 0 4120.76498311 0 -248.99886945 0 544.56129370 0 19468
0.13450000 0.13450700 12457.02976047 0 261.06106011 0 4085.66571343 0 -122.13992231 0 729.63409581 0 19953
0.13550000 0.13551000 12174.90692409 0 339.79304020 0 4306.29285777 0 218.67620070 0 801.73928949 0 19956
0.13650000 0.13649900 12015.35472345 0 55.38697972 0 3946.33157791 0 376.13351748 0 999.73570913 0 19723
0.13750000 0.13749600 12007.60409608 0 15.61684982 0 4302.57255663 0 319.15422674 0 514.14672465 0 20946
0.13850000 0.13851100 11968.74023596 0 188.49857941 0 4019.25390917 0 -59.91799648 0 360.29566406 0 20955
0.13950000 0.13949800 11646.75703024 0 384.31817999 0 3985.42795685 0 -36.01162924 0 489.19634790 0 20506
0.14050000 0.14048300 11441.25468160 0 321.05423767 0 3880.87199359 0 -185.43708160 0 599.15339121 0 21447
0.14150000 0.14148400 11323.00225254 0 21.19973744 0 3739.82164772 0 98.97440432 0 195.94803955 0 21771
0.14250000 0.14249400 11130.78669369 0 175.98353067 0 3864.86141190 0 241.90372371 0 -106.84450208 0 22470
0.14350000 0.14350900 11102.44154215 0 209.04217088 0 3819.63096501 0 175.08777959 0 -144.82933033 0 22519
0.14450000 0.14449900 10915.13102320 0 73.58478845 0 3644.72144985 0 204.45601394 0 -38.39295414 0 22218
0.14550000 0.14550500 10693.06447663 0 279.09787724 0 3551.10494351 0 -38.30304686 0 414.56112800 0 23559
0.14650000 0.14650700 10668.86037458 0 343.93741138 0 3697.06032927 0 127.60632907 0 278.20655509 0 23044
0.14750000 0.14750500 10335.74948241 0 126.66185976 0 3532.49236549 0 139.14369153 0 576.00116002 0 23649
0.14850000 0.14849900 10289.76611744 0 173.71481131 0 3913.91181084 0 55.11836512 0 402.70820428 0 23640
0.14950000 0.14949500 10205.55001487 0 47.45576273 0 3456.29262609 0 31.41462142 0 423.00820460 0 24457
0.15050000 0.15050000 10196.40427457 0 -41.88483322 0 3484.13952301 0 110.76200132 0 -164.35869684 0 24591
0.15150000 0.15149900 10118.45510784 0 49.61962717 0 3222.15724547 0 -127.38931150 0 57.69533800 0 25020
0.15250000 0.15250500 10160.49672518 0 121.63834599 0 3816.80752218 0 61.02733270 0 -596.62890116 0 25297
0.15350000 0.15350100 9985.34361887 0 174.24739014 0 3108.75449468 0 -8.90585838 0 -220.48209688 0 25452
0.15450000 0.15450400 9880.66586004 0 299.63593254 0 3477.69542996 0 66.03434871 0 -195.64797955 0 26061
0.15550000 0.15549900 9653.31781454 0 79.49120940 0 3331.81755048 0 365.74767680 0 266.37799049 0 26128
0.15650000 0.15649500 9647.85915840 0 13.09269193 0 3238.35605668 0 352.01135063 0 -466.35746350 0 26331
0.15750000 0.15749700 9555.53811406 0 45.36774371 0 3347.30773290 0 192.84335967 0 -111.61899926 0 27345
0.15850000 0.15849900 9493.45558881 0 266.44553167 0 3038.09091769 0 6.55386407 0 -316.23666915 0 26980
0.15950000 0.15949700 9405.26452163 0 116.78313156 0 3123.38103577 0 -217.23790571 0 93.55095818 0 27777
0.16050000 0.16050000 9126.34158712 0 190.28122371 0 3016.92063264 0 213.12453704 0 40.25797653 0 28224
0.16150000 0.16150500 9186.57503413 0 194.99692685 0 2952.73436566 0 296.09389584 0 -36.30272066 0 28075
0.16250000 0.16249700 8821.69764206 0 47.94150562 0 2692.81154054 0 304.51993502 0 133.32075591 0 28590
0.16350000 0.16349900 8893.63453641 0 136.34460782 0 2828.69111072 0 219.12573709 0 -57.81270464 0 29163
0.16450000 0.16449100 8629.37135996 0 182.09545397 0 2782.27592508 0 -10.74914580 0 163.21381845 0 28996
0.16550000 0.16550500 8530.72801815 0 312.40453753 0 2779.02066158 0 210.09404174 0 254.88713179 0 30777
0.16650000 0.16650700 8375.74868766 0 88.15618936 0 2627.92771711 0 14.48957643 0 647.63577990 0 29211
0.16750000 0.16749900 8378.88215559 0 -125.06412329 0 2524.51220330 0 326.50292872 0 647.35675731 0 30922
0.16850000 0.16850800 8441.13076572 0 -116.53400425 0 2434.89280622 0 477.88596810 0 512.53902309 0 30867
0.16950000 0.16949900 8514.45170067 0 69.72541891 0 2340.63410504 0 264.22442331 0 500.58534121 0 30852
0.17050000 0.17049200 8402.15618236 0 146.33516650 0 2360.56428971 0 -16.25605513 0 719.10542214 0 31257
0.17150000 0.17149500 8361.02249565 0 229.88471512 0 2394.77777340 0 -259.31052556 0 432.51711716 0 32608
0.17250000 0.17250900 8102.82695321 0 192.20116483 0 2650.78099553 0 -331.99701629 0 801.72489547 0 32361
0.17350000 0.17350400 8190.81871854 0 21.28189409 0 2843.91555734 0 -152.47477061 0 419.33662169 0 32508
0.17450000 0.17449800 8051.29635350 0 46.38739410 0 2795.34126837 0 116.84513658 0 649.56457888 0 32791
0.17550000 0.17549800 8118.79324560 0 -0.64515336 0 2682.11567477 0 296.67076396 0 286.02140195 0 33633
0.17650000 0.17650100 7963.55925164 0 64.12503702 0 2442.28911920 0 427.62868575 0 290.76921483 0 33984
0.17750000 0.17750300 8113.05778134 0 67.99514671 0 2347.99720104 0 196.57473313 0 145.72951033 0 34069
0.17850000 0.17849800 7873.74055271 0 33.45502944 0 2109.99757907 0 162.09551365 0 356.98282448 0 34536
