### header ###
fiducial parameters:
Omega_m = 0.31
Omega_nu = 0
Omega_de = 0.69
Omega_k = 0
H_0 = 100
w_de = -1
zeff = 0
beta = 0
fgrowth = 0
b_1 = 2
gamma = 0.55
Lx = 3500 Ly = 3500 Lz = 3500
nx = 700 ny = 700 nz = 700
xoffset = -685.467585 yoffset = -31.7331281 zoffset = 572.489161
bins = 400 dk = 0.001
kx_ny = 0.628318531 ky_ny = 0.628318531 kz_ny = 0.628318531
############################
A(data) = 8.05609011 (not used)
A(ran) = 8.05086891 (used)
Ngal = 478611
weighted Ngal = 0
Nran = 23820508
weighted Nran = 0
SN(data) = 3489.73274
SN(ran) = 70.125988
SN(data+ran) = 3559.85873
############################
13 columns: k_central k_mean P_0(k) sigma^{lin}_{P_0(k)} P^img_1(k) sigma^{lin}_{P_1(k)} P_2(k) sigma^{lin}_{P_2(k)} P^img_3(k) sigma^{lin}_{P_3(k)} P_4(k) sigma^{lin}_{P_4(k)} N_modes
### header ###
0.00050000 0 0 0 0 0 0 0 0 0 0 0 0
0.00150000 0.00179520 6540.10117295 0 -325.54738709 0 8328.02696770 0 -21361.50410287 0 -25616.81997717 0 3
0.00250000 0.00253879 18321.15443092 0 -3149.96568766 0 22866.45449222 0 7122.15114402 0 23392.72209085 0 6
0.00350000 0.00331552 23088.78677458 0 -7135.68152495 0 35962.02522498 0 7401.89343056 0 50562.76779358 0 7
0.00450000 0.00420575 29286.63131506 0 143.80071135 0 49693.14740233 0 13681.40743891 0 2109.41074585 0 24
0.00550000 0.00557378 57111.27286107 0 -16522.12309438 0 33914.64164276 0 54001.49971251 0 2590.47004225 0 45
0.00650000 0.00659388 55018.82491685 0 -7699.30714752 0 42694.66305420 0 38370.69876603 0 15990.20861010 0 40
0.00750000 0.00754703 66638.23330478 0 11073.76422087 0 1935.47559527 0 11852.92371836 0 -27227.95396153 0 57
0.00850000 0.00846663 70224.00569730 0 6317.63602270 0 28732.46145789 0 12677.70119410 0 13632.24631672 0 75
0.00950000 0.00948925 52373.42507118 0 9054.38254812 0 7797.46330704 0 12797.72519514 0 -13946.92178806 0 112
0.01050000 0.01054430 46329.15367592 0 2875.63776795 0 6404.21053046 0 3017.97250349 0 11980.47690027 0 105
0.01150000 0.01145670 50356.49038221 0 -6360.66307694 0 7934.48332667 0 12403.10753860 0 2411.46376690 0 144
0.01250000 0.01249090 50422.25999163 0 -5314.63840668 0 6944.82786205 0 -53.25655370 0 6869.67999351 0 169
0.01350000 0.01339930 54967.33860644 0 -2189.89547496 0 6817.31896944 0 899.45809218 0 -2567.63890847 0 180
0.01450000 0.01448870 56351.15776227 0 6251.34601401 0 11324.66310126 0 -1579.87681140 0 8622.10791488 0 267
0.01550000 0.01550050 45704.56383290 0 139.72166689 0 22992.01465566 0 -493.43594108 0 14604.50715904 0 238
0.01650000 0.01653350 57168.62750363 0 -4400.90587334 0 22967.54481781 0 -5626.76724331 0 12458.35843944 0 315
0.01750000 0.01747870 65204.25651752 0 -10604.36408251 0 31699.40161630 0 -615.05103519 0 16434.09811208 0 297
0.01850000 0.01844180 68807.63390650 0 -2657.64583692 0 20112.98875632 0 3048.55426464 0 3661.59567288 0 388
0.01950000 0.01947590 75579.68921208 0 -2125.75349728 0 22033.92638911 0 9426.20228786 0 11041.12300731 0 399
0.02050000 0.02045430 77029.94231683 0 -1676.91466611 0 31335.45429951 0 -5348.53079295 0 6799.27107998 0 462
0.02150000 0.02154770 76862.52876557 0 6971.87755158 0 29561.11424732 0 -6137.60002115 0 -415.07266941 0 571
0.02250000 0.02255340 70200.08947569 0 3178.78694916 0 29437.21493260 0 -4484.57943200 0 -1272.07725376 0 510
0.02350000 0.02348930 71818.97408743 0 -35.40575163 0 29574.51176035 0 -2554.59570983 0 -3979.40461215 0 555
0.02450000 0.02439640 72878.26340283 0 -3440.47027392 0 32081.83971553 0 550.39751611 0 -1842.65629632 0 592
0.02550000 0.02547300 74089.13284499 0 2167.91691019 0 32355.32613855 0 7205.10500156 0 -10958.25772836 0 837
0.02650000 0.02652900 73302.11199688 0 7483.75112795 0 28788.48742147 0 7577.78838263 0 -639.79657393 0 723
0.02750000 0.02749970 62318.25505354 0 7094.21566850 0 31306.33408523 0 6112.48798846 0 6494.69356887 0 826
0.02850000 0.02848090 62372.06655216 0 3055.49661230 0 31218.19837968 0 10035.30194846 0 16365.00680521 0 831
0.02950000 0.02946900 58969.31968889 0 1998.02315817 0 34643.20061583 0 10025.92368934 0 22070.35433776 0 996
0.03050000 0.03053250 56466.64211013 0 1792.69796674 0 32994.31000384 0 3675.39178960 0 13895.65692415 0 1041
0.03150000 0.03150510 57624.69656291 0 973.94715740 0 38232.18398254 0 4316.06972058 0 24274.30059291 0 1036
0.03250000 0.03246190 59880.79346796 0 -4578.19593834 0 42820.22321765 0 -2815.93579253 0 19037.97673968 0 1059
0.03350000 0.03345080 63224.74628644 0 347.37979716 0 47090.15456071 0 -5353.49119447 0 15567.57797177 0 1302
0.03450000 0.03451200 59016.93068561 0 5846.88506071 0 45907.18737709 0 -672.18866018 0 12487.58937697 0 1339
0.03550000 0.03553350 57193.42951123 0 3588.77299254 0 43307.95912591 0 5143.65956683 0 13162.89046765 0 1365
0.03650000 0.03647120 54583.79327472 0 260.98355384 0 40510.09336748 0 6958.21430276 0 11120.60015486 0 1308
0.03750000 0.03744890 55505.12142288 0 461.89088767 0 40390.95515244 0 16416.60383886 0 7453.75620001 0 1579
0.03850000 0.03847530 51630.25062935 0 2118.84436660 0 31135.04522029 0 11362.97334514 0 3734.70623365 0 1662
0.03950000 0.03950240 47605.34983452 0 3694.80157501 0 24487.33212242 0 6325.46415635 0 9439.26763114 0 1683
0.04050000 0.04050350 46042.82335611 0 2556.64408992 0 19901.83952203 0 5890.85326256 0 7667.61815389 0 1822
0.04150000 0.04152450 42453.61854290 0 406.28677966 0 18104.80120396 0 3299.37563876 0 8251.62792645 0 1887
0.04250000 0.04250150 44656.67901207 0 3.55312011 0 18147.42965451 0 1394.11641792 0 4023.92643024 0 1920
0.04350000 0.04349210 42605.30939292 0 152.40501497 0 14464.99586633 0 507.13905027 0 3335.19460955 0 2005
0.04450000 0.04448520 44876.79682946 0 -730.37594157 0 17670.87679432 0 -5522.27771400 0 1983.92808868 0 2151
0.04550000 0.04548030 44312.10826371 0 1397.81457441 0 18873.44199287 0 51.00577151 0 2621.10716502 0 2274
0.04650000 0.04648670 44782.01772902 0 1137.52636257 0 21265.39632344 0 -1989.56390201 0 -1297.74290269 0 2311
0.04750000 0.04749250 43331.43245452 0 2415.67125033 0 23491.59795148 0 916.91804118 0 -3917.96428173 0 2568
0.04850000 0.04851840 41787.95037480 0 2415.79304591 0 24346.49215073 0 -356.23322809 0 2497.62859864 0 2493
0.04950000 0.04949480 38982.22326576 0 1196.01038226 0 24898.55826619 0 6763.71784499 0 3271.72804369 0 2644
0.05050000 0.05050630 39219.39246338 0 698.98479348 0 22922.25900931 0 2340.42373087 0 4159.90565134 0 2829
0.05150000 0.05149060 37987.48560405 0 1217.45747543 0 24199.45167714 0 5307.69605902 0 4471.19299129 0 2784
0.05250000 0.05249300 37123.73354495 0 1071.52644879 0 21618.82493166 0 1054.97110872 0 7860.64199245 0 3055
0.05350000 0.05348950 36645.51983603 0 -549.41429366 0 19863.75072465 0 781.19459079 0 9234.71750244 0 3009
0.05450000 0.05448610 37878.53392784 0 -114.87094106 0 21039.07800415 0 2839.71914624 0 2375.11332452 0 3336
0.05550000 0.05550870 37387.25487563 0 -42.13606427 0 17570.78297796 0 -323.02289703 0 2949.95521213 0 3349
0.05650000 0.05647670 37182.85975948 0 1053.11317262 0 18479.37795258 0 -1296.28135582 0 696.00412364 0 3324
0.05750000 0.05747970 36680.61910571 0 1463.04163991 0 17908.37816168 0 -469.92939549 0 125.72957001 0 3639
0.05850000 0.05849280 34726.79666821 0 1043.56439969 0 18799.70030958 0 1531.76756006 0 650.66073904 0 3846
0.05950000 0.05951020 34244.59692236 0 1567.15471018 0 17685.93515607 0 3316.74811640 0 2152.32707685 0 3787
0.06050000 0.06049470 33216.64228619 0 1070.55097697 0 16265.35588184 0 4727.84948059 0 3228.78956804 0 3930
0.06150000 0.06148310 31963.91945621 0 179.91088428 0 14475.18240516 0 3283.11039360 0 3473.34400631 0 4083
0.06250000 0.06249100 31639.72178552 0 204.41836803 0 13807.07832560 0 1535.84217559 0 4938.44509864 0 4303
0.06350000 0.06350600 31826.62262846 0 394.47482355 0 13890.78510123 0 -729.57319802 0 2944.30832648 0 4470
0.06450000 0.06451750 31784.10490116 0 496.23059586 0 13886.13472481 0 -1208.40031373 0 3881.07129543 0 4479
0.06550000 0.06550280 30345.03484448 0 52.14788181 0 12385.94543513 0 -324.45011970 0 1754.35450589 0 4636
0.06650000 0.06648880 31242.22532453 0 108.45297871 0 12605.73108278 0 1450.35275567 0 -524.24136319 0 4653
0.06750000 0.06749660 31007.49203838 0 187.24408501 0 11040.62475269 0 456.80315442 0 -3953.21856395 0 5220
0.06850000 0.06852730 29468.77105833 0 430.78208386 0 10472.83593599 0 2455.63127060 0 -4008.62447734 0 5029
0.06950000 0.06949320 29920.63263418 0 302.45494644 0 9444.15052639 0 1652.72163638 0 -3374.39063941 0 5040
0.07050000 0.07048030 28751.39513333 0 504.89469003 0 9258.03581851 0 623.32538353 0 -2207.46725444 0 5475
0.07150000 0.07148790 28941.28550397 0 753.47945454 0 9032.89116565 0 33.06771952 0 -990.01863687 0 5509
0.07250000 0.07249820 28385.78696782 0 676.10494147 0 10260.56839689 0 410.82643284 0 712.42216688 0 5916
0.07350000 0.07351270 27677.26890267 0 1132.04556178 0 9696.69918318 0 -409.95061195 0 1053.74872406 0 5721
0.07450000 0.07449140 27592.01200157 0 449.13003332 0 10697.43804494 0 327.99879980 0 1146.06312500 0 6028
0.07550000 0.07549160 27124.42772448 0 68.12491436 0 10290.59654180 0 -87.75703205 0 633.93820686 0 6183
0.07650000 0.07648840 26963.10395187 0 344.35262356 0 11262.87952878 0 133.10152388 0 989.17381849 0 6330
0.07750000 0.07749960 27023.55884538 0 704.82101589 0 11291.33540356 0 -135.52193408 0 511.90236441 0 6583
0.07850000 0.07848650 25926.40217910 0 704.39140969 0 11081.51484825 0 168.70347710 0 -516.78525966 0 6549
0.07950000 0.07947320 25435.89818964 0 660.66901344 0 10639.23083336 0 590.75171114 0 -273.91713646 0 6828
0.08050000 0.08048110 24934.98621484 0 575.48740415 0 11427.19282908 0 71.18098673 0 -252.16887605 0 7147
0.08150000 0.08149960 24384.02733186 0 617.66853278 0 11362.53045214 0 463.28157167 0 1555.09694845 0 7386
0.08250000 0.08250610 24391.66723599 0 35.88540474 0 11572.57245395 0 1849.63186095 0 2603.85648295 0 7227
0.08350000 0.08350160 24411.81886716 0 218.04507819 0 11365.85214959 0 1877.73342134 0 3354.73726285 0 7798
0.08450000 0.08449610 23910.90689236 0 79.95691138 0 10650.69068955 0 1445.76881319 0 2795.11982187 0 7371
0.08550000 0.08548940 23575.85834335 0 693.57928450 0 9861.85398017 0 1511.85952004 0 4517.98463597 0 8256
0.08650000 0.08650700 23519.16804028 0 417.97361851 0 10793.68976459 0 901.56404836 0 4074.83697976 0 8037
0.08750000 0.08749060 22573.92367051 0 840.54003735 0 10279.73459115 0 628.75857331 0 5711.04977983 0 8155
0.08850000 0.08849210 22032.59771013 0 928.67352844 0 9853.17327751 0 122.03141352 0 4488.38831173 0 8718
0.08950000 0.08949900 21287.43024983 0 332.47534072 0 9660.13836663 0 573.14671468 0 4449.96734461 0 8571
0.09050000 0.09049190 21208.15240413 0 349.48686058 0 9143.86907731 0 -161.36474021 0 3105.59888211 0 8932
0.09150000 0.09150830 20955.37122852 0 205.00520125 0 9438.42613446 0 88.38140044 0 2950.66384092 0 9285
0.09250000 0.09250820 20399.54052263 0 519.49022861 0 8562.10698669 0 238.47351748 0 3076.01363019 0 9204
0.09350000 0.09350330 20367.09861091 0 184.00321553 0 8038.99500063 0 1251.06198126 0 1718.54660743 0 9349
0.09450000 0.09448040 20151.63116994 0 -88.09440578 0 7893.47143554 0 812.72857187 0 2113.50750603 0 9564
0.09550000 0.09549270 19998.05802470 0 286.78096343 0 7732.16980758 0 626.63711588 0 914.20864330 0 10155
0.09650000 0.09649430 19662.23441295 0 649.30770094 0 8362.17401744 0 -503.67119814 0 1335.78741077 0 9913
0.09750000 0.09749140 18766.70478162 0 783.27286616 0 7690.48250464 0 428.40817742 0 1722.44406576 0 10476
0.09850000 0.09850240 18472.51311119 0 518.14604838 0 7987.01043561 0 809.54195679 0 3135.83740119 0 10575
0.09950000 0.09950330 18448.59688958 0 -10.38941704 0 7779.88045522 0 365.39557688 0 2433.85200769 0 10882
0.10050000 0.10051200 18165.69899046 0 209.71426100 0 7602.08106329 0 955.33790107 0 2406.54765468 0 10875
0.10150000 0.10150300 17529.81537613 0 470.26488693 0 6922.15174082 0 518.11836756 0 1762.92448530 0 11118
0.10250000 0.10250800 17196.42767584 0 438.25147418 0 6787.86658542 0 -219.06594654 0 1854.70298572 0 11575
0.10350000 0.10349800 17074.96427258 0 363.85209480 0 7111.45527825 0 12.65788173 0 1016.16814639 0 11364
0.10450000 0.10450100 16523.45177336 0 694.92900090 0 6810.55377897 0 -306.08334729 0 713.68551914 0 12093
0.10550000 0.10551000 16282.07509232 0 273.58939564 0 6709.79562313 0 495.89953335 0 1469.17570786 0 12067
0.10650000 0.10649700 15736.87381825 0 173.57308555 0 5982.68712461 0 1035.09739290 0 706.80185480 0 12054
0.10750000 0.10749900 15712.29325715 0 231.79358392 0 5903.99611212 0 1185.24808254 0 1044.71702871 0 12807
0.10850000 0.10850100 15722.70124248 0 35.03350007 0 5646.99638076 0 973.35700248 0 -1.80329418 0 12736
0.10950000 0.10950300 15466.81981592 0 -44.76264116 0 5360.66606095 0 274.95904222 0 646.07236763 0 12933
0.11050000 0.11050200 15274.05064083 0 268.69874977 0 5064.33743183 0 -227.11552668 0 389.70597325 0 13428
0.11150000 0.11150900 15389.86715843 0 137.49612960 0 5163.70047475 0 -69.91874170 0 982.71643865 0 13453
0.11250000 0.11250000 15264.19627174 0 -141.94498971 0 5254.79249103 0 -193.29732499 0 713.17397773 0 13668
0.11350000 0.11349100 15578.09668035 0 -81.37394751 0 5367.59733628 0 -200.69695966 0 7.82976128 0 13791
0.11450000 0.11448600 15298.07758568 0 320.87597324 0 5097.49904466 0 287.71989657 0 702.49361321 0 14205
0.11550000 0.11549300 15095.45404150 0 291.90523536 0 5550.68929949 0 416.36591695 0 316.08829999 0 14776
0.11650000 0.11649800 14920.84347911 0 255.36767069 0 4886.18372549 0 360.21483609 0 1468.47815140 0 14553
0.11750000 0.11747300 14894.15917630 0 152.43491024 0 5221.61980588 0 425.90915371 0 1318.14919734 0 14568
0.11850000 0.11849100 14583.58046514 0 10.64602924 0 4679.03160046 0 740.44954269 0 1699.64614896 0 16015
0.11950000 0.11950300 14743.35411227 0 -24.81795174 0 4457.27507899 0 731.64150830 0 1517.31817617 0 15270
0.12050000 0.12050700 14758.96609026 0 -1.53776876 0 4680.45993036 0 399.89029762 0 1197.21726567 0 15999
0.12150000 0.12150000 14250.41421134 0 359.86937956 0 4162.68480487 0 -9.04624439 0 1609.19632752 0 15670
0.12250000 0.12250700 14170.25057966 0 501.49880801 0 4378.31833071 0 -30.99265512 0 1617.55593276 0 16887
0.12350000 0.12352200 13826.67634053 0 322.47149525 0 4261.49423155 0 2.34011371 0 1752.52757230 0 16407
0.12450000 0.12449800 13562.15850062 0 101.26106084 0 4705.60518003 0 -203.18712551 0 1452.99904130 0 16306
0.12550000 0.12549900 13699.01243537 0 234.10659257 0 4307.62153675 0 322.90331592 0 1400.87053606 0 17523
0.12650000 0.12650100 13674.54259752 0 107.77380230 0 4830.78888443 0 -403.86304776 0 1494.50918705 0 17154
0.12750000 0.12750600 13497.27467718 0 86.29869615 0 4499.60457678 0 125.36750499 0 1362.48278591 0 18007
0.12850000 0.12850300 13320.89254282 0 215.83393492 0 4578.37309554 0 161.25623143 0 1237.94127635 0 17496
0.12950000 0.12949900 13175.29147145 0 163.36772377 0 4093.77065520 0 392.97673800 0 794.21453754 0 18405
0.13050000 0.13049000 13114.72585469 0 -5.98244353 0 4290.24905910 0 314.20932647 0 1067.07315975 0 18100
0.13150000 0.13148800 13114.72585469 0 -45.87031654 0 3811.18278118 0 410.63377439 0 104.50779865 0 19059
0.13250000 0.13249300 13089.37023086 0 63.53765019 0 3738.37117317 0 424.66019547 0 -264.13584471 0 18957
0.13350000 0.13349100 12833.48880430 0 265.08363572 0 3249.94878077 0 -549.22052798 0 -156.98785021 0 19468
0.13450000 0.13450700 12883.75715898 0 281.76852198 0 3789.94606217 0 -49.90496098 0 -271.69492086 0 19953
0.13550000 0.13551000 12347.08157502 0 310.63407279 0 3956.61776767 0 -224.23450776 0 422.66385530 0 19956
0.13650000 0.13649900 12376.09106604 0 235.60689258 0 3646.88055319 0 852.21801834 0 74.88268636 0 19723
0.13750000 0.13749600 11977.37664932 0 -129.38454444 0 3447.73371900 0 698.31159613 0 438.30351411 0 20946
0.13850000 0.13851100 12315.30400279 0 -38.59159165 0 3138.69406099 0 750.50210639 0 424.05564653 0 20955
0.13950000 0.13949800 12155.30890916 0 183.38759427 0 2906.00915493 0 414.31975132 0 318.76337367 0 20506
0.14050000 0.14048300 11956.78212516 0 305.74674861 0 2549.66852529 0 142.35798743 0 1133.04207102 0 21447
0.14150000 0.14148400 11732.78899408 0 258.52881942 0 2687.98400692 0 -126.58103179 0 894.18545110 0 21771
0.14250000 0.14249400 11463.28860799 0 239.07031579 0 2669.27177798 0 -96.09914301 0 863.29366486 0 22470
0.14350000 0.14350900 11329.31347769 0 277.66401117 0 2630.41899019 0 -4.35975004 0 674.92795334 0 22519
0.14450000 0.14449900 11109.08493704 0 228.24601104 0 2819.57858739 0 170.79393203 0 302.06409338 0 22218
0.14550000 0.14550500 10846.42724770 0 122.27832637 0 2697.87159299 0 -276.79151198 0 425.45297392 0 23559
0.14650000 0.14650700 10807.49695363 0 61.56112948 0 2758.16040162 0 -159.93087415 0 215.48294223 0 23044
0.14750000 0.14750500 10720.23596174 0 225.97175553 0 2918.19978455 0 -90.02696936 0 -161.96596745 0 23649
0.14850000 0.14849900 10572.17683426 0 159.25546233 0 2819.84432319 0 -223.31218310 0 114.14570379 0 23640
0.14950000 0.14949500 10361.00545532 0 229.50271991 0 2945.63700545 0 -21.10174736 0 -176.96232418 0 24457
0.15050000 0.15050000 10255.95123744 0 181.22184754 0 3034.56991840 0 96.65851686 0 -37.29679398 0 24591
0.15150000 0.15149900 10161.89183811 0 141.79994225 0 3017.73998467 0 478.03765895 0 -39.95658785 0 25020
0.15250000 0.15250500 9976.58540994 0 266.96260924 0 2565.03691214 0 422.30068305 0 -125.19699119 0 25297
0.15350000 0.15350100 9769.56615281 0 117.78628419 0 2639.13290982 0 289.32316921 0 -32.07475343 0 25452
0.15450000 0.15450400 9605.96148129 0 217.92217538 0 2656.18429004 0 118.58349158 0 121.74906924 0 26061
0.15550000 0.15549900 9639.84279523 0 46.22252719 0 2550.41037105 0 28.75205947 0 329.07060084 0 26128
0.15650000 0.15649500 9596.60536682 0 -22.24939383 0 2403.70206720 0 -80.15455238 0 35.42856062 0 26331
0.15750000 0.15749700 9582.85353939 0 66.24693735 0 2564.42793427 0 -224.29540555 0 109.15651422 0 27345
0.15850000 0.15849900 9561.89362851 0 44.62080468 0 2613.71085204 0 -15.88601803 0 -222.66223764 0 26980
0.15950000 0.15949700 9628.16149255 0 7.16032852 0 2682.23747034 0 -234.10769980 0 -176.31127148 0 27777
0.16050000 0.16050000 9508.68003543 0 191.84795767 0 2812.21549139 0 -113.91097050 0 -331.73570943 0 28224
0.16150000 0.16150500 9408.82981022 0 299.03470531 0 3051.78738349 0 -218.21891369 0 -427.21458080 0 28075
0.16250000 0.16249700 9255.36738823 0 266.81866901 0 2937.28847254 0 -147.57305242 0 -272.06584375 0 28590
0.16350000 0.16349900 9097.12172192 0 106.66568403 0 3142.93476140 0 -5.64752785 0 -172.13700503 0 29163
0.16450000 0.16449100 9059.89656588 0 -84.66309232 0 2788.63143952 0 334.30781048 0 60.45555785 0 28996
0.16550000 0.16550500 9122.04552509 0 -45.04675702 0 2894.61573269 0 551.58446933 0 -49.34625147 0 30777
0.16650000 0.16650700 9087.36700376 0 141.63053569 0 2747.13236610 0 475.96713421 0 43.09326675 0 29211
0.16750000 0.16749900 8947.34638410 0 229.28127341 0 2548.76059465 0 251.92417767 0 311.52760940 0 30922
0.16850000 0.16850800 8696.14855094 0 224.28876215 0 2426.46676703 0 5.09747690 0 307.08649992 0 30867
0.16950000 0.16949900 8570.55517052 0 136.04786951 0 2559.47860508 0 66.79036705 0 67.80968527 0 30852
0.17050000 0.17049200 8458.68040056 0 130.07545750 0 2497.31857355 0 -95.25033859 0 379.09979330 0 31257
0.17150000 0.17149500 8399.72027090 0 127.09478766 0 2544.54203890 0 -12.35128906 0 411.25493181 0 32608
0.17250000 0.17250900 8315.06127533 0 15.11139819 0 2614.72950592 0 42.03419888 0 206.10468310 0 32361
0.17350000 0.17350400 8367.64374590 0 90.67636121 0 2589.06385699 0 56.24851731 0 129.06123255 0 32508
0.17450000 0.17449800 8308.11892767 0 130.55931810 0 2648.35615640 0 42.51141608 0 -26.30961534 0 32791
0.17550000 0.17549800 8182.23766681 0 71.35570802 0 2501.66999720 0 -58.89303137 0 418.41983320 0 33633
0.17650000 0.17650100 8173.82269995 0 41.94894198 0 2642.49889657 0 132.13712439 0 365.65245481 0 33984
0.17750000 0.17750300 8128.34866192 0 80.91920713 0 2536.35959086 0 328.84915435 0 381.37294159 0 34069
0.17850000 0.17849800 8095.06525351 0 2.82034258 0 2405.05289083 0 352.60814894 0 376.93847550 0 34536
