### header ###
fiducial parameters:
Omega_m = 0.31
Omega_nu = 0
Omega_de = 0.69
Omega_k = 0
H_0 = 100
w_de = -1
zeff = 0
beta = 0
fgrowth = 0
b_1 = 2
gamma = 0.55
Lx = 3500 Ly = 3500 Lz = 3500
nx = 700 ny = 700 nz = 700
xoffset = -685.467585 yoffset = -31.7331281 zoffset = 572.489161
bins = 400 dk = 0.001
kx_ny = 0.628318531 ky_ny = 0.628318531 kz_ny = 0.628318531
############################
A(data) = 8.03898409 (not used)
A(ran) = 8.03439812 (used)
Ngal = 477812
weighted Ngal = 0
Nran = 23820508
weighted Nran = 0
SN(data) = 3491.10731
SN(ran) = 69.9825215
SN(data+ran) = 3561.08983
############################
13 columns: k_central k_mean P_0(k) sigma^{lin}_{P_0(k)} P^img_1(k) sigma^{lin}_{P_1(k)} P_2(k) sigma^{lin}_{P_2(k)} P^img_3(k) sigma^{lin}_{P_3(k)} P_4(k) sigma^{lin}_{P_4(k)} N_modes
### header ###
0.00050000 0 0 0 0 0 0 0 0 0 0 0 0
0.00150000 0.00179520 24209.08459973 0 -33663.74276237 0 3797.88491907 0 -50556.12439869 0 70475.56891718 0 3
0.00250000 0.00253879 38684.70989788 0 -20605.59648750 0 -185.35403916 0 -26763.24848889 0 -18325.02974460 0 6
0.00350000 0.00331552 42552.60512678 0 -2326.83798831 0 -9430.98553218 0 -18714.66485497 0 24876.74578629 0 7
0.00450000 0.00420575 35049.33349018 0 11232.98425176 0 -1415.14276275 0 -39214.63136370 0 12897.48684175 0 24
0.00550000 0.00557378 25634.75714338 0 -1764.91750377 0 -957.77049084 0 -16659.64136863 0 5498.64937284 0 45
0.00650000 0.00659388 41857.48457467 0 -36905.60874602 0 11737.10720076 0 -917.97101927 0 -10788.20896380 0 40
0.00750000 0.00754703 66724.70816162 0 -31139.58487346 0 -10453.94654985 0 9220.29026321 0 -437.97355883 0 57
0.00850000 0.00846663 80698.75714548 0 -10421.91431415 0 -13380.24020384 0 5057.43937346 0 7580.31287269 0 75
0.00950000 0.00948925 94145.43129824 0 -8887.82156588 0 -13462.83974699 0 -16797.04891963 0 6947.11983329 0 112
0.01050000 0.01054430 90590.21852222 0 13640.88273008 0 -12166.38123398 0 -5302.69136820 0 17550.63134679 0 105
0.01150000 0.01145670 82061.09599117 0 7397.24305414 0 -462.70470354 0 -13071.10089491 0 8505.69349174 0 144
0.01250000 0.01249090 77711.33318617 0 6564.26098571 0 14808.23793571 0 -5302.30383683 0 8959.02768679 0 169
0.01350000 0.01339930 72077.95576493 0 8296.41548034 0 24639.68731193 0 -19128.99124969 0 8621.79788978 0 180
0.01450000 0.01448870 69096.95375401 0 4933.20788900 0 26052.84812853 0 -6760.78367892 0 -1890.27836536 0 267
0.01550000 0.01550050 69461.01179405 0 6746.35643968 0 30510.45537727 0 -21004.08945772 0 2213.85598586 0 238
0.01650000 0.01653350 63308.34233882 0 2966.75192888 0 41267.66183158 0 -215.95240880 0 -11839.08331234 0 315
0.01750000 0.01747870 65172.25749879 0 2065.38718237 0 38299.39299419 0 -1481.93102605 0 -9502.04771287 0 297
0.01850000 0.01844180 66338.61619519 0 -8578.37223184 0 30021.72295977 0 9850.42734096 0 -11243.72440684 0 388
0.01950000 0.01947590 79108.10696204 0 -12409.08659400 0 28134.11302469 0 21296.73100268 0 -12346.08506578 0 399
0.02050000 0.02045430 86920.51790758 0 -4295.89594476 0 23038.73986640 0 7876.54185089 0 -24234.32950032 0 462
0.02150000 0.02154770 84664.19955603 0 5406.58299197 0 23070.84960837 0 -843.43987922 0 -11784.16458124 0 571
0.02250000 0.02255340 76808.38509720 0 10433.89456960 0 20067.03860832 0 -13312.36685271 0 -4433.40314669 0 510
0.02350000 0.02348930 76050.04157038 0 6660.77844115 0 32975.70849814 0 1157.17973912 0 4681.29035473 0 555
0.02450000 0.02439640 70726.46779757 0 1874.97641246 0 32424.41744542 0 5440.12106385 0 3019.37868875 0 592
0.02550000 0.02547300 71340.31748552 0 3190.00321420 0 34091.68811661 0 5311.71531292 0 -7007.30899100 0 837
0.02650000 0.02652900 66631.92207964 0 4654.17423124 0 35908.98878910 0 -4262.92256145 0 3829.71785292 0 723
0.02750000 0.02749970 63411.64712938 0 4257.50819462 0 35198.36698224 0 -200.09462519 0 -910.31007773 0 826
0.02850000 0.02848090 62643.00634047 0 -559.73148593 0 35225.05128505 0 5494.68548055 0 -1489.61521948 0 831
0.02950000 0.02946900 63013.92922189 0 -376.17337785 0 37767.69995640 0 5931.68799649 0 -8359.49451483 0 996
0.03050000 0.03053250 62832.34309487 0 2041.89170911 0 32245.26722985 0 -594.91822697 0 -15238.39775491 0 1041
0.03150000 0.03150510 63429.03067935 0 -170.57027106 0 35446.60850467 0 -972.30180993 0 -12463.11953912 0 1036
0.03250000 0.03246190 61043.16612742 0 2218.31813277 0 32402.60496553 0 884.90905737 0 -13263.87007000 0 1059
0.03350000 0.03345080 64157.70037566 0 -1276.04114605 0 31798.05603043 0 3040.70398635 0 -11735.88924503 0 1302
0.03450000 0.03451200 60581.67162898 0 3004.50855651 0 33747.33881475 0 5894.72857625 0 -24390.89217325 0 1339
0.03550000 0.03553350 57105.40452892 0 8012.33284247 0 28607.56563394 0 -874.93178547 0 -15116.71290515 0 1365
0.03650000 0.03647120 52466.65404615 0 5414.92045256 0 30001.68205185 0 226.89297295 0 -9601.06751372 0 1308
0.03750000 0.03744890 48392.14923613 0 2760.31950496 0 29193.07017035 0 3961.25707177 0 -4322.64668152 0 1579
0.03850000 0.03847530 46683.80023987 0 -1222.40680463 0 28520.53716086 0 7131.98336846 0 -7267.25396077 0 1662
0.03950000 0.03950240 49155.91820212 0 -1466.04223994 0 25710.82401488 0 7979.54768868 0 -93.75313883 0 1683
0.04050000 0.04050350 49011.75653299 0 339.73324964 0 20134.24761997 0 4599.49909129 0 676.82574982 0 1822
0.04150000 0.04152450 46629.87801800 0 1694.89612161 0 18741.90277403 0 4326.03481292 0 426.12506404 0 1887
0.04250000 0.04250150 45231.66483990 0 3118.57564680 0 14720.10223015 0 3103.10760902 0 -820.22453578 0 1920
0.04350000 0.04349210 42394.82449811 0 4305.09704669 0 15691.58800974 0 705.84963486 0 -4536.81866049 0 2005
0.04450000 0.04448520 38535.12278958 0 2177.31731396 0 12877.88882682 0 -1739.48437366 0 -1849.06717239 0 2151
0.04550000 0.04548030 37658.74828019 0 -1330.66092438 0 12722.10121662 0 1194.61526933 0 -1928.01284835 0 2274
0.04650000 0.04648670 38831.97181797 0 -2650.94708041 0 10037.67142597 0 265.54756613 0 -5610.84524022 0 2311
0.04750000 0.04749250 40579.51684410 0 -946.55201133 0 13070.76872516 0 4001.81499758 0 -4147.58215382 0 2568
0.04850000 0.04851840 40118.13306890 0 1510.54191338 0 10596.45844259 0 -718.80204044 0 -4546.94983770 0 2493
0.04950000 0.04949480 38997.06018102 0 3624.48124008 0 14144.23061633 0 -1715.43528415 0 694.16501048 0 2644
0.05050000 0.05050630 36667.33231593 0 1760.88717753 0 13189.57477047 0 661.27356238 0 1483.50329618 0 2829
0.05150000 0.05149060 37063.38937469 0 -569.29576011 0 15386.76690748 0 117.03336610 0 4218.93221495 0 2784
0.05250000 0.05249300 37366.10673523 0 -301.62895101 0 17626.91966479 0 298.55416641 0 -374.38187570 0 3055
0.05350000 0.05348950 37224.15953106 0 1299.10479865 0 16577.26327198 0 1998.68749766 0 4081.90112299 0 3009
0.05450000 0.05448610 36099.43277598 0 1909.26740243 0 14584.68769762 0 -286.15094815 0 1853.23036652 0 3336
0.05550000 0.05550870 35507.61701442 0 557.37197351 0 12944.54422223 0 1468.72174254 0 3300.22820777 0 3349
0.05650000 0.05647670 34513.65441545 0 -267.00800577 0 13623.60990336 0 1555.13016543 0 -894.54308719 0 3324
0.05750000 0.05747970 34446.88829679 0 688.60338173 0 13806.74615586 0 983.73287807 0 -2450.71515838 0 3639
0.05850000 0.05849280 33747.56026125 0 363.13792984 0 14474.29661918 0 -335.20245433 0 358.76325431 0 3846
0.05950000 0.05951020 33126.29211567 0 41.70202913 0 13223.45608441 0 2539.73664993 0 -230.13937859 0 3787
0.06050000 0.06049470 33565.08834824 0 101.76618030 0 12319.40076297 0 967.41227129 0 416.97600204 0 3930
0.06150000 0.06148310 32637.11680519 0 465.91124881 0 10543.08983696 0 2403.43633141 0 -355.89441495 0 4083
0.06250000 0.06249100 32354.88324556 0 852.53579406 0 10009.55879325 0 991.18565991 0 1197.91482213 0 4303
0.06350000 0.06350600 31857.62513795 0 645.78448719 0 10260.54625224 0 -10.82330823 0 1568.56089543 0 4470
0.06450000 0.06451750 31741.91934360 0 322.73833828 0 11090.04053836 0 1110.98599998 0 2845.83106954 0 4479
0.06550000 0.06550280 30551.31225585 0 635.06204783 0 10869.13658590 0 1208.31173513 0 2198.83084109 0 4636
0.06650000 0.06648880 30768.99416178 0 228.07106831 0 9458.83242910 0 1506.62231040 0 2084.21013456 0 4653
0.06750000 0.06749660 30003.56434707 0 333.39987985 0 9315.62297989 0 636.56566954 0 2216.77907962 0 5220
0.06850000 0.06852730 30754.15724653 0 -67.02454672 0 7281.31581329 0 1952.98094081 0 1818.91723191 0 5029
0.06950000 0.06949320 30798.00365281 0 -1283.37102508 0 7166.06398425 0 818.39428048 0 1107.34320511 0 5040
0.07050000 0.07048030 31120.54047478 0 523.31128790 0 7047.43509615 0 -22.08718427 0 -1799.08669816 0 5475
0.07150000 0.07148790 30515.54864669 0 1359.39360728 0 8219.09743613 0 -2931.30941714 0 -1178.21715628 0 5509
0.07250000 0.07249820 28720.17117734 0 1797.86874243 0 8341.65699955 0 -1948.89525295 0 -660.70333765 0 5916
0.07350000 0.07351270 27961.49548077 0 1107.29891581 0 9999.30582047 0 -2171.03930579 0 -1349.11848985 0 5721
0.07450000 0.07449140 27089.21773156 0 819.46165260 0 9513.87295577 0 847.67947240 0 -3714.66532573 0 6028
0.07550000 0.07549160 26625.95166114 0 873.75922627 0 9228.78273634 0 1141.95529250 0 -3619.25510277 0 6183
0.07650000 0.07648840 25943.78572907 0 15.39396392 0 8047.19959332 0 1534.59100289 0 -5059.48775356 0 6330
0.07750000 0.07749960 25347.20886784 0 -150.33559746 0 7585.15147864 0 -78.18943617 0 -4941.80001306 0 6583
0.07850000 0.07848650 25689.34370473 0 552.22002077 0 7987.58619650 0 1202.46554763 0 -3724.84079224 0 6549
0.07950000 0.07947320 24769.67640530 0 769.94067984 0 7450.95490184 0 118.83704781 0 -2573.59581922 0 6828
0.08050000 0.08048110 24649.20951127 0 490.11977979 0 8236.73564957 0 1196.20968411 0 -921.38904595 0 7147
0.08150000 0.08149960 23838.38316480 0 621.35783141 0 7495.22205646 0 519.93312160 0 545.97965850 0 7386
0.08250000 0.08250610 23834.17568137 0 691.63166256 0 9137.51356286 0 1285.57441772 0 2008.05468446 0 7227
0.08350000 0.08350160 23301.04324135 0 -137.87812480 0 7974.23297276 0 1165.90473108 0 3379.48390882 0 7798
0.08450000 0.08449610 23651.59304511 0 -484.71759252 0 7863.96368990 0 1431.27514001 0 2289.69033855 0 7371
0.08550000 0.08548940 23503.22389254 0 585.75144925 0 8162.45142236 0 -14.41982078 0 789.21316842 0 8256
0.08650000 0.08650700 22577.57753770 0 1442.84571944 0 7144.60581875 0 -1177.19850239 0 -99.86738732 0 8037
0.08750000 0.08749060 21262.84968874 0 1192.82155271 0 7046.02891089 0 -1332.42142403 0 -794.04291651 0 8155
0.08850000 0.08849210 20554.77451658 0 814.61972495 0 6858.55230706 0 -409.92403837 0 -496.52511970 0 8718
0.08950000 0.08949900 20315.72302375 0 5.41160983 0 6649.90541818 0 911.95321074 0 -2077.30100388 0 8571
0.09050000 0.09049190 20007.91239379 0 -149.56717812 0 6184.09271306 0 1699.35826852 0 -2137.70053576 0 8932
0.09150000 0.09150830 20266.34045506 0 341.17375910 0 5828.10639782 0 1942.08577319 0 -756.94509220 0 9285
0.09250000 0.09250820 19468.80089837 0 418.00019209 0 4999.23216189 0 519.52233835 0 -287.08545236 0 9204
0.09350000 0.09350330 19272.04568634 0 693.70661624 0 5700.19890151 0 751.38346345 0 1452.37899111 0 9349
0.09450000 0.09448040 18674.02942289 0 600.19751144 0 5577.17430045 0 168.53407053 0 1817.21209389 0 9564
0.09550000 0.09549270 18164.25958824 0 488.26959432 0 6181.93360972 0 -246.85305290 0 2358.59341589 0 10155
0.09650000 0.09649430 17885.67989580 0 531.60667366 0 6328.90764936 0 -262.67540507 0 2382.45427588 0 9913
0.09750000 0.09749140 17430.05372951 0 458.48393332 0 6547.65249848 0 124.05654173 0 2535.40737092 0 10476
0.09850000 0.09850240 17232.85562449 0 202.08764366 0 6137.42286395 0 589.63672803 0 2380.66055926 0 10575
0.09950000 0.09950330 16652.33363425 0 546.67610774 0 5612.91576497 0 844.59250824 0 1773.35461528 0 10882
0.10050000 0.10051200 16440.07716748 0 133.10816727 0 5235.93632187 0 150.40203141 0 1110.81991511 0 10875
0.10150000 0.10150300 16262.36635414 0 155.85847308 0 4779.82297329 0 921.32704093 0 1438.12890907 0 11118
0.10250000 0.10250800 16145.55332730 0 93.92332046 0 4935.04589492 0 -261.15738934 0 -181.92604740 0 11575
0.10350000 0.10349800 15844.93970848 0 244.87110676 0 5122.92110244 0 -638.54540122 0 263.75938567 0 11364
0.10450000 0.10450100 15812.27635026 0 464.19725293 0 5046.44455492 0 -127.42142125 0 -507.66941463 0 12093
0.10550000 0.10551000 15480.32805220 0 149.44206084 0 4960.39044643 0 -43.08983433 0 -106.36794922 0 12067
0.10650000 0.10649700 15368.27612503 0 -245.58416448 0 5237.12106062 0 575.01461588 0 -498.76837271 0 12054
0.10750000 0.10749900 15511.77345468 0 -25.75743850 0 4834.15487117 0 804.95469262 0 -53.88822983 0 12807
0.10850000 0.10850100 15561.26674662 0 373.22703222 0 4836.43577008 0 727.25908213 0 261.37662137 0 12736
0.10950000 0.10950300 15380.78785208 0 182.63467619 0 4043.67945772 0 703.49344414 0 1411.44460626 0 12933
0.11050000 0.11050200 15139.41117103 0 20.40529813 0 3804.14078259 0 782.62070623 0 1601.14674737 0 13428
0.11150000 0.11150900 15338.93446426 0 -290.85890066 0 3364.59163194 0 388.30310969 0 343.95955603 0 13453
0.11250000 0.11250000 15142.40069873 0 398.50625701 0 3912.73814441 0 19.95886199 0 722.79582800 0 13668
0.11350000 0.11349100 15041.08892664 0 372.40435849 0 3431.46847385 0 -352.95471271 0 -218.01739738 0 13791
0.11450000 0.11448600 14305.99728193 0 304.70484285 0 3396.02596210 0 -590.92111771 0 723.60300048 0 14205
0.11550000 0.11549300 14398.45119417 0 346.43089893 0 3744.22843300 0 -823.42775935 0 -169.30913327 0 14776
0.11650000 0.11649800 14391.47562953 0 91.08005817 0 4108.75151068 0 149.64025546 0 895.68685834 0 14553
0.11750000 0.11747300 14138.80517717 0 32.59902801 0 3924.56338732 0 198.00527750 0 28.32666075 0 14568
0.11850000 0.11849100 14447.39086987 0 -10.00000338 0 4552.18704734 0 386.85595684 0 165.85788962 0 16015
0.11950000 0.11950300 14135.70492622 0 24.69217013 0 4166.96979457 0 569.62903709 0 881.20204302 0 15270
0.12050000 0.12050700 14299.68605679 0 246.07577570 0 4084.92386767 0 680.57483900 0 627.67016378 0 15999
0.12150000 0.12150000 13871.40853280 0 5.67293884 0 3271.31836767 0 939.75471112 0 1495.62749185 0 15670
0.12250000 0.12250700 14164.60369400 0 53.12091772 0 3368.64410282 0 959.21210753 0 946.06704350 0 16887
0.12350000 0.12352200 13786.48380144 0 68.19887749 0 2503.26441197 0 1.53951819 0 836.21850898 0 16407
0.12450000 0.12449800 13701.22690034 0 418.09984301 0 2689.42340915 0 -231.37837174 0 1013.14761618 0 16306
0.12550000 0.12549900 13527.28067744 0 238.43365711 0 2334.41145849 0 -351.58949506 0 783.58178402 0 17523
0.12650000 0.12650100 13284.90748716 0 56.24209536 0 2172.63372056 0 -97.89518482 0 522.94368672 0 17154
0.12750000 0.12750600 13243.05409934 0 203.77838766 0 2706.22012590 0 -271.77242714 0 375.33520286 0 18007
0.12850000 0.12850300 13000.79163231 0 420.99636318 0 3014.57329977 0 48.39059911 0 42.16308074 0 17496
0.12950000 0.12949900 12526.01034409 0 649.94989578 0 2962.47801150 0 -256.80485845 0 144.83486649 0 18405
0.13050000 0.13049000 12162.28447379 0 321.30115052 0 3347.87242147 0 -322.03413842 0 585.46024711 0 18100
0.13150000 0.13148800 11948.03498855 0 24.49530420 0 3774.85448345 0 268.00119331 0 614.06559828 0 19059
0.13250000 0.13249300 12070.05200805 0 56.18728735 0 3493.59528840 0 158.95540233 0 952.44027367 0 18957
0.13350000 0.13349100 12098.84005258 0 -48.70704615 0 3349.93187388 0 319.16529906 0 1286.51556533 0 19468
0.13450000 0.13450700 12117.33083503 0 -44.49247644 0 3445.96214703 0 123.98900055 0 959.21210753 0 19953
0.13550000 0.13551000 12200.48399442 0 158.54461908 0 3432.73071888 0 28.16013299 0 862.68690146 0 19956
0.13650000 0.13649900 11859.56711325 0 222.27470627 0 3128.61824541 0 346.61691398 0 858.60010636 0 19723
0.13750000 0.13749600 11827.90026427 0 125.39850750 0 3221.91365433 0 143.31131459 0 1082.55116261 0 20946
0.13850000 0.13851100 11674.99145853 0 71.65466079 0 3275.34869390 0 435.49003637 0 826.07847391 0 20955
0.13950000 0.13949800 11578.55150935 0 210.81595731 0 3283.71937147 0 63.71248219 0 882.11218812 0 20506
0.14050000 0.14048300 11403.16588423 0 261.67114521 0 3195.46187034 0 103.24289626 0 541.85300304 0 21447
0.14150000 0.14148400 11298.20024495 0 82.06995385 0 3134.25405874 0 -198.10714289 0 988.87043679 0 21771
0.14250000 0.14249400 11169.42910731 0 61.53721326 0 3066.24783970 0 92.10148014 0 813.46931040 0 22470
0.14350000 0.14350900 11315.36234842 0 19.95421162 0 3180.21527906 0 94.21695852 0 609.57134164 0 22519
0.14450000 0.14449900 11056.19244139 0 129.94369684 0 2987.09178957 0 111.28461505 0 384.88840472 0 22218
0.14550000 0.14550500 10949.77632755 0 172.96410769 0 2861.45411986 0 143.58369378 0 275.22367078 0 23559
0.14650000 0.14650700 10677.97289791 0 174.67146018 0 2831.08273288 0 -1.32518012 0 358.88837158 0 23044
0.14750000 0.14750500 10717.00284289 0 244.25991443 0 2460.15985146 0 196.83493277 0 -251.97621760 0 23649
0.14850000 0.14849900 10383.52656400 0 244.91871776 0 2520.16077965 0 23.83749738 0 125.32543016 0 23640
0.14950000 0.14949500 10291.93629310 0 158.34421000 0 2316.69573878 0 -165.88778490 0 -86.75387942 0 24457
0.15050000 0.15050000 10204.39849309 0 134.31394345 0 2802.75972599 0 -228.19507835 0 -198.62643492 0 24591
0.15150000 0.15149900 10011.87290914 0 238.29082412 0 2527.05883801 0 -105.02554056 0 -114.20660157 0 25020
0.15250000 0.15250500 10017.02154018 0 229.74963275 0 3268.42849089 0 -369.08155381 0 -316.96522812 0 25297
0.15350000 0.15350100 9721.71156494 0 173.07593817 0 2822.19165605 0 24.70678560 0 124.85596358 0 25452
0.15450000 0.15450400 9785.82032564 0 45.86721628 0 3185.99503262 0 263.87121615 0 -24.27729012 0 26061
0.15550000 0.15549900 9729.18538420 0 -107.23225489 0 2752.66852851 0 312.61380446 0 -120.21333779 0 26128
0.15650000 0.15649500 9811.65205944 0 -82.50476405 0 2791.93099232 0 552.01850446 0 -570.45503252 0 26331
0.15750000 0.15749700 9590.89204721 0 365.21952691 0 2344.94123939 0 188.51961683 0 -266.57507787 0 27345
0.15850000 0.15849900 9544.10040253 0 98.30685386 0 1997.54704821 0 104.03069217 0 -254.20064765 0 26980
0.15950000 0.15949700 9516.43066281 0 -173.73474150 0 2093.21193464 0 433.48705281 0 -42.69875981 0 27777
0.16050000 0.16050000 9573.82959467 0 75.13137078 0 1852.42208681 0 211.57994773 0 -329.93534941 0 28224
0.16150000 0.16150500 9437.15281710 0 249.21920872 0 1839.22387563 0 153.56871630 0 -5.84250042 0 28075
0.16250000 0.16249700 9263.33946210 0 187.64047424 0 1744.55549843 0 95.90548805 0 286.17420003 0 28590
0.16350000 0.16349900 9052.10164921 0 189.15073934 0 1790.66065897 0 236.54361126 0 528.88288175 0 29163
0.16450000 0.16449100 9035.84747638 0 210.31770270 0 1932.19818713 0 43.23632118 0 71.02719214 0 28996
0.16550000 0.16550500 8857.42803425 0 60.64411954 0 1922.47668594 0 -131.70198202 0 436.29720885 0 30777
0.16650000 0.16650700 8816.10611803 0 121.56637588 0 2029.10317394 0 -212.59195822 0 314.74301253 0 29211
0.16750000 0.16749900 8730.99315715 0 171.43501963 0 2048.02577706 0 -262.09853694 0 138.16821971 0 30922
0.16850000 0.16850800 8606.36306899 0 229.19380205 0 2229.57868711 0 -37.88938481 0 -79.62983491 0 30867
0.16950000 0.16949900 8338.83355672 0 219.55202160 0 2064.71177056 0 140.62738306 0 157.48499759 0 30852
0.17050000 0.17049200 8212.16616079 0 105.11367626 0 2077.88783709 0 120.46800126 0 116.85288721 0 31257
0.17150000 0.17149500 8158.32144520 0 91.60876168 0 1940.32527354 0 319.88500017 0 121.84872016 0 32608
0.17250000 0.17250900 8129.21230325 0 107.47451736 0 1955.74902202 0 182.01794769 0 154.82874687 0 32361
0.17350000 0.17350400 7942.17859242 0 41.16446776 0 1906.23358543 0 -39.17919992 0 463.09555661 0 32508
0.17450000 0.17449800 8037.10163309 0 37.32425335 0 1973.21007826 0 78.58837204 0 223.92558990 0 32791
0.17550000 0.17549800 7870.98354383 0 195.11318626 0 1891.56275504 0 -128.62055402 0 392.95127165 0 33633
0.17650000 0.17650100 7743.09819218 0 185.65852809 0 1938.99659457 0 14.51781086 0 417.62705474 0 33984
0.17750000 0.17750300 7641.04457432 0 95.29152764 0 1990.49397730 0 7.95512214 0 609.47944134 0 34069
0.17850000 0.17849800 7623.51708413 0 52.03893014 0 1762.70303880 0 494.12906861 0 300.52171853 0 34536
