### header ###
fiducial parameters:
Omega_m = 0.31
Omega_nu = 0
Omega_de = 0.69
Omega_k = 0
H_0 = 100
w_de = -1
zeff = 0
beta = 0
fgrowth = 0
b_1 = 2
gamma = 0.55
Lx = 3500 Ly = 3500 Lz = 3500
nx = 700 ny = 700 nz = 700
xoffset = -685.467585 yoffset = -31.7331281 zoffset = 572.489161
bins = 400 dk = 0.001
kx_ny = 0.628318531 ky_ny = 0.628318531 kz_ny = 0.628318531
############################
A(data) = 7.97249566 (not used)
A(ran) = 7.97184512 (used)
Ngal = 474752
weighted Ngal = 0
Nran = 23820508
weighted Nran = 0
SN(data) = 3482.42718
SN(ran) = 69.4376621
SN(data+ran) = 3551.86484
############################
13 columns: k_central k_mean P_0(k) sigma^{lin}_{P_0(k)} P^img_1(k) sigma^{lin}_{P_1(k)} P_2(k) sigma^{lin}_{P_2(k)} P^img_3(k) sigma^{lin}_{P_3(k)} P_4(k) sigma^{lin}_{P_4(k)} N_modes
### header ###
0.00050000 0 0 0 0 0 0 0 0 0 0 0 0
0.00150000 0.00179520 50572.06854643 0 -100051.29863326 0 -72353.54592967 0 -74022.69889608 0 169083.25784058 0 3
0.00250000 0.00253879 76772.06787180 0 -83645.10277973 0 -69236.79721647 0 -80274.90855143 0 -76954.20761507 0 6
0.00350000 0.00331552 135017.03607106 0 -67356.05212277 0 -56697.27863610 0 -39086.08167256 0 -78974.24255498 0 7
0.00450000 0.00420575 159232.21044943 0 -26126.25764208 0 -45187.04337088 0 -66327.32242387 0 42622.80366613 0 24
0.00550000 0.00557378 122366.90496575 0 49784.60480533 0 -25966.48399494 0 -59857.87375559 0 34406.47431121 0 45
0.00650000 0.00659388 89082.72149816 0 33329.35855285 0 -49783.71901934 0 -5398.06837419 0 27896.50093408 0 40
0.00750000 0.00754703 61453.94937820 0 4671.23668379 0 -10130.23606145 0 -14457.57740870 0 -8215.33284569 0 57
0.00850000 0.00846663 60190.26494664 0 -539.76697705 0 -12245.32690993 0 -9856.73856611 0 9763.95248413 0 75
0.00950000 0.00948925 63935.36809330 0 -12739.26332009 0 3618.92293303 0 -11118.38568989 0 -5772.44582095 0 112
0.01050000 0.01054430 74136.07950222 0 -3023.36472568 0 -1976.76429452 0 -19165.86209133 0 23682.26338486 0 105
0.01150000 0.01145670 75133.69596838 0 4618.65421323 0 30774.08743120 0 -24899.77622192 0 -2716.55060496 0 144
0.01250000 0.01249090 70773.19300831 0 10053.48270581 0 14886.29782568 0 -10502.57620045 0 13742.30522541 0 169
0.01350000 0.01339930 69558.11608271 0 12181.88248872 0 34816.37177599 0 2803.81159685 0 27794.30337601 0 180
0.01450000 0.01448870 68671.22286473 0 -3358.73437211 0 38039.74697720 0 11417.55990649 0 7970.34658675 0 267
0.01550000 0.01550050 77154.94886403 0 -5739.69388414 0 53611.31098590 0 15483.53902640 0 21392.50661236 0 238
0.01650000 0.01653350 78571.09920833 0 679.31923737 0 48563.88099407 0 12945.87290121 0 -6573.45101531 0 315
0.01750000 0.01747870 76280.34592660 0 5225.14080517 0 47099.89820655 0 5519.93038114 0 11382.79280656 0 297
0.01850000 0.01844180 68242.72389425 0 7136.79982976 0 31182.87766351 0 4729.59890791 0 2933.36886955 0 388
0.01950000 0.01947590 67490.35942282 0 -7299.35263042 0 29923.28999214 0 15117.59869114 0 22728.05043199 0 399
0.02050000 0.02045430 71721.64835227 0 -7922.35913099 0 22978.61714263 0 18293.14144913 0 -9787.96835666 0 462
0.02150000 0.02154770 79863.23951467 0 -3103.52835737 0 4985.57998539 0 9359.92335149 0 -3927.03251575 0 571
0.02250000 0.02255340 77054.19070818 0 1406.18525197 0 4514.44149203 0 448.57309538 0 -8023.74840935 0 510
0.02350000 0.02348930 77287.92748510 0 1922.56526454 0 -4767.65448831 0 -9646.36439455 0 -5686.90103940 0 555
0.02450000 0.02439640 74227.86907497 0 -1177.30922564 0 8027.46871049 0 -1261.73570238 0 -1185.38095043 0 592
0.02550000 0.02547300 74761.00151499 0 -1000.88501645 0 8321.50536838 0 -2898.43568475 0 -4508.73924475 0 837
0.02650000 0.02652900 77330.22376591 0 1672.31965131 0 11010.99521148 0 -365.34353695 0 1118.20515576 0 723
0.02750000 0.02749970 74990.97370147 0 6994.26579237 0 21106.17629255 0 -6576.60662788 0 -10203.82273220 0 826
0.02850000 0.02848090 69962.80955483 0 5527.49277899 0 22786.18013729 0 -7181.00055043 0 2378.65646846 0 831
0.02950000 0.02946900 66577.00334853 0 4248.34030967 0 26971.07602574 0 -8121.84920725 0 7701.99772245 0 996
0.03050000 0.03053250 66072.65895305 0 3838.52035115 0 28181.17040517 0 6879.43471167 0 13292.76883778 0 1041
0.03150000 0.03150510 60661.50309092 0 4599.85340568 0 31864.26853284 0 10422.31291784 0 13561.60488437 0 1036
0.03250000 0.03246190 58193.59261210 0 1381.85935434 0 22576.47030522 0 12579.60039621 0 8294.59961907 0 1059
0.03350000 0.03345080 59168.51081238 0 642.43953786 0 24551.66232962 0 15909.49136217 0 19355.42029223 0 1302
0.03450000 0.03451200 54051.10372770 0 1304.03198319 0 15479.22081972 0 6623.91867183 0 15746.94963383 0 1339
0.03550000 0.03553350 53257.43948470 0 2316.97254690 0 15838.62848333 0 1343.77055697 0 16400.32752138 0 1365
0.03650000 0.03647120 50177.89378289 0 5042.85712168 0 14888.51229064 0 -1088.42060200 0 12340.65962662 0 1308
0.03750000 0.03744890 46859.07514174 0 4204.00672109 0 18060.40118144 0 -8185.75866610 0 16814.65391609 0 1579
0.03850000 0.03847530 44426.70682558 0 1269.79635485 0 19774.50778661 0 -4094.51250096 0 5330.75971161 0 1662
0.03950000 0.03950240 43467.62204979 0 332.38565489 0 19075.06902782 0 480.46581979 0 -564.32096457 0 1683
0.04050000 0.04050350 43494.41707585 0 1286.81451810 0 16631.40694034 0 -202.82616773 0 -691.22309378 0 1822
0.04150000 0.04152450 43424.66142950 0 -49.75382374 0 18865.13774926 0 1881.11048041 0 -300.70662635 0 1887
0.04250000 0.04250150 44195.62740662 0 -1803.71492993 0 9881.78416485 0 5459.53084925 0 912.20565974 0 1920
0.04350000 0.04349210 45462.96570536 0 -2434.07345418 0 11911.93920964 0 4379.91274549 0 -5201.80034445 0 2005
0.04450000 0.04448520 45326.77611009 0 1817.74356548 0 10540.78679340 0 -3848.13112910 0 -10014.61884570 0 2151
0.04550000 0.04548030 42187.77202401 0 5743.60241480 0 11609.00040261 0 -4822.14139874 0 -8081.43522166 0 2274
0.04650000 0.04648670 38547.41307013 0 3594.01020218 0 14333.01375449 0 -6677.96268927 0 -819.04201148 0 2311
0.04750000 0.04749250 36543.32227796 0 826.12608490 0 16041.47347401 0 2194.82265950 0 -1506.29014065 0 2568
0.04850000 0.04851840 37594.30734974 0 -1588.13676571 0 17229.75537354 0 3400.08950531 0 -5454.50401379 0 2493
0.04950000 0.04949480 37917.28706470 0 -1095.67076029 0 14966.68290386 0 6295.24778192 0 -6684.43999929 0 2644
0.05050000 0.05050630 39241.20494327 0 374.88898817 0 15763.66884431 0 676.11158487 0 -4214.42577875 0 2829
0.05150000 0.05149060 37687.64704796 0 358.43108456 0 12738.82042710 0 2500.59598169 0 -227.90387621 0 2784
0.05250000 0.05249300 37790.84111527 0 327.66773729 0 14853.74519071 0 152.50577312 0 182.70664630 0 3055
0.05350000 0.05348950 37135.91310225 0 1498.14090959 0 12816.99104032 0 843.25607863 0 -676.60319609 0 3009
0.05450000 0.05448610 35926.70450881 0 1891.06450043 0 14484.70460450 0 1684.46599164 0 1859.10977100 0 3336
0.05550000 0.05550870 34168.53005085 0 823.46540525 0 13037.88392045 0 2121.71209872 0 4900.61096473 0 3349
0.05650000 0.05647670 34423.41496818 0 -188.81746236 0 12506.52305241 0 3678.12665383 0 3818.76732368 0 3324
0.05750000 0.05747970 35444.83693270 0 -218.20894860 0 10895.74338244 0 3970.53567997 0 2455.15516064 0 3639
0.05850000 0.05849280 34249.80091502 0 718.63263387 0 10516.27266625 0 859.33530873 0 4813.73750421 0 3846
0.05950000 0.05951020 33812.33336144 0 921.77214838 0 9717.74767266 0 -281.58915032 0 5610.30269631 0 3787
0.06050000 0.06049470 32689.71034808 0 1412.87293616 0 10501.07036428 0 466.83025177 0 6762.97599923 0 3930
0.06150000 0.06148310 32235.41286077 0 792.10083074 0 10986.39250573 0 1113.58799631 0 4100.59120729 0 4083
0.06250000 0.06249100 31061.96787649 0 170.47837077 0 9516.36422886 0 1026.74332383 0 5638.91358364 0 4303
0.06350000 0.06350600 31280.20339866 0 73.11886502 0 10537.01113064 0 2129.68417259 0 5207.85690613 0 4470
0.06450000 0.06451750 30605.67737071 0 478.13066648 0 8413.87070201 0 1821.65209614 0 3461.43018481 0 4479
0.06550000 0.06550280 30792.46749040 0 696.71607412 0 8628.17554888 0 210.26898447 0 3179.52879492 0 4636
0.06650000 0.06648880 29489.80847549 0 1333.76117533 0 8826.69126055 0 -216.14617448 0 3639.39566162 0 4653
0.06750000 0.06749660 29077.47509924 0 1072.57278348 0 9129.66328457 0 -1690.35646844 0 4925.85586532 0 5220
0.06850000 0.06852730 28304.95899664 0 -19.84404199 0 9015.34153081 0 1113.23368192 0 5079.88297587 0 5029
0.06950000 0.06949320 29683.13126682 0 -1096.22991269 0 10420.17595915 0 -391.50854773 0 2486.70021405 0 5040
0.07050000 0.07048030 29250.75698265 0 99.25962741 0 10945.82350759 0 61.31111639 0 -166.17787981 0 5475
0.07150000 0.07148790 30064.24068708 0 644.68832703 0 10423.24299313 0 -1072.25722223 0 1357.21235930 0 5509
0.07250000 0.07249820 28116.17585848 0 1014.93247494 0 9795.61933311 0 -1323.36426232 0 418.38440176 0 5916
0.07350000 0.07351270 28938.84959251 0 984.97519291 0 12481.16742857 0 -406.96219148 0 46.00993855 0 5721
0.07450000 0.07449140 26755.94075451 0 719.57267424 0 11902.08484056 0 -754.32648738 0 -876.92037501 0 6028
0.07550000 0.07549160 26703.56865812 0 1342.20935917 0 12704.93911316 0 412.67551108 0 378.41330916 0 6183
0.07650000 0.07648840 25857.08942574 0 203.84814331 0 12304.56384771 0 452.58459866 0 600.93492828 0 6330
0.07750000 0.07749960 26349.03281743 0 -297.45357732 0 12823.63443521 0 1884.83078155 0 576.31450681 0 6583
0.07850000 0.07848650 25919.09444472 0 114.89751464 0 12147.22611204 0 2732.84906709 0 1805.73009305 0 6549
0.07950000 0.07947320 26293.67119334 0 -196.14734139 0 10697.58198516 0 2543.08049202 0 2601.79703054 0 6828
0.08050000 0.08048110 26142.86612931 0 -465.89242586 0 9295.46027640 0 2079.78120464 0 3861.40684655 0 7147
0.08150000 0.08149960 26264.99387206 0 657.92086242 0 9866.34934405 0 1653.04273380 0 1852.12313404 0 7386
0.08250000 0.08250610 24958.45954346 0 1572.63551097 0 7117.31253808 0 -98.82725312 0 2424.92771388 0 7227
0.08350000 0.08350160 23640.96361328 0 1184.32907958 0 7492.55362618 0 -504.26135305 0 2239.34447760 0 7798
0.08450000 0.08449610 22878.52332627 0 739.23933759 0 7359.39784791 0 -109.24309980 0 2428.60372572 0 7371
0.08550000 0.08548940 22510.36852605 0 323.15908662 0 6948.63674179 0 974.16749666 0 2136.54901398 0 8256
0.08650000 0.08650700 22063.15732663 0 26.62606238 0 7154.95844246 0 721.71406186 0 353.03664791 0 8037
0.08750000 0.08749060 22155.61123886 0 95.64119166 0 7171.24583227 0 6.46331460 0 1425.39573553 0 8155
0.08850000 0.08849210 22015.87849965 0 506.15029167 0 8062.96658386 0 65.97998359 0 -87.74164152 0 8718
0.08950000 0.08949900 21571.32465818 0 549.66231374 0 7182.87177333 0 -579.83107717 0 712.85841647 0 8571
0.09050000 0.09049190 20836.78662971 0 799.23583685 0 7862.55750464 0 59.57087910 0 1654.93610134 0 8932
0.09150000 0.09150830 20764.59507190 0 -24.26378188 0 7302.68540019 0 880.45798279 0 1243.00132879 0 9285
0.09250000 0.09250820 20755.51576555 0 97.57397668 0 7184.13401836 0 1308.84844449 0 1519.04545884 0 9204
0.09350000 0.09350330 20681.55263576 0 408.99396308 0 6339.55922584 0 1727.69234773 0 778.31910803 0 9349
0.09450000 0.09448040 19771.85042866 0 520.76576043 0 5606.17271915 0 1056.65078040 0 1994.94505187 0 9564
0.09550000 0.09549270 19284.77885988 0 782.58748925 0 5618.52943365 0 298.22753283 0 1517.51747802 0 10155
0.09650000 0.09649430 18444.50012940 0 1056.33964807 0 5882.17255991 0 -543.63454011 0 2229.37938526 0 9913
0.09750000 0.09749140 18020.43008884 0 469.31377423 0 5940.22475893 0 -87.24715149 0 2585.09996471 0 10476
0.09850000 0.09850240 17596.69221803 0 218.43260956 0 6220.03347942 0 -284.42034378 0 2749.92259196 0 10575
0.09950000 0.09950330 17504.45975229 0 -318.29944326 0 6183.38408427 0 292.14439757 0 1452.14647229 0 10882
0.10050000 0.10051200 17831.42550419 0 181.94154865 0 6511.10275425 0 474.62738291 0 1272.70837628 0 10875
0.10150000 0.10150300 17260.64715979 0 542.28371648 0 5487.24487827 0 591.43819528 0 836.64257902 0 11118
0.10250000 0.10250800 16791.84492697 0 310.48238194 0 5314.76020225 0 375.29202080 0 1241.90516863 0 11575
0.10350000 0.10349800 16411.51056945 0 353.10086740 0 4710.15590553 0 1141.61205043 0 1062.56672355 0 11364
0.10450000 0.10450100 16289.60427319 0 286.97030018 0 4463.79667831 0 450.73219872 0 1132.26700828 0 12093
0.10550000 0.10551000 16219.84862683 0 236.86360145 0 4730.50683854 0 167.73021975 0 1656.70767331 0 12067
0.10650000 0.10649700 15957.87742163 0 -143.59476611 0 4304.90881716 0 462.95272362 0 1602.45328170 0 12054
0.10750000 0.10749900 15866.64146512 0 130.84719854 0 4699.52647370 0 -273.94703173 0 1643.86377653 0 12807
0.10850000 0.10850100 15952.78415221 0 439.28895102 0 4921.65945421 0 -366.07763208 0 1295.31806356 0 12736
0.10950000 0.10950300 15370.49059000 0 457.18736409 0 5110.30972447 0 -717.61397998 0 880.00623194 0 12933
0.11050000 0.11050200 15019.38717000 0 609.01883263 0 5525.55512215 0 -514.03600140 0 1222.17428581 0 13428
0.11150000 0.11150900 14868.47138272 0 174.96376955 0 5845.13563339 0 -428.52000790 0 878.90564285 0 13453
0.11250000 0.11250000 14644.36752839 0 -11.87805790 0 5538.15542779 0 254.62803939 0 -593.17876474 0 13668
0.11350000 0.11349100 14739.58952183 0 -32.21924727 0 5635.14899320 0 164.43066695 0 -366.15181666 0 13791
0.11450000 0.11448600 14772.58504979 0 79.04012289 0 5531.86634729 0 698.76113251 0 -178.87672914 0 14205
0.11550000 0.11549300 14543.72009579 0 45.04266026 0 4547.04948862 0 1180.15481312 0 -184.14715576 0 14776
0.11650000 0.11649800 14659.09372040 0 -65.72244132 0 4309.53704894 0 1148.03399882 0 -46.34332625 0 14553
0.11750000 0.11747300 14332.79230799 0 235.29797472 0 3832.92882712 0 821.01288530 0 -72.08050240 0 14568
0.11850000 0.11849100 14256.17182025 0 443.62598065 0 3449.73780980 0 305.50537193 0 744.14437748 0 16015
0.11950000 0.11950300 13896.32126364 0 379.77741958 0 3075.06141026 0 342.27213372 0 1242.32591698 0 15270
0.12050000 0.12050700 13628.37100303 0 265.78451388 0 3258.51876018 0 26.24406718 0 888.04695422 0 15999
0.12150000 0.12150000 13464.27914922 0 82.65512622 0 3221.84722038 0 -34.45906785 0 895.84408536 0 15670
0.12250000 0.12250700 13333.18282337 0 54.26657117 0 3409.31275188 0 -268.20492408 0 840.08275034 0 16887
0.12350000 0.12352200 13255.12293339 0 198.53342739 0 3422.46667377 0 -376.94844059 0 651.90637558 0 16407
0.12450000 0.12449800 13402.93846972 0 64.53648461 0 3616.73061271 0 437.14756340 0 475.85419650 0 16306
0.12550000 0.12549900 13040.20910866 0 285.15776061 0 3360.51701641 0 -19.06587900 0 788.29195100 0 17523
0.12650000 0.12650100 12964.69585340 0 391.24724086 0 3735.83561079 0 -104.61497875 0 1203.80529893 0 17154
0.12750000 0.12750600 12699.51367399 0 217.08621486 0 3817.05111333 0 361.93768983 0 1444.50656817 0 18007
0.12850000 0.12850300 12532.32156923 0 173.21987839 0 3790.68790794 0 369.36721979 0 1339.72915841 0 17496
0.12950000 0.12949900 12257.17429749 0 -36.81459424 0 3881.92386444 0 444.83286405 0 1725.03498977 0 18405
0.13050000 0.13049000 12560.66672077 0 -117.66559585 0 3909.46073627 0 38.11326721 0 2133.84736672 0 18100
0.13150000 0.13148800 12872.57411091 0 -315.71184095 0 4056.09153384 0 -142.71230182 0 1780.03122714 0 19059
0.13250000 0.13249300 12937.56865760 0 80.84989438 0 4362.78385899 0 11.85491674 0 2400.87862438 0 18957
0.13350000 0.13349100 13024.70785392 0 194.64150522 0 4416.67286388 0 -541.41564621 0 2202.75044407 0 19468
0.13450000 0.13450700 12752.77155637 0 301.70535005 0 4591.73739159 0 226.31167590 0 2353.02403651 0 19953
0.13550000 0.13551000 12592.66573949 0 261.72539960 0 4386.10217506 0 438.04220724 0 2066.91516320 0 19956
0.13650000 0.13649900 12106.92284970 0 389.47566889 0 4338.75691414 0 343.70599979 0 1284.34538966 0 19723
0.13750000 0.13749600 11901.08833132 0 352.08221351 0 4006.34357843 0 497.79954429 0 1811.67593148 0 20946
0.13850000 0.13851100 11289.78527808 0 246.55299290 0 3353.53037945 0 524.52149301 0 1066.90486041 0 20955
0.13950000 0.13949800 11243.17079060 0 85.84639168 0 3203.95434347 0 188.03575623 0 1461.85690116 0 20506
0.14050000 0.14048300 11097.01610299 0 123.56825221 0 2987.97757556 0 532.98960703 0 884.35544113 0 21447
0.14150000 0.14148400 10866.96641023 0 143.14080079 0 2752.76817944 0 207.48650924 0 1059.52626315 0 21771
0.14250000 0.14249400 10774.99968029 0 223.50041263 0 2529.11829043 0 -49.47590839 0 1186.62105081 0 22470
0.14350000 0.14350900 10751.67029190 0 145.72065247 0 2985.07662646 0 5.98470229 0 1212.31991672 0 22519
0.14450000 0.14449900 10529.17192467 0 192.73927982 0 2679.77941423 0 -5.26150232 0 1313.18879582 0 22218
0.14550000 0.14550500 10547.72914106 0 274.61247845 0 3010.77549236 0 -218.14030018 0 1557.96468058 0 23559
0.14650000 0.14650700 10245.08928680 0 193.96387894 0 3035.55535531 0 -123.82070121 0 1218.31004445 0 23044
0.14750000 0.14750500 10186.25095271 0 92.08066417 0 3023.12113453 0 385.29033011 0 1538.18950846 0 23649
0.14850000 0.14849900 10093.22127958 0 -54.72374746 0 2876.94430228 0 397.32151826 0 1585.68978193 0 23640
0.14950000 0.14949500 10215.12757584 0 85.60855814 0 2816.53369807 0 415.38048004 0 898.65313416 0 24457
0.15050000 0.15050000 9986.11868161 0 240.76881041 0 2728.51978808 0 59.56744668 0 1274.44673128 0 24591
0.15150000 0.15149900 9819.35839752 0 221.39113475 0 2764.42733747 0 -152.01084020 0 1090.06927116 0 25020
0.15250000 0.15250500 9657.03811568 0 181.93269079 0 2782.14305718 0 -254.93695725 0 1344.13594368 0 25297
0.15350000 0.15350100 9766.32196164 0 86.36513009 0 3166.21986049 0 -364.42231952 0 924.58119719 0 25452
0.15450000 0.15450400 9517.07285764 0 177.45614987 0 2982.64071500 0 -123.74540941 0 1003.16702259 0 26061
0.15550000 0.15549900 9369.17981504 0 177.33656876 0 3031.64682464 0 -34.79943112 0 1279.03067375 0 26128
0.15650000 0.15649500 9399.08616438 0 0.52756860 0 3090.61802663 0 425.96008640 0 816.77439936 0 26331
0.15750000 0.15749700 9363.03467477 0 -7.08833626 0 3097.99219496 0 417.88503991 0 829.18536825 0 27345
0.15850000 0.15849900 9156.27008110 0 264.73153579 0 2542.90333482 0 621.87158728 0 703.68720983 0 26980
0.15950000 0.15949700 9094.75224441 0 4.50067859 0 2309.03369001 0 385.94359727 0 1174.16468539 0 27777
0.16050000 0.16050000 8969.76784186 0 55.92299096 0 2195.85238571 0 364.62051414 0 1096.21773314 0 28224
0.16150000 0.16150500 8988.05932246 0 113.12815714 0 2187.93567346 0 32.13066867 0 970.52138010 0 28075
0.16250000 0.16249700 8856.54224826 0 68.91957511 0 2155.23909827 0 -271.51444197 0 877.79065974 0 28590
0.16350000 0.16349900 8747.71236762 0 176.35002462 0 2239.45520084 0 -223.37418812 0 807.91764674 0 29163
0.16450000 0.16449100 8707.13229716 0 55.22532377 0 2268.44254722 0 -272.23525032 0 505.02202177 0 28996
0.16550000 0.16550500 8726.68602279 0 -56.19094122 0 2254.90109397 0 47.16146033 0 379.49507530 0 30777
0.16650000 0.16650700 8709.52391932 0 34.26142686 0 2241.73609976 0 23.34400386 0 380.90790395 0 29211
0.16750000 0.16749900 8722.26816519 0 142.05903466 0 2217.55414235 0 53.09168678 0 -30.56083446 0 30922
0.16850000 0.16850800 8694.95273986 0 55.31545250 0 2180.57257746 0 -173.93515058 0 8.87662745 0 30867
0.16950000 0.16949900 8509.62416705 0 243.79598402 0 2328.59848796 0 -107.60838177 0 -254.06888699 0 30852
0.17050000 0.17049200 8332.98736921 0 294.90694261 0 2385.18914011 0 -176.15515170 0 -296.79809569 0 31257
0.17150000 0.17149500 8084.20330286 0 275.70863861 0 2552.62483602 0 -28.45122441 0 -268.33225582 0 32608
0.17250000 0.17250900 7994.65033973 0 151.84032640 0 2373.81786252 0 -7.09015213 0 -230.74392752 0 32361
0.17350000 0.17350400 7833.23798852 0 76.76287784 0 2551.67261608 0 132.38625169 0 -136.18184464 0 32508
0.17450000 0.17449800 7872.17935491 0 8.59856815 0 2493.46540451 0 252.66491620 0 -97.09078042 0 32791
0.17550000 0.17549800 7793.23367895 0 -21.52603885 0 2201.11174000 0 173.88864681 0 -16.58667475 0 33633
0.17650000 0.17650100 7945.84353193 0 7.42750372 0 2154.57475879 0 318.03813639 0 146.52671772 0 33984
0.17750000 0.17750300 7877.95910847 0 -26.23255196 0 2254.79037072 0 298.82433114 0 448.99827265 0 34069
