### header ###
fiducial parameters:
Omega_m = 0.31
Omega_nu = 0
Omega_de = 0.69
Omega_k = 0
H_0 = 100
w_de = -1
zeff = 0
beta = 0
fgrowth = 0
b_1 = 2
gamma = 0.55
Lx = 3500 Ly = 3500 Lz = 3500
nx = 700 ny = 700 nz = 700
xoffset = -685.467585 yoffset = -31.7331281 zoffset = 572.489161
bins = 400 dk = 0.001
kx_ny = 0.628318531 ky_ny = 0.628318531 kz_ny = 0.628318531
############################
A(data) = 8.06683863 (not used)
A(ran) = 8.06787973 (used)
Ngal = 479078
weighted Ngal = 0
Nran = 23820508
weighted Nran = 0
SN(data) = 3489.38783
SN(ran) = 70.2741584
SN(data+ran) = 3559.66199
############################
13 columns: k_central k_mean P_0(k) sigma^{lin}_{P_0(k)} P^img_1(k) sigma^{lin}_{P_1(k)} P_2(k) sigma^{lin}_{P_2(k)} P^img_3(k) sigma^{lin}_{P_3(k)} P_4(k) sigma^{lin}_{P_4(k)} N_modes
### header ###
0.00050000 0 0 0 0 0 0 0 0 0 0 0 0
0.00150000 0.00179520 6968.53370949 0 -6819.66630230 0 14145.44857206 0 -1420.15852589 0 13044.74876184 0 3
0.00250000 0.00253879 20094.60869712 0 -11807.30574011 0 -1589.84190373 0 -11631.14505224 0 -2929.05066288 0 6
0.00350000 0.00331552 27037.06708166 0 -15338.60229452 0 -24288.80533842 0 -12117.77372802 0 -59174.15769804 0 7
0.00450000 0.00420575 38121.12856461 0 -23028.22115782 0 -49683.40375649 0 8826.03799339 0 7167.97949645 0 24
0.00550000 0.00557378 55396.61263966 0 -19442.78093505 0 -38653.59666514 0 -22148.41422773 0 -25216.99832797 0 45
0.00650000 0.00659388 92447.82245705 0 -29381.63186201 0 -45002.57843940 0 -34974.92746740 0 -4202.65589746 0 40
0.00750000 0.00754703 93594.80458501 0 -10720.86708425 0 -35831.81468511 0 -31789.97323331 0 7962.03127081 0 57
0.00850000 0.00846663 84041.04911524 0 19064.66104249 0 2952.56828079 0 -71883.08284813 0 11936.51977074 0 75
0.00950000 0.00948925 85302.74052833 0 1887.28883766 0 22895.79615299 0 -13577.99192511 0 33452.70425133 0 112
0.01050000 0.01054430 86158.74196006 0 -5300.29974604 0 39653.53831951 0 12266.69649683 0 35425.68181076 0 105
0.01150000 0.01145670 96827.59126231 0 -11659.60092703 0 47979.37296690 0 36708.18919451 0 1074.84925347 0 144
0.01250000 0.01249090 110728.78434887 0 -4426.21720788 0 62373.72740088 0 13429.84421903 0 22056.18176199 0 169
0.01350000 0.01339930 106948.36048604 0 11338.39278404 0 41969.64722508 0 -725.58273216 0 15389.97788168 0 180
0.01450000 0.01448870 94966.77635329 0 18715.43991771 0 49230.43494815 0 -3924.66303824 0 39596.29440020 0 267
0.01550000 0.01550050 81019.52239548 0 19831.75170593 0 59223.20809698 0 4519.45725518 0 44072.83532438 0 238
0.01650000 0.01653350 74870.94970044 0 6637.89194575 0 58433.30844442 0 15741.19202492 0 6505.31192837 0 315
0.01750000 0.01747870 63007.50727350 0 1005.92292424 0 46959.39040460 0 16607.82288848 0 16667.61344250 0 297
0.01850000 0.01844180 68969.95418834 0 -1950.41216145 0 37973.31302828 0 20876.09338282 0 1564.79630500 0 388
0.01950000 0.01947590 71897.36614714 0 -6830.66112085 0 32764.22709410 0 15449.87915895 0 5084.16796558 0 399
0.02050000 0.02045430 78192.64714603 0 -4309.71420614 0 28062.58580636 0 814.19786938 0 -2152.10563035 0 462
0.02150000 0.02154770 79826.81156602 0 4196.26716604 0 31906.56481365 0 -550.45066327 0 6647.31449417 0 571
0.02250000 0.02255340 78221.65663706 0 2599.13967258 0 35019.21676667 0 -4452.11537563 0 15350.89257507 0 510
0.02350000 0.02348930 75126.16678751 0 -3269.34749385 0 33615.13525642 0 7919.93429185 0 1074.53147775 0 555
0.02450000 0.02439640 78928.18168373 0 1143.81544307 0 38943.91302189 0 13595.04330533 0 -396.24528828 0 592
0.02550000 0.02547300 74624.70119647 0 2705.13503807 0 32254.01436646 0 7832.76187856 0 -18009.35776402 0 837
0.02650000 0.02652900 70369.82821516 0 4345.28958578 0 24571.81396079 0 -3666.76644857 0 -17933.95523201 0 723
0.02750000 0.02749970 67280.31742102 0 1746.31599807 0 21944.24055808 0 -9284.95264015 0 -25727.98611835 0 826
0.02850000 0.02848090 64900.54264774 0 4261.71567805 0 17113.38523970 0 -5017.43506389 0 -21332.82678159 0 831
0.02950000 0.02946900 62198.34177575 0 1384.66065252 0 11811.29177704 0 2701.96835317 0 -27013.37230655 0 996
0.03050000 0.03053250 62805.32662231 0 -1535.19998075 0 10684.50556955 0 2182.76489777 0 -25749.24498200 0 1041
0.03150000 0.03150510 60670.02878104 0 825.56803973 0 12034.62056863 0 6844.70082872 0 -26608.78955767 0 1036
0.03250000 0.03246190 62940.51970835 0 -488.38031757 0 8626.70292968 0 6593.64693578 0 -19542.76402816 0 1059
0.03350000 0.03345080 58638.47862331 0 1569.34703050 0 10757.97044472 0 6685.46972550 0 -6033.37622763 0 1302
0.03450000 0.03451200 59918.21792585 0 3554.86953395 0 10073.96650672 0 2255.53221648 0 -1430.41149867 0 1339
0.03550000 0.03553350 55494.38126781 0 4438.52963308 0 16298.79430279 0 1027.01459579 0 8192.42420564 0 1365
0.03650000 0.03647120 54258.37764830 0 3977.92092062 0 17819.46739338 0 -2082.13960982 0 15041.08892664 0 1308
0.03750000 0.03744890 52446.39169173 0 2553.44418805 0 23461.81339772 0 -6458.85245344 0 14419.71005782 0 1579
0.03850000 0.03847530 49757.58833277 0 2688.57084014 0 24462.08722184 0 118.96105785 0 14686.66380920 0 1662
0.03950000 0.03950240 48985.84729291 0 927.98261538 0 28750.28790085 0 -1779.02364559 0 8829.94652405 0 1683
0.04050000 0.04050350 48998.91263620 0 1177.77426328 0 24831.01708479 0 2029.87823668 0 10042.36609169 0 1822
0.04150000 0.04152450 47823.80680319 0 153.40595313 0 25882.66649607 0 4118.90483254 0 833.41721080 0 1887
0.04250000 0.04250150 47114.29222881 0 -1102.07277850 0 17908.48888493 0 3683.16456162 0 173.90968423 0 1920
0.04350000 0.04349210 47837.86865571 0 -1364.91869737 0 19059.45704983 0 4239.67067933 0 -8359.83775690 0 2005
0.04450000 0.04448520 47573.46153904 0 829.76223637 0 12646.80940786 0 -1865.59815334 0 -9674.85348631 0 2151
0.04550000 0.04548030 46747.68755407 0 3142.73545955 0 18675.69027161 0 -4716.50034765 0 -10192.00856162 0 2274
0.04650000 0.04648670 42522.48840327 0 4318.69386156 0 16724.19302232 0 -3162.94245234 0 -5516.66404532 0 2311
0.04750000 0.04749250 41705.68300140 0 2425.64741500 0 20097.37677832 0 2232.94467385 0 -3717.92058923 0 2568
0.04850000 0.04851840 40472.33673985 0 434.60867932 0 20418.47419807 0 1812.45099421 0 -1948.65166181 0 2493
0.04950000 0.04949480 39061.16894172 0 2163.64299281 0 22792.04846944 0 6190.81361423 0 -2672.57133078 0 2644
0.05050000 0.05050630 37971.32000982 0 871.47057673 0 18611.13861792 0 5245.01562822 0 811.20612721 0 2829
0.05150000 0.05149060 35984.39132111 0 1435.50476809 0 15983.01159896 0 5513.39770950 0 3448.88524079 0 2784
0.05250000 0.05249300 33929.92145101 0 1379.50094916 0 13558.50463343 0 1914.67069694 0 2943.27860027 0 3055
0.05350000 0.05348950 32960.31796664 0 -214.79092192 0 13619.29169668 0 2584.90066286 0 3066.65751572 0 3009
0.05450000 0.05448610 33577.93224503 0 -470.58376988 0 12994.92330016 0 1862.22109427 0 1334.86840781 0 3336
0.05550000 0.05550870 33424.35909979 0 -91.70121559 0 11816.16359996 0 461.51996479 0 1117.91727531 0 3349
0.05650000 0.05647670 34210.27271542 0 642.13837062 0 10004.65375336 0 408.43813238 0 464.21829035 0 3324
0.05750000 0.05747970 34001.67011584 0 16.58069569 0 11306.50448856 0 -1019.43337498 0 703.45026208 0 3639
0.05850000 0.05849280 34294.64383054 0 -99.53732132 0 11606.12159815 0 -497.04773343 0 2394.37916971 0 3846
0.05950000 0.05951020 33587.34372112 0 766.30895730 0 12111.79467262 0 -595.10202756 0 2266.85920477 0 3787
0.06050000 0.06049470 34791.45904515 0 452.97877342 0 13137.20267408 0 1544.06891293 0 3460.41153092 0 3930
0.06150000 0.06148310 33449.38255388 0 -149.53506837 0 13544.77495065 0 -366.77297408 0 1244.96113028 0 4083
0.06250000 0.06249100 34189.23529826 0 -7.45711111 0 13592.16450087 0 -279.68028152 0 1487.57791171 0 4303
0.06350000 0.06350600 34397.28428161 0 424.98682905 0 14108.68845366 0 -718.12884309 0 1498.39557306 0 4470
0.06450000 0.06451750 33645.03053343 0 769.43356737 0 13080.29092451 0 1692.78130757 0 1801.64440519 0 4479
0.06550000 0.06550280 32852.03062992 0 217.87234992 0 12032.40610367 0 1624.97439038 0 -1362.17276081 0 4636
0.06650000 0.06648880 33350.39597000 0 -428.18894539 0 10720.78957798 0 2536.50353108 0 -2279.95776503 0 4653
0.06750000 0.06749660 32346.35755545 0 558.02966961 0 8563.41352101 0 2032.53559463 0 -2447.08343584 0 5220
0.06850000 0.06852730 32471.03193291 0 1004.43701825 0 8839.16977062 0 437.00473041 0 -3921.03131570 0 5029
0.06950000 0.06949320 31218.86271917 0 1219.29548135 0 8626.62542340 0 -375.84120811 0 -367.64768774 0 5040
0.07050000 0.07048030 30138.31454011 0 1628.08571366 0 8638.47281096 0 -572.40929785 0 539.31190450 0 5475
0.07150000 0.07148790 29819.09941559 0 717.70809474 0 9661.54455188 0 448.08037692 0 771.07337867 0 5509
0.07250000 0.07249820 28958.00471445 0 -40.87669804 0 10771.84406772 0 619.43013965 0 1863.22867583 0 5916
0.07350000 0.07351270 29144.01977140 0 256.97647948 0 12237.13338957 0 2033.38816365 0 2341.65275892 0 5721
0.07450000 0.07449140 29360.26227511 0 388.07834150 0 9646.99551707 0 2098.44914428 0 1540.88008339 0 6028
0.07550000 0.07549160 27968.47104540 0 429.98930540 0 9374.80455605 0 1069.45592405 0 794.55999408 0 6183
0.07650000 0.07648840 27481.06730689 0 963.39301738 0 8694.95273986 0 612.13237037 0 911.10507065 0 6330
0.07750000 0.07749960 26613.43993410 0 751.89279039 0 6910.58116139 0 1201.02614540 0 1271.15825080 0 6583
0.07850000 0.07848650 26210.96092694 0 319.43878548 0 6245.65483905 0 884.16942607 0 1046.30701455 0 6549
0.07950000 0.07947320 25761.97815554 0 -83.10410899 0 5210.70249360 0 348.68522426 0 -665.64934514 0 6828
0.08050000 0.08048110 25810.69638475 0 220.93606220 0 6406.81252679 0 405.95793162 0 160.04602632 0 7147
0.08150000 0.08149960 25485.05931183 0 953.75455862 0 6570.16253484 0 -1039.00370910 0 783.31051206 0 7386
0.08250000 0.08250610 24403.51462354 0 917.68756776 0 7287.79312331 0 -1521.50351495 0 1710.60775053 0 7227
0.08350000 0.08350160 24625.40401291 0 489.89611883 0 8446.29046908 0 142.62704492 0 1040.49515125 0 7798
0.08450000 0.08449610 23779.03550377 0 175.16971479 0 8682.83961651 0 239.62393203 0 886.89100351 0 7371
0.08550000 0.08548940 23320.19836329 0 891.81929529 0 8711.36192524 0 536.02674573 0 1033.08333702 0 8256
0.08650000 0.08650700 22716.42449093 0 881.17214774 0 8176.95616787 0 1097.31942945 0 1207.58096170 0 8037
0.08750000 0.08749060 21912.02009285 0 606.41240737 0 7556.58488061 0 802.78340972 0 1410.73597747 0 8155
0.08850000 0.08849210 21484.62835485 0 323.60640854 0 7460.89784952 0 164.11510569 0 347.76179237 0 8718
0.08950000 0.08949900 21459.93707051 0 55.93295605 0 7139.40182609 0 223.01655203 0 -103.47663304 0 8571
0.09050000 0.09049190 21061.44410028 0 574.23623144 0 7282.01336975 0 -586.17219760 0 -543.86373723 0 8932
0.09150000 0.09150830 20669.81597145 0 421.73488725 0 6504.61437191 0 -398.33795768 0 -1362.54921986 0 9285
0.09250000 0.09250820 20443.94054515 0 326.25823034 0 7461.01964510 0 -222.57808797 0 -990.36741510 0 9204
0.09350000 0.09350330 20120.85010694 0 512.37293822 0 7091.48080427 0 -697.59743118 0 -1807.34665247 0 9349
0.09450000 0.09448040 19547.41440458 0 659.78544192 0 7351.75794379 0 50.47728945 0 -1892.83607240 0 9564
0.09550000 0.09549270 19242.70402557 0 232.68933499 0 7216.89702749 0 1009.32987859 0 -1655.60044083 0 10155
0.09650000 0.09649430 18969.43904905 0 -279.75225164 0 6562.76622186 0 1288.07676313 0 -721.79488984 0 9913
0.09750000 0.09749140 19396.94151030 0 -16.97044153 0 6544.03184827 0 1262.23395700 0 -1398.57856482 0 10476
0.09850000 0.09850240 19045.72736705 0 367.02431586 0 6094.56189458 0 729.76807094 0 -716.66065282 0 10575
0.09950000 0.09950330 18371.09061585 0 844.28691207 0 6170.45160888 0 -391.45650780 0 -266.79763160 0 10882
0.10050000 0.10051200 18169.35285765 0 697.77901730 0 6801.76235307 0 -830.46754347 0 755.86886223 0 10875
0.10150000 0.10150300 17605.66080114 0 331.86304116 0 7733.69778840 0 -235.35001465 0 1000.94812870 0 11118
0.10250000 0.10250800 17612.74708902 0 2.00749000 0 7335.71414512 0 316.25770656 0 195.92700213 0 11575
0.10350000 0.10349800 17363.17688761 0 88.48105137 0 7380.70100086 0 365.47197592 0 1172.59241527 0 11364
0.10450000 0.10450100 17386.98238597 0 507.33945935 0 7255.87161086 0 382.20779488 0 -61.99649329 0 12093
0.10550000 0.10551000 16909.32229329 0 420.52800384 0 6914.88829574 0 1095.86563321 0 694.10964886 0 12067
0.10650000 0.10649700 16640.81841644 0 193.03933982 0 5888.16268763 0 740.20927324 0 -182.44312497 0 12054
0.10750000 0.10749900 16209.44064151 0 276.88784120 0 5940.76730285 0 1140.90342164 0 -262.05756934 0 12807
0.10850000 0.10850100 16025.86149601 0 385.74318819 0 5005.17800032 0 729.02843964 0 -375.27541231 0 12736
0.10950000 0.10950300 15516.20238461 0 455.43572230 0 4728.70204960 0 351.54409853 0 462.01600494 0 12933
0.11050000 0.11050200 15208.83464764 0 201.71782801 0 4380.76531450 0 675.18150958 0 1014.20613044 0 13428
0.11150000 0.11150900 15272.61123860 0 -175.12431826 0 4650.08854339 0 608.65233868 0 1172.35989645 0 13453
0.11250000 0.11250000 15227.87904633 0 188.33470900 0 4371.60850187 0 291.18774871 0 1192.69975714 0 13668
0.11350000 0.11349100 15109.51589402 0 343.89644377 0 4993.00951534 0 -37.35868828 0 1078.69245741 0 13791
0.11450000 0.11448600 14810.00950768 0 257.17024517 0 4922.73346972 0 107.70316087 0 2692.52366010 0 14205
0.11550000 0.11549300 14517.03579298 0 104.84140780 0 4694.74322938 0 456.68025161 0 2365.80149935 0 14776
0.11650000 0.11649800 14673.70918916 0 -130.99113877 0 4924.66005424 0 284.30076267 0 2404.82037201 0 14553
0.11750000 0.11747300 14692.08924836 0 -15.95998116 0 4747.75752061 0 843.91156026 0 1757.27759964 0 14568
0.11850000 0.11849100 14309.20825613 0 371.44770962 0 4326.23411477 0 -126.99402951 0 1262.23395700 0 16015
0.11950000 0.11950300 14312.75140007 0 381.61985443 0 4192.92332395 0 -60.23211833 0 1571.77186963 0 15270
0.12050000 0.12050700 13801.98505619 0 321.10184867 0 4099.22931133 0 -55.37701462 0 2047.73789661 0 15999
0.12150000 0.12150000 13697.68375640 0 198.05510296 0 3915.65016584 0 96.17377048 0 1468.22348793 0 15670
0.12250000 0.12250700 13642.21140905 0 -139.21455441 0 3547.15212355 0 586.04375863 0 1107.30998814 0 16887
0.12350000 0.12352200 13773.08628841 0 -136.20731099 0 4175.92730535 0 311.28512549 0 1590.31801370 0 16407
0.12450000 0.12449800 13775.52219987 0 84.21621329 0 3841.06698586 0 -6.66961416 0 1222.35144300 0 16306
0.12550000 0.12549900 13629.14606577 0 331.64934529 0 4079.97453847 0 -111.53595683 0 1882.35058079 0 17523
0.12650000 0.12650100 13623.05628712 0 439.92007353 0 4474.41503781 0 -82.65213669 0 1855.75485658 0 17154
0.12750000 0.12750600 13394.41277961 0 237.69845474 0 4410.71595313 0 -291.53099078 0 1715.70101995 0 18007
0.12850000 0.12850300 12973.99660625 0 317.47455506 0 4709.76837416 0 225.08154061 0 1524.49304266 0 17496
0.12950000 0.12949900 12951.51978687 0 250.28990253 0 4535.02494387 0 -329.93977834 0 970.80926054 0 18405
0.13050000 0.13049000 12544.16895679 0 259.40131862 0 4536.40898447 0 230.38739866 0 504.35436058 0 18100
0.13150000 0.13148800 12520.36345843 0 45.98092906 0 4241.28723876 0 155.42000901 0 438.77851684 0 19059
0.13250000 0.13249300 12376.42323579 0 1.84102866 0 4312.06153900 0 277.85224070 0 629.67314734 0 18957
0.13350000 0.13349100 12450.71853532 0 91.02093196 0 4019.12104127 0 159.56105850 0 -9.28073408 0 19468
0.13450000 0.13450700 12413.07263094 0 29.34741838 0 4088.87668763 0 191.75052121 0 642.15719358 0 19953
0.13550000 0.13551000 12419.82674908 0 5.73699224 0 3558.52340114 0 227.74443473 0 268.03441028 0 19956
0.13650000 0.13649900 12188.52588361 0 166.02065280 0 3303.27309710 0 224.07838798 0 -41.21540046 0 19723
0.13750000 0.13749600 12015.35472345 0 433.95984108 0 3379.04101583 0 250.76822696 0 -11.67178048 0 20946
0.13850000 0.13851100 11633.24879396 0 265.15228413 0 2954.67202251 0 236.01878307 0 -224.56999920 0 20955
0.13950000 0.13949800 11273.73040710 0 288.89799194 0 3103.07439205 0 103.68113888 0 27.97378576 0 20506
0.14050000 0.14048300 11221.57975720 0 189.82947285 0 3111.63329913 0 68.68229519 0 -392.72650346 0 21447
0.14150000 0.14148400 10925.06289856 0 170.79725372 0 3083.75318524 0 9.14163247 0 96.12615949 0 21771
0.14250000 0.14249400 10908.66478550 0 119.10056914 0 3134.76338568 0 -115.22414823 0 121.31281964 0 22470
0.14350000 0.14350900 10863.01359027 0 66.30085957 0 3152.96628768 0 157.50049885 0 493.99509348 0 22519
0.14450000 0.14449900 10951.12715118 0 23.10805262 0 3012.87923408 0 362.80133117 0 561.87840971 0 22218
0.14550000 0.14550500 10889.95255656 0 9.26057138 0 3006.19154989 0 516.71993294 0 529.21948043 0 23559
0.14650000 0.14650700 10672.25957830 0 250.86566342 0 2907.53713575 0 131.94114424 0 537.97658213 0 23044
0.14750000 0.14750500 10653.11552869 0 290.56880575 0 2915.65314984 0 124.32006306 0 708.60110758 0 23649
0.14850000 0.14849900 10332.48314659 0 183.87034764 0 2849.10847768 0 -186.28189998 0 784.13429303 0 23640
0.14950000 0.14949500 10295.12512265 0 1.67417980 0 2897.05164415 0 -302.41951500 0 483.51403081 0 24457
0.15050000 0.15050000 10222.32458697 0 121.07144296 0 3265.99257943 0 -292.82423832 0 602.01780164 0 24591
0.15150000 0.15149900 10334.21042926 0 121.14673477 0 3482.27937244 0 -242.14731485 0 -100.96310458 0 25020
0.15250000 0.15250500 10061.17797156 0 258.71040555 0 3521.34253440 0 -128.50761631 0 410.43447254 0 25297
0.15350000 0.15350100 9946.20295064 0 246.51313253 0 3561.14754212 0 296.42717281 0 373.07644860 0 25452
0.15450000 0.15450400 9860.89068791 0 12.79661796 0 3399.75733557 0 415.94627583 0 380.63331029 0 26061
0.15550000 0.15549900 9720.49360921 0 112.22354820 0 3370.73677222 0 487.84330981 0 589.55036390 0 26128
0.15650000 0.15649500 9746.62429578 0 286.46097324 0 3096.35349088 0 418.98673623 0 612.30177694 0 26331
0.15750000 0.15749700 9402.66252529 0 103.59300317 0 2755.10443997 0 326.51067934 0 893.50450312 0 27345
0.15850000 0.15849900 9442.98793228 0 22.31527416 0 2752.84568571 0 255.89803505 0 938.54450602 0 26980
0.15950000 0.15949700 9195.18930284 0 127.05271283 0 2583.71592411 0 182.42873094 0 716.32516137 0 27777
0.16050000 0.16050000 9218.39689566 0 169.79188663 0 2674.48684297 0 -4.45012236 0 481.27631396 0 28224
0.16150000 0.16150500 8999.14271960 0 140.03833538 0 2513.51738476 0 -92.75530092 0 609.98987551 0 28075
0.16250000 0.16249700 8906.69987969 0 192.32628210 0 2432.29080989 0 -44.94489163 0 899.63303491 0 28590
0.16350000 0.16349900 8934.28104082 0 89.98057632 0 2598.10994637 0 -54.54847256 0 573.51099417 0 29163
0.16450000 0.16449100 8783.22131331 0 120.43256982 0 2906.80636231 0 -204.08509106 0 635.19159403 0 28996
0.16550000 0.16550500 8734.01590182 0 229.79170759 0 3097.10640897 0 -286.34360660 0 445.03991653 0 30777
0.16650000 0.16650700 8520.07644167 0 270.46921451 0 3434.91196686 0 -372.40103679 0 746.32562547 0 29211
0.16750000 0.16749900 8530.26298051 0 74.62414758 0 3336.04717856 0 -15.93484699 0 707.00669281 0 30922
0.16850000 0.16850800 8429.13943794 0 -83.23930208 0 3467.08814279 0 139.68623545 0 595.67668122 0 30867
0.16950000 0.16949900 8511.76112574 0 7.68851163 0 3198.86107406 0 279.22631621 0 273.88613395 0 30852
0.17050000 0.17049200 8472.22185381 0 67.15774679 0 3224.61530158 0 294.08980504 0 327.64116371 0 31257
0.17150000 0.17149500 8412.84097581 0 -18.87908888 0 2732.87121174 0 521.35812981 0 364.04143155 0 32608
0.17250000 0.17250900 8455.21476289 0 40.61417322 0 2679.40295519 0 214.22955506 0 232.85541987 0 32361
0.17350000 0.17350400 8349.10867415 0 60.15870882 0 2564.78224867 0 359.83726982 0 275.84925714 0 32508
0.17450000 0.17449800 8291.23363232 0 109.32282054 0 2523.92537009 0 191.92767841 0 465.95664534 0 32791
0.17550000 0.17549800 8279.08729200 0 116.39227849 0 2400.56859928 0 55.17605193 0 738.05792053 0 33633
0.17650000 0.17650100 8216.34042725 0 29.42625333 0 2534.73195911 0 286.99355207 0 697.58414439 0 33984
0.17750000 0.17750300 8053.87620519 0 48.37531930 0 2620.29888531 0 117.92247378 0 858.57685448 0 34069
0.17850000 0.17849800 8164.04583713 0 96.85161821 0 2407.54416392 0 78.05701117 0 721.92332880 0 34536
