### header ###
fiducial parameters:
Omega_m = 0.31
Omega_nu = 0
Omega_de = 0.69
Omega_k = 0
H_0 = 100
w_de = -1
zeff = 0
beta = 0
fgrowth = 0
b_1 = 2
gamma = 0.55
Lx = 3500 Ly = 3500 Lz = 3500
nx = 700 ny = 700 nz = 700
xoffset = -685.467585 yoffset = -31.7331281 zoffset = 572.489161
bins = 400 dk = 0.001
kx_ny = 0.628318531 ky_ny = 0.628318531 kz_ny = 0.628318531
############################
A(data) = 8.06180538 (not used)
A(ran) = 8.06037337 (used)
Ngal = 479689
weighted Ngal = 0
Nran = 23820508
weighted Nran = 0
SN(data) = 3482.70451
SN(ran) = 70.2087753
SN(data+ran) = 3552.91328
############################
13 columns: k_central k_mean P_0(k) sigma^{lin}_{P_0(k)} P^img_1(k) sigma^{lin}_{P_1(k)} P_2(k) sigma^{lin}_{P_2(k)} P^img_3(k) sigma^{lin}_{P_3(k)} P_4(k) sigma^{lin}_{P_4(k)} N_modes
### header ###
0.00050000 0 0 0 0 0 0 0 0 0 0 0 0
0.00150000 0.00179520 15451.54000767 0 -21478.64929945 0 -19752.36313698 0 32309.37599055 0 -60025.28730685 0 3
0.00250000 0.00253879 23734.63548125 0 -18758.95415425 0 -15210.16332662 0 22232.56389635 0 18212.31347795 0 6
0.00350000 0.00331552 36363.83989265 0 -19549.73959279 0 -21579.62890180 0 -1756.05964391 0 -27331.14802884 0 7
0.00450000 0.00420575 53385.76772934 0 -30878.72090074 0 -45738.33442360 0 22396.87719666 0 -44.94555597 0 24
0.00550000 0.00557378 80981.98721435 0 -22671.02795917 0 -39255.04534929 0 -15971.38565790 0 -25986.96779586 0 45
0.00650000 0.00659388 108109.29374328 0 -709.09161157 0 -37148.31410605 0 -49604.34735728 0 18920.83154310 0 40
0.00750000 0.00754703 79727.04991940 0 26104.55588543 0 -15056.70090464 0 -32728.68493144 0 18851.29734323 0 57
0.00850000 0.00846663 57611.40977313 0 27856.86201123 0 -499.84349545 0 -7972.98180006 0 60255.03804683 0 75
0.00950000 0.00948925 46766.51050626 0 4414.74627937 0 9973.79518409 0 11402.05865175 0 27681.91927910 0 112
0.01050000 0.01054430 49199.10026892 0 -5899.75541172 0 15956.21657290 0 39217.39944491 0 29069.06013238 0 105
0.01150000 0.01145670 53969.27924729 0 -12415.61926564 0 6672.11650177 0 26026.05310247 0 18254.38831226 0 144
0.01250000 0.01249090 69057.20410791 0 -14212.32541397 0 479.86680701 0 21130.86757690 0 28923.56978426 0 169
0.01350000 0.01339930 69121.75576160 0 -2699.53244171 0 -13704.10570479 0 19860.87192020 0 23541.75558291 0 180
0.01450000 0.01448870 76279.01724763 0 -616.40960944 0 -10056.01826819 0 -11207.85007443 0 9668.66405674 0 267
0.01550000 0.01550050 73853.51377285 0 5126.06564269 0 -7470.22074702 0 -14951.73526536 0 17614.40793774 0 238
0.01650000 0.01653350 66918.80601569 0 7485.81058036 0 -1387.78304812 0 -15301.84217612 0 7347.51724338 0 315
0.01750000 0.01747870 61917.32617186 0 -403.70249905 0 -4688.48736586 0 -11531.49412888 0 1168.48458276 0 297
0.01850000 0.01844180 62823.81740476 0 -3962.41966587 0 -516.53613235 0 -2738.18592765 0 5323.56270048 0 388
0.01950000 0.01947590 63864.39449121 0 -1397.43811536 0 -3823.28483220 0 -8209.04376519 0 -6364.56053528 0 399
0.02050000 0.02045430 70428.29009020 0 -580.10788529 0 2154.04328719 0 -740.04983176 0 -7154.96951478 0 462
0.02150000 0.02154770 70674.42787092 0 -2141.95230849 0 4625.84015203 0 -5509.64419138 0 -4820.58020094 0 571
0.02250000 0.02255340 75486.12806736 0 -2648.06827595 0 10082.74686030 0 -4457.89512918 0 779.65000148 0 510
0.02350000 0.02348930 78054.24308580 0 -3883.52935154 0 13013.63552910 0 -4566.68072053 0 -7070.79770151 0 555
0.02450000 0.02439640 83802.32979215 0 -1115.56994245 0 18588.77252178 0 573.90849063 0 9059.26544337 0 592
0.02550000 0.02547300 82006.50942981 0 1221.23313820 0 21201.39828599 0 -72.02126546 0 9641.27112514 0 837
0.02650000 0.02652900 83814.39862620 0 4738.09138104 0 23559.13913287 0 -377.64046089 0 8962.65940933 0 723
0.02750000 0.02749970 77466.74553092 0 2197.81218720 0 25204.81877067 0 10946.75358288 0 10932.93532150 0 826
0.02850000 0.02848090 71580.47621083 0 6492.84449063 0 21667.87533060 0 2657.80084947 0 653.98354372 0 831
0.02950000 0.02946900 68610.43580148 0 6634.92456270 0 15033.44902252 0 1015.54588174 0 607.14096634 0 996
0.03050000 0.03053250 65222.52585347 0 1497.44335312 0 21111.26956197 0 -3217.25220558 0 -3107.95728729 0 1041
0.03150000 0.03150510 60800.12859765 0 1086.74646649 0 10626.84090189 0 3155.31362054 0 6831.98979982 0 1036
0.03250000 0.03246190 61081.80854104 0 -1106.91249168 0 15829.54917698 0 4557.29138908 0 -4872.83050176 0 1059
0.03350000 0.03345080 61222.53778949 0 2620.13280043 0 11635.24181243 0 5616.08244986 0 -2765.62314855 0 1302
0.03450000 0.03451200 60281.27945665 0 3042.39805204 0 9512.31175797 0 261.84165901 0 -9507.32921180 0 1339
0.03550000 0.03553350 54235.79010567 0 4512.54812449 0 10101.63624645 0 -2012.36181881 0 -1571.11860247 0 1365
0.03650000 0.03647120 52259.38012554 0 4289.52935799 0 13063.23954429 0 -3190.60111974 0 -1346.36148097 0 1308
0.03750000 0.03744890 47376.48488052 0 1787.72649289 0 14330.13495004 0 -471.87148126 0 -1436.05838433 0 1579
0.03850000 0.03847530 47158.47080484 0 1312.19228658 0 12070.93779404 0 712.38230651 0 -4729.72070348 0 1662
0.03950000 0.03950240 44717.02318233 0 1026.77432634 0 10861.06486111 0 4732.80988211 0 -7217.98211533 0 1683
0.04050000 0.04050350 44529.90089289 0 460.53342065 0 8186.79946463 0 2039.87654599 0 -5254.49353826 0 1822
0.04150000 0.04152450 44455.27342362 0 -369.05055130 0 9491.03074967 0 375.14365165 0 -5936.82555521 0 1887
0.04250000 0.04250150 43330.43594529 0 1515.83448465 0 11734.78201255 0 -3126.61415461 0 -3242.92892683 0 1920
0.04350000 0.04349210 43387.12624836 0 4471.61373963 0 13656.82687781 0 251.54439693 0 -1674.16872955 0 2005
0.04450000 0.04448520 40379.99355087 0 1100.27352572 0 15648.62738944 0 14.45647018 0 1194.42703981 0 2151
0.04550000 0.04548030 40738.40470525 0 -554.11338832 0 17365.16990608 0 1086.64681556 0 -3256.60324799 0 2274
0.04650000 0.04648670 41053.30162309 0 2502.12396252 0 20706.35464335 0 -2846.40683043 0 -1446.11205526 0 2311
0.04750000 0.04749250 39192.26526757 0 1395.83262826 0 22231.23521737 0 104.87805719 0 3513.54761773 0 2568
0.04850000 0.04851840 39575.14625980 0 -777.19748153 0 19991.74679956 0 883.20945551 0 2594.92111682 0 2493
0.04950000 0.04949480 39392.01000730 0 -793.58562949 0 19402.69911920 0 4467.64984735 0 4679.92845877 0 2644
0.05050000 0.05050630 41005.13701013 0 32.00820876 0 17020.93132746 0 4673.36257015 0 -1577.76199736 0 2829
0.05150000 0.05149060 38056.57691092 0 853.50351525 0 14346.30054427 0 4088.63309648 0 1551.43200894 0 2784
0.05250000 0.05249300 38805.73040815 0 946.48447015 0 12264.81420161 0 1811.63164218 0 -4821.56563785 0 3055
0.05350000 0.05348950 37028.06865852 0 416.14004152 0 8835.74842225 0 1072.60600046 0 -2467.62259838 0 3009
0.05450000 0.05448610 36293.75207654 0 94.74477624 0 8354.55625796 0 616.58565941 0 -4797.08472768 0 3336
0.05550000 0.05550870 36774.51242017 0 -768.89766685 0 7443.62502281 0 2192.09886760 0 -6655.92876288 0 3349
0.05650000 0.05647670 36604.22006446 0 421.62527123 0 8532.17849270 0 123.11539412 0 -4571.03214418 0 3324
0.05750000 0.05747970 36116.92704919 0 2475.07427299 0 6682.97845241 0 -2409.22715729 0 -8246.33535518 0 3639
0.05850000 0.05849280 33211.10612379 0 2850.96862825 0 9348.77352040 0 -3412.81160653 0 -943.69978046 0 3846
0.05950000 0.05951020 32495.72321725 0 1590.07442256 0 11320.78778758 0 -407.64756838 0 -1619.83683167 0 3787
0.06050000 0.06049470 31576.60953406 0 -42.81845165 0 13267.74538369 0 1.77852539 0 1011.64731617 0 3930
0.06150000 0.06148310 31979.86360395 0 34.51243646 0 13392.75193089 0 478.13066648 0 -4549.40789381 0 4083
0.06250000 0.06249100 32102.76640944 0 510.69326654 0 14024.98167803 0 613.63931377 0 -968.59258111 0 4303
0.06350000 0.06350600 32106.30955338 0 104.01087271 0 11633.24879396 0 689.99960189 0 60.08374918 0 4470
0.06450000 0.06451750 31642.48986673 0 -616.64766443 0 13194.77876313 0 1687.47766399 0 668.58018952 0 4479
0.06550000 0.06550280 32045.96538312 0 610.82694327 0 12992.93028169 0 563.62451534 0 -385.07774147 0 4636
0.06650000 0.06648880 31739.26198564 0 849.25284975 0 13577.99192511 0 1489.42698995 0 119.76047970 0 4653
0.06750000 0.06749660 30486.87132541 0 847.58314317 0 12687.11267020 0 46.74237284 0 2955.96748451 0 5220
0.06850000 0.06852730 30146.17589074 0 739.09207567 0 12589.12259555 0 2297.35238732 0 1546.06193140 0 5029
0.06950000 0.06949320 29554.13868268 0 -45.16512017 0 12904.79457613 0 2570.75023174 0 1945.11959019 0 5040
0.07050000 0.07048030 28905.85406455 0 654.89368882 0 10237.41616570 0 910.70425250 0 1622.39453870 0 5475
0.07150000 0.07148790 28451.99947023 0 1107.79717043 0 9869.85927102 0 1158.80737087 0 2728.32048624 0 5509
0.07250000 0.07249820 27691.10930870 0 234.22949538 0 9111.75933533 0 1715.98890039 0 1474.18039868 0 5916
0.07350000 0.07351270 26698.25394221 0 -135.86406892 0 7660.54293833 0 304.54429414 0 400.57678175 0 5721
0.07450000 0.07449140 27197.61579153 0 -4.60318618 0 7155.53420335 0 1467.02767685 0 -1097.46779861 0 6028
0.07550000 0.07549160 27083.23867615 0 681.62449539 0 6668.28547738 0 56.36854131 0 -1000.27271688 0 6183
0.07650000 0.07648840 27207.69160712 0 588.06335068 0 7510.40221379 0 -1228.88411465 0 -570.86470853 0 6330
0.07750000 0.07749960 26088.61173769 0 399.68767407 0 6455.07679067 0 -266.00928207 0 -599.87087786 0 6583
0.07850000 0.07848650 26073.99626893 0 461.28190980 0 8258.70314201 0 -344.08467330 0 -871.46946950 0 6549
0.07950000 0.07947320 25636.52871535 0 1253.86327944 0 8081.86704233 0 -1364.74154017 0 -1473.30568502 0 6828
0.08050000 0.08048110 24863.34827326 0 641.97117852 0 8918.79085839 0 553.01833539 0 742.78248153 0 7147
0.08150000 0.08149960 24163.79879122 0 468.16557414 0 9102.07105112 0 834.50229863 0 811.32238662 0 7386
0.08250000 0.08250610 23409.77347107 0 570.18929672 0 8524.40572068 0 1623.83394093 0 1080.03553041 0 7227
0.08350000 0.08350160 23759.10531910 0 193.28403820 0 9867.63373373 0 1279.30748187 0 1068.76501098 0 7798
0.08450000 0.08449610 22728.93621797 0 520.53324161 0 9161.07547008 0 843.37123081 0 3179.41807167 0 7371
0.08550000 0.08548940 22917.38718639 0 244.17022860 0 8774.55168298 0 549.45858296 0 3085.39188931 0 8256
0.08650000 0.08650700 22263.89857559 0 579.21877761 0 8736.98328487 0 -663.63750373 0 2286.20255623 0 8037
0.08750000 0.08749060 21684.92671082 0 760.28229090 0 8942.19775306 0 -354.12505744 0 2490.73054028 0 8155
0.08850000 0.08849210 21639.30873257 0 564.95651601 0 8949.21760700 0 -482.36915242 0 849.72674525 0 8718
0.08950000 0.08949900 20598.95309261 0 968.38442141 0 8493.00460749 0 -306.59710316 0 882.50414842 0 8571
0.09050000 0.09049190 20263.12948086 0 487.98725003 0 8229.60507238 0 603.59671516 0 -1112.35896826 0 8932
0.09150000 0.09150830 19326.18935471 0 291.73361432 0 7464.04238977 0 1161.27649930 0 -1342.56367356 0 9285
0.09250000 0.09250820 19152.13240856 0 121.13566245 0 7227.74790582 0 835.15224410 0 -2110.88336505 0 9204
0.09350000 0.09350330 19486.29517158 0 201.68793273 0 7030.54980080 0 287.41540764 0 -1409.88340846 0 9349
0.09450000 0.09448040 19203.50799572 0 312.56508624 0 7610.58460875 0 -452.28896759 0 -404.54842467 0 9564
0.09550000 0.09549270 18844.21105535 0 502.09892802 0 7343.15474740 0 444.35453962 0 397.95264077 0 10155
0.09650000 0.09649430 18841.55369739 0 211.31974809 0 7561.89959652 0 889.51182279 0 1158.89594947 0 9913
0.09750000 0.09749140 18804.12923951 0 -2.86840754 0 7405.28156196 0 1131.53623484 0 1501.92764467 0 10476
0.09850000 0.09850240 18143.00072459 0 362.04509139 0 7546.13260598 0 230.45051092 0 1192.35651507 0 10575
0.09950000 0.09950330 18206.44514580 0 702.96972318 0 7531.27354607 0 -330.16897546 0 557.53805838 0 10882
0.10050000 0.10051200 17152.35982306 0 780.33980731 0 7538.38197860 0 -491.40749117 0 2130.65853718 0 10875
0.10150000 0.10150300 16878.43050705 0 323.59644345 0 7689.74065887 0 34.81437876 0 1175.20548393 0 11118
0.10250000 0.10250800 16993.02906892 0 -265.15117690 0 7771.80873043 0 733.48283591 0 1040.45529088 0 11575
0.10350000 0.10349800 16940.54624928 0 173.69155943 0 7757.80223953 0 379.39985331 0 710.03054472 0 11364
0.10450000 0.10450100 16738.58704459 0 392.15627873 0 7454.52019043 0 680.02011553 0 1303.15726953 0 12093
0.10550000 0.10551000 16290.60078243 0 443.32038448 0 7488.19113020 0 779.04434531 0 2121.34671200 0 12067
0.10650000 0.10649700 16299.45864228 0 -48.64105510 0 6904.82355248 0 857.69549743 0 2005.10944606 0 12054
0.10750000 0.10749900 16394.12701948 0 -316.14255438 0 6067.64507294 0 1699.36934084 0 2538.58512815 0 12807
0.10850000 0.10850100 16470.74750723 0 -271.08926470 0 5181.41619446 0 366.16953238 0 1265.84353489 0 12736
0.10950000 0.10950300 16599.40792162 0 -19.77351128 0 4809.92862447 0 612.05929302 0 1317.36306227 0 12933
0.11050000 0.11050200 16426.56893120 0 213.29394361 0 5178.47095606 0 -310.46798791 0 1101.18809975 0 13428
0.11150000 0.11150900 15907.71979020 0 432.89357620 0 4733.35242602 0 208.53616563 0 633.13657055 0 13453
0.11250000 0.11250000 15577.32161761 0 794.69507644 0 4650.01103711 0 -150.76298920 0 573.10353261 0 13668
0.11350000 0.11349100 15040.42458715 0 545.05290492 0 4870.98142352 0 325.68800561 0 611.96074933 0 13791
0.11450000 0.11448600 14530.76547575 0 33.15076195 0 4292.16457130 0 744.20416804 0 757.34258867 0 14205
0.11550000 0.11549300 14703.49374292 0 66.01275768 0 4438.75107957 0 413.05750629 0 793.75392883 0 14776
0.11650000 0.11649800 14610.37549120 0 195.91482257 0 4218.85470867 0 279.61716927 0 1147.44716561 0 14553
0.11750000 0.11747300 14456.13800647 0 268.10638039 0 4452.86829372 0 118.03873319 0 1165.55041668 0 14568
0.11850000 0.11849100 13916.80506456 0 184.82699650 0 4129.00279277 0 337.73801671 0 1451.50427745 0 16015
0.11950000 0.11950300 14262.81521514 0 -93.03399133 0 4574.18775675 0 145.59332074 0 934.30159115 0 15270
0.12050000 0.12050700 14141.01964213 0 103.40632378 0 4484.90052942 0 -37.86735088 0 1335.44416870 0 15999
0.12150000 0.12150000 14251.63216707 0 232.11800303 0 4548.11243181 0 39.85560825 0 1539.36317489 0 15670
0.12250000 0.12250700 13835.42347714 0 225.28970032 0 4447.67537338 0 -145.27222332 0 1336.97214953 0 16887
0.12350000 0.12352200 13970.83800967 0 70.33483967 0 4657.93882168 0 226.63388055 0 918.07288466 0 16407
0.12450000 0.12449800 13344.36587143 0 304.39481775 0 4253.50001303 0 -197.30772104 0 346.68113347 0 16306
0.12550000 0.12549900 13512.00086919 0 368.99076074 0 4508.18562851 0 31.35195206 0 478.65328021 0 17523
0.12650000 0.12650100 12952.62701935 0 177.45393540 0 4048.69522086 0 -131.30448556 0 592.18446997 0 17154
0.12750000 0.12750600 13109.30041553 0 218.89432550 0 3723.48996861 0 148.84858423 0 -34.48630577 0 18007
0.12850000 0.12850300 13023.04700520 0 -118.94334213 0 3651.11018127 0 166.01290217 0 336.34068932 0 17496
0.12950000 0.12949900 12813.33717313 0 110.95687424 0 3769.81657565 0 333.17954058 0 -69.30544563 0 18405
0.13050000 0.13049000 12868.03445773 0 250.38180282 0 3578.04390980 0 230.32207195 0 -131.64108423 0 18100
0.13150000 0.13148800 12733.28426469 0 193.49884130 0 3933.22194533 0 294.40093737 0 -466.16369782 0 19059
0.13250000 0.13249300 12353.61424666 0 251.86770881 0 3915.36228540 0 -82.68568583 0 464.91584681 0 18957
0.13350000 0.13349100 12253.96332329 0 131.33770253 0 3555.85497086 0 455.67599175 0 916.83832045 0 19468
0.13450000 0.13450700 12241.34087300 0 -60.76735452 0 3814.37161072 0 110.91147771 0 785.16180477 0 19953
0.13550000 0.13551000 12408.86514751 0 105.25717359 0 3505.18801249 0 136.68231372 0 579.00397451 0 19956
0.13650000 0.13649900 12339.77384064 0 169.46857474 0 3857.97442586 0 -301.71199345 0 540.02274775 0 19723
0.13750000 0.13749600 12080.12782364 0 120.84556754 0 3499.20895709 0 -181.87954363 0 303.49906667 0 20946
0.13850000 0.13851100 11957.11429490 0 89.91757479 0 4258.43826990 0 -371.35913102 0 -228.07992617 0 20955
0.13950000 0.13949800 11799.66583598 0 392.36333120 0 3717.90951690 0 236.00881797 0 -202.06549901 0 20506
0.14050000 0.14048300 11543.23079318 0 270.43821200 0 3601.18506867 0 341.69194390 0 -131.23694438 0 21447
0.14150000 0.14148400 11549.65274158 0 -80.10395186 0 3302.21015391 0 441.94630897 0 12.77690922 0 21771
0.14250000 0.14249400 11526.84375245 0 -16.00482408 0 3524.47600232 0 538.87897660 0 -115.66261229 0 22470
0.14350000 0.14350900 11416.56339726 0 279.80539879 0 2899.89723163 0 69.29880224 0 39.17344232 0 22519
0.14450000 0.14449900 11194.34183815 0 300.51618237 0 3050.40334289 0 95.00851902 0 17.23817034 0 22218
0.14550000 0.14550500 10797.81974174 0 324.37150619 0 3264.57532185 0 -284.83223426 0 450.93703673 0 23559
0.14650000 0.14650700 10887.50557277 0 121.44458031 0 3364.11552197 0 114.94291117 0 519.52898175 0 23044
0.14750000 0.14750500 10527.71037779 0 350.06151423 0 3521.06572628 0 353.98886785 0 336.18235507 0 23649
0.14850000 0.14849900 10353.65343164 0 327.63009138 0 3506.85993354 0 264.89429896 0 852.91668204 0 23640
0.14950000 0.14949500 9941.12075355 0 280.80412249 0 3198.70606151 0 378.44541891 0 1125.95578313 0 24457
0.15050000 0.15050000 9919.40792458 0 223.33100606 0 3236.44054449 0 308.50043579 0 1266.85111645 0 24591
0.15150000 0.15149900 9739.58229720 0 53.61806510 0 3388.30855170 0 119.94206583 0 1017.48796751 0 25020
0.15250000 0.15250500 9595.54242363 0 186.98277814 0 3328.03081539 0 -45.68695884 0 1020.24276193 0 25297
0.15350000 0.15350100 9606.63689310 0 131.44953301 0 3333.73306267 0 -304.49114698 0 1151.26711767 0 25452
0.15450000 0.15450400 9507.47315203 0 22.96455529 0 3323.31400502 0 -71.31164016 0 900.43134953 0 26061
0.15550000 0.15549900 9470.91233548 0 116.95475259 0 3584.67623236 0 -341.17708080 0 754.45714082 0 26128
0.15650000 0.15649500 9534.27925041 0 -83.13433644 0 3575.17617767 0 79.09171992 0 495.53636110 0 26331
0.15750000 0.15749700 9418.07520144 0 156.75865308 0 3569.90575105 0 139.58104836 0 608.77634871 0 27345
0.15850000 0.15849900 9402.44107880 0 104.59825954 0 3529.13745107 0 149.84287900 0 273.76323114 0 26980
0.15950000 0.15949700 9271.98694778 0 70.09368443 0 3344.70573657 0 350.84875653 0 664.74695067 0 27777
0.16050000 0.16050000 9228.81595332 0 141.50098948 0 3189.09528357 0 358.35579276 0 126.84566035 0 28224
0.16150000 0.16150500 9134.55725214 0 38.06078439 0 2954.39521438 0 298.97712922 0 189.97230584 0 28075
0.16250000 0.16249700 8983.91827298 0 70.31579527 0 2875.13951333 0 62.10998462 0 -75.19381869 0 28590
0.16350000 0.16349900 9095.09548648 0 15.03798868 0 2921.98651964 0 88.76383854 0 40.43590879 0 29163
0.16450000 0.16449100 8853.39770802 0 253.85076219 0 2728.59729436 0 -25.62124891 0 204.44937054 0 28996
0.16550000 0.16550500 8788.17064251 0 291.98717056 0 2715.62052967 0 112.18479506 0 368.02193232 0 30777
0.16650000 0.16650700 8660.26314620 0 26.20287813 0 2802.27254370 0 330.12579340 0 830.50518937 0 29211
0.16750000 0.16749900 8556.31616081 0 -12.23713339 0 2764.08409540 0 350.67824273 0 584.27993729 0 30922
0.16850000 0.16850800 8597.69343865 0 104.28358407 0 2800.30166988 0 70.49738140 0 912.82017377 0 30867
0.16950000 0.16949900 8523.22098192 0 289.68855593 0 2800.75563520 0 29.60119606 0 849.13659034 0 30852
0.17050000 0.17049200 8239.74732192 0 164.39080658 0 2648.00184200 0 -82.41529966 0 1259.12263373 0 31257
0.17150000 0.17149500 8212.81942796 0 15.66767179 0 2669.30499495 0 19.62658153 0 845.46943636 0 32608
0.17250000 0.17250900 8183.52205649 0 39.01831904 0 2645.80952169 0 -6.38349421 0 503.72988146 0 32361
0.17350000 0.17350400 8277.88040859 0 -0.89546873 0 2644.20403459 0 110.76643025 0 570.82927710 0 32508
0.17450000 0.17449800 8166.31566372 0 -19.24336837 0 2534.79839306 0 -51.65350251 0 522.47422015 0 32791
0.17550000 0.17549800 8188.29422848 0 128.43564620 0 2497.51787539 0 203.09522522 0 459.11173414 0 33633
0.17650000 0.17650100 7968.01032622 0 159.26985635 0 2454.07007280 0 172.89545928 0 521.14000501 0 33984
0.17750000 0.17750300 7910.13528439 0 258.56757256 0 2325.03319937 0 239.73465528 0 562.03563672 0 34069
0.17850000 0.17849800 7723.15693518 0 113.75374349 0 2216.95623681 0 193.62395857 0 679.01031950 0 34536
