### header ###
fiducial parameters:
Omega_m = 0.31
Omega_nu = 0
Omega_de = 0.69
Omega_k = 0
H_0 = 100
w_de = -1
zeff = 0
beta = 0
fgrowth = 0
b_1 = 2
gamma = 0.55
Lx = 3500 Ly = 3500 Lz = 3500
nx = 700 ny = 700 nz = 700
xoffset = -685.467585 yoffset = -31.7331281 zoffset = 572.489161
bins = 400 dk = 0.001
kx_ny = 0.628318531 ky_ny = 0.628318531 kz_ny = 0.628318531
############################
A(data) = 8.04865113 (not used)
A(ran) = 8.04298454 (used)
Ngal = 477970
weighted Ngal = 0
Nran = 23820508
weighted Nran = 0
SN(data) = 3493.30807
SN(ran) = 70.0573122
SN(data+ran) = 3563.36539
############################
13 columns: k_central k_mean P_0(k) sigma^{lin}_{P_0(k)} P^img_1(k) sigma^{lin}_{P_1(k)} P_2(k) sigma^{lin}_{P_2(k)} P^img_3(k) sigma^{lin}_{P_3(k)} P_4(k) sigma^{lin}_{P_4(k)} N_modes
### header ###
0.00050000 0 0 0 0 0 0 0 0 0 0 0 0
0.00150000 0.00179520 2982.81787219 0 -745.83622871 0 13291.44015880 0 477.63684079 0 -11223.57277567 0 3
0.00250000 0.00253879 21885.44651329 0 -19174.38778144 0 376.54651520 0 -11201.98174227 0 10.50719336 0 6
0.00350000 0.00331552 28625.28135365 0 -16854.29283894 0 -7809.03388647 0 16353.04869440 0 -3542.95571244 0 7
0.00450000 0.00420575 44763.30550007 0 -7457.32148861 0 9452.62085488 0 -32056.15192195 0 9209.05185351 0 24
0.00550000 0.00557378 53073.08527647 0 466.02086483 0 13369.83221852 0 -11237.08101195 0 14139.46951666 0 45
0.00650000 0.00659388 57276.25050087 0 -478.27349947 0 20330.11704601 0 6814.13013989 0 19981.78170722 0 40
0.00750000 0.00754703 59196.41307092 0 -10845.57467869 0 -3224.86996505 0 35548.80606275 0 -6936.52361844 0 57
0.00850000 0.00846663 71190.95182371 0 -20835.23650424 0 3529.96787543 0 26636.47036972 0 4551.38983995 0 75
0.00950000 0.00948925 80995.71689712 0 -10755.39059304 0 -5081.93135596 0 18176.77131528 0 13255.12293339 0 112
0.01050000 0.01054430 82035.07602785 0 -3430.33909671 0 -13660.48074500 0 6032.99976859 0 -8596.67478477 0 105
0.01150000 0.01145670 87284.35450112 0 5436.01323134 0 6316.99382786 0 -18568.28872087 0 42584.71486875 0 144
0.01250000 0.01249090 79549.00693632 0 -459.99862736 0 6962.88682383 0 -6031.59358333 0 24351.80686664 0 169
0.01350000 0.01339930 94483.24792846 0 -2823.89679407 0 49807.96741069 0 -9640.91681074 0 53761.78388019 0 180
0.01450000 0.01448870 101459.91979669 0 -1388.50274923 0 56459.77726874 0 -5494.28687686 0 20151.52044669 0 267
0.01550000 0.01550050 100514.12181068 0 4412.83076717 0 66824.69125473 0 -6395.65162337 0 51211.49530471 0 238
0.01650000 0.01653350 101630.32287565 0 13754.48478272 0 88410.18848868 0 -2228.95863692 0 19287.21477134 0 315
0.01750000 0.01747870 93296.84832414 0 9663.02824340 0 98324.56957779 0 -2896.97413788 0 29869.47849352 0 297
0.01850000 0.01844180 88361.47025948 0 7988.60485038 0 82511.96105779 0 30438.92815894 0 4800.33999118 0 388
0.01950000 0.01947590 79950.15726450 0 5597.39236557 0 76057.90292100 0 13886.24544806 0 20931.89789991 0 399
0.02050000 0.02045430 78482.07771679 0 -1316.13403422 0 56374.96326063 0 23295.39635569 0 -14776.46036348 0 462
0.02150000 0.02154770 78349.09909572 0 -475.29947303 0 45573.91040004 0 15835.52823238 0 -8751.93092338 0 571
0.02250000 0.02255340 71085.65401469 0 5968.20452375 0 23394.93655581 0 12930.48236971 0 -22217.50553460 0 510
0.02350000 0.02348930 75500.18991988 0 702.95200746 0 30734.66995485 0 7689.12060868 0 -19007.08495343 0 555
0.02450000 0.02439640 69966.02052903 0 2699.37742916 0 14250.96782758 0 3354.60439495 0 -15078.95627752 0 592
0.02550000 0.02547300 67149.88543465 0 4829.10589105 0 25193.74644585 0 -1534.03738665 0 -16997.45799885 0 837
0.02650000 0.02652900 63292.61963758 0 2554.73965006 0 24097.03267256 0 3982.31663357 0 -6660.14731864 0 723
0.02750000 0.02749970 62150.62005578 0 -771.08777270 0 22166.46211719 0 9586.78421470 0 -8318.12830931 0 826
0.02850000 0.02848090 63940.90425571 0 -1841.85908893 0 17824.22849306 0 10565.99847701 0 -4952.41837256 0 831
0.02950000 0.02946900 65098.51581550 0 -2171.69257295 0 14498.10211754 0 5150.11473220 0 -10075.22875175 0 996
0.03050000 0.03053250 65237.25204548 0 -138.27229957 0 6258.12227680 0 1225.35204303 0 -12481.72104481 0 1041
0.03150000 0.03150510 60862.02289339 0 5820.78759111 0 8795.98770383 0 -5060.53962441 0 1574.97177150 0 1036
0.03250000 0.03246190 55946.46429015 0 6384.66787715 0 9351.90698833 0 -3459.00534567 0 -5232.60355210 0 1059
0.03350000 0.03345080 52369.66048074 0 7403.69821951 0 12552.25175391 0 -2927.25694625 0 -2710.88157465 0 1302
0.03450000 0.03451200 48770.15840544 0 1992.19911532 0 19477.10514198 0 -3229.69749868 0 -3358.14753890 0 1339
0.03550000 0.03553350 48201.37307951 0 -949.47510508 0 18924.81758003 0 2560.85157336 0 5932.21946809 0 1365
0.03650000 0.03647120 50611.04312979 0 -283.63531595 0 23336.36395752 0 4346.12001014 0 7199.35846498 0 1308
0.03750000 0.03744890 51389.87045753 0 -1596.34135840 0 20415.81684011 0 4537.05117931 0 9788.80985334 0 1579
0.03850000 0.03847530 51186.80402036 0 494.14899880 0 21520.83485701 0 6130.93448161 0 13745.18402987 0 1662
0.03950000 0.03950240 50116.55310339 0 1359.10572684 0 19542.87475141 0 4659.82111690 0 9606.12756616 0 1683
0.04050000 0.04050350 49052.94558131 0 1375.73635872 0 17995.96025099 0 2597.41238991 0 11559.72855716 0 1822
0.04150000 0.04152450 48240.79055586 0 1335.08985431 0 17872.39310602 0 70.88148035 0 6620.43088951 0 1887
0.04250000 0.04250150 46521.03706503 0 1415.92889781 0 14576.71562375 0 380.73517568 0 12473.19535470 0 1920
0.04350000 0.04349210 46674.61021027 0 -167.85533702 0 12912.54520351 0 2695.81214057 0 4837.62050884 0 2005
0.04450000 0.04448520 46221.97357168 0 478.36318530 0 15092.13234406 0 1525.78850466 0 1650.31894189 0 2151
0.04550000 0.04548030 44675.61268751 0 2624.81639383 0 11655.72561334 0 1048.33767892 0 997.89216705 0 2274
0.04650000 0.04648670 42785.34539447 0 2320.28317202 0 11386.33595050 0 -496.31253107 0 3358.65686584 0 2311
0.04750000 0.04749250 41363.76961100 0 137.01448347 0 11802.65536368 0 4634.48763772 0 5721.16988472 0 2568
0.04850000 0.04851840 41513.13527281 0 -381.33972461 0 10626.19870705 0 1634.59624065 0 6401.27636438 0 2493
0.04950000 0.04949480 41851.39479602 0 -73.17500171 0 10277.95194686 0 4570.68890211 0 7267.92937258 0 2644
0.05050000 0.05050630 42025.00884917 0 -520.23871777 0 9402.30821090 0 945.20118770 0 5122.44499247 0 2829
0.05150000 0.05149060 41290.24937421 0 2117.55997692 0 8748.04453737 0 -1559.10513004 0 2245.60034112 0 2784
0.05250000 0.05249300 38696.66800869 0 3185.54106730 0 11860.45289924 0 -2119.53085073 0 4070.98381072 0 3055
0.05350000 0.05348950 36086.47815594 0 3119.98183205 0 12629.09368815 0 -3128.14213544 0 4392.72342530 0 3009
0.05450000 0.05448610 33880.64960557 0 2030.93010754 0 11044.30076453 0 1641.28392484 0 4506.18153772 0 3336
0.05550000 0.05550870 33931.25012999 0 -369.67835212 0 13379.13297136 0 687.40203448 0 4280.93723393 0 3349
0.05650000 0.05647670 34999.50802849 0 -2066.72693367 0 10566.43029768 0 3376.50545345 0 1000.81193910 0 3324
0.05750000 0.05747970 35847.98027935 0 -420.78156008 0 11052.36141700 0 930.33769886 0 96.90797634 0 3639
0.05850000 0.05849280 35250.62835538 0 423.70576107 0 9828.34912527 0 -611.72269435 0 1900.05522818 0 3846
0.05950000 0.05951020 35396.56159649 0 562.15964676 0 10997.75271099 0 -663.36955346 0 -192.96072631 0 3787
0.06050000 0.06049470 34561.92975166 0 492.55790572 0 10079.27015031 0 439.32438246 0 -922.10210366 0 3930
0.06150000 0.06148310 33875.66705940 0 1758.28518120 0 11652.29319265 0 -744.56734029 0 -3222.69978939 0 4083
0.06250000 0.06249100 32021.49554527 0 1990.63791752 0 10513.80353782 0 -1842.64522399 0 -70.93927788 0 4303
0.06350000 0.06350600 31045.69155900 0 1956.38014453 0 11956.11778567 0 1192.78833574 0 320.90586852 0 4470
0.06450000 0.06451750 29481.72567837 0 -47.12636106 0 11499.16294041 0 842.88626298 0 1975.02593953 0 4479
0.06550000 0.06550280 30113.18036278 0 375.92757224 0 12211.11342624 0 3700.79170273 0 2477.51018445 0 4636
0.06650000 0.06648880 30651.40607221 0 -346.95240542 0 12773.69825028 0 2645.12303755 0 5302.45884938 0 4653
0.06750000 0.06749660 29721.44151069 0 709.99732774 0 11376.26013492 0 2597.75563198 0 6997.94180421 0 5220
0.06850000 0.06852730 29856.74531998 0 420.08511085 0 11358.65513846 0 1339.00945729 0 7311.93079141 0 5029
0.06950000 0.06949320 29228.61233301 0 65.42182770 0 11476.46467453 0 966.94723364 0 7414.83697828 0 5040
0.07050000 0.07048030 28172.09109882 0 1308.33911755 0 9062.56499616 0 206.63836916 0 6068.49764195 0 5475
0.07150000 0.07148790 27974.67154730 0 929.98559894 0 9833.36488841 0 576.29346939 0 4774.08750903 0 5509
0.07250000 0.07249820 26713.20158071 0 -36.23030766 0 8767.69791392 0 53.42618171 0 3944.28319782 0 5916
0.07350000 0.07351270 26396.86526065 0 228.31023053 0 7982.54828870 0 1629.86835795 0 1984.31562005 0 5721
0.07450000 0.07449140 26589.41298924 0 189.92690931 0 7194.22090627 0 373.32446868 0 1221.34386145 0 6028
0.07550000 0.07549160 26125.48257934 0 531.72957646 0 6815.19308307 0 -9.07704760 0 142.55396758 0 6183
0.07650000 0.07648840 25821.43653982 0 255.85042405 0 7294.31472263 0 -266.11114746 0 972.65944602 0 6330
0.07750000 0.07749960 25761.42453930 0 180.71916399 0 7117.14645320 0 -175.76651310 0 1189.45556597 0 6583
0.07850000 0.07848650 25208.25119136 0 726.64235364 0 8088.42185862 0 459.31435768 0 1957.88598071 0 6549
0.07950000 0.07947320 24951.48397882 0 398.75538432 0 6797.01232572 0 245.71149621 0 -299.09449586 0 6828
0.08050000 0.08048110 24697.26340098 0 620.95812048 0 7628.08995428 0 229.47946803 0 998.18669089 0 7147
0.08150000 0.08149960 23840.26546002 0 535.40005214 0 8160.35875297 0 -462.43786052 0 -1002.76066827 0 7386
0.08250000 0.08250610 23826.31433075 0 613.26617643 0 7974.62050413 0 -484.59579694 0 -289.70294995 0 7227
0.08350000 0.08350160 22924.58419752 0 650.86557705 0 8060.27600893 0 -1027.26704479 0 -1011.75250326 0 7798
0.08450000 0.08449610 22866.56521547 0 527.21206794 0 7892.02096099 0 566.85763418 0 -1696.77841683 0 7371
0.08550000 0.08548940 22564.62291766 0 206.33720193 0 8527.11844026 0 492.43278845 0 -1577.52947854 0 8256
0.08650000 0.08650700 22307.52353537 0 296.59325768 0 7730.44252491 0 1062.05518214 0 -1566.31321350 0 8037
0.08750000 0.08749060 21315.88612462 0 791.04010202 0 7498.53268158 0 729.68170680 0 -2094.23058852 0 8155
0.08850000 0.08849210 20743.66837799 0 884.35211943 0 6051.36875546 0 731.94710446 0 -2337.11310575 0 8718
0.08950000 0.08949900 19911.14027488 0 170.42522361 0 6049.66361744 0 748.44708291 0 -2105.31398567 0 8571
0.09050000 0.09049190 19915.12631181 0 210.94218182 0 5823.58888929 0 702.08615166 0 -2402.99343842 0 8932
0.09150000 0.09150830 19642.96856777 0 552.02404062 0 5132.74225456 0 -143.88707548 0 -2576.49676832 0 9285
0.09250000 0.09250820 19099.20669592 0 144.46726530 0 5906.80848263 0 -548.27495144 0 -1562.83650350 0 9204
0.09350000 0.09350330 19323.08910376 0 156.65568046 0 6297.34045131 0 -177.13948138 0 -1342.94013260 0 9349
0.09450000 0.09448040 19200.96136101 0 145.83801912 0 7305.36490280 0 -463.34579115 0 115.44227302 0 9564
0.09550000 0.09549270 19077.94783227 0 306.66353711 0 6973.64912355 0 73.04279815 0 -606.18985364 0 10155
0.09650000 0.09649430 18905.66245809 0 391.55505149 0 7475.26972714 0 992.86533158 0 845.83703755 0 9913
0.09750000 0.09749140 18268.22871828 0 483.71333265 0 7100.70405085 0 508.02262179 0 380.12951951 0 10476
0.09850000 0.09850240 18288.49107270 0 363.27633390 0 7999.52216265 0 609.30117691 0 904.09407458 0 10575
0.09950000 0.09950330 17706.30823374 0 359.60253653 0 6882.47960100 0 898.41175748 0 520.38044352 0 10882
0.10050000 0.10051200 17470.02482211 0 652.30055034 0 7096.54085672 0 247.78866435 0 1043.23001548 0 10875
0.10150000 0.10150300 16826.39058040 0 205.26761535 0 6964.27086443 0 -694.74962923 0 794.61535570 0 11118
0.10250000 0.10250800 16682.89325075 0 271.16344927 0 7236.79399519 0 572.57981165 0 -36.20506275 0 11575
0.10350000 0.10349800 16734.82245415 0 -129.71782141 0 7009.14699692 0 -506.83899027 0 258.86098917 0 11364
0.10450000 0.10450100 17054.81264141 0 39.76824760 0 7093.03092975 0 217.00095796 0 -138.26233448 0 12093
0.10550000 0.10551000 16705.70223988 0 308.46832605 0 6642.58661148 0 -70.37923969 0 -530.99658856 0 12067
0.10650000 0.10649700 16369.65718163 0 490.93470290 0 5928.00091233 0 510.82613444 0 -1144.07010654 0 12054
0.10750000 0.10749900 15877.16017370 0 336.11038496 0 5612.10748525 0 813.00427276 0 -292.69912105 0 12807
0.10850000 0.10850100 15687.15907981 0 169.32020559 0 4985.18138170 0 819.44061518 0 -1140.19479285 0 12736
0.10950000 0.10950300 15499.81534388 0 82.42803284 0 4691.03400057 0 751.01807673 0 -833.91546541 0 12933
0.11050000 0.11050200 15406.80781540 0 145.34640789 0 4275.04675713 0 282.84585919 0 -891.38415292 0 13428
0.11150000 0.11150900 15127.23161373 0 389.65946948 0 4880.97973283 0 -175.20403900 0 -460.04956005 0 13453
0.11250000 0.11250000 14944.09536123 0 257.97188148 0 4787.50716671 0 -29.25983629 0 -488.74570428 0 13668
0.11350000 0.11349100 14686.88525569 0 297.55765718 0 5310.33127232 0 -198.45149219 0 -407.16592225 0 13791
0.11450000 0.11448600 14764.28080618 0 -54.31683952 0 5384.98088625 0 86.76417668 0 653.21290991 0 14205
0.11550000 0.11549300 15122.80268380 0 -361.33424813 0 5750.21259272 0 435.61404641 0 -251.59311516 0 14776
0.11650000 0.11649800 15171.29946651 0 -15.65449572 0 5857.19339511 0 -136.34682228 0 671.31283929 0 14553
0.11750000 0.11747300 15411.45819183 0 277.79245014 0 5776.06647117 0 -9.31425001 0 401.27101652 0 14568
0.11850000 0.11849100 15021.93380471 0 325.29604531 0 5961.19574214 0 -128.80324738 0 1353.07130981 0 16015
0.11950000 0.11950300 14829.16462961 0 314.01223909 0 6277.77565335 0 -61.71647420 0 1246.52232808 0 15270
0.12050000 0.12050700 14716.78053270 0 215.76196481 0 5916.35282662 0 932.12034316 0 1278.24453869 0 15999
0.12150000 0.12150000 14526.11509933 0 4.22131276 0 5772.74477372 0 491.06646357 0 1183.56508916 0 15670
0.12250000 0.12250700 14263.70100112 0 196.14069800 0 5385.29091134 0 453.31537210 0 1149.50661802 0 16887
0.12350000 0.12352200 14154.52787841 0 352.85174009 0 4833.05871101 0 222.92022281 0 965.99722818 0 16407
0.12450000 0.12449800 13643.09719504 0 288.99764286 0 4670.39518710 0 391.58051784 0 451.18616404 0 16306
0.12550000 0.12549900 13517.42630835 0 156.91034393 0 3940.34145019 0 274.02121631 0 244.05729089 0 17523
0.12650000 0.12650100 13316.13144314 0 59.72434152 0 3943.51920741 0 384.51526737 0 -209.66222107 0 17154
0.12750000 0.12750600 13188.02464499 0 237.55894345 0 3865.72505323 0 209.81391192 0 195.39995947 0 18007
0.12850000 0.12850300 13127.45902824 0 132.26002719 0 3753.58454747 0 220.44555821 0 -78.26029905 0 17496
0.12950000 0.12949900 13029.24750709 0 122.04470031 0 3860.04495060 0 253.46765975 0 344.16993020 0 18405
0.13050000 0.13049000 13040.09838542 0 300.72212761 0 4170.85618059 0 -177.20259363 0 82.34797993 0 18100
0.13150000 0.13148800 12642.71264767 0 291.51327506 0 4206.66407905 0 -233.38356976 0 503.94357733 0 19059
0.13250000 0.13249300 12598.97696464 0 389.81891096 0 4784.17439694 0 -494.40144780 0 767.67196049 0 18957
0.13350000 0.13349100 12175.23909383 0 334.85921226 0 4817.50209464 0 -394.51911285 0 559.46575013 0 19468
0.13450000 0.13450700 12303.23516874 0 134.33719533 0 5129.05517039 0 -221.01689017 0 385.37780148 0 19953
0.13550000 0.13551000 11976.49086334 0 26.40815903 0 5048.69223686 0 246.03259363 0 345.66247958 0 19956
0.13650000 0.13649900 11917.25392556 0 123.19843656 0 4854.81582928 0 475.57406668 0 -133.47023229 0 19723
0.13750000 0.13749600 11880.82597690 0 65.76086229 0 4730.08609020 0 357.27624109 0 -299.58832155 0 20946
0.13850000 0.13851100 11817.38155569 0 95.00331503 0 4227.29182019 0 535.72668572 0 -826.88343192 0 20955
0.13950000 0.13949800 11482.44372993 0 264.41486730 0 4114.24338379 0 119.87120295 0 -767.82032964 0 20506
0.14050000 0.14048300 11483.77240891 0 160.78787209 0 3870.22041711 0 -72.57764978 0 -859.46596217 0 21447
0.14150000 0.14148400 11147.39518092 0 81.48766029 0 4119.66882295 0 -104.71396534 0 -602.59799147 0 21771
0.14250000 0.14249400 11205.74633271 0 314.10746108 0 3909.13963885 0 172.95082090 0 -872.78264722 0 22470
0.14350000 0.14350900 10904.68982089 0 150.03553746 0 4067.46281143 0 319.56943892 0 -266.86738724 0 22519
0.14450000 0.14449900 10788.97295421 0 143.32792308 0 3595.13957932 0 999.07358411 0 6.33449917 0 22218
0.14550000 0.14550500 10675.90237316 0 -11.70665831 0 3094.20545987 0 988.30574822 0 -49.26188035 0 23559
0.14650000 0.14650700 10742.03736931 0 111.97109919 0 2906.04237190 0 314.59353614 0 -163.02226723 0 23044
0.14750000 0.14750500 10480.77479289 0 131.08414630 0 2780.30505126 0 7.71260501 0 57.86219793 0 23649
0.14850000 0.14849900 10392.84946150 0 281.46292582 0 2774.72459955 0 -306.40112301 0 553.93069496 0 23640
0.14950000 0.14949500 10205.80467834 0 79.81429984 0 2480.76544794 0 -44.38629284 0 615.15068611 0 24457
0.15050000 0.15050000 10150.00016125 0 109.40829889 0 2923.55878977 0 403.41461860 0 275.62448894 0 24591
0.15150000 0.15149900 10316.27326305 0 74.23340524 0 2745.31650483 0 108.39495972 0 356.01288882 0 25020
0.15250000 0.15250500 9979.71887787 0 209.86705908 0 2963.27521889 0 106.83165818 0 553.59741798 0 25297
0.15350000 0.15350100 9856.63891518 0 207.82421515 0 2989.76021986 0 -252.35267664 0 728.60547683 0 25452
0.15450000 0.15450400 9770.07547975 0 261.44194808 0 3226.19864403 0 -119.38623512 0 715.18471192 0 26061
0.15550000 0.15549900 9524.48024295 0 255.48282287 0 3483.17623075 0 -197.48155654 0 794.74158021 0 26128
0.15650000 0.15649500 9327.11605306 0 166.20002446 0 3466.52345422 0 -142.31812706 0 614.57049629 0 26331
0.15750000 0.15749700 9232.40338656 0 73.29070750 0 3380.59114130 0 252.97383406 0 492.26006018 0 27345
0.15850000 0.15849900 9323.63934306 0 21.23893347 0 3338.61595792 0 165.40503154 0 219.31175215 0 26980
0.15950000 0.15949700 9075.28709738 0 120.28420067 0 3097.32785547 0 127.10364552 0 -135.51861239 0 27777
0.16050000 0.16050000 9004.39100157 0 236.25794528 0 3006.05868199 0 -121.14562754 0 117.29245850 0 28224
0.16150000 0.16150500 8973.00096071 0 127.02946095 0 2967.87023369 0 -37.90411100 0 -6.04143688 0 28075
0.16250000 0.16249700 8891.92939838 0 -35.56707540 0 2947.64109625 0 354.84254409 0 451.85825415 0 28590
0.16350000 0.16349900 8910.26516828 0 -36.83529948 0 2896.86341463 0 275.63445404 0 149.57160705 0 29163
0.16450000 0.16449100 8978.57034009 0 -88.98140973 0 2895.02540871 0 303.67179494 0 92.66018965 0 28996
0.16550000 0.16550500 8988.90081915 0 83.53559749 0 2899.90830395 0 214.99133100 0 154.95718584 0 30777
0.16650000 0.16650700 8902.35952836 0 118.92673364 0 2634.99186034 0 121.03158259 0 544.26787709 0 29211
0.16750000 0.16749900 8737.21580369 0 181.90279552 0 2719.51798801 0 87.89742913 0 723.81226742 0 30922
0.16850000 0.16850800 8670.62684223 0 199.57422593 0 2690.60814791 0 162.67791793 0 825.23476276 0 30867
0.16950000 0.16949900 8543.37261309 0 105.74590601 0 2765.80030575 0 168.44438470 0 758.84510314 0 30852
0.17050000 0.17049200 8392.82221253 0 227.16645937 0 2703.90601001 0 36.91114491 0 723.52549420 0 31257
0.17150000 0.17149500 8221.45584132 0 196.78289284 0 2646.29670398 0 -30.07653097 0 881.73019291 0 32608
0.17250000 0.17250900 8131.55963611 0 164.87245271 0 2698.21483506 0 -122.79097501 0 848.09247011 0 32361
0.17350000 0.17350400 8085.33268000 0 4.72182614 0 2839.36483184 0 -11.76855260 0 845.70306242 0 32508
0.17450000 0.17449800 8098.38695096 0 20.78961853 0 2640.32872090 0 79.06282115 0 637.04288674 0 32791
0.17550000 0.17549800 8020.23848239 0 48.39812829 0 2756.64349312 0 138.67865389 0 765.87713664 0 33633
0.17650000 0.17650100 8001.64804902 0 119.14264398 0 2629.56642118 0 200.59287981 0 502.38902293 0 33984
0.17750000 0.17750300 7823.14002829 0 230.20027637 0 2621.86008311 0 40.60121860 0 425.02115326 0 34069
0.17850000 0.17849800 7705.41907082 0 206.69262355 0 2536.79141152 0 112.95653610 0 457.92920985 0 34536
