### header ###
fiducial parameters:
Omega_m = 0.31
Omega_nu = 0
Omega_de = 0.69
Omega_k = 0
H_0 = 100
w_de = -1
zeff = 0
beta = 0
fgrowth = 0
b_1 = 2
gamma = 0.55
Lx = 3500 Ly = 3500 Lz = 3500
nx = 700 ny = 700 nz = 700
xoffset = -685.467585 yoffset = -31.7331281 zoffset = 572.489161
bins = 400 dk = 0.001
kx_ny = 0.628318531 ky_ny = 0.628318531 kz_ny = 0.628318531
############################
A(data) = 8.03810414 (not used)
A(ran) = 8.03632422 (used)
Ngal = 477018
weighted Ngal = 0
Nran = 23820508
weighted Nran = 0
SN(data) = 3488.57732
SN(ran) = 69.9992984
SN(data+ran) = 3558.57661
############################
13 columns: k_central k_mean P_0(k) sigma^{lin}_{P_0(k)} P^img_1(k) sigma^{lin}_{P_1(k)} P_2(k) sigma^{lin}_{P_2(k)} P^img_3(k) sigma^{lin}_{P_3(k)} P_4(k) sigma^{lin}_{P_4(k)} N_modes
### header ###
0.00050000 0 0 0 0 0 0 0 0 0 0 0 0
0.00150000 0.00179520 14931.91580393 0 -20408.28765923 0 -9394.31399238 0 14135.59420297 0 -28310.27371256 0 3
0.00250000 0.00253879 23962.83609576 0 -10392.08547109 0 2733.79021470 0 3618.95615000 0 24833.89588925 0 6
0.00350000 0.00331552 32831.54682900 0 -796.73459867 0 20752.63696109 0 -28210.62278919 0 10478.74855744 0 7
0.00450000 0.00420575 33261.26375521 0 7689.27562123 0 19468.24728213 0 -16959.36920147 0 4913.26663200 0 24
0.00550000 0.00557378 29509.29576717 0 2657.02578673 0 25515.06531209 0 7426.62900421 0 5987.89111727 0 45
0.00650000 0.00659388 33767.71189242 0 -10809.61176767 0 27174.58535591 0 10949.74311058 0 -8970.57612157 0 40
0.00750000 0.00754703 48765.39730577 0 -10466.32540900 0 25948.76827523 0 25328.16446915 0 6918.06605296 0 57
0.00850000 0.00846663 56908.31714715 0 -10886.83016096 0 26677.10580181 0 12400.22873415 0 -4807.68094253 0 75
0.00950000 0.00948925 62076.87837249 0 -234.30035825 0 28540.24589904 0 7785.44983461 0 4569.83633310 0 112
0.01050000 0.01054430 61084.57662225 0 7689.51921238 0 26784.72879904 0 -5905.04798298 0 -414.58548711 0 105
0.01150000 0.01145670 59523.48954606 0 268.14734799 0 34990.98233838 0 -1239.31424463 0 3546.58743499 0 144
0.01250000 0.01249090 63570.09209754 0 -4476.85094927 0 36782.59521729 0 -3798.99215155 0 7431.16865738 0 169
0.01350000 0.01339930 71786.42145246 0 -358.11995224 0 43572.14479608 0 13481.88414568 0 9206.80417158 0 180
0.01450000 0.01448870 78521.38446990 0 -6111.50255155 0 37773.78973505 0 3946.51980743 0 -5877.71041300 0 267
0.01550000 0.01550050 85390.87623388 0 -655.16717524 0 32622.16916668 0 14168.36828444 0 11665.02636619 0 238
0.01650000 0.01653350 84556.13366580 0 -3640.85720849 0 13216.70196627 0 14913.20357499 0 -1651.20472788 0 315
0.01750000 0.01747870 81246.83722401 0 -1995.33258324 0 7569.70558552 0 13781.16908553 0 -3228.75635107 0 297
0.01850000 0.01844180 91460.50325297 0 -3285.03697812 0 6316.05268025 0 13997.19014274 0 -6384.15855021 0 388
0.01950000 0.01947590 85097.45962619 0 -1406.20739662 0 -1262.12323375 0 8723.44183162 0 -4857.91608023 0 399
0.02050000 0.02045430 80868.38516171 0 9063.22933565 0 -8760.39017954 0 -1139.99549100 0 -5683.18073827 0 462
0.02150000 0.02154770 72867.63397100 0 12525.01383485 0 1583.30923209 0 -4227.08144601 0 4004.23983671 0 571
0.02250000 0.02255340 66224.57124956 0 6121.22405274 0 7659.15889773 0 -13710.97054618 0 11804.98055190 0 510
0.02350000 0.02348930 62683.42032606 0 2466.33820870 0 17288.21724859 0 4606.35286035 0 22065.81468458 0 555
0.02450000 0.02439640 62731.14204603 0 -1877.03586488 0 17105.96678207 0 3952.24419937 0 28198.55395514 0 592
0.02550000 0.02547300 71777.00997636 0 -6678.13984647 0 24916.38470914 0 6018.17392565 0 12357.60028359 0 837
0.02650000 0.02652900 71374.97386220 0 -4768.65099754 0 21153.01222653 0 4577.65339442 0 21766.52974474 0 723
0.02750000 0.02749970 78308.57438688 0 5734.44560218 0 36566.46343683 0 -8375.09542050 0 11535.14799607 0 826
0.02850000 0.02848090 73479.49064048 0 3046.66089710 0 21515.18797135 0 -5693.02403503 0 14335.11749621 0 831
0.02950000 0.02946900 72702.65633120 0 900.33723477 0 30352.45330211 0 -2991.27712836 0 -1280.86867967 0 996
0.03050000 0.03053250 71470.63874863 0 940.57627762 0 27295.93803592 0 -7206.86550121 0 -10177.48167145 0 1041
0.03150000 0.03150510 71121.30690060 0 2918.76447312 0 31717.00661276 0 -5019.51666096 0 -9340.18139634 0 1036
0.03250000 0.03246190 68868.86386275 0 4426.94798132 0 28694.70483026 0 3435.56523403 0 -19930.29539681 0 1059
0.03350000 0.03345080 62892.79798838 0 5379.46686849 0 25479.08025643 0 1668.62149482 0 -9011.28905993 0 1302
0.03450000 0.03451200 57909.69820375 0 5328.20200458 0 24124.71348461 0 7928.74786241 0 -16559.43682902 0 1339
0.03550000 0.03553350 54975.86429655 0 2265.16513907 0 19819.01853238 0 3586.84640803 0 -6030.72994200 0 1365
0.03650000 0.03647120 49271.62399648 0 1374.11979929 0 19254.66213638 0 7826.19598994 0 -10026.02334026 0 1308
0.03750000 0.03744890 50916.75001803 0 -177.35317725 0 16760.06735474 0 4974.08691223 0 -6352.87923260 0 1579
0.03850000 0.03847530 50165.49277909 0 -535.35576284 0 12636.62286902 0 5419.47117806 0 -1389.28888429 0 1662
0.03950000 0.03950240 51110.40497911 0 735.83902664 0 9677.95373726 0 4572.69299290 0 1911.82510946 0 1683
0.04050000 0.04050350 49293.10430663 0 871.34656670 0 9485.80461236 0 3969.58346003 0 4805.04572922 0 1822
0.04150000 0.04152450 48984.40789068 0 52.71877088 0 6744.46307213 0 3375.70824606 0 3704.84417362 0 1887
0.04250000 0.04250150 48542.06851418 0 831.69214259 0 11879.60802117 0 3157.93776153 0 9715.51106304 0 1920
0.04350000 0.04349210 46905.13601299 0 2642.90857259 0 12404.65766407 0 601.69227529 0 7726.11324590 0 2005
0.04450000 0.04448520 46804.59930364 0 2229.25758969 0 11007.81745425 0 1925.33334574 0 12152.43010471 0 2151
0.04550000 0.04548030 43315.04541379 0 2019.01628603 0 13318.67807785 0 -2324.45743848 0 8669.77427322 0 2274
0.04650000 0.04648670 42078.26673155 0 2822.28023465 0 11074.20711387 0 -930.64661673 0 8530.36263143 0 2311
0.04750000 0.04749250 40719.58175305 0 1931.57813694 0 14367.11651493 0 -636.50477176 0 6437.03997354 0 2568
0.04850000 0.04851840 39306.86382944 0 1240.39933246 0 12700.06729024 0 1198.49058302 0 6832.73164559 0 2493
0.04950000 0.04949480 38898.51649013 0 -1166.39191337 0 12495.45072759 0 4449.92305531 0 4098.94143089 0 2644
0.05050000 0.05050630 38399.37608731 0 -1068.79601349 0 10976.95888498 0 2932.80418099 0 -1585.74514355 0 2829
0.05150000 0.05149060 39062.38689745 0 2063.90349085 0 11050.81129152 0 -613.16652550 0 687.01007418 0 2784
0.05250000 0.05249300 36600.34475077 0 2576.06494766 0 11517.54299960 0 -2503.07618245 0 5438.68166162 0 3055
0.05350000 0.05348950 35163.15698931 0 1200.56110776 0 13689.60095928 0 764.26943507 0 6094.67261783 0 3009
0.05450000 0.05448610 35377.62792105 0 731.43334859 0 12451.27215156 0 -522.89829019 0 2060.80323990 0 3336
0.05550000 0.05550870 34067.10755551 0 384.29714257 0 14174.90095608 0 224.13817854 0 2115.53374147 0 3349
0.05650000 0.05647670 34573.66641597 0 41.95647116 0 15436.81381566 0 -661.95340312 0 2235.51345321 0 3324
0.05750000 0.05747970 33820.19471206 0 244.43707163 0 13889.67786875 0 396.63946305 0 974.56388589 0 3639
0.05850000 0.05849280 33352.27826522 0 1535.33284865 0 15162.66305315 0 1120.38640375 0 2569.22225092 0 3846
0.05950000 0.05951020 32001.01174436 0 2661.42149968 0 14921.17564886 0 2008.12111841 0 3773.58116609 0 3787
0.06050000 0.06049470 30072.43420744 0 854.54874271 0 11940.61653092 0 3120.03719367 0 4506.74622628 0 3930
0.06150000 0.06148310 30433.39199653 0 -984.13812516 0 12329.80874830 0 3348.00528936 0 5555.32860358 0 4083
0.06250000 0.06249100 30552.08731859 0 256.91447446 0 13053.60662169 0 3356.89636619 0 5402.04333879 0 4303
0.06350000 0.06350600 30432.83838029 0 -90.77878021 0 11281.48103447 0 1310.49822089 0 6176.34208569 0 4470
0.06450000 0.06451750 31068.16837838 0 -825.83377553 0 10282.67982955 0 -703.74035699 0 6555.89030815 0 4479
0.06550000 0.06550280 31221.40935387 0 -197.67200052 0 9897.06397310 0 -72.44212453 0 5774.16203130 0 4636
0.06650000 0.06648880 33052.66115563 0 -491.10521670 0 11116.72484117 0 85.79922357 0 5171.30716190 0 4653
0.06750000 0.06749660 31726.97170509 0 169.75756242 0 10658.02056858 0 300.74648672 0 2310.89384057 0 5220
0.06850000 0.06852730 31689.76869370 0 1254.68263147 0 10577.12616346 0 -1038.69479124 0 1451.64821767 0 5029
0.06950000 0.06949320 30586.74369527 0 1172.27131785 0 10076.36920121 0 7.20321163 0 1084.76230588 0 5040
0.07050000 0.07048030 29417.28474792 0 1232.63763276 0 11464.61728697 0 157.21926180 0 1265.58887142 0 5475
0.07150000 0.07148790 28986.57131248 0 550.43516201 0 11061.09748128 0 -138.03535182 0 1106.94127972 0 5509
0.07250000 0.07249820 28255.24425821 0 346.69774195 0 10784.48866266 0 271.45132972 0 242.66217796 0 5916
0.07350000 0.07351270 28064.57882483 0 675.92889151 0 10581.96476940 0 1031.96171051 0 184.42950004 0 5721
0.07450000 0.07449140 27931.60020376 0 565.86776834 0 10411.24059302 0 -415.25204107 0 -1414.55592953 0 6028
0.07550000 0.07549160 26522.64687059 0 627.13315603 0 10083.10117470 0 120.36170694 0 -71.39457188 0 6183
0.07650000 0.07648840 26350.47221966 0 620.23731213 0 9963.73044083 0 1403.07392869 0 75.23766510 0 6330
0.07750000 0.07749960 25837.49141081 0 246.74454412 0 9218.00936429 0 1719.13344064 0 527.22424749 0 6583
0.07850000 0.07848650 26085.29004025 0 92.14909113 0 8912.49070557 0 2535.42951557 0 1252.74497463 0 6549
0.07950000 0.07947320 25438.44482434 0 223.04976901 0 8161.55456405 0 722.08941368 0 1180.39840427 0 6828
0.08050000 0.08048110 25073.94389131 0 1074.61009125 0 8279.91771636 0 907.47666981 0 2533.45864175 0 7147
0.08150000 0.08149960 24616.65687630 0 168.77987614 0 8721.26058363 0 164.64214836 0 3985.57189707 0 7386
0.08250000 0.08250610 23748.91878027 0 810.74219680 0 8334.38248214 0 552.74152727 0 3307.67988237 0 7227
0.08350000 0.08350160 23903.04554174 0 449.07577892 0 8507.48720836 0 117.24595474 0 2980.23802051 0 7798
0.08450000 0.08449610 23419.73856341 0 14.98749887 0 8350.00553246 0 -236.87467378 0 2863.90110364 0 7371
0.08550000 0.08548940 23233.05916697 0 418.74203785 0 8541.34637765 0 -579.41254329 0 1527.95868032 0 8256
0.08650000 0.08650700 22759.93872746 0 917.12287919 0 9157.46589218 0 196.78732177 0 534.19759767 0 8037
0.08750000 0.08749060 21604.09873965 0 1387.65018022 0 8228.35389968 0 63.12598115 0 332.73111143 0 8155
0.08850000 0.08849210 20905.65649009 0 682.52688987 0 7920.33289555 0 403.72353647 0 571.91879386 0 8718
0.08950000 0.08949900 20331.66717149 0 3.61200273 0 7391.13113084 0 1490.84424753 0 -374.76719260 0 8571
0.09050000 0.09049190 20191.38081604 0 102.99454402 0 6764.43754611 0 939.47458130 0 -1324.18361436 0 8932
0.09150000 0.09150830 19875.15521921 0 -27.43400993 0 6427.92745022 0 -236.13282801 0 -2642.05600358 0 9285
0.09250000 0.09250820 20032.16078514 0 812.17163393 0 6755.08143163 0 -1066.39664070 0 -2219.35893130 0 9204
0.09350000 0.09350330 19101.08899114 0 904.47606979 0 6951.01729162 0 -1341.83290012 0 -1933.79260190 0 9349
0.09450000 0.09448040 18434.09214407 0 378.96028201 0 7235.42102692 0 812.37204301 0 -521.68365616 0 9564
0.09550000 0.09549270 19066.87550745 0 -209.63675472 0 7165.32213849 0 1182.21426554 0 -1243.47743876 0 10155
0.09650000 0.09649430 18569.83884634 0 -136.98680266 0 6566.57510160 0 1387.34015513 0 -1533.30661321 0 9913
0.09750000 0.09749140 18876.65296707 0 368.15147852 0 6781.25640750 0 1060.88262294 0 -481.98604998 0 10476
0.09850000 0.09850240 17784.14667721 0 741.55456071 0 6667.64328254 0 117.68441880 0 194.25286662 0 10575
0.09950000 0.09950330 17708.63342195 0 832.88573921 0 6220.08884105 0 649.92885837 0 841.65944939 0 10882
0.10050000 0.10051200 16803.80303777 0 506.92978333 0 6233.38670315 0 60.23222906 0 1726.65154919 0 10875
0.10150000 0.10150300 16547.03582523 0 69.54482929 0 5538.02255989 0 1101.74393045 0 1646.93081050 0 11118
0.10250000 0.10250800 16783.76212985 0 -342.14480199 0 5892.33695409 0 848.80442060 0 937.67532852 0 11575
0.10350000 0.10349800 16657.75907341 0 6.23898930 0 5178.54846233 0 398.09547376 0 -0.96078770 0 11364
0.10450000 0.10450100 16624.54209896 0 641.07653467 0 5058.28087015 0 -505.17260539 0 466.76381782 0 12093
0.10550000 0.10551000 15810.50477829 0 402.46018421 0 4933.52898642 0 -260.94258623 0 564.21356302 0 12067
0.10650000 0.10649700 15790.02097738 0 130.75086932 0 5355.91603360 0 124.77402838 0 432.65884292 0 12054
0.10750000 0.10749900 15572.11762494 0 180.25966251 0 4613.89311355 0 554.83751836 0 -890.01893527 0 12807
0.10850000 0.10850100 15444.56444303 0 149.42655959 0 4539.87462214 0 585.44917479 0 -110.30958613 0 12736
0.10950000 0.10950300 15283.24067043 0 202.98228751 0 3879.27757881 0 749.82558735 0 732.81517473 0 12933
0.11050000 0.11050200 15237.95486192 0 198.66186636 0 4178.61788028 0 675.46053217 0 1192.94334829 0 13428
0.11150000 0.11150900 14840.56912418 0 214.57722606 0 3616.52023854 0 676.80249793 0 1208.28959048 0 13453
0.11250000 0.11250000 15055.92584190 0 133.49569864 0 4098.73105672 0 242.83158453 0 1675.56384248 0 13668
0.11350000 0.11349100 14790.85438574 0 91.95089652 0 3988.66107569 0 -596.06753429 0 1833.08980768 0 13791
0.11450000 0.11448600 14911.32127977 0 305.81650426 0 5259.52037373 0 -691.94611659 0 1873.39307002 0 14205
0.11550000 0.11549300 14546.37745374 0 257.58767181 0 5038.31746850 0 -976.78167255 0 1858.42328686 0 14776
0.11650000 0.11649800 14607.93957974 0 190.04316872 0 5825.67048636 0 -125.31989399 0 1438.19534302 0 14553
0.11750000 0.11747300 14472.85721695 0 -58.28815027 0 5985.03445747 0 322.40616853 0 874.74909211 0 14568
0.11850000 0.11849100 14420.48512056 0 259.51314910 0 5525.95372584 0 75.42877342 0 205.46027380 0 16015
0.11950000 0.11950300 14149.21316250 0 163.71096584 0 5392.69829665 0 718.23956634 0 153.31626730 0 15270
0.12050000 0.12050700 13972.94175139 0 202.74423252 0 5203.93730314 0 536.40763370 0 925.43930236 0 15999
0.12150000 0.12150000 13839.52023732 0 65.73727823 0 4753.24939372 0 777.89171630 0 349.76145423 0 15670
0.12250000 0.12250700 13526.94850769 0 192.82785841 0 4063.54320844 0 780.45828119 0 185.02740558 0 16887
0.12350000 0.12352200 13519.41932682 0 239.57189210 0 3949.25467167 0 195.53614906 0 330.34613266 0 16407
0.12450000 0.12449800 13105.09293210 0 128.43564620 0 3410.41998437 0 209.96560277 0 209.88145310 0 16306
0.12550000 0.12549900 12977.42902694 0 153.37827232 0 3686.17623397 0 -40.54906795 0 386.76737824 0 17523
0.12650000 0.12650100 13170.86254152 0 186.36937135 0 3455.79437147 0 -196.50940642 0 -435.41806626 0 17154
0.12750000 0.12750600 12940.33673880 0 83.08517531 0 3393.14715765 0 -320.73756918 0 -742.99728463 0 18007
0.12850000 0.12850300 12784.88129835 0 25.84612782 0 3322.16248324 0 -88.66396617 0 -246.70911268 0 17496
0.12950000 0.12949900 13003.67043676 0 -33.46809478 0 3450.96683785 0 281.13739947 0 -491.49828423 0 18405
0.13050000 0.13049000 12770.70872258 0 158.51361657 0 3388.71822772 0 453.39287837 0 -209.32783686 0 18100
0.13150000 0.13148800 12692.53810936 0 307.26919327 0 3691.28057572 0 179.59200133 0 -150.34334809 0 19059
0.13250000 0.13249300 12435.99234331 0 427.52460590 0 3804.57260326 0 326.08218037 0 957.02864507 0 18957
0.13350000 0.13349100 12137.15029646 0 381.58774469 0 4026.53949890 0 -15.40437190 0 959.58081594 0 19468
0.13450000 0.13450700 11915.26090709 0 227.63703318 0 4093.20596663 0 -204.26114102 0 1125.90042151 0 19953
0.13550000 0.13551000 11771.87430069 0 133.15134934 0 4103.08248037 0 -207.21080835 0 1036.63090989 0 19956
0.13650000 0.13649900 11629.04131053 0 79.65651921 0 4336.42065360 0 214.36131572 0 1020.49853263 0 19723
0.13750000 0.13749600 11636.01687516 0 9.33909631 0 3724.78543062 0 269.97206712 0 804.13091165 0 20946
0.13850000 0.13851100 11569.36147976 0 -18.49089317 0 3346.96449083 0 570.18818949 0 342.37067741 0 20955
0.13950000 0.13949800 11502.48463785 0 67.29648302 0 2723.50402494 0 427.56889520 0 -559.08154046 0 20506
0.14050000 0.14048300 11338.83567703 0 219.05930314 0 2979.50724707 0 47.89267666 0 -544.33763273 0 21447
0.14150000 0.14148400 11129.12584497 0 345.98357700 0 2700.94969929 0 3.88479160 0 105.33977314 0 21771
0.14250000 0.14249400 10896.03126288 0 80.89351934 0 2379.70833932 0 287.90148270 0 514.29841550 0 22470
0.14350000 0.14350900 10967.42561331 0 -64.90541447 0 2513.84955450 0 412.66776046 0 283.89108665 0 22519
0.14450000 0.14449900 10894.99046435 0 214.95257787 0 2454.24723000 0 165.49471737 0 -194.98031836 0 22218
0.14550000 0.14550500 10716.57102222 0 360.10522008 0 2681.20774413 0 -215.18731115 0 357.47554293 0 23559
0.14650000 0.14650700 10391.63150577 0 257.46476901 0 2570.24090480 0 -216.02105721 0 1081.13058334 0 23044
0.14750000 0.14750500 10435.53327368 0 -100.29909726 0 2619.14736353 0 538.72064235 0 838.81054022 0 23649
0.14850000 0.14849900 10322.18588451 0 -43.89944272 0 2333.54781715 0 382.43256307 0 685.66810842 0 23640
0.14950000 0.14949500 10561.66919801 0 18.89226495 0 2248.57879650 0 528.98585437 0 387.27670518 0 24457
0.15050000 0.15050000 10258.26535333 0 293.64359035 0 2137.85554831 0 215.33900200 0 735.31973460 0 24591
0.15150000 0.15149900 10029.04608493 0 313.92808942 0 1810.96730269 0 205.80683757 0 834.75474764 0 25020
0.15250000 0.15250500 9800.79010880 0 136.72992472 0 1847.09629857 0 72.37779432 0 967.53074516 0 25297
0.15350000 0.15350100 9756.11327815 0 94.65785849 0 1799.95033949 0 166.77246365 0 671.27297892 0 25452
0.15450000 0.15450400 9621.27450651 0 101.59965254 0 2055.43316236 0 152.42494515 0 762.15019210 0 26061
0.15550000 0.15549900 9592.59718523 0 69.46455494 0 1852.74318423 0 -80.62147232 0 759.95344286 0 26128
0.15650000 0.15649500 9494.03134970 0 145.32647771 0 2096.35647489 0 -131.03764253 0 801.79908004 0 26331
0.15750000 0.15749700 9503.24352395 0 209.80948299 0 2463.92444189 0 -305.97483850 0 1171.58483371 0 27345
0.15850000 0.15849900 9413.56876524 0 178.54455940 0 2662.55087682 0 -250.60324932 0 1021.57033367 0 26980
0.15950000 0.15949700 9223.25764626 0 87.38732712 0 2815.44861024 0 -313.93805451 0 1279.56214534 0 27777
0.16050000 0.16050000 9315.33509945 0 108.65228055 0 3024.60482606 0 -206.29955602 0 1102.95081386 0 28224
0.16150000 0.16150500 9179.85413297 0 140.79125346 0 3139.94523370 0 -42.19463687 0 995.46622068 0 28075
0.16250000 0.16249700 9068.35582204 0 196.17502221 0 2874.34230595 0 320.12305516 0 871.51154434 0 28590
0.16350000 0.16349900 8895.24002350 0 69.53630360 0 2720.85773931 0 175.82962535 0 675.23687121 0 29163
0.16450000 0.16449100 8870.44908824 0 54.66041376 0 2408.72890267 0 288.13178706 0 444.40657955 0 28996
0.16550000 0.16550500 8742.44194101 0 62.75993009 0 2346.07061652 0 194.98585452 0 10.60457446 0 30777
0.16650000 0.16650700 8600.61653241 0 177.39635931 0 2150.94303624 0 112.41399219 0 418.75089571 0 29211
0.16750000 0.16749900 8687.91074128 0 22.86645449 0 2058.35625611 0 -5.36596970 0 94.59673926 0 30922
0.16850000 0.16850800 8496.82455956 0 -17.59159895 0 2061.77760448 0 217.89781627 0 128.10126199 0 30867
0.16950000 0.16949900 8598.00346375 0 122.75775803 0 1972.60110039 0 -122.86183789 0 16.10325705 0 30852
0.17050000 0.17049200 8498.34146806 0 145.22129062 0 2090.97532503 0 55.10308531 0 223.17710074 0 31257
0.17150000 0.17149500 8387.48535197 0 201.07341871 0 2167.70653602 0 -17.87615770 0 257.30311307 0 32608
0.17250000 0.17250900 8206.74072163 0 193.15449200 0 2192.86285801 0 101.37887038 0 439.66651729 0 32361
0.17350000 0.17350400 8033.23739172 0 189.93133824 0 2296.77662643 0 185.28317628 0 344.19539654 0 32508
0.17450000 0.17449800 7888.49996169 0 100.83865165 0 2178.72349921 0 28.13998136 0 153.12803778 0 32791
0.17550000 0.17549800 7839.95888969 0 152.14481533 0 2289.84535109 0 181.43886511 0 496.87943410 0 33633
0.17650000 0.17650100 7859.81156809 0 -48.28884445 0 2273.23686387 0 -7.70009328 0 503.52061452 0 33984
0.17750000 0.17750300 7857.30922268 0 -38.72833486 0 2159.51301565 0 156.85608954 0 521.25626442 0 34069
0.17850000 0.17849800 7852.84707578 0 156.38551574 0 2224.46327304 0 96.58477518 0 580.79990559 0 34536
