### header ###
fiducial parameters:
Omega_m = 0.31
Omega_nu = 0
Omega_de = 0.69
Omega_k = 0
H_0 = 100
w_de = -1
zeff = 0
beta = 0
fgrowth = 0
b_1 = 2
gamma = 0.55
Lx = 3500 Ly = 3500 Lz = 3500
nx = 700 ny = 700 nz = 700
xoffset = -685.467585 yoffset = -31.7331281 zoffset = 572.489161
bins = 400 dk = 0.001
kx_ny = 0.628318531 ky_ny = 0.628318531 kz_ny = 0.628318531
############################
A(data) = 8.02043077 (not used)
A(ran) = 8.01144702 (used)
Ngal = 475982
weighted Ngal = 0
Nran = 23820508
weighted Nran = 0
SN(data) = 3497.7074
SN(ran) = 69.782609
SN(data+ran) = 3567.49001
############################
13 columns: k_central k_mean P_0(k) sigma^{lin}_{P_0(k)} P^img_1(k) sigma^{lin}_{P_1(k)} P_2(k) sigma^{lin}_{P_2(k)} P^img_3(k) sigma^{lin}_{P_3(k)} P_4(k) sigma^{lin}_{P_4(k)} N_modes
### header ###
0.00050000 0 0 0 0 0 0 0 0 0 0 0 0
0.00150000 0.00179520 36039.19932896 0 -44448.74075197 0 -28695.03700000 0 76771.95714855 0 -108047.73161729 0 3
0.00250000 0.00253879 48754.54642745 0 -28142.41726831 0 6337.74336457 0 -920.54422756 0 107631.74437385 0 6
0.00350000 0.00331552 55634.99979300 0 -2354.95062103 0 11242.28500461 0 -79904.31783975 0 -42839.93195582 0 7
0.00450000 0.00420575 53603.33891203 0 11721.16305302 0 -11927.32974114 0 -1347.88946180 0 42822.32695936 0 24
0.00550000 0.00557378 42755.11794771 0 -6560.87285431 0 -34509.44693202 0 8517.76232579 0 12582.70064716 0 45
0.00650000 0.00659388 39194.25828604 0 -5960.86357239 0 -33389.14910687 0 14357.15142259 0 14727.52068778 0 40
0.00750000 0.00754703 68180.27598227 0 -26698.03249571 0 -38271.82290540 0 9434.53974845 0 -30766.11535733 0 57
0.00850000 0.00846663 58543.14590662 0 -4141.93526816 0 -33176.56047035 0 -18623.65034496 0 16046.12385043 0 75
0.00950000 0.00948925 69054.43602671 0 6668.36298365 0 -32167.20733988 0 -28337.51163161 0 5884.01056583 0 112
0.01050000 0.01054430 56618.22223690 0 -1560.57774924 0 -21949.11238100 0 -24678.77261854 0 4663.77393686 0 105
0.01150000 0.01145670 58150.63199180 0 2675.91517287 0 -8021.42322114 0 -26165.78584168 0 -13228.43863058 0 144
0.01250000 0.01249090 63079.36666157 0 -7132.28232123 0 870.62797281 0 -29833.27199136 0 -10313.70448370 0 169
0.01350000 0.01339930 74388.97140108 0 -2622.60192887 0 34140.40634581 0 -26935.86603282 0 -15567.68869502 0 180
0.01450000 0.01448870 71591.88070540 0 -828.17446500 0 30749.72831660 0 -16360.68859853 0 -17547.08820285 0 267
0.01550000 0.01550050 79888.26296876 0 5395.58817343 0 33387.26681165 0 -2436.98547561 0 2239.87594919 0 238
0.01650000 0.01653350 78271.81426849 0 1470.31615732 0 35195.37745453 0 -8109.44820345 0 -5991.31246564 0 315
0.01750000 0.01747870 82667.19505174 0 4028.62109597 0 45961.66321519 0 12636.62286902 0 700.50834537 0 297
0.01850000 0.01844180 81315.48563788 0 368.16365808 0 45318.69331297 0 17149.48101861 0 -4935.73237906 0 388
0.01950000 0.01947590 78929.39963946 0 588.59150057 0 40622.69891089 0 20070.13885927 0 15312.25016145 0 399
0.02050000 0.02045430 78856.43301891 0 3890.50491618 0 37240.87874153 0 12232.81518289 0 12595.98743694 0 462
0.02150000 0.02154770 73728.61794890 0 7052.46193161 0 37122.40486597 0 7506.11722408 0 16045.68095744 0 571
0.02250000 0.02255340 68858.23443092 0 8164.82089987 0 37920.49803890 0 8289.59492825 0 21914.34528106 0 510
0.02350000 0.02348930 62140.43351695 0 3877.55029614 0 36539.00407128 0 4492.78402469 0 13120.59418685 0 555
0.02450000 0.02439640 63354.07104032 0 -905.64973622 0 30190.57591326 0 10638.07931158 0 24033.14535836 0 592
0.02550000 0.02547300 61796.85927783 0 791.52396261 0 32817.81714623 0 5136.75043614 0 7904.13408434 0 837
0.02650000 0.02652900 62772.99543384 0 707.41193990 0 25814.57169843 0 6060.73594226 0 16536.73856314 0 723
0.02750000 0.02749970 60732.58741626 0 -540.71144636 0 20446.26573336 0 11650.18945093 0 8133.24262949 0 826
0.02850000 0.02848090 60165.35221580 0 -376.48340295 0 12507.63028489 0 8368.33023004 0 3816.96253473 0 831
0.02950000 0.02946900 58697.16194485 0 -1870.04922792 0 18272.32547847 0 1809.42824954 0 -5808.20943012 0 996
0.03050000 0.03053250 56582.12645799 0 5700.87431333 0 11294.32493126 0 -2574.63661776 0 -1728.74421858 0 1041
0.03150000 0.03150510 54745.67066357 0 3047.85670818 0 14900.02750845 0 -5882.90333334 0 -865.84472849 0 1036
0.03250000 0.03246190 55116.81499149 0 -288.05095909 0 11246.04959505 0 -2976.70594889 0 3256.11606569 0 1059
0.03350000 0.03345080 55656.03721016 0 -196.24145616 0 15705.76058551 0 -2126.11888400 0 -4594.15115840 0 1302
0.03450000 0.03451200 56802.90861487 0 -1976.09995503 0 16991.36822020 0 -597.88339556 0 -4677.20466687 0 1339
0.03550000 0.03553350 56126.16812196 0 -436.88182760 0 16975.53479571 0 4441.92883680 0 -11647.53209297 0 1365
0.03650000 0.03647120 56979.95508872 0 388.88662121 0 13570.01985124 0 3136.65675322 0 -7341.94786400 0 1308
0.03750000 0.03744890 54068.70872416 0 958.19234641 0 12651.45978428 0 6267.77734404 0 -13156.24707276 0 1579
0.03850000 0.03847530 52980.40991773 0 2648.66618149 0 12078.46697492 0 1992.56450204 0 -7272.91191875 0 1662
0.03950000 0.03950240 51301.07041249 0 2729.12876595 0 12506.30160591 0 940.00605290 0 -7277.24119776 0 1683
0.04050000 0.04050350 48501.87597509 0 3458.32993386 0 10681.46068022 0 -3591.21997633 0 -1045.49541314 0 1822
0.04150000 0.04152450 44868.82475559 0 2657.91157272 0 14028.52482198 0 3192.92630795 0 -900.71701551 0 1887
0.04250000 0.04250150 46305.01600782 0 -686.60150540 0 14418.38137884 0 443.08122227 0 6190.97969910 0 1920
0.04350000 0.04349210 47211.17507098 0 864.28353069 0 15890.55768673 0 3587.06785452 0 1115.27098968 0 2005
0.04450000 0.04448520 45237.53317205 0 670.96184659 0 11260.66506381 0 3181.56610269 0 5594.89002016 0 2151
0.04550000 0.04548030 44858.97038650 0 442.43016957 0 7662.46952285 0 2868.09751475 0 4133.76389244 0 2274
0.04650000 0.04648670 44744.81471762 0 1348.69774151 0 9854.82305391 0 2172.23511687 0 3750.20748840 0 2311
0.04750000 0.04749250 41302.87182450 0 1312.67946887 0 7834.34522101 0 -243.65647273 0 1797.62515128 0 2568
0.04850000 0.04851840 41379.93520524 0 2912.20965683 0 9679.03882509 0 247.76098354 0 330.87206809 0 2493
0.04950000 0.04949480 38038.41829822 0 1993.73816847 0 10411.50632882 0 -770.47879483 0 3359.28798835 0 2644
0.05050000 0.05050630 37741.34782333 0 1516.23308834 0 11796.45486179 0 -393.67540169 0 1005.21429545 0 2829
0.05150000 0.05149060 36489.84294908 0 1833.33339882 0 15586.62237046 0 -3103.22940460 0 5712.47810974 0 2784
0.05250000 0.05249300 36833.74935795 0 919.02621183 0 18786.96713604 0 -1039.68244261 0 6363.45330280 0 3055
0.05350000 0.05348950 35641.14925173 0 766.52265317 0 19862.42204567 0 1026.59938361 0 10382.96187544 0 3009
0.05450000 0.05448610 36275.70418709 0 -109.36478465 0 19918.66945575 0 1685.91646619 0 8279.14265362 0 3336
0.05550000 0.05550870 35861.82068537 0 268.48948283 0 22983.15679581 0 1960.65406191 0 8772.09362687 0 3349
0.05650000 0.05647670 35796.49396894 0 333.77190996 0 19560.03685488 0 3652.88175324 0 6793.60204968 0 3324
0.05750000 0.05747970 35242.98845125 0 372.50622387 0 20337.20333390 0 1227.56650799 0 8869.20898786 0 3639
0.05850000 0.05849280 34808.73187187 0 775.48791458 0 18066.15879034 0 1783.88439618 0 4755.99533028 0 3846
0.05950000 0.05951020 33633.84748536 0 -65.71491214 0 16836.68784248 0 3159.46574235 0 4892.77175876 0 3787
0.06050000 0.06049470 33992.03719324 0 456.39790733 0 16082.88396883 0 -709.09050434 0 3681.84695497 0 3930
0.06150000 0.06148310 33791.40666753 0 267.50515315 0 12490.57890467 0 2041.44881611 0 -32.33262787 0 4083
0.06250000 0.06249100 33619.89635609 0 -128.35703269 0 13166.10144185 0 3.22420563 0 -1826.09209839 0 4303
0.06350000 0.06350600 33445.50724020 0 552.62305340 0 12100.27945481 0 -1781.00559173 0 -3054.92085141 0 4470
0.06450000 0.06451750 32899.53090339 0 1400.54943864 0 13258.44463084 0 -2436.85260771 0 -3098.55688352 0 4479
0.06550000 0.06550280 32373.92764425 0 1257.58358058 0 14429.01081067 0 -2956.95292142 0 -5022.25152519 0 4636
0.06650000 0.06648880 31527.33768861 0 80.40124378 0 14913.42502148 0 1388.48060458 0 -1512.65672742 0 4653
0.06750000 0.06749660 31901.13937449 0 -118.02212471 0 16477.94451836 0 1824.07693527 0 -3033.92772356 0 5220
0.06850000 0.06852730 32213.82182737 0 -82.70495168 0 15829.99206997 0 3731.04129414 0 -2063.37201925 0 5029
0.06950000 0.06949320 31457.24987251 0 1599.45268168 0 15575.10715265 0 867.00510813 0 -2095.23817008 0 5040
0.07050000 0.07048030 30267.75001724 0 2172.36798477 0 15527.16398618 0 603.62107428 0 2863.46928297 0 5475
0.07150000 0.07148790 28393.31614870 0 1434.08751051 0 16089.63808697 0 462.89404030 0 2678.30679503 0 5509
0.07250000 0.07249820 28114.95790275 0 528.28497621 0 15476.45273851 0 2093.85412948 0 3867.14231081 0 5916
0.07350000 0.07351270 27234.81880292 0 -105.39546693 0 14498.54501053 0 2751.90453810 0 4091.13544189 0 5721
0.07450000 0.07449140 27385.73459020 0 -281.80506066 0 13465.38638170 0 1908.16016995 0 3176.43961630 0 6028
0.07550000 0.07549160 27523.69575744 0 39.16801688 0 13240.50746463 0 1471.33481120 0 3782.61618314 0 6183
0.07650000 0.07648840 26893.23758227 0 790.00262518 0 11978.26243531 0 40.47410831 0 2054.11555571 0 6330
0.07750000 0.07749960 25682.03597035 0 1018.75685594 0 12666.07525304 0 -334.81492296 0 2532.87180854 0 6583
0.07850000 0.07848650 25282.54649090 0 885.01535168 0 11707.10120050 0 1338.63299825 0 2776.95013684 0 6549
0.07950000 0.07947320 24661.83196156 0 186.15678271 0 10551.27228501 0 2195.12161227 0 1099.82731103 0 6828
0.08050000 0.08048110 24582.77556236 0 -243.76941044 0 10263.60221389 0 533.54100880 0 -320.68220756 0 7147
0.08150000 0.08149960 24528.41044750 0 509.99128115 0 9807.22312952 0 456.13881493 0 -653.62922932 0 7386
0.08250000 0.08250610 23789.66493560 0 960.69358459 0 9734.64404033 0 301.27131492 0 1856.79565511 0 7227
0.08350000 0.08350160 23619.48330314 0 119.01531224 0 8962.38260121 0 496.40000243 0 1538.47738890 0 7798
0.08450000 0.08449610 23290.63525602 0 -23.93947349 0 8732.64293354 0 2101.95907125 0 1348.26592084 0 7371
0.08550000 0.08548940 23376.22432687 0 51.70177785 0 7973.39147608 0 1914.75927554 0 1593.89437462 0 8256
0.08650000 0.08650700 22848.29587952 0 474.33950246 0 7695.59791870 0 888.73122389 0 1868.03406480 0 8037
0.08750000 0.08749060 22426.55102718 0 1039.13436253 0 6758.11524863 0 429.14780872 0 1636.56711447 0 8155
0.08850000 0.08849210 21334.93052331 0 581.76651955 0 6240.94910100 0 -390.67812337 0 1235.91504091 0 8718
0.08950000 0.08949900 20641.80298966 0 739.45635515 0 6007.28983036 0 -88.02531448 0 1588.85646683 0 8571
0.09050000 0.09049190 20213.63618892 0 -118.48273342 0 6471.66313325 0 -345.32809537 0 -456.91941383 0 8932
0.09150000 0.09150830 20282.61677254 0 334.22144635 0 6154.11992978 0 677.57202451 0 -1339.80666468 0 9285
0.09250000 0.09250820 19631.45334996 0 593.12118865 0 6182.74188943 0 -306.23282367 0 -1210.58156172 0 9204
0.09350000 0.09350330 19444.88467676 0 761.87559845 0 6546.21309625 0 -559.94961073 0 -1366.66812469 0 9349
0.09450000 0.09448040 19043.62362533 0 327.53819109 0 7107.92320663 0 532.32748200 0 -447.18905478 0 9564
0.09550000 0.09549270 18176.10697579 0 815.63173544 0 7049.16237882 0 331.68588396 0 -794.98406412 0 10155
0.09650000 0.09649430 17791.12224185 0 776.98710736 0 6313.71641971 0 805.47177019 0 485.04090440 0 9913
0.09750000 0.09749140 17251.12496044 0 509.03020335 0 7521.80670835 0 275.80496784 0 824.55492201 0 10476
0.09850000 0.09850240 16881.75220449 0 453.40948686 0 6697.83751232 0 658.68817453 0 1638.72621781 0 10575
0.09950000 0.09950330 16822.18309697 0 -324.34603984 0 6340.69967530 0 814.32963004 0 1358.98393127 0 10882
0.10050000 0.10051200 16973.20960750 0 -171.60553343 0 5492.55959419 0 699.97023039 0 1024.38381141 0 10875
0.10150000 0.10150300 17152.35982306 0 -254.25822374 0 5474.25704126 0 804.36896664 0 785.77410433 0 11118
0.10250000 0.10250800 17370.81679173 0 -22.15018580 0 5082.04207921 0 287.56931296 0 384.09341180 0 11575
0.10350000 0.10349800 17153.46705554 0 314.88805998 0 4746.97138555 0 263.00868204 0 -45.62838624 0 11364
0.10450000 0.10450100 17071.97474488 0 229.90907423 0 5021.94150010 0 -788.95407602 0 -565.90209255 0 12093
0.10550000 0.10551000 16309.75590436 0 811.66341423 0 5251.13862384 0 -659.04581062 0 221.76980826 0 12067
0.10650000 0.10649700 16063.06450740 0 434.77254972 0 5321.59182666 0 -7.86440658 0 504.87254538 0 12054
0.10750000 0.10749900 16128.94484007 0 3.32473126 0 5580.09739420 0 223.82151005 0 891.70746480 0 12807
0.10850000 0.10850100 15848.37212917 0 80.79874024 0 5664.21384585 0 747.27452371 0 486.27989755 0 12736
0.10950000 0.10950300 15755.14315420 0 246.39355142 0 5739.49458229 0 599.02384501 0 654.19723958 0 12933
0.11050000 0.11050200 15585.29369148 0 285.08468327 0 5573.83045836 0 174.70910608 0 671.30841036 0 13428
0.11150000 0.11150900 15124.24208603 0 317.79897418 0 5579.70986283 0 224.82134098 0 938.15808188 0 13453
0.11250000 0.11250000 15120.36677234 0 386.22815602 0 5876.22672148 0 -53.38709641 0 968.14304473 0 13668
0.11350000 0.11349100 14495.00186659 0 327.86482467 0 5288.92846845 0 199.53215109 0 1780.33017991 0 13791
0.11450000 0.11448600 14540.73056809 0 215.06551558 0 5520.28469553 0 883.63684724 0 1201.22544725 0 14205
0.11550000 0.11549300 14453.14847877 0 -169.41764205 0 5433.32265641 0 307.95457018 0 620.75217524 0 14776
0.11650000 0.11649800 14602.29269408 0 30.70355672 0 5310.59700812 0 190.19485957 0 1228.68481280 0 14553
0.11750000 0.11747300 14414.94895815 0 95.97590804 0 4918.35990142 0 -13.00953877 0 383.72470338 0 14568
0.11850000 0.11849100 14465.10658958 0 103.21444039 0 4740.63801575 0 489.07455233 0 483.95581657 0 16015
0.11950000 0.11950300 14164.38224750 0 369.19449152 0 4400.13081061 0 -72.57809268 0 368.34524421 0 15270
0.12050000 0.12050700 13932.30631930 0 392.21385482 0 4320.97476048 0 271.08815746 0 -42.77781621 0 15999
0.12150000 0.12150000 13346.13744340 0 201.37347871 0 3988.97110079 0 193.56638248 0 397.11335855 0 15670
0.12250000 0.12250700 13545.88218313 0 -61.12122602 0 3867.02051524 0 526.08047634 0 -230.51583763 0 16887
0.12350000 0.12352200 13535.36347455 0 -34.62515273 0 3729.05934800 0 180.79999196 0 -35.21198594 0 16407
0.12450000 0.12449800 13541.34252996 0 83.45266577 0 3534.54074558 0 -5.69715401 0 -571.34303297 0 16306
0.12550000 0.12549900 13609.88022058 0 126.95084744 0 3611.95844071 0 -356.59086418 0 -134.46231260 0 17523
0.12650000 0.12650100 13248.47953850 0 138.46606525 0 3317.83320423 0 -9.12727166 0 -303.79026882 0 17154
0.12750000 0.12750600 13482.21631542 0 156.26150570 0 3384.38894872 0 100.41192425 0 -401.66962021 0 18007
0.12850000 0.12850300 13127.01613524 0 213.08578390 0 3639.35137232 0 -38.18822685 0 -396.46452032 0 17496
0.12950000 0.12949900 13094.24205378 0 197.09181070 0 3816.88502846 0 -120.78577698 0 -690.35280905 0 18405
0.13050000 0.13049000 12846.22197784 0 416.44231599 0 3893.87090292 0 154.40024790 0 -120.07936266 0 18100
0.13150000 0.13148800 12428.13099269 0 504.50383697 0 4025.53191734 0 10.03416150 0 280.34240655 0 19059
0.13250000 0.13249300 12283.74787705 0 295.53585066 0 4103.56966266 0 298.34600670 0 189.06548244 0 18957
0.13350000 0.13349100 12163.17025978 0 112.65869056 0 4418.78767792 0 434.95302862 0 790.41340843 0 19468
0.13450000 0.13450700 11961.32177834 0 43.51213280 0 4115.59420742 0 255.22373046 0 945.74594608 0 19953
0.13550000 0.13551000 11932.31228731 0 -41.08961885 0 3960.82525110 0 289.00539349 0 997.32083509 0 19956
0.13650000 0.13649900 11992.87790407 0 21.77118012 0 3901.69903657 0 14.48226869 0 687.29684740 0 19723
0.13750000 0.13749600 12182.65755146 0 -67.91188283 0 3734.99411410 0 284.75804969 0 728.62208532 0 20946
0.13850000 0.13851100 11921.23996249 0 4.07339758 0 3647.85491778 0 127.48453350 0 1110.33273281 0 20955
0.13950000 0.13949800 11849.15912792 0 196.06208449 0 3448.67486661 0 386.38870473 0 821.40041667 0 20506
0.14050000 0.14048300 11797.89426401 0 80.51152413 0 3259.54848639 0 558.58328585 0 617.31421838 0 21447
0.14150000 0.14148400 11657.82935506 0 244.44039332 0 3114.58960986 0 118.03319703 0 438.27029713 0 21771
0.14250000 0.14249400 11380.13544860 0 237.97969179 0 3078.94779627 0 -39.12727072 0 756.70703722 0 22470
0.14350000 0.14350900 11332.30300539 0 207.17426968 0 3158.93427076 0 -315.01871342 0 533.65837545 0 22519
0.14450000 0.14449900 11235.42016322 0 71.11322410 0 3148.67022565 0 -133.12145406 0 1014.50619044 0 22218
0.14550000 0.14550500 11171.08995603 0 139.26105817 0 3216.34427494 0 -41.95746767 0 576.77622276 0 23559
0.14650000 0.14650700 11073.43205113 0 166.79128660 0 3539.29077293 0 79.11131794 0 1113.63228561 0 23044
0.14750000 0.14750500 11011.79241886 0 228.96349769 0 3737.46324253 0 97.80472393 0 312.01257723 0 23649
0.14850000 0.14849900 10781.34412241 0 322.51024839 0 3826.86119312 0 -68.11417420 0 698.43339170 0 23640
0.14950000 0.14949500 10425.45745809 0 415.69271960 0 3882.54391463 0 -38.70231489 0 399.02444181 0 24457
0.15050000 0.15050000 10258.47572750 0 136.89600959 0 3752.42195336 0 203.11847710 0 768.92866936 0 24591
0.15150000 0.15149900 10117.75755138 0 112.55903964 0 3632.74119440 0 357.29506404 0 708.67418493 0 25020
0.15250000 0.15250500 10063.07133910 0 156.22828873 0 3473.11148749 0 524.18710880 0 460.79140582 0 25297
0.15350000 0.15350100 9776.22062003 0 108.43426648 0 3033.38517964 0 428.39710509 0 614.68675570 0 25452
0.15450000 0.15450400 9617.97495372 0 157.69094283 0 2846.11894998 0 163.83165418 0 648.29126153 0 26061
0.15550000 0.15549900 9480.31273925 0 60.61654945 0 2789.21827274 0 250.82691028 0 661.60794659 0 26128
0.15650000 0.15649500 9574.75966995 0 -42.74493141 0 2725.74063456 0 354.08408984 0 395.83339780 0 26331
0.15750000 0.15749700 9620.66552865 0 -77.74333220 0 2506.59718174 0 -145.54681697 0 689.39948188 0 27345
0.15850000 0.15849900 9689.87863109 0 132.19691494 0 2943.83221651 0 -198.35627020 0 238.50451999 0 26980
0.15950000 0.15949700 9679.96890038 0 249.24024613 0 3177.89009085 0 -497.59581351 0 638.47786004 0 27777
0.16050000 0.16050000 9347.06838238 0 349.07386286 0 3457.65452204 0 -299.24286501 0 708.67861386 0 28224
0.16150000 0.16150500 9245.09227080 0 292.40791890 0 3372.30904234 0 11.93341952 0 1054.34220067 0 28075
0.16250000 0.16249700 9043.53166980 0 14.11854282 0 3493.29633563 0 196.38428915 0 956.81273474 0 28590
0.16350000 0.16349900 9045.95650894 0 10.53077741 0 3421.74697266 0 519.81243326 0 707.71753606 0 29163
0.16450000 0.16449100 9038.36089411 0 100.76911745 0 3564.82355396 0 271.27638699 0 616.09626265 0 28996
0.16550000 0.16550500 8901.42945308 0 13.47955896 0 2985.74096595 0 187.52864376 0 513.55989144 0 30777
0.16650000 0.16650700 8922.46687023 0 12.36590453 0 2989.58306266 0 162.37342900 0 602.97887944 0 29211
0.16750000 0.16749900 8855.24678626 0 15.37613748 0 2660.58000300 0 201.71893524 0 46.58569944 0 30922
0.16850000 0.16850800 8738.89879707 0 203.31999341 0 2431.63754272 0 168.84298839 0 180.98822149 0 30867
0.16950000 0.16949900 8578.08435140 0 240.44660576 0 2325.94113000 0 126.82462294 0 -84.60983444 0 30852
0.17050000 0.17049200 8361.84184769 0 128.40242922 0 2287.96305588 0 -231.89212761 0 -94.61235124 0 31257
0.17150000 0.17149500 8220.64756160 0 205.48241845 0 2388.24510176 0 -214.30263240 0 -389.20993310 0 32608
0.17250000 0.17250900 8239.49265845 0 116.57940078 0 2567.96000589 0 -310.74036711 0 -533.82224585 0 32361
0.17350000 0.17350400 8117.11025222 0 -1.69959079 0 2436.49829332 0 -173.81889117 0 -182.89930475 0 32508
0.17450000 0.17449800 8168.68514123 0 8.49406755 0 2585.32141121 0 222.79289107 0 -232.36380864 0 32791
0.17550000 0.17549800 8197.59498133 0 25.28321083 0 2422.91255077 0 416.13782705 0 -182.70996799 0 33633
0.17650000 0.17650100 8120.07763528 0 -5.57237998 0 2143.98961626 0 493.64077909 0 -207.16541182 0 33984
0.17750000 0.17750300 8063.79700822 0 91.27249518 0 1951.78512973 0 436.94161816 0 -63.79054208 0 34069
0.17850000 0.17849800 8023.28337171 0 137.37765572 0 1874.17920508 0 140.95069494 0 -28.32920739 0 34536
