### header ###
fiducial parameters:
Omega_m = 0.31
Omega_nu = 0
Omega_de = 0.69
Omega_k = 0
H_0 = 100
w_de = -1
zeff = 0
beta = 0
fgrowth = 0
b_1 = 2
gamma = 0.55
Lx = 3500 Ly = 3500 Lz = 3500
nx = 700 ny = 700 nz = 700
xoffset = -685.467585 yoffset = -31.7331281 zoffset = 572.489161
bins = 400 dk = 0.001
kx_ny = 0.628318531 ky_ny = 0.628318531 kz_ny = 0.628318531
############################
A(data) = 8.03484695 (not used)
A(ran) = 8.0339301 (used)
Ngal = 477291
weighted Ngal = 0
Nran = 23820508
weighted Nran = 0
SN(data) = 3488.88898
SN(ran) = 69.9784448
SN(data+ran) = 3558.86742
############################
13 columns: k_central k_mean P_0(k) sigma^{lin}_{P_0(k)} P^img_1(k) sigma^{lin}_{P_1(k)} P_2(k) sigma^{lin}_{P_2(k)} P^img_3(k) sigma^{lin}_{P_3(k)} P_4(k) sigma^{lin}_{P_4(k)} N_modes
### header ###
0.00050000 0 0 0 0 0 0 0 0 0 0 0 0
0.00150000 0.00179520 2899.00037332 0 -4290.97983254 0 1003.44715241 0 -6123.77068745 0 -6169.46617198 0 3
0.00250000 0.00253879 7017.66161471 0 -339.10987776 0 5246.62111532 0 -12766.50123915 0 -22758.38860199 0 6
0.00350000 0.00331552 12089.53929974 0 -3474.38480484 0 -267.83953736 0 -2704.93573622 0 5636.16764709 0 7
0.00450000 0.00420575 14999.12481558 0 -5897.68488698 0 2509.50920317 0 -5.22008075 0 6834.12675851 0 24
0.00550000 0.00557378 20317.16242598 0 -3805.69090807 0 5367.59733628 0 -842.59063191 0 -10321.75406384 0 45
0.00650000 0.00659388 34581.08487360 0 -7358.01380731 0 20144.10198906 0 -10689.96422568 0 7560.83665334 0 40
0.00750000 0.00754703 34587.28537549 0 -2122.27678729 0 25644.16861947 0 -14965.79711788 0 -1397.50454931 0 57
0.00850000 0.00846663 52784.54049169 0 -4901.66283559 0 40817.46110445 0 -15157.68050698 0 7342.68970976 0 75
0.00950000 0.00948925 52411.51386855 0 -7827.24786080 0 30546.10826319 0 -1864.74558433 0 8749.39536099 0 112
0.01050000 0.01054430 67473.97238209 0 -11229.21966133 0 37562.86194726 0 26667.58360246 0 1001.94795963 0 105
0.01150000 0.01145670 81487.32811907 0 -17755.46935593 0 31970.67357435 0 8778.01732065 0 -34403.70623000 0 144
0.01250000 0.01249090 94119.52205817 0 -11050.30196458 0 22993.34333464 0 2728.66372831 0 -33670.05398752 0 169
0.01350000 0.01339930 98509.47740226 0 4700.19081319 0 25011.82814908 0 -25028.32591306 0 -38581.95872357 0 180
0.01450000 0.01448870 100054.62033070 0 215.12973506 0 37545.14622755 0 -21769.96216543 0 -32790.13633418 0 267
0.01550000 0.01550050 86488.25434666 0 8440.22283508 0 37908.98282109 0 -9824.47381158 0 -10560.14121719 0 238
0.01650000 0.01653350 90546.81500893 0 9378.67986974 0 28105.43570341 0 13175.51291795 0 -19395.94500106 0 315
0.01750000 0.01747870 77570.82538422 0 2626.64332743 0 24257.13848944 0 4524.77197109 0 -14358.25865508 0 297
0.01850000 0.01844180 82238.91752776 0 3519.03949084 0 13955.66892467 0 33314.85380734 0 -4492.00896195 0 388
0.01950000 0.01947590 73093.28795080 0 578.13479701 0 6838.47818217 0 15450.43277519 0 -15025.14477890 0 399
0.02050000 0.02045430 69579.70711610 0 4942.57507580 0 12770.48727608 0 1058.43121023 0 862.96149511 0 462
0.02150000 0.02154770 70451.54197232 0 4322.61346455 0 7193.21332471 0 -7151.90248081 0 -5787.58168898 0 571
0.02250000 0.02255340 64378.59325579 0 -1704.28545306 0 18528.53907477 0 -7115.52989378 0 429.14559425 0 510
0.02350000 0.02348930 70733.11119246 0 8808.94232387 0 24789.93875972 0 -10504.10418128 0 -1480.25910500 0 555
0.02450000 0.02439640 62637.24873156 0 1170.65475843 0 23654.47184956 0 2721.84317622 0 13512.88665517 0 592
0.02550000 0.02547300 62343.83212387 0 -165.96750564 0 23175.37235466 0 7489.38694128 0 10514.91077030 0 837
0.02650000 0.02652900 68996.08487491 0 -3735.96847868 0 23795.75471425 0 13556.62233821 0 13555.40438248 0 723
0.02750000 0.02749970 68215.37525195 0 -1402.77497592 0 26578.11921793 0 17462.49564123 0 3964.37946737 0 826
0.02850000 0.02848090 66738.88073738 0 2410.10187095 0 20334.76742244 0 4987.88302895 0 8560.43506564 0 831
0.02950000 0.02946900 62767.01637844 0 6183.66089239 0 21253.21676614 0 -1709.57802432 0 12754.87529809 0 996
0.03050000 0.03053250 63357.72490751 0 3543.45396706 0 27449.95407415 0 -5326.66295143 0 11619.74055768 0 1041
0.03150000 0.03150510 56981.83738394 0 1154.11270515 0 30697.35622021 0 -817.64246963 0 13636.34307690 0 1036
0.03250000 0.03246190 58422.78973584 0 4186.05848256 0 29599.20304469 0 -5307.88428854 0 356.07710831 0 1059
0.03350000 0.03345080 52355.26645847 0 4025.96373801 0 29655.00756178 0 -2861.80843425 0 2985.07662646 0 1302
0.03450000 0.03451200 50424.03156360 0 2527.63459890 0 28146.84619823 0 3420.27435345 0 -2623.86417390 0 1339
0.03550000 0.03553350 48472.31286782 0 973.72238920 0 22393.55549922 0 7885.47721702 0 -5791.85560636 0 1365
0.03650000 0.03647120 47763.24118644 0 64.19888942 0 14689.65333690 0 5334.00390278 0 -8655.98922882 0 1308
0.03750000 0.03744890 45883.93549497 0 1621.27623390 0 12358.15389984 0 5760.89738617 0 -11325.21671750 0 1579
0.03850000 0.03847530 41759.05160703 0 2543.89984406 0 9545.31835826 0 1270.30568179 0 -6809.38011254 0 1662
0.03950000 0.03950240 41320.25537447 0 1770.61975105 0 9948.87138092 0 3893.30621436 0 -5508.79162237 0 1683
0.04050000 0.04050350 40981.11006527 0 895.04577074 0 8109.88002412 0 333.31462295 0 -1629.11543987 0 1822
0.04150000 0.04152450 40512.41855570 0 370.07031241 0 9651.80090604 0 904.43953111 0 -3351.05017869 0 1887
0.04250000 0.04250150 39189.16501662 0 1348.85275406 0 9868.97348503 0 -2204.16770165 0 3388.80680632 0 1920
0.04350000 0.04349210 40959.51903187 0 -270.67183805 0 14349.84368821 0 -1349.28457473 0 678.68700762 0 2005
0.04450000 0.04448520 39808.55086698 0 -220.52970788 0 12903.46589715 0 -816.38133183 0 1258.25899239 0 2151
0.04550000 0.04548030 40875.70153300 0 1041.70424912 0 16932.68489866 0 -797.41001049 0 444.46415564 0 2274
0.04650000 0.04648670 38572.99014046 0 1728.22381932 0 14435.43275906 0 1773.55391713 0 2087.78649548 0 2311
0.04750000 0.04749250 38768.19522702 0 2059.14239117 0 17433.81831995 0 4106.12736970 0 2322.17653957 0 2568
0.04850000 0.04851840 35660.08292717 0 1155.45245645 0 14142.01615137 0 3793.17918102 0 2643.75006927 0 2493
0.04950000 0.04949480 35758.07300182 0 614.39001740 0 14863.26739005 0 3006.16940524 0 2163.74264374 0 2644
0.05050000 0.05050630 34014.51401263 0 778.83950730 0 12042.03902626 0 1038.60731987 0 2859.84863276 0 2829
0.05150000 0.05149060 34360.85633295 0 13.38201178 0 12253.52043030 0 2715.31050458 0 4763.33628163 0 2784
0.05250000 0.05249300 33739.14529439 0 -470.37007402 0 11312.92643696 0 1008.11192286 0 3885.63309326 0 3055
0.05350000 0.05348950 34323.54259831 0 -271.36385835 0 9953.84285477 0 1427.87593629 0 726.51391467 0 3009
0.05450000 0.05448610 34009.64218971 0 -3.02122777 0 8948.57541216 0 17.38111405 0 2622.24761448 0 3336
0.05550000 0.05550870 34516.86538965 0 293.78310165 0 10116.99356097 0 1000.79200892 0 1866.14069726 0 3349
0.05650000 0.05647670 34369.16057657 0 906.51669925 0 8938.64353679 0 -566.07149912 0 3336.72259037 0 3324
0.05750000 0.05747970 34053.48859599 0 -250.64864585 0 10323.32633396 0 1467.95775213 0 3086.84236387 0 3639
0.05850000 0.05849280 34755.47398949 0 -468.52985363 0 10449.83871734 0 228.84280935 0 5016.51606093 0 3846
0.05950000 0.05951020 35317.17302754 0 -421.17352038 0 11401.17286576 0 1119.93243843 0 4753.83622694 0 3787
0.06050000 0.06049470 34945.25363688 0 21.21180627 0 10606.37924563 0 1635.68132848 0 6646.67229933 0 3930
0.06150000 0.06148310 34333.17552091 0 1770.71940197 0 10572.33184681 0 2365.07072591 0 5405.26538532 0 4083
0.06250000 0.06249100 32829.33236404 0 1959.87899917 0 10190.03768780 0 686.66240319 0 7801.00645098 0 4303
0.06350000 0.06350600 31002.62021546 0 2253.52812569 0 9552.55965869 0 273.41334568 0 5905.49087597 0 4470
0.06450000 0.06451750 28750.28790085 0 1215.46445697 0 7773.19277103 0 172.99511020 0 6992.16205065 0 4479
0.06550000 0.06550280 30129.23523376 0 -532.16361160 0 8093.34904316 0 294.70874800 0 4408.12502912 0 4636
0.06650000 0.06648880 28811.96075009 0 -1192.72190179 0 6765.24582582 0 2368.63601450 0 2067.23626062 0 4653
0.06750000 0.06749660 29665.30482386 0 49.63966807 0 6437.07319052 0 -564.69299468 0 719.59038996 0 5220
0.06850000 0.06852730 30018.73343207 0 241.57044673 0 6324.32370689 0 -816.36583058 0 133.53777348 0 5029
0.06950000 0.06949320 29322.61637072 0 525.67080032 0 6264.20098312 0 83.83875774 0 1763.58882479 0 5040
0.07050000 0.07048030 29642.93872773 0 228.60253990 0 7881.43581846 0 -484.66665982 0 1690.43397471 0 5475
0.07150000 0.07148790 29052.11947541 0 107.74446064 0 8580.87457725 0 1344.88886177 0 2498.84655437 0 5509
0.07250000 0.07249820 29313.97995737 0 604.04182262 0 9067.19322794 0 -385.17517793 0 1424.27743072 0 5916
0.07350000 0.07351270 28959.11194693 0 1395.16828877 0 10633.73896025 0 -1408.44400623 0 2829.48831811 0 5721
0.07450000 0.07449140 27671.73274026 0 1258.25899239 0 10998.19560399 0 -1504.50749636 0 2662.81661261 0 6028
0.07550000 0.07549160 27230.05770325 0 634.97236200 0 11446.12650452 0 -348.02309923 0 2533.65794360 0 6183
0.07650000 0.07648840 26162.68559073 0 934.79209514 0 12366.56886670 0 1368.29575644 0 1861.72283966 0 6330
0.07750000 0.07749960 25530.56656683 0 797.03022975 0 10788.04287893 0 1514.06291268 0 1156.26073616 0 6583
0.07850000 0.07848650 25052.24213467 0 792.14844173 0 10855.48440940 0 1500.53253175 0 1348.13305294 0 6549
0.07950000 0.07947320 24598.83043335 0 196.31453350 0 9176.78709899 0 842.39354453 0 1131.41443927 0 6828
0.08050000 0.08048110 24265.33200981 0 -374.78712279 0 9262.66405029 0 524.81158792 0 1129.11139571 0 7147
0.08150000 0.08149960 24777.42703267 0 -182.40769353 0 7878.01447009 0 545.90215223 0 431.89263804 0 7386
0.08250000 0.08250610 24369.07969336 0 245.95065843 0 7553.40712338 0 576.05984334 0 -138.09514237 0 7227
0.08350000 0.08350160 23957.41065660 0 1003.21352636 0 7033.24037573 0 807.53786600 0 524.71636592 0 7798
0.08450000 0.08449610 23769.62402768 0 144.42851217 0 7427.96875551 0 1359.81435563 0 -358.20520914 0 7371
0.08550000 0.08548940 22644.45437961 0 413.49929205 0 6615.45941567 0 823.85958001 0 -521.95714258 0 8256
0.08650000 0.08650700 22450.35652554 0 1515.55767653 0 6845.53125308 0 162.62809247 0 -1490.45671616 0 8037
0.08750000 0.08749060 21323.52602874 0 1074.92897421 0 6313.67213041 0 -728.82581610 0 1005.29623065 0 8155
0.08850000 0.08849210 20660.84738835 0 422.15895729 0 7049.05165557 0 -617.78589942 0 656.83577459 0 8718
0.08950000 0.08949900 20494.43034632 0 -116.32473731 0 7281.76977861 0 113.61644666 0 -121.81218149 0 8571
0.09050000 0.09049190 20655.20050269 0 -21.49581140 0 7662.77954794 0 -161.32820154 0 -301.06979861 0 8932
0.09150000 0.09150830 20737.13570635 0 35.01478784 0 7517.88710536 0 146.96961071 0 -162.95915498 0 9285
0.09250000 0.09250820 20037.36477781 0 349.95411268 0 6634.09413834 0 464.12528282 0 -422.88751626 0 9204
0.09350000 0.09350330 20173.88654282 0 720.38649012 0 7654.63031687 0 59.38132090 0 -571.02747171 0 9349
0.09450000 0.09448040 19406.02081665 0 949.42527962 0 6599.13880889 0 -225.49786002 0 -205.41487727 0 9564
0.09550000 0.09549270 18900.45846543 0 566.43356414 0 7845.31789490 0 -83.72869883 0 543.23482918 0 10155
0.09650000 0.09649430 18188.17580985 0 256.18037933 0 7079.48947649 0 324.07033895 0 37.50174271 0 9913
0.09750000 0.09749140 18006.25751308 0 741.99634647 0 7698.29956596 0 479.76272716 0 -128.45668362 0 10476
0.09850000 0.09850240 17563.25379708 0 620.15316247 0 7441.91988478 0 568.45204896 0 1295.36235286 0 10575
0.09950000 0.09950330 16886.95619716 0 235.79733657 0 7157.70437901 0 976.93004170 0 1116.26749892 0 10882
0.10050000 0.10051200 16890.72078760 0 162.06118944 0 7004.45233120 0 1164.19959306 0 1202.72021110 0 10875
0.10150000 0.10150300 16602.61889582 0 276.58888843 0 6812.39178489 0 1192.65546784 0 1448.47046045 0 11118
0.10250000 0.10250800 16479.82681358 0 -161.43560309 0 5711.39302190 0 926.90859987 0 1040.06000889 0 11575
0.10350000 0.10349800 16545.15353001 0 -334.14947624 0 5277.18073182 0 178.69846471 0 914.55188537 0 11364
0.10450000 0.10450100 17093.78722477 0 -64.07521156 0 5995.57531070 0 -581.31587593 0 417.87286035 0 12093
0.10550000 0.10551000 16861.82201982 0 221.29148383 0 5646.35418592 0 -676.37178450 0 776.17439872 0 12067
0.10650000 0.10649700 16744.01248375 0 416.20093931 0 6158.41599181 0 -534.64824129 0 -83.99078076 0 12054
0.10750000 0.10749900 16302.00527699 0 511.52479813 0 6715.86325713 0 -175.39005406 0 326.19622532 0 12807
0.10850000 0.10850100 16119.75481047 0 446.72180267 0 6452.97304896 0 886.39164166 0 346.53830048 0 12736
0.10950000 0.10950300 15630.57949999 0 206.06925166 0 5967.16372521 0 1573.29985046 0 536.06549886 0 12933
0.11050000 0.11050200 15302.94940860 0 232.16118510 0 5293.55670022 0 1322.83279073 0 548.96365004 0 13428
0.11150000 0.11150900 15032.89540628 0 103.29892223 0 5050.38630255 0 1116.66610261 0 714.43622276 0 13453
0.11250000 0.11250000 14861.60654133 0 324.07919681 0 4480.42731019 0 714.79939501 0 837.16851445 0 13668
0.11350000 0.11349100 14499.65224301 0 151.42511422 0 3890.99209847 0 1.90504885 0 809.64382218 0 13791
0.11450000 0.11448600 14364.12698723 0 308.60783735 0 4141.20449472 0 -436.85525402 0 1062.69405528 0 14205
0.11550000 0.11549300 14169.25407042 0 255.47839394 0 3776.85857424 0 -199.78238563 0 675.97207357 0 14776
0.11650000 0.11649800 13977.37068131 0 22.42300788 0 4496.10572213 0 -296.83463437 0 737.25296251 0 14553
0.11750000 0.11747300 14059.74877797 0 139.36070910 0 4375.97099785 0 -150.71316373 0 -11.48875496 0 14568
0.11850000 0.11849100 13967.84848197 0 26.04199725 0 4690.63539687 0 313.74207436 0 37.78973388 0 16015
0.11950000 0.11950300 13877.83048119 0 197.67200052 0 4008.39195852 0 115.22746992 0 -94.11044275 0 15270
0.12050000 0.12050700 13967.84848197 0 118.44398028 0 4381.66217281 0 241.25488547 0 49.01773559 0 15999
0.12150000 0.12150000 13804.42096765 0 -134.05374381 0 4106.53704571 0 -137.29904222 0 275.95555146 0 15670
0.12250000 0.12250700 13717.39249457 0 209.35441044 0 4072.15747715 0 158.55347694 0 -24.97883262 0 16887
0.12350000 0.12352200 13848.71026692 0 60.88084585 0 4470.03039719 0 49.25667636 0 182.89598305 0 16407
0.12450000 0.12449800 13497.82829342 0 310.52334954 0 4387.84053006 0 139.35960186 0 263.99411895 0 16306
0.12550000 0.12549900 13459.96094254 0 388.11155847 0 4302.30682083 0 -410.03033268 0 624.96187313 0 17523
0.12650000 0.12650100 13187.13885901 0 273.00477689 0 4763.81239160 0 -52.23612824 0 661.47286422 0 17154
0.12750000 0.12750600 13004.88839249 0 204.96866258 0 4632.84893364 0 51.22101750 0 700.20828537 0 18007
0.12850000 0.12850300 12867.92373449 0 175.66575495 0 5189.37719600 0 131.08525353 0 357.34046057 0 17496
0.12950000 0.12949900 12927.82501176 0 242.03880607 0 4966.64630995 0 -300.06553875 0 560.11569560 0 18405
0.13050000 0.13049000 12553.35898639 0 65.60319238 0 4938.00220565 0 136.16412892 0 470.28481711 0 18100
0.13150000 0.13148800 12780.78453816 0 -3.36365048 0 5105.88079455 0 -199.18780179 0 530.86372066 0 19059
0.13250000 0.13249300 12538.07917814 0 115.55742520 0 4765.05249198 0 660.94803603 0 274.63683757 0 18957
0.13350000 0.13349100 12620.90016778 0 86.68489884 0 4698.69604934 0 434.12924765 0 179.52446014 0 19468
0.13450000 0.13450700 12378.19480776 0 81.02273337 0 4309.01664967 0 386.54593174 0 89.34513560 0 19953
0.13550000 0.13551000 12362.47210651 0 -105.40864300 0 4287.53633952 0 529.21172980 0 318.99589249 0 19956
0.13650000 0.13649900 12400.78235039 0 -16.29248308 0 4032.55177128 0 308.14833587 0 355.71504329 0 19723
0.13750000 0.13749600 12513.94151003 0 220.38023149 0 3838.07745816 0 175.79530115 0 796.07358088 0 20946
0.13850000 0.13851100 12162.50592029 0 324.09580530 0 4066.73203799 0 -296.13818513 0 200.28506918 0 20955
0.13950000 0.13949800 11746.07578386 0 522.75988613 0 3907.84417684 0 93.47633071 0 936.98220099 0 20506
0.14050000 0.14048300 11510.89960471 0 105.00262085 0 3798.53818623 0 441.21885723 0 494.27522330 0 21447
0.14150000 0.14148400 11458.08461533 0 -16.62863886 0 3489.99678284 0 888.89398707 0 716.11146551 0 21771
0.14250000 0.14249400 11368.50950755 0 135.73120102 0 3214.09659301 0 562.88709850 0 104.85480531 0 22470
0.14350000 0.14350900 11072.25838470 0 497.32564879 0 2991.22176673 0 159.96741282 0 408.42706005 0 22519
0.14450000 0.14449900 10597.68747065 0 414.36293339 0 2540.88817171 0 -89.38023487 0 551.67747686 0 22218
0.14550000 0.14550500 10338.81651639 0 318.50428127 0 2886.93153926 0 -317.08259476 0 813.72618834 0 23559
0.14650000 0.14650700 10153.43258195 0 145.20800383 0 2879.63487721 0 -67.27987453 0 491.48389021 0 23044
0.14750000 0.14750500 10114.48014323 0 -29.72299164 0 2986.40530544 0 164.63661219 0 404.82412555 0 23649
0.14850000 0.14849900 10271.70715566 0 38.34456808 0 3259.18309967 0 -304.16119170 0 326.79966702 0 23640
0.14950000 0.14949500 10127.46798025 0 166.44583007 0 3541.29486372 0 -134.89413327 0 347.92234108 0 24457
0.15050000 0.15050000 10083.06795772 0 154.92396886 0 3450.96683785 0 -0.57414544 0 690.72483916 0 24591
0.15150000 0.15149900 9856.98215725 0 203.38974906 0 3612.99923925 0 396.32943795 0 951.41829809 0 25020
0.15250000 0.15250500 9995.39728981 0 0.47823364 0 3205.75913242 0 445.99102923 0 903.89477273 0 25297
0.15350000 0.15350100 9869.65996917 0 -75.60781292 0 3484.30560788 0 602.93016121 0 906.81454479 0 25452
0.15450000 0.15450400 9907.60482632 0 95.72157674 0 3070.51068476 0 184.16265701 0 672.02921871 0 26061
0.15550000 0.15549900 9726.26229044 0 129.35354193 0 3037.30478263 0 48.01325428 0 1275.34358959 0 26128
0.15650000 0.15649500 9719.72961880 0 214.72116628 0 2777.23801729 0 -55.43647301 0 669.63316761 0 26331
0.15750000 0.15749700 9526.66149094 0 139.46921788 0 3010.43225029 0 -24.63769429 0 1078.50865682 0 27345
0.15850000 0.15849900 9384.16067052 0 238.76693409 0 2688.67049106 0 38.26484734 0 543.89031081 0 26980
0.15950000 0.15949700 9270.27073744 0 180.32498923 0 2716.87170238 0 143.95461666 0 775.03727096 0 27777
0.16050000 0.16050000 9134.54617981 0 35.38559999 0 2435.63465198 0 134.84209334 0 394.50028989 0 28224
0.16150000 0.16150500 9036.43430959 0 -2.23292253 0 2293.83138803 0 219.06262484 0 287.38108344 0 28075
0.16250000 0.16249700 8915.10377423 0 89.22001833 0 2091.76146009 0 275.53148141 0 88.44905235 0 28590
0.16350000 0.16349900 8840.95241492 0 13.79434515 0 1980.14135359 0 295.54138683 0 -30.75249640 0 29163
0.16450000 0.16449100 8843.57655590 0 95.41177309 0 2073.25960532 0 62.73213856 0 -32.49029778 0 28996
0.16550000 0.16550500 8732.42148705 0 203.00443215 0 1919.73074938 0 103.58071289 0 -207.82864408 0 30777
0.16650000 0.16650700 8467.16180137 0 343.29743100 0 2080.93272642 0 -287.01126779 0 103.94100634 0 29211
0.16750000 0.16749900 8370.67756290 0 226.44454380 0 2071.77591379 0 -366.51388168 0 339.30917960 0 30922
0.16850000 0.16850800 8305.81588411 0 185.79250322 0 2477.16694238 0 -243.99750033 0 282.45722059 0 30867
0.16950000 0.16949900 8173.92235087 0 71.37729905 0 2506.60825407 0 -94.48590529 0 393.80273343 0 30852
0.17050000 0.17049200 8112.05019978 0 57.74771009 0 2625.84612004 0 132.36742874 0 783.62164439 0 31257
0.17150000 0.17149500 8144.48103918 0 94.20776849 0 2568.89008117 0 431.01349545 0 725.04129547 0 32608
0.17250000 0.17250900 8061.42753071 0 11.27550198 0 2469.69312312 0 383.88525209 0 615.70540959 0 32361
0.17350000 0.17350400 7993.02270798 0 -8.13227934 0 2290.50969058 0 90.85141466 0 493.43040492 0 32508
0.17450000 0.17449800 8021.00247280 0 109.82594698 0 2345.09625194 0 -27.63740853 0 420.39402871 0 32791
0.17550000 0.17549800 7938.30327873 0 107.53209345 0 2468.58589064 0 -142.25390757 0 693.90259638 0 33633
0.17650000 0.17650100 7900.65737435 0 71.15552038 0 2205.67353782 0 -18.79471776 0 632.72025113 0 33984
0.17750000 0.17750300 7939.33300494 0 -76.10352090 0 2192.03243365 0 233.92500644 0 715.63092661 0 34069
0.17850000 0.17849800 7967.66708415 0 -21.20206263 0 2112.55528610 0 337.55089442 0 463.77871905 0 34536
