### header ###
fiducial parameters:
Omega_m = 0.31
Omega_nu = 0
Omega_de = 0.69
Omega_k = 0
H_0 = 100
w_de = -1
zeff = 0
beta = 0
fgrowth = 0
b_1 = 2
gamma = 0.55
Lx = 3500 Ly = 3500 Lz = 3500
nx = 700 ny = 700 nz = 700
xoffset = -685.467585 yoffset = -31.7331281 zoffset = 572.489161
bins = 400 dk = 0.001
kx_ny = 0.628318531 ky_ny = 0.628318531 kz_ny = 0.628318531
############################
A(data) = 8.02989605 (not used)
A(ran) = 8.02811582 (used)
Ngal = 477691
weighted Ngal = 0
Nran = 23820508
weighted Nran = 0
SN(data) = 3480.91343
SN(ran) = 69.9278003
SN(data+ran) = 3550.84123
############################
13 columns: k_central k_mean P_0(k) sigma^{lin}_{P_0(k)} P^img_1(k) sigma^{lin}_{P_1(k)} P_2(k) sigma^{lin}_{P_2(k)} P^img_3(k) sigma^{lin}_{P_3(k)} P_4(k) sigma^{lin}_{P_4(k)} N_modes
### header ###
0.00050000 0 0 0 0 0 0 0 0 0 0 0 0
0.00150000 0.00179520 26818.49938974 0 -23850.23055236 0 46780.01874254 0 -74691.24586863 0 -4259.70051493 0 3
0.00250000 0.00253879 52968.78397667 0 -29930.92989626 0 -22486.78447419 0 -3019.27903782 0 -40046.82729707 0 6
0.00350000 0.00331552 54356.47844619 0 -13333.29354661 0 -9838.10384344 0 1118.28266203 0 84823.41958693 0 7
0.00450000 0.00420575 56098.93020291 0 373.66438905 0 -22959.90491369 0 -4844.86180927 0 16931.46694293 0 24
0.00550000 0.00557378 56923.59695540 0 -8838.16218906 0 -25643.94717298 0 23292.96044423 0 17195.76333635 0 45
0.00650000 0.00659388 62335.19571051 0 -13761.23890085 0 -62542.69107761 0 8708.93708611 0 -1324.21683134 0 40
0.00750000 0.00754703 62942.40200357 0 -7453.64547677 0 -45875.52052810 0 27106.04766528 0 17813.48833798 0 57
0.00850000 0.00846663 76583.50618014 0 -10954.05024493 0 -61304.47299314 0 -13452.21031517 0 -3117.29125712 0 75
0.00950000 0.00948925 69065.72979802 0 -4332.48997829 0 -51866.86621072 0 -20656.52918167 0 20225.81574622 0 112
0.01050000 0.01054430 66493.96091239 0 5780.20752065 0 -47629.81967237 0 -19182.47057856 0 28576.67384769 0 105
0.01150000 0.01145670 67671.94554985 0 -1466.61800083 0 -40993.28962257 0 -8098.07692586 0 19492.38495023 0 144
0.01250000 0.01249090 65798.61891378 0 -4652.88984157 0 -36032.77738057 0 -8489.88221189 0 6627.86041947 0 169
0.01350000 0.01339930 71058.41609563 0 4791.82537339 0 -28406.82438497 0 -22670.80651267 0 -16891.05295734 0 180
0.01450000 0.01448870 67115.67195096 0 3817.19505355 0 -23890.31236820 0 -27253.30958537 0 -15263.53193225 0 267
0.01550000 0.01550050 62494.52646465 0 2029.63464553 0 -14791.51872523 0 -24020.74435456 0 -13765.44638429 0 238
0.01650000 0.01653350 64712.86674207 0 -5264.83508964 0 -11458.85967807 0 -20095.38375986 0 -12691.32015363 0 315
0.01750000 0.01747870 67160.40414323 0 -4944.40200939 0 2898.35817848 0 -24104.11896045 0 -21023.57674940 0 297
0.01850000 0.01844180 72838.18158698 0 4010.63964046 0 2879.67916651 0 -8131.73679331 0 -19136.40970731 0 388
0.01950000 0.01947590 67941.99955218 0 7457.31041628 0 18.35857889 0 -5489.35969231 0 -8089.03083648 0 399
0.02050000 0.02045430 66558.40184284 0 4437.76564266 0 10130.88932862 0 1173.09066989 0 -1788.85587003 0 462
0.02150000 0.02154770 66785.93811786 0 -1928.58860924 0 11332.96734488 0 243.89452771 0 1419.27273990 0 571
0.02250000 0.02255340 63323.40070058 0 -265.37926679 0 20611.90771265 0 5779.68712138 0 2441.24832066 0 510
0.02350000 0.02348930 66739.43435362 0 -1166.39191337 0 28426.20095341 0 4065.15976787 0 -317.86208643 0 555
0.02450000 0.02439640 67742.03336595 0 -3592.84760808 0 25393.93407857 0 3194.00032346 0 9032.79151473 0 592
0.02550000 0.02547300 72022.04052460 0 1429.72501453 0 32940.60922847 0 1996.20729690 0 10069.80331259 0 837
0.02650000 0.02652900 66747.29570425 0 3773.80261259 0 30222.24276224 0 -1953.27989358 0 18269.33595077 0 723
0.02750000 0.02749970 71482.92902918 0 6555.93459745 0 43243.51819546 0 2201.69857321 0 6267.11300455 0 826
0.02850000 0.02848090 64024.38958484 0 2991.70894902 0 38998.38886000 0 -9448.25835890 0 7134.75144966 0 831
0.02950000 0.02946900 63992.39056612 0 4531.24928111 0 41985.25920307 0 2087.96365268 0 -2079.59297511 0 996
0.03050000 0.03053250 60826.92362372 0 1252.68961301 0 36403.92170849 0 -4207.56093736 0 -1660.12902168 0 1041
0.03150000 0.03150510 62048.86539070 0 -1049.13267184 0 46194.62492938 0 8313.16790779 0 -6072.43938959 0 1036
0.03250000 0.03246190 59621.92251370 0 540.07257321 0 40977.56692133 0 8094.92131329 0 -6084.67430851 0 1059
0.03350000 0.03345080 59086.90777847 0 4785.06018293 0 34075.85469212 0 10405.01794648 0 -9348.81780970 0 1302
0.03450000 0.03451200 53203.84943257 0 3961.47851826 0 24323.24026861 0 11464.28511723 0 -5582.26756987 0 1339
0.03550000 0.03553350 50257.39307508 0 1783.22005669 0 24260.68163338 0 7071.68348750 0 -2720.43699097 0 1365
0.03650000 0.03647120 49716.06711470 0 951.39615344 0 21628.01496125 0 4407.13959222 0 -3570.28221010 0 1308
0.03750000 0.03744890 48676.04364448 0 -237.11605046 0 19160.43665217 0 2063.75955062 0 -4628.76324579 0 1579
0.03850000 0.03847530 49822.25070971 0 753.52595830 0 17366.16641531 0 -819.72406669 0 -5376.51055776 0 1662
0.03950000 0.03950240 49330.63948776 0 543.13849996 0 20437.96148975 0 -3365.72100907 0 -2168.65875595 0 1683
0.04050000 0.04050350 47360.54073278 0 3416.24402722 0 20071.35681500 0 -38.31434063 0 -5426.82320174 0 1822
0.04150000 0.04152450 45304.07784421 0 2376.04339981 0 19273.70653507 0 1713.71907381 0 -7391.60724081 0 1887
0.04250000 0.04250150 42538.10038127 0 -156.61803456 0 16927.03801300 0 3806.37739221 0 -8987.21782577 0 1920
0.04350000 0.04349210 43381.14719296 0 -54.55301221 0 16576.15603950 0 2013.93408894 0 -11531.82629862 0 2005
0.04450000 0.04448520 42959.29161737 0 -781.20455588 0 15925.32478666 0 -1928.17893322 0 -14347.07560701 0 2151
0.04550000 0.04548030 42739.39524647 0 1906.85363562 0 15762.34016533 0 -1090.13791958 0 -13651.84433165 0 2274
0.04650000 0.04648670 41530.07592978 0 623.24898448 0 12882.76064974 0 -92.16481383 0 -5892.81306406 0 2311
0.04750000 0.04749250 43233.44237988 0 -1452.08003834 0 14149.54533224 0 2869.50370000 0 -11133.00115865 0 2568
0.04850000 0.04851840 43062.04279169 0 -1261.00492895 0 14658.20793441 0 3756.75123237 0 -8544.97810019 0 2493
0.04950000 0.04949480 44188.09822574 0 880.64399785 0 12712.68974053 0 3518.44158530 0 -10022.02623100 0 2644
0.05050000 0.05050630 42257.41694712 0 2155.94772706 0 12220.19273260 0 -1563.52298764 0 -9120.13001290 0 2829
0.05150000 0.05149060 40581.39913932 0 2500.66241564 0 12729.51967425 0 -2680.82021277 0 -3731.73885060 0 2784
0.05250000 0.05249300 38955.42823970 0 1495.70499813 0 14285.18131127 0 280.48523954 0 -5059.84206795 0 3055
0.05350000 0.05348950 37399.65587943 0 2077.94319872 0 13929.09534511 0 279.90172802 0 -2685.20485339 0 3009
0.05450000 0.05448610 37316.17055030 0 1067.25253141 0 14042.14378150 0 3429.57510630 0 -2828.48073655 0 3336
0.05550000 0.05550870 35849.86257456 0 -526.81124978 0 11644.21039553 0 4631.34309747 0 -1070.80010428 0 3349
0.05650000 0.05647670 36435.36711097 0 -445.70314878 0 11647.19992323 0 3961.60031384 0 -1590.16300115 0 3324
0.05750000 0.05747970 35764.16278047 0 736.16566022 0 10070.61159230 0 1175.09476068 0 45.83045617 0 3639
0.05850000 0.05849280 34600.68288853 0 1703.69861985 0 10255.97338209 0 -1256.03345510 0 285.97489818 0 3846
0.05950000 0.05951020 33521.02049546 0 2404.44391297 0 10548.74779495 0 -644.10260105 0 2391.30106341 0 3787
0.06050000 0.06049470 31009.04216385 0 1936.51639381 0 10712.61820226 0 -1945.48497691 0 2440.41789630 0 3930
0.06150000 0.06148310 30920.68501180 0 298.77118398 0 11358.98730820 0 1021.67219906 0 1876.99157558 0 4083
0.06250000 0.06249100 31077.57985448 0 -1545.29794099 0 12641.71613844 0 1566.94433601 0 -625.47341454 0 4303
0.06350000 0.06350600 32532.81550539 0 -1295.99347537 0 12082.01011886 0 1536.22970696 0 -963.23136144 0 4470
0.06450000 0.06451750 32331.63136344 0 715.33418830 0 10764.62491194 0 722.85894025 0 -2008.05468446 0 4479
0.06550000 0.06550280 32091.58336137 0 990.91438795 0 9924.34618145 0 -672.08790203 0 -998.77573857 0 4636
0.06650000 0.06648880 31732.28642101 0 217.39956165 0 9958.90290721 0 -276.36301301 0 -1362.85924495 0 4653
0.06750000 0.06749660 30676.20807980 0 948.07999215 0 11044.03502873 0 -455.86754297 0 -1755.77176347 0 5220
0.06850000 0.06852730 30436.82441723 0 1652.88772125 0 10313.42767558 0 1185.50274601 0 -2021.18646169 0 5029
0.06950000 0.06949320 28572.57708751 0 1101.52912735 0 9389.39788016 0 2355.23850147 0 891.46940982 0 5040
0.07050000 0.07048030 28413.91067286 0 438.71097566 0 10631.46913367 0 2342.77106373 0 1328.59039964 0 5475
0.07150000 0.07148790 28564.05139740 0 107.58114385 0 10217.10952198 0 2085.89312794 0 118.17049386 0 5509
0.07250000 0.07249820 27709.37864465 0 295.63771605 0 10407.87460628 0 106.26597311 0 4176.83523599 0 5916
0.07350000 0.07351270 27802.27544988 0 516.99009766 0 10823.35252277 0 674.66221755 0 5014.19087272 0 5721
0.07450000 0.07449140 27464.56954291 0 385.44312819 0 11760.69125262 0 -3.88870013 0 6335.00850034 0 6028
0.07550000 0.07549160 26898.10940519 0 1033.60373629 0 12454.70457225 0 1060.21274729 0 6768.03605167 0 6183
0.07650000 0.07648840 26189.36989354 0 1125.18072040 0 11029.49706625 0 1129.56536102 0 6671.38572833 0 6330
0.07750000 0.07749960 25391.38744386 0 383.51875814 0 12296.14888085 0 -69.36169304 0 5388.66797041 0 6583
0.07850000 0.07848650 25162.30104337 0 -25.39625927 0 10411.94922181 0 25.70285194 0 3315.25335255 0 6549
0.07950000 0.07947320 25059.88203879 0 -430.77101153 0 10005.38452680 0 622.61343304 0 1959.70184198 0 6828
0.08050000 0.08048110 24872.75974936 0 -188.50633004 0 9556.03636868 0 -679.29044932 0 1690.41183006 0 7147
0.08150000 0.08149960 25482.06978413 0 242.89912571 0 9236.61086999 0 1163.66812147 0 -1215.59732486 0 7386
0.08250000 0.08250610 24463.19445432 0 435.17336788 0 8624.07878870 0 -264.22110161 0 -934.01924687 0 7227
0.08350000 0.08350160 23987.74882660 0 731.45549324 0 7951.09181389 0 525.62318933 0 -1642.77868869 0 7798
0.08450000 0.08449610 24128.14590530 0 1011.22767506 0 8702.16082332 0 -184.51254248 0 -2240.14168498 0 7371
0.08550000 0.08548940 22379.93653969 0 1223.66904966 0 7516.92381311 0 534.99923398 0 -1571.58364011 0 8256
0.08650000 0.08650700 21788.67439437 0 543.81944793 0 7187.57751137 0 528.58171452 0 -1196.51970920 0 8037
0.08750000 0.08749060 21631.22593545 0 86.75443304 0 6577.49241387 0 828.42580677 0 -542.91041007 0 8155
0.08850000 0.08849210 20848.41257077 0 126.63528618 0 6383.72672954 0 1114.09732325 0 -2207.02436145 0 8718
0.08950000 0.08949900 21135.85012307 0 985.71482421 0 5770.54138108 0 1199.32100738 0 -1419.17308898 0 8571
0.09050000 0.09049190 20086.41517675 0 512.90219534 0 5717.77068100 0 176.40981517 0 -2178.08130438 0 8932
0.09150000 0.09150830 19647.95111394 0 363.66054358 0 5636.98699912 0 -68.21006054 0 -948.86612722 0 9285
0.09250000 0.09250820 19787.79457640 0 239.14892929 0 6127.34704837 0 -37.34108328 0 -829.46217637 0 9204
0.09350000 0.09350330 19482.97347414 0 -335.58223507 0 5799.80553558 0 574.33366790 0 -305.09458868 0 9349
0.09450000 0.09448040 19990.97173682 0 288.26908389 0 6093.52109604 0 286.05351169 0 142.46649621 0 9564
0.09550000 0.09549270 19331.94696361 0 367.33987711 0 5691.39640328 0 505.84801720 0 550.86144652 0 10155
0.09650000 0.09649430 18879.08887853 0 891.66981890 0 5836.22241191 0 139.96968696 0 306.23725260 0 9913
0.09750000 0.09749140 18435.19937655 0 553.72917865 0 6083.79959485 0 1.70816077 0 481.70813463 0 10476
0.09850000 0.09850240 17955.32481891 0 221.60815232 0 6743.68800940 0 -92.70525401 0 1120.44176537 0 10575
0.09950000 0.09950330 17585.61989322 0 545.93979814 0 6411.66220506 0 57.15821952 0 790.65589235 0 10882
0.10050000 0.10051200 17147.15583040 0 724.66151473 0 6634.75847783 0 -429.19320525 0 1248.89180559 0 10875
0.10150000 0.10150300 17151.58476032 0 100.43816566 0 6755.22537186 0 92.54215866 0 799.79498925 0 11118
0.10250000 0.10250800 16998.56523133 0 -87.03722021 0 6762.85420366 0 71.70193961 0 977.37182746 0 11575
0.10350000 0.10349800 17174.83664244 0 -178.01640950 0 7198.22908785 0 65.90015213 0 32.20219589 0 11364
0.10450000 0.10450100 17394.84373659 0 -84.98596132 0 7083.84090015 0 326.49739255 0 657.30524116 0 12093
0.10550000 0.10551000 17209.71446562 0 485.01875975 0 7213.50889610 0 -37.77910445 0 659.19528701 0 12067
0.10650000 0.10649700 16944.31083972 0 682.34530374 0 7140.97409621 0 592.91413618 0 1189.22304715 0 12054
0.10750000 0.10749900 16461.00386139 0 510.70323163 0 7242.40766388 0 718.59388073 0 870.34341407 0 12807
0.10850000 0.10850100 15553.29467275 0 345.22290829 0 6860.36816833 0 363.95063849 0 877.13628534 0 12736
0.10950000 0.10950300 15792.01399584 0 170.27796169 0 6250.83668707 0 977.84350850 0 699.53176632 0 12933
0.11050000 0.11050200 15379.79134284 0 -10.19849694 0 6228.19378281 0 169.39992633 0 462.08022442 0 13428
0.11150000 0.11150900 15310.70003598 0 117.86046876 0 5595.68722755 0 -21.85189737 0 -275.78393042 0 13453
0.11250000 0.11250000 15187.90795374 0 37.70193035 0 5570.13230187 0 -34.85911095 0 523.50283912 0 13668
0.11350000 0.11349100 15313.24667068 0 88.65521904 0 5673.23779058 0 -486.25000227 0 -208.97130800 0 13791
0.11450000 0.11448600 15221.56782119 0 299.73890517 0 6060.19339834 0 -228.57264463 0 -176.24373030 0 14205
0.11550000 0.11549300 14853.96663721 0 367.40852553 0 6049.79648534 0 -93.56247340 0 -275.94447913 0 14776
0.11650000 0.11649800 14717.88776519 0 117.97008478 0 6094.30723111 0 239.65382730 0 -513.89206118 0 14553
0.11750000 0.11747300 14805.24840800 0 -290.85779343 0 5927.07083705 0 385.56713823 0 -965.01511296 0 14568
0.11850000 0.11849100 15032.23106679 0 -156.57153080 0 5767.43005781 0 514.68373240 0 -774.22788401 0 16015
0.11950000 0.11950300 14909.77115429 0 297.20334278 0 6090.98553366 0 -147.52765588 0 -732.00689502 0 15270
0.12050000 0.12050700 14847.87685856 0 447.22005728 0 5733.58196084 0 -28.98967156 0 -612.83657022 0 15999
0.12150000 0.12150000 14075.91437220 0 618.19778990 0 5935.22006811 0 351.84526576 0 135.08457725 0 15670
0.12250000 0.12250700 13854.80004557 0 519.64081223 0 5498.83760236 0 404.91159692 0 291.40144458 0 16887
0.12350000 0.12352200 13461.62179126 0 132.06183258 0 6262.19689233 0 662.16045559 0 500.39046830 0 16407
0.12450000 0.12449800 13560.71909839 0 132.31871051 0 5710.51830824 0 664.48896550 0 179.11478413 0 16306
0.12550000 0.12549900 13235.30347197 0 328.76279021 0 5795.37660565 0 -94.09604873 0 352.80080739 0 17523
0.12650000 0.12650100 13064.78966976 0 192.75810277 0 5467.11539175 0 -261.61467635 0 518.64873192 0 17154
0.12750000 0.12750600 13142.73883648 0 -112.83584776 0 5078.10033158 0 259.64601700 0 674.53267135 0 18007
0.12850000 0.12850300 12981.30434063 0 -143.65677113 0 4624.68863025 0 512.28435962 0 146.32630864 0 17496
0.12950000 0.12949900 13270.29201840 0 26.85105202 0 4491.00138039 0 708.35640920 0 -322.70069237 0 18405
0.13050000 0.13049000 12964.14223716 0 203.10297585 0 4377.69828052 0 133.37390307 0 -905.45154160 0 18100
0.13150000 0.13148800 12698.07427177 0 557.15274148 0 4134.26214706 0 8.83759750 0 -286.63259428 0 19059
0.13250000 0.13249300 12419.38385608 0 116.40667252 0 4307.01255888 0 244.69284233 0 263.13047762 0 18957
0.13350000 0.13349100 12398.34643893 0 107.51437773 0 3920.72129061 0 357.20980714 0 350.85318546 0 19468
0.13450000 0.13450700 12321.72595118 0 93.60211232 0 4210.25151229 0 592.66943780 0 419.09413778 0 19953
0.13550000 0.13551000 12052.33628834 0 245.24535134 0 3636.31755532 0 253.36579436 0 457.06889021 0 19956
0.13650000 0.13649900 11856.68830880 0 293.59819382 0 3832.09840276 0 163.90140983 0 212.82226257 0 19723
0.13750000 0.13749600 11635.90615192 0 173.26416769 0 3297.29404169 0 174.56295139 0 67.63031361 0 20946
0.13850000 0.13851100 11517.65372285 0 -2.84046099 0 3248.73082504 0 238.18895873 0 -473.81910320 0 20955
0.13950000 0.13949800 11407.15192116 0 70.21326554 0 2738.80597784 0 -51.92942485 0 -288.16611127 0 20506
0.14050000 0.14048300 11583.75550202 0 13.66856354 0 3127.55530222 0 157.82048904 0 -962.81614926 0 21447
0.14150000 0.14148400 11171.08995603 0 283.49359019 0 2871.89532216 0 192.33292549 0 -910.40087080 0 21771
0.14250000 0.14249400 11106.42757909 0 349.14804744 0 2906.40775862 0 170.32335822 0 -391.43657762 0 22470
0.14350000 0.14350900 10849.02924403 0 300.35120473 0 2915.50920962 0 -10.82752679 0 -75.37750856 0 22519
0.14450000 0.14449900 10580.35928230 0 302.17038770 0 3400.93100200 0 41.10445576 0 150.46182196 0 22218
0.14550000 0.14550500 10452.23033950 0 233.13554968 0 3395.64950306 0 9.59973883 0 501.86530196 0 23559
0.14650000 0.14650700 10247.45876431 0 240.73670067 0 3603.94207755 0 93.21834554 0 602.32007611 0 23044
0.14750000 0.14750500 10108.66717271 0 69.38416986 0 3677.86091804 0 86.73062754 0 722.74600254 0 23649
0.14850000 0.14849900 10140.78798700 0 -9.04635511 0 3807.20781657 0 104.10598398 0 635.96997847 0 23640
0.14950000 0.14949500 10183.80396892 0 -223.97652259 0 3243.68184492 0 243.49703125 0 453.32976612 0 24457
0.15050000 0.15050000 10403.22422986 0 -45.11208373 0 3506.36167892 0 131.74627132 0 443.96479379 0 24591
0.15150000 0.15149900 10389.23988361 0 100.47780459 0 3161.46983314 0 83.69813922 0 -67.90247135 0 25020
0.15250000 0.15250500 10171.29224188 0 372.98676277 0 3077.58590032 0 29.65013574 0 234.49190947 0 25297
0.15350000 0.15350100 9923.47146779 0 408.76033703 0 2944.76229179 0 -131.42185220 0 137.56699248 0 25452
0.15450000 0.15450400 9589.15369221 0 93.00354244 0 2761.09456770 0 253.75886189 0 377.61499455 0 26061
0.15550000 0.15549900 9669.04051578 0 68.07486745 0 2944.51870065 0 253.48426824 0 -167.64717731 0 26128
0.15650000 0.15649500 9450.56140246 0 17.95244601 0 2881.41752151 0 -13.62305629 0 -369.72928481 0 26331
0.15750000 0.15749700 9467.35811921 0 101.49070086 0 2870.01302694 0 146.95853839 0 20.75916963 0 27345
0.15850000 0.15849900 9275.59652567 0 138.51810518 0 2751.84917648 0 -147.57969581 0 -421.63523633 0 26980
0.15950000 0.15949700 9324.48083975 0 15.71306832 0 2721.31170463 0 120.90535809 0 -111.88473506 0 27777
0.16050000 0.16050000 9313.71854003 0 -1.58640948 0 2742.23839853 0 89.07131700 0 -295.44173590 0 28224
0.16150000 0.16150500 9273.21597584 0 66.34559176 0 2498.45902300 0 383.20430411 0 15.28246561 0 28075
0.16250000 0.16249700 9319.65330613 0 81.48300991 0 2557.90633495 0 84.23182527 0 55.44765606 0 28590
0.16350000 0.16349900 9181.55927099 0 62.50637385 0 2300.82909731 0 212.08595297 0 -64.59140334 0 29163
0.16450000 0.16449100 9160.14539479 0 78.23283969 0 2404.98645688 0 322.07732049 0 424.34352698 0 28996
0.16550000 0.16550500 8988.62401103 0 198.18243470 0 2410.54476394 0 112.05081993 0 547.18764914 0 30777
0.16650000 0.16650700 8809.21913199 0 317.38597646 0 2280.19028385 0 331.36478655 0 502.12771606 0 29211
0.16750000 0.16749900 8619.76058202 0 103.33136414 0 2271.25491772 0 -47.20375661 0 714.06751434 0 30922
0.16850000 0.16850800 8617.62362333 0 131.63001191 0 2447.61490744 0 -74.58174058 0 549.69442348 0 30867
0.16950000 0.16949900 8421.77634193 0 170.36211136 0 2390.51492835 0 -79.91516872 0 587.03583893 0 30852
0.17050000 0.17049200 8361.54289492 0 215.96569559 0 2614.00980481 0 -57.23052180 0 760.70857541 0 31257
0.17150000 0.17149500 8234.90871597 0 64.01597462 0 2639.36542864 0 -24.31360735 0 774.93208387 0 32608
0.17250000 0.17250900 8292.82804710 0 -6.31156839 0 2663.80204952 0 274.68666303 0 587.26060713 0 32361
0.17350000 0.17350400 8140.30677272 0 53.87560738 0 2460.72454002 0 255.51714707 0 807.40831980 0 32508
0.17450000 0.17449800 8221.26761179 0 -27.72299760 0 2454.34688093 0 266.10450406 0 551.53353663 0 32791
0.17550000 0.17549800 8212.76406633 0 -36.82633090 0 2335.05365333 0 256.63323741 0 825.33330645 0 33633
0.17650000 0.17650100 8334.52642236 0 40.96494447 0 2108.36994732 0 165.20130076 0 708.18146647 0 33984
0.17750000 0.17750300 8121.25130171 0 154.64494628 0 2157.19889977 0 -15.33040877 0 895.90387591 0 34069
0.17850000 0.17849800 8129.19015860 0 233.13887138 0 2195.46485434 0 -108.45408594 0 951.50355499 0 34536
