### header ###
fiducial parameters:
Omega_m = 0.31
Omega_nu = 0
Omega_de = 0.69
Omega_k = 0
H_0 = 100
w_de = -1
zeff = 0
beta = 0
fgrowth = 0
b_1 = 2
gamma = 0.55
Lx = 3500 Ly = 3500 Lz = 3500
nx = 700 ny = 700 nz = 700
xoffset = -685.467585 yoffset = -31.7331281 zoffset = 572.489161
bins = 400 dk = 0.001
kx_ny = 0.628318531 ky_ny = 0.628318531 kz_ny = 0.628318531
############################
A(data) = 7.96636708 (not used)
A(ran) = 7.95584235 (used)
Ngal = 472606
weighted Ngal = 0
Nran = 23820508
weighted Nran = 0
SN(data) = 3502.19667
SN(ran) = 69.2982722
SN(data+ran) = 3571.49494
############################
13 columns: k_central k_mean P_0(k) sigma^{lin}_{P_0(k)} P^img_1(k) sigma^{lin}_{P_1(k)} P_2(k) sigma^{lin}_{P_2(k)} P^img_3(k) sigma^{lin}_{P_3(k)} P_4(k) sigma^{lin}_{P_4(k)} N_modes
### header ###
0.00050000 0 0 0 0 0 0 0 0 0 0 0 0
0.00150000 0.00179520 16345.40879028 0 -20066.59571533 0 -14684.89223723 0 12594.99092771 0 34311.91665725 0 3
0.00250000 0.00253879 28451.99947023 0 -19268.72398890 0 8158.48753007 0 1186.22244712 0 -1898.69333223 0 6
0.00350000 0.00331552 49214.82297016 0 -21338.14149750 0 10582.58481959 0 -19532.02387308 0 22491.98846685 0 7
0.00450000 0.00420575 61683.03577869 0 -9124.74717235 0 22302.87315895 0 -7620.42790551 0 2734.03380584 0 24
0.00550000 0.00557378 65703.17547385 0 19298.72998916 0 25305.02331028 0 -14237.12742156 0 -1552.97106209 0 45
0.00650000 0.00659388 71970.11132120 0 3489.86391494 0 51956.33059526 0 12156.30541839 0 -5777.84911546 0 40
0.00750000 0.00754703 64773.21091233 0 -3710.18103418 0 32906.17429828 0 5592.74198915 0 -3774.57767533 0 57
0.00850000 0.00846663 73582.68470779 0 -8627.07938872 0 50464.33482594 0 10232.66613835 0 -396.38701404 0 75
0.00950000 0.00948925 91405.03090563 0 -5948.58436417 0 60759.49316557 0 -3205.01728666 0 -19990.86101357 0 112
0.01050000 0.01054430 79952.48245271 0 4960.58974828 0 44721.89500525 0 21766.41902149 0 15291.10202105 0 105
0.01150000 0.01145670 83929.21863457 0 4613.97061983 0 33848.20769385 0 14293.37483164 0 15934.18264651 0 144
0.01250000 0.01249090 82185.77036863 0 -6808.60504981 0 23041.61867085 0 36205.50564774 0 2599.74865044 0 169
0.01350000 0.01339930 84688.66939388 0 -10659.70356195 0 11248.04261352 0 34093.34896533 0 18471.62732520 0 180
0.01450000 0.01448870 89707.97568067 0 472.39077330 0 5915.52240226 0 21747.92823904 0 7257.42173633 0 267
0.01550000 0.01550050 81232.55392499 0 -76.76110627 0 -16270.11698151 0 1589.00040705 0 36559.26642570 0 238
0.01650000 0.01653350 84886.53183839 0 6997.62070679 0 19912.91184685 0 -1841.46048524 0 35371.31669590 0 315
0.01750000 0.01747870 79709.77709268 0 11769.88128222 0 9267.77946435 0 291.18221255 0 51901.63331065 0 297
0.01850000 0.01844180 80025.33835001 0 -1444.49549584 0 44810.58432705 0 -4279.40925311 0 38698.32885741 0 388
0.01950000 0.01947590 82108.04264840 0 4004.69380203 0 44114.24581920 0 531.49373594 0 38435.80403596 0 399
0.02050000 0.02045430 76051.59169585 0 5139.51851734 0 52089.41993958 0 -5551.66366407 0 24033.36680486 0 462
0.02150000 0.02154770 77700.03941485 0 4889.18432552 0 60608.79882479 0 -4177.01239318 0 27032.97032148 0 571
0.02250000 0.02255340 73072.91487314 0 5311.51601108 0 66685.40140851 0 -1407.04889330 0 18846.09335057 0 510
0.02350000 0.02348930 70669.33460151 0 6374.21560252 0 59660.23275757 0 6152.99055265 0 13488.97043356 0 555
0.02450000 0.02439640 68081.51084489 0 1008.56145924 0 51289.55519468 0 6542.84710951 0 17303.93994983 0 592
0.02550000 0.02547300 67655.22633937 0 -644.65178836 0 51859.77992284 0 12436.43523630 0 14722.09524862 0 837
0.02650000 0.02652900 70427.95792046 0 -5753.29069902 0 47080.96453111 0 16850.97114150 0 14935.34822462 0 723
0.02750000 0.02749970 76855.88537068 0 -4878.10092838 0 50294.81753297 0 18536.17897890 0 -2609.61409186 0 826
0.02850000 0.02848090 73892.04546322 0 3459.99078258 0 41493.98015087 0 5809.69312164 0 3311.40018351 0 831
0.02950000 0.02946900 71323.04465880 0 9689.79005249 0 42984.86868770 0 -3469.38011403 0 9629.20229108 0 996
0.03050000 0.03053250 65713.80490567 0 5565.16082802 0 42429.14870505 0 -5953.22366827 0 1932.92896057 0 1041
0.03150000 0.03150510 57027.34463895 0 5533.49397904 0 35219.29367614 0 2953.05546308 0 7479.89795891 0 1036
0.03250000 0.03246190 54591.32245560 0 7015.25892022 0 37556.99361510 0 2055.01241402 0 -9464.80041218 0 1059
0.03350000 0.03345080 51697.90253399 0 475.02377214 0 30574.01052173 0 10378.27828204 0 -2757.75072561 0 1302
0.03450000 0.03451200 51567.69199412 0 -5489.76936833 0 23746.15069906 0 10833.91552065 0 -18560.53809350 0 1339
0.03550000 0.03553350 51502.69744744 0 1458.57949301 0 21476.65628098 0 4074.70411186 0 -14087.87248300 0 1365
0.03650000 0.03647120 52390.14428165 0 3146.03501235 0 22539.93163332 0 976.71856030 0 -19123.56581052 0 1308
0.03750000 0.03744890 48180.66783210 0 2630.66258134 0 22336.53302640 0 -3160.79442133 0 2265.81840624 0 1579
0.03850000 0.03847530 48342.54522095 0 485.30996189 0 27062.53342874 0 -2313.92765758 0 -838.33885918 0 1662
0.03950000 0.03950240 48428.79863128 0 -62.51069206 0 30460.29774584 0 6181.77859717 0 5213.24912831 0 1683
0.04050000 0.04050350 49593.93937195 0 979.47556918 0 30459.74412960 0 4235.64035310 0 9102.58037806 0 1822
0.04150000 0.04152450 48928.93554334 0 1617.27912464 0 30872.63112209 0 5953.12401734 0 10819.08967772 0 1887
0.04250000 0.04250150 46138.70968904 0 1893.42290561 0 28151.60729790 0 7678.95621450 0 15645.41641524 0 1920
0.04350000 0.04349210 44684.24910087 0 982.05542086 0 24436.17798176 0 5718.03641679 0 16913.41905347 0 2005
0.04450000 0.04448520 43308.84491189 0 444.93472944 0 21157.10898672 0 6731.03234213 0 10445.96340366 0 2151
0.04550000 0.04548030 43643.00767492 0 661.09529795 0 18430.10610713 0 4649.09203415 0 12400.89307364 0 2274
0.04650000 0.04648670 42493.14674250 0 482.99473877 0 13489.19188006 0 4917.83950215 0 9760.15467671 0 2311
0.04750000 0.04749250 43062.59640793 0 -496.70338413 0 11300.30398666 0 1401.42415230 0 6744.09768541 0 2568
0.04850000 0.04851840 41479.58612861 0 1030.23774954 0 12620.23582829 0 -1586.27661514 0 4519.14723008 0 2493
0.04950000 0.04949480 41042.11857502 0 3043.11775316 0 14273.11247722 0 -3844.45511726 0 4030.75805466 0 2644
0.05050000 0.05050630 38058.68065264 0 2513.76097590 0 13308.93443201 0 -937.49706409 0 5574.01868788 0 2829
0.05150000 0.05149060 36986.10454745 0 824.57928113 0 17074.85354933 0 -2162.29216918 0 1395.83262826 0 2784
0.05250000 0.05249300 37165.03331652 0 792.41639199 0 17003.76922400 0 1226.16032274 0 4295.77414919 0 3055
0.05350000 0.05348950 37045.23076199 0 -201.01473539 0 17135.97278233 0 2681.81672200 0 2356.31251698 0 3009
0.05450000 0.05448610 35531.20106628 0 896.44641983 0 16967.45199859 0 70.18193086 0 2372.73277469 0 3336
0.05550000 0.05550870 35651.66796031 0 1434.08751051 0 16944.20011647 0 1756.46931993 0 3443.33800605 0 3349
0.05650000 0.05647670 34744.95528091 0 40.56501210 0 17439.79737535 0 943.43293743 0 2654.87775572 0 3324
0.05750000 0.05747970 32738.42857728 0 1482.61751019 0 16490.56696865 0 2106.15548235 0 2192.02136132 0 3639
0.05850000 0.05849280 34370.37853230 0 498.54803345 0 17339.70355899 0 -170.26910383 0 1564.34233968 0 3846
0.05950000 0.05951020 32316.57300169 0 128.25738177 0 16265.79877483 0 1221.86426071 0 4680.43778571 0 3787
0.06050000 0.06049470 33556.34121163 0 486.88001755 0 16386.15494561 0 419.37426760 0 2240.96103702 0 3930
0.06150000 0.06148310 32881.04012094 0 171.62435639 0 16068.26850007 0 1528.64516446 0 6289.67840253 0 4083
0.06250000 0.06249100 32633.68438449 0 -494.52324338 0 15071.42709664 0 2713.23997983 0 2927.16836766 0 4303
0.06350000 0.06350600 33238.01187309 0 323.12254795 0 15367.94395529 0 1692.68165665 0 1582.46773541 0 4470
0.06450000 0.06451750 32557.61751299 0 1591.41417386 0 13886.79906430 0 923.53154080 0 1706.33383315 0 4479
0.06550000 0.06550280 31462.12169543 0 66.34603465 0 13869.85840733 0 233.84307124 0 5494.32009383 0 4636
0.06650000 0.06648880 31859.06454018 0 153.11475099 0 14817.87085830 0 459.59338027 0 6489.51172086 0 4653
0.06750000 0.06749660 32224.89415219 0 549.38329115 0 15504.02282731 0 1434.80721162 0 6635.13493687 0 5220
0.06850000 0.06852730 31450.05286138 0 488.67484141 0 15303.39230160 0 1938.05544696 0 7633.60397204 0 5029
0.06950000 0.06949320 30301.96350093 0 1472.54169461 0 15702.77105780 0 2236.23315432 0 9803.11529701 0 5040
0.07050000 0.07048030 29637.95618156 0 1297.83148129 0 15715.17206160 0 2180.17397377 0 9507.83853875 0 5475
0.07150000 0.07148790 28180.94895867 0 965.92636530 0 13634.46078168 0 3647.34559084 0 10674.13080119 0 5509
0.07250000 0.07249820 27270.02879584 0 -44.12631465 0 11676.32013750 0 1372.11570850 0 9166.16873949 0 5916
0.07350000 0.07351270 26919.36826884 0 -413.43285810 0 10379.68446729 0 1983.21945989 0 8356.28354063 0 5721
0.07450000 0.07449140 27401.12512170 0 -6.55226966 0 10178.75498881 0 807.03186075 0 6745.47065369 0 6028
0.07550000 0.07549160 27278.22231621 0 104.30882897 0 7263.68867218 0 557.81929543 0 4514.09824996 0 6183
0.07650000 0.07648840 27691.10930870 0 -165.65637331 0 7230.53813167 0 -46.37056417 0 4398.35923863 0 6330
0.07750000 0.07749960 27616.70328592 0 -486.79918958 0 8013.40685797 0 -669.61323743 0 2346.92318553 0 6583
0.07850000 0.07848650 27960.16680179 0 802.03713503 0 7223.90580910 0 196.66774066 0 1094.74732840 0 6549
0.07950000 0.07947320 26781.62854809 0 665.42236249 0 8063.58663405 0 491.32334150 0 1133.65104888 0 6828
0.08050000 0.08048110 26491.09074485 0 821.53217734 0 6474.14333401 0 184.66755502 0 -333.92802974 0 7147
0.08150000 0.08149960 25099.74240814 0 1343.88128021 0 7267.34253937 0 77.28515940 0 -924.24349128 0 7386
0.08250000 0.08250610 24175.09256254 0 1631.60671295 0 6014.47576916 0 -108.53757127 0 -1088.67305100 0 7227
0.08350000 0.08350160 22812.53227035 0 1155.77355387 0 6586.83745601 0 284.91638393 0 1660.85979512 0 7798
0.08450000 0.08449610 22257.36590395 0 558.27879691 0 5864.16895975 0 1358.29744713 0 37.92691999 0 7371
0.08550000 0.08548940 21191.21174716 0 459.65095636 0 5911.23741255 0 1391.30404741 0 825.56139634 0 8256
0.08650000 0.08650700 21365.82230955 0 435.81777719 0 6331.29927152 0 -620.56616018 0 -768.45145216 0 8037
0.08750000 0.08749060 20283.39183528 0 789.13012599 0 7011.63827001 0 -136.61477254 0 1761.46293842 0 8155
0.08850000 0.08849210 20088.96181146 0 285.55414984 0 6733.30216872 0 14.06594928 0 548.31702627 0 8718
0.08950000 0.08949900 20429.43579964 0 -472.97428481 0 6885.53556265 0 -266.34145182 0 957.99858073 0 8571
0.09050000 0.09049190 20359.34798353 0 -9.88046656 0 7440.80157998 0 -276.83026512 0 -131.57797198 0 8932
0.09150000 0.09150830 20894.14127227 0 249.50266023 0 6969.19804898 0 -470.81961040 0 -475.20978719 0 9285
0.09250000 0.09250820 20029.06053419 0 394.55343705 0 7759.54059453 0 -190.58017648 0 -653.35020674 0 9204
0.09350000 0.09350330 20166.68953169 0 903.90916675 0 7193.58978375 0 -231.74154399 0 -785.59583991 0 9349
0.09450000 0.09448040 19415.98590899 0 699.71778138 0 8401.79079564 0 -33.91940274 0 -815.33278267 0 9564
0.09550000 0.09549270 19018.15727825 0 491.81716719 0 8154.60114406 0 -302.12831286 0 -930.26129982 0 10155
0.09650000 0.09649430 18469.96647648 0 398.85171355 0 8607.17134870 0 83.41878446 0 -462.63716236 0 9913
0.09750000 0.09749140 18381.16643143 0 271.01175842 0 8335.64472717 0 349.71605770 0 -455.48333330 0 10476
0.09850000 0.09850240 17969.82956442 0 335.23567130 0 8106.81299014 0 331.96601378 0 -190.88134371 0 10575
0.09950000 0.09950330 17874.27540124 0 227.88062433 0 8083.68290360 0 834.28749553 0 -450.08446772 0 10882
0.10050000 0.10051200 17587.05929544 0 -182.22942910 0 6864.18812040 0 1097.54862658 0 -573.83209159 0 10875
0.10150000 0.10150300 17761.00551834 0 -3.38095653 0 6689.03501409 0 982.82605467 0 -199.85214128 0 11118
0.10250000 0.10250800 17236.84166143 0 419.75958450 0 6333.33657929 0 583.31221610 0 -932.99616405 0 11575
0.10350000 0.10349800 17045.95478155 0 320.91361915 0 5798.90867727 0 787.26886819 0 -235.09313671 0 11364
0.10450000 0.10450100 16291.37584516 0 385.20728767 0 5732.35293278 0 150.03221576 0 -677.98945116 0 12093
0.10550000 0.10551000 16280.63569009 0 628.84493745 0 5433.61053685 0 543.65336306 0 91.05259881 0 12067
0.10650000 0.10649700 15753.59302872 0 223.75729056 0 5326.69616840 0 519.03958499 0 -65.91354965 0 12054
0.10750000 0.10749900 15660.69622349 0 20.61666881 0 4643.85482451 0 1224.61019727 0 -16.19382866 0 12807
0.10850000 0.10850100 15553.18394950 0 -91.59492128 0 4435.71726257 0 381.95534587 0 -815.59741123 0 12736
0.10950000 0.10950300 15552.74105651 0 168.21075864 0 4037.45681117 0 286.98137251 0 -393.97324723 0 12933
0.11050000 0.11050200 15290.76985130 0 225.89203479 0 4002.46826474 0 -240.10779262 0 201.77761857 0 13428
0.11150000 0.11150900 14980.63403313 0 304.77681296 0 3942.87701257 0 227.43994580 0 344.49877824 0 13453
0.11250000 0.11250000 15254.56334915 0 140.84329339 0 4330.71840632 0 -180.47335838 0 411.37783461 0 13668
0.11350000 0.11349100 14757.19451829 0 196.19605962 0 4302.87150940 0 -18.67225785 0 426.93445098 0 13791
0.11450000 0.11448600 14712.24087953 0 296.48474890 0 4456.92076460 0 18.29867761 0 360.30341469 0 14205
0.11550000 0.11549300 14602.95703357 0 110.23861253 0 4328.24927788 0 -36.42916661 0 584.41834135 0 14776
0.11650000 0.11649800 14424.69260399 0 231.12149380 0 4376.52461409 0 285.45339168 0 31.83647700 0 14553
0.11750000 0.11747300 14157.29595962 0 227.98470418 0 4066.21163872 0 471.33225904 0 606.48105578 0 14568
0.11850000 0.11849100 14205.68201908 0 46.46069289 0 3886.35279437 0 99.38175515 0 223.73182422 0 16015
0.11950000 0.11950300 14112.56376735 0 47.88547965 0 3935.93466491 0 85.22877740 0 -270.43156860 0 15270
0.12050000 0.12050700 14074.58569322 0 152.74825704 0 3759.82933867 0 -69.80259301 0 -711.16877971 0 15999
0.12150000 0.12150000 13947.91829730 0 259.88407198 0 3958.10145920 0 -585.73151907 0 -429.84868688 0 15670
0.12250000 0.12250700 13733.66881206 0 294.99884291 0 4173.69069574 0 -494.31619090 0 -605.10698027 0 16887
0.12350000 0.12352200 13447.55993874 0 433.67749680 0 4522.16997476 0 -426.54913408 0 -644.99060150 0 16407
0.12450000 0.12449800 13242.27903660 0 272.67039268 0 4526.58783236 0 -11.22191193 0 -752.05001740 0 16306
0.12550000 0.12549900 13198.76480007 0 139.67073419 0 4664.79259075 0 287.53388152 0 -851.06096040 0 17523
0.12650000 0.12650100 13039.54476918 0 -51.04851068 0 4790.52991139 0 462.47882812 0 -256.86575624 0 17154
0.12750000 0.12750600 12944.32277573 0 25.21268012 0 4411.55744982 0 590.64430959 0 -457.94803280 0 18007
0.12850000 0.12850300 13180.71691061 0 48.38174125 0 4953.90206409 0 612.36710365 0 67.65345477 0 17496
0.12950000 0.12949900 12956.17016329 0 108.11837305 0 4061.59447928 0 226.80439435 0 28.17674148 0 18405
0.13050000 0.13049000 12864.38059054 0 240.04800207 0 4969.79085020 0 32.50502397 0 244.08054277 0 18100
0.13150000 0.13148800 12807.80101072 0 165.46592932 0 4498.57485057 0 -129.27603565 0 531.65760635 0 19059
0.13250000 0.13249300 12625.99343720 0 154.02711055 0 4778.67145151 0 224.47588444 0 833.62979943 0 18957
0.13350000 0.13349100 12669.28622724 0 43.11928671 0 4499.88138490 0 201.31147369 0 1042.52027946 0 19468
0.13450000 0.13450700 12432.11702962 0 89.26320039 0 4328.71431552 0 621.59810085 0 576.53373884 0 19953
0.13550000 0.13551000 12449.83274933 0 305.02151134 0 4151.03671916 0 481.93622452 0 263.54458257 0 19956
0.13650000 0.13649900 12025.87343203 0 323.59755068 0 3671.79328403 0 146.89542614 0 563.71641563 0 19723
0.13750000 0.13749600 11706.32613776 0 192.61748424 0 3718.87280916 0 -109.47473284 0 755.97183485 0 20946
0.13850000 0.13851100 11718.39497181 0 334.80052894 0 3507.03709073 0 404.12103293 0 981.33904144 0 20955
0.13950000 0.13949800 11463.28860799 0 68.70643286 0 3505.08836157 0 -342.64416384 0 189.78075462 0 20506
0.14050000 0.14048300 11367.73444481 0 148.26507272 0 3619.52083857 0 280.24497009 0 440.79700166 0 21447
0.14150000 0.14148400 11358.54441521 0 135.88067741 0 3708.76377660 0 -24.38823482 0 634.70109004 0 21771
0.14250000 0.14249400 11155.03508504 0 148.63267390 0 3344.89396609 0 291.59521026 0 602.48616098 0 22470
0.14350000 0.14350900 11176.51539519 0 -5.96542537 0 3225.02497760 0 320.76967893 0 426.89569785 0 22519
0.14450000 0.14449900 10861.13129506 0 136.79414420 0 3018.33789021 0 451.38768035 0 267.15969662 0 22218
0.14550000 0.14550500 10925.07397088 0 134.67379400 0 3111.51150356 0 210.49375266 0 207.71349190 0 23559
0.14650000 0.14650700 10734.10958474 0 145.08067210 0 2962.26763733 0 88.48680898 0 75.78784892 0 23044
0.14750000 0.14750500 10639.54085846 0 251.81456165 0 2841.18069311 0 -255.63562095 0 -190.65989721 0 23649
0.14850000 0.14849900 10353.81951651 0 287.21499856 0 3193.29169467 0 -704.10020754 0 -229.91461039 0 23640
0.14950000 0.14949500 10232.22324536 0 415.23875428 0 3410.87394968 0 -441.65510683 0 37.19980042 0 24457
0.15050000 0.15050000 10034.65975362 0 118.98320250 0 3547.94933094 0 -266.49978606 0 116.91599946 0 24591
0.15150000 0.15149900 9937.11257196 0 64.29189695 0 3621.35884449 0 289.92882538 0 -112.88567322 0 25020
0.15250000 0.15250500 9989.79469345 0 -24.89147198 0 3529.03780015 0 653.18855079 0 -35.61512929 0 25297
0.15350000 0.15350100 9935.54030184 0 -20.71089430 0 3277.29742307 0 652.59396695 0 257.05620022 0 25452
0.15450000 0.15450400 9912.25520275 0 40.04095896 0 3087.00844874 0 720.24919329 0 539.50899188 0 26061
0.15550000 0.15549900 9817.90792297 0 109.28495319 0 3088.07139192 0 204.83025852 0 784.17858233 0 26128
0.15650000 0.15649500 9674.04520660 0 187.20865357 0 2800.43453778 0 326.02349705 0 835.48441384 0 26331
0.15750000 0.15749700 9488.46197031 0 117.16512677 0 2884.41812153 0 262.22808314 0 1266.46358508 0 27345
0.15850000 0.15849900 9425.26114025 0 -11.66546926 0 2505.62281716 0 419.84041247 0 1001.01788434 0 26980
0.15950000 0.15949700 9471.48809637 0 54.24010831 0 2608.80581215 0 161.90949859 0 737.07469808 0 27777
0.16050000 0.16050000 9291.79533688 0 250.29543869 0 2323.95918386 0 -117.26367046 0 457.05781789 0 28224
0.16150000 0.16150500 9100.36591310 0 430.75218858 0 2488.05103767 0 -192.65955908 0 882.18526546 0 28075
0.16250000 0.16249700 8877.31392962 0 225.45578519 0 2521.71090512 0 -113.69838187 0 1029.07072650 0 28590
0.16350000 0.16349900 8720.23085742 0 35.42058854 0 2542.46044183 0 102.22457455 0 722.99623708 0 29163
0.16450000 0.16449100 8772.75796636 0 33.28296551 0 2570.57307455 0 233.58840777 0 926.41809588 0 28996
0.16550000 0.16550500 8752.49561194 0 -26.37095602 0 2654.58987527 0 4.29083589 0 688.21474313 0 30777
0.16650000 0.16650700 8682.52959141 0 100.51899363 0 2330.20397506 0 169.68891401 0 967.53517409 0 29211
0.16750000 0.16749900 8795.44515991 0 43.93088812 0 2368.48100196 0 -0.82209354 0 421.79799950 0 30922
0.16850000 0.16850800 8601.55768002 0 46.55713284 0 2152.82533146 0 27.54030424 0 293.86392962 0 30867
0.16950000 0.16949900 8712.98955699 0 -28.99864015 0 2108.19279012 0 90.10015743 0 123.43981324 0 30852
0.17050000 0.17049200 8606.77274500 0 50.63053042 0 1988.60060975 0 -54.69185916 0 36.95620927 0 31257
0.17150000 0.17149500 8597.63807703 0 218.07940240 0 1967.82892839 0 -29.55867834 0 -44.73385312 0 32608
0.17250000 0.17250900 8473.80519626 0 147.16116193 0 2121.91140057 0 -80.54972365 0 -170.24142302 0 32361
0.17350000 0.17350400 8257.67341580 0 225.16015412 0 2239.85380454 0 -209.43634564 0 27.75698964 0 32508
0.17450000 0.17449800 8288.56520204 0 255.52711216 0 2510.26212126 0 -145.06406361 0 -253.71789429 0 32791
0.17550000 0.17549800 7956.21830029 0 203.00443215 0 2577.52649453 0 -20.26490105 0 195.10654286 0 33633
0.17650000 0.17650100 7873.05406857 0 180.70034104 0 2523.42711547 0 29.77126697 0 244.87221399 0 33984
0.17750000 0.17750300 7905.93887328 0 -140.08816084 0 2231.79315207 0 428.98504554 0 224.63311146 0 34069
0.17850000 0.17849800 7982.36005918 0 -54.78918490 0 2256.63944896 0 464.47516828 0 259.22748312 0 34536
