### header ###
fiducial parameters:
Omega_m = 0.31
Omega_nu = 0
Omega_de = 0.69
Omega_k = 0
H_0 = 100
w_de = -1
zeff = 0
beta = 0
fgrowth = 0
b_1 = 2
gamma = 0.55
Lx = 3500 Ly = 3500 Lz = 3500
nx = 700 ny = 700 nz = 700
xoffset = -685.467585 yoffset = -31.7331281 zoffset = 572.489161
bins = 400 dk = 0.001
kx_ny = 0.628318531 ky_ny = 0.628318531 kz_ny = 0.628318531
############################
A(data) = 8.02746024 (not used)
A(ran) = 8.02753979 (used)
Ngal = 476983
weighted Ngal = 0
Nran = 23820508
weighted Nran = 0
SN(data) = 3489.72676
SN(ran) = 69.9227829
SN(data+ran) = 3559.64955
############################
13 columns: k_central k_mean P_0(k) sigma^{lin}_{P_0(k)} P^img_1(k) sigma^{lin}_{P_1(k)} P_2(k) sigma^{lin}_{P_2(k)} P^img_3(k) sigma^{lin}_{P_3(k)} P_4(k) sigma^{lin}_{P_4(k)} N_modes
### header ###
0.00050000 0 0 0 0 0 0 0 0 0 0 0 0
0.00150000 0.00179520 48946.09764681 0 -22842.64899386 0 27518.60248802 0 5686.63530361 0 -61727.21435472 0 3
0.00250000 0.00253879 89837.07898806 0 -17018.38469276 0 17649.95010041 0 -12498.21880879 0 68614.31111517 0 6
0.00350000 0.00331552 91347.78698631 0 -14954.83551630 0 -10604.75161388 0 848.14008111 0 52567.74437174 0 7
0.00450000 0.00420575 87269.96047885 0 262.69422802 0 18996.34479836 0 -37006.36690187 0 25358.50263915 0 24
0.00550000 0.00557378 110804.07615764 0 -7159.40951704 0 29330.36699810 0 -7673.66364324 0 -31449.27779864 0 45
0.00650000 0.00659388 90529.09928922 0 8896.95623385 0 98766.79823105 0 9601.56576834 0 8744.67855062 0 40
0.00750000 0.00754703 96642.12982160 0 33734.38419471 0 32869.52490313 0 -32311.70117877 0 -35572.83300760 0 57
0.00850000 0.00846663 73350.38733309 0 16704.15211440 0 74999.49939158 0 8512.21509105 0 4612.11046926 0 75
0.00950000 0.00948925 75011.78967213 0 6191.04613305 0 69877.88482347 0 8043.95540215 0 -1769.67860344 0 112
0.01050000 0.01054430 72316.56436478 0 -7097.51522130 0 46175.02691445 0 37344.18353209 0 -3523.16946799 0 105
0.01150000 0.01145670 76685.48229172 0 -12198.49097595 0 35541.16615862 0 46666.97030614 0 -9856.27352846 0 144
0.01250000 0.01249090 90948.51895335 0 -7893.38285694 0 31152.09660051 0 21958.96675008 0 -17386.98238597 0 169
0.01350000 0.01339930 86099.72646877 0 -6150.24461609 0 18308.31053413 0 6992.92604106 0 -15612.53161053 0 180
0.01450000 0.01448870 89837.18971131 0 10705.25510626 0 28859.35030031 0 -12886.96813317 0 -13519.19788032 0 267
0.01550000 0.01550050 75419.80484170 0 3818.85590228 0 26552.76359409 0 1850.56193624 0 9646.63013035 0 238
0.01650000 0.01653350 82494.79895432 0 -4281.95588782 0 12659.21041165 0 1527.61543825 0 -15264.74988798 0 315
0.01750000 0.01747870 84105.15787594 0 -8140.72752106 0 12351.84267469 0 1198.64559557 0 -7608.28156518 0 297
0.01850000 0.01844180 102089.38146263 0 -7398.61602242 0 24110.43018560 0 5113.21067358 0 -37949.28608343 0 388
0.01950000 0.01947590 92730.60963291 0 5770.29778994 0 7376.73710858 0 -10927.43237607 0 -14415.28112789 0 399
0.02050000 0.02045430 89403.15457842 0 9547.72105274 0 15982.34725948 0 -5351.40959740 0 -23475.65380374 0 462
0.02150000 0.02154770 80214.89655091 0 12209.56330077 0 14517.81085571 0 -3015.89090643 0 -7590.88694289 0 571
0.02250000 0.02255340 71691.08873577 0 4602.13430460 0 10686.66467289 0 9264.67921340 0 -5725.10056003 0 510
0.02350000 0.02348930 78488.61038843 0 -11823.36061110 0 12361.80776703 0 21988.30841085 0 -4571.34216928 0 555
0.02450000 0.02439640 77371.41281423 0 -6771.66777421 0 2266.21700993 0 2771.51362536 0 -7763.69271634 0 592
0.02550000 0.02547300 88846.10591679 0 -931.52243762 0 10922.19516643 0 8337.23914194 0 -19379.77940683 0 837
0.02650000 0.02652900 79175.86958993 0 6384.85610667 0 2422.77968287 0 -11158.79967548 0 -1768.08418867 0 723
0.02750000 0.02749970 74992.30238045 0 14640.16004496 0 6515.09986351 0 -4560.54665258 0 7291.23661633 0 826
0.02850000 0.02848090 66838.97455374 0 7657.37625343 0 8187.10948973 0 -4635.45092998 0 5200.81490754 0 831
0.02950000 0.02946900 59450.08003252 0 2680.00086073 0 13754.04188972 0 67.32792842 0 10880.27534467 0 996
0.03050000 0.03053250 59556.48507402 0 4817.98927694 0 17666.78003414 0 1196.04359923 0 5206.66109505 0 1041
0.03150000 0.03150510 58937.76356316 0 537.34103068 0 19911.36172137 0 -256.36639439 0 14353.38683216 0 1036
0.03250000 0.03246190 57703.53151562 0 116.28709141 0 26181.84071267 0 653.68237648 0 11342.48954422 0 1059
0.03350000 0.03345080 57273.92531266 0 1067.38539931 0 22416.25376509 0 4099.78292757 0 12717.56156345 0 1302
0.03450000 0.03451200 56434.31092166 0 1198.44629372 0 25131.18781063 0 6702.97507104 0 8535.12373110 0 1339
0.03550000 0.03553350 52005.71316395 0 3289.85343942 0 21607.97405333 0 3074.33063682 0 5022.28474216 0 1365
0.03650000 0.03647120 51685.72297669 0 2741.29725093 0 18981.95077609 0 8654.66054985 0 9069.70664567 0 1308
0.03750000 0.03744890 47978.81935065 0 -341.97982435 0 15272.72196185 0 143.80624751 0 1824.94057661 0 1579
0.03850000 0.03847530 46912.77591712 0 2410.24581117 0 16208.77630202 0 1191.03890842 0 -974.29704286 0 1662
0.03950000 0.03950240 45574.13184654 0 3765.86375569 0 16431.66220062 0 -2587.41408060 0 2481.46300441 0 1683
0.04050000 0.04050350 41786.28952608 0 3044.00353914 0 17844.15867773 0 -1737.03738987 0 5248.31518101 0 1822
0.04150000 0.04152450 42373.23346472 0 386.33555757 0 19682.82893711 0 2326.00756395 0 4325.41476273 0 1887
0.04250000 0.04250150 42857.86912203 0 -1088.78155979 0 22169.78381463 0 335.15927226 0 4664.05074498 0 1920
0.04350000 0.04349210 44568.43258326 0 -1733.77105405 0 21003.64656473 0 1174.66294001 0 702.80031661 0 2005
0.04450000 0.04448520 44420.72777018 0 1307.97373083 0 23826.09288425 0 -2798.24221747 0 4633.13681409 0 2151
0.04550000 0.04548030 45238.75112778 0 1257.73859312 0 23509.53511769 0 -1125.96685546 0 3671.93722426 0 2274
0.04650000 0.04648670 43562.95476648 0 1670.78059816 0 25747.14124029 0 378.63254120 0 3745.70105220 0 2311
0.04750000 0.04749250 43153.72164118 0 1145.28806227 0 24293.78788459 0 3843.86828404 0 3230.11824702 0 2568
0.04850000 0.04851840 41131.14006656 0 132.82914469 0 24098.47207479 0 2318.75519120 0 2755.61376692 0 2493
0.04950000 0.04949480 42496.46843995 0 794.20125075 0 22626.51721340 0 4009.56562495 0 4517.33136881 0 2644
0.05050000 0.05050630 40663.11289648 0 1220.67952196 0 22277.84970486 0 3707.57903785 0 3631.23535822 0 2829
0.05150000 0.05149060 39064.04774617 0 1421.63114509 0 18127.83163958 0 4207.85989013 0 7303.25008876 0 2784
0.05250000 0.05249300 38139.28717732 0 78.39914600 0 16661.63438710 0 3934.11880364 0 5357.88690742 0 3055
0.05350000 0.05348950 37426.00801250 0 816.49759124 0 15149.92987961 0 4299.70482450 0 3026.37639803 0 3009
0.05450000 0.05448610 36136.63578737 0 1425.52860343 0 13728.57554264 0 2072.18558981 0 4236.60364536 0 3336
0.05550000 0.05550870 35831.26106887 0 944.75829471 0 13052.16721947 0 2479.95716823 0 6710.69248144 0 3349
0.05650000 0.05647670 35024.31003609 0 -897.41303378 0 11207.40718143 0 -579.34278765 0 7886.21906278 0 3324
0.05750000 0.05747970 36113.16245875 0 -278.71366757 0 12487.47865372 0 392.02451806 0 3113.44916040 0 3639
0.05850000 0.05849280 36015.17238411 0 939.99387334 0 14321.16636693 0 -2825.85659557 0 6538.88321722 0 3846
0.05950000 0.05951020 35610.58963523 0 1420.08101962 0 16727.73616627 0 480.68615905 0 4215.42228798 0 3787
0.06050000 0.06049470 34514.76164793 0 929.68664617 0 15157.90195348 0 -2093.69911693 0 5965.59145509 0 3930
0.06150000 0.06148310 33621.88937456 0 773.91564445 0 14887.84795115 0 2925.69574846 0 1791.76789145 0 4083
0.06250000 0.06249100 33058.30804129 0 550.51266829 0 13079.84803152 0 1964.27471213 0 1695.58260575 0 4303
0.06350000 0.06350600 31959.49052629 0 651.47344768 0 12278.98677738 0 3222.48941522 0 45.08484581 0 4470
0.06450000 0.06451750 31522.57658894 0 982.77512197 0 10434.08279913 0 1612.27443382 0 -1963.76538519 0 4479
0.06550000 0.06550280 30388.21691127 0 195.47857298 0 9030.04557817 0 -364.05028941 0 -2187.60350372 0 4636
0.06650000 0.06648880 30403.05382653 0 514.46560761 0 7893.78146063 0 369.68942444 0 -2064.85571078 0 4653
0.06750000 0.06749660 29974.33340955 0 323.10372500 0 9798.08846154 0 -1446.72103313 0 -2083.44614415 0 5220
0.06850000 0.06852730 29445.74062271 0 409.36599319 0 8602.10022393 0 443.49089829 0 -1715.95568342 0 5029
0.06950000 0.06949320 29725.20610113 0 294.11637862 0 10149.61262988 0 -417.23066551 0 -2154.25366137 0 5040
0.07050000 0.07048030 29298.25725612 0 4.23547427 0 9249.45476678 0 1278.96423980 0 -58.80899243 0 5475
0.07150000 0.07148790 29325.49517518 0 -46.02012509 0 10331.91845802 0 2293.63208618 0 1588.31392291 0 5509
0.07250000 0.07249820 29563.32871228 0 389.08260136 0 9717.31585199 0 1660.40582980 0 2112.61064772 0 5916
0.07350000 0.07351270 29123.31452399 0 1105.77314945 0 9173.65363107 0 1279.50678372 0 3708.27659431 0 5721
0.07450000 0.07449140 27193.96192434 0 1363.72288629 0 8236.30382890 0 477.82396308 0 4334.33905653 0 6028
0.07550000 0.07549160 26216.93998234 0 1329.42082400 0 7580.87756126 0 865.17706731 0 3574.88829722 0 6183
0.07650000 0.07648840 25412.20341452 0 129.59048968 0 7501.52220928 0 670.35619043 0 3392.01778052 0 6330
0.07750000 0.07749960 25599.65787370 0 -503.54718810 0 7449.93624795 0 184.81370971 0 1291.26559268 0 6583
0.07850000 0.07848650 25733.63300401 0 101.06530214 0 6904.72390156 0 -737.28839395 0 -655.38087111 0 6549
0.07950000 0.07947320 25658.23047199 0 892.51242282 0 7345.56851421 0 -1639.47913590 0 -2012.17358929 0 6828
0.08050000 0.08048110 25143.25664468 0 1357.61096299 0 8527.10736793 0 -2565.34693723 0 311.39917043 0 7147
0.08150000 0.08149960 24023.29098927 0 675.87463711 0 8642.72458369 0 332.94037837 0 -695.40732533 0 7386
0.08250000 0.08250610 23868.61061156 0 -179.78465978 0 9204.74471916 0 1852.16742334 0 -1258.49151121 0 7227
0.08350000 0.08350160 23799.51930469 0 126.50573998 0 9087.86525837 0 1351.31081017 0 -1258.38078796 0 7798
0.08450000 0.08449610 23811.69886199 0 396.04155751 0 7747.27245863 0 2083.18040835 0 -1315.55827333 0 7371
0.08550000 0.08548940 22177.53444200 0 1053.72104325 0 7686.12000866 0 108.21569878 0 -124.47064668 0 8256
0.08650000 0.08650700 22179.85963022 0 631.16458950 0 7018.62490697 0 76.41376744 0 -120.44585661 0 8037
0.08750000 0.08749060 21450.96848740 0 -172.45920968 0 7602.61253488 0 383.00057334 0 554.79433629 0 8155
0.08850000 0.08849210 21594.02292406 0 168.69129754 0 6770.83734985 0 516.01684031 0 -626.78105610 0 8718
0.08950000 0.08949900 21354.86070798 0 737.83315234 0 7328.52820632 0 -262.69533525 0 111.13181697 0 8571
0.09050000 0.09049190 20523.43983735 0 950.25902568 0 6702.39931015 0 175.12763996 0 428.52332960 0 8932
0.09150000 0.09150830 20368.09512014 0 513.87434546 0 7308.14405632 0 -116.65912152 0 552.54554712 0 9285
0.09250000 0.09250820 19896.08191312 0 153.20775852 0 8083.69397592 0 -153.10589313 0 848.16554746 0 9204
0.09350000 0.09350330 19603.21892167 0 9.47072411 0 8294.83213789 0 538.42722575 0 505.31322391 0 9349
0.09450000 0.09448040 19371.80733296 0 384.97255439 0 8064.02952704 0 1110.23308189 0 1786.88499621 0 9564
0.09550000 0.09549270 19191.54988491 0 691.74681474 0 7354.12742130 0 416.65047569 0 842.21749456 0 10155
0.09650000 0.09649430 18562.30966547 0 521.29833925 0 7733.47634191 0 1131.62481344 0 909.18512953 0 9913
0.09750000 0.09749140 17648.62142143 0 810.77209208 0 6992.32813552 0 562.02124270 0 1891.18629600 0 10476
0.09850000 0.09850240 17129.99372693 0 710.14791136 0 6423.42101402 0 602.43412106 0 2017.36650963 0 10575
0.09950000 0.09950330 16567.85179589 0 248.87707388 0 6786.77042526 0 1092.57715273 0 2217.36591283 0 10882
0.10050000 0.10051200 16714.44937648 0 -60.87232016 0 6128.14425575 0 997.48359826 0 2487.72994025 0 10875
0.10150000 0.10150300 16744.45537674 0 -69.94509384 0 6373.41839513 0 612.01943265 0 2317.67010336 0 11118
0.10250000 0.10250800 16929.58464771 0 137.15510199 0 5675.05365185 0 -718.43222479 0 1493.14729109 0 11575
0.10350000 0.10349800 16766.04641014 0 204.16481180 0 6464.54362839 0 -450.10329067 0 2292.38091348 0 11364
0.10450000 0.10450100 16822.51526671 0 38.96074296 0 6441.05922745 0 109.71024119 0 2538.47440490 0 12093
0.10550000 0.10551000 16504.51809792 0 98.33309527 0 5815.36215195 0 182.25268098 0 2030.15504480 0 12067
0.10650000 0.10649700 16907.99361431 0 284.05827876 0 5724.30335264 0 575.98455153 0 623.66087497 0 12054
0.10750000 0.10749900 16133.92738624 0 367.08742811 0 5613.39187493 0 -374.80040958 0 1335.04556501 0 12807
0.10850000 0.10850100 15694.13464445 0 720.83713374 0 5301.40697852 0 169.95907873 0 515.11223138 0 12736
0.10950000 0.10950300 15164.98824136 0 329.35405236 0 5555.04072314 0 -26.51589275 0 1152.57365200 0 12933
0.11050000 0.11050200 14898.80955272 0 212.57534973 0 5082.23030873 0 964.41167126 0 152.99184818 0 13428
0.11150000 0.11150900 14972.99412901 0 11.94327389 0 4996.27585117 0 588.47191946 0 648.21929142 0 13453
0.11250000 0.11250000 14705.04386840 0 38.32397356 0 4512.73635401 0 176.38545606 0 7.15499166 0 13668
0.11350000 0.11349100 14535.85874517 0 317.37268967 0 4657.76166449 0 714.66763435 0 -94.51613273 0 13791
0.11450000 0.11448600 14637.61341025 0 -54.11620900 0 4413.40652806 0 -215.04226370 0 335.86347212 0 14205
0.11550000 0.11549300 14537.96248688 0 193.94727045 0 3952.04489752 0 40.72389996 0 -48.56166653 0 14776
0.11650000 0.11649800 14222.51195280 0 187.50428464 0 4101.04517260 0 42.31820401 0 321.10074144 0 14553
0.11750000 0.11747300 14012.69139749 0 171.54131395 0 3981.35334131 0 381.10609856 0 -917.81047056 0 14568
0.11850000 0.11849100 13739.53714421 0 434.80908840 0 3827.44802634 0 -13.06755775 0 -894.73685288 0 16015
0.11950000 0.11950300 13365.07111884 0 316.81353727 0 3838.94109950 0 140.94183708 0 -641.78184177 0 15270
0.12050000 0.12050700 13228.54935383 0 78.43003779 0 3551.00529259 0 -53.29442105 0 -924.21359601 0 15999
0.12150000 0.12150000 13333.18282337 0 119.12160656 0 3501.08017998 0 382.31298197 0 -254.16853791 0 15670
0.12250000 0.12250700 13213.71243857 0 134.14785857 0 3850.71098078 0 -322.33862735 0 -902.36789914 0 16887
0.12350000 0.12352200 13136.31688809 0 290.12923446 0 3957.44819203 0 -300.13529439 0 -552.04397081 0 16407
0.12450000 0.12449800 13043.30935961 0 132.55012210 0 4267.04146629 0 -307.64233062 0 10.36857893 0 16306
0.12550000 0.12549900 12977.53975019 0 -97.31200547 0 4588.10566905 0 283.44930089 0 -21.42970962 0 17523
0.12650000 0.12650100 13339.27260202 0 -176.04110676 0 4710.67630479 0 421.26542068 0 -414.64417044 0 17154
0.12750000 0.12750600 13275.27456456 0 120.65069462 0 4717.74044803 0 -233.47325559 0 -668.07750598 0 18007
0.12850000 0.12850300 13114.50440820 0 447.69395279 0 4663.67428594 0 43.31349529 0 536.86492071 0 17496
0.12950000 0.12949900 12765.06183692 0 164.61225308 0 4828.89551688 0 20.78873274 0 593.70912910 0 18405
0.13050000 0.13049000 12723.65134210 0 26.66525841 0 4522.29177033 0 770.38578730 0 663.35626667 0 18100
0.13150000 0.13148800 12798.05736488 0 -22.31139885 0 4656.36655156 0 855.38913217 0 454.53664953 0 19059
0.13250000 0.13249300 12642.15903143 0 90.62509635 0 4342.47721527 0 764.01809330 0 1047.69880578 0 18957
0.13350000 0.13349100 12549.15150296 0 202.87599319 0 3834.29072307 0 338.84082026 0 1316.31119142 0 19468
0.13450000 0.13450700 12601.41287610 0 100.07488269 0 3893.27299738 0 342.78699683 0 1653.17560170 0 19953
0.13550000 0.13551000 12501.76195273 0 -87.48742094 0 3750.37357327 0 284.52110193 0 1442.36960948 0 19956
0.13650000 0.13649900 12247.98426789 0 245.86983046 0 3698.38900825 0 265.72583056 0 1474.19147100 0 19723
0.13750000 0.13749600 12129.28894583 0 428.66062642 0 3338.23949887 0 31.40509922 0 1482.42928067 0 20946
0.13850000 0.13851100 11857.24192504 0 347.85258543 0 3274.46290792 0 -171.29883004 0 1485.72883347 0 20955
0.13950000 0.13949800 11439.26166314 0 413.18483802 0 3415.86756818 0 -303.39498682 0 1666.39595753 0 20506
0.14050000 0.14048300 11026.31930902 0 339.44426197 0 3346.95341851 0 88.22505922 0 1309.30240980 0 21447
0.14150000 0.14148400 10916.21611103 0 58.08840553 0 3302.36516646 0 430.35358489 0 1635.43773734 0 21771
0.14250000 0.14249400 10939.91088614 0 -41.16059245 0 3241.31236741 0 473.81467427 0 1257.29570013 0 22470
0.14350000 0.14350900 10919.18349408 0 67.72431765 0 2965.23502038 0 356.02949731 0 1376.51142145 0 22519
0.14450000 0.14449900 10794.54233360 0 86.81455576 0 3254.06768560 0 -26.30009314 0 1372.76897567 0 22218
0.14550000 0.14550500 10772.09873119 0 204.32868220 0 3149.92139836 0 -168.77876891 0 1854.64762410 0 23559
0.14650000 0.14650700 10678.61509274 0 202.24154897 0 3220.52961373 0 28.92058026 0 1734.51289982 0 23044
0.14750000 0.14750500 10377.71359347 0 219.53873481 0 3146.96508763 0 161.33373770 0 1765.80328975 0 23649
0.14850000 0.14849900 10318.28842617 0 308.75399203 0 3159.76469512 0 259.57626135 0 1615.35254012 0 23640
0.14950000 0.14949500 10017.04368483 0 224.38619861 0 3192.02944964 0 -28.83233383 0 1347.16976068 0 24457
0.15050000 0.15050000 9895.41419670 0 45.09569669 0 2855.15396704 0 313.63467281 0 1533.24017926 0 24591
0.15150000 0.15149900 9898.51444765 0 -57.94291518 0 3078.73742210 0 28.66647040 0 1703.16714825 0 25020
0.15250000 0.15250500 10007.84258291 0 -119.65972155 0 2728.20976299 0 272.67039268 0 1306.97722159 0 25297
0.15350000 0.15350100 10113.45041703 0 52.67990702 0 2877.11038715 0 99.46435469 0 1103.55647002 0 25452
0.15450000 0.15450400 9887.26496563 0 118.23803504 0 2639.78617699 0 137.74968584 0 1421.73079601 0 26061
0.15550000 0.15549900 9921.10199028 0 178.68960685 0 2463.95765887 0 -115.93720594 0 805.45294723 0 26128
0.15650000 0.15649500 9646.48619013 0 198.94642511 0 2568.44718818 0 304.00285745 0 792.33002786 0 26331
0.15750000 0.15749700 9472.45138863 0 223.89458739 0 2625.03784033 0 -16.41937192 0 454.56322310 0 27345
0.15850000 0.15849900 9248.02643688 0 280.32579806 0 2176.60868517 0 121.38146806 0 570.34430927 0 26980
0.15950000 0.15949700 9023.05894121 0 234.49412394 0 2272.11855906 0 202.18840182 0 671.02717331 0 27777
0.16050000 0.16050000 8850.93965191 0 186.72036404 0 2301.55987075 0 251.28198283 0 685.80540524 0 28224
0.16150000 0.16150500 8638.36208771 0 169.81070958 0 2339.90333160 0 241.23938422 0 692.37793726 0 28075
0.16250000 0.16249700 8570.83197864 0 222.18280597 0 2064.24673291 0 145.45934561 0 1027.19175298 0 28590
0.16350000 0.16349900 8486.32799563 0 -13.52495549 0 2319.90671298 0 30.70433178 0 1015.08970196 0 29163
0.16450000 0.16449100 8602.59847855 0 -32.38998252 0 2284.10988684 0 -93.96550602 0 1085.38678500 0 28996
0.16550000 0.16550500 8571.40773953 0 86.33634205 0 2443.30777308 0 -140.67942298 0 837.18733740 0 30777
0.16650000 0.16650700 8526.43195612 0 192.23216734 0 2340.20228437 0 -266.03917735 0 866.41495322 0 29211
0.16750000 0.16749900 8449.36857538 0 44.59146302 0 2375.17975847 0 -125.85247282 0 803.72012840 0 30922
0.16850000 0.16850800 8344.74617817 0 80.56588925 0 2429.27913754 0 -137.88919713 0 386.23369218 0 30867
0.16950000 0.16949900 8338.89999067 0 158.12387074 0 2641.87884638 0 116.20404897 0 441.32847325 0 30852
0.17050000 0.17049200 8291.01218583 0 150.26916351 0 2735.50642505 0 -58.18263101 0 545.86339909 0 31257
0.17150000 0.17149500 8067.12977799 0 31.29426525 0 2565.83411952 0 183.03881604 0 657.51450810 0 32608
0.17250000 0.17250900 8219.19708705 0 6.48467311 0 2518.01274863 0 223.35868687 0 677.91305211 0 32361
0.17350000 0.17350400 8142.83126278 0 -52.28573226 0 2336.61485113 0 390.31827281 0 873.91202436 0 32508
0.17450000 0.17449800 8190.32046393 0 -22.27054197 0 2300.86231429 0 286.02804534 0 504.95780228 0 32791
0.17550000 0.17549800 8160.90129688 0 42.99715897 0 2149.64757424 0 30.22777892 0 724.42013805 0 33633
0.17650000 0.17650100 8175.90429701 0 123.09103501 0 2058.65520888 0 117.71542131 0 416.42792196 0 33984
0.17750000 0.17750300 7941.01599831 0 128.30167107 0 1961.25196745 0 -21.10429400 0 870.63904514 0 34069
0.17850000 0.17849800 7938.34756803 0 122.95595265 0 1966.81027451 0 317.28521831 0 639.58619975 0 34536
