### header ###
fiducial parameters:
Omega_m = 0.31
Omega_nu = 0
Omega_de = 0.69
Omega_k = 0
H_0 = 100
w_de = -1
zeff = 0
beta = 0
fgrowth = 0
b_1 = 2
gamma = 0.55
Lx = 3500 Ly = 3500 Lz = 3500
nx = 700 ny = 700 nz = 700
xoffset = -685.467585 yoffset = -31.7331281 zoffset = 572.489161
bins = 400 dk = 0.001
kx_ny = 0.628318531 ky_ny = 0.628318531 kz_ny = 0.628318531
############################
A(data) = 8.04228039 (not used)
A(ran) = 8.04365057 (used)
Ngal = 478496
weighted Ngal = 0
Nran = 23820508
weighted Nran = 0
SN(data) = 3485.90105
SN(ran) = 70.0631136
SN(data+ran) = 3555.96416
############################
13 columns: k_central k_mean P_0(k) sigma^{lin}_{P_0(k)} P^img_1(k) sigma^{lin}_{P_1(k)} P_2(k) sigma^{lin}_{P_2(k)} P^img_3(k) sigma^{lin}_{P_3(k)} P_4(k) sigma^{lin}_{P_4(k)} N_modes
### header ###
0.00050000 0 0 0 0 0 0 0 0 0 0 0 0
0.00150000 0.00179520 8133.44193133 0 -12077.47046568 0 -3423.90607599 0 34097.99934176 0 -22600.16508033 0 3
0.00250000 0.00253879 19976.68843780 0 -17840.50481054 0 -8341.41340840 0 9820.10024328 0 27054.56135487 0 6
0.00350000 0.00331552 27081.35638093 0 -19422.74002712 0 -16738.25487484 0 -37121.18691024 0 -45898.44024048 0 7
0.00450000 0.00420575 40055.46371043 0 -22848.18515627 0 -44540.53032472 0 -321.92341517 0 -6220.27707057 0 24
0.00550000 0.00557378 57672.52900613 0 -16307.20926965 0 -58258.91932853 0 -22653.97657895 0 -7914.61957594 0 45
0.00650000 0.00659388 58784.85475741 0 427.62204236 0 -43777.20425172 0 -45229.89326793 0 -17029.89991057 0 40
0.00750000 0.00754703 61966.48729405 0 1547.08058529 0 -46225.40599237 0 -36853.90098912 0 8251.35111833 0 57
0.00850000 0.00846663 50696.85364714 0 2967.02873700 0 -22967.54481781 0 -37066.60034889 0 -7308.64231094 0 75
0.00950000 0.00948925 59507.87756807 0 -4812.80742892 0 -28347.03383095 0 -10452.52929227 0 15004.55025474 0 112
0.01050000 0.01054430 63030.86987887 0 -3509.86053356 0 4157.99013915 0 -13729.79349837 0 2015.48421441 0 105
0.01150000 0.01145670 71191.50543995 0 -618.74254828 0 6230.90650239 0 -15358.31103270 0 5811.32075339 0 144
0.01250000 0.01249090 66350.90647574 0 3318.23180793 0 15906.28038797 0 2940.25585559 0 14185.97328090 0 169
0.01350000 0.01339930 72766.87581515 0 -6376.21969331 0 17954.88192592 0 -19727.78257588 0 -3637.74588522 0 180
0.01450000 0.01448870 81337.40884102 0 -710.45129306 0 35761.94831550 0 4671.59099818 0 -14615.24731412 0 267
0.01550000 0.01550050 84027.31943247 0 96.50084696 0 36780.60219882 0 -6402.88185148 0 6906.62834143 0 238
0.01650000 0.01653350 83419.22735343 0 1755.87141439 0 32920.34687405 0 684.16448671 0 -16505.40388391 0 315
0.01750000 0.01747870 78676.61846386 0 2328.35489681 0 37897.35688003 0 -6002.73910486 0 -3606.98696687 0 297
0.01850000 0.01844180 84311.98890355 0 -2361.58294359 0 28580.54916138 0 24425.88071968 0 -26353.35102411 0 388
0.01950000 0.01947590 75264.34940124 0 2935.56118987 0 11589.84528067 0 16592.10018724 0 -19382.32604154 0 399
0.02050000 0.02045430 76465.69664407 0 -1856.52991932 0 -2190.54874212 0 23530.35108835 0 -24879.40314425 0 462
0.02150000 0.02154770 77111.98824373 0 -2093.71018926 0 -4498.18731920 0 -8198.72435846 0 -30377.80892594 0 571
0.02250000 0.02255340 74135.96877898 0 4519.00328986 0 -2781.11333097 0 -3238.57750318 0 -17500.91660835 0 510
0.02350000 0.02348930 68062.57716945 0 5218.53062725 0 4642.00574627 0 -17886.78712828 0 -13666.01690741 0 555
0.02450000 0.02439640 64425.31846653 0 4087.65873190 0 6651.63270085 0 -7575.93930439 0 -371.94374977 0 592
0.02550000 0.02547300 67991.27139762 0 304.70373561 0 14155.41366440 0 3194.27713158 0 -14250.08204160 0 837
0.02650000 0.02652900 63421.83366821 0 1514.35079312 0 14127.28995936 0 -1087.74519018 0 -5263.20745789 0 723
0.02750000 0.02749970 65045.03648663 0 3021.15026072 0 10811.32797802 0 3031.52502907 0 -11314.47656243 0 826
0.02850000 0.02848090 62038.45740537 0 3076.17971507 0 15779.61299205 0 2814.47424565 0 1817.42246806 0 831
0.02950000 0.02946900 61089.33772192 0 1651.89121202 0 9509.78726791 0 2830.41839339 0 -5147.36879564 0 996
0.03050000 0.03053250 56106.12721404 0 5656.05354246 0 11554.19239475 0 -5338.52141131 0 -7772.83845664 0 1041
0.03150000 0.03150510 51350.67442768 0 3642.83915463 0 5323.87272558 0 1742.59569693 0 -2033.58746549 0 1036
0.03250000 0.03246190 49605.45458976 0 243.10174925 0 5150.22545544 0 -1440.96342422 0 -3265.17322739 0 1059
0.03350000 0.03345080 51234.41501708 0 -2302.68924788 0 -431.95353583 0 2227.23135425 0 -9583.34072168 0 1302
0.03450000 0.03451200 52064.83937848 0 -2688.22759807 0 4451.78320588 0 -193.33164919 0 -20295.68211583 0 1339
0.03550000 0.03553350 52772.91455063 0 3392.28351631 0 6032.55687559 0 -11255.57179439 0 -20549.79197041 0 1365
0.03650000 0.03647120 50008.59793641 0 3684.36037270 0 9867.13547911 0 -7867.59541244 0 -17950.67444249 0 1308
0.03750000 0.03744890 46532.66300609 0 4050.41143121 0 12139.36476142 0 -5020.88962924 0 -14528.66173403 0 1579
0.03850000 0.03847530 45681.31195079 0 1524.76985078 0 14969.89387806 0 -1042.12278300 0 -12857.51574916 0 1662
0.03950000 0.03950240 42883.66763886 0 401.09275209 0 16114.44009456 0 7825.40985488 0 -11393.42223839 0 1683
0.04050000 0.04050350 44829.85017223 0 -530.28906700 0 12111.90539587 0 3098.62331747 0 -8054.96129302 0 1822
0.04150000 0.04152450 45082.52062459 0 -2708.29065064 0 16178.10596227 0 3826.26328758 0 -7377.98828128 0 1887
0.04250000 0.04250150 49201.42545713 0 -2346.42493092 0 14595.64929919 0 -5482.33983838 0 -9166.15766717 0 1920
0.04350000 0.04349210 48926.72107838 0 1287.85531663 0 16919.06593913 0 -2710.22830748 0 -9311.89160643 0 2005
0.04450000 0.04448520 48949.30862101 0 2936.62413305 0 18260.36736766 0 -5413.28174849 0 -4114.16587751 0 2151
0.04550000 0.04548030 46355.94870199 0 2776.07542318 0 21553.27676873 0 705.49974940 0 -4534.94743760 0 2274
0.04650000 0.04648670 44882.66516162 0 2058.72164283 0 22167.01573343 0 2696.53184168 0 -3334.19810031 0 2311
0.04750000 0.04749250 42514.95922240 0 3160.34045601 0 18881.63551324 0 6511.78923839 0 -4032.96144729 0 2568
0.04850000 0.04851840 38852.89851188 0 1765.99151927 0 17175.16881219 0 6605.33931079 0 -1135.01294483 0 2493
0.04950000 0.04949480 38064.54898479 0 -212.74697076 0 13319.56386384 0 6973.04014569 0 -1183.89725891 0 2644
0.05050000 0.05050630 37349.83041775 0 50.55202764 0 13144.95330145 0 4088.48915626 0 657.08600913 0 2829
0.05150000 0.05149060 37404.97059534 0 977.76710946 0 10149.28046014 0 1677.73401815 0 -769.19440515 0 2784
0.05250000 0.05249300 36885.78928460 0 -650.47804568 0 9378.12625350 0 -2022.29369418 0 2531.55420189 0 3055
0.05350000 0.05348950 36936.50053227 0 1010.11822811 0 10573.56087487 0 -2318.95449304 0 -1011.02505152 0 3009
0.05450000 0.05448610 37318.05284552 0 280.87719984 0 10342.97971052 0 -4330.90663584 0 -2669.20534403 0 3336
0.05550000 0.05550870 36660.13530479 0 825.61786519 0 12453.26517003 0 -2510.00745779 0 -3126.37056347 0 3349
0.05650000 0.05647670 36489.28933284 0 1232.72621136 0 14610.26476795 0 -570.10736152 0 -4108.99510182 0 3324
0.05750000 0.05747970 35583.01954644 0 125.99752027 0 13750.38802253 0 -1533.50591506 0 -3803.02247779 0 3639
0.05850000 0.05849280 36178.48917518 0 697.82109214 0 15864.09483041 0 3213.65370001 0 -3464.49721878 0 3846
0.05950000 0.05951020 34631.79612127 0 940.97266685 0 14302.56486124 0 1269.13201536 0 -2608.50685938 0 3787
0.06050000 0.06049470 34639.65747189 0 347.77065023 0 13831.88033320 0 4282.27698524 0 -184.60222831 0 3930
0.06150000 0.06148310 33768.26550866 0 -862.29051223 0 10017.08797413 0 4756.30535537 0 -2299.27897184 0 4083
0.06250000 0.06249100 33422.91969757 0 774.22345508 0 8742.95126795 0 2616.09140188 0 -3221.19395322 0 4303
0.06350000 0.06350600 33214.53854448 0 1192.45616599 0 8794.83618205 0 -270.87113990 0 -2938.24069247 0 4470
0.06450000 0.06451750 30942.82966144 0 1683.54698868 0 7249.57145803 0 270.31420196 0 -2575.88779046 0 4479
0.06550000 0.06550280 29637.18111882 0 1480.08194781 0 6298.31481589 0 53.82456396 0 175.32140564 0 4636
0.06650000 0.06648880 29356.71913117 0 -110.75092900 0 7079.82164624 0 -1671.13491255 0 -3142.18184331 0 4653
0.06750000 0.06749660 29703.94723748 0 -107.08499297 0 9193.94920246 0 -730.51102393 0 -1705.79128924 0 5220
0.06850000 0.06852730 30268.63580323 0 450.24612366 0 9080.49109005 0 -2920.24816464 0 -3053.74718498 0 5029
0.06950000 0.06949320 29799.50140066 0 1033.74546204 0 11789.59002040 0 -2390.58136229 0 -1824.47553897 0 5040
0.07050000 0.07048030 29887.41565972 0 818.27027045 0 12938.12227384 0 -1876.41581469 0 -1584.08429483 0 5475
0.07150000 0.07148790 28760.36371643 0 701.15275468 0 14364.79132672 0 869.00587723 0 -695.71624319 0 5509
0.07250000 0.07249820 28279.49264956 0 29.75421559 0 13634.23933518 0 2923.63629604 0 -1557.68787246 0 5916
0.07350000 0.07351270 28333.85776442 0 89.81515578 0 13039.21259943 0 2507.42760611 0 -54.51425907 0 5721
0.07450000 0.07449140 27477.08126995 0 294.78293258 0 10511.33440938 0 4085.95359388 0 -509.80526609 0 6028
0.07550000 0.07549160 27174.36390941 0 763.87304584 0 10447.52460145 0 2611.45209778 0 1036.75824163 0 6183
0.07650000 0.07648840 26622.40851720 0 64.28359271 0 8113.62246991 0 1009.49374899 0 2434.05130953 0 6330
0.07750000 0.07749960 26222.47614475 0 163.47401809 0 9069.99452612 0 -682.08731857 0 1810.81229014 0 6583
0.07850000 0.07848650 26765.35223061 0 881.89295609 0 8949.19546235 0 -933.78783528 0 1876.20544052 0 6549
0.07950000 0.07947320 25839.70587577 0 693.01238147 0 8959.08304841 0 -1019.35808317 0 1152.00896343 0 6828
0.08050000 0.08048110 24963.22064313 0 995.01114813 0 9549.82479446 0 -911.09289110 0 1061.84037904 0 7147
0.08150000 0.08149960 24477.80992308 0 715.03966446 0 9710.61709547 0 489.33918090 0 -860.74924461 0 7386
0.08250000 0.08250610 23811.47741549 0 854.40148079 0 8901.81698445 0 233.42010843 0 -1648.24841715 0 7227
0.08350000 0.08350160 23003.08698048 0 905.15369606 0 8328.92382601 0 292.53303617 0 -1269.17630466 0 7798
0.08450000 0.08449610 22701.58757567 0 -56.87864332 0 8379.72365227 0 698.25069834 0 -2371.18264921 0 7371
0.08550000 0.08548940 22376.28267250 0 61.60984771 0 8104.45458496 0 390.51646742 0 -2964.49317462 0 8256
0.08650000 0.08650700 21835.39960511 0 922.85391452 0 8460.90593784 0 -288.53149798 0 -3682.65523468 0 8037
0.08750000 0.08749060 21404.46472317 0 290.03733416 0 7324.90755610 0 -242.53816792 0 -3017.61818910 0 8155
0.08850000 0.08849210 20874.21108760 0 272.20646227 0 8260.07611028 0 149.25493856 0 -2351.62892358 0 8718
0.08950000 0.08949900 21015.16178254 0 92.55168086 0 7768.59775623 0 1423.24770451 0 -3080.74151289 0 8571
0.09050000 0.09049190 20923.48293304 0 119.59550206 0 7307.22505336 0 1491.42000842 0 -3108.24516774 0 8932
0.09150000 0.09150830 20247.40677962 0 785.73535120 0 7119.71523256 0 931.84685674 0 -2036.07873858 0 9285
0.09250000 0.09250820 19440.89863983 0 1146.86033239 0 6747.90656515 0 623.29327378 0 -1387.41766140 0 9204
0.09350000 0.09350330 18469.30213699 0 978.54438666 0 6477.14393404 0 1189.94274826 0 -1011.67831868 0 9349
0.09450000 0.09448040 17985.44154242 0 403.81100783 0 5752.63743185 0 684.96280133 0 383.55086788 0 9564
0.09550000 0.09549270 17820.90679561 0 -49.12436208 0 5343.85827187 0 670.30968666 0 231.47470096 0 10155
0.09650000 0.09649430 17803.30179915 0 -242.73968423 0 5328.34594480 0 861.99931008 0 1176.75560940 0 9913
0.09750000 0.09749140 18017.32983789 0 -348.14046588 0 5099.96817309 0 387.07851057 0 466.84021686 0 10476
0.09850000 0.09850240 18341.08461559 0 -26.85492734 0 4245.60544544 0 -47.43206795 0 487.23211748 0 10575
0.09950000 0.09950330 18312.18584781 0 -157.89799531 0 3944.46035502 0 552.78249487 0 501.88412491 0 10882
0.10050000 0.10051200 18314.51103603 0 515.32039108 0 4225.08842755 0 -799.50489434 0 356.81452514 0 10875
0.10150000 0.10150300 17536.01587803 0 537.48497090 0 4823.04932938 0 -131.09521862 0 638.61072794 0 11118
0.10250000 0.10250800 17702.76508980 0 485.47051060 0 5683.45754639 0 -211.39061097 0 239.02049033 0 11575
0.10350000 0.10349800 16981.95674410 0 579.68270802 0 5273.30541813 0 -436.20863025 0 311.37259685 0 11364
0.10450000 0.10450100 17035.98968922 0 245.57309215 0 6164.63863835 0 -764.02252223 0 53.77307765 0 12093
0.10550000 0.10551000 16574.27374428 0 265.20321682 0 6847.16995715 0 180.70034104 0 909.76642658 0 12067
0.10650000 0.10649700 16405.19934430 0 219.79229105 0 6627.48396042 0 474.54876940 0 -96.67722909 0 12054
0.10750000 0.10749900 16477.83379511 0 -71.06616672 0 6268.41953888 0 1044.19995114 0 1411.85428228 0 12807
0.10850000 0.10850100 16232.80324687 0 147.01943617 0 5613.38080261 0 1417.34615539 0 451.17287725 0 12736
0.10950000 0.10950300 16310.30952060 0 229.61344316 0 5218.76314607 0 664.99275628 0 797.05237440 0 12933
0.11050000 0.11050200 15950.01607100 0 357.80549821 0 5006.52882395 0 94.26368373 0 880.44026707 0 13428
0.11150000 0.11150900 15333.95191810 0 564.76496479 0 4690.87898802 0 75.85627589 0 667.56928627 0 13453
0.11250000 0.11250000 15131.77126691 0 153.07710508 0 4826.00564010 0 -198.77258961 0 363.88309730 0 13668
0.11350000 0.11349100 15005.65748722 0 -105.79440279 0 5026.27077910 0 -668.03100221 0 -611.88545752 0 13791
0.11450000 0.11448600 15143.61865446 0 122.88508977 0 5457.06172082 0 -391.38343046 0 -878.26676971 0 14205
0.11550000 0.11549300 14823.73919045 0 289.50254087 0 4836.87866308 0 -447.69727448 0 -956.83266492 0 14776
0.11650000 0.11649800 14960.81457171 0 205.71493727 0 5133.07442430 0 -320.10755390 0 -734.54467186 0 14553
0.11750000 0.11747300 14702.05434069 0 317.11249004 0 5469.39629067 0 55.36516724 0 -591.13481358 0 14568
0.11850000 0.11849100 14425.46766673 0 392.91362575 0 5292.08408102 0 400.18592869 0 -454.11036502 0 16015
0.11950000 0.11950300 14243.32792346 0 152.43491024 0 5350.51273909 0 1004.64407072 0 391.45982950 0 15270
0.12050000 0.12050700 13978.03502080 0 -37.51669035 0 5209.32952533 0 755.53779972 0 104.10055854 0 15999
0.12150000 0.12150000 13806.19253962 0 391.03686669 0 4995.34577588 0 804.30363992 0 26.01199125 0 15670
0.12250000 0.12250700 13506.24326028 0 474.41036534 0 4524.65017552 0 465.29562755 0 942.96014916 0 16887
0.12350000 0.12352200 13179.60967813 0 316.56551719 0 4172.31772746 0 -146.52339602 0 1196.92938522 0 16407
0.12450000 0.12449800 13211.49797361 0 -57.50068652 0 4191.63893427 0 209.74194181 0 325.88730746 0 16306
0.12550000 0.12549900 13079.73730827 0 -70.95776866 0 4106.70313059 0 24.03569199 0 217.93435494 0 17523
0.12650000 0.12650100 13169.64458579 0 100.44580557 0 3774.36730115 0 54.69274495 0 -625.72032738 0 17154
0.12750000 0.12750600 13134.98820911 0 -36.27470768 0 3603.51025688 0 249.75953817 0 -611.67840505 0 18007
0.12850000 0.12850300 12981.74723362 0 182.60810261 0 3313.64786545 0 -48.60805957 0 -1045.99477499 0 17496
0.12950000 0.12949900 12872.90628065 0 -3.84449941 0 3119.79360253 0 -397.53632136 0 -1225.27453676 0 18405
0.13050000 0.13049000 12985.62254731 0 152.14481533 0 3708.50911313 0 -396.41801655 0 -1558.75081564 0 18100
0.13150000 0.13148800 12961.59560245 0 125.83586433 0 3629.74059437 0 -301.66548968 0 -1321.81413685 0 19059
0.13250000 0.13249300 12738.15608761 0 110.24337363 0 3951.92310195 0 407.51802218 0 -1297.76504734 0 18957
0.13350000 0.13349100 12680.91216830 0 195.21505165 0 3746.68648911 0 -28.80188493 0 -1156.05036199 0 19468
0.13450000 0.13450700 12790.52818400 0 146.49682244 0 4204.97001335 0 423.65704284 0 -1243.84282548 0 19953
0.13550000 0.13551000 12477.07066839 0 112.02646082 0 3970.67962019 0 470.88604435 0 -749.34615568 0 19956
0.13650000 0.13649900 12377.30902177 0 195.62251320 0 3789.10456549 0 519.60870248 0 -134.63725533 0 19723
0.13750000 0.13749600 12280.64762611 0 -0.81696484 0 3406.35644116 0 716.43145569 0 498.60450230 0 20946
0.13850000 0.13851100 12144.12586109 0 122.19749840 0 3423.99465459 0 455.74131847 0 637.86445324 0 20955
0.13950000 0.13949800 12056.21160203 0 386.13404126 0 3390.13548530 0 29.69043900 0 505.68193233 0 20506
0.14050000 0.14048300 11677.64881648 0 486.61206729 0 3572.02056509 0 -153.93742472 0 647.36007901 0 21447
0.14150000 0.14148400 11322.78080604 0 330.86210300 0 4157.75762033 0 -529.03900153 0 1444.92731651 0 21771
0.14250000 0.14249400 11106.75974883 0 361.93990430 0 4168.16560565 0 -377.83533381 0 1066.80299502 0 22470
0.14350000 0.14350900 11076.64302533 0 77.04677225 0 4573.09159660 0 -134.99489142 0 985.59524310 0 22519
0.14450000 0.14449900 10932.12704179 0 5.57695285 0 4613.54987148 0 70.51066819 0 399.84711555 0 22218
0.14550000 0.14550500 10983.45833965 0 90.92150248 0 4379.40341854 0 18.94142607 0 16.44251308 0 23559
0.14650000 0.14650700 10763.05264181 0 412.17947093 0 4519.68977400 0 -21.49802587 0 62.09547988 0 23044
0.14750000 0.14750500 10612.24757778 0 230.32760811 0 4328.22713323 0 198.21232997 0 113.15030179 0 23649
0.14850000 0.14849900 10281.43972918 0 88.00726659 0 4031.43346647 0 567.10786872 0 -94.80578475 0 23640
0.14950000 0.14949500 10232.73257230 0 144.85701114 0 3715.23001430 0 627.32027832 0 -62.02804942 0 24457
0.15050000 0.15050000 10052.14295451 0 56.87842187 0 3468.39467712 0 461.85877793 0 176.72426920 0 24591
0.15150000 0.15149900 10023.84209227 0 227.00258897 0 3450.59037881 0 363.15121663 0 657.19230345 0 25020
0.15250000 0.15250500 9708.93410210 0 228.66454492 0 3163.86145530 0 80.45627323 0 750.27733820 0 25297
0.15350000 0.15350100 9694.73938168 0 152.70728943 0 3389.12790374 0 115.90066727 0 1066.36342373 0 25452
0.15450000 0.15450400 9457.21586968 0 169.77417091 0 3401.20781012 0 66.85713317 0 1204.55821702 0 26061
0.15550000 0.15549900 9426.30193878 0 146.48242842 0 3507.47998373 0 80.28254846 0 712.81191271 0 26128
0.15650000 0.15649500 9319.98547587 0 18.87787092 0 3323.92298288 0 -129.29042967 0 823.16202355 0 26331
0.15750000 0.15749700 9391.00336726 0 -52.63495338 0 3525.22892041 0 -145.46045284 0 344.93392061 0 27345
0.15850000 0.15849900 9494.36351944 0 -61.84834559 0 3274.51826954 0 -25.63387136 0 477.53497541 0 26980
0.15950000 0.15949700 9431.56129307 0 12.28219775 0 3326.73535339 0 461.90971062 0 339.52951887 0 27777
0.16050000 0.16050000 9406.31639248 0 110.75203623 0 2983.47113936 0 456.48648593 0 565.28757852 0 28224
0.16150000 0.16150500 9243.97396599 0 296.00310277 0 2682.17103639 0 389.23872114 0 285.97489818 0 28075
0.16250000 0.16249700 8983.33143976 0 153.72262162 0 2475.68325085 0 247.57275402 0 714.15609294 0 28590
0.16350000 0.16349900 8784.28425650 0 98.08740038 0 2349.06014422 0 248.75306384 0 246.98813526 0 29163
0.16450000 0.16449100 8827.52168491 0 104.14927677 0 2092.99048814 0 -91.08581578 0 330.83885112 0 28996
0.16550000 0.16550500 8665.33427097 0 68.47070306 0 2097.92874501 0 -83.75250433 0 270.59322455 0 30777
0.16650000 0.16650700 8609.10900554 0 171.63875041 0 1848.90108752 0 131.39527862 0 288.31005149 0 29211
0.16750000 0.16749900 8466.06564121 0 119.59328760 0 1873.78060138 0 151.27674507 0 78.79199209 0 30922
0.16850000 0.16850800 8362.01900489 0 152.41055113 0 1776.93097620 0 403.75121728 0 149.14200084 0 30867
0.16950000 0.16949900 8184.71786757 0 -21.56922092 0 1496.57971179 0 340.08977850 0 8.10904960 0 30852
0.17050000 0.17049200 8252.04867479 0 73.67380994 0 1332.02282033 0 225.00514157 0 -5.99331656 0 31257
0.17150000 0.17149500 8266.16588893 0 -11.80785936 0 1339.46342261 0 -176.74973555 0 22.69284044 0 32608
0.17250000 0.17250900 8181.25222990 0 65.51184570 0 1481.73172421 0 -221.54614730 0 -113.61423220 0 32361
0.17350000 0.17350400 8112.95813042 0 161.52639615 0 1580.74045273 0 -198.67958208 0 -105.73948406 0 32508
0.17450000 0.17449800 8104.52101891 0 149.72329790 0 1820.51164668 0 -257.95970193 0 -184.44943022 0 32791
0.17550000 0.17549800 8103.05947203 0 139.46257449 0 1944.77634812 0 -276.67193087 0 -359.17071586 0 33633
0.17650000 0.17650100 7943.38547582 0 136.06115630 0 2171.12788439 0 -4.60046238 0 -38.91567859 0 33984
0.17750000 0.17750300 7869.40020138 0 59.37124508 0 2326.47260159 0 -21.67728681 0 168.90499341 0 34069
