### header ###
fiducial parameters:
Omega_m = 0.31
Omega_nu = 0
Omega_de = 0.69
Omega_k = 0
H_0 = 100
w_de = -1
zeff = 0
beta = 0
fgrowth = 0
b_1 = 2
gamma = 0.55
Lx = 3500 Ly = 3500 Lz = 3500
nx = 700 ny = 700 nz = 700
xoffset = -685.467585 yoffset = -31.7331281 zoffset = 572.489161
bins = 400 dk = 0.001
kx_ny = 0.628318531 ky_ny = 0.628318531 kz_ny = 0.628318531
############################
A(data) = 8.06784094 (not used)
A(ran) = 8.06204745 (used)
Ngal = 478974
weighted Ngal = 0
Nran = 23820508
weighted Nran = 0
SN(data) = 3492.59906
SN(ran) = 70.2233571
SN(data+ran) = 3562.82242
############################
13 columns: k_central k_mean P_0(k) sigma^{lin}_{P_0(k)} P^img_1(k) sigma^{lin}_{P_1(k)} P_2(k) sigma^{lin}_{P_2(k)} P^img_3(k) sigma^{lin}_{P_3(k)} P_4(k) sigma^{lin}_{P_4(k)} N_modes
### header ###
0.00050000 0 0 0 0 0 0 0 0 0 0 0 0
0.00150000 0.00179520 16500.19989124 0 -22132.80224974 0 10615.80179405 0 -46079.91564426 0 11138.31587457 0 3
0.00250000 0.00253879 35659.86148068 0 -28877.06602002 0 -7206.67727169 0 -24825.03802939 0 35081.33250890 0 6
0.00350000 0.00331552 46286.74667187 0 -14525.00786684 0 2903.44037557 0 1935.87419897 0 -27050.24314819 0 7
0.00450000 0.00420575 61576.74146043 0 -8119.53509136 0 9278.69677662 0 -24132.24266549 0 16977.63853742 0 24
0.00550000 0.00557378 84810.02207390 0 -6947.30806281 0 21570.99248844 0 -15768.65139048 0 -438.52385337 0 45
0.00650000 0.00659388 79003.91638549 0 -7141.47235083 0 29855.63808749 0 -12354.38930940 0 -6101.26065109 0 40
0.00750000 0.00754703 84918.86302686 0 1877.64484275 0 24081.97431081 0 -6419.29103686 0 -24680.32274401 0 57
0.00850000 0.00846663 91410.23489829 0 3506.67170401 0 16405.75296054 0 -2462.33002712 0 -35468.08881482 0 75
0.00950000 0.00948925 92248.96350330 0 -14656.87925543 0 16820.52224825 0 6105.39062825 0 -18981.61860635 0 112
0.01050000 0.01054430 104313.81151869 0 -8687.92181360 0 42555.81610098 0 -15747.61397332 0 -20638.25984572 0 105
0.01150000 0.01145670 104599.69894551 0 7087.56120129 0 22623.19551595 0 20557.21042804 0 2151.30842296 0 144
0.01250000 0.01249090 102367.18609233 0 11069.01419353 0 38327.95959223 0 20200.46012239 0 9304.24062998 0 169
0.01350000 0.01339930 91140.40234246 0 13711.19199267 0 24703.57462613 0 11632.47373122 0 28359.32411150 0 180
0.01450000 0.01448870 80037.51790731 0 10717.57860378 0 42089.11760987 0 23625.46235854 0 27372.89069341 0 267
0.01550000 0.01550050 80075.71742794 0 -2093.67697228 0 43473.93327494 0 24048.53588986 0 41140.33009616 0 238
0.01650000 0.01653350 76970.15176281 0 -173.58083618 0 34961.30850787 0 24698.25991022 0 42771.50498845 0 315
0.01750000 0.01747870 75688.30871855 0 6046.13154582 0 29565.54317725 0 8173.87806157 0 41814.19178463 0 297
0.01850000 0.01844180 70906.39307587 0 5088.76298038 0 19857.99311575 0 12692.09521637 0 45487.32481996 0 388
0.01950000 0.01947590 67998.02551576 0 4494.64417526 0 9500.77439551 0 -127.61075800 0 34867.85808640 0 399
0.02050000 0.02045430 66052.72876837 0 3641.10079964 0 19846.36717469 0 -4003.69729280 0 14201.36381240 0 462
0.02150000 0.02154770 63483.39579421 0 652.28172739 0 17856.33823503 0 -10018.48308706 0 -1501.69512585 0 571
0.02250000 0.02255340 59948.33464936 0 2701.65832807 0 22565.61942690 0 -8765.20664083 0 -2997.09009889 0 510
0.02350000 0.02348930 62751.84729344 0 3500.22761097 0 27275.01134201 0 -3744.61596437 0 -20555.10668633 0 555
0.02450000 0.02439640 62022.62398088 0 -3887.89184752 0 26981.92690406 0 -1430.97618724 0 -16179.21319475 0 592
0.02550000 0.02547300 65225.18321143 0 -4416.39605576 0 24074.77729968 0 7883.94923619 0 -25551.93615373 0 837
0.02650000 0.02652900 66777.74459750 0 -1559.54802303 0 20494.20889983 0 1129.33284220 0 -25494.36006468 0 723
0.02750000 0.02749970 66788.48475257 0 2759.19012783 0 22485.12362547 0 2708.06920414 0 -28458.75358837 0 826
0.02850000 0.02848090 62880.61843108 0 5011.79925056 0 18283.72997303 0 2016.99005059 0 -13436.93050692 0 831
0.02950000 0.02946900 62154.49536947 0 1434.50825885 0 14460.56693640 0 5571.07344948 0 -16500.86423073 0 996
0.03050000 0.03053250 59634.87713374 0 -118.82818995 0 14249.52842536 0 2688.20545342 0 -11389.98981769 0 1041
0.03150000 0.03150510 60968.09576515 0 2663.59167535 0 17194.32393412 0 -8646.77705457 0 -15719.26882178 0 1036
0.03250000 0.03246190 56592.42372007 0 6689.22324361 0 20396.21882518 0 -6170.17480076 0 -8173.67875972 0 1059
0.03350000 0.03345080 56663.39732216 0 2412.67065031 0 25151.67161154 0 -4636.61352408 0 -4353.72669729 0 1302
0.03450000 0.03451200 52880.98044086 0 -1002.19376524 0 28501.82493192 0 4247.76454878 0 -3071.15287960 0 1339
0.03550000 0.03553350 55374.68943652 0 -100.15471415 0 26942.50942771 0 3312.93923666 0 -3915.88268466 0 1365
0.03650000 0.03647120 56032.82842374 0 -344.11789027 0 24111.53741808 0 8385.12694678 0 -10666.97807936 0 1308
0.03750000 0.03744890 54200.69083600 0 1220.63523266 0 22794.81655064 0 2744.88468417 0 -4518.82613266 0 1579
0.03850000 0.03847530 54083.32419292 0 1462.28872182 0 22840.98814514 0 904.11732646 0 -2983.29398216 0 1662
0.03950000 0.03950240 51006.43584907 0 3734.94982480 0 21057.23661685 0 748.18134711 0 -4310.95430652 0 1683
0.04050000 0.04050350 49382.79013766 0 3201.72880618 0 22286.04322523 0 -2263.18319293 0 -981.19510122 0 1822
0.04150000 0.04152450 46077.36900955 0 1190.33027963 0 24072.23066497 0 6306.16509419 0 -2681.39597366 0 1887
0.04250000 0.04250150 47430.51782564 0 740.96440579 0 23206.48558740 0 2657.07007603 0 2803.22476364 0 1920
0.04350000 0.04349210 44374.66689894 0 1347.12547139 0 22153.39677390 0 5256.92944972 0 1528.42371797 0 2005
0.04450000 0.04448520 43693.71892259 0 2572.84290113 0 23159.09603718 0 2027.98486913 0 7030.28406500 0 2151
0.04550000 0.04548030 42707.50695099 0 1878.89601545 0 20048.21565613 0 4035.13162296 0 6043.21952439 0 2274
0.04650000 0.04648670 40059.11757762 0 749.22325288 0 20485.68320971 0 2438.21450366 0 9092.78137059 0 2311
0.04750000 0.04749250 39754.96081485 0 452.69310744 0 18226.92894671 0 3970.80141576 0 8100.56819895 0 2568
0.04850000 0.04851840 38986.09857945 0 378.07449603 0 17394.40084360 0 3403.03474371 0 7067.68637824 0 2493
0.04950000 0.04949480 37849.19226707 0 1105.43765801 0 15787.14217292 0 1780.73985593 0 7979.92414772 0 2644
0.05050000 0.05050630 37711.78471607 0 1324.72615828 0 17784.58957021 0 234.71778490 0 8644.34114311 0 2829
0.05150000 0.05149060 36506.34071306 0 765.68447818 0 16598.63285888 0 -65.29183861 0 7714.97448714 0 2784
0.05250000 0.05249300 36475.55965007 0 56.82018144 0 20219.28307458 0 -1499.45851624 0 7426.37434074 0 3055
0.05350000 0.05348950 36443.22846160 0 1109.83447820 0 17965.40063449 0 -1050.56653791 0 5859.90611470 0 3009
0.05450000 0.05448610 34912.81172516 0 2052.76473208 0 21135.07506033 0 -1823.81119948 0 5494.02114106 0 3336
0.05550000 0.05550870 34588.94622422 0 685.60721063 0 20091.95133916 0 2099.79996791 0 3574.85508025 0 3349
0.05650000 0.05647670 33598.19459944 0 -454.90203624 0 18466.75550228 0 3013.07853592 0 2099.60066606 0 3324
0.05750000 0.05747970 33817.64807735 0 378.45095507 0 15349.12100310 0 1710.65203983 0 -1864.13660647 0 3639
0.05850000 0.05849280 33437.09227333 0 -386.15397145 0 14781.77507939 0 1346.89295256 0 -1332.86431702 0 3846
0.05950000 0.05951020 33551.46938871 0 -1027.69554376 0 12301.02070377 0 2288.89313116 0 -1514.19578057 0 3787
0.06050000 0.06049470 34416.21795705 0 -586.64277140 0 10645.49776921 0 3247.38000141 0 -554.14660529 0 3930
0.06150000 0.06148310 34889.67056629 0 -953.25851847 0 9463.31672065 0 3983.61209558 0 -1054.23147742 0 4083
0.06250000 0.06249100 35692.08194590 0 -168.31594573 0 7876.08788557 0 2844.25879941 0 1478.21072491 0 4303
0.06350000 0.06350600 35490.01201796 0 1532.34332095 0 7562.76323785 0 -610.92548696 0 -278.26413118 0 4470
0.06450000 0.06451750 34251.79393349 0 1640.19883701 0 9059.64190241 0 -1457.40582658 0 1408.79832063 0 4479
0.06550000 0.06550280 32094.46216582 0 1820.82167178 0 9930.62418962 0 -411.88383986 0 4294.11330047 0 4636
0.06650000 0.06648880 31790.52684955 0 525.70512453 0 10403.19101288 0 -585.36945405 0 1690.64434888 0 4653
0.06750000 0.06749660 30874.84558705 0 629.96434949 0 11888.13371128 0 345.86399590 0 2452.68603220 0 5220
0.06850000 0.06852730 30228.33254089 0 455.01940289 0 11206.85356519 0 1331.34740852 0 -923.43188988 0 5029
0.06950000 0.06949320 29825.07847099 0 -114.08702047 0 9369.42340619 0 1069.54339541 0 421.54333603 0 5040
0.07050000 0.07048030 30249.03778830 0 199.07818577 0 9329.27515640 0 233.01486134 0 -698.72570108 0 5475
0.07150000 0.07148790 29233.04126294 0 402.92522185 0 8420.48087993 0 1115.81353360 0 768.18571636 0 5509
0.07250000 0.07249820 29569.86138393 0 568.16749021 0 7667.19740554 0 404.79423028 0 1184.08548843 0 5916
0.07350000 0.07351270 28678.64995927 0 933.07477756 0 8527.97100927 0 1283.98000294 0 2296.49981831 0 5721
0.07450000 0.07449140 27886.31439525 0 1444.27404934 0 9361.96065926 0 636.72289656 0 3943.45277346 0 6028
0.07550000 0.07549160 26594.50625866 0 1856.49670234 0 9314.01749280 0 439.80381412 0 3958.57756916 0 6183
0.07650000 0.07648840 25503.99298727 0 97.88012646 0 9627.34214051 0 597.66194906 0 6822.67797465 0 6330
0.07750000 0.07749960 26358.77646327 0 -1262.37789722 0 10278.71593727 0 1465.58827462 0 6298.31481589 0 6583
0.07850000 0.07848650 27014.92243202 0 -554.37690965 0 10667.49847863 0 -764.15981906 0 3975.58466008 0 6549
0.07950000 0.07947320 27709.48936790 0 674.05102522 0 12145.89743306 0 -1181.72708324 0 4667.93713099 0 6828
0.08050000 0.08048110 25936.58871793 0 1240.69828523 0 10122.17540898 0 -240.30045107 0 6617.39707251 0 7147
0.08150000 0.08149960 25707.94521043 0 1071.73682296 0 11163.67149840 0 752.33900508 0 5998.71985095 0 7386
0.08250000 0.08250610 24749.96766712 0 906.60970678 0 10415.21555763 0 1894.41941485 0 5030.10180349 0 7227
0.08350000 0.08350160 23836.72231608 0 378.29372806 0 8967.16584553 0 2050.80493058 0 3838.21032606 0 7798
0.08450000 0.08449610 23343.22879891 0 412.28244355 0 7316.89119293 0 1224.32231682 0 3613.71894036 0 7371
0.08550000 0.08548940 23008.40169640 0 -388.02740880 0 6854.96487382 0 1196.12110551 0 2867.15636714 0 8256
0.08650000 0.08650700 22920.48743734 0 383.38921194 0 6414.30849069 0 889.64801239 0 2184.79113322 0 8037
0.08750000 0.08749060 22793.48787167 0 371.40895648 0 5387.58288258 0 -259.00160769 0 919.02510460 0 8155
0.08850000 0.08849210 21941.36175362 0 1064.35711847 0 5741.68690261 0 -835.72357606 0 -37.06006768 0 8718
0.08950000 0.08949900 21028.33784908 0 1423.49129566 0 7057.28946523 0 -803.50975423 0 1664.30328814 0 8571
0.09050000 0.09049190 20285.93846999 0 1090.81997479 0 7420.11847722 0 -425.59137798 0 1048.39746948 0 8932
0.09150000 0.09150830 19718.59254628 0 268.92130350 0 7677.41716135 0 297.58201629 0 1660.00722611 0 9285
0.09250000 0.09250820 19599.78650097 0 -62.37704910 0 7758.67695320 0 557.62331528 0 1616.30476005 0 9204
0.09350000 0.09350330 19605.76555638 0 -250.35633647 0 8008.33573321 0 744.38796863 0 1756.10393321 0 9349
0.09450000 0.09448040 19749.15216278 0 -6.11665118 0 7941.44781898 0 572.68832043 0 1791.92290400 0 9564
0.09550000 0.09549270 19718.70326953 0 381.51023842 0 6993.09212594 0 959.37487070 0 1562.29395959 0 10155
0.09650000 0.09649430 19133.75234936 0 435.44796154 0 6558.99055910 0 511.63552138 0 2167.31900465 0 9913
0.09750000 0.09749140 18925.92481251 0 342.34188937 0 6610.93083482 0 730.50659500 0 1576.48868000 0 10476
0.09850000 0.09850240 18656.75659617 0 53.30327891 0 6800.05721505 0 385.46859454 0 1754.67560331 0 10575
0.09950000 0.09950330 18423.68415874 0 639.96708773 0 6034.58311103 0 233.73124076 0 1305.48245774 0 10882
0.10050000 0.10051200 18128.38525583 0 578.06393413 0 6225.81323298 0 -969.49719005 0 1814.77618243 0 10875
0.10150000 0.10150300 17371.25968473 0 550.56138651 0 6476.10313550 0 -477.19062610 0 1580.55222321 0 11118
0.10250000 0.10250800 17409.90209834 0 349.77584825 0 6815.33702330 0 -176.03446336 0 718.50530213 0 11575
0.10350000 0.10349800 16643.80794414 0 525.84131412 0 7561.94388582 0 -312.90279214 0 816.99584586 0 11364
0.10450000 0.10450100 16995.68642688 0 129.55727270 0 7344.58307730 0 379.75416770 0 378.63586289 0 12093
0.10550000 0.10551000 16679.57155331 0 -230.62434642 0 7173.88104557 0 516.48519965 0 1380.33137352 0 12067
0.10650000 0.10649700 16708.91321407 0 6.24334072 0 6852.15250332 0 261.92359421 0 -343.73700230 0 12054
0.10750000 0.10749900 16747.55562769 0 279.59170293 0 6932.77010032 0 791.80630690 0 1192.09077927 0 12807
0.10850000 0.10850100 16375.52551379 0 593.37474489 0 6101.78105036 0 505.95652598 0 1327.41673321 0 12736
0.10950000 0.10950300 15845.05043172 0 275.71860370 0 5689.15979367 0 789.74574725 0 1500.23357898 0 12933
0.11050000 0.11050200 15631.79745572 0 -115.35480166 0 5391.07066490 0 970.25010814 0 1870.29281907 0 13428
0.11150000 0.11150900 15797.66088150 0 12.34364915 0 5192.42208533 0 816.28057368 0 1225.67314045 0 13453
0.11250000 0.11250000 15578.53957334 0 61.59877539 0 4920.93975310 0 392.59474279 0 1307.79657363 0 13668
0.11350000 0.11349100 15542.22234793 0 69.89460403 0 5199.76303668 0 54.76205770 0 1819.91374114 0 13791
0.11450000 0.11448600 15487.19289359 0 199.36828068 0 5304.59580807 0 -202.21276093 0 2025.65968092 0 14205
0.11550000 0.11549300 15373.81228744 0 257.01080369 0 5566.66666420 0 -397.09121390 0 1437.53100353 0 14776
0.11650000 0.11649800 14963.13975992 0 488.60619299 0 5713.61855919 0 113.03514961 0 2356.26822768 0 14553
0.11750000 0.11747300 14904.89933137 0 363.21875782 0 5919.33128200 0 -372.89596971 0 1395.98764081 0 14568
0.11850000 0.11849100 14678.02739584 0 261.03559376 0 6154.48531650 0 75.10169695 0 1922.56526454 0 16015
0.11950000 0.11950300 14743.90772851 0 -117.72538640 0 6030.38669993 0 -103.71701321 0 1301.48534848 0 15270
0.12050000 0.12050700 14416.72053012 0 193.85094123 0 5561.89449220 0 -70.68992913 0 1432.52631271 0 15999
0.12150000 0.12150000 14387.93248559 0 257.47362687 0 6028.74799586 0 562.39216558 0 1145.31020692 0 15670
0.12250000 0.12250700 14143.45555359 0 192.84225244 0 5452.46670602 0 740.60787693 0 1412.69577896 0 16887
0.12350000 0.12352200 14081.45053461 0 -84.14258233 0 5088.64118480 0 941.80641291 0 750.09243037 0 16407
0.12450000 0.12449800 14083.55427633 0 -6.27395570 0 4654.46211169 0 518.89121584 0 880.25646648 0 16306
0.12550000 0.12549900 13993.75772205 0 211.94533445 0 4640.53312707 0 -206.86535182 0 517.86370409 0 17523
0.12650000 0.12650100 13722.26431749 0 270.97743422 0 4950.34784782 0 -365.37786116 0 598.33846811 0 17154
0.12750000 0.12750600 13614.75204350 0 385.06334745 0 5247.65084152 0 -139.06729249 0 789.86865005 0 18007
0.12850000 0.12850300 13386.32998250 0 303.42266763 0 4806.24154030 0 -23.00308698 0 742.70276079 0 17496
0.12950000 0.12949900 13256.11944263 0 11.76567380 0 4732.25626587 0 363.35384018 0 762.15462103 0 18405
0.13050000 0.13049000 13162.33685141 0 130.44748762 0 5231.88385098 0 227.06459399 0 762.30631188 0 18100
0.13150000 0.13148800 13102.10340440 0 270.69287547 0 4787.85040878 0 229.18715865 0 397.30269531 0 19059
0.13250000 0.13249300 12794.84639068 0 307.06767696 0 4690.54681827 0 211.80582315 0 1002.61783528 0 18957
0.13350000 0.13349100 12725.86580706 0 134.05485104 0 4656.95338477 0 191.29766312 0 947.94712426 0 19468
0.13450000 0.13450700 12483.04972379 0 11.14285553 0 4233.84663648 0 729.34621536 0 631.51226050 0 19953
0.13550000 0.13551000 12437.65319203 0 77.71166536 0 4096.17334968 0 498.92559972 0 549.06883713 0 19956
0.13650000 0.13649900 12357.93245334 0 66.98346839 0 3771.80959412 0 56.68399185 0 -32.50159155 0 19723
0.13750000 0.13749600 12039.82456130 0 373.52044883 0 3414.94856522 0 -58.10922150 0 42.78899926 0 20946
0.13850000 0.13851100 11928.21552713 0 475.72575753 0 3536.04658176 0 -488.14890598 0 74.79001101 0 20955
0.13950000 0.13949800 11513.77840917 0 172.77698540 0 3523.45734844 0 -143.16294544 0 212.44580353 0 20506
0.14050000 0.14048300 11494.95545697 0 95.86939227 0 3812.57789410 0 200.54194712 0 247.23394088 0 21447
0.14150000 0.14148400 11504.58837957 0 -20.31129409 0 3646.59267275 0 527.56306063 0 64.10853925 0 21771
0.14250000 0.14249400 11426.30704310 0 116.66576492 0 3454.14459507 0 265.10467313 0 -104.18127579 0 22470
0.14350000 0.14350900 11274.83763958 0 231.74597292 0 3552.61077969 0 287.86051510 0 434.31636994 0 22519
0.14450000 0.14449900 11090.70487785 0 -19.30315892 0 3186.08361122 0 335.28438953 0 527.16556417 0 22218
0.14550000 0.14550500 11176.84756493 0 39.73204110 0 3269.44714477 0 150.14183177 0 246.87076862 0 23559
0.14650000 0.14650700 11085.16871544 0 212.19667622 0 3371.19073753 0 119.62318288 0 269.44281000 0 23044
0.14750000 0.14750500 10723.38050199 0 484.18279923 0 3349.43361926 0 -336.44919810 0 -11.12292534 0 23649
0.14850000 0.14849900 10605.21665152 0 291.78454702 0 3237.84672974 0 -345.59826010 0 504.94230103 0 23640
0.14950000 0.14949500 10308.25689989 0 8.63551650 0 3471.98211036 0 80.01924857 0 268.31675456 0 24457
0.15050000 0.15050000 10241.72330005 0 7.67457157 0 3224.67066321 0 406.15169730 0 537.01661156 0 24591
0.15150000 0.15149900 10344.35267879 0 82.61526585 0 3134.86303660 0 618.10035344 0 461.04496205 0 25020
0.15250000 0.15250500 10234.10554058 0 108.87782381 0 2705.65543733 0 458.08643686 0 690.55875429 0 25297
0.15350000 0.15350100 9865.76251083 0 334.19930170 0 2756.10094921 0 468.77676647 0 985.46680414 0 25452
0.15450000 0.15450400 9817.09964326 0 256.79710782 0 2654.86668339 0 268.89583715 0 1132.78740755 0 26061
0.15550000 0.15549900 9622.25994342 0 76.63598900 0 2563.86324571 0 159.18570669 0 1182.73466480 0 26128
0.15650000 0.15649500 9574.52715113 0 8.04853934 0 2568.48040516 0 167.00941140 0 1015.54477451 0 26331
0.15750000 0.15749700 9620.89804747 0 56.04766534 0 2573.02005833 0 -146.39717152 0 1273.19555857 0 27345
0.15850000 0.15849900 9516.58567535 0 74.15479173 0 2669.01711451 0 -116.71116145 0 1143.23968217 0 26980
0.15950000 0.15949700 9512.15674543 0 76.49836000 0 2882.54689864 0 -162.43321955 0 1212.71852041 0 27777
0.16050000 0.16050000 9382.99807642 0 239.52981727 0 3047.30309194 0 -118.32218471 0 911.53246239 0 28224
0.16150000 0.16150500 9247.09636159 0 234.34021862 0 2946.42314052 0 -213.73794383 0 741.39733369 0 28075
0.16250000 0.16249700 9213.58043437 0 164.71633293 0 3082.00375792 0 -271.04497540 0 914.38358603 0 28590
0.16350000 0.16349900 8967.58659387 0 130.38437537 0 3212.44681661 0 -231.25879063 0 897.86589187 0 29163
0.16450000 0.16449100 8975.99048841 0 79.29533997 0 3068.13013492 0 362.39608408 0 871.97104582 0 28996
0.16550000 0.16550500 8937.92383568 0 85.52108677 0 3074.24205822 0 481.11244355 0 622.65329341 0 30777
0.16650000 0.16650700 8654.76020077 0 67.61946273 0 2594.95433380 0 484.66444536 0 739.15629515 0 29211
0.16750000 0.16749900 8706.26865582 0 226.89740188 0 2541.06532890 0 257.69175167 0 521.62829453 0 30922
0.16850000 0.16850800 8422.23030725 0 223.39854724 0 2508.76735741 0 34.17904876 0 957.48703932 0 30867
0.16950000 0.16949900 8343.79395824 0 138.50814009 0 2510.18461499 0 -134.69372419 0 854.43248330 0 30852
0.17050000 0.17049200 8150.00612926 0 148.53855914 0 2367.45127575 0 207.07129706 0 1084.49435562 0 31257
0.17150000 0.17149500 8159.83835370 0 -46.05976401 0 2313.83907898 0 338.06243583 0 931.84907120 0 32608
0.17250000 0.17250900 8224.95469596 0 -126.55888714 0 2159.40229241 0 280.48302507 0 545.29871053 0 32361
0.17350000 0.17350400 8244.14303487 0 -5.84088386 0 2210.85538584 0 283.38951034 0 749.54656476 0 32508
0.17450000 0.17449800 8290.44749726 0 32.57466889 0 2067.31376689 0 -89.12092102 0 662.19256534 0 32791
0.17550000 0.17549800 8175.54998262 0 117.14741105 0 1970.19840591 0 56.49443365 0 1032.54854373 0 33633
0.17650000 0.17650100 8248.26193970 0 96.07544824 0 2232.77858898 0 73.55478245 0 752.53387800 0 33984
0.17750000 0.17750300 8173.44624090 0 8.53366218 0 2074.43327175 0 108.77540480 0 1062.05296767 0 34069
0.17850000 0.17849800 8153.40533298 0 75.83247039 0 2215.25109879 0 -38.41199854 0 687.14847825 0 34536
