### header ###
fiducial parameters:
Omega_m = 0.31
Omega_nu = 0
Omega_de = 0.69
Omega_k = 0
H_0 = 100
w_de = -1
zeff = 0
beta = 0
fgrowth = 0
b_1 = 2
gamma = 0.55
Lx = 3500 Ly = 3500 Lz = 3500
nx = 700 ny = 700 nz = 700
xoffset = -685.467585 yoffset = -31.7331281 zoffset = 572.489161
bins = 400 dk = 0.001
kx_ny = 0.628318531 ky_ny = 0.628318531 kz_ny = 0.628318531
############################
A(data) = 8.0061291 (not used)
A(ran) = 7.99886442 (used)
Ngal = 475619
weighted Ngal = 0
Nran = 23820508
weighted Nran = 0
SN(data) = 3495.57791
SN(ran) = 69.67301
SN(data+ran) = 3565.25092
############################
13 columns: k_central k_mean P_0(k) sigma^{lin}_{P_0(k)} P^img_1(k) sigma^{lin}_{P_1(k)} P_2(k) sigma^{lin}_{P_2(k)} P^img_3(k) sigma^{lin}_{P_3(k)} P_4(k) sigma^{lin}_{P_4(k)} N_modes
### header ###
0.00050000 0 0 0 0 0 0 0 0 0 0 0 0
0.00150000 0.00179520 19111.38625322 0 -15546.42983136 0 16325.47860560 0 -39676.67947839 0 -25844.13480570 0 3
0.00250000 0.00253879 32901.41319861 0 -9029.15979219 0 -75.11177277 0 18282.40129405 0 36900.07258361 0 6
0.00350000 0.00331552 34724.58220325 0 -5521.63551916 0 12562.54901599 0 -32725.80612698 0 7091.01576663 0 7
0.00450000 0.00420575 34944.47857414 0 143.65566389 0 5982.07814674 0 -12488.03226996 0 20454.79142347 0 24
0.00550000 0.00557378 37102.25323480 0 3461.59626968 0 20702.92222266 0 -13796.67034027 0 4165.99542999 0 45
0.00650000 0.00659388 36772.74084820 0 2475.92684200 0 10432.30015483 0 7684.08270089 0 20085.97228376 0 40
0.00750000 0.00754703 44368.24495054 0 -9101.60601347 0 28255.57642795 0 -2075.42978098 0 27010.38277885 0 57
0.00850000 0.00846663 47292.22448865 0 -4303.81265701 0 19656.69825054 0 18633.94760704 0 11919.68983702 0 75
0.00950000 0.00948925 62963.32869747 0 -11186.70193402 0 29017.68454522 0 17741.07533367 0 4587.61848676 0 112
0.01050000 0.01054430 66967.08135190 0 -13412.12849932 0 17558.60342066 0 19291.09008503 0 27826.41311798 0 105
0.01150000 0.01145670 80920.31436511 0 -6091.06303993 0 21745.27088108 0 21962.50989403 0 12377.86263801 0 144
0.01250000 0.01249090 82932.37723115 0 -8404.74710636 0 16071.59019751 0 13187.69247525 0 20079.55033537 0 169
0.01350000 0.01339930 85726.25695264 0 1751.95181140 0 21526.59246592 0 7286.54195060 0 -486.26439629 0 180
0.01450000 0.01448870 85468.27178436 0 4819.70548728 0 14271.67307499 0 -11706.10469127 0 3222.42298127 0 267
0.01550000 0.01550050 83309.38989122 0 5384.62657186 0 16037.37671382 0 -22545.79996547 0 14208.00720729 0 238
0.01650000 0.01653350 80510.63834682 0 6710.86963863 0 14941.99161952 0 -14459.01681093 0 1655.92153825 0 315
0.01750000 0.01747870 79745.42997860 0 2652.29790403 0 21447.53606671 0 -5349.22834941 0 867.16787131 0 297
0.01850000 0.01844180 80768.84496159 0 3940.14214834 0 23992.39920303 0 692.80865069 0 -28754.71683078 0 388
0.01950000 0.01947590 73102.58870365 0 4589.55614360 0 21105.29050657 0 3497.27130024 0 -11400.39780302 0 399
0.02050000 0.02045430 69363.79678214 0 4210.24043997 0 21479.64580868 0 -605.31513998 0 -25428.92262500 0 462
0.02150000 0.02154770 65893.73018398 0 3538.46034857 0 18318.93996595 0 1682.92693849 0 -15086.81762814 0 571
0.02250000 0.02255340 64348.25508579 0 575.87825721 0 22617.88080004 0 4805.89829823 0 -19803.62800089 0 510
0.02350000 0.02348930 61684.25373442 0 1856.62957024 0 19363.28164285 0 202.04778329 0 -10989.00557439 0 555
0.02450000 0.02439640 63315.76079645 0 1281.64374241 0 23927.95827258 0 5748.90605839 0 -1780.45197549 0 592
0.02550000 0.02547300 65139.15124759 0 -330.91967909 0 27482.61743236 0 5521.43621731 0 1557.48857061 0 837
0.02650000 0.02652900 64425.31846653 0 2587.41408060 0 21848.57567164 0 6754.14028402 0 3213.50975979 0 723
0.02750000 0.02749970 62576.35094506 0 3035.41141508 0 22890.81360682 0 7675.05875617 0 10649.10734710 0 826
0.02850000 0.02848090 60953.59101964 0 791.87716977 0 18607.15258098 0 7193.10260146 0 4119.69096760 0 831
0.02950000 0.02946900 61081.58709454 0 -311.83542003 0 26870.76076288 0 -378.44431167 0 9208.11070591 0 996
0.03050000 0.03053250 59565.23221063 0 3634.74528519 0 23157.87808145 0 3558.09158047 0 2660.94538972 0 1041
0.03150000 0.03150510 56683.10606034 0 7143.85290067 0 20783.75019383 0 296.32198573 0 4800.60572697 0 1036
0.03250000 0.03246190 51740.19881480 0 1315.23717591 0 19983.99617218 0 2409.86935213 0 6703.03043266 0 1059
0.03350000 0.03345080 50652.67507111 0 -107.55678473 0 20061.28099942 0 9941.85152699 0 4358.88640066 0 1302
0.03450000 0.03451200 49487.42360720 0 1198.55701697 0 21021.91590068 0 9478.40829938 0 3127.74353175 0 1339
0.03550000 0.03553350 49739.09755032 0 -931.04522042 0 16202.79724661 0 8220.90222507 0 4115.52777347 0 1365
0.03650000 0.03647120 50322.71979151 0 -70.18835281 0 15191.89399067 0 -2572.36679117 0 140.83000660 0 1308
0.03750000 0.03744890 49897.54251848 0 2320.30531667 0 15744.40299912 0 -4091.78870906 0 3061.15457029 0 1579
0.03850000 0.03847530 48405.87891891 0 3175.85278308 0 15625.48623057 0 -5476.84796527 0 1351.51011201 0 1662
0.03950000 0.03950240 47127.35757210 0 1393.39671680 0 19554.94358546 0 -3097.56037429 0 2677.04455000 0 1683
0.04050000 0.04050350 43770.11796384 0 1178.48289207 0 18861.81605181 0 3786.98975145 0 -1306.25752048 0 1822
0.04150000 0.04152450 44358.94419769 0 1516.81992156 0 14606.38945426 0 6971.61181579 0 -7296.68420014 0 1887
0.04250000 0.04250150 40290.86133608 0 1431.70696068 0 11628.59841754 0 5852.38800614 0 -1402.32101061 0 1920
0.04350000 0.04349210 39362.44690003 0 1655.06896924 0 7609.31129139 0 8313.37828196 0 686.21065233 0 2005
0.04450000 0.04448520 37952.93995062 0 -1997.59133751 0 5782.84273396 0 4264.55019320 0 -1189.67701246 0 2151
0.04550000 0.04548030 39668.48595802 0 -1559.47051676 0 6112.88659215 0 2404.82037201 0 -2092.63617375 0 2274
0.04650000 0.04648670 40561.80112439 0 -1025.74349290 0 5446.27727645 0 267.35456954 0 2071.70947984 0 2311
0.04750000 0.04749250 42511.52680170 0 -202.78741459 0 8090.61417893 0 -4740.47193088 0 3391.51952590 0 2568
0.04850000 0.04851840 41335.42445947 0 2318.41194913 0 7502.06475320 0 -208.37672416 0 6141.63034738 0 2493
0.04950000 0.04949480 40964.05868505 0 1968.80329298 0 9614.42073745 0 -2394.32380808 0 8137.12901550 0 2644
0.05050000 0.05050630 39978.40032969 0 92.67945549 0 10381.84357063 0 2043.14288181 0 6403.75656514 0 2829
0.05150000 0.05149060 41347.16112377 0 227.82969163 0 12004.94673812 0 307.22601121 0 1956.12548106 0 2784
0.05250000 0.05249300 40482.52327869 0 -140.05162217 0 10488.43684166 0 -2608.72830587 0 -669.08730200 0 3055
0.05350000 0.05348950 40363.93867988 0 402.50004457 0 15237.17979918 0 -2137.19120882 0 293.61037338 0 3009
0.05450000 0.05448610 39638.59068101 0 2419.83444447 0 13256.23016588 0 -3760.08400214 0 -1661.83415971 0 3336
0.05550000 0.05550870 37694.51188935 0 1572.28119657 0 15792.23544234 0 982.31229880 0 203.97658227 0 3349
0.05650000 0.05647670 36791.34235389 0 760.15717363 0 14346.41126752 0 2675.94838985 0 -550.77065345 0 3324
0.05750000 0.05747970 36582.96120081 0 327.59687441 0 14186.19472739 0 5591.57939504 0 -614.19957341 0 3639
0.05850000 0.05849280 35531.42251278 0 -632.13120345 0 13709.19897421 0 3669.94420579 0 -1321.88057080 0 3846
0.05950000 0.05951020 34935.84216079 0 1751.28747192 0 11227.22664286 0 1086.21720936 0 -1309.26919283 0 3787
0.06050000 0.06049470 34313.02388974 0 2203.20440939 0 12665.74308330 0 -2296.31158879 0 2859.16214862 0 3930
0.06150000 0.06148310 32081.61826903 0 380.88797376 0 10841.71043732 0 445.89691447 0 2411.48591155 0 4083
0.06250000 0.06249100 33400.88577118 0 -647.79965030 0 11826.79303179 0 491.70312224 0 2466.50429358 0 4303
0.06350000 0.06350600 33237.79042660 0 -339.74542920 0 10340.35556954 0 1930.98023140 0 -2905.35588776 0 4470
0.06450000 0.06451750 33667.17518307 0 330.99164920 0 9397.28137543 0 334.01660834 0 -1945.42961529 0 4479
0.06550000 0.06550280 32138.41929535 0 1441.52811279 0 6979.88284243 0 -212.79126006 0 -3804.77190511 0 4636
0.06650000 0.06648880 31741.58717385 0 583.09298406 0 8995.69922658 0 713.72759397 0 -1829.79025488 0 4653
0.06750000 0.06749660 31200.70410646 0 921.73450248 0 9111.82576928 0 -475.42680476 0 -917.23249521 0 5220
0.06850000 0.06852730 30832.54930624 0 960.18425765 0 9536.69301722 0 -1751.95181140 0 -3726.74523211 0 5029
0.06950000 0.06949320 29953.62816214 0 243.62768468 0 12162.50592029 0 -718.32593047 0 -739.88928305 0 5040
0.07050000 0.07048030 29423.70669632 0 1438.37250022 0 12808.35462696 0 -2039.96512459 0 -1662.46528222 0 5475
0.07150000 0.07148790 29168.15743950 0 1165.12966834 0 13976.92778832 0 -1282.70668559 0 1695.39437623 0 5509
0.07250000 0.07249820 28584.31375182 0 555.51293017 0 15180.93238910 0 1800.89148710 0 1441.15165375 0 5916
0.07350000 0.07351270 28236.64275251 0 89.47855711 0 13581.09217606 0 2579.53058532 0 1860.68204112 0 5721
0.07450000 0.07449140 27711.81455611 0 -598.90647837 0 12525.23528135 0 1790.20669365 0 -1784.52659102 0 6028
0.07550000 0.07549160 27769.61209166 0 433.30878838 0 11283.03115995 0 1450.70707006 0 -1988.15771676 0 6183
0.07650000 0.07648840 26948.93137610 0 1136.19768359 0 10127.08044888 0 669.68188584 0 -1054.17833026 0 6330
0.07750000 0.07749960 26432.85031631 0 187.38027460 0 7828.56546745 0 571.25445437 0 -2761.65925627 0 6583
0.07850000 0.07848650 26299.20735575 0 624.60645151 0 7755.94208897 0 217.67083361 0 -3403.93160202 0 6549
0.07950000 0.07947320 25498.34610161 0 760.04091422 0 7823.54970431 0 -907.05481424 0 -3211.91534502 0 6828
0.08050000 0.08048110 25321.29962776 0 387.89564814 0 8549.67276591 0 -1145.28806227 0 -3149.20169724 0 7147
0.08150000 0.08149960 25179.02025384 0 123.17629191 0 9818.29545434 0 -1004.59424526 0 -3167.06135718 0 7386
0.08250000 0.08250610 24788.61008074 0 516.61253139 0 10448.89756973 0 89.35465780 0 -3828.02378723 0 7227
0.08350000 0.08350160 24353.02482237 0 1048.09408778 0 11238.40969093 0 475.00162749 0 -3717.57734716 0 7798
0.08450000 0.08449610 23912.78918758 0 336.24103840 0 9978.14660774 0 769.64947770 0 -3321.05525075 0 7371
0.08550000 0.08548940 22856.93229288 0 795.93296236 0 10699.43106340 0 1579.54464165 0 -2557.69596078 0 8256
0.08650000 0.08650700 22203.66512858 0 1077.65276611 0 9216.03849048 0 868.36257516 0 -4372.35034764 0 8037
0.08750000 0.08749060 21376.45174137 0 523.33343255 0 9342.40693363 0 376.99162266 0 -2019.45917902 0 8155
0.08850000 0.08849210 20523.32911410 0 1019.47544982 0 9250.96060295 0 1386.76439424 0 -838.78728833 0 8718
0.08950000 0.08949900 20027.62113197 0 3.28879050 0 8039.70362942 0 1205.96440227 0 -1570.65356482 0 8571
0.09050000 0.09049190 20085.97228376 0 206.71144650 0 8706.92192299 0 690.99057496 0 -292.56846761 0 8932
0.09150000 0.09150830 19895.86046663 0 748.95530262 0 9410.34671872 0 -94.36765286 0 910.45401796 0 9285
0.09250000 0.09250820 19237.50003291 0 705.14986394 0 10058.98565124 0 -173.42360917 0 1808.78605470 0 9204
0.09350000 0.09350330 19064.55031924 0 421.02293676 0 9765.98979189 0 431.06110644 0 2901.11518736 0 9349
0.09450000 0.09448040 18523.55652860 0 284.04167027 0 10116.67246355 0 1465.13430930 0 2959.88708749 0 9564
0.09550000 0.09549270 18426.45223994 0 9.95656665 0 8889.72600575 0 1787.06215340 0 2618.13978197 0 10155
0.09650000 0.09649430 18339.53449012 0 -197.62881846 0 7341.10636731 0 1814.32221711 0 2446.45231333 0 9913
0.09750000 0.09749140 18314.17886628 0 68.05881258 0 6577.29311202 0 1275.02249217 0 740.65659516 0 10476
0.09850000 0.09850240 17793.55815331 0 213.10571409 0 5444.86001887 0 351.42562465 0 1228.18655818 0 10575
0.09950000 0.09950330 17886.12278879 0 249.85918909 0 5121.19381977 0 -167.78558137 0 356.20444004 0 10882
0.10050000 0.10051200 17502.68818032 0 140.42254505 0 5006.88313834 0 -145.54017358 0 -200.17102423 0 10875
0.10150000 0.10150300 17308.92249600 0 252.20541472 0 4832.57152872 0 -184.68084181 0 -1336.81713698 0 11118
0.10250000 0.10250800 16953.16869957 0 604.28541377 0 4718.55980006 0 -811.65123467 0 -1571.49506151 0 11575
0.10350000 0.10349800 16701.05186345 0 606.30943474 0 4986.28861418 0 43.53970288 0 -1140.09514193 0 11364
0.10450000 0.10450100 16301.11949100 0 76.65680497 0 4690.11499761 0 267.69781161 0 -948.04456071 0 12093
0.10550000 0.10551000 16220.84513607 0 -119.71951210 0 4411.98927049 0 604.57772314 0 -1914.37174417 0 12067
0.10650000 0.10649700 16311.19530659 0 79.11231445 0 4452.33682213 0 244.39388956 0 -2334.54432639 0 12054
0.10750000 0.10749900 15902.07290454 0 170.16391674 0 4070.23089263 0 17.93030136 0 -1681.15536651 0 12807
0.10850000 0.10850100 15738.31322047 0 205.68836369 0 4211.69091452 0 482.37136689 0 -1530.70461688 0 12736
0.10950000 0.10950300 15724.36209120 0 343.51444857 0 4451.11886640 0 16.26203418 0 -509.69011391 0 12933
0.11050000 0.11050200 15556.39492370 0 501.64385547 0 4343.25227801 0 880.09038160 0 -370.14671145 0 13428
0.11150000 0.11150900 14939.55570805 0 87.78249839 0 4536.45327377 0 447.64966349 0 233.14219308 0 13453
0.11250000 0.11250000 15168.64210855 0 346.04890372 0 4315.71540619 0 284.15128629 0 921.49423303 0 13668
0.11350000 0.11349100 14766.71671764 0 61.82000044 0 4858.93473412 0 235.71097244 0 526.62855642 0 13791
0.11450000 0.11448600 14794.50825293 0 110.80739786 0 4787.20821394 0 -86.17136441 0 1228.20870283 0 14205
0.11550000 0.11549300 14748.66882818 0 244.78917156 0 4988.91275516 0 -956.05206602 0 383.43903740 0 14776
0.11650000 0.11649800 14642.04234018 0 287.75200632 0 4723.27661044 0 -32.09900182 0 892.84127087 0 14553
0.11750000 0.11747300 14570.40439860 0 -143.06329452 0 4742.38744307 0 68.70731864 0 500.18895198 0 14568
0.11850000 0.11849100 14554.57097411 0 17.88955521 0 4515.15012082 0 725.77428338 0 -149.07003073 0 16015
0.11950000 0.11950300 14340.87510511 0 409.23201806 0 4688.78631863 0 599.72472317 0 -277.04174652 0 15270
0.12050000 0.12050700 13993.20410581 0 728.78595573 0 4153.57228154 0 195.98789992 0 -172.80688068 0 15999
0.12150000 0.12150000 13460.29311228 0 456.90723427 0 4234.54419294 0 -218.00189612 0 743.26080596 0 15670
0.12250000 0.12250700 12919.85293789 0 190.05534828 0 4256.65562561 0 313.16409901 0 620.08894298 0 16887
0.12350000 0.12352200 13042.64502012 0 79.87707992 0 4505.73864473 0 155.93819382 0 1044.64505859 0 16407
0.12450000 0.12449800 13029.35823034 0 -42.64251240 0 4489.93843721 0 125.64874204 0 329.82351893 0 16306
0.12550000 0.12549900 12884.42149847 0 168.14321746 0 4290.92447092 0 -96.72827251 0 635.23588333 0 17523
0.12650000 0.12650100 12650.57399830 0 387.23905928 0 4463.36485764 0 -37.20201488 0 723.80783849 0 17154
0.12750000 0.12750600 12429.45967167 0 255.22373046 0 4341.76858649 0 33.62808988 0 316.76703350 0 18007
0.12850000 0.12850300 12496.00434383 0 -60.75727870 0 4481.23558990 0 324.68374575 0 883.79850319 0 17496
0.12950000 0.12949900 12285.18727928 0 211.88111496 0 4488.49903498 0 85.00356631 0 -202.93356928 0 18405
0.13050000 0.13049000 12196.60868073 0 236.88906780 0 4380.32242150 0 49.53824558 0 626.07242731 0 18100
0.13150000 0.13148800 12268.57879205 0 15.62305032 0 4426.33900345 0 -114.99716557 0 203.68427290 0 19059
0.13250000 0.13249300 11986.45595567 0 40.76387105 0 4625.28653579 0 -110.22499357 0 429.78225293 0 18957
0.13350000 0.13349100 12457.25120696 0 -88.72918217 0 4520.67521091 0 453.65639970 0 238.93191173 0 19468
0.13450000 0.13450700 12102.16175003 0 70.97803102 0 4036.12813219 0 345.86953206 0 416.38916883 0 19953
0.13550000 0.13551000 12148.77623752 0 45.06524780 0 3792.28232271 0 633.07788723 0 -241.64573854 0 19956
0.13650000 0.13649900 12000.73925469 0 161.73787756 0 3416.10008700 0 705.22183405 0 490.70993471 0 19723
0.13750000 0.13749600 11813.61696525 0 173.41364408 0 2994.05628189 0 625.02941432 0 368.70620200 0 20946
0.13850000 0.13851100 11703.22588681 0 -27.22009261 0 2466.99147587 0 540.45235396 0 609.18823920 0 20955
0.13950000 0.13949800 11651.62885316 0 107.28385193 0 2769.18843714 0 306.45094847 0 1032.32156107 0 20506
0.14050000 0.14048300 11717.39846258 0 77.38934998 0 2737.45515421 0 165.02857249 0 529.22944552 0 21447
0.14150000 0.14148400 11380.02472536 0 273.47977963 0 2942.94643052 0 -360.33995336 0 1144.57943348 0 21771
0.14250000 0.14249400 11446.34795102 0 392.29357556 0 3169.08759262 0 -664.06268100 0 973.41568580 0 22470
0.14350000 0.14350900 11049.32760000 0 102.33718009 0 3384.41109337 0 -220.36251577 0 1446.83175638 0 22519
0.14450000 0.14449900 11000.37685197 0 318.15771750 0 3879.49902531 0 -152.93205763 0 821.03835165 0 22218
0.14550000 0.14550500 10706.01909667 0 279.24071023 0 3505.16586784 0 -164.22472171 0 344.85862880 0 23559
0.14650000 0.14650700 10505.07854586 0 182.20396275 0 3623.73939432 0 315.88456922 0 -3.65489692 0 23044
0.14750000 0.14750500 10331.04374436 0 95.65326049 0 3387.04630667 0 93.66622108 0 55.12689081 0 23649
0.14850000 0.14849900 10370.07368935 0 117.95126183 0 3363.15222971 0 338.42892978 0 226.98598048 0 23640
0.14950000 0.14949500 10102.88741915 0 148.12888312 0 2973.79392747 0 580.90509268 0 -83.30473951 0 24457
0.15050000 0.15050000 10125.91785477 0 59.93338701 0 2984.73338439 0 386.38206134 0 375.16911799 0 24591
0.15150000 0.15149900 9964.60515449 0 42.14160043 0 2542.61545438 0 216.96552652 0 247.14536228 0 25020
0.15250000 0.15250500 9954.27467543 0 89.44279350 0 2780.05038779 0 246.24296780 0 205.73597469 0 25297
0.15350000 0.15350100 9893.90836052 0 102.51156921 0 2453.64932446 0 -395.09155204 0 456.71568305 0 25452
0.15450000 0.15450400 9850.05088192 0 115.60392897 0 2698.27019668 0 -88.17600882 0 5.77529141 0 26061
0.15550000 0.15549900 9688.97070045 0 47.89013003 0 2689.43448147 0 -270.66962359 0 -82.33413952 0 26128
0.15650000 0.15649500 9658.36679466 0 142.42109968 0 2492.83428199 0 -14.36313048 0 -692.76546863 0 26331
0.15750000 0.15749700 9538.03276853 0 129.51519787 0 2510.83788215 0 -0.00142562 0 -957.93657571 0 27345
0.15850000 0.15849900 9353.13601638 0 313.17627857 0 2481.55158300 0 184.08957967 0 -1017.30416692 0 26980
0.15950000 0.15949700 9203.09494276 0 278.11797649 0 2368.25955546 0 -100.46828239 0 -724.39467170 0 27777
0.16050000 0.16050000 8907.90676310 0 172.46806754 0 2252.80842458 0 285.34377567 0 -531.57124222 0 28224
0.16150000 0.16150500 8821.07759187 0 31.53198807 0 2315.64386792 0 374.13496285 0 -70.53945623 0 28075
0.16250000 0.16249700 8819.20636898 0 63.41020773 0 2381.11452457 0 539.06831335 0 -42.93127864 0 28590
0.16350000 0.16349900 8784.86001739 0 -47.76058383 0 2169.96529028 0 282.92225823 0 184.09733029 0 29163
0.16450000 0.16449100 8827.83171001 0 46.11900095 0 2232.57928713 0 284.79126666 0 363.29515686 0 28996
0.16550000 0.16550500 8766.80105561 0 120.85774709 0 2220.66546563 0 -92.54625542 0 611.44256453 0 30777
0.16650000 0.16650700 8608.88755904 0 253.69907134 0 2332.92776696 0 -71.03527494 0 583.18931329 0 29211
0.16750000 0.16749900 8552.49620874 0 210.34206181 0 2511.42471537 0 -191.80809730 0 749.81451502 0 30922
0.16850000 0.16850800 8376.12514671 0 217.32648431 0 2691.63787411 0 -323.39271268 0 581.28930235 0 30867
0.16950000 0.16949900 8274.70265137 0 140.83665000 0 2897.30630762 0 -135.09122065 0 681.35765237 0 30852
0.17050000 0.17049200 8278.91013480 0 -60.42887355 0 2908.82152543 0 -113.29534924 0 594.31146357 0 31257
0.17150000 0.17149500 8304.44291583 0 51.20773071 0 2891.29403524 0 119.79591114 0 752.71324966 0 32608
0.17250000 0.17250900 8293.63632681 0 50.71379430 0 2907.78072690 0 174.67921080 0 453.20797055 0 32361
0.17350000 0.17350400 8214.77922945 0 114.97169922 0 2692.42400918 0 422.71921693 0 810.32366292 0 32508
0.17450000 0.17449800 8241.70712341 0 31.92062667 0 2526.46093247 0 232.55203817 0 690.30519805 0 32791
0.17550000 0.17549800 8107.89807798 0 65.86903890 0 2540.32348314 0 11.22091542 0 516.34347390 0 33633
0.17650000 0.17650100 8106.28151855 0 178.62095844 0 2529.68297899 0 -40.71581716 0 539.20228848 0 33984
0.17750000 0.17750300 7955.72004567 0 58.73824027 0 2320.95858384 0 -22.17531998 0 444.44311822 0 34069
0.17850000 0.17849800 7870.00917925 0 29.34885778 0 2232.98896315 0 103.39702302 0 414.86450970 0 34536
