### header ###
fiducial parameters:
Omega_m = 0.31
Omega_nu = 0
Omega_de = 0.69
Omega_k = 0
H_0 = 100
w_de = -1
zeff = 0
beta = 0
fgrowth = 0
b_1 = 2
gamma = 0.55
Lx = 3500 Ly = 3500 Lz = 3500
nx = 700 ny = 700 nz = 700
xoffset = -685.467585 yoffset = -31.7331281 zoffset = 572.489161
bins = 400 dk = 0.001
kx_ny = 0.628318531 ky_ny = 0.628318531 kz_ny = 0.628318531
############################
A(data) = 8.03701958 (not used)
A(ran) = 8.02863785 (used)
Ngal = 477376
weighted Ngal = 0
Nran = 23820508
weighted Nran = 0
SN(data) = 3495.6417
SN(ran) = 69.9323474
SN(data+ran) = 3565.57405
############################
13 columns: k_central k_mean P_0(k) sigma^{lin}_{P_0(k)} P^img_1(k) sigma^{lin}_{P_1(k)} P_2(k) sigma^{lin}_{P_2(k)} P^img_3(k) sigma^{lin}_{P_3(k)} P_4(k) sigma^{lin}_{P_4(k)} N_modes
### header ###
0.00050000 0 0 0 0 0 0 0 0 0 0 0 0
0.00150000 0.00179520 14378.41028625 0 -7891.65557427 0 4014.54817112 0 4806.40762518 0 -3349.76578901 0 3
0.00250000 0.00253879 25883.33083556 0 -9671.83074164 0 52.21741601 0 -15500.47968337 0 -11305.06508633 0 6
0.00350000 0.00331552 28757.48491198 0 -4225.91885191 0 1256.35455252 0 2397.94445830 0 37875.10150714 0 7
0.00450000 0.00420575 35058.52351978 0 -4250.74300415 0 9232.06014449 0 -9436.94244293 0 13191.45706569 0 24
0.00550000 0.00557378 39605.37370655 0 -5777.11834203 0 9011.27798760 0 7839.16168230 0 -9979.88496274 0 45
0.00650000 0.00659388 45080.52760613 0 -4421.98757980 0 7189.34908335 0 10939.54549942 0 15129.99969494 0 40
0.00750000 0.00754703 50175.45787143 0 -12450.27564233 0 13231.31743503 0 812.38643704 0 -18964.45650288 0 57
0.00850000 0.00846663 59963.06084136 0 1515.33623003 0 12193.50842978 0 -2545.71570533 0 18794.49631691 0 75
0.00950000 0.00948925 65882.21496616 0 -3294.49274351 0 10087.53010463 0 2497.46251377 0 5795.75306470 0 112
0.01050000 0.01054430 65618.91508198 0 -18662.29275858 0 -711.05584199 0 19210.37283710 0 30421.65533222 0 105
0.01150000 0.01145670 75782.31275626 0 -8072.43342158 0 3203.63324605 0 16964.46247089 0 -691.36814123 0 144
0.01250000 0.01249090 82301.47616298 0 3422.37809517 0 -5327.24978464 0 13486.97741510 0 14393.91154099 0 169
0.01350000 0.01339930 71697.28923767 0 9445.25775887 0 -10851.28799829 0 3022.08033600 0 3300.37214799 0 180
0.01450000 0.01448870 64205.75426537 0 2499.97593150 0 -14842.89431239 0 -6005.61790931 0 16449.48864357 0 267
0.01550000 0.01550050 62098.13723614 0 27.41109021 0 -11049.61548044 0 -1646.49898983 0 14915.63948645 0 238
0.01650000 0.01653350 62255.69641831 0 1374.09765464 0 -4955.69578071 0 -11235.86305622 0 -12993.26245143 0 315
0.01750000 0.01747870 62931.32967875 0 4308.29694856 0 227.02362638 0 -22829.58365057 0 -5946.25917596 0 297
0.01850000 0.01844180 56722.19136695 0 6941.10756091 0 4580.46576493 0 -30136.10007515 0 -3277.85103931 0 388
0.01950000 0.01947590 56843.65477021 0 4573.85558701 0 21915.56323679 0 -13570.35202098 0 -9818.12936946 0 399
0.02050000 0.02045430 52186.63495148 0 4650.57572568 0 32686.83154362 0 -1624.27683392 0 -8478.14554759 0 462
0.02150000 0.02154770 55316.00611498 0 -1184.72768327 0 29197.94199327 0 7847.55450451 0 -5365.00641228 0 571
0.02250000 0.02255340 60985.36859187 0 -8240.57774628 0 32015.07359687 0 12255.40272552 0 -1167.00089124 0 510
0.02350000 0.02348930 61206.92581149 0 203.61008832 0 24320.47218740 0 17032.00365228 0 -6517.72400450 0 555
0.02450000 0.02439640 67607.50461941 0 694.32113026 0 21626.57555903 0 5148.77498089 0 5661.62292184 0 592
0.02550000 0.02547300 60007.12869414 0 -425.63788175 0 15327.52996970 0 -1308.59378102 0 -830.92815218 0 837
0.02650000 0.02652900 61834.83735196 0 2857.54558920 0 17876.93275919 0 4946.11821974 0 6025.04983937 0 723
0.02750000 0.02749970 60723.61883316 0 1076.77805245 0 21194.64416785 0 -270.96304019 0 7376.67067463 0 826
0.02850000 0.02848090 61534.33445638 0 -368.09722413 0 17023.58868542 0 7692.20978731 0 8987.00745160 0 831
0.02950000 0.02946900 60084.52424463 0 270.70837672 0 17480.10063769 0 451.97340633 0 5346.27203868 0 996
0.03050000 0.03053250 59860.75256004 0 1161.66403067 0 19043.40217884 0 5778.28093613 0 5717.61566845 0 1041
0.03150000 0.03150510 60518.00576128 0 903.75636867 0 16545.15353001 0 5221.26549148 0 3197.94207110 0 1036
0.03250000 0.03246190 57802.29665301 0 -870.78409259 0 13664.24533544 0 779.59131816 0 1335.15628826 0 1059
0.03350000 0.03345080 59026.23143846 0 -154.78777927 0 11386.66812025 0 2734.62063906 0 1319.24535749 0 1302
0.03450000 0.03451200 57634.88310175 0 1800.88041478 0 10604.15370834 0 5387.31714679 0 -11812.73117927 0 1339
0.03550000 0.03553350 54467.86603387 0 4273.34161911 0 8577.71896468 0 -6106.29855888 0 -12226.06106475 0 1365
0.03650000 0.03647120 51133.10324499 0 7157.88153621 0 9226.13645071 0 -6912.46345661 0 -7265.13914673 0 1308
0.03750000 0.03744890 46901.26069930 0 1287.65601478 0 3370.33816852 0 1593.31861373 0 -6720.31433170 0 1579
0.03850000 0.03847530 45747.41372995 0 -2014.53199448 0 7991.77153528 0 1976.75322220 0 -5112.41346619 0 1662
0.03950000 0.03950240 49350.45894919 0 1034.52273925 0 8077.23881055 0 3151.47152383 0 -15698.00995813 0 1683
0.04050000 0.04050350 44694.65708620 0 3197.46596113 0 8516.76581655 0 1870.73571206 0 -4477.95818176 0 1822
0.04150000 0.04152450 42311.22844573 0 1956.94483310 0 6742.63613854 0 2964.53746392 0 2710.09543959 0 1887
0.04250000 0.04250150 42000.87118107 0 -56.94906330 0 8323.01120455 0 1982.88729015 0 4312.63729989 0 1920
0.04350000 0.04349210 43659.50543890 0 -1505.05004027 0 8378.70499839 0 6085.99191517 0 1115.80246127 0 2005
0.04450000 0.04448520 42679.71541570 0 68.18249045 0 11704.77601229 0 -2891.77014521 0 2399.39493285 0 2151
0.04550000 0.04548030 44121.99644658 0 2880.93033921 0 11952.46391848 0 -7016.86440732 0 6232.33483230 0 2274
0.04650000 0.04648670 40418.85741098 0 1130.15219424 0 15385.77039825 0 -5732.14255861 0 4099.07429879 0 2311
0.04750000 0.04749250 42430.80955378 0 1519.05653117 0 20188.50201158 0 -5463.10721017 0 1858.73331196 0 2568
0.04850000 0.04851840 40261.07678231 0 1713.16545757 0 20830.91829756 0 -539.35951550 0 -4551.24589973 0 2493
0.04950000 0.04949480 40349.98755061 0 1182.54643528 0 21740.62050466 0 1153.75839075 0 -4126.81047246 0 2644
0.05050000 0.05050630 38185.34804856 0 840.89435175 0 18419.80884505 0 2700.40715537 0 -3224.85889273 0 2829
0.05150000 0.05149060 37378.83990877 0 -471.24146598 0 16825.94768741 0 4829.75915822 0 -3500.36047887 0 2784
0.05250000 0.05249300 38518.18213261 0 -566.16672111 0 11989.11331363 0 4826.03885708 0 -5015.85172145 0 3055
0.05350000 0.05348950 37546.80707627 0 492.33424476 0 12568.19590165 0 3549.55481804 0 -3465.88125938 0 3009
0.05450000 0.05448610 36142.28267303 0 2118.61184777 0 10550.04325695 0 2206.26037104 0 -968.12422177 0 3336
0.05550000 0.05550870 34395.51270964 0 1778.04928100 0 10782.88317556 0 1178.99221901 0 2785.01078931 0 3349
0.05650000 0.05647670 33919.40274243 0 594.70120940 0 11724.26330397 0 316.97519321 0 3566.69477686 0 3324
0.05750000 0.05747970 33567.08136670 0 496.87721963 0 12784.32768211 0 -130.67668474 0 3943.49706276 0 3639
0.05850000 0.05849280 32888.12640883 0 730.26411109 0 14561.76798524 0 -219.65610145 0 6456.33903570 0 3846
0.05950000 0.05951020 33240.55850780 0 475.28840070 0 15109.07300103 0 603.99531886 0 7019.08994461 0 3787
0.06050000 0.06049470 33158.29113440 0 -484.20272941 0 14517.14651622 0 951.12266701 0 6375.37819663 0 3930
0.06150000 0.06148310 33832.15282286 0 -298.18877969 0 12981.63651037 0 2501.88037137 0 4036.58209751 0 4083
0.06250000 0.06249100 33365.56505501 0 827.56105820 0 13728.90771238 0 1419.73777755 0 4820.93451534 0 4303
0.06350000 0.06350600 32130.44722149 0 1289.20614026 0 11580.10163483 0 1422.58336502 0 4482.85214933 0 4470
0.06450000 0.06451750 31147.00333109 0 1025.39582190 0 12252.08102807 0 2882.40295841 0 5727.64719474 0 4479
0.06550000 0.06550280 30222.90710173 0 742.45252625 0 11052.89288859 0 500.49565538 0 4845.81402921 0 4636
0.06650000 0.06648880 30202.97691706 0 -520.47455829 0 10986.40357805 0 2002.48530508 0 4507.68737389 0 4653
0.06750000 0.06749660 30683.84798393 0 -1108.81582431 0 10179.77364269 0 23.55991420 0 5470.00526853 0 5220
0.06850000 0.06852730 31704.16271597 0 -141.12120874 0 9755.50430029 0 -112.31877019 0 3923.98762643 0 5029
0.06950000 0.06949320 31188.30310267 0 388.93866114 0 10646.66036332 0 396.78561774 0 4700.03580064 0 5040
0.07050000 0.07048030 30835.98172694 0 1463.20772478 0 10489.21190440 0 485.97651585 0 4351.61188325 0 5475
0.07150000 0.07148790 29440.09373705 0 1299.61412559 0 10715.78488716 0 1061.30115682 0 5302.82423610 0 5509
0.07250000 0.07249820 28764.68192311 0 1298.31866358 0 10155.66919156 0 1628.80541477 0 4934.16010893 0 5916
0.07350000 0.07351270 27935.58624069 0 96.15328668 0 10153.80904099 0 529.09436316 0 5135.53248041 0 5721
0.07450000 0.07449140 27949.20520022 0 192.18898527 0 10467.97518539 0 749.56317325 0 5547.47832529 0 6028
0.07550000 0.07549160 26929.77625417 0 1089.70056275 0 10557.28455738 0 -977.76932392 0 5239.39088721 0 6183
0.07650000 0.07648840 26261.78289786 0 1090.43244342 0 9231.15221385 0 221.88385320 0 5134.14843981 0 6330
0.07750000 0.07749960 25500.11767358 0 793.25567421 0 9877.83134489 0 566.15232709 0 3754.09387441 0 6583
0.07850000 0.07848650 24879.18169775 0 139.23227013 0 8260.08718261 0 1173.85466030 0 1260.55096363 0 6549
0.07950000 0.07947320 24549.11569491 0 -22.46796152 0 7845.18502700 0 238.14356220 0 636.09177404 0 6828
0.08050000 0.08048110 24339.62730934 0 231.23664598 0 6759.27784274 0 335.98858939 0 216.99763626 0 7147
0.08150000 0.08149960 24394.76748694 0 -233.99033316 0 7326.51304320 0 801.28975310 0 514.84981728 0 7386
0.08250000 0.08250610 24265.44273306 0 169.29141755 0 6160.92940954 0 692.71675040 0 -36.63356173 0 7227
0.08350000 0.08350160 24432.19194482 0 249.94666046 0 6413.87667002 0 858.42294917 0 -175.48970498 0 7798
0.08450000 0.08449610 24546.79050670 0 224.46038319 0 6137.02426026 0 -224.37069736 0 45.87219883 0 7371
0.08550000 0.08548940 23826.75722374 0 428.77024244 0 7345.86746698 0 -879.03186735 0 1630.90915649 0 8256
0.08650000 0.08650700 23674.51275749 0 1198.92240369 0 7553.39605106 0 -310.99945951 0 1152.46292875 0 8037
0.08750000 0.08749060 22933.88495037 0 988.08540896 0 8897.15553570 0 -786.06752094 0 1929.82870962 0 8155
0.08850000 0.08849210 21707.73569995 0 1441.32881094 0 9148.26479026 0 -385.57045993 0 2013.57977454 0 8718
0.08950000 0.08949900 21262.51751899 0 530.17391483 0 9734.51117243 0 531.33318723 0 1591.33666759 0 8571
0.09050000 0.09049190 20216.73643987 0 423.73897804 0 9133.47216430 0 688.57016475 0 1377.08718234 0 8932
0.09150000 0.09150830 20360.12304627 0 298.62502929 0 9027.97505343 0 1805.02146426 0 609.09633890 0 9285
0.09250000 0.09250820 19704.75214026 0 124.12186845 0 7529.08122576 0 1796.01966418 0 1355.38542570 0 9204
0.09350000 0.09350330 19560.59047112 0 197.69968133 0 6362.23534707 0 1692.12804041 0 753.86477144 0 9349
0.09450000 0.09448040 19288.98634332 0 376.69377712 0 5704.40638494 0 849.43332865 0 1751.75250956 0 9564
0.09550000 0.09549270 19176.71296965 0 -214.06347018 0 5397.71405979 0 779.00005601 0 770.17541313 0 10155
0.09650000 0.09649430 18256.04916098 0 568.42547538 0 4540.47252768 0 112.49592739 0 663.16471546 0 9913
0.09750000 0.09749140 18712.67183651 0 534.69031612 0 5551.84082127 0 -891.18152938 0 450.09443281 0 10476
0.09850000 0.09850240 18080.77425910 0 -388.62199265 0 5710.80618869 0 -719.58596103 0 -253.57506130 0 10575
0.09950000 0.09950330 17951.67095172 0 489.50305130 0 6284.35261429 0 -894.89407989 0 -98.11164877 0 10882
0.10050000 0.10051200 18298.12399529 0 404.12214016 0 6776.55066946 0 -121.43682968 0 -827.41490351 0 10875
0.10150000 0.10150300 17312.90853293 0 591.91984141 0 6452.18691389 0 154.28288126 0 -233.87296652 0 11118
0.10250000 0.10250800 17322.32000903 0 753.34105048 0 6121.35692064 0 400.24793371 0 -877.55481922 0 11575
0.10350000 0.10349800 16293.25814038 0 582.13965690 0 5953.62227196 0 403.13227432 0 -727.73408487 0 11364
0.10450000 0.10450100 16115.10443405 0 387.24238097 0 6088.26174176 0 665.42346972 0 -392.13524131 0 12093
0.10550000 0.10551000 15589.16900516 0 404.07342193 0 5686.60208663 0 93.38697705 0 -478.73521542 0 12067
0.10650000 0.10649700 15386.98835398 0 287.56156233 0 5631.70550018 0 78.47465926 0 -562.32130270 0 12054
0.10750000 0.10749900 15265.52495072 0 28.74408740 0 5508.31551240 0 -412.56478784 0 -1135.40047620 0 12807
0.10850000 0.10850100 15210.82766611 0 -55.38122211 0 6056.82741160 0 14.63872064 0 -1133.14172194 0 12736
0.10950000 0.10950300 15255.00624214 0 146.40049322 0 5858.33384457 0 -577.20915066 0 -1869.81670910 0 12933
0.11050000 0.11050200 15378.90555686 0 166.05940593 0 5853.06341796 0 -10.71638279 0 -1439.13649063 0 13428
0.11150000 0.11150900 15157.12689074 0 -13.15048946 0 6294.30663431 0 329.84344911 0 -1832.71334863 0 13453
0.11250000 0.11250000 15117.82013764 0 22.24031452 0 5696.14643063 0 683.51121954 0 -1056.24442607 0 13668
0.11350000 0.11349100 15165.43113436 0 68.72558798 0 5563.55534092 0 1273.85989806 0 -868.42679464 0 13791
0.11450000 0.11448600 14913.42502148 0 447.08054599 0 5307.25316602 0 929.42976823 0 -80.14525163 0 14205
0.11550000 0.11549300 14829.60752261 0 324.41358102 0 5249.94281276 0 688.38525693 0 355.35629996 0 14776
0.11650000 0.11649800 14038.93280731 0 377.43673012 0 5005.10049405 0 279.45662056 0 1136.97274633 0 14553
0.11750000 0.11747300 13980.47093226 0 273.59161011 0 4806.40762518 0 1038.00277094 0 1545.48617051 0 14568
0.11850000 0.11849100 13784.93367597 0 -197.04419971 0 4182.22745817 0 468.39144957 0 1331.11488970 0 16015
0.11950000 0.11950300 14111.89942786 0 -184.37746011 0 3664.95058730 0 1276.18508627 0 1489.84773830 0 15270
0.12050000 0.12050700 14082.11487410 0 -111.54149299 0 3045.57580927 0 117.15516167 0 640.39890840 0 15999
0.12150000 0.12150000 13992.98265931 0 340.48173880 0 2542.62652670 0 235.46405959 0 892.31312097 0 15670
0.12250000 0.12250700 13704.43787453 0 6.58488873 0 2145.48438011 0 -172.64854643 0 405.84056497 0 16887
0.12350000 0.12352200 13777.62594159 0 -27.04913592 0 2163.24438912 0 27.16993498 0 372.34124623 0 16407
0.12450000 0.12449800 13687.27577107 0 -105.51770540 0 2311.94571143 0 -195.20951548 0 -488.79995868 0 16306
0.12550000 0.12549900 13864.10079842 0 216.26132666 0 2481.47407673 0 -154.77006355 0 -438.34337448 0 17523
0.12650000 0.12650100 13755.14912220 0 271.58973378 0 2416.95564001 0 -747.59783559 0 -845.68091777 0 17154
0.12750000 0.12750600 13323.77134727 0 422.73914711 0 2896.39837698 0 -205.21889712 0 -424.31363170 0 18007
0.12850000 0.12850300 13082.28394298 0 412.89585035 0 3326.81285966 0 -85.34193656 0 210.80709945 0 17496
0.12950000 0.12949900 13006.88141096 0 -9.14989242 0 3300.73753471 0 951.48583927 0 367.92449586 0 18405
0.13050000 0.13049000 13022.93628195 0 -28.72349287 0 3564.60210747 0 37.90920427 0 573.00277446 0 18100
0.13150000 0.13148800 13138.19918331 0 263.42500146 0 3891.12496637 0 230.09619652 0 576.24364393 0 19059
0.13250000 0.13249300 12735.05583666 0 416.45338831 0 4151.46853983 0 -323.81346102 0 1297.78719199 0 18957
0.13350000 0.13349100 12532.76446223 0 426.72629128 0 4241.79656570 0 -322.18361481 0 1593.89437462 0 19468
0.13450000 0.13450700 12404.32549433 0 7.65095431 0 4403.35285713 0 38.99739235 0 1931.24596719 0 19953
0.13550000 0.13551000 12308.32843815 0 -82.82707942 0 4390.77469613 0 366.74418604 0 1061.37644863 0 19956
0.13650000 0.13649900 12279.87256337 0 154.40910576 0 4062.48026526 0 213.14668169 0 433.08623465 0 19723
0.13750000 0.13749600 12228.05408322 0 364.09679317 0 4041.05531674 0 -88.44550920 0 599.36708708 0 20946
0.13850000 0.13851100 11665.57998243 0 434.50349223 0 4087.47050238 0 -161.29055563 0 770.69249070 0 20955
0.13950000 0.13949800 11667.46227765 0 110.64430251 0 3803.09998406 0 17.51641786 0 151.45943843 0 20506
0.14050000 0.14048300 11332.96734488 0 99.49923252 0 4125.86932485 0 151.84918426 0 596.12621761 0 21447
0.14150000 0.14148400 11593.94204085 0 72.36716489 0 3796.03584082 0 -25.82719415 0 194.45106123 0 21771
0.14250000 0.14249400 11452.65917617 0 120.50564716 0 4226.29531095 0 -191.48921434 0 574.81088510 0 22470
0.14350000 0.14350900 11317.24464363 0 83.14861973 0 3938.61416751 0 40.59911486 0 544.47935849 0 22519
0.14450000 0.14449900 11316.80175064 0 -20.87055722 0 4143.28609179 0 312.87621856 0 669.17145167 0 22218
0.14550000 0.14550500 11121.70738734 0 159.89987164 0 3571.92091417 0 671.40806128 0 169.44200116 0 23559
0.14650000 0.14650700 11018.03721006 0 169.36117319 0 3496.46302053 0 399.14623739 0 380.15166416 0 23044
0.14750000 0.14750500 10894.82437948 0 200.84532882 0 3032.23365786 0 428.32624221 0 319.90160866 0 23649
0.14850000 0.14849900 10516.61590832 0 123.14528940 0 2943.46682979 0 395.43036518 0 668.98654385 0 23640
0.14950000 0.14949500 10547.95058756 0 263.26334552 0 2783.63782103 0 241.61916496 0 305.81096810 0 24457
0.15050000 0.15050000 10278.23982730 0 318.88516924 0 2935.76049172 0 -43.62374183 0 617.37843787 0 24591
0.15150000 0.15149900 10026.35551000 0 271.91636736 0 3099.98521343 0 -84.17114893 0 954.24727708 0 25020
0.15250000 0.15250500 9939.39347088 0 157.48942652 0 2987.78934604 0 -50.16981099 0 1320.00934790 0 25297
0.15350000 0.15350100 9895.19275020 0 -38.86253143 0 3389.21648234 0 132.53683531 0 1121.41612996 0 25452
0.15450000 0.15450400 10020.65326272 0 42.47343800 0 3398.10755917 0 28.38789071 0 1057.92852668 0 26061
0.15550000 0.15549900 10035.08050196 0 133.75700551 0 3329.03839695 0 -30.00367507 0 1226.34855226 0 26128
0.15650000 0.15649500 9868.40879647 0 94.50284594 0 3302.55339598 0 -101.41718062 0 1039.72894638 0 26331
0.15750000 0.15749700 9860.97926651 0 44.39869384 0 3215.75744173 0 211.11601732 0 921.52745001 0 27345
0.15850000 0.15849900 9622.54782387 0 201.94481067 0 3266.88943774 0 115.23411332 0 360.07532480 0 26980
0.15950000 0.15949700 9466.05158488 0 352.57271750 0 3021.27205629 0 -15.90107640 0 557.24685624 0 27777
0.16050000 0.16050000 9223.41265880 0 184.77827827 0 2908.34541546 0 294.44633390 0 539.47466767 0 28224
0.16150000 0.16150500 9077.09188633 0 -24.79658215 0 2706.80695912 0 356.96289429 0 437.26493004 0 28075
0.16250000 0.16249700 9069.18624641 0 214.69680716 0 2827.69460149 0 123.06667589 0 515.08565780 0 28590
0.16350000 0.16349900 8942.36383793 0 187.11564604 0 2564.42793427 0 87.13565318 0 601.35235492 0 29163
0.16450000 0.16449100 8833.10213662 0 170.78285970 0 2806.66825665 0 191.68298003 0 1341.92147872 0 28996
0.16550000 0.16550500 8729.68662282 0 62.10068387 0 2651.14638225 0 67.02188936 0 1069.28651748 0 30777
0.16650000 0.16650700 8701.89508752 0 60.95270523 0 3106.51788507 0 162.68123963 0 1064.54756246 0 29211
0.16750000 0.16749900 8657.99331962 0 146.65294222 0 2652.54149518 0 -96.67091787 0 1228.57408955 0 30922
0.16850000 0.16850800 8539.72981823 0 73.34296888 0 2689.75557889 0 210.63880012 0 1102.26211525 0 30867
0.16950000 0.16949900 8513.58805933 0 -88.19693551 0 2436.49829332 0 54.28295821 0 1104.46993682 0 30852
0.17050000 0.17049200 8539.44193778 0 2.55810564 0 2361.97047496 0 240.60936894 0 265.03270302 0 31257
0.17150000 0.17149500 8458.08249502 0 142.91713983 0 2212.93698290 0 -26.62074767 0 251.66840697 0 32608
0.17250000 0.17250900 8326.15574480 0 111.67878982 0 2060.13890041 0 -145.62432325 0 -93.93339628 0 32361
0.17350000 0.17350400 8306.00411363 0 89.07840329 0 1889.79118307 0 54.33422307 0 3.75747093 0 32508
0.17450000 0.17449800 8069.33317063 0 197.04309247 0 2089.50270583 0 179.92417107 0 139.82353227 0 32791
0.17550000 0.17549800 8039.08357923 0 177.81157150 0 2098.81453100 0 97.84369851 0 233.52086659 0 33633
0.17650000 0.17650100 7841.91869118 0 87.63025393 0 1968.63720811 0 379.54600799 0 568.61924106 0 33984
0.17750000 0.17750300 7888.56639564 0 128.47107764 0 2131.22322574 0 27.20758088 0 393.43181055 0 34069
0.17850000 0.17849800 7786.46848849 0 89.16343875 0 2189.31971407 0 37.88971698 0 1001.22604405 0 34536
