### header ###
fiducial parameters:
Omega_m = 0.31
Omega_nu = 0
Omega_de = 0.69
Omega_k = 0
H_0 = 100
w_de = -1
zeff = 0
beta = 0
fgrowth = 0
b_1 = 2
gamma = 0.55
Lx = 3500 Ly = 3500 Lz = 3500
nx = 700 ny = 700 nz = 700
xoffset = -685.467585 yoffset = -31.7331281 zoffset = 572.489161
bins = 400 dk = 0.001
kx_ny = 0.628318531 ky_ny = 0.628318531 kz_ny = 0.628318531
############################
A(data) = 8.0626309 (not used)
A(ran) = 8.06112941 (used)
Ngal = 478822
weighted Ngal = 0
Nran = 23820508
weighted Nran = 0
SN(data) = 3488.2325
SN(ran) = 70.2153607
SN(data+ran) = 3558.44786
############################
13 columns: k_central k_mean P_0(k) sigma^{lin}_{P_0(k)} P^img_1(k) sigma^{lin}_{P_1(k)} P_2(k) sigma^{lin}_{P_2(k)} P^img_3(k) sigma^{lin}_{P_3(k)} P_4(k) sigma^{lin}_{P_4(k)} N_modes
### header ###
0.00050000 0 0 0 0 0 0 0 0 0 0 0 0
0.00150000 0.00179520 33236.12957788 0 -18362.01130950 0 73786.74765420 0 -28377.15055446 0 -102649.97326820 0 3
0.00250000 0.00253879 69958.71279465 0 -24085.29600826 0 16424.35446624 0 57866.40541371 0 107034.83534288 0 6
0.00350000 0.00331552 71017.89138680 0 -10662.68201733 0 22153.61822040 0 -30810.95827285 0 -55284.00709625 0 7
0.00450000 0.00420575 64742.65129583 0 8553.65880285 0 -30599.80903856 0 37765.92838443 0 17579.86228431 0 24
0.00550000 0.00557378 70874.50478040 0 -12999.79512308 0 -30953.68053976 0 17895.53426489 0 -34609.09785539 0 45
0.00650000 0.00659388 68058.48040927 0 -18967.55675383 0 -65208.13183121 0 6827.04047063 0 34755.03109650 0 40
0.00750000 0.00754703 85909.06103539 0 -8188.60425358 0 -24702.46739365 0 -36901.62270909 0 -63073.83049916 0 57
0.00850000 0.00846663 86198.93449915 0 5847.28366440 0 -35174.34003738 0 -60066.14418543 0 5428.68335231 0 75
0.00950000 0.00948925 80830.96070382 0 12653.89569574 0 6006.33761042 0 -37565.85147496 0 -1508.40495469 0 112
0.01050000 0.01054430 74528.81486354 0 -207.19198540 0 899.14806708 0 -34403.37406026 0 2169.36738474 0 105
0.01150000 0.01145670 91733.21461325 0 -14610.48621444 0 31368.11765772 0 -4263.94121534 0 5842.81044518 0 144
0.01250000 0.01249090 94025.85019020 0 -11682.52063940 0 17377.57090987 0 23602.76409266 0 -8259.01316710 0 169
0.01350000 0.01339930 104308.16463304 0 7142.97818701 0 12536.08615967 0 25509.41842643 0 -15409.46517336 0 180
0.01450000 0.01448870 101149.78397852 0 7884.94574543 0 25921.86252593 0 4153.60549852 0 12488.58588620 0 267
0.01550000 0.01550050 93857.55085296 0 12903.02300416 0 2611.40780848 0 -3673.38769881 0 20977.29443166 0 238
0.01650000 0.01653350 78757.00354204 0 12410.08310324 0 20370.97392459 0 7525.59344344 0 14879.54370754 0 315
0.01750000 0.01747870 69649.13059272 0 12252.96681406 0 22759.82800422 0 2274.79806167 0 20422.46023500 0 297
0.01850000 0.01844180 63601.98039301 0 8562.36165016 0 19213.03019506 0 4432.17411863 0 4121.14144215 0 388
0.01950000 0.01947590 50368.00560002 0 7817.74780610 0 17990.09191884 0 2028.18417098 0 5568.53788709 0 399
0.02050000 0.02045430 46967.58392497 0 1509.16894511 0 16927.92379899 0 8322.21399717 0 5315.76778381 0 462
0.02150000 0.02154770 48146.56507166 0 -7113.09398232 0 11855.69179957 0 9715.52213537 0 -4977.94008127 0 571
0.02250000 0.02255340 52440.96625257 0 -4036.77032703 0 10140.62190213 0 5956.53429339 0 -13858.34318951 0 510
0.02350000 0.02348930 54365.22558280 0 -1248.51534655 0 3362.96400019 0 8159.41760536 0 -11085.61160843 0 555
0.02450000 0.02439640 56184.85144350 0 -1845.26936498 0 -934.78655898 0 2744.99540741 0 -2674.05502230 0 592
0.02550000 0.02547300 57881.13160571 0 -1354.39998879 0 -2501.92466067 0 1080.09532097 0 -3375.58645049 0 837
0.02650000 0.02652900 58446.15234121 0 861.72250196 0 5554.77498734 0 -5606.00663428 0 -987.50964807 0 723
0.02750000 0.02749970 53534.57977491 0 2026.32402041 0 -535.36462070 0 661.71866983 0 -1445.21519695 0 826
0.02850000 0.02848090 56964.56455723 0 2497.17463332 0 9745.32883378 0 -6135.23054364 0 4579.24780920 0 831
0.02950000 0.02946900 57213.58114240 0 1438.99255041 0 6867.46552854 0 2643.91615415 0 8633.13595040 0 996
0.03050000 0.03053250 58163.69733509 0 -3172.84111073 0 5626.86689424 0 7876.90723761 0 6643.43918049 0 1041
0.03150000 0.03150510 59647.61030728 0 -2841.08104219 0 3297.19439077 0 656.80587931 0 11804.53765890 0 1036
0.03250000 0.03246190 63383.63414759 0 -1496.14789112 0 10403.17994056 0 2939.77974562 0 11002.52488299 0 1059
0.03350000 0.03345080 64497.39930110 0 1499.71317971 0 8558.44204717 0 14.58845229 0 10444.60150770 0 1302
0.03450000 0.03451200 62531.50802955 0 1387.32908280 0 10480.54227406 0 -3140.73136876 0 8590.76216332 0 1339
0.03550000 0.03553350 59031.32470788 0 2608.28541288 0 16375.08262079 0 -5216.55975343 0 6812.48036349 0 1365
0.03650000 0.03647120 62727.93107183 0 1389.52140312 0 18483.36398951 0 -3928.67121983 0 5176.13469552 0 1308
0.03750000 0.03744890 57215.13126787 0 3138.63869937 0 22047.21317889 0 -2442.14517898 0 1066.85614218 0 1579
0.03850000 0.03847530 55257.65496318 0 1415.07632880 0 22717.75316991 0 -365.44540234 0 2942.00528291 0 1662
0.03950000 0.03950240 54323.04002524 0 2783.77068893 0 21075.17378306 0 8012.19997457 0 -946.26080919 0 1683
0.04050000 0.04050350 50242.00254359 0 3553.33048080 0 15068.32684570 0 969.14619735 0 553.99159274 0 1822
0.04150000 0.04152450 49744.19081974 0 949.87481601 0 13582.19940854 0 5416.23805921 0 1936.51639381 0 1887
0.04250000 0.04250150 48002.84629551 0 936.91687427 0 13550.97545255 0 907.77672981 0 -57.53622869 0 1920
0.04350000 0.04349210 45607.23809775 0 2091.44036267 0 11981.58413275 0 -956.99099917 0 -3781.47573369 0 2005
0.04450000 0.04448520 45130.13162131 0 2195.42056504 0 14833.81500604 0 -2155.28338757 0 -557.96212842 0 2151
0.04550000 0.04548030 43880.17687254 0 843.87059266 0 13518.42281758 0 315.86021010 0 -1721.64685838 0 2274
0.04650000 0.04648670 43801.00975008 0 -2441.44762251 0 15083.60665395 0 2275.70599230 0 -2473.39127961 0 2311
0.04750000 0.04749250 44510.08143147 0 -325.87069897 0 13851.58907137 0 2415.82626288 0 -8547.97870022 0 2568
0.04850000 0.04851840 44143.58747997 0 1154.43380257 0 14469.97841250 0 -410.51087158 0 -3546.34384384 0 2493
0.04950000 0.04949480 42588.03656620 0 2068.27705915 0 14006.38017234 0 259.47993212 0 -956.41191658 0 2644
0.05050000 0.05050630 40752.79872751 0 2286.75617247 0 11939.95219144 0 782.22874593 0 532.74158695 0 2829
0.05150000 0.05149060 40692.56528050 0 2143.18133655 0 13779.50823681 0 1951.49724929 0 -1786.35352462 0 2784
0.05250000 0.05249300 37053.97789859 0 1762.12727791 0 13404.71004169 0 -1560.33415809 0 -1384.14025325 0 3055
0.05350000 0.05348950 36948.68008957 0 3108.77663933 0 15693.13813521 0 -1647.91624741 0 -296.21347694 0 3009
0.05450000 0.05448610 34332.06828842 0 1006.92275517 0 16041.58419725 0 -2003.53717593 0 -2752.72389014 0 3336
0.05550000 0.05550870 34407.13865070 0 -155.03247765 0 16482.92706453 0 2685.73632499 0 -2001.12340912 0 3349
0.05650000 0.05647670 34132.54499519 0 -602.80393671 0 12963.58862092 0 2712.91888242 0 -3270.02290567 0 3324
0.05750000 0.05747970 34692.14029153 0 185.44926116 0 12833.82097404 0 1692.13911273 0 -4234.98708594 0 3639
0.05850000 0.05849280 35047.89408795 0 -780.46160289 0 11493.40533150 0 2408.15314178 0 -3295.73284389 0 3846
0.05950000 0.05951020 34382.00447336 0 218.08826026 0 12350.29254921 0 -725.94036825 0 -3497.52596371 0 3787
0.06050000 0.06049470 35344.63239309 0 1410.10485495 0 12855.96562368 0 -1988.35701861 0 -2894.95897476 0 3930
0.06150000 0.06148310 33267.57498036 0 1180.87451423 0 12499.99038076 0 -1373.38902586 0 -3716.29295748 0 4083
0.06250000 0.06249100 32360.64085446 0 1216.12879646 0 14141.35181188 0 -500.89536631 0 -500.33399944 0 4303
0.06350000 0.06350600 32562.60005916 0 -0.53456852 0 14263.92244762 0 1328.05892805 0 -4640.86529681 0 4470
0.06450000 0.06451750 32035.66812104 0 468.32612285 0 13846.27435546 0 1412.64041734 0 -5680.23549986 0 4479
0.06550000 0.06550280 30931.20372038 0 1539.37424721 0 13297.97283044 0 197.85358665 0 -6738.39543813 0 4636
0.06650000 0.06648880 30336.50915437 0 1438.10676442 0 12015.02255371 0 -1438.95933343 0 -3402.74686327 0 4653
0.06750000 0.06749660 29330.69916784 0 369.38382827 0 13743.85535089 0 -316.62752221 0 -3161.02694015 0 5220
0.06850000 0.06852730 29472.97854176 0 538.45712102 0 13029.02606060 0 1540.07180368 0 -2951.17316786 0 5029
0.06950000 0.06949320 28647.42600328 0 322.30208868 0 13658.04483354 0 2019.63633622 0 -299.98692524 0 5040
0.07050000 0.07048030 28567.26237160 0 279.14438100 0 12684.34458899 0 1267.10577992 0 -2070.17042669 0 5475
0.07150000 0.07148790 28579.22048240 0 281.43635224 0 13849.70677616 0 1183.89725891 0 1338.34511780 0 5509
0.07250000 0.07249820 27445.52514422 0 816.28721707 0 12628.09717891 0 2311.49174612 0 1179.86693267 0 5916
0.07350000 0.07351270 27031.08802626 0 54.25317366 0 12361.91849027 0 3650.84444548 0 3708.64198103 0 5721
0.07450000 0.07449140 26932.54433537 0 12.05255773 0 10417.44109492 0 3243.33860285 0 1084.03153244 0 6028
0.07550000 0.07549160 26368.85227885 0 205.03509653 0 8133.23155716 0 1936.78212960 0 2734.73136231 0 6183
0.07650000 0.07648840 26494.52316555 0 254.79412426 0 8365.49571488 0 300.19951388 0 2634.67076292 0 6330
0.07750000 0.07749960 26255.36094946 0 -389.22986328 0 7994.08565116 0 -418.61802781 0 2789.61687643 0 6583
0.07850000 0.07848650 26238.53101574 0 -38.88168656 0 8068.32558907 0 -1097.96051706 0 2783.43851919 0 6549
0.07950000 0.07947320 26718.40557338 0 411.76315152 0 9309.76572007 0 -1347.90053412 0 1075.40619141 0 6828
0.08050000 0.08048110 25644.94368221 0 1435.38297251 0 9686.61229527 0 -542.07223508 0 2063.18378973 0 7147
0.08150000 0.08149960 25141.81724245 0 1434.32002933 0 9510.13050998 0 -250.10167300 0 2167.07541351 0 7386
0.08250000 0.08250610 23828.30734922 0 774.78039302 0 9342.42907828 0 419.59682133 0 2400.28071884 0 7227
0.08350000 0.08350160 23861.85649342 0 -59.54962023 0 9445.20239725 0 1245.27115538 0 801.94523473 0 7798
0.08450000 0.08449610 23263.17589047 0 485.54026625 0 9852.65287825 0 -129.85733271 0 662.80707936 0 7371
0.08550000 0.08548940 23147.91298911 0 996.89122888 0 9722.38697676 0 690.41481407 0 1601.44570014 0 8256
0.08650000 0.08650700 21935.71486796 0 561.31815008 0 8987.26211507 0 -263.26666721 0 1696.18051129 0 8037
0.08750000 0.08749060 21864.07692639 0 581.69012051 0 9105.07165114 0 686.84066762 0 1447.78397631 0 8155
0.08850000 0.08849210 21296.28810969 0 502.15761134 0 9450.12958179 0 310.93634725 0 329.85230697 0 8718
0.08950000 0.08949900 20826.82153738 0 343.72814444 0 9204.75579149 0 703.30300016 0 653.93371825 0 8571
0.09050000 0.09049190 20596.07428816 0 128.96711779 0 8377.70848916 0 1099.35009383 0 1101.19806484 0 8932
0.09150000 0.09150830 20282.94894229 0 -188.61926775 0 7367.44742805 0 1279.75037486 0 932.60309652 0 9285
0.09250000 0.09250820 20337.86767339 0 348.86127422 0 7024.20535868 0 1291.89671519 0 1267.31615409 0 9204
0.09350000 0.09350330 20032.93584788 0 507.08258142 0 6454.71140395 0 1099.84391951 0 -108.45242509 0 9349
0.09450000 0.09448040 19210.70500685 0 540.52210960 0 6128.88610151 0 665.04590344 0 1261.11565219 0 9564
0.09550000 0.09549270 18854.17614769 0 709.33741718 0 6094.38473738 0 121.68706422 0 808.23542246 0 10155
0.09650000 0.09649430 18532.96800470 0 251.33070106 0 6676.31291287 0 -146.87106702 0 2166.16748287 0 9913
0.09750000 0.09749140 18052.87200056 0 362.13145552 0 6729.18326388 0 81.86345499 0 2133.23838886 0 10476
0.09850000 0.09850240 17880.36517989 0 413.03868334 0 7436.42801167 0 259.48768275 0 2692.78939589 0 10575
0.09950000 0.09950330 17682.83490512 0 -1.57531501 0 6749.23524413 0 1227.78795449 0 2490.89662515 0 10882
0.10050000 0.10051200 17769.42048520 0 55.65803023 0 6582.37530911 0 666.55395408 0 2505.97713155 0 10875
0.10150000 0.10150300 17786.02897243 0 -136.05340567 0 5752.05059864 0 271.62295075 0 1867.91226923 0 11118
0.10250000 0.10250800 17593.70269033 0 79.06503562 0 5550.27962347 0 562.86716832 0 1120.33104213 0 11575
0.10350000 0.10349800 17370.92751498 0 594.62591760 0 5196.35276064 0 -765.60365021 0 1036.56004701 0 11364
0.10450000 0.10450100 16824.95117817 0 447.70391788 0 4659.63288738 0 254.92920662 0 228.55049998 0 12093
0.10550000 0.10551000 16441.51656970 0 175.38783959 0 4639.99058315 0 713.10643655 0 725.56501644 0 12067
0.10650000 0.10649700 16398.33450291 0 93.36760048 0 4117.75331076 0 31.49090974 0 -234.71003427 0 12054
0.10750000 0.10749900 16420.81132229 0 288.31780212 0 4954.95393494 0 117.32678271 0 -155.51633824 0 12807
0.10850000 0.10850100 16122.19072193 0 347.09523841 0 4892.36208274 0 -648.23368544 0 638.84989015 0 12736
0.10950000 0.10950300 15965.84949550 0 161.00599689 0 5260.33972577 0 -427.56335903 0 992.53759077 0 12933
0.11050000 0.11050200 15858.66939125 0 305.87518758 0 5982.46567811 0 125.73953511 0 598.60863283 0 13428
0.11150000 0.11150900 15854.90480081 0 498.83591389 0 6308.67851192 0 149.37673413 0 584.29543854 0 13453
0.11250000 0.11250000 15191.22965118 0 377.28393203 0 5879.00587501 0 147.93179574 0 932.32296670 0 13668
0.11350000 0.11349100 15087.70341413 0 1.40665029 0 5571.97030779 0 477.48072101 0 696.01962489 0 13791
0.11450000 0.11448600 14765.60948515 0 60.89346830 0 5432.30400252 0 661.70870474 0 667.95128147 0 14205
0.11550000 0.11549300 14823.07485096 0 283.41608392 0 4765.37358940 0 860.65845155 0 -188.49415048 0 14776
0.11650000 0.11649800 14398.56191742 0 295.67646919 0 4595.22517391 0 -39.91074843 0 383.73688294 0 14553
0.11750000 0.11747300 14200.25657991 0 287.03119797 0 4171.53159240 0 448.90415789 0 708.11392529 0 14568
0.11850000 0.11849100 13934.96367726 0 128.33710251 0 4296.51599495 0 654.91804793 0 1130.59508723 0 16015
0.11950000 0.11950300 13863.32573568 0 -49.00566675 0 3770.11552842 0 633.89059587 0 1313.81991833 0 15270
0.12050000 0.12050700 14084.44006231 0 -108.57698874 0 3728.58323803 0 610.12163618 0 954.55176601 0 15999
0.12150000 0.12150000 14153.08847619 0 -46.69144014 0 4084.95708464 0 -409.99600848 0 1283.70319482 0 15670
0.12250000 0.12250700 14011.69488825 0 262.28898093 0 4063.79787191 0 -488.03707550 0 432.33442380 0 16887
0.12350000 0.12352200 13794.89876830 0 534.37918379 0 4897.11211009 0 -858.87470002 0 1575.94613609 0 16407
0.12450000 0.12449800 13267.41321394 0 562.35673414 0 5097.26652584 0 -239.75237100 0 956.98657024 0 16306
0.12550000 0.12549900 13051.61360323 0 362.10156024 0 5167.54257146 0 304.76574063 0 1585.46833543 0 17523
0.12650000 0.12650100 12886.52524018 0 -2.43049709 0 4653.53203640 0 718.33368110 0 966.35929320 0 17154
0.12750000 0.12750600 12862.38757208 0 -83.28049112 0 4793.34228189 0 705.56839781 0 1063.05169137 0 18007
0.12850000 0.12850300 12806.69377824 0 140.90419118 0 4053.72205633 0 363.73029922 0 872.68521077 0 17496
0.12950000 0.12949900 12765.28328342 0 74.82356015 0 4030.89092255 0 7.54045250 0 952.44913153 0 18405
0.13050000 0.13049000 12515.15946576 0 122.64260585 0 3699.18621564 0 -41.92026466 0 791.27815700 0 18100
0.13150000 0.13148800 12505.63726642 0 1.69073293 0 3385.55154282 0 512.96087866 0 501.52538159 0 19059
0.13250000 0.13249300 12366.90103644 0 146.03621373 0 3167.52639482 0 516.04009220 0 645.17661656 0 18957
0.13350000 0.13349100 12476.73849864 0 88.93269150 0 2921.86472407 0 211.54008736 0 77.85195171 0 19468
0.13450000 0.13450700 12356.49305111 0 5.02814200 0 3193.56850279 0 -324.62838413 0 -41.67091590 0 19953
0.13550000 0.13551000 12226.50395774 0 350.66717040 0 3308.65424696 0 -207.99583618 0 591.92869927 0 19956
0.13650000 0.13649900 12082.78518160 0 336.05280887 0 3559.69706757 0 -202.58257658 0 457.76312498 0 19723
0.13750000 0.13749600 11838.19752635 0 207.74006548 0 3688.31319266 0 209.46845538 0 1161.78582625 0 20946
0.13850000 0.13851100 11785.16109047 0 199.16122821 0 4337.21786099 0 -254.53946079 0 283.20017358 0 20955
0.13950000 0.13949800 11461.62775927 0 328.66092482 0 4192.15933354 0 -23.59667431 0 869.53956329 0 20506
0.14050000 0.14048300 11314.47656243 0 185.59763031 0 4215.57730053 0 69.48847116 0 546.91859165 0 21447
0.14150000 0.14148400 11341.38231174 0 -3.31684777 0 4122.71371227 0 43.45511032 0 1138.97683712 0 21771
0.14250000 0.14249400 11353.67259229 0 -110.68405216 0 3994.90586689 0 552.91536277 0 199.94514881 0 22470
0.14350000 0.14350900 11359.87309419 0 37.45789631 0 3718.25275897 0 429.19652695 0 560.68038417 0 22519
0.14450000 0.14449900 11240.40270939 0 281.16508028 0 3520.73355653 0 -66.21527050 0 -43.71630647 0 22218
0.14550000 0.14550500 11040.20400435 0 351.98034812 0 3290.37383868 0 -295.16714225 0 289.52136382 0 23559
0.14650000 0.14650700 10914.20094791 0 40.18401340 0 3575.75193856 0 155.59716621 0 342.88554052 0 23044
0.14750000 0.14750500 10966.48446570 0 -99.01658988 0 3325.88278438 0 86.80702658 0 482.15545655 0 23649
0.14850000 0.14849900 10912.29650804 0 -152.42937408 0 3297.03937822 0 771.62035152 0 46.55170740 0 23640
0.14950000 0.14949500 10936.52275475 0 140.97837575 0 3225.92183591 0 257.51791617 0 -84.51084786 0 24457
0.15050000 0.15050000 10750.37482989 0 309.99962858 0 2946.63351469 0 204.79925601 0 3.34869177 0 24591
0.15150000 0.15149900 10437.68130469 0 265.25193505 0 2974.53577323 0 -199.78460010 0 108.73953047 0 25020
0.15250000 0.15250500 10315.85251471 0 310.45137943 0 2976.06375406 0 -342.34631830 0 163.93905573 0 25297
0.15350000 0.15350100 9961.01772125 0 211.70949393 0 3225.12462853 0 -22.81840060 0 -180.93175263 0 25452
0.15450000 0.15450400 9958.70360536 0 173.34721013 0 3355.77806139 0 -203.47279149 0 -4.55265208 0 26061
0.15550000 0.15549900 9693.90895732 0 166.83779037 0 3128.17535241 0 85.07675438 0 -168.36355673 0 26128
0.15650000 0.15649500 9692.61349532 0 175.90602439 0 3386.92451110 0 114.28853678 0 -10.48474976 0 26331
0.15750000 0.15749700 9526.35146584 0 102.03368767 0 3115.82971024 0 507.62069640 0 209.30679944 0 27345
0.15850000 0.15849900 9604.90961043 0 9.06490126 0 2941.46273900 0 368.18358826 0 332.16753009 0 26980
0.15950000 0.15949700 9425.96976904 0 0.64216605 0 2725.74063456 0 487.42809763 0 553.65499407 0 27777
0.16050000 0.16050000 9373.84126379 0 32.83099321 0 2519.19748739 0 545.45372308 0 719.77086886 0 28224
0.16150000 0.16150500 9470.41408086 0 137.91687794 0 2323.89274991 0 48.55989496 0 526.44586306 0 28075
0.16250000 0.16249700 9229.75710093 0 197.96098820 0 2218.18526487 0 -23.91987548 0 847.96070945 0 28590
0.16350000 0.16349900 9047.53985139 0 248.15405107 0 2470.62319841 0 -34.01063870 0 704.85423286 0 29163
0.16450000 0.16449100 8870.29407569 0 208.71221560 0 2349.08228887 0 42.38696315 0 685.37358458 0 28996
0.16550000 0.16550500 8761.46419505 0 93.26462786 0 2469.99207589 0 361.75610371 0 444.74539269 0 30777
0.16650000 0.16650700 8663.46304808 0 143.87157423 0 2244.39345771 0 157.40749132 0 532.78476902 0 29211
0.16750000 0.16749900 8504.85199505 0 156.39548083 0 2336.43769393 0 -71.83956861 0 347.23807141 0 30922
0.16850000 0.16850800 8431.53106010 0 192.42150409 0 2138.64168337 0 24.15903769 0 405.87488918 0 30867
0.16950000 0.16949900 8262.16877967 0 94.57083002 0 2051.02637708 0 -83.81473080 0 419.57467668 0 30852
0.17050000 0.17049200 8287.42475259 0 79.29877240 0 2105.25862404 0 -43.18184535 0 325.27943682 0 31257
0.17150000 0.17149500 8319.23554179 0 -124.01668136 0 2319.92885763 0 -255.15508205 0 69.35516037 0 32608
0.17250000 0.17250900 8346.57311177 0 -6.88286713 0 2171.36040321 0 65.52291803 0 218.38278410 0 32361
0.17350000 0.17350400 8348.32253909 0 77.83534322 0 2418.20681272 0 -46.39293027 0 -5.17997679 0 32508
0.17450000 0.17449800 8297.20161540 0 214.92821875 0 2230.59734099 0 52.05963539 0 177.20812979 0 32791
0.17550000 0.17549800 8155.18797728 0 214.62705152 0 2319.98421925 0 124.44075140 0 162.22173815 0 33633
0.17650000 0.17650100 7955.08892315 0 85.72315670 0 2230.55305169 0 155.66913632 0 238.66506870 0 33984
0.17750000 0.17750300 7951.68971943 0 65.15055574 0 2317.55938012 0 -5.64609952 0 54.22150681 0 34069
0.17850000 0.17849800 7917.97449036 0 67.61713754 0 2254.44712865 0 11.28768154 0 -55.70564123 0 34536
