### header ###
fiducial parameters:
Omega_m = 0.31
Omega_nu = 0
Omega_de = 0.69
Omega_k = 0
H_0 = 100
w_de = -1
zeff = 0
beta = 0
fgrowth = 0
b_1 = 2
gamma = 0.55
Lx = 3500 Ly = 3500 Lz = 3500
nx = 700 ny = 700 nz = 700
xoffset = -685.467585 yoffset = -31.7331281 zoffset = 572.489161
bins = 400 dk = 0.001
kx_ny = 0.628318531 ky_ny = 0.628318531 kz_ny = 0.628318531
############################
A(data) = 8.04879046 (not used)
A(ran) = 8.05110293 (used)
Ngal = 478722
weighted Ngal = 0
Nran = 23820508
weighted Nran = 0
SN(data) = 3483.01848
SN(ran) = 70.1280264
SN(data+ran) = 3553.1465
############################
13 columns: k_central k_mean P_0(k) sigma^{lin}_{P_0(k)} P^img_1(k) sigma^{lin}_{P_1(k)} P_2(k) sigma^{lin}_{P_2(k)} P^img_3(k) sigma^{lin}_{P_3(k)} P_4(k) sigma^{lin}_{P_4(k)} N_modes
### header ###
0.00050000 0 0 0 0 0 0 0 0 0 0 0 0
0.00150000 0.00179520 10653.13767334 0 -18384.37740563 0 -11738.87877273 0 5400.98039561 0 -72461.61181990 0 3
0.00250000 0.00253879 31794.95577948 0 -33884.19274951 0 -18478.38144334 0 26118.17484496 0 28671.56367139 0 6
0.00350000 0.00331552 48397.02105905 0 -30352.23185561 0 -9883.23463940 0 -22136.67756342 0 13029.91184658 0 7
0.00450000 0.00420575 78131.97080603 0 -22053.41368079 0 -19410.78191632 0 -19024.35778015 0 -9887.13209773 0 24
0.00550000 0.00557378 87643.98361123 0 -6462.43988668 0 -939.88868625 0 -39909.97336231 0 -17134.31193361 0 45
0.00650000 0.00659388 92003.82223182 0 25865.06149961 0 -14715.34113048 0 -44293.17458827 0 -40114.47920171 0 40
0.00750000 0.00754703 75641.69423106 0 20747.21152193 0 44204.37454323 0 -69986.06143695 0 -48007.93956493 0 57
0.00850000 0.00846663 59809.04480314 0 21998.60567293 0 37219.61987788 0 -18272.76837146 0 -18677.79401333 0 75
0.00950000 0.00948925 56462.43462670 0 2805.33957768 0 57791.33505144 0 -14932.02652718 0 -29795.29391723 0 112
0.01050000 0.01054430 65090.98663462 0 -20564.85033217 0 44091.10466033 0 14369.99531938 0 -55396.94480940 0 105
0.01150000 0.01145670 78344.22727280 0 -21599.78053297 0 45409.92926948 0 11365.07708685 0 -60654.08463330 0 144
0.01250000 0.01249090 86794.73629764 0 377.61610178 0 38928.41176714 0 -1142.04387109 0 -65319.51941888 0 169
0.01350000 0.01339930 82690.66838036 0 14331.79579876 0 47985.24129905 0 -15329.19081842 0 -56888.16551598 0 180
0.01450000 0.01448870 66334.51943501 0 23596.23142102 0 35364.11968477 0 -12124.41712291 0 -51366.39712892 0 267
0.01550000 0.01550050 57964.61693485 0 3690.41693438 0 43177.52713955 0 -14070.93182603 0 -38528.81156444 0 238
0.01650000 0.01653350 57455.84360943 0 -4630.73411960 0 40488.50233409 0 -4919.07960253 0 -46598.76478526 0 315
0.01750000 0.01747870 64494.40977340 0 -6126.27303286 0 47540.46601108 0 -7267.96258956 0 -53054.70521727 0 297
0.01850000 0.01844180 69831.82395222 0 -6583.42717997 0 57113.81949578 0 -2125.63170171 0 -39930.45716323 0 388
0.01950000 0.01947590 77223.48655466 0 1331.45813177 0 49056.04583226 0 4851.10660047 0 -35104.58439102 0 399
0.02050000 0.02045430 72632.01489886 0 5106.19081964 0 42451.40407794 0 10106.71844354 0 -24860.02657582 0 462
0.02150000 0.02154770 77174.10398596 0 3480.86211486 0 48245.10876254 0 12671.38996896 0 -21328.17640517 0 571
0.02250000 0.02255340 66803.65383757 0 2504.34949981 0 40659.79119903 0 16356.59183835 0 -5860.24935676 0 510
0.02350000 0.02348930 65526.12900000 0 5536.18455397 0 31048.12747046 0 16321.71401517 0 -11964.08985954 0 555
0.02450000 0.02439640 63715.69316890 0 1356.71410468 0 33320.05780000 0 7823.63828291 0 -2680.77592347 0 592
0.02550000 0.02547300 58088.40552632 0 1761.34114285 0 27579.61099777 0 3271.62839276 0 -8336.94018917 0 837
0.02650000 0.02652900 57559.48056973 0 1624.63114832 0 27146.24020437 0 4442.12813864 0 -7681.99003150 0 723
0.02750000 0.02749970 58075.56162953 0 -945.87438505 0 27850.55078609 0 -4015.07964271 0 -20127.60422508 0 826
0.02850000 0.02848090 61458.82120112 0 -1288.13212475 0 32619.29036223 0 -4115.70493066 0 -14305.44366569 0 831
0.02950000 0.02946900 60815.29768266 0 2426.03494636 0 41783.18927513 0 -9807.10133394 0 2351.89465938 0 996
0.03050000 0.03053250 63842.13911833 0 1350.74612160 0 40653.81214363 0 5566.11304796 0 5630.76435257 0 1041
0.03150000 0.03150510 63313.21416174 0 -2938.59500687 0 45361.87537977 0 11325.21671750 0 13996.52580325 0 1036
0.03250000 0.03246190 65439.54341992 0 21.64296260 0 40354.85937353 0 10445.19941324 0 3361.38065774 0 1059
0.03350000 0.03345080 63622.02130093 0 2465.90638804 0 38281.01293500 0 15238.17630841 0 8859.15531692 0 1302
0.03450000 0.03451200 59095.76563832 0 3827.63625586 0 29787.65401311 0 12605.62035953 0 11405.38034919 0 1339
0.03550000 0.03553350 55313.79165002 0 3331.54074236 0 24691.83796182 0 8711.49479314 0 14047.12632767 0 1365
0.03650000 0.03647120 52768.92851370 0 1638.95873663 0 20559.42489301 0 5713.14244922 0 6781.37820308 0 1308
0.03750000 0.03744890 50718.11251079 0 1712.34610553 0 19592.58948984 0 1697.52026260 0 10375.57663478 0 1579
0.03850000 0.03847530 49560.39022775 0 2162.51361568 0 17248.57832574 0 1393.64030795 0 8242.78113892 0 1662
0.03950000 0.03950240 47990.55601496 0 1419.06236573 0 16831.59457307 0 -2853.05022532 0 7884.20389966 0 1683
0.04050000 0.04050350 46413.85696079 0 996.67310409 0 16730.39352422 0 3206.21309774 0 6780.32633222 0 1822
0.04150000 0.04152450 45021.73356134 0 1501.89442770 0 14023.87444555 0 -522.20294819 0 4145.43412280 0 1887
0.04250000 0.04250150 44861.95991421 0 1752.57186159 0 16462.33254036 0 944.56010009 0 4259.24654961 0 1920
0.04350000 0.04349210 43560.40813177 0 -45.75328206 0 14071.59616552 0 -132.23677531 0 1260.84991640 0 2005
0.04450000 0.04448520 44686.90645882 0 397.28276512 0 14757.96958103 0 1550.34692111 0 5335.56510058 0 2151
0.04550000 0.04548030 42893.30056145 0 670.90427050 0 15110.95529625 0 708.63321732 0 873.92752561 0 2274
0.04650000 0.04648670 41733.58525995 0 2381.72350244 0 14066.50289610 0 1622.06236896 0 -1737.94532051 0 2311
0.04750000 0.04749250 41204.43885686 0 1832.82407188 0 15953.22704520 0 1474.95546142 0 -174.47215833 0 2568
0.04850000 0.04851840 38674.08046606 0 1484.21192497 0 13023.48989819 0 -724.54193362 0 -3332.84727669 0 2493
0.04950000 0.04949480 36922.77084949 0 1322.54491029 0 13354.66313351 0 746.14846827 0 -1134.21573745 0 2644
0.05050000 0.05050630 37205.77947186 0 -560.21534652 0 12231.04361092 0 -617.98409403 0 -3792.83593895 0 2829
0.05150000 0.05149060 36286.22289567 0 -470.33132088 0 10277.09937785 0 1661.18089254 0 -3168.95472472 0 2784
0.05250000 0.05249300 38452.63396968 0 -610.93213036 0 11155.47797803 0 1489.84773830 0 -4031.07915207 0 3055
0.05350000 0.05348950 37245.41839471 0 1226.73608363 0 12220.52490234 0 464.38991138 0 -6514.39123473 0 3009
0.05450000 0.05448610 36501.13672040 0 1771.06264404 0 11522.96843877 0 -1557.58822154 0 -4884.53394910 0 3336
0.05550000 0.05550870 35564.52876399 0 1622.75992542 0 14231.70198240 0 -1257.91575032 0 -3324.22193565 0 3349
0.05650000 0.05647670 35168.80387497 0 792.84489096 0 15555.50913772 0 -1792.67582209 0 -2568.62434538 0 3324
0.05750000 0.05747970 34066.00032303 0 417.90386286 0 16194.49300300 0 -1296.89033368 0 -668.20040878 0 3639
0.05850000 0.05849280 35247.30665793 0 942.97786488 0 18242.76237120 0 356.67390662 0 -549.57484237 0 3846
0.05950000 0.05951020 34041.75193168 0 -421.88325640 0 17096.22313623 0 1278.83137190 0 -428.15794288 0 3787
0.06050000 0.06049470 34370.15708580 0 -418.18177822 0 16026.52583550 0 4394.68322679 0 -606.22307061 0 3930
0.06150000 0.06148310 34394.84837015 0 387.37303441 0 15042.30688237 0 4158.78734653 0 527.17110034 0 4083
0.06250000 0.06249100 33634.17965511 0 400.88569962 0 13512.55448543 0 3398.81618796 0 2886.53293557 0 4303
0.06350000 0.06350600 32946.92045361 0 827.42376137 0 12193.06553679 0 2707.20556281 0 4240.67826089 0 4470
0.06450000 0.06451750 32089.59034290 0 1373.28937493 0 10692.01260578 0 -595.43973347 0 4109.46013947 0 4479
0.06550000 0.06550280 31753.43456141 0 1271.36862498 0 13396.40579808 0 -194.97588943 0 6859.79240744 0 4636
0.06650000 0.06648880 30644.20906108 0 516.09988275 0 12333.13044575 0 -1186.32209804 0 5940.12510801 0 4653
0.06750000 0.06749660 30147.28312322 0 539.57210413 0 14102.26650527 0 -325.64150185 0 4460.71857201 0 5220
0.06850000 0.06852730 29551.25987823 0 858.90791699 0 14624.76951346 0 -698.44778572 0 2493.17752406 0 5029
0.06950000 0.06949320 29006.72294365 0 1281.79875496 0 15228.98627881 0 -403.03815956 0 1051.61951600 0 5040
0.07050000 0.07048030 28355.22735132 0 419.13399815 0 14656.98997868 0 1785.14664121 0 2334.50003709 0 5475
0.07150000 0.07148790 27407.54707009 0 157.23919198 0 13546.54652262 0 84.93059969 0 492.71291827 0 5509
0.07250000 0.07249820 28009.54937048 0 -317.52105882 0 11900.42399183 0 2332.08627028 0 -877.36880416 0 5916
0.07350000 0.07351270 28170.65169659 0 -358.92048132 0 11887.35864855 0 1396.53018473 0 -923.73084265 0 5721
0.07450000 0.07449140 28243.61831715 0 -340.97999342 0 9550.96524391 0 2782.03233393 0 -285.94389567 0 6028
0.07550000 0.07549160 28495.18153703 0 187.79548678 0 8450.30972299 0 329.68068594 0 -1652.27874339 0 6183
0.07650000 0.07648840 27604.63445186 0 1171.97236508 0 8920.83923849 0 1272.39835118 0 -692.99688021 0 6330
0.07750000 0.07749960 26860.57422405 0 1184.29586260 0 7371.38917569 0 -658.41025918 0 -287.99006130 0 6583
0.07850000 0.07848650 25107.71448201 0 1134.11608652 0 7835.77355091 0 983.83806516 0 1034.33229526 0 6549
0.07950000 0.07947320 25185.33147899 0 -83.50603438 0 7731.02935812 0 1687.24514516 0 26.49452317 0 6828
0.08050000 0.08048110 24744.21005821 0 -100.94527814 0 7541.38257863 0 791.69890535 0 -1048.98651716 0 7147
0.08150000 0.08149960 23982.76628044 0 1109.98949074 0 8179.41422398 0 -787.24561630 0 -728.27441432 0 7386
0.08250000 0.08250610 23920.42909171 0 1180.96309283 0 7968.42000224 0 -1322.20166822 0 -1496.40255459 0 7227
0.08350000 0.08350160 22778.20806342 0 836.15761119 0 9475.61807352 0 -497.72868141 0 1348.34342712 0 7798
0.08450000 0.08449610 22577.24536796 0 182.99563398 0 9427.75241333 0 -90.03737734 0 362.24217877 0 7371
0.08550000 0.08548940 22247.51153486 0 184.95100654 0 10187.65713796 0 1199.87462362 0 747.09515205 0 8256
0.08650000 0.08650700 22357.12755056 0 783.66371922 0 9491.13040059 0 1574.81675896 0 732.90153886 0 8037
0.08750000 0.08749060 21419.63380817 0 370.79887139 0 9977.53762988 0 1240.01180109 0 2750.19940008 0 8155
0.08850000 0.08849210 21351.42828728 0 -3.95615273 0 9268.03412782 0 648.29015429 0 2278.48514583 0 8718
0.08950000 0.08949900 21302.04571859 0 103.14247028 0 9693.17818389 0 679.90607058 0 2753.24428940 0 8571
0.09050000 0.09049190 20869.67143443 0 523.42865455 0 9285.55054569 0 -747.86357139 0 2501.69214185 0 8932
0.09150000 0.09150830 20901.00611366 0 722.83125944 0 9523.84912043 0 -1196.13217783 0 3241.36772903 0 9285
0.09250000 0.09250820 20391.78989525 0 314.40862832 0 9871.05508210 0 510.07210912 0 2341.90742239 0 9204
0.09350000 0.09350330 20192.70949501 0 472.53139182 0 9300.47603954 0 392.73979025 0 1073.45635501 0 9349
0.09450000 0.09448040 19542.65330491 0 335.55012533 0 9054.11681233 0 -149.21618542 0 384.22185076 0 9564
0.09550000 0.09549270 19276.69606277 0 631.25981149 0 8889.61528250 0 1359.39360728 0 380.41850719 0 10155
0.09650000 0.09649430 18829.92775633 0 315.57454412 0 8883.51443152 0 403.01490768 0 943.92344142 0 9913
0.09750000 0.09749140 18487.35002645 0 547.23858184 0 8731.46926711 0 507.17669618 0 -128.49100782 0 10476
0.09850000 0.09850240 17840.61553379 0 715.50248764 0 8871.99921371 0 -221.95250162 0 475.80437104 0 10575
0.09950000 0.09950330 17380.44971433 0 789.26299389 0 8531.40342996 0 500.97065812 0 1471.95486139 0 10882
0.10050000 0.10051200 16877.21255132 0 -198.56442990 0 8589.22311017 0 334.65105255 0 2220.32222356 0 10875
0.10150000 0.10150300 17346.23623064 0 -198.80469935 0 8440.67680040 0 1355.68437847 0 1173.97645587 0 11118
0.10250000 0.10250800 17008.64104692 0 202.33344927 0 7366.28483395 0 599.72693764 0 1253.66397759 0 11575
0.10350000 0.10349800 17009.19466316 0 128.43453897 0 6586.41670767 0 926.28079905 0 917.03208613 0 11364
0.10450000 0.10450100 16693.85485232 0 -111.86148318 0 5959.91135246 0 1030.63524600 0 1582.46773541 0 12093
0.10550000 0.10551000 16526.55202431 0 -3.35516908 0 5404.35745468 0 1399.56400173 0 839.67307432 0 12067
0.10650000 0.10649700 16668.38850524 0 354.89679848 0 5210.58069803 0 410.04694117 0 624.12812707 0 12054
0.10750000 0.10749900 16088.97374748 0 382.96514190 0 5250.61822458 0 -61.42726508 0 551.51471368 0 12807
0.10850000 0.10850100 15921.78164272 0 595.11531435 0 5862.51918335 0 -976.54583203 0 882.72780938 0 12736
0.10950000 0.10950300 15215.81021228 0 577.71183420 0 5893.32239100 0 -685.47766443 0 835.75790026 0 12933
0.11050000 0.11050200 15350.22823558 0 51.08803888 0 6043.54062181 0 -147.50329677 0 383.77895777 0 13428
0.11150000 0.11150900 14869.68933845 0 259.72463050 0 5753.10246949 0 -255.30012951 0 -244.47471753 0 13453
0.11250000 0.11250000 15003.11085251 0 49.22279504 0 5669.97145476 0 458.01889568 0 -1189.41127667 0 13668
0.11350000 0.11349100 14436.20782180 0 171.77604724 0 4804.39246206 0 332.26275209 0 -1168.96069273 0 13791
0.11450000 0.11448600 14464.11008034 0 132.51469066 0 4691.35509799 0 823.19634776 0 -853.31417850 0 14205
0.11550000 0.11549300 14423.91754125 0 64.26587699 0 4285.29972991 0 730.01941271 0 -1284.19037712 0 14776
0.11650000 0.11649800 14083.22210658 0 430.44327072 0 4111.87390628 0 654.29135435 0 -81.47725230 0 14553
0.11750000 0.11747300 13988.55372938 0 125.91669230 0 4282.00017712 0 761.75933904 0 -84.37587622 0 14568
0.11850000 0.11849100 13744.51969038 0 97.33193566 0 3951.32519641 0 384.18974102 0 507.85764415 0 16015
0.11950000 0.11950300 13914.03698335 0 -24.89745103 0 4117.60937053 0 154.00828760 0 686.90820880 0 15270
0.12050000 0.12050700 13743.19101140 0 220.44666544 0 4001.31674296 0 -193.38922528 0 548.11329550 0 15999
0.12150000 0.12150000 13873.73372101 0 -1.73595230 0 3973.20411025 0 21.78557414 0 853.60980957 0 15670
0.12250000 0.12250700 13598.03283303 0 96.05330359 0 3730.21086978 0 -192.42371856 0 758.01135708 0 16887
0.12350000 0.12352200 13800.43493071 0 84.33679091 0 3643.38169855 0 291.72475646 0 31.70383055 0 16407
0.12450000 0.12449800 13611.31962281 0 53.92576501 0 3784.06665770 0 22.55831169 0 -31.97787059 0 16306
0.12550000 0.12549900 13520.08366630 0 257.47694857 0 3750.36250095 0 -141.31275996 0 211.70617223 0 17523
0.12650000 0.12650100 13434.27314896 0 306.77093866 0 4088.38950534 0 -580.65264367 0 33.72408693 0 17154
0.12750000 0.12750600 13346.91250614 0 111.33333328 0 4223.22827698 0 -110.58694787 0 457.72105014 0 18007
0.12850000 0.12850300 13389.09806370 0 -28.47049025 0 4555.26515364 0 209.60796668 0 554.12556787 0 17496
0.12950000 0.12949900 13227.33139810 0 143.87157423 0 4809.55216542 0 18.30664969 0 66.11440162 0 18405
0.13050000 0.13049000 13156.46851926 0 357.87082493 0 5088.40866598 0 -236.79827473 0 -279.64374285 0 18100
0.13150000 0.13148800 12828.06336514 0 423.06024453 0 5134.39203095 0 -273.30262243 0 204.48258752 0 19059
0.13250000 0.13249300 12426.80231371 0 471.60242377 0 5107.44199235 0 244.15583458 0 264.53334117 0 18957
0.13350000 0.13349100 12071.04851729 0 171.10838605 0 4821.51027623 0 417.93929430 0 119.17475372 0 19468
0.13450000 0.13450700 12035.17418488 0 5.15005937 0 4560.08161494 0 711.06248539 0 472.44834938 0 19953
0.13550000 0.13551000 12094.41112266 0 -87.35189568 0 4449.11477560 0 715.51355997 0 449.45445243 0 19956
0.13650000 0.13649900 12124.63856941 0 -83.77952080 0 4010.19674747 0 589.59797490 0 931.15926537 0 19723
0.13750000 0.13749600 12067.06248035 0 34.68992583 0 3843.28145083 0 377.36143831 0 1148.31080694 0 20946
0.13850000 0.13851100 11986.23450918 0 155.25613861 0 3843.61362057 0 235.72093753 0 999.48326012 0 20955
0.13950000 0.13949800 11801.43740795 0 320.24817243 0 3892.29863280 0 71.64668871 0 1198.35771512 0 20506
0.14050000 0.14048300 11605.23581217 0 411.51845314 0 3988.36212292 0 -119.91549225 0 1206.85018826 0 21447
0.14150000 0.14148400 11174.96526972 0 323.75034877 0 3983.74496348 0 -93.23152161 0 1066.35678033 0 21771
0.14250000 0.14249400 10857.25598137 0 318.12007160 0 3926.46782719 0 -22.62618504 0 1133.78391678 0 22470
0.14350000 0.14350900 10779.86043089 0 76.72390326 0 3935.24818077 0 170.93455055 0 644.55878083 0 22519
0.14450000 0.14449900 10815.86763120 0 -84.42625530 0 4180.54446480 0 177.32106751 0 833.35409855 0 22218
0.14550000 0.14550500 10788.49684425 0 175.03684690 0 3617.67176032 0 361.45825817 0 520.73365069 0 23559
0.14650000 0.14650700 10703.46138964 0 151.66870537 0 3747.76050462 0 -158.33867384 0 837.94579165 0 23044
0.14750000 0.14750500 10589.15070821 0 180.58740333 0 3727.43171625 0 228.63132795 0 1107.80824276 0 23649
0.14850000 0.14849900 10412.86822477 0 37.94950753 0 3904.44497312 0 209.48174217 0 1140.57125189 0 23640
0.14950000 0.14949500 10481.90417002 0 75.52687422 0 3652.26170305 0 447.56108489 0 1226.04959949 0 24457
0.15050000 0.15050000 10403.73355680 0 31.21897344 0 3595.34995349 0 186.18557076 0 1136.81773378 0 24591
0.15150000 0.15149900 10275.97000071 0 114.05601796 0 3204.27544089 0 216.76733190 0 1012.70361596 0 25020
0.15250000 0.15250500 10210.93116473 0 173.03939950 0 3274.57363117 0 147.81442910 0 844.14407908 0 25297
0.15350000 0.15350100 10004.18871572 0 213.55857217 0 3138.30652962 0 146.59868783 0 879.52901474 0 25452
0.15450000 0.15450400 9849.25367453 0 183.37873641 0 3048.64284324 0 29.95307455 0 764.60824821 0 26061
0.15550000 0.15549900 9619.76867034 0 277.15246977 0 2889.73283744 0 136.68452819 0 696.09602393 0 26128
0.15650000 0.15649500 9499.95504348 0 132.17587752 0 2666.13831006 0 295.83148174 0 1032.14772557 0 26331
0.15750000 0.15749700 9410.87819031 0 99.35008830 0 2936.90094117 0 257.87776672 0 1159.31669781 0 27345
0.15850000 0.15849900 9338.75306644 0 141.05145310 0 2668.70708941 0 150.87260521 0 874.94839396 0 26980
0.15950000 0.15949700 9151.37611353 0 189.91140806 0 2601.96311541 0 263.25559489 0 926.23318805 0 27777
0.16050000 0.16050000 8959.20484398 0 144.33329017 0 2456.48383962 0 -72.47556295 0 698.94493311 0 28224
0.16150000 0.16150500 8900.06755713 0 34.01861077 0 2509.48705852 0 -15.41555495 0 608.70991476 0 28075
0.16250000 0.16249700 8996.23069818 0 50.84179038 0 2607.87573686 0 -228.28587141 0 473.18023005 0 28590
0.16350000 0.16349900 8790.27438422 0 90.29646974 0 2462.09750830 0 -0.88581477 0 553.13016587 0 29163
0.16450000 0.16449100 8888.61877326 0 -19.78425143 0 2465.59636294 0 222.17837704 0 638.89307222 0 28996
0.16550000 0.16550500 8752.87207099 0 132.49143878 0 2463.82479097 0 65.71923034 0 485.78828633 0 30777
0.16650000 0.16650700 8657.97117497 0 250.06070540 0 2631.30477618 0 204.89669247 0 779.86037565 0 29211
0.16750000 0.16749900 8513.95344605 0 210.55686491 0 2647.18248997 0 42.98752605 0 770.04143800 0 30922
0.16850000 0.16850800 8391.17243614 0 122.48205714 0 2710.26152446 0 -57.55770900 0 950.58123033 0 30867
0.16950000 0.16949900 8214.60207225 0 78.35884274 0 2832.32283326 0 38.62558368 0 837.57154707 0 30852
0.17050000 0.17049200 8237.63250788 0 120.55215093 0 2688.41582759 0 15.74019552 0 1050.53553540 0 31257
0.17150000 0.17149500 8248.32837365 0 34.65216920 0 2496.06740084 0 177.75399541 0 893.31295190 0 32608
0.17250000 0.17250900 8165.68454120 0 -102.19335059 0 2355.29386310 0 147.16669809 0 545.84014721 0 32361
0.17350000 0.17350400 8236.40347982 0 32.20906073 0 2291.20724705 0 54.35791785 0 521.93610516 0 32508
0.17450000 0.17449800 8259.25675825 0 192.90979362 0 2163.38832934 0 -86.40698348 0 -19.66732768 0 32791
0.17550000 0.17549800 7961.93161989 0 186.64617947 0 2041.51525006 0 57.26373877 0 238.77468471 0 33633
0.17650000 0.17650100 7832.00896047 0 70.10054928 0 1960.72049586 0 -87.59637261 0 -79.65076160 0 33984
0.17750000 0.17750300 7773.31456661 0 41.40628734 0 1992.60879134 0 410.31932036 0 -16.08576277 0 34069
