### header ###
fiducial parameters:
Omega_m = 0.31
Omega_nu = 0
Omega_de = 0.69
Omega_k = 0
H_0 = 100
w_de = -1
zeff = 0
beta = 0
fgrowth = 0
b_1 = 2
gamma = 0.55
Lx = 3500 Ly = 3500 Lz = 3500
nx = 700 ny = 700 nz = 700
xoffset = -685.467585 yoffset = -31.7331281 zoffset = 572.489161
bins = 400 dk = 0.001
kx_ny = 0.628318531 ky_ny = 0.628318531 kz_ny = 0.628318531
############################
A(data) = 8.06577716 (not used)
A(ran) = 8.07173192 (used)
Ngal = 479730
weighted Ngal = 0
Nran = 23820508
weighted Nran = 0
SN(data) = 3479.22168
SN(ran) = 70.3077124
SN(data+ran) = 3549.52939
############################
13 columns: k_central k_mean P_0(k) sigma^{lin}_{P_0(k)} P^img_1(k) sigma^{lin}_{P_1(k)} P_2(k) sigma^{lin}_{P_2(k)} P^img_3(k) sigma^{lin}_{P_3(k)} P_4(k) sigma^{lin}_{P_4(k)} N_modes
### header ###
0.00050000 0 0 0 0 0 0 0 0 0 0 0 0
0.00150000 0.00179520 30753.05001405 0 -54326.58316918 0 -24040.23164624 0 -91881.25159608 0 3490.29573561 0 3
0.00250000 0.00253879 61565.11551937 0 -62712.42981708 0 -43662.05207361 0 -44117.34607015 0 -22772.22900801 0 6
0.00350000 0.00331552 96353.91720657 0 -54760.95047182 0 -51545.99023748 0 -56783.97493943 0 367.33212649 0 7
0.00450000 0.00420575 117631.27164082 0 -16898.47141497 0 -45278.72222038 0 -68606.78193429 0 28523.41596531 0 24
0.00550000 0.00557378 105923.72754732 0 16853.29632971 0 -24114.85911552 0 -87878.38472764 0 -2039.95405226 0 45
0.00650000 0.00659388 76237.82819930 0 22806.77466145 0 -1869.14129729 0 -46776.14342885 0 56544.25910711 0 40
0.00750000 0.00754703 80069.73837254 0 2533.03789341 0 13447.78138524 0 -23777.04248531 0 17823.45343032 0 57
0.00850000 0.00846663 62844.41192892 0 -324.53759106 0 6153.56631354 0 15908.71629943 0 7874.84778519 0 75
0.00950000 0.00948925 85652.84743909 0 -4648.70450278 0 33344.41691460 0 -4101.79809069 0 -47725.48455880 0 112
0.01050000 0.01054430 78224.20327177 0 5963.93060637 0 -1400.30584749 0 -1364.65296157 0 -7919.50247119 0 105
0.01150000 0.01145670 81537.59647375 0 4063.97502911 0 19978.01711678 0 -13626.59943106 0 -5038.12923898 0 144
0.01250000 0.01249090 77474.71760479 0 -1315.37004381 0 12309.65711713 0 -5786.34158860 0 8328.59165626 0 169
0.01350000 0.01339930 87650.51628287 0 -2061.85511075 0 38016.05220208 0 6778.13401191 0 -19590.92864112 0 180
0.01450000 0.01448870 77093.71890778 0 9481.05458501 0 23610.51472003 0 2341.78562682 0 -8105.22964769 0 267
0.01550000 0.01550050 69758.19299218 0 9792.03189987 0 23863.62806539 0 11395.74742660 0 3123.40318042 0 238
0.01650000 0.01653350 62345.93586559 0 1581.15012875 0 15808.73320632 0 16874.33374687 0 -1214.75582818 0 315
0.01750000 0.01747870 65733.40292060 0 -2980.78056443 0 15913.92029210 0 4328.22713323 0 4684.67848612 0 297
0.01850000 0.01844180 71683.11666190 0 -6721.46585348 0 16738.36559809 0 18659.74612387 0 -7736.82018400 0 388
0.01950000 0.01947590 74137.74035095 0 -5321.00499345 0 10913.68054864 0 -10897.93570275 0 -3206.58955678 0 399
0.02050000 0.02045430 79376.38939239 0 -3772.91682660 0 15816.81600344 0 -9689.18107463 0 -55.73310059 0 462
0.02150000 0.02154770 80210.57834423 0 5535.11053847 0 28325.55352081 0 -16794.17011518 0 -2334.90971311 0 571
0.02250000 0.02255340 85369.61737023 0 3224.34956579 0 45331.64793301 0 -8791.56984623 0 1626.65738376 0 510
0.02350000 0.02348930 75628.73961103 0 2936.70163932 0 36140.73254755 0 1872.57371798 0 3475.51418197 0 555
0.02450000 0.02439640 75833.79906667 0 8613.72616499 0 37306.98052070 0 8597.49413681 0 8005.08046971 0 592
0.02550000 0.02547300 72119.25553651 0 2911.23529224 0 38919.22173754 0 9186.55288948 0 -10505.21141376 0 837
0.02650000 0.02652900 69419.15840623 0 831.22710495 0 37114.87568510 0 14220.07604134 0 22.61311970 0 723
0.02750000 0.02749970 67441.41974713 0 2140.18073652 0 27050.79676443 0 2776.55153315 0 -2141.31011365 0 826
0.02850000 0.02848090 67692.09718102 0 1939.42841523 0 30042.64965368 0 9523.82697578 0 10135.73900689 0 831
0.02950000 0.02946900 60281.39017990 0 1239.55783577 0 20945.40613619 0 9407.14681685 0 7276.59900292 0 996
0.03050000 0.03053250 61082.80505027 0 4953.44809877 0 24026.94485646 0 7878.56808633 0 5035.13971128 0 1041
0.03150000 0.03150510 56766.03777323 0 2505.50102159 0 25360.27421112 0 527.67046218 0 8765.38379803 0 1036
0.03250000 0.03246190 53085.81845001 0 5021.35466688 0 29179.56193407 0 2886.69902044 0 8610.09444245 0 1059
0.03350000 0.03345080 51927.32110423 0 3784.17738094 0 26760.03751470 0 -1079.18517587 0 13511.11508320 0 1302
0.03450000 0.03451200 47079.74657538 0 3755.54434896 0 31379.18998254 0 484.49946772 0 8635.66044046 0 1339
0.03550000 0.03553350 45704.89600265 0 2951.37246971 0 27607.95614931 0 4201.49330336 0 11565.04327308 0 1365
0.03650000 0.03647120 43596.72535718 0 320.43418748 0 24294.67367058 0 10125.82927617 0 9287.72072135 0 1308
0.03750000 0.03744890 43460.20359217 0 -804.22724088 0 19190.66409893 0 9026.00417961 0 10272.98047301 0 1579
0.03850000 0.03847530 43987.91059302 0 -932.38718619 0 17304.93645906 0 7909.48201723 0 8813.00586708 0 1662
0.03950000 0.03950240 43080.31212764 0 969.97551448 0 14150.98473447 0 612.33167221 0 9123.30777012 0 1683
0.04050000 0.04050350 42430.36666078 0 2512.13334415 0 14239.12044003 0 -1908.80236479 0 6913.76999093 0 1822
0.04150000 0.04152450 40832.96235920 0 2738.78383319 0 17040.30789590 0 -6438.74511156 0 4352.57517551 0 1887
0.04250000 0.04250150 39182.52162173 0 695.58669699 0 19287.65766434 0 899.18349852 0 9700.29768874 0 1920
0.04350000 0.04349210 38952.66015849 0 153.69604804 0 19827.32277600 0 3988.40641222 0 8064.99281930 0 2005
0.04450000 0.04448520 39859.15139140 0 -1310.60894413 0 18935.77918160 0 5030.06858651 0 7793.78729520 0 2151
0.04550000 0.04548030 40055.57443368 0 -1323.97324019 0 15709.41445270 0 7745.97699663 0 6681.77156901 0 2274
0.04650000 0.04648670 40656.69094808 0 601.45532754 0 16819.19356927 0 2220.70975493 0 7441.22232832 0 2311
0.04750000 0.04749250 40448.19907175 0 906.38604582 0 17414.77392126 0 1105.98684532 0 13645.97599949 0 2568
0.04850000 0.04851840 41532.17967149 0 -679.15536696 0 17129.10794094 0 -1173.89894960 0 10165.41283740 0 2493
0.04950000 0.04949480 41952.15295187 0 -1111.03028928 0 19707.52022146 0 -889.74544885 0 13586.18544547 0 2644
0.05050000 0.05050630 44842.36189928 0 274.19505181 0 22181.52047894 0 -3195.20720687 0 9142.69541088 0 2829
0.05150000 0.05149060 41791.27207225 0 2590.85757361 0 22762.59608542 0 -2018.98306906 0 11711.97302342 0 2784
0.05250000 0.05249300 40718.58524382 0 3193.41349025 0 24645.77709058 0 418.76196804 0 10400.37864238 0 3055
0.05350000 0.05348950 37812.98576491 0 1232.39404161 0 22600.16508033 0 2066.77122297 0 10297.37280459 0 3009
0.05450000 0.05448610 36713.83608016 0 1152.47400107 0 22981.93884008 0 4047.08973376 0 5616.10459451 0 3336
0.05550000 0.05550870 35868.13191052 0 1092.54172130 0 18502.40838820 0 6002.69481556 0 4582.29269852 0 3349
0.05650000 0.05647670 34724.02858700 0 -468.61843223 0 17693.90722994 0 2990.80101839 0 4659.66610435 0 3324
0.05750000 0.05747970 35365.33764050 0 -254.84173526 0 13872.29431879 0 408.90981341 0 3345.34793141 0 3639
0.05850000 0.05849280 34632.12829101 0 51.93318944 0 14813.66337487 0 372.73209930 0 279.71128403 0 3846
0.05950000 0.05951020 34774.07549519 0 1921.18122393 0 11970.40108469 0 206.94064363 0 -1234.74137448 0 3787
0.06050000 0.06049470 33739.25601763 0 1134.95758321 0 12358.04317659 0 -482.23960622 0 -1016.75608684 0 3930
0.06150000 0.06148310 32506.35264908 0 77.40097592 0 11173.85803723 0 2399.85997049 0 -1650.46288212 0 4083
0.06250000 0.06249100 32733.77820085 0 -431.41542084 0 10061.07832063 0 3078.95886859 0 -1825.08451683 0 4303
0.06350000 0.06350600 32409.91269991 0 308.69752318 0 10797.08896830 0 1306.51218395 0 -4096.87090615 0 4470
0.06450000 0.06451750 31329.47524410 0 1252.76711928 0 10518.94109654 0 189.67778200 0 -1340.21634070 0 4479
0.06550000 0.06550280 31152.87166325 0 1087.22700538 0 11008.34892584 0 -1363.81146489 0 -4.10878473 0 4636
0.06650000 0.06648880 30260.99589910 0 1102.86998589 0 12180.22164000 0 -111.18717860 0 2321.75579122 0 4653
0.06750000 0.06749660 29884.86902502 0 406.59680476 0 11067.63015292 0 962.06987456 0 1425.82755620 0 5220
0.06850000 0.06852730 29260.50062849 0 -345.55729250 0 10480.02187480 0 1811.84201635 0 1188.31511651 0 5029
0.06950000 0.06949320 29836.26151906 0 51.91126623 0 9869.30565478 0 859.31316408 0 1422.24012296 0 5040
0.07050000 0.07048030 29620.12973860 0 579.02279746 0 10915.09780622 0 265.88637927 0 -1859.86268909 0 5475
0.07150000 0.07148790 28647.64744978 0 829.10343305 0 9855.09986203 0 -1338.25653921 0 -730.09138282 0 5509
0.07250000 0.07249820 27856.41911824 0 1171.80628021 0 9879.53648291 0 -1524.31588546 0 -1614.02386114 0 5916
0.07350000 0.07351270 27620.46787635 0 378.69897514 0 11953.01753472 0 61.05401701 0 -374.76829983 0 5721
0.07450000 0.07449140 27014.70098553 0 30.20353053 0 12004.06095214 0 -399.02554905 0 -2263.51536268 0 6028
0.07550000 0.07549160 27341.44529092 0 715.39840779 0 12219.41766986 0 1356.86911723 0 -469.78988420 0 6183
0.07650000 0.07648840 26640.67785315 0 591.76150717 0 11676.09869101 0 1596.21956283 0 139.52790120 0 6330
0.07750000 0.07749960 26077.98230587 0 304.88864344 0 9981.06970149 0 2707.59309418 0 1584.50504317 0 6583
0.07850000 0.07848650 25906.02910143 0 52.02210020 0 10638.61078318 0 1663.87146747 0 -253.04026801 0 6549
0.07950000 0.07947320 25508.31119395 0 532.27101315 0 9277.87742459 0 472.44945662 0 989.16053170 0 6828
0.08050000 0.08048110 25535.99200600 0 462.77113749 0 9372.71188666 0 -149.82848498 0 1053.40769646 0 7147
0.08150000 0.08149960 24610.89926740 0 618.02616887 0 8546.72752751 0 -446.64318916 0 1141.93314785 0 7386
0.08250000 0.08250610 24333.42680744 0 504.75185704 0 9749.99028253 0 -589.61347615 0 1124.59388718 0 7227
0.08350000 0.08350160 23592.13466083 0 1086.75975327 0 10153.73153472 0 -306.20403563 0 1117.23079118 0 7798
0.08450000 0.08449610 23299.82528562 0 1158.39769485 0 9346.44833219 0 509.68900668 0 1087.52152922 0 7371
0.08550000 0.08548940 22145.20325353 0 219.80889953 0 10535.71566864 0 1173.38962266 0 2502.24575809 0 8256
0.08650000 0.08650700 22802.67790126 0 0.98374395 0 10168.86740274 0 1028.36099048 0 1401.51273089 0 8037
0.08750000 0.08749060 22049.31692060 0 22.93598869 0 10066.23802400 0 1698.07387884 0 2075.26369611 0 8155
0.08850000 0.08849210 22292.24372713 0 234.86947575 0 8963.26838719 0 844.08207406 0 3054.55546469 0 8718
0.08950000 0.08949900 21984.32237392 0 152.95863121 0 8222.89524354 0 839.05523859 0 2284.43098426 0 8571
0.09050000 0.09049190 21980.66850673 0 601.67234511 0 7553.37390641 0 1128.64635806 0 1046.42770289 0 8932
0.09150000 0.09150830 20807.22352245 0 610.10281323 0 6924.68730321 0 91.22466273 0 657.35617386 0 9285
0.09250000 0.09250820 20218.72945834 0 702.49693491 0 6330.76779993 0 416.45560278 0 -963.45391516 0 9204
0.09350000 0.09350330 19889.54924148 0 289.47707452 0 6235.61224044 0 -257.20678384 0 -1105.96359344 0 9349
0.09450000 0.09448040 19480.42683943 0 127.57754103 0 6378.58917083 0 534.39357781 0 -869.20296461 0 9564
0.09550000 0.09549270 19571.55207269 0 146.24105174 0 5801.03456363 0 541.68359648 0 -311.95057221 0 10155
0.09650000 0.09649430 18830.70281907 0 480.43703174 0 5653.45154613 0 1020.91928097 0 688.63216977 0 9913
0.09750000 0.09749140 19027.90092409 0 502.91717282 0 6148.94915409 0 1094.67867999 0 901.92722061 0 10476
0.09850000 0.09850240 18256.71350047 0 261.37994306 0 5541.99752450 0 476.94260603 0 1918.91139735 0 10575
0.09950000 0.09950330 17733.21398305 0 626.76112592 0 6015.61621862 0 850.28146873 0 2610.66596271 0 10882
0.10050000 0.10051200 17401.59785473 0 499.17472703 0 6355.16013151 0 -127.37823918 0 2901.74630987 0 10875
0.10150000 0.10150300 17305.93296830 0 218.49904351 0 6137.62216580 0 -43.70523414 0 3318.19859095 0 11118
0.10250000 0.10250800 16653.10869699 0 326.37781145 0 5981.28093936 0 -129.84515315 0 3227.63804626 0 11575
0.10350000 0.10349800 16881.97365099 0 256.63766634 0 6214.41981074 0 -240.51414694 0 2520.61474496 0 11364
0.10450000 0.10450100 16581.69220191 0 548.20408856 0 6511.82245537 0 -631.19559201 0 2261.27875306 0 12093
0.10550000 0.10551000 16130.71641204 0 628.65338623 0 6411.37432461 0 -393.76730199 0 2016.45857900 0 12067
0.10650000 0.10649700 15612.19944079 0 582.29134775 0 6789.20633672 0 -332.34136559 0 1641.74896248 0 12054
0.10750000 0.10749900 15368.27612503 0 180.37813639 0 6876.79949836 0 -416.86970772 0 387.82035633 0 12807
0.10850000 0.10850100 14944.09536123 0 182.53945419 0 7350.11923971 0 -26.68397064 0 487.05385305 0 12736
0.10950000 0.10950300 15088.03558387 0 225.65508704 0 6979.06349039 0 -126.61314153 0 168.26058411 0 12933
0.11050000 0.11050200 14948.30284466 0 46.53864206 0 6894.30484390 0 381.94427355 0 -289.38960316 0 13428
0.11150000 0.11150900 15076.96325905 0 -20.49288022 0 6642.64197310 0 483.35126763 0 -541.93161655 0 13453
0.11250000 0.11250000 14857.06688816 0 281.12189822 0 6407.74260207 0 284.21772023 0 -120.70494901 0 13668
0.11350000 0.11349100 14703.93663591 0 125.30439274 0 5972.76632157 0 547.28619283 0 -53.65548956 0 13791
0.11450000 0.11448600 14573.17247981 0 311.06700069 0 6162.91135568 0 528.43666706 0 272.58624301 0 14205
0.11550000 0.11549300 14310.09404211 0 87.67077864 0 5899.65576079 0 723.78680107 0 313.38000934 0 14776
0.11650000 0.11649800 14347.96139299 0 231.82347919 0 6137.72181672 0 470.42100671 0 1194.54883538 0 14553
0.11750000 0.11747300 14025.31384778 0 91.86109996 0 5952.74755830 0 526.49125959 0 656.94871230 0 14568
0.11850000 0.11849100 14086.21163428 0 89.82058122 0 5556.35832979 0 706.49515140 0 453.03302781 0 16015
0.11950000 0.11950300 13860.11476149 0 71.56154254 0 5390.37310844 0 -52.02918649 0 926.77462474 0 15270
0.12050000 0.12050700 13724.47878246 0 271.50669134 0 5278.08866245 0 518.20805339 0 649.90671372 0 15999
0.12150000 0.12150000 13740.20148370 0 -225.07821891 0 4818.37680830 0 598.07051785 0 966.16331305 0 15670
0.12250000 0.12250700 13625.49219858 0 60.96510624 0 4489.34053167 0 648.03549082 0 350.42468649 0 16887
0.12350000 0.12352200 13653.17301062 0 182.97016763 0 4157.85727125 0 -237.84571666 0 -51.08925684 0 16407
0.12450000 0.12449800 13313.36336194 0 127.48453350 0 3904.25674360 0 215.06551558 0 -128.21641417 0 16306
0.12550000 0.12549900 13279.26060150 0 172.98846680 0 3952.21098239 0 -501.46337657 0 -410.42340022 0 17523
0.12650000 0.12650100 13194.11442364 0 216.92455892 0 4377.34396613 0 -144.46837254 0 -831.49062628 0 17154
0.12750000 0.12750600 13066.89341148 0 206.26966074 0 4287.25953140 0 -338.19530373 0 -184.00764446 0 18007
0.12850000 0.12850300 13061.80014206 0 159.11927274 0 4385.05030420 0 463.28600060 0 -106.65461171 0 17496
0.12950000 0.12949900 13053.93879144 0 -126.24332588 0 4131.62693375 0 582.40317823 0 86.73173477 0 18405
0.13050000 0.13049000 13162.66902116 0 -233.55740526 0 4207.76023921 0 315.86353180 0 38.26595457 0 18100
0.13150000 0.13148800 13133.77025338 0 153.40263143 0 3996.16811192 0 134.65939998 0 245.00618912 0 19059
0.13250000 0.13249300 13119.92984736 0 369.04169344 0 4237.10189998 0 336.31854467 0 746.46402953 0 18957
0.13350000 0.13349100 12749.44985893 0 285.49103759 0 3852.43826345 0 27.17757488 0 852.32320542 0 19468
0.13450000 0.13450700 12536.75049916 0 356.25094381 0 3903.54811481 0 217.62875878 0 894.27402970 0 19953
0.13550000 0.13551000 12373.54443133 0 133.85665643 0 3477.45183882 0 267.78860467 0 714.49490608 0 19956
0.13650000 0.13649900 12019.00859064 0 198.94531788 0 3498.15708623 0 439.52479154 0 515.43775773 0 19723
0.13750000 0.13749600 11933.41951979 0 131.94889486 0 3326.92358291 0 332.29707629 0 422.04048341 0 20946
0.13850000 0.13851100 11665.24781268 0 255.07425408 0 3381.87553098 0 225.60526157 0 270.88331946 0 20955
0.13950000 0.13949800 11410.47361861 0 490.64571522 0 3290.13024754 0 -212.46462648 0 332.91601925 0 20506
0.14050000 0.14048300 11093.14078931 0 234.66795944 0 3366.80609691 0 100.12957997 0 80.62889078 0 21447
0.14150000 0.14148400 11101.66647942 0 5.01061451 0 3674.77173941 0 29.95761420 0 738.71561662 0 21771
0.14250000 0.14249400 11184.70891556 0 -111.00891417 0 3524.90782299 0 92.98726612 0 7.75319615 0 22470
0.14350000 0.14350900 11110.41361602 0 33.74213482 0 3573.43782267 0 -160.03938293 0 98.11596698 0 22519
0.14450000 0.14449900 11171.53284902 0 198.43488370 0 3636.33969997 0 77.97319367 0 193.93730536 0 22218
0.14550000 0.14550500 10933.02390010 0 165.92432357 0 3640.12643505 0 13.38511203 0 289.22905445 0 23559
0.14650000 0.14650700 10750.64056569 0 126.16028345 0 3521.28717277 0 270.94753894 0 4.81898579 0 23044
0.14750000 0.14750500 10656.69188960 0 137.95009492 0 3403.03474371 0 499.79034829 0 262.26794351 0 23649
0.14850000 0.14849900 10589.32786541 0 177.60562625 0 3313.09424921 0 124.84489126 0 -39.00137839 0 23640
0.14950000 0.14949500 10577.62441807 0 176.04221399 0 3324.85305817 0 79.45356350 0 579.61959577 0 24457
0.15050000 0.15050000 10347.91796739 0 245.92740655 0 3350.27511595 0 -227.96034506 0 835.43126668 0 24591
0.15150000 0.15149900 10283.79813436 0 223.64213838 0 3666.82181019 0 -82.13450550 0 573.87305919 0 25020
0.15250000 0.15250500 10051.58933826 0 184.98422351 0 3832.08733043 0 -277.28533767 0 807.73163168 0 25297
0.15350000 0.15350100 9910.94866842 0 352.87720644 0 4139.08968068 0 -48.17347082 0 635.56583861 0 25452
0.15450000 0.15450400 9667.10285894 0 153.81784361 0 3851.92893651 0 69.64448022 0 902.30146519 0 26061
0.15550000 0.15549900 9605.82861339 0 148.89176630 0 3866.23438017 0 276.07181087 0 621.72543259 0 26128
0.15650000 0.15649500 9385.72186832 0 128.49211506 0 3694.48047759 0 288.93010168 0 390.45778410 0 26331
0.15750000 0.15749700 9368.08365489 0 150.30791665 0 3505.89664128 0 320.66117014 0 641.37548744 0 27345
0.15850000 0.15849900 9028.72797152 0 196.36103726 0 3314.74402561 0 90.06328658 0 729.67949234 0 26980
0.15950000 0.15949700 8993.98301624 0 140.86986697 0 3052.04204696 0 298.68703431 0 538.76714612 0 27777
0.16050000 0.16050000 8984.89263756 0 -49.37105347 0 2905.11229662 0 256.05969099 0 368.08504457 0 28224
0.16150000 0.16150500 8856.18793387 0 20.97806949 0 2879.64594953 0 138.11396532 0 642.92118399 0 28075
0.16250000 0.16249700 8946.95885273 0 131.99761309 0 2831.21560078 0 289.33091984 0 566.78123514 0 28590
0.16350000 0.16349900 8798.14680717 0 39.26755708 0 2654.26877785 0 189.31571698 0 149.29812062 0 29163
0.16450000 0.16449100 8773.63268002 0 123.14196770 0 2652.13181916 0 20.14753441 0 344.96603035 0 28996
0.16550000 0.16550500 8719.26756516 0 39.17454955 0 2677.80854042 0 -60.86113711 0 417.27274035 0 30777
0.16650000 0.16650700 8737.55904576 0 39.75174984 0 2730.60138515 0 148.35475855 0 573.65161269 0 29211
0.16750000 0.16749900 8768.88265267 0 -34.36893913 0 2556.84339177 0 327.32670968 0 505.91998731 0 30922
0.16850000 0.16850800 8668.93277654 0 113.84896548 0 2455.17730529 0 374.59778603 0 362.33518630 0 30867
0.16950000 0.16949900 8516.37828519 0 361.65423832 0 2335.54083562 0 36.79056729 0 582.25259461 0 30852
0.17050000 0.17049200 8262.39022617 0 294.79954106 0 2470.11387147 0 102.60568397 0 779.29015092 0 31257
0.17150000 0.17149500 7976.67995655 0 160.21764736 0 2357.63012363 0 133.41929960 0 946.81331819 0 32608
0.17250000 0.17250900 7908.64052054 0 32.63700608 0 2302.35707814 0 253.65921097 0 848.13897388 0 32361
0.17350000 0.17350400 7850.93156358 0 -52.69252947 0 2139.10672101 0 249.38086466 0 784.02799871 0 32508
0.17450000 0.17449800 7951.28004342 0 9.18792586 0 1916.47548589 0 86.13272200 0 672.67252078 0 32791
0.17550000 0.17549800 7860.28767806 0 48.03694906 0 1924.95688670 0 -202.00127953 0 740.39307383 0 33633
0.17650000 0.17650100 7826.37314714 0 118.95884339 0 2010.68989777 0 -34.48763445 0 520.86651858 0 33984
0.17750000 0.17750300 7934.31724179 0 6.22470600 0 2170.25317073 0 -166.03061789 0 681.73964757 0 34069
0.17850000 0.17849800 7734.16282605 0 28.94349997 0 2049.19944349 0 136.60148575 0 613.51419650 0 34536
