### header ###
fiducial parameters:
Omega_m = 0.31
Omega_nu = 0
Omega_de = 0.69
Omega_k = 0
H_0 = 100
w_de = -1
zeff = 0
beta = 0
fgrowth = 0
b_1 = 2
gamma = 0.55
Lx = 3500 Ly = 3500 Lz = 3500
nx = 700 ny = 700 nz = 700
xoffset = -685.467585 yoffset = -31.7331281 zoffset = 572.489161
bins = 400 dk = 0.001
kx_ny = 0.628318531 ky_ny = 0.628318531 kz_ny = 0.628318531
############################
A(data) = 8.05795977 (not used)
A(ran) = 8.05772724 (used)
Ngal = 479016
weighted Ngal = 0
Nran = 23820508
weighted Nran = 0
SN(data) = 3486.59216
SN(ran) = 70.1857266
SN(data+ran) = 3556.77789
############################
13 columns: k_central k_mean P_0(k) sigma^{lin}_{P_0(k)} P^img_1(k) sigma^{lin}_{P_1(k)} P_2(k) sigma^{lin}_{P_2(k)} P^img_3(k) sigma^{lin}_{P_3(k)} P_4(k) sigma^{lin}_{P_4(k)} N_modes
### header ###
0.00050000 0 0 0 0 0 0 0 0 0 0 0 0
0.00150000 0.00179520 24896.78669422 0 -36778.16628736 0 -17299.84318965 0 -4066.27807267 0 -1346.50542120 0 3
0.00250000 0.00253879 37946.18583248 0 -26834.00064449 0 -16274.21374169 0 -756.65721176 0 -14526.44726907 0 6
0.00350000 0.00331552 51162.11273602 0 -13339.05115552 0 -3776.75892332 0 -25478.74808668 0 -1399.95153310 0 7
0.00450000 0.00420575 56764.70909425 0 -8026.11788687 0 -17933.29089252 0 -2153.04677796 0 6650.79120417 0 24
0.00550000 0.00557378 61220.32332452 0 -5380.88412607 0 -11296.31794973 0 -3870.95119055 0 -10610.55351208 0 45
0.00650000 0.00659388 80435.45726130 0 -8961.68504474 0 -15941.49038089 0 -6828.64595773 0 6898.60090593 0 40
0.00750000 0.00754703 70791.24089776 0 11965.86143151 0 11628.48769429 0 -8006.87418633 0 17259.31848081 0 57
0.00850000 0.00846663 72798.09977114 0 1217.96680238 0 13182.37775934 0 -20494.20889983 0 22750.19508162 0 75
0.00950000 0.00948925 61044.93769939 0 14382.17487668 0 35376.74213506 0 313.92587496 0 714.11733981 0 112
0.01050000 0.01054430 67227.17026189 0 2282.07257907 0 40894.41376194 0 -3981.92910220 0 24258.24572192 0 105
0.01150000 0.01145670 65418.06310977 0 -9053.71820863 0 34699.22657941 0 15615.18896849 0 6577.59206479 0 144
0.01250000 0.01249090 71871.67835356 0 -679.70455427 0 45635.25107954 0 19569.22688448 0 7467.10942375 0 169
0.01350000 0.01339930 80055.89796651 0 5275.30950892 0 32527.50078948 0 27563.11323379 0 -15062.12634380 0 180
0.01450000 0.01448870 61727.21435472 0 1572.82374049 0 25333.81135481 0 9692.91244809 0 4874.35848259 0 267
0.01550000 0.01550050 64885.59500924 0 6458.49813904 0 30991.32644414 0 11606.34304465 0 7562.97361203 0 238
0.01650000 0.01653350 57026.68029946 0 2918.66482220 0 25376.77197510 0 4225.26558474 0 6176.65211078 0 315
0.01750000 0.01747870 61579.50954164 0 -1722.95339270 0 21600.77704220 0 12266.91794333 0 3159.08928331 0 297
0.01850000 0.01844180 66852.15062028 0 -7330.93090080 0 16405.53151404 0 2314.93523913 0 20109.33488913 0 388
0.01950000 0.01947590 76051.25952611 0 -13596.92560055 0 8916.75355063 0 10794.69734614 0 18286.83022398 0 399
0.02050000 0.02045430 86646.92076131 0 -11646.53558374 0 -5587.53799648 0 19201.51497725 0 12290.28054870 0 462
0.02150000 0.02154770 94492.54868131 0 -10494.17230592 0 -7253.24746987 0 10437.80310026 0 8177.21083134 0 571
0.02250000 0.02255340 95504.78061623 0 3677.35159109 0 -6612.14879055 0 2799.33837762 0 -4120.79820008 0 510
0.02350000 0.02348930 90288.82984066 0 12584.14004938 0 -12320.72944195 0 1465.87615507 0 -3729.98942328 0 555
0.02450000 0.02439640 79066.80719046 0 11827.34664803 0 -6405.28454596 0 -21635.54414213 0 2328.75350051 0 592
0.02550000 0.02547300 70587.39939785 0 9007.85663924 0 510.02671259 0 -22853.16770244 0 -2298.01672681 0 837
0.02650000 0.02652900 68537.02628793 0 2045.39056375 0 13427.07613783 0 -13591.94305438 0 -321.35208321 0 723
0.02750000 0.02749970 65027.09932042 0 2719.17474594 0 22730.59706670 0 -10093.19913493 0 -14094.07298490 0 826
0.02850000 0.02848090 65560.78537668 0 -1329.05543728 0 25819.77569110 0 -5051.36066714 0 -8838.87081785 0 831
0.02950000 0.02946900 64897.11022705 0 1934.10262700 0 27863.17323638 0 3684.71468710 0 -13137.64556707 0 996
0.03050000 0.03053250 65587.80184924 0 2277.38898567 0 23002.31191774 0 6554.70556939 0 -9938.93950556 0 1041
0.03150000 0.03150510 62620.97241408 0 17.20849651 0 22548.56804668 0 9459.93966158 0 -8576.46779198 0 1036
0.03250000 0.03246190 63975.67135564 0 -1984.79173002 0 22580.56706540 0 2150.48907093 0 -10786.10522208 0 1059
0.03350000 0.03345080 61525.03370353 0 4304.55450277 0 21086.79972412 0 2983.50435633 0 -3808.19325348 0 1302
0.03450000 0.03451200 60726.82980735 0 3599.12561625 0 19429.16197552 0 3529.38104222 0 136.53615904 0 1339
0.03550000 0.03553350 57042.51372395 0 2192.49747129 0 20956.58918425 0 256.64652420 0 4711.88318820 0 1365
0.03650000 0.03647120 54963.90618575 0 2563.37606341 0 20210.75738447 0 8005.72266455 0 2504.88097140 0 1308
0.03750000 0.03744890 54408.07547985 0 1829.25878329 0 23696.98957687 0 948.86169829 0 6898.34624246 0 1579
0.03850000 0.03847530 52645.69353847 0 2239.68771967 0 22429.87272462 0 2894.26141829 0 2560.43082501 0 1662
0.03950000 0.03950240 48383.84499252 0 1708.21612837 0 17357.86217170 0 -138.51921241 0 6635.31209407 0 1683
0.04050000 0.04050350 48585.69347396 0 1961.20767815 0 15402.71105522 0 7136.19085189 0 3713.48058698 0 1822
0.04150000 0.04152450 46409.87092385 0 -1190.54065380 0 10892.55455289 0 6445.89783340 0 -2684.35228438 0 1887
0.04250000 0.04250150 48039.16352092 0 -1173.38962266 0 6229.68854666 0 4179.41508767 0 -3932.80119698 0 1920
0.04350000 0.04349210 46093.53460378 0 450.59600912 0 5536.59422999 0 409.62397836 0 -9656.17447434 0 2005
0.04450000 0.04448520 46513.06499116 0 3491.67977621 0 6373.48482908 0 -5402.50837644 0 -5841.02780088 0 2151
0.04550000 0.04548030 41813.74889163 0 2901.23698293 0 10102.71026195 0 -5976.71914153 0 -7679.97486838 0 2274
0.04650000 0.04648670 42379.98758286 0 1327.72675830 0 12135.48944773 0 -4104.24507448 0 -5109.80039753 0 2311
0.04750000 0.04749250 40598.78268928 0 1221.02276403 0 14882.42251199 0 1308.46091312 0 -2994.85348927 0 2568
0.04850000 0.04851840 41147.08421430 0 967.17975247 0 15022.93031394 0 934.14547137 0 -4761.59792663 0 2493
0.04950000 0.04949480 40041.73402766 0 158.81367657 0 12768.60498086 0 3203.58895675 0 -47.63701668 0 2644
0.05050000 0.05050630 39214.29919396 0 317.74914872 0 12002.28938016 0 3645.81761001 0 -2984.60051649 0 2829
0.05150000 0.05149060 38885.11897710 0 -320.27142431 0 9763.67567601 0 2602.47244235 0 -2187.26026165 0 2784
0.05250000 0.05249300 40169.95154906 0 -941.80087675 0 10002.98183231 0 3512.41824060 0 -5092.94831916 0 3055
0.05350000 0.05348950 38486.51528363 0 614.32026175 0 9049.34464033 0 -1742.37425044 0 -4793.41978816 0 3009
0.05450000 0.05448610 38926.30802543 0 1483.32613898 0 9816.34672517 0 -1854.75834735 0 -4210.61689901 0 3336
0.05550000 0.05550870 37711.34182308 0 2242.34507762 0 11600.91760549 0 -2217.91952907 0 2097.55228597 0 3349
0.05650000 0.05647670 36750.48547531 0 942.97343595 0 14100.05204031 0 -49.84926718 0 -4.50469785 0 3324
0.05750000 0.05747970 36160.77345547 0 -693.05113461 0 13774.74713713 0 130.00570186 0 1447.51824052 0 3639
0.05850000 0.05849280 37414.16062494 0 -194.91056271 0 16450.26370631 0 -78.88588540 0 846.02526707 0 3846
0.05950000 0.05951020 36601.23053676 0 2146.61375724 0 15958.65248436 0 -384.46101298 0 1753.96697452 0 3787
0.06050000 0.06049470 34885.57380611 0 2342.22851981 0 15946.14075732 0 1468.61101930 0 2363.01127350 0 3930
0.06150000 0.06148310 33181.10012353 0 1620.55653278 0 12746.12816148 0 1413.08331033 0 2887.26370901 0 4083
0.06250000 0.06249100 31709.03453889 0 781.15805212 0 12994.36968392 0 3755.30075782 0 -755.50236828 0 4303
0.06350000 0.06350600 30333.07673367 0 -307.60357748 0 10318.68702987 0 2826.21090996 0 -2591.22296033 0 4470
0.06450000 0.06451750 30561.16662494 0 1054.18497366 0 10633.50644143 0 1261.17101382 0 929.86601783 0 4479
0.06550000 0.06550280 30327.65129451 0 198.98628548 0 8707.01050159 0 2520.27150290 0 2510.78252053 0 4636
0.06650000 0.06648880 29326.93457740 0 78.81657265 0 8016.63997682 0 1849.48792073 0 4836.33611916 0 4653
0.06750000 0.06749660 29859.62412443 0 -408.26983304 0 8742.24263916 0 2923.22662002 0 7432.78521681 0 5220
0.06850000 0.06852730 30056.37933646 0 102.91271954 0 8818.92956085 0 3434.35835062 0 7985.22779131 0 5029
0.06950000 0.06949320 30190.46519001 0 976.54251033 0 6689.57755801 0 1051.19766042 0 8227.66741554 0 5040
0.07050000 0.07048030 28712.86344296 0 485.33099931 0 6235.30221535 0 768.57767666 0 6765.65550184 0 5475
0.07150000 0.07148790 28890.79570280 0 432.56140646 0 6742.27075182 0 -2202.76151640 0 5577.08572185 0 5509
0.07250000 0.07249820 27519.59899726 0 597.08397371 0 5575.73489823 0 -1189.03481762 0 3086.42161552 0 5916
0.07350000 0.07351270 27365.25078928 0 825.54368062 0 6428.96824875 0 -1844.61609781 0 2299.12395929 0 5721
0.07450000 0.07449140 26398.96900236 0 958.61752368 0 6475.84847203 0 -1593.97188089 0 1015.00665952 0 6028
0.07550000 0.07549160 25962.94085100 0 804.01575947 0 7556.60702526 0 494.15232049 0 -818.22930284 0 6183
0.07650000 0.07648840 25536.65634548 0 157.76180571 0 7312.42904603 0 -299.68907970 0 -725.41996898 0 6330
0.07750000 0.07749960 25746.47690080 0 156.23493212 0 7282.68878157 0 -71.07336373 0 -1061.05645844 0 6583
0.07850000 0.07848650 25682.03597035 0 -34.46017509 0 7660.81974645 0 453.95535247 0 -1176.05805294 0 6549
0.07950000 0.07947320 25367.47122226 0 149.20622033 0 7862.41356442 0 258.83441559 0 715.82358506 0 6828
0.08050000 0.08048110 26036.90398079 0 265.67821956 0 7511.05548095 0 652.80766282 0 381.67743052 0 7147
0.08150000 0.08149960 25618.92371889 0 40.15068570 0 7529.59055270 0 501.07030904 0 580.62164116 0 7386
0.08250000 0.08250610 25720.01404448 0 513.81344767 0 7521.40810466 0 238.07712825 0 281.29684095 0 7227
0.08350000 0.08350160 25085.12693938 0 392.20721142 0 7892.61886653 0 -437.51184288 0 890.08647645 0 7798
0.08450000 0.08449610 24388.67770829 0 937.99199701 0 8072.67701273 0 187.00492279 0 124.94011325 0 7371
0.08550000 0.08548940 23702.52573928 0 773.98097117 0 8306.42486197 0 95.51618511 0 1376.27890263 0 8256
0.08650000 0.08650700 23281.33450317 0 403.26624945 0 7910.23493531 0 1503.30061295 0 121.73467522 0 8037
0.08750000 0.08749060 22539.37801708 0 195.21172995 0 7499.67313104 0 1208.38924141 0 348.86459592 0 8155
0.08850000 0.08849210 22127.81970357 0 805.39204945 0 5901.85915343 0 692.06901939 0 -1202.02265464 0 8718
0.08950000 0.08949900 21169.39926727 0 915.72665903 0 6572.52094002 0 -393.78833941 0 -50.21875066 0 8571
0.09050000 0.09049190 20441.61535694 0 841.75467139 0 5288.74023893 0 598.73153564 0 393.67208000 0 8932
0.09150000 0.09150830 20209.09653575 0 111.30122354 0 6008.41920749 0 -32.28379892 0 650.63416546 0 9285
0.09250000 0.09250820 19505.11812378 0 206.74466348 0 5141.64440371 0 967.37241092 0 948.07445599 0 9204
0.09350000 0.09350330 19937.16023820 0 409.10357910 0 6367.74936483 0 732.21173302 0 708.65204028 0 9349
0.09450000 0.09448040 19393.95198260 0 547.87634775 0 6177.75934326 0 -333.00238339 0 572.21553216 0 9564
0.09550000 0.09549270 18576.15007149 0 1165.18502997 0 7342.94437323 0 -818.06211074 0 1288.53072845 0 10155
0.09650000 0.09649430 18136.24660645 0 654.66116999 0 7105.75303096 0 -660.66126281 0 2166.05675962 0 9913
0.09750000 0.09749140 17800.97661094 0 63.65889214 0 7969.79297051 0 305.65152662 0 2403.27024654 0 10476
0.09850000 0.09850240 17907.93526869 0 -345.18415515 0 7487.65965861 0 306.50409563 0 1309.87817070 0 10575
0.09950000 0.09950330 18160.49499780 0 -12.05820462 0 7293.51751524 0 1367.19959628 0 1134.41503929 0 10882
0.10050000 0.10051200 18081.54932184 0 426.17046057 0 6200.85621284 0 686.29037307 0 435.93735829 0 10875
0.10150000 0.10150300 17595.14209256 0 193.85094123 0 5773.81878923 0 201.71229185 0 538.97862752 0 11118
0.10250000 0.10250800 17521.62185576 0 98.42366688 0 6000.52463989 0 -361.86904142 0 -387.85910947 0 11575
0.10350000 0.10349800 17120.13935784 0 150.80395680 0 6387.57989858 0 -584.07067035 0 -82.88974878 0 11364
0.10450000 0.10450100 17284.78482789 0 682.48370780 0 6753.87454823 0 -745.84508657 0 -1368.15181622 0 12093
0.10550000 0.10551000 16667.72416575 0 242.47616290 0 6956.64203263 0 -741.28882491 0 -392.28471770 0 12067
0.10650000 0.10649700 16577.48471848 0 7.65684478 0 7237.49155166 0 505.21025129 0 -735.57993423 0 12054
0.10750000 0.10749900 16402.09909335 0 263.35635304 0 7184.16723533 0 1056.24885500 0 -642.08190177 0 12807
0.10850000 0.10850100 16234.90698859 0 511.75731696 0 7581.55297307 0 748.75600077 0 -1161.09934211 0 12736
0.10950000 0.10950300 15341.25965248 0 830.17523409 0 6434.08366282 0 201.30372306 0 252.77231775 0 12933
0.11050000 0.11050200 14943.87391473 0 628.35332623 0 6655.43050827 0 -0.30201095 0 1053.81737247 0 13428
0.11150000 0.11150900 14669.28025923 0 35.63937768 0 6105.75601497 0 565.66625203 0 569.36440852 0 13453
0.11250000 0.11250000 14747.89376544 0 -153.20332959 0 6443.81623633 0 205.37833860 0 977.78261071 0 13668
0.11350000 0.11349100 14856.73471841 0 -59.17958314 0 5853.69454047 0 703.86215256 0 65.44330801 0 13791
0.11450000 0.11448600 14901.90980367 0 -136.14087704 0 6005.08643772 0 -65.62921234 0 446.17593705 0 14205
0.11550000 0.11549300 15167.53487607 0 22.44415602 0 5918.62265321 0 194.89506146 0 133.80240204 0 14776
0.11650000 0.11649800 14902.57414316 0 10.22389686 0 5904.17326932 0 326.70665949 0 1006.56844078 0 14553
0.11750000 0.11747300 15073.19866862 0 73.36267761 0 5430.96425122 0 1133.17493891 0 981.46526595 0 14568
0.11850000 0.11849100 14911.65344951 0 114.85986874 0 5389.42088850 0 1106.47292038 0 997.57439133 0 16015
0.11950000 0.11950300 14703.49374292 0 358.62485025 0 4794.43844205 0 638.86317694 0 1707.25283611 0 15270
0.12050000 0.12050700 14282.52395332 0 547.71247734 0 5074.36895811 0 252.59073162 0 2167.16399210 0 15999
0.12150000 0.12150000 13956.11181766 0 559.59086740 0 5199.29799904 0 -66.88669627 0 2489.55687385 0 15670
0.12250000 0.12250700 13524.18042649 0 194.45106123 0 4953.61418364 0 -339.76425215 0 2316.90611295 0 16887
0.12350000 0.12352200 13665.57401442 0 -265.86977078 0 5278.85265286 0 -67.06152828 0 1405.91951617 0 16407
0.12450000 0.12449800 13669.11715836 0 -112.72733898 0 4947.18116292 0 20.80578412 0 563.12183179 0 16306
0.12550000 0.12549900 13846.93869495 0 162.35792775 0 4982.87833814 0 -27.41939446 0 467.16574321 0 17523
0.12650000 0.12650100 13470.92254411 0 251.78798807 0 4158.47732144 0 -84.63330777 0 281.83274147 0 17154
0.12750000 0.12750600 13354.44168702 0 387.57676518 0 4345.27851345 0 623.22351814 0 -361.40732548 0 18007
0.12850000 0.12850300 12733.39498794 0 477.78410271 0 4015.40074013 0 614.26157843 0 -437.01358827 0 17496
0.12950000 0.12949900 12588.12608632 0 150.90360772 0 3864.44066355 0 262.87027798 0 -15.73100549 0 18405
0.13050000 0.13049000 12303.78878498 0 -39.83457083 0 3823.37341080 0 657.97954574 0 269.00545317 0 18100
0.13150000 0.13148800 12575.06074303 0 -112.27558813 0 3992.81319750 0 57.17826043 0 -21.16618829 0 19059
0.13250000 0.13249300 12737.38102487 0 117.06547584 0 3819.39844619 0 305.89401053 0 687.60244356 0 18957
0.13350000 0.13349100 12534.09314120 0 102.21881694 0 3741.20568832 0 -227.96809569 0 827.76146728 0 19468
0.13450000 0.13450700 12544.16895679 0 173.63730504 0 3838.49820650 0 -173.62401825 0 985.33172177 0 19953
0.13550000 0.13551000 12389.26713258 0 91.56735119 0 4026.25161845 0 20.16414290 0 614.35126426 0 19956
0.13650000 0.13649900 12228.38625296 0 221.22394264 0 4253.87647208 0 8.38651099 0 591.63196096 0 19723
0.13750000 0.13749600 12037.61009634 0 331.65931039 0 3867.23088941 0 330.70598322 0 614.12206714 0 20946
0.13850000 0.13851100 11703.89022630 0 219.29625089 0 3605.56970929 0 475.35262018 0 259.15883471 0 20955
0.13950000 0.13949800 11526.51158271 0 218.27759701 0 3550.85028004 0 146.89099721 0 1095.68293985 0 20506
0.14050000 0.14048300 11419.66364821 0 267.30252961 0 3520.66712258 0 252.95722557 0 333.36998457 0 21447
0.14150000 0.14148400 11213.60768333 0 95.19398046 0 3505.14372319 0 295.19260860 0 880.70711010 0 21771
0.14250000 0.14249400 11199.87800056 0 159.89654994 0 3413.63095856 0 157.45953125 0 904.99425459 0 22470
0.14350000 0.14350900 11036.14046114 0 209.31455007 0 3464.76295458 0 197.80265396 0 1050.16793421 0 22519
0.14450000 0.14449900 10782.03060655 0 264.53998457 0 3752.07871129 0 -58.06714666 0 802.80666160 0 22218
0.14550000 0.14550500 10632.83102962 0 252.14673140 0 3581.47633049 0 59.14536965 0 1033.19738196 0 23559
0.14650000 0.14650700 10440.78155564 0 114.10362895 0 3562.07761741 0 85.08727309 0 1157.93265721 0 23044
0.14750000 0.14750500 10323.61421441 0 224.09167477 0 3645.60723584 0 -4.31553825 0 1095.40170280 0 23649
0.14850000 0.14849900 10354.50600065 0 -28.04863468 0 3304.38032958 0 205.19564524 0 1258.36971564 0 23640
0.14950000 0.14949500 10345.20524781 0 -4.65754022 0 3369.30844231 0 -16.43941283 0 683.48243150 0 24457
0.15050000 0.15050000 10356.63188702 0 32.44047232 0 3103.05224740 0 49.68993643 0 1004.21003559 0 24591
0.15150000 0.15149900 10179.27538807 0 157.37759604 0 3611.17230565 0 -195.44867770 0 239.29176228 0 25020
0.15250000 0.15250500 9979.89603506 0 305.64377599 0 3224.92532668 0 203.78281659 0 452.98320235 0 25297
0.15350000 0.15350100 9953.27816620 0 223.10513063 0 3325.49525301 0 113.28095522 0 876.40108298 0 25452
0.15450000 0.15450400 9559.18090893 0 107.13625784 0 3387.52241664 0 135.07239770 0 552.47468424 0 26061
0.15550000 0.15549900 9772.05742589 0 173.66941478 0 3514.47769301 0 330.23873111 0 959.76240207 0 26128
0.15650000 0.15649500 9478.48580565 0 127.45463822 0 3427.61530481 0 33.00626811 0 1510.94051708 0 26331
0.15750000 0.15749700 9300.90786021 0 241.32242665 0 3140.06702927 0 245.81114714 0 1302.96904001 0 27345
0.15850000 0.15849900 9281.98525710 0 122.97477560 0 3256.43716311 0 372.17626859 0 1380.09885470 0 26980
0.15950000 0.15949700 9059.15472012 0 69.30732793 0 3035.33390881 0 264.16795445 0 1466.67336245 0 27777
0.16050000 0.16050000 8974.32963968 0 76.81857164 0 2899.64256816 0 74.48120387 0 1018.10580324 0 28224
0.16150000 0.16150500 8963.08015767 0 -22.54181393 0 2769.60918549 0 118.70639438 0 599.71365085 0 28075
0.16250000 0.16249700 8878.18864328 0 118.43290796 0 2610.24521437 0 -50.19527733 0 358.57834648 0 28590
0.16350000 0.16349900 8747.87845249 0 196.47729667 0 2639.06647587 0 -273.12657246 0 221.04235652 0 29163
0.16450000 0.16449100 8698.36301590 0 101.52491434 0 2554.90573493 0 -261.92470144 0 -37.24397899 0 28996
0.16550000 0.16550500 8614.09155171 0 100.50271732 0 2780.98046308 0 -47.67300174 0 -15.37525169 0 30777
0.16650000 0.16650700 8630.11320572 0 79.61521944 0 2875.80385282 0 -6.39692494 0 189.99223603 0 29211
0.16750000 0.16749900 8596.05473458 0 10.90832154 0 2640.64981832 0 140.88315376 0 99.02821582 0 30922
0.16850000 0.16850800 8598.15847630 0 56.43497526 0 2835.27914399 0 175.99571022 0 505.35751321 0 30867
0.16950000 0.16949900 8674.48001127 0 131.74294962 0 2682.18210872 0 266.80427499 0 470.57269756 0 30852
0.17050000 0.17049200 8506.63463934 0 74.35309707 0 2642.11136520 0 272.62721061 0 857.24042488 0 31257
0.17150000 0.17149500 8412.19878097 0 134.91074175 0 2571.37028193 0 264.97955586 0 924.23020449 0 32608
0.17250000 0.17250900 8228.75250337 0 120.36835034 0 2444.39286091 0 421.00300658 0 621.37776159 0 32361
0.17350000 0.17350400 8081.37986004 0 146.39606429 0 2185.71013618 0 408.76808765 0 775.23546557 0 32508
0.17450000 0.17449800 8007.95927416 0 62.09603349 0 2121.41314595 0 256.51254907 0 575.03897499 0 32791
0.17550000 0.17549800 7999.37822243 0 15.21724961 0 1874.54459180 0 113.24330932 0 749.47791635 0 33633
0.17650000 0.17650100 7958.00094458 0 -27.58846886 0 1579.40070143 0 24.64533420 0 348.41173784 0 33984
0.17750000 0.17750300 7900.33627693 0 67.23204208 0 1525.56705816 0 45.46506945 0 418.09209238 0 34069
0.17850000 0.17849800 7857.41994593 0 190.21257529 0 1571.36219361 0 -78.13296732 0 363.66165081 0 34536
