### header ###
fiducial parameters:
Omega_m = 0.31
Omega_nu = 0
Omega_de = 0.69
Omega_k = 0
H_0 = 100
w_de = -1
zeff = 0
beta = 0
fgrowth = 0
b_1 = 2
gamma = 0.55
Lx = 3500 Ly = 3500 Lz = 3500
nx = 700 ny = 700 nz = 700
xoffset = -685.467585 yoffset = -31.7331281 zoffset = 572.489161
bins = 400 dk = 0.001
kx_ny = 0.628318531 ky_ny = 0.628318531 kz_ny = 0.628318531
############################
A(data) = 7.98164126 (not used)
A(ran) = 7.97216913 (used)
Ngal = 474066
weighted Ngal = 0
Nran = 23820508
weighted Nran = 0
SN(data) = 3494.61358
SN(ran) = 69.4404844
SN(data+ran) = 3564.05406
############################
13 columns: k_central k_mean P_0(k) sigma^{lin}_{P_0(k)} P^img_1(k) sigma^{lin}_{P_1(k)} P_2(k) sigma^{lin}_{P_2(k)} P^img_3(k) sigma^{lin}_{P_3(k)} P_4(k) sigma^{lin}_{P_4(k)} N_modes
### header ###
0.00050000 0 0 0 0 0 0 0 0 0 0 0 0
0.00150000 0.00179520 21829.97416595 0 -11031.96619468 0 17356.31204622 0 -80634.86983128 0 -45140.20743690 0 3
0.00250000 0.00253879 34555.50780327 0 -5250.00924671 0 -5573.36542071 0 22617.32718380 0 36417.87283776 0 6
0.00350000 0.00331552 43113.19693235 0 -10796.57964136 0 15003.99663850 0 -4710.31091807 0 36440.46038039 0 7
0.00450000 0.00420575 51485.75679046 0 -11965.08636877 0 10463.35802595 0 14849.31626078 0 28396.97001589 0 24
0.00550000 0.00557378 65422.38131645 0 -6634.11628299 0 20850.18414274 0 37076.56544122 0 -3247.44643536 0 45
0.00650000 0.00659388 64757.59893433 0 17.48375450 0 -1768.81496210 0 35140.12655369 0 49096.23837135 0 40
0.00750000 0.00754703 71542.38741346 0 -541.55626474 0 7541.46008490 0 27742.70634235 0 -4580.24431843 0 57
0.00850000 0.00846663 63046.48185686 0 4054.76285486 0 7811.25942376 0 10143.67786378 0 31588.56764486 0 75
0.00950000 0.00948925 61850.89222294 0 5732.89547670 0 14911.21055652 0 201.18082026 0 4408.40183724 0 112
0.01050000 0.01054430 54247.52676998 0 4122.59191670 0 25602.31523166 0 -8717.65100574 0 20742.11825251 0 105
0.01150000 0.01145670 60048.87135871 0 3241.16842719 0 22689.29729512 0 -8662.58833442 0 30458.41545062 0 144
0.01250000 0.01249090 54833.91709237 0 -2509.99638546 0 21621.15011987 0 15125.01714877 0 31415.50720795 0 169
0.01350000 0.01339930 64314.48449509 0 -10407.40956864 0 20792.05443745 0 20880.19014300 0 20328.12402755 0 180
0.01450000 0.01448870 79026.72537462 0 -11236.52739571 0 14858.28484389 0 11658.16152480 0 5015.06558638 0 267
0.01550000 0.01550050 75392.45619940 0 2121.41314595 0 28258.12306266 0 -1546.61554764 0 8241.95071456 0 238
0.01650000 0.01653350 78587.59697231 0 10652.93837149 0 25815.90037741 0 -13599.47223525 0 24756.27889227 0 315
0.01750000 0.01747870 69773.69424693 0 4120.73176613 0 36565.02403460 0 7303.69298175 0 29452.27329435 0 297
0.01850000 0.01844180 72311.36037211 0 1797.08260737 0 36318.33263764 0 5456.76276805 0 13263.98079325 0 388
0.01950000 0.01947590 74314.01176206 0 -3638.04483799 0 36733.76626484 0 20037.47550106 0 14055.76274103 0 399
0.02050000 0.02045430 75467.19439192 0 -4668.88935093 0 22732.59008516 0 16165.48351198 0 4522.55750613 0 462
0.02150000 0.02154770 78893.30386056 0 -2521.35659073 0 17279.58083523 0 6691.52628717 0 -1075.86901458 0 571
0.02250000 0.02255340 77238.54491641 0 -1288.04354615 0 6887.16319440 0 693.34676568 0 -10914.04593536 0 510
0.02350000 0.02348930 77658.40747353 0 4998.54567775 0 19119.69049684 0 -17851.35568886 0 1301.25282966 0 555
0.02450000 0.02439640 73222.16981169 0 13145.28547119 0 21898.62257982 0 -8266.70843285 0 3695.15588940 0 592
0.02550000 0.02547300 64501.49606128 0 6787.26867988 0 23537.99099247 0 -6838.12386777 0 -2534.37764471 0 837
0.02650000 0.02652900 60988.69028932 0 3424.96901918 0 25998.81518342 0 4131.89266955 0 4701.12088848 0 723
0.02750000 0.02749970 56937.88025441 0 3956.52918907 0 25821.76870957 0 6555.39205353 0 -4231.27785712 0 826
0.02850000 0.02848090 56906.87774492 0 2568.90115350 0 32541.45191875 0 7320.23503503 0 4746.15203351 0 831
0.02950000 0.02946900 50020.44532396 0 2651.20174388 0 26140.65166434 0 11136.65502584 0 3997.81788832 0 996
0.03050000 0.03053250 49163.33665975 0 1037.08598244 0 23122.22519553 0 12569.30313413 0 9743.83406993 0 1041
0.03150000 0.03150510 50197.71324431 0 -1750.74492800 0 16477.61234861 0 10932.58100711 0 9622.83570431 0 1036
0.03250000 0.03246190 50076.36056430 0 -1257.43964035 0 17301.83620811 0 4746.81637300 0 4458.54839635 0 1059
0.03350000 0.03345080 50094.29773051 0 1891.10878973 0 15909.04846918 0 -782.27746416 0 12350.18182597 0 1302
0.03450000 0.03451200 50308.87938549 0 -429.17106060 0 15761.89727234 0 -6888.64688592 0 9899.26736573 0 1339
0.03550000 0.03553350 50873.34650475 0 -628.23042342 0 19597.68275926 0 -1885.26260222 0 9589.89553798 0 1365
0.03650000 0.03647120 51086.04586451 0 2225.19404648 0 22144.31746755 0 -1553.10392999 0 4384.60741121 0 1308
0.03750000 0.03744890 50011.91963385 0 3718.56278407 0 23311.78339643 0 3486.21004775 0 9175.27019049 0 1579
0.03850000 0.03847530 45837.98534697 0 1846.62018860 0 20329.67415302 0 4028.55466202 0 5097.73156348 0 1662
0.03950000 0.03950240 45222.36408705 0 -929.99777849 0 19289.42923631 0 4561.26635369 0 5350.73418559 0 1683
0.04050000 0.04050350 46948.31807978 0 -1952.90343454 0 17490.61934627 0 6366.17709470 0 1874.94319549 0 1822
0.04150000 0.04152450 45778.41623945 0 825.84041892 0 12225.72889500 0 3815.23525206 0 75.04998919 0 1887
0.04250000 0.04250150 45069.89817430 0 1586.35412142 0 12306.33541968 0 1511.67129052 0 2655.19885314 0 1920
0.04350000 0.04349210 44699.86107886 0 3177.52470413 0 10459.89238828 0 493.75371680 0 3589.41518738 0 2005
0.04450000 0.04448520 41649.87848432 0 1979.57666503 0 12913.20954299 0 -2010.90027194 0 10052.65228145 0 2151
0.04550000 0.04548030 39265.34261137 0 1630.10087678 0 15070.76275716 0 70.92023348 0 6470.31230962 0 2274
0.04650000 0.04648670 40283.22143195 0 1488.51905932 0 16789.63046200 0 -5622.23866246 0 5626.62330309 0 2311
0.04750000 0.04749250 39418.80503336 0 409.12018758 0 20699.37907871 0 -5063.42950119 0 5287.56657249 0 2568
0.04850000 0.04851840 40791.10897138 0 -649.90560649 0 22952.15428632 0 -2901.04875341 0 -273.21625829 0 2493
0.04950000 0.04949480 42138.61090181 0 -883.99116164 0 24698.92424971 0 -3992.69140193 0 -1429.49249571 0 2644
0.05050000 0.05050630 42839.71050933 0 1537.18192690 0 24236.65468853 0 657.42925120 0 -6368.98946521 0 2829
0.05150000 0.05149060 40806.83167262 0 -732.48189775 0 21717.36862254 0 2133.52626930 0 -8010.06301588 0 2784
0.05250000 0.05249300 40475.32626755 0 1480.30339430 0 20755.29431905 0 4657.04196337 0 -10829.05477006 0 3055
0.05350000 0.05348950 38308.58302379 0 1803.41597716 0 18494.65776083 0 4235.34140033 0 -10058.66455382 0 3009
0.05450000 0.05448610 36986.32599395 0 1464.25959564 0 16555.78296183 0 6248.91010255 0 -10686.66467289 0 3336
0.05550000 0.05550870 35101.26269358 0 1404.28081210 0 14350.39730445 0 2416.73419352 0 -6274.11071384 0 3349
0.05650000 0.05647670 33538.29332218 0 1306.10250793 0 12208.45606829 0 1812.51742816 0 -6647.45843440 0 3324
0.05750000 0.05747970 33727.40863008 0 1192.27900880 0 12019.78365338 0 -625.27854162 0 -3406.62217695 0 3639
0.05850000 0.05849280 32459.73816159 0 439.15054696 0 13986.33926442 0 -442.22422433 0 -3150.14284485 0 3846
0.05950000 0.05951020 31206.01882238 0 605.56758898 0 11761.68776186 0 1200.71612031 0 -1611.67652828 0 3787
0.06050000 0.06049470 31440.19849229 0 961.55501146 0 12828.06336514 0 2809.43633786 0 581.29040958 0 3930
0.06150000 0.06148310 31433.11220441 0 -200.33600187 0 11810.84888405 0 2333.61425110 0 1251.12841521 0 4083
0.06250000 0.06249100 31568.96962993 0 -335.57891337 0 10157.08644914 0 4093.16167733 0 515.41450584 0 4303
0.06350000 0.06350600 31566.53371847 0 -716.02731584 0 9035.86962103 0 2068.13311893 0 1809.61647906 0 4470
0.06450000 0.06451750 31632.08188140 0 937.03534815 0 10539.98958602 0 -214.06789911 0 3009.53539198 0 4479
0.06550000 0.06550280 30869.08797815 0 1251.42736798 0 8980.72944343 0 1622.62705752 0 2373.91751344 0 4636
0.06650000 0.06648880 29221.30459863 0 1292.07387239 0 9197.52556338 0 30.41944087 0 3586.74675710 0 4653
0.06750000 0.06749660 29061.53095150 0 49.70377683 0 9017.36776625 0 342.77592450 0 3694.56905619 0 5220
0.06850000 0.06852730 29324.49866594 0 -320.79625251 0 9161.40763982 0 1337.61434437 0 2876.49033696 0 5029
0.06950000 0.06949320 29142.58036917 0 56.40341914 0 9451.05965708 0 -636.74504121 0 1753.24727341 0 5040
0.07050000 0.07048030 29456.59150103 0 746.70097728 0 9304.70566762 0 -761.65968811 0 1952.33874597 0 5475
0.07150000 0.07148790 28613.98758233 0 1070.90307690 0 10723.83446730 0 -769.77127327 0 2699.54351403 0 5509
0.07250000 0.07249820 28054.61373249 0 662.12834585 0 10773.85923083 0 -567.38578408 0 3391.16521151 0 5916
0.07350000 0.07351270 27625.00752953 0 346.75642528 0 10892.97530123 0 566.06153403 0 3292.03468740 0 5721
0.07450000 0.07449140 28242.95397766 0 -14.52655799 0 12144.67947733 0 2165.54743268 0 2654.18019925 0 6028
0.07550000 0.07549160 27348.75302530 0 83.41900591 0 10972.51888273 0 458.99104580 0 3613.05460087 0 6183
0.07650000 0.07648840 27329.37645687 0 398.51954380 0 11263.43314502 0 1226.16032274 0 2194.04759676 0 6330
0.07750000 0.07749960 27196.39783580 0 113.35624703 0 9720.68183873 0 -466.18362800 0 1936.31709196 0 6583
0.07850000 0.07848650 26845.18369255 0 1160.12497752 0 10355.84575196 0 -184.14715576 0 666.94369992 0 6549
0.07950000 0.07947320 25370.68219645 0 1509.00286023 0 10585.77364914 0 -1446.38886338 0 1414.57807418 0 6828
0.08050000 0.08048110 24801.45397753 0 828.20878920 0 10423.76339239 0 905.30760138 0 1021.46293212 0 7147
0.08150000 0.08149960 24074.88802293 0 108.05149621 0 9778.59009754 0 875.57398031 0 382.44917156 0 7386
0.08250000 0.08250610 23700.97561380 0 343.46351587 0 9324.89051577 0 1541.73265240 0 -772.36109005 0 7227
0.08350000 0.08350160 23310.34399420 0 804.59705653 0 8347.12672801 0 1642.39115732 0 -503.38774663 0 7798
0.08450000 0.08449610 21880.24252062 0 738.70786600 0 7916.16970142 0 1561.90642822 0 1567.14363786 0 7371
0.08550000 0.08548940 21996.16976147 0 196.60130671 0 7164.97889642 0 821.48013741 0 1138.39000390 0 8256
0.08650000 0.08650700 22252.16191128 0 -127.01063799 0 7210.92904442 0 231.12813719 0 1467.39306357 0 8037
0.08750000 0.08749060 21856.43702226 0 377.46773262 0 7287.29486869 0 1.88282669 0 1145.91918478 0 8155
0.08850000 0.08849210 21545.30469486 0 708.73729718 0 7888.90963771 0 -1131.07119720 0 1290.67875946 0 8718
0.08950000 0.08949900 20899.89888118 0 822.30724007 0 8345.28872209 0 -691.94833105 0 999.08465643 0 8571
0.09050000 0.09049190 20574.37253151 0 968.34677550 0 8963.17980859 0 -172.13368333 0 1789.89666856 0 8932
0.09150000 0.09150830 19772.18259840 0 420.25673189 0 9480.24630530 0 116.33470240 0 974.73882862 0 9285
0.09250000 0.09250820 19613.29473725 0 135.43003379 0 9357.54280166 0 1097.99705573 0 1459.54278527 0 9204
0.09350000 0.09350330 19507.99692823 0 154.40799853 0 9368.00614861 0 559.72816423 0 387.66866548 0 9349
0.09450000 0.09448040 19433.25873570 0 139.67294866 0 8816.71509589 0 477.36224714 0 817.57714291 0 9564
0.09550000 0.09549270 19107.84310928 0 178.97527283 0 8733.08582654 0 528.61825319 0 496.63362849 0 10155
0.09650000 0.09649430 19322.20331777 0 61.38364012 0 9090.48939936 0 -116.65801429 0 376.18555741 0 9913
0.09750000 0.09749140 18833.13873053 0 357.30724360 0 8504.58625925 0 156.90812947 0 689.81801576 0 10476
0.09850000 0.09850240 18574.37849952 0 694.04100044 0 8422.73963419 0 1043.90653453 0 827.65517296 0 10575
0.09950000 0.09950330 17898.19162285 0 311.59404335 0 7669.76618490 0 1355.02003898 0 1595.05696872 0 10882
0.10050000 0.10051200 17818.13871441 0 150.79067001 0 7074.37406243 0 1341.02462041 0 1321.63697965 0 10875
0.10150000 0.10150300 17292.53545527 0 140.22324320 0 6404.64235112 0 1539.27459629 0 1708.39328557 0 11118
0.10250000 0.10250800 17107.18473780 0 197.57234960 0 6010.99905917 0 835.34711701 0 1129.79787985 0 11575
0.10350000 0.10349800 16931.24549643 0 182.81736955 0 5430.80923867 0 10.47185050 0 1965.50374018 0 11364
0.10450000 0.10450100 16792.84143620 0 248.70102391 0 5754.90725844 0 399.48505053 0 1940.76816654 0 12093
0.10550000 0.10551000 16570.28770735 0 146.91867802 0 4985.10387542 0 672.69245096 0 1811.47662963 0 12067
0.10650000 0.10649700 16123.96229391 0 590.97537210 0 5235.63736910 0 125.00322551 0 816.89065877 0 12054
0.10750000 0.10749900 15663.68575119 0 723.24204269 0 4659.75468295 0 107.35128239 0 683.76920471 0 12807
0.10850000 0.10850100 15297.52396944 0 409.92182390 0 5158.04251677 0 -260.26053102 0 1022.71964099 0 12736
0.10950000 0.10950300 15019.94078624 0 349.85556899 0 4607.80333490 0 -251.84556416 0 1224.33338915 0 12933
0.11050000 0.11050200 14843.33720538 0 84.89992935 0 5166.18067551 0 215.37221898 0 989.15278107 0 13428
0.11150000 0.11150900 14672.71267993 0 271.09922979 0 4985.73499794 0 -55.14792822 0 178.62095844 0 13453
0.11250000 0.11250000 14623.99445072 0 68.70587924 0 5063.40735654 0 88.16870108 0 442.31391016 0 13668
0.11350000 0.11349100 14442.18687720 0 -61.84159147 0 4974.28621408 0 240.19304952 0 158.18366129 0 13791
0.11450000 0.11448600 14745.67930048 0 159.13034506 0 5028.59596731 0 71.86891027 0 201.87284056 0 14205
0.11550000 0.11549300 14407.30905402 0 105.57450642 0 5328.68918687 0 -173.80338991 0 315.97646951 0 14776
0.11650000 0.11649800 14305.33294244 0 301.13844702 0 4935.54414954 0 374.45938197 0 641.03335261 0 14553
0.11750000 0.11747300 14363.90554073 0 66.21515977 0 5034.53073341 0 497.85158422 0 1259.74268392 0 14568
0.11850000 0.11849100 14217.08651364 0 -176.44413938 0 4822.70608731 0 656.90995917 0 755.97404932 0 16015
0.11950000 0.11950300 14291.16036667 0 153.75140966 0 4436.44803601 0 503.93139777 0 678.65157618 0 15270
0.12050000 0.12050700 14350.17585796 0 212.40372869 0 4582.91274871 0 109.08830870 0 786.06752094 0 15999
0.12150000 0.12150000 13768.10374224 0 270.05289509 0 4622.28593577 0 257.14477882 0 752.47298021 0 15670
0.12250000 0.12250700 13856.46089429 0 50.40775525 0 4386.24611528 0 -182.35011744 0 546.58199298 0 16887
0.12350000 0.12352200 13632.68920971 0 -2.26257422 0 4174.28860128 0 83.07919626 0 390.17433259 0 16407
0.12450000 0.12449800 13787.03741768 0 187.92171129 0 4501.56437827 0 -25.63497859 0 241.62802282 0 16306
0.12550000 0.12549900 13648.19046446 0 59.33758521 0 3929.86703091 0 -47.38644997 0 506.16357846 0 17523
0.12650000 0.12650100 13501.37143736 0 353.64341131 0 4216.73989463 0 -16.94785398 0 331.95494146 0 17154
0.12750000 0.12750600 13206.51542744 0 320.11309006 0 4020.62687745 0 -10.84013817 0 721.13055035 0 18007
0.12850000 0.12850300 13108.74679929 0 255.05875282 0 4064.44006675 0 559.92303715 0 462.30167092 0 17496
0.12950000 0.12949900 12843.56461989 0 111.40419616 0 4147.38285197 0 -56.36145502 0 241.04672577 0 18405
0.13050000 0.13049000 12884.08932872 0 86.19085170 0 4189.66806045 0 294.06212423 0 140.05937279 0 18100
0.13150000 0.13148800 12651.34906103 0 184.24459221 0 4032.74000080 0 -95.53976916 0 -86.06662022 0 19059
0.13250000 0.13249300 12597.31611592 0 158.76717281 0 3739.54483960 0 190.43734349 0 63.49081425 0 18957
0.13350000 0.13349100 12535.64326668 0 -93.63610436 0 3636.69401436 0 317.57309875 0 14.78210725 0 19468
0.13450000 0.13450700 12216.98175840 0 137.48395004 0 3234.49181532 0 558.69068740 0 -620.29045929 0 19953
0.13550000 0.13551000 12265.36781786 0 318.85859566 0 3173.48330557 0 625.25196804 0 -574.47539366 0 19956
0.13650000 0.13649900 11940.06291468 0 252.16223265 0 2902.55458958 0 29.07437485 0 -307.23376184 0 19723
0.13750000 0.13749600 11736.44286127 0 187.03592530 0 2885.30390752 0 3.54315501 0 -212.78793836 0 20946
0.13850000 0.13851100 11616.30813699 0 158.67084358 0 2935.11829688 0 -278.46675472 0 62.23687347 0 20955
0.13950000 0.13949800 11736.77503101 0 30.49495412 0 3355.61197651 0 -362.54223877 0 56.32358767 0 20506
0.14050000 0.14048300 11510.56743497 0 105.32449333 0 3280.38660170 0 108.77407613 0 -92.93212594 0 21447
0.14150000 0.14148400 11656.94356907 0 144.12623770 0 3208.60471990 0 43.39078012 0 -257.79361706 0 21771
0.14250000 0.14249400 11492.74099201 0 48.55768049 0 3435.46558311 0 56.29701409 0 -275.85811500 0 22470
0.14350000 0.14350900 11472.25719110 0 151.52255068 0 3397.96361894 0 228.85055998 0 -673.06337384 0 22519
0.14450000 0.14449900 11222.68698968 0 245.98055371 0 3148.49306846 0 229.28570234 0 -475.44562771 0 22218
0.14550000 0.14550500 11119.16075263 0 299.85073565 0 3390.97698198 0 127.18225903 0 -269.59450085 0 23559
0.14650000 0.14650700 10695.20143532 0 264.28421386 0 3068.49552164 0 139.84567692 0 429.15002318 0 23044
0.14750000 0.14750500 10724.04484148 0 209.61461007 0 3263.71168052 0 611.26208564 0 609.16166562 0 23649
0.14850000 0.14849900 10446.16270550 0 29.50099152 0 2948.78154570 0 366.30129305 0 880.99941947 0 23640
0.14950000 0.14949500 10406.90024170 0 4.57682297 0 2801.78536141 0 551.34198541 0 617.72832333 0 24457
0.15050000 0.15050000 10602.17176220 0 4.75233039 0 2849.93890205 0 42.25785984 0 927.21198157 0 24591
0.15150000 0.15149900 10454.44480447 0 181.61602230 0 3006.51264731 0 -235.25589989 0 623.81035135 0 25020
0.15250000 0.15250500 10309.46378329 0 316.13812545 0 3282.61213898 0 -516.16520947 0 950.16491092 0 25297
0.15350000 0.15350100 10026.78733067 0 371.28937538 0 3427.39385831 0 -460.69507659 0 806.94992555 0 25452
0.15450000 0.15450400 9857.73507534 0 269.93442122 0 3653.28035694 0 -85.55596460 0 782.93737472 0 26061
0.15550000 0.15549900 9633.07760477 0 14.00660162 0 3773.73617864 0 354.98316262 0 1256.33240787 0 26128
0.15650000 0.15649500 9813.96617533 0 178.59881379 0 3783.86735585 0 255.99657874 0 1015.48387672 0 26331
0.15750000 0.15749700 9554.74090668 0 156.79740622 0 3661.76175775 0 285.19651375 0 1501.23008821 0 27345
0.15850000 0.15849900 9360.69841423 0 241.97347935 0 3563.78275543 0 380.21477641 0 1196.09896086 0 26980
0.15950000 0.15949700 9351.19835954 0 -14.30931898 0 3253.79087748 0 102.60789843 0 1225.88351462 0 27777
0.16050000 0.16050000 9152.32833347 0 43.69925508 0 3436.71675581 0 375.67512324 0 1004.73264932 0 28224
0.16150000 0.16150500 9122.59914133 0 234.87169022 0 3214.96023434 0 -191.07621663 0 815.20766540 0 28075
0.16250000 0.16249700 8918.03794031 0 160.53874478 0 2816.30117925 0 169.81070958 0 848.99929351 0 28590
0.16350000 0.16349900 8784.18460557 0 118.88465881 0 2662.03047755 0 289.19473024 0 698.53525709 0 29163
0.16450000 0.16449100 8722.82178143 0 87.19112553 0 2409.64790563 0 359.24600767 0 190.91788238 0 28996
0.16550000 0.16550500 8566.69092916 0 86.58569081 0 2363.77526391 0 205.87548598 0 187.05917718 0 30777
0.16650000 0.16650700 8503.22436330 0 165.47478718 0 2304.81513425 0 -61.61571604 0 281.41642206 0 29211
0.16750000 0.16749900 8497.76570717 0 194.04359968 0 2381.57956222 0 -64.50382125 0 450.76541569 0 30922
0.16850000 0.16850800 8242.24966733 0 155.99576990 0 2401.12221552 0 -258.77794673 0 409.30177371 0 30867
0.16950000 0.16949900 8150.93620455 0 177.86804035 0 2579.79632112 0 109.73127861 0 389.42805789 0 30852
0.17050000 0.17049200 8118.07354448 0 53.73775694 0 2844.10378687 0 -122.92716460 0 461.50114184 0 31257
0.17150000 0.17149500 8094.71093912 0 8.88758905 0 2562.01416746 0 96.65829542 0 460.94088220 0 32608
0.17250000 0.17250900 8168.80693680 0 9.91764742 0 2881.60575103 0 50.65776834 0 300.24823211 0 32361
0.17350000 0.17350400 8054.26373655 0 74.51508518 0 2487.25383029 0 73.98239563 0 329.34187280 0 32508
0.17450000 0.17449800 8080.57158032 0 -12.05333280 0 2604.16650805 0 261.82837222 0 447.22780791 0 32791
0.17550000 0.17549800 8061.66004953 0 2.88566929 0 2221.82805973 0 301.79946481 0 273.42109630 0 33633
0.17650000 0.17650100 8061.81506208 0 -19.54818947 0 2033.31065737 0 249.38529359 0 -89.29409218 0 33984
0.17750000 0.17750300 7989.59028729 0 93.22720340 0 1938.22153183 0 164.34098112 0 -77.61544685 0 34069
0.17850000 0.17849800 7831.80965862 0 198.89217072 0 1883.03706493 0 -62.10710582 0 -57.61196339 0 34536
