### header ###
fiducial parameters:
Omega_m = 0.31
Omega_nu = 0
Omega_de = 0.69
Omega_k = 0
H_0 = 100
w_de = -1
zeff = 0
beta = 0
fgrowth = 0
b_1 = 2
gamma = 0.55
Lx = 3500 Ly = 3500 Lz = 3500
nx = 700 ny = 700 nz = 700
xoffset = -685.467585 yoffset = -31.7331281 zoffset = 572.489161
bins = 400 dk = 0.001
kx_ny = 0.628318531 ky_ny = 0.628318531 kz_ny = 0.628318531
############################
A(data) = 7.99812737 (not used)
A(ran) = 7.98682184 (used)
Ngal = 475240
weighted Ngal = 0
Nran = 23820508
weighted Nran = 0
SN(data) = 3498.2617
SN(ran) = 69.5681148
SN(data+ran) = 3567.82982
############################
13 columns: k_central k_mean P_0(k) sigma^{lin}_{P_0(k)} P^img_1(k) sigma^{lin}_{P_1(k)} P_2(k) sigma^{lin}_{P_2(k)} P^img_3(k) sigma^{lin}_{P_3(k)} P_4(k) sigma^{lin}_{P_4(k)} N_modes
### header ###
0.00050000 0 0 0 0 0 0 0 0 0 0 0 0
0.00150000 0.00179520 61310.00915555 0 -26582.76959435 0 72270.06060054 0 23813.13826421 0 -127139.07696259 0 3
0.00250000 0.00253879 103532.43755624 0 -14749.11172117 0 37662.84504037 0 -6799.26000766 0 102962.76644432 0 6
0.00350000 0.00331552 86059.09103669 0 11747.51518609 0 9254.66983177 0 -19698.88380810 0 -5617.77651556 0 7
0.00450000 0.00420575 64057.16366631 0 26154.71351686 0 -18831.36715856 0 9297.17648675 0 36500.36165766 0 24
0.00550000 0.00557378 56523.88602944 0 -2957.22972954 0 -9657.43671937 0 13088.04155188 0 -22801.45994553 0 45
0.00650000 0.00659388 73961.91183283 0 -23116.68903312 0 -12029.63802247 0 -5747.45558384 0 -3694.96765988 0 40
0.00750000 0.00754703 63633.86868849 0 310.50563382 0 -3774.78804950 0 1680.63496725 0 -7173.10598284 0 57
0.00850000 0.00846663 80339.12803537 0 -1880.94439554 0 -14161.50344305 0 -20279.62724484 0 -7706.18306123 0 75
0.00950000 0.00948925 68833.87531632 0 -4115.93744949 0 3051.44414142 0 -12912.87737325 0 -12686.11616096 0 112
0.01050000 0.01054430 71958.15321040 0 10717.82219493 0 14347.29705351 0 -58.59673596 0 -133.32297037 0 105
0.01150000 0.01145670 60783.29866393 0 8540.43844702 0 18868.34872346 0 -13536.58143028 0 803.73895135 0 144
0.01250000 0.01249090 54605.49503137 0 9234.63999617 0 15764.99752329 0 7366.26268930 0 7882.88629301 0 169
0.01350000 0.01339930 51523.18124835 0 398.62915982 0 15077.07398230 0 5913.06434615 0 16555.89368508 0 180
0.01450000 0.01448870 50838.80085131 0 -755.13144540 0 9249.78693652 0 21658.79602425 0 431.19508157 0 267
0.01550000 0.01550050 53583.63017385 0 -6538.69498770 0 5759.33618837 0 6226.33363224 0 15851.80454986 0 238
0.01650000 0.01653350 57674.41130135 0 -7200.93073511 0 1439.90048104 0 4336.52030452 0 5982.97500505 0 315
0.01750000 0.01747870 63220.20663327 0 -1231.20930286 0 8127.54038220 0 -1953.20238731 0 16525.00189884 0 297
0.01850000 0.01844180 66582.09661795 0 3818.02547791 0 15469.25572738 0 -9870.57897213 0 3846.25990620 0 388
0.01950000 0.01947590 61170.83003258 0 598.51562530 0 19433.70162870 0 -6310.97048316 0 21374.23727641 0 399
0.02050000 0.02045430 62598.16342495 0 -1928.42252436 0 24578.90024867 0 -3134.44228826 0 15649.07028243 0 462
0.02150000 0.02154770 77720.74466226 0 -10551.11727246 0 23942.79518784 0 330.78127503 0 -849.13880481 0 571
0.02250000 0.02255340 75762.71474133 0 -2546.22503227 0 29906.34933516 0 -1679.50559012 0 -14079.12534640 0 510
0.02350000 0.02348930 80061.10195918 0 7011.99258440 0 23524.59347944 0 -7708.39752619 0 -4885.70761553 0 555
0.02450000 0.02439640 74404.80482557 0 5042.63567518 0 24886.82160188 0 -6076.61365605 0 -11172.64008150 0 592
0.02550000 0.02547300 69146.33632270 0 8902.07164792 0 24805.44001446 0 -2770.96000911 0 -16120.52987321 0 837
0.02650000 0.02652900 63073.71977592 0 8180.84255388 0 22451.79592776 0 5083.48148144 0 -23388.73605392 0 723
0.02750000 0.02749970 52751.43424048 0 3960.79203413 0 14072.70339800 0 662.25899929 0 -28680.42153124 0 826
0.02850000 0.02848090 52429.67248125 0 362.10931087 0 13639.44332785 0 7108.60969077 0 -15443.78938030 0 831
0.02950000 0.02946900 54406.08246138 0 -4060.89692281 0 12075.03455422 0 7535.19314906 0 -14467.65322428 0 996
0.03050000 0.03053250 61766.29966133 0 -6612.28165845 0 10440.00649290 0 9491.94975263 0 -14973.87991499 0 1041
0.03150000 0.03150510 60399.75333221 0 389.90859679 0 13162.89046765 0 -2069.17391746 0 -6521.80969235 0 1036
0.03250000 0.03246190 60431.86307419 0 6313.10744185 0 11421.32449693 0 -5056.28785168 0 -5319.47701262 0 1059
0.03350000 0.03345080 55684.16091520 0 3087.73922218 0 21568.88874672 0 697.47120667 0 8374.57502123 0 1302
0.03450000 0.03451200 53241.49533696 0 3626.75106667 0 18487.46074969 0 3359.81945994 0 4925.23581513 0 1339
0.03550000 0.03553350 53072.75310672 0 -11.61553307 0 23136.72994104 0 5013.24972511 0 4218.07964594 0 1365
0.03650000 0.03647120 51238.51177726 0 1403.90435306 0 22236.21776354 0 2617.26506831 0 460.71611401 0 1308
0.03750000 0.03744890 51026.69820348 0 1429.27104921 0 15016.06547255 0 202.31794802 0 5887.93016881 0 1579
0.03850000 0.03847530 50349.84698732 0 -165.04296651 0 20401.86571084 0 -3107.80227475 0 5539.73877024 0 1662
0.03950000 0.03950240 51164.99154047 0 300.07107491 0 19574.09870740 0 434.71718810 0 513.96956745 0 1683
0.04050000 0.04050350 48533.21065432 0 1515.86770162 0 19844.81704921 0 2027.82985659 0 5161.37528654 0 1822
0.04150000 0.04152450 49870.74749242 0 3384.65468451 0 21754.57163393 0 -1797.93517638 0 3016.71025846 0 1887
0.04250000 0.04250150 45638.57277699 0 2347.04498111 0 22952.92934905 0 -973.80543164 0 6551.67175239 0 1920
0.04350000 0.04349210 45737.89153061 0 3620.96024079 0 24756.38961551 0 278.51879465 0 3628.73301281 0 2005
0.04450000 0.04448520 41891.58733511 0 1631.05309671 0 24124.82420786 0 1716.02211737 0 2532.03031185 0 2151
0.04550000 0.04548030 41487.33675598 0 16.22560624 0 21071.63063912 0 5765.03843565 0 1124.56067021 0 2274
0.04650000 0.04648670 40753.90595999 0 134.63836256 0 20223.15838826 0 5748.68461189 0 -697.98164085 0 2311
0.04750000 0.04749250 40405.57062120 0 -105.34099109 0 14012.80212073 0 7496.67253101 0 -1617.55593276 0 2568
0.04850000 0.04851840 39553.55522640 0 -865.16599498 0 9142.37431346 0 5913.25257567 0 394.20687329 0 2493
0.04950000 0.04949480 39635.49043006 0 492.67970129 0 7071.08558196 0 5002.07774937 0 -1800.43752179 0 2644
0.05050000 0.05050630 39284.82990305 0 752.34343401 0 7940.04163373 0 -2360.89645946 0 -1876.95835861 0 2829
0.05150000 0.05149060 37856.05710846 0 2700.40715537 0 8185.31577311 0 -2450.57121816 0 -817.04234962 0 2784
0.05250000 0.05249300 35813.87751890 0 1862.79685516 0 10005.07450170 0 -3464.37542321 0 -310.04723957 0 3055
0.05350000 0.05348950 36263.74607629 0 -678.32383536 0 12560.66672077 0 -1322.58919959 0 2154.91800085 0 3009
0.05450000 0.05448610 36546.20108241 0 -556.44189823 0 12271.12542676 0 1088.72619816 0 -2308.40256749 0 3336
0.05550000 0.05550870 37186.07073368 0 -491.92346151 0 10973.23858384 0 1606.21787214 0 -3708.43160686 0 3349
0.05650000 0.05647670 37402.20251414 0 -943.05537115 0 10366.75199190 0 2485.60405389 0 -3441.14568574 0 3324
0.05750000 0.05747970 37843.76682791 0 -361.30213839 0 8101.69757608 0 754.83581433 0 -3849.64803760 0 3639
0.05850000 0.05849280 36561.03799767 0 2064.96643403 0 8509.60202240 0 -712.66907972 0 -4306.53644891 0 3846
0.05950000 0.05951020 35604.61057983 0 3236.07515777 0 9382.15657973 0 -2062.56373954 0 -5542.34076657 0 3787
0.06050000 0.06049470 31807.46750653 0 2891.75907289 0 12586.02234460 0 -3322.22891719 0 -1210.84729752 0 3930
0.06150000 0.06148310 30978.26110086 0 2384.10405228 0 12481.16742857 0 99.93946815 0 1602.88510237 0 4083
0.06250000 0.06249100 30370.05829857 0 234.30146549 0 15306.71399904 0 606.79218811 0 2875.25023658 0 4303
0.06350000 0.06350600 30181.27516041 0 -381.96198927 0 13976.70634183 0 2660.53571370 0 819.07855016 0 4470
0.06450000 0.06451750 29902.69546797 0 286.62927258 0 13163.11191415 0 2973.32888982 0 2332.40736770 0 4479
0.06550000 0.06550280 29949.53140196 0 416.07582204 0 12879.43895230 0 2213.76740727 0 1309.82280907 0 4636
0.06650000 0.06648880 28716.62803340 0 -31.94232842 0 10465.46176766 0 1199.05527159 0 1844.43894061 0 4653
0.06750000 0.06749660 29016.46658949 0 -142.62593769 0 9958.26071237 0 1371.83890038 0 305.41790057 0 5220
0.06850000 0.06852730 29087.55091482 0 387.63655574 0 8158.05570940 0 285.69255390 0 -144.63445741 0 5029
0.06950000 0.06949320 28603.02598076 0 798.61025050 0 8438.11909337 0 413.11840408 0 -389.08149413 0 5040
0.07050000 0.07048030 27842.35726572 0 385.01905815 0 7779.43756223 0 476.70897997 0 29.61093971 0 5475
0.07150000 0.07148790 27875.68496342 0 39.42810579 0 8053.38902289 0 156.83837382 0 -1818.79543633 0 5509
0.07250000 0.07249820 27391.82436885 0 691.86750308 0 8610.33803360 0 469.64926567 0 476.03356816 0 5916
0.07350000 0.07351270 26819.71734547 0 901.28502577 0 7772.63915479 0 -80.30646468 0 1409.86126381 0 5721
0.07450000 0.07449140 26535.71221387 0 864.14844833 0 9667.92221097 0 928.58716431 0 2545.49425883 0 6028
0.07550000 0.07549160 26030.59275564 0 248.24262967 0 9813.19111259 0 -566.79562916 0 1687.77661676 0 6183
0.07650000 0.07648840 25342.33704492 0 741.95316440 0 9237.74024712 0 719.60810568 0 2491.74919416 0 6330
0.07750000 0.07749960 25519.93713501 0 409.65498087 0 9170.49801850 0 118.23803504 0 2386.39602351 0 6583
0.07850000 0.07848650 24770.11929829 0 102.53183156 0 8865.01257675 0 204.82693682 0 2383.94903973 0 6549
0.07950000 0.07947320 24612.22794638 0 527.14674122 0 8573.93222959 0 -33.74091687 0 555.15418685 0 6828
0.08050000 0.08048110 24068.13390479 0 118.51152146 0 8868.06853840 0 387.37303441 0 425.18613090 0 7147
0.08150000 0.08149960 23996.60668646 0 626.51310584 0 8110.15683224 0 5.15759962 0 -988.32457117 0 7386
0.08250000 0.08250610 23810.70235275 0 153.12582331 0 9285.37338849 0 -1096.20333911 0 -1006.12001162 0 7227
0.08350000 0.08350160 23834.06495812 0 721.08626105 0 8858.46883278 0 -291.82662185 0 -754.14822296 0 7798
0.08450000 0.08449610 22941.08196150 0 627.18187426 0 9545.86090217 0 294.05769530 0 -337.90853051 0 7371
0.08550000 0.08548940 22556.65084379 0 1059.38121570 0 9720.34966899 0 1114.39627602 0 1203.05238085 0 8256
0.08650000 0.08650700 22112.76134181 0 563.11186670 0 9817.08857093 0 1369.07081918 0 210.23576749 0 8037
0.08750000 0.08749060 21395.05324707 0 559.47350076 0 8950.19197158 0 2013.54655757 0 951.13484657 0 8155
0.08850000 0.08849210 20484.46525398 0 565.73822214 0 7877.41656455 0 1127.31767909 0 1742.34103346 0 8718
0.08950000 0.08949900 20183.40874217 0 165.87560534 0 7373.84723180 0 1645.75714407 0 1050.61636337 0 8571
0.09050000 0.09049190 19981.00664448 0 -128.04368590 0 6620.86271018 0 348.09617658 0 1435.83693783 0 8932
0.09150000 0.09150830 19585.94609495 0 511.34431924 0 6222.96764550 0 694.39088591 0 140.84882955 0 9285
0.09250000 0.09250820 19267.06314017 0 487.64511520 0 5374.05250165 0 326.14639986 0 279.75668057 0 9204
0.09350000 0.09350330 18700.93517220 0 -294.69656844 0 5562.20451730 0 -989.14835214 0 -765.49624866 0 9349
0.09450000 0.09448040 19461.38244074 0 32.37824585 0 6534.12211755 0 -547.98264206 0 -913.76353584 0 9564
0.09550000 0.09549270 19082.81965519 0 497.14849159 0 6880.16548511 0 -1036.04518391 0 -1756.46931993 0 10155
0.09650000 0.09649430 18785.19556407 0 555.21840633 0 7272.07042207 0 -998.77241687 0 -756.02498201 0 9913
0.09750000 0.09749140 18548.02636645 0 359.42537933 0 7655.78183866 0 24.56362044 0 -1252.41280489 0 10476
0.09850000 0.09850240 18187.73291685 0 432.44514705 0 7342.84472231 0 683.80463615 0 -712.30812193 0 10575
0.09950000 0.09950330 18064.16577188 0 262.67097614 0 7094.29317478 0 1202.39911368 0 -1346.45005957 0 10882
0.10050000 0.10051200 17702.76508980 0 -146.81902710 0 5988.81012023 0 1798.92061329 0 -1256.87495179 0 10875
0.10150000 0.10150300 17317.33746286 0 184.35974439 0 5146.79303475 0 1424.38815397 0 -1408.95333317 0 11118
0.10250000 0.10250800 17306.37586129 0 433.29439436 0 4519.98872677 0 553.54648529 0 -1290.82269968 0 11575
0.10350000 0.10349800 17157.56381573 0 91.21226173 0 4255.29372965 0 159.65628049 0 -1036.21237601 0 11364
0.10450000 0.10450100 16598.07924264 0 199.22766216 0 4041.48713740 0 -29.91664660 0 -749.72150749 0 12093
0.10550000 0.10551000 16686.54711794 0 181.28828149 0 4329.89905428 0 -231.04620199 0 -1206.85018826 0 12067
0.10650000 0.10649700 16750.32370890 0 121.39807654 0 4297.66751673 0 -843.73661753 0 -1491.44215307 0 12054
0.10750000 0.10749900 16535.40988417 0 302.09066696 0 4926.64200038 0 -112.86131411 0 -1696.24694524 0 12807
0.10850000 0.10850100 16012.68542948 0 404.67686363 0 5190.16333107 0 -350.46011793 0 -815.31506695 0 12736
0.10950000 0.10950300 15890.00407049 0 552.69945244 0 5229.45901185 0 697.85984527 0 -756.91076800 0 12933
0.11050000 0.11050200 15568.24231126 0 110.60012393 0 4866.98431426 0 818.83274455 0 200.62609678 0 13428
0.11150000 0.11150900 15524.50662822 0 130.59917847 0 4775.44940498 0 1035.26126331 0 423.64707775 0 13453
0.11250000 0.11250000 15201.74835976 0 204.26667718 0 4657.09732500 0 572.27864441 0 1138.17962973 0 13668
0.11350000 0.11349100 15116.27001216 0 429.13673639 0 5289.30492749 0 451.85271799 0 944.70404032 0 13791
0.11450000 0.11448600 14941.10583353 0 316.64523793 0 5020.57960414 0 -590.87904288 0 1529.26521465 0 14205
0.11550000 0.11549300 14635.73111503 0 299.74222686 0 5389.45410548 0 -351.42673188 0 1447.65110841 0 14776
0.11650000 0.11649800 14495.44475958 0 -48.56465606 0 5152.52849901 0 -223.28007336 0 1472.04343999 0 14553
0.11750000 0.11747300 14705.48676139 0 -143.76417268 0 5551.66366407 0 160.61292935 0 1280.17112321 0 14568
0.11850000 0.11849100 14739.03590559 0 -67.75321641 0 5059.60954913 0 771.65578296 0 1100.26134616 0 16015
0.11950000 0.11950300 14845.88384009 0 -33.37818751 0 4317.59770141 0 743.19326478 0 841.58415758 0 15270
0.12050000 0.12050700 14728.84936676 0 113.08608230 0 4513.87680347 0 569.64564557 0 180.48885964 0 15999
0.12150000 0.12150000 14464.22080359 0 284.74919183 0 3961.37886734 0 169.25930781 0 617.49359004 0 15670
0.12250000 0.12250700 14119.42860874 0 488.78224296 0 3870.89582892 0 494.16117835 0 1011.80897211 0 16887
0.12350000 0.12352200 13700.78400734 0 498.82816326 0 3581.89707883 0 211.11380285 0 1312.32515448 0 16407
0.12450000 0.12449800 13431.39434451 0 100.03624027 0 4034.71087462 0 422.65721191 0 542.78529279 0 16306
0.12550000 0.12549900 13190.34983321 0 279.32264543 0 3668.95876888 0 231.50681070 0 582.28138266 0 17523
0.12650000 0.12650100 13123.14082156 0 254.83730633 0 3532.50343782 0 -127.55761084 0 530.84821941 0 17154
0.12750000 0.12750600 13030.35473958 0 180.17440561 0 3664.07587364 0 -485.62663038 0 349.25655622 0 18007
0.12850000 0.12850300 12687.88773294 0 252.11794335 0 3330.18991873 0 287.12974166 0 398.96575849 0 17496
0.12950000 0.12949900 12721.10470739 0 -51.61065261 0 3082.26949372 0 227.09227480 0 347.43515879 0 18405
0.13050000 0.13049000 12531.43578325 0 159.24217554 0 2928.66313151 0 229.31670485 0 49.55884010 0 18100
0.13150000 0.13148800 12429.57039492 0 326.56604097 0 3202.59244752 0 204.69406892 0 -604.29537886 0 19059
0.13250000 0.13249300 11981.91630250 0 153.95403321 0 2837.34966873 0 252.63391369 0 -32.07718934 0 18957
0.13350000 0.13349100 12060.30836221 0 57.90726229 0 2723.79190539 0 -164.70526061 0 252.95279664 0 19468
0.13450000 0.13450700 12131.17124105 0 -135.22851748 0 3294.72526234 0 -138.43395551 0 -188.82521299 0 19953
0.13550000 0.13551000 12022.66245783 0 128.30056384 0 3373.51592575 0 -83.02660272 0 -44.62656229 0 19956
0.13650000 0.13649900 12119.54529999 0 350.14344944 0 3683.31957417 0 -704.25854179 0 162.19959350 0 19723
0.13750000 0.13749600 11929.32275961 0 306.16417526 0 4109.32727157 0 -500.93079775 0 544.05418122 0 20946
0.13850000 0.13851100 11597.04229180 0 270.38063591 0 4443.80005969 0 -71.72530222 0 555.35016700 0 20955
0.13950000 0.13949800 11687.61390882 0 125.32653739 0 4473.88356622 0 265.46673815 0 505.07295446 0 20506
0.14050000 0.14048300 11498.83077066 0 264.80904206 0 4459.82171370 0 277.56546748 0 483.79637509 0 21447
0.14150000 0.14148400 11208.07152092 0 278.44571731 0 4180.77698362 0 427.37955844 0 777.83635467 0 21771
0.14250000 0.14249400 11066.60042672 0 72.03123055 0 4312.28298549 0 405.15518807 0 745.78086709 0 22470
0.14350000 0.14350900 10975.66342298 0 17.98510937 0 3889.41982835 0 467.71493052 0 618.57424895 0 22519
0.14450000 0.14449900 11102.66298865 0 -95.63831285 0 3910.49046248 0 431.21722622 0 673.71442654 0 22218
0.14550000 0.14550500 10902.23176478 0 127.94403498 0 3501.76666412 0 142.15314942 0 848.20097889 0 23559
0.14650000 0.14650700 10781.43270101 0 306.63474906 0 3678.14879848 0 112.92331913 0 704.95388379 0 23044
0.14750000 0.14750500 10630.84908348 0 224.06177950 0 3175.27702219 0 190.10517374 0 833.09168445 0 23649
0.14850000 0.14849900 10364.58181624 0 246.82980102 0 3545.04838184 0 -19.03299419 0 1113.99767233 0 23640
0.14950000 0.14949500 10346.55607143 0 125.15823805 0 3308.28886024 0 206.83877824 0 814.31302155 0 24457
0.15050000 0.15050000 10110.16193656 0 113.71277589 0 3465.16155827 0 557.15717041 0 776.74794514 0 24591
0.15150000 0.15149900 10035.30194846 0 107.88419338 0 2964.16100487 0 9.68662337 0 633.67025660 0 25020
0.15250000 0.15250500 9825.17136805 0 267.30363684 0 3162.86494607 0 280.86169858 0 893.09593434 0 25297
0.15350000 0.15350100 9555.34988454 0 324.76014479 0 2804.47593634 0 -104.81394843 0 925.86558687 0 25452
0.15450000 0.15450400 9395.62052671 0 250.52463581 0 2916.64965908 0 304.15011937 0 940.97931025 0 26061
0.15550000 0.15549900 9206.73773763 0 -1.72185723 0 2852.09800539 0 334.22808974 0 1065.49978239 0 26128
0.15650000 0.15649500 9302.35833476 0 -93.28112562 0 2649.17550843 0 234.16416866 0 662.79711427 0 26331
0.15750000 0.15749700 9352.34988132 0 -125.38522071 0 2467.57830908 0 72.82334467 0 438.10421226 0 27345
0.15850000 0.15849900 9323.84971723 0 184.87239303 0 2527.86711772 0 -188.40446465 0 527.58520528 0 26980
0.15950000 0.15949700 9200.32686156 0 233.26509588 0 2326.53903554 0 -147.23645374 0 556.26141933 0 27777
0.16050000 0.16050000 9176.25562740 0 97.77017827 0 2448.53391040 0 37.19404281 0 570.81931200 0 28224
0.16150000 0.16150500 8967.14370088 0 160.61735828 0 2596.95842459 0 15.20163764 0 417.90164840 0 28075
0.16250000 0.16249700 8957.42219969 0 168.13878853 0 2640.21799766 0 -128.96379609 0 311.33384372 0 28590
0.16350000 0.16349900 8752.34059940 0 235.79844380 0 2950.67491325 0 -114.00951419 0 523.75307366 0 29163
0.16450000 0.16449100 8636.16976740 0 132.54680040 0 2910.18342138 0 -157.93231952 0 491.02328150 0 28996
0.16550000 0.16550500 8625.68427579 0 24.31870062 0 3064.01123009 0 210.68973281 0 765.20283205 0 30777
0.16650000 0.16650700 8596.70800174 0 -38.60266397 0 2750.94124584 0 493.02405059 0 837.72323792 0 29211
0.16750000 0.16749900 8722.72213051 0 -139.83017567 0 2625.38108240 0 552.78913827 0 970.98088158 0 30922
0.16850000 0.16850800 8664.31561709 0 66.17474579 0 2436.00003870 0 419.14285601 0 789.50658503 0 30867
0.16950000 0.16949900 8586.62111383 0 285.96936202 0 2205.31922343 0 161.02149814 0 785.75528138 0 30852
0.17050000 0.17049200 8377.46489801 0 254.16189451 0 2343.87829621 0 -328.82036630 0 796.17544627 0 31257
0.17150000 0.17149500 8124.86087960 0 150.87260521 0 2372.05736287 0 -346.04115309 0 960.13332495 0 32608
0.17250000 0.17250900 8116.88880573 0 130.67004135 0 2654.97740664 0 -368.09500967 0 627.12651264 0 32361
0.17350000 0.17350400 8043.16926709 0 61.87624785 0 2519.76217595 0 131.76730874 0 471.23703705 0 32508
0.17450000 0.17449800 8018.54441669 0 84.19882974 0 2511.26970282 0 47.45609490 0 97.46314271 0 32791
0.17550000 0.17549800 8005.13583133 0 -21.14349003 0 2298.40425818 0 245.19663311 0 -72.71904337 0 33633
0.17650000 0.17650100 8018.24546392 0 51.49251091 0 2305.14730399 0 280.07777799 0 -297.29745754 0 33984
0.17750000 0.17750300 7878.01447009 0 123.87274114 0 2016.71324247 0 132.93322454 0 -221.18518951 0 34069
0.17850000 0.17849800 7755.16702623 0 64.51755093 0 2064.91107240 0 132.75053118 0 0.11846391 0 34536
