### header ###
fiducial parameters:
Omega_m = 0.31
Omega_nu = 0
Omega_de = 0.69
Omega_k = 0
H_0 = 100
w_de = -1
zeff = 0
beta = 0
fgrowth = 0
b_1 = 2
gamma = 0.55
Lx = 3500 Ly = 3500 Lz = 3500
nx = 700 ny = 700 nz = 700
xoffset = -685.467585 yoffset = -31.7331281 zoffset = 572.489161
bins = 400 dk = 0.001
kx_ny = 0.628318531 ky_ny = 0.628318531 kz_ny = 0.628318531
############################
A(data) = 8.00165788 (not used)
A(ran) = 7.99900842 (used)
Ngal = 475417
weighted Ngal = 0
Nran = 23820508
weighted Nran = 0
SN(data) = 3484.61092
SN(ran) = 69.6742643
SN(data+ran) = 3554.28518
############################
13 columns: k_central k_mean P_0(k) sigma^{lin}_{P_0(k)} P^img_1(k) sigma^{lin}_{P_1(k)} P_2(k) sigma^{lin}_{P_2(k)} P^img_3(k) sigma^{lin}_{P_3(k)} P_4(k) sigma^{lin}_{P_4(k)} N_modes
### header ###
0.00050000 0 0 0 0 0 0 0 0 0 0 0 0
0.00150000 0.00179520 52658.64815850 0 -41303.75761049 0 3886.62960249 0 -54794.94250901 0 10400.75510142 0 3
0.00250000 0.00253879 104881.04671915 0 -52677.36038745 0 2601.66416264 0 -94428.99353685 0 -61614.71953456 0 6
0.00350000 0.00331552 109625.20573420 0 -12232.81518289 0 18487.12857995 0 -47955.34602204 0 99074.83030750 0 7
0.00450000 0.00420575 115813.19590559 0 25423.38646259 0 54329.12980389 0 -23615.71871270 0 91616.18013992 0 24
0.00550000 0.00557378 90543.93620448 0 24887.04304837 0 98689.62412706 0 50917.96797376 0 2514.85713606 0 45
0.00650000 0.00659388 82210.35092973 0 18047.66800790 0 103269.24839530 0 91179.48764907 0 7201.61721924 0 40
0.00750000 0.00754703 62189.70536239 0 12989.38713775 0 73371.42475025 0 46164.17603613 0 -21595.35160304 0 57
0.00850000 0.00846663 68848.71223158 0 265.57192524 0 59187.99810406 0 31650.57266385 0 -8750.30329163 0 75
0.00950000 0.00948925 87332.07622109 0 -37005.14894614 0 67175.79467473 0 14288.39228547 0 -9043.77526095 0 112
0.01050000 0.01054430 86004.50447533 0 4128.44917653 0 39328.23341634 0 13921.45544098 0 -29913.21417655 0 105
0.01150000 0.01145670 82387.28668033 0 14905.89584061 0 26679.98460626 0 20632.28079031 0 -13762.01396359 0 144
0.01250000 0.01249090 71572.50413696 0 10195.69564578 0 1862.07715405 0 -8926.67435366 0 -18967.88892357 0 169
0.01350000 0.01339930 64915.26883975 0 8471.08140435 0 9404.20157844 0 -1682.06329715 0 -16092.95978441 0 180
0.01450000 0.01448870 60539.48607142 0 2437.27335605 0 5181.39404981 0 -15089.69643260 0 -12384.83820265 0 267
0.01550000 0.01550050 59068.63844251 0 4108.14253281 0 7660.81974645 0 -10573.60516416 0 3484.59348833 0 238
0.01650000 0.01653350 61382.64360636 0 548.09004362 0 31367.89621123 0 -11767.88826375 0 -3102.21075071 0 315
0.01750000 0.01747870 69726.30469670 0 826.33203015 0 54906.10865019 0 -3878.25892493 0 1912.47837663 0 297
0.01850000 0.01844180 68656.71811922 0 -251.16350895 0 54715.99683306 0 -2968.02524624 0 -11834.43293591 0 388
0.01950000 0.01947590 72567.02035217 0 151.65431134 0 65528.67563471 0 -2653.41620884 0 7902.67253746 0 399
0.02050000 0.02045430 74165.75333274 0 2568.23681401 0 68870.41398822 0 2787.51313472 0 2911.67818523 0 462
0.02150000 0.02154770 75057.07548064 0 3897.97873543 0 64577.34148629 0 275.26796008 0 -9554.45302623 0 571
0.02250000 0.02255340 69363.46461240 0 3546.57636266 0 52017.22838176 0 6507.30494684 0 -13712.18850191 0 510
0.02350000 0.02348930 68020.05944215 0 1705.51448112 0 45595.61215669 0 4916.38902760 0 -23590.47381211 0 555
0.02450000 0.02439640 69682.56901367 0 -2647.66967226 0 51399.17121038 0 14556.34254608 0 -20827.04298387 0 592
0.02550000 0.02547300 70361.41324830 0 -2116.53025071 0 48863.38738042 0 10258.59752307 0 -37711.34182308 0 837
0.02650000 0.02652900 65198.38818537 0 2258.28922536 0 41481.46842382 0 7444.84297854 0 -19103.96779560 0 723
0.02750000 0.02749970 66787.04535034 0 6096.08987540 0 41439.39358951 0 2394.52310993 0 -14288.94590171 0 826
0.02850000 0.02848090 64365.30646601 0 -395.25210075 0 29521.36460122 0 6697.49427025 0 -2199.66126545 0 831
0.02950000 0.02946900 64272.29893753 0 1189.84309734 0 26836.99017219 0 15953.00559871 0 -3482.51189126 0 996
0.03050000 0.03053250 61016.14965487 0 2103.65313694 0 24969.53186827 0 7360.89261176 0 -1410.86884537 0 1041
0.03150000 0.03150510 58225.25946108 0 3308.87569345 0 18489.56449141 0 12711.02889181 0 -5820.48863834 0 1036
0.03250000 0.03246190 55706.85918108 0 -1514.84904774 0 12545.05474277 0 5657.34900446 0 1006.81313915 0 1059
0.03350000 0.03345080 54977.41442202 0 1274.75675637 0 12090.31436247 0 1994.18106146 0 -1949.58173709 0 1302
0.03450000 0.03451200 55955.10070351 0 -291.99159949 0 12500.21182726 0 -7009.78919176 0 -10501.31395542 0 1339
0.03550000 0.03553350 56031.38902151 0 4301.76427692 0 22060.94286166 0 -9019.57115889 0 -10177.78062422 0 1365
0.03650000 0.03647120 51364.18266396 0 8165.37451611 0 21563.90620055 0 -13047.29539655 0 -2444.82468158 0 1308
0.03750000 0.03744890 47851.81978498 0 4092.33125297 0 25165.62274081 0 -4161.94295911 0 -4717.47471223 0 1579
0.03850000 0.03847530 46699.74438760 0 -1220.54665406 0 31264.03780443 0 3716.44797003 0 -5935.67403343 0 1662
0.03950000 0.03950240 48902.69413352 0 -691.63830596 0 27087.44615958 0 10246.52868902 0 -11855.47035307 0 1683
0.04050000 0.04050350 48622.12142262 0 -1548.12138382 0 21727.33371488 0 7093.06414672 0 -10019.98892323 0 1822
0.04150000 0.04152450 48770.37985194 0 -1544.99898822 0 18816.41952006 0 6902.85267866 0 -7566.85999804 0 1887
0.04250000 0.04250150 48479.06698596 0 1477.21421568 0 16212.54089245 0 1815.58446214 0 -3689.84117349 0 1920
0.04350000 0.04349210 46324.61402275 0 3361.81247841 0 15057.58669062 0 991.62633843 0 -8766.32494564 0 2005
0.04450000 0.04448520 43448.02403486 0 1811.46555730 0 12265.92143410 0 2752.46922667 0 -2792.37388531 0 2151
0.04550000 0.04548030 43598.27548265 0 1020.01024311 0 13133.65953013 0 1774.69436658 0 -6177.72612629 0 2274
0.04650000 0.04648670 42107.94056206 0 -1066.36674542 0 13556.17944521 0 2286.98869129 0 -3337.54194241 0 2311
0.04750000 0.04749250 43436.84098680 0 584.81915950 0 9917.64742493 0 -1101.28221451 0 -3949.83043256 0 2568
0.04850000 0.04851840 42378.43745738 0 1184.72768327 0 11228.33387534 0 -449.76337030 0 -2698.97882547 0 2493
0.04950000 0.04949480 41642.23858019 0 643.96087529 0 10917.92124905 0 -1080.58914665 0 -1021.52050821 0 2644
0.05050000 0.05050630 41232.45183865 0 1611.33328621 0 13996.19363351 0 -879.93426183 0 -3202.13848220 0 2829
0.05150000 0.05149060 40088.90213138 0 1926.77274797 0 17321.43422304 0 -1697.91886629 0 -382.60639857 0 2784
0.05250000 0.05249300 38826.43565556 0 1786.96250248 0 17022.14928319 0 70.30859826 0 -1989.74105921 0 3055
0.05350000 0.05348950 38709.06901248 0 925.80358185 0 19381.21880905 0 856.74659919 0 3679.69892396 0 3009
0.05450000 0.05448610 38571.77218473 0 253.08345008 0 19549.29669980 0 1727.29374403 0 1187.87222352 0 3336
0.05550000 0.05550870 36207.94155920 0 899.41601734 0 21393.94601459 0 2749.88937498 0 3169.25367749 0 3349
0.05650000 0.05647670 37483.91627130 0 1434.61898210 0 19315.89209262 0 1236.26935530 0 2938.04139063 0 3324
0.05750000 0.05747970 34587.94971498 0 1486.35995598 0 18176.32842229 0 2445.03505575 0 5931.33368210 0 3639
0.05850000 0.05849280 34742.18719971 0 444.71771188 0 16699.83390772 0 2069.02997724 0 3767.48031512 0 3846
0.05950000 0.05951020 33379.51618428 0 275.96551655 0 16010.02807152 0 3596.05858228 0 3663.94300574 0 3787
0.06050000 0.06049470 34152.14301012 0 243.42616837 0 15818.58757541 0 679.49528733 0 1352.50662125 0 3930
0.06150000 0.06148310 33664.18565536 0 250.42941382 0 14715.34113048 0 1146.89354937 0 2422.00462013 0 4083
0.06250000 0.06249100 32871.40719835 0 281.96339490 0 14244.87804893 0 834.01400910 0 3941.60369522 0 4303
0.06350000 0.06350600 34050.05617529 0 -621.72432536 0 12832.60301831 0 3232.42129058 0 2594.23463268 0 4470
0.06450000 0.06451750 33760.07198829 0 -171.35640613 0 12774.03042002 0 3248.11077485 0 4523.81975115 0 4479
0.06550000 0.06550280 33383.50222121 0 1204.74644654 0 11280.04163224 0 2362.86733327 0 5471.43359843 0 4636
0.06650000 0.06648880 31667.29187432 0 1653.55206074 0 10534.51985756 0 703.24542407 0 4976.62247461 0 4653
0.06750000 0.06749660 30606.89532644 0 1462.90877201 0 10219.61186739 0 608.23823373 0 5530.60410226 0 5220
0.06850000 0.06852730 28848.61014524 0 707.26799967 0 10073.56790303 0 1062.44382074 0 5074.87828505 0 5029
0.06950000 0.06949320 28963.65160010 0 128.95604547 0 9102.58037806 0 406.70199184 0 3266.53512335 0 5040
0.07050000 0.07048030 28127.58035305 0 1155.13135903 0 9830.23142049 0 219.65056529 0 2827.80532473 0 5475
0.07150000 0.07148790 27283.75847862 0 946.78231569 0 8583.26619941 0 -656.56118093 0 1411.01278559 0 5509
0.07250000 0.07249820 26890.91239405 0 637.78251804 0 8164.67695965 0 131.92342852 0 2094.07557598 0 5916
0.07350000 0.07351270 27297.82033114 0 -634.42871085 0 9240.12079696 0 -905.01418477 0 1432.31593854 0 5721
0.07450000 0.07449140 26751.51182459 0 -147.10026415 0 9171.94849305 0 1236.70117597 0 -321.33768919 0 6028
0.07550000 0.07549160 26917.59669687 0 769.12464951 0 8773.40016120 0 -465.02324836 0 242.66992859 0 6183
0.07650000 0.07648840 26484.66879646 0 792.19605273 0 9618.21854486 0 -351.34922561 0 132.41725420 0 6330
0.07750000 0.07749960 25529.01644136 0 649.95986088 0 9597.73474395 0 602.89140807 0 1733.84856033 0 6583
0.07850000 0.07848650 25111.14690270 0 407.18142351 0 9815.80418125 0 435.55204139 0 -409.33720515 0 6549
0.07950000 0.07947320 25053.90298339 0 -116.25830336 0 8489.56111447 0 468.65939983 0 766.59573052 0 6828
0.08050000 0.08048110 25064.20024547 0 276.14599544 0 9915.93121459 0 1223.20401202 0 -1068.86134021 0 7147
0.08150000 0.08149960 24561.73814520 0 189.38768709 0 8383.43288109 0 718.84854420 0 910.61235220 0 7386
0.08250000 0.08250610 24166.01325618 0 510.49617916 0 8145.77650118 0 1677.39077608 0 1117.38580372 0 7227
0.08350000 0.08350160 23804.61257410 0 813.34640760 0 7324.19892731 0 1646.32183263 0 1072.80198061 0 7798
0.08450000 0.08449610 23113.92095192 0 1030.59095670 0 7653.21305930 0 1182.15890391 0 3545.00409254 0 7371
0.08550000 0.08548940 22412.48917466 0 442.22200986 0 6247.86930402 0 1188.59192463 0 2875.80385282 0 8256
0.08650000 0.08650700 22061.16430816 0 662.02869493 0 5866.36128006 0 185.98959061 0 3721.90662616 0 8037
0.08750000 0.08749060 21603.54512341 0 689.80030004 0 6613.08993816 0 -579.71592499 0 3675.32535565 0 8155
0.08850000 0.08849210 20769.24544832 0 362.30196932 0 6519.61737204 0 -985.02169668 0 3703.59300091 0 8718
0.08950000 0.08949900 21089.12491233 0 417.66691511 0 7325.64940186 0 -353.32785006 0 2652.24254241 0 8571
0.09050000 0.09049190 20258.36838119 0 -35.35326881 0 6919.85976958 0 -22.99921167 0 2319.06521629 0 8932
0.09150000 0.09150830 20579.35507768 0 332.45430331 0 7442.46242870 0 605.45686573 0 871.13065636 0 9285
0.09250000 0.09250820 20140.66956837 0 284.99167574 0 6021.99387772 0 219.32946787 0 1069.06285652 0 9204
0.09350000 0.09350330 19917.78366977 0 486.92984301 0 7479.08967920 0 1.54465575 0 41.21960794 0 9349
0.09450000 0.09448040 19559.15106889 0 469.25951984 0 6787.35725848 0 -551.57450424 0 874.79116695 0 9564
0.09550000 0.09549270 19091.23462205 0 487.49674605 0 8033.74671867 0 -307.03224552 0 671.23644025 0 10155
0.09650000 0.09649430 18761.27934246 0 708.18257370 0 8060.50852775 0 -73.40264871 0 873.97402938 0 9913
0.09750000 0.09749140 18570.61390908 0 464.19503846 0 8723.25360210 0 140.13577183 0 964.99296831 0 10476
0.09850000 0.09850240 17759.45539287 0 371.64701147 0 8815.96217780 0 421.77031869 0 1174.47471049 0 10575
0.09950000 0.09950330 17543.76650540 0 641.61797136 0 8758.81790941 0 423.50535199 0 1072.89055921 0 10882
0.10050000 0.10051200 17220.01172770 0 158.69852439 0 8522.51235313 0 152.25443135 0 1448.49260510 0 10875
0.10150000 0.10150300 17243.70650282 0 31.81400018 0 7965.84015055 0 1175.10583300 0 1059.71117098 0 11118
0.10250000 0.10250800 16815.76114857 0 312.81532078 0 7762.70727943 0 312.68798904 0 2127.92367295 0 11575
0.10350000 0.10349800 17037.65053794 0 203.40414308 0 7304.27981496 0 974.66575128 0 2225.59265017 0 11364
0.10450000 0.10450100 16364.01029597 0 -26.62728034 0 6453.31629103 0 1161.46472883 0 2290.83078800 0 12093
0.10550000 0.10551000 16627.97451965 0 190.74293965 0 6440.07379054 0 722.79250630 0 2169.25666149 0 12067
0.10650000 0.10649700 16080.33733412 0 393.39748634 0 6032.39079072 0 144.17717039 0 1294.70908569 0 12054
0.10750000 0.10749900 15893.99010742 0 403.74900281 0 6396.90279608 0 138.21693794 0 2486.95487752 0 12807
0.10850000 0.10850100 15400.49659026 0 352.17300658 0 6214.15407494 0 -140.70599656 0 2034.27394963 0 12736
0.10950000 0.10950300 15332.40179262 0 239.73133358 0 6376.24183796 0 400.68307607 0 2190.46016352 0 12933
0.11050000 0.11050200 15233.30448549 0 112.92331913 0 6175.73310782 0 266.95042968 0 1889.04933731 0 13428
0.11150000 0.11150900 15085.26750267 0 172.18350879 0 6197.40164749 0 261.08652646 0 1622.97029959 0 13453
0.11250000 0.11250000 14912.64995875 0 98.92623971 0 6122.38664685 0 201.74993775 0 1568.93735448 0 13668
0.11350000 0.11349100 14869.91078495 0 143.89925504 0 5707.65057611 0 777.27609504 0 1007.73214211 0 13791
0.11450000 0.11448600 14977.20161244 0 -97.09620586 0 5956.68930594 0 433.57673864 0 1361.08767298 0 14205
0.11550000 0.11549300 14663.07975733 0 287.00130269 0 5361.17538789 0 374.93438471 0 829.17651039 0 14776
0.11650000 0.11649800 14523.01484838 0 487.92745948 0 4983.64232855 0 121.99598208 0 844.06325111 0 14553
0.11750000 0.11747300 14052.44104358 0 278.70259524 0 4571.57468810 0 151.70302957 0 1276.35117114 0 14568
0.11850000 0.11849100 13970.50583993 0 372.31910158 0 4869.07698365 0 -398.79524469 0 827.96409082 0 16015
0.11950000 0.11950300 13544.33205766 0 214.11440288 0 4982.93369976 0 280.28261599 0 1096.86989307 0 15270
0.12050000 0.12050700 13596.37198430 0 52.85728567 0 4790.64063463 0 393.35541151 0 424.69673414 0 15999
0.12150000 0.12150000 13453.64971739 0 31.99027159 0 4678.19010378 0 309.35300481 0 942.05332576 0 15670
0.12250000 0.12250700 13459.62877279 0 109.34175422 0 4673.79439082 0 570.10736152 0 395.28421049 0 16887
0.12350000 0.12352200 13209.94784813 0 161.71130398 0 4149.82983575 0 846.24449910 0 1538.30023170 0 16407
0.12450000 0.12449800 13290.33292632 0 66.86942345 0 4120.07849897 0 376.36492907 0 1178.39431347 0 16306
0.12550000 0.12549900 13073.09391338 0 44.96659338 0 3707.40188065 0 11.09480164 0 1489.36055601 0 17523
0.12650000 0.12650100 13136.09544159 0 93.85267903 0 3756.33048403 0 32.53037959 0 822.17880111 0 17154
0.12750000 0.12750600 13024.81857717 0 -96.77200819 0 3942.26803470 0 -380.29781885 0 1162.19550226 0 18007
0.12850000 0.12850300 13367.61775355 0 -66.32311494 0 4009.39954008 0 -118.03319703 0 443.24177098 0 17496
0.12950000 0.12949900 13174.73785521 0 120.13472428 0 4173.82356364 0 -92.39113215 0 297.83889423 0 18405
0.13050000 0.13049000 13105.75727159 0 355.74604580 0 4183.48970320 0 -421.63745079 0 166.47129642 0 18100
0.13150000 0.13148800 12873.12772715 0 360.22258672 0 4304.01195885 0 71.25207106 0 -58.21031182 0 19059
0.13250000 0.13249300 12602.96300158 0 50.68301324 0 3942.67771072 0 357.99926390 0 341.92446272 0 18957
0.13350000 0.13349100 12584.80438887 0 35.04368660 0 3570.86904331 0 521.58732693 0 -85.04641621 0 19468
0.13450000 0.13450700 12553.02681664 0 -16.47429065 0 3456.27048144 0 556.52272620 0 -744.96705122 0 19953
0.13550000 0.13551000 12414.17986342 0 214.58829838 0 3709.32846517 0 -80.14082270 0 -950.85028782 0 19956
0.13650000 0.13649900 12113.56624459 0 419.33440723 0 3104.61344520 0 -305.52530212 0 -534.06251530 0 19723
0.13750000 0.13749600 12029.74874571 0 272.56852729 0 3553.90624169 0 -196.37210959 0 217.80037981 0 20946
0.13850000 0.13851100 12037.38864984 0 -94.48922698 0 3341.58334097 0 129.33029004 0 -21.04273187 0 20955
0.13950000 0.13949800 11960.10382261 0 -76.38353999 0 3777.04680376 0 80.46457748 0 -195.91592981 0 20506
0.14050000 0.14048300 12077.80263543 0 264.55548582 0 3725.13974501 0 433.19585067 0 -575.72324467 0 21447
0.14150000 0.14148400 11553.74950176 0 367.95549837 0 3730.06692956 0 -92.95548855 0 -75.56950267 0 21771
0.14250000 0.14249400 11304.95436309 0 370.02823758 0 3410.05459765 0 187.53860885 0 -218.86443023 0 22470
0.14350000 0.14350900 11139.97672329 0 182.63689065 0 3576.94774964 0 508.52641257 0 -55.44300568 0 22519
0.14450000 0.14449900 10920.73361955 0 -260.88611738 0 3196.03763123 0 230.24235121 0 -232.52878628 0 22218
0.14550000 0.14550500 11061.45179567 0 268.20160238 0 3123.59140994 0 367.32105416 0 -216.88248408 0 23559
0.14650000 0.14650700 10887.48342812 0 320.36664630 0 2939.40328658 0 45.22324987 0 53.69081028 0 23044
0.14750000 0.14750500 10585.85115541 0 231.39498022 0 2944.07580765 0 381.77265251 0 121.81550319 0 23649
0.14850000 0.14849900 10353.13303238 0 314.66993518 0 2459.19655920 0 23.72577762 0 433.39958145 0 23640
0.14950000 0.14949500 10172.67628248 0 279.94491009 0 2875.84814212 0 97.47078261 0 -35.61900460 0 24457
0.15050000 0.15050000 9844.07182651 0 185.34628853 0 2648.53331359 0 118.05423445 0 318.77112430 0 24591
0.15150000 0.15149900 9787.27080019 0 91.63887841 0 2533.89046242 0 147.31396001 0 -86.86161314 0 25020
0.15250000 0.15250500 9723.74887271 0 37.35735960 0 2537.36717242 0 -81.01985457 0 118.14281305 0 25297
0.15350000 0.15350100 9757.40874016 0 -18.78663497 0 2580.20599714 0 160.16671466 0 -200.29614150 0 25452
0.15450000 0.15450400 9710.84961430 0 93.38288029 0 2463.69192307 0 44.73717481 0 306.17414035 0 26061
0.15550000 0.15549900 9670.33597778 0 116.90381990 0 2751.01875212 0 -35.15618142 0 28.01375685 0 26128
0.15650000 0.15649500 9534.27925041 0 235.06877760 0 2891.95837473 0 19.95144354 0 255.06207452 0 26331
0.15750000 0.15749700 9453.22983274 0 247.83184642 0 2978.76540131 0 117.54047858 0 830.21509446 0 27345
0.15850000 0.15849900 9356.25841198 0 111.12628081 0 2957.98264763 0 54.54946907 0 1080.76630385 0 26980
0.15950000 0.15949700 9404.65554376 0 1.66523336 0 2940.72089323 0 195.48300191 0 1125.42431154 0 27777
0.16050000 0.16050000 9316.36482566 0 54.07645935 0 3075.57073720 0 -106.77972898 0 1127.39518536 0 28224
0.16150000 0.16150500 9291.83962618 0 167.88301783 0 3034.04951913 0 -10.44316211 0 1113.66550258 0 28075
0.16250000 0.16249700 9166.71128341 0 53.51918924 0 2959.49955613 0 212.27861142 0 926.67386658 0 28590
0.16350000 0.16349900 9095.73768132 0 29.61027537 0 2605.49518702 0 243.62768468 0 932.53001918 0 29163
0.16450000 0.16449100 9099.56870571 0 -61.45317432 0 2703.90601001 0 196.88918716 0 510.92024920 0 28996
0.16550000 0.16550500 9132.34278717 0 151.29556802 0 2573.30793878 0 28.65130132 0 354.12062851 0 30777
0.16650000 0.16650700 8935.70937072 0 161.52307445 0 2751.00767979 0 -52.43399069 0 824.87712666 0 29211
0.16750000 0.16749900 8908.83683838 0 129.65692363 0 2612.55933026 0 18.75020702 0 470.48854789 0 30922
0.16850000 0.16850800 8781.54939227 0 82.90657871 0 2793.30396060 0 -9.22615860 0 648.34773038 0 30867
0.16950000 0.16949900 8666.56329903 0 261.17731952 0 2839.47555509 0 -88.57937361 0 335.47926245 0 30852
0.17050000 0.17049200 8461.08309504 0 358.48866065 0 3033.76163868 0 -7.13503933 0 717.08804455 0 31257
0.17150000 0.17149500 8269.66474358 0 128.62609019 0 2753.76468867 0 62.76779144 0 551.74833974 0 32608
0.17250000 0.17250900 8066.42114921 0 89.98511597 0 2796.85817687 0 235.80730166 0 523.87708370 0 32361
0.17350000 0.17350400 7989.21382824 0 142.82745400 0 2445.69939524 0 305.46218986 0 321.63664196 0 32508
0.17450000 0.17449800 7953.59415930 0 27.78245599 0 2361.90404101 0 364.98147193 0 133.66178351 0 32791
0.17550000 0.17549800 7803.17662664 0 152.74161364 0 2035.29260351 0 178.11052427 0 302.41508607 0 33633
0.17650000 0.17650100 7835.45245349 0 44.24235262 0 2090.17811764 0 70.70963786 0 156.16960540 0 33984
0.17750000 0.17750300 7742.74387778 0 -77.23909853 0 2037.28562198 0 95.81225908 0 417.31149348 0 34069
0.17850000 0.17849800 7880.77147897 0 0.65088994 0 2031.24013263 0 176.00124639 0 153.34062641 0 34536
