### header ###
fiducial parameters:
Omega_m = 0.31
Omega_nu = 0
Omega_de = 0.69
Omega_k = 0
H_0 = 100
w_de = -1
zeff = 0
beta = 0
fgrowth = 0
b_1 = 2
gamma = 0.55
Lx = 3500 Ly = 3500 Lz = 3500
nx = 700 ny = 700 nz = 700
xoffset = -685.467585 yoffset = -31.7331281 zoffset = 572.489161
bins = 400 dk = 0.001
kx_ny = 0.628318531 ky_ny = 0.628318531 kz_ny = 0.628318531
############################
A(data) = 7.97307647 (not used)
A(ran) = 7.96585083 (used)
Ngal = 473540
weighted Ngal = 0
Nran = 23820508
weighted Nran = 0
SN(data) = 3496.79435
SN(ran) = 69.3854497
SN(data+ran) = 3566.1798
############################
13 columns: k_central k_mean P_0(k) sigma^{lin}_{P_0(k)} P^img_1(k) sigma^{lin}_{P_1(k)} P_2(k) sigma^{lin}_{P_2(k)} P^img_3(k) sigma^{lin}_{P_3(k)} P_4(k) sigma^{lin}_{P_4(k)} N_modes
### header ###
0.00050000 0 0 0 0 0 0 0 0 0 0 0 0
0.00150000 0.00179520 38555.27442075 0 -38838.06159662 0 -32244.71361361 0 60413.04012199 0 -120561.00878783 0 3
0.00250000 0.00253879 57344.78819150 0 -22899.56074343 0 12279.54039362 0 4601.02707211 0 90319.38945716 0 6
0.00350000 0.00331552 64193.90687782 0 -1338.24546688 0 15708.86083645 0 -92982.39429929 0 7371.31166942 0 7
0.00450000 0.00420575 63576.73549243 0 4771.34157248 0 -257.56441993 0 -4690.60217990 0 61735.29715184 0 24
0.00550000 0.00557378 73333.66812262 0 -22618.65586278 0 -9424.63001773 0 5804.31197178 0 10941.82639833 0 45
0.00650000 0.00659388 97366.92420423 0 -26228.01230716 0 -19794.10580154 0 60619.64970311 0 36292.09122782 0 40
0.00750000 0.00754703 129413.33248034 0 -39099.36846234 0 5081.63240319 0 -27246.77691372 0 -27775.59114706 0 57
0.00850000 0.00846663 126213.43060775 0 1781.03880870 0 -11295.98577998 0 1110.31058816 0 14576.71562375 0 75
0.00950000 0.00948925 140401.50763036 0 16886.51330417 0 29510.62444615 0 -39054.41482358 0 -4351.10255631 0 112
0.01050000 0.01054430 101731.85609423 0 17650.83588640 0 31175.01631288 0 -11692.70717824 0 15889.89334724 0 105
0.01150000 0.01145670 98322.24438958 0 24577.79301619 0 56268.44749588 0 -8550.32603308 0 10550.79617504 0 144
0.01250000 0.01249090 85090.26261506 0 20750.20104963 0 59561.24617370 0 5209.08593418 0 8876.56101154 0 169
0.01350000 0.01339930 78577.52115673 0 10827.87003130 0 60191.48290237 0 8716.49948396 0 19337.04023303 0 180
0.01450000 0.01448870 72124.79169892 0 -573.00720339 0 37462.87885415 0 6759.67644643 0 -21651.15612013 0 267
0.01550000 0.01550050 82286.52852448 0 -9403.47080501 0 43590.74630178 0 -9410.60138219 0 -28060.92495764 0 238
0.01650000 0.01653350 90768.04005881 0 -12864.60203704 0 44090.32959759 0 -1273.40593274 0 -49770.43222956 0 315
0.01750000 0.01747870 91911.47904283 0 1405.73128665 0 33770.25852713 0 -18284.06214278 0 -16871.12277267 0 297
0.01850000 0.01844180 99482.40258408 0 4485.83060470 0 39171.22785041 0 -3534.79540905 0 -34946.91448560 0 388
0.01950000 0.01947590 88280.31011856 0 4061.77163647 0 39795.70697019 0 6586.08453793 0 -16302.11600024 0 399
0.02050000 0.02045430 84904.80117434 0 11975.05146111 0 36910.92346194 0 8635.10682422 0 -23062.87753450 0 462
0.02150000 0.02154770 77796.14719428 0 5599.47396264 0 48226.61798010 0 18913.52380872 0 -12257.17429749 0 571
0.02250000 0.02255340 76099.31341582 0 220.70243615 0 30462.62293405 0 17567.46128051 0 -1658.26887111 0 510
0.02350000 0.02348930 70528.05173682 0 2099.21313469 0 36834.85659043 0 14192.61667579 0 10872.52471729 0 555
0.02450000 0.02439640 71316.73343365 0 3109.81743786 0 28168.21578513 0 10398.27490066 0 18751.42497337 0 592
0.02550000 0.02547300 65560.34248369 0 5409.63895362 0 28564.71573689 0 9164.00963615 0 17917.45746803 0 837
0.02650000 0.02652900 58709.56294865 0 6808.38360331 0 16451.81383179 0 6882.68997517 0 10951.62540580 0 723
0.02750000 0.02749970 55867.62933744 0 -1343.83699091 0 19582.62439751 0 -211.87114987 0 13450.43874320 0 826
0.02850000 0.02848090 55786.24775003 0 -470.87275756 0 18799.81103283 0 -1642.86726729 0 -2723.53724192 0 831
0.02950000 0.02946900 58754.84875715 0 -1946.62542637 0 19708.51673069 0 -6940.97469301 0 -742.70608249 0 996
0.03050000 0.03053250 58954.03988064 0 10.72187467 0 18464.87320706 0 -4325.32618413 0 -8199.95338652 0 1041
0.03150000 0.03150510 60007.46086389 0 670.19010555 0 16510.82932307 0 -6352.74636470 0 -4414.69091774 0 1036
0.03250000 0.03246190 57913.13062444 0 2148.07530412 0 17985.33081917 0 5276.35030745 0 -6241.07089658 0 1059
0.03350000 0.03345080 60081.75616342 0 543.72644040 0 12906.01253186 0 1986.03183040 0 -6793.96743640 0 1302
0.03450000 0.03451200 58883.39844830 0 1418.94057016 0 16745.00899298 0 2724.86592089 0 -12611.93158468 0 1339
0.03550000 0.03553350 55609.42272267 0 3036.16433317 0 15136.64308983 0 1372.04927455 0 -7086.02214814 0 1365
0.03650000 0.03647120 52466.54332290 0 1561.38602895 0 15070.20914091 0 -2778.56669626 0 -9539.68254492 0 1308
0.03750000 0.03744890 50818.20632715 0 1121.71508273 0 18577.14658072 0 -4839.60245498 0 -10043.61726440 0 1579
0.03850000 0.03847530 52447.83109396 0 1758.25196423 0 17746.72221933 0 1342.22043149 0 -11758.91968065 0 1662
0.03950000 0.03950240 49727.36088602 0 836.31151650 0 15852.80105910 0 617.96527108 0 -8407.34910270 0 1683
0.04050000 0.04050350 49870.74749242 0 -198.40720289 0 16256.27657549 0 3159.06713866 0 -9617.66492862 0 1822
0.04150000 0.04152450 49418.00013058 0 181.72231662 0 16278.08905538 0 5753.09139717 0 -7571.30000029 0 1887
0.04250000 0.04250150 49306.16964991 0 65.90325238 0 13731.01145410 0 6579.64044488 0 -7192.63756382 0 1920
0.04350000 0.04349210 48302.90629810 0 1359.05036522 0 11309.71546276 0 4640.13452337 0 -3585.20770395 0 2005
0.04450000 0.04448520 46451.94575816 0 2597.52311316 0 11550.09563457 0 -835.52648867 0 59.18511930 0 2151
0.04550000 0.04548030 45092.48571693 0 3207.96252506 0 13823.02247334 0 -713.22048150 0 -333.51281756 0 2274
0.04650000 0.04648670 41119.07123251 0 4581.53978043 0 14229.04462444 0 -3200.53299510 0 4065.30370809 0 2311
0.04750000 0.04749250 38611.52183083 0 1446.26706781 0 14368.66664041 0 800.52133376 0 3717.83201063 0 2568
0.04850000 0.04851840 37335.10422574 0 1084.19429561 0 16070.15079529 0 2434.78208297 0 871.88025275 0 2493
0.04950000 0.04949480 36595.47292785 0 934.72012503 0 11973.16916589 0 2987.03642795 0 3227.53839534 0 2644
0.05050000 0.05050630 36887.45013332 0 -973.20088270 0 14517.36796272 0 1113.64335793 0 -328.62106446 0 2829
0.05150000 0.05149060 36001.44270133 0 653.97690032 0 12546.05125201 0 3018.95794040 0 2822.12522210 0 2784
0.05250000 0.05249300 36238.83334544 0 1284.24573874 0 13174.40568547 0 977.96973300 0 584.30208193 0 3055
0.05350000 0.05348950 33674.48291745 0 1016.33423127 0 11234.31293074 0 990.75605370 0 7135.44900613 0 3009
0.05450000 0.05448610 33469.86635480 0 1142.56427036 0 12075.58817046 0 2370.54045437 0 6441.86750716 0 3336
0.05550000 0.05550870 33054.87562059 0 -46.18521345 0 11583.53405552 0 2924.42243110 0 7571.89790583 0 3349
0.05650000 0.05647670 33848.76131009 0 -796.76670841 0 9834.07351720 0 5414.86509093 0 6614.31896621 0 3324
0.05750000 0.05747970 34316.67775693 0 -454.11257948 0 10486.53240179 0 551.23679833 0 11693.70368747 0 3639
0.05850000 0.05849280 34191.11759348 0 787.57557158 0 9513.74008787 0 -90.90035434 0 8808.96446852 0 3846
0.05950000 0.05951020 34758.13134745 0 -127.09810936 0 12930.81453946 0 -2660.34748418 0 8559.26139921 0 3787
0.06050000 0.06049470 34216.47321732 0 796.38471321 0 13830.44093097 0 -1888.63966129 0 11348.69004612 0 3930
0.06150000 0.06148310 33784.09893315 0 1409.39622617 0 15107.85504530 0 -2029.22496951 0 5877.22323071 0 4083
0.06250000 0.06249100 32592.27388967 0 1231.55254493 0 14325.26312712 0 -1118.48196388 0 3434.95625616 0 4303
0.06350000 0.06350600 31373.32165039 0 2290.89722195 0 15776.18057135 0 -495.62272523 0 2636.90737254 0 4470
0.06450000 0.06451750 29542.06984863 0 1325.08047267 0 13924.99858492 0 -671.33609117 0 680.41650476 0 4479
0.06550000 0.06550280 29040.16136460 0 167.32386543 0 14646.13910036 0 883.94908680 0 -1013.36463375 0 4636
0.06650000 0.06648880 29000.19027201 0 -245.23317178 0 12070.16273130 0 1453.49729592 0 -3928.35012241 0 4653
0.06750000 0.06749660 29331.69567708 0 -451.73645858 0 12980.75072439 0 1644.12951232 0 -4098.02242793 0 5220
0.06850000 0.06852730 29822.08894329 0 -382.50453318 0 10948.29263603 0 1154.81026161 0 -3648.96215026 0 5029
0.06950000 0.06949320 30056.71150620 0 -578.86999938 0 10698.76672391 0 2131.12357482 0 -1956.62373568 0 5040
0.07050000 0.07048030 30213.71707213 0 267.37671419 0 10996.53475526 0 2149.22682590 0 -1158.97345574 0 5475
0.07150000 0.07148790 29948.42416947 0 427.05403209 0 10165.95538132 0 1518.23717913 0 -475.11124350 0 5509
0.07250000 0.07249820 28971.29150423 0 465.05978703 0 8930.22856993 0 2043.74078735 0 -1097.01826222 0 5916
0.07350000 0.07351270 28685.84697040 0 496.66573823 0 8539.10976804 0 907.47002642 0 -95.41221598 0 5721
0.07450000 0.07449140 28200.54697360 0 575.30803248 0 7471.79301714 0 -604.10161318 0 -449.61167945 0 6028
0.07550000 0.07549160 27469.44136583 0 1109.23657266 0 7848.86103884 0 -1320.19757743 0 -1573.12269326 0 6183
0.07650000 0.07648840 27141.92199769 0 589.99768582 0 7299.82874039 0 -228.92695902 0 -2005.87343647 0 6330
0.07750000 0.07749960 26121.60726565 0 241.91147434 0 7867.52897849 0 -1443.77579473 0 -3751.50295040 0 6583
0.07850000 0.07848650 26172.65068307 0 974.01026965 0 8855.92219807 0 -513.51006597 0 -4288.41105319 0 6549
0.07950000 0.07947320 25321.07818127 0 863.69780471 0 8785.88974360 0 167.97381089 0 -3809.25619666 0 6828
0.08050000 0.08048110 24656.84941540 0 231.70389808 0 8576.95497427 0 1123.82989677 0 -3110.62571758 0 7147
0.08150000 0.08149960 24888.26100411 0 -388.21896002 0 8900.52152244 0 845.72631430 0 -3362.15572048 0 7386
0.08250000 0.08250610 25121.11199504 0 337.04710364 0 9140.21521012 0 68.91470329 0 -2747.12129378 0 7227
0.08350000 0.08350160 24890.47546907 0 799.74184209 0 9122.53270738 0 -192.31188808 0 -1443.38826336 0 7798
0.08450000 0.08449610 23663.10826292 0 1013.58165132 0 8927.44941640 0 -51.51410194 0 -207.85632489 0 7371
0.08550000 0.08548940 23715.48035931 0 341.65983416 0 9910.99295772 0 1105.38561808 0 139.12376135 0 8256
0.08650000 0.08650700 22750.52725137 0 243.87902646 0 8365.20783444 0 2106.35478420 0 -1298.63976100 0 8037
0.08750000 0.08749060 22609.57655643 0 442.29065828 0 8070.13037802 0 1959.11500876 0 -1330.71628600 0 8155
0.08850000 0.08849210 21802.18263065 0 519.18573968 0 6600.87716388 0 1303.74410275 0 -354.51480328 0 8718
0.08950000 0.08949900 21560.03088687 0 354.72849914 0 5969.18996066 0 423.93606542 0 -381.52573967 0 8571
0.09050000 0.09049190 21413.65475277 0 579.85654352 0 6102.45646217 0 -635.68652695 0 -1420.70106981 0 8932
0.09150000 0.09150830 20248.62473535 0 567.85192895 0 6073.23659698 0 -146.74373529 0 -336.30525788 0 9285
0.09250000 0.09250820 19869.61905681 0 692.07677002 0 6802.07237816 0 485.49486972 0 -402.61187506 0 9204
0.09350000 0.09350330 19581.07427203 0 689.34965642 0 5865.25404758 0 422.06816423 0 -304.04050336 0 9349
0.09450000 0.09448040 18653.43489873 0 722.48469567 0 5572.13639266 0 1517.82750311 0 509.19407376 0 9564
0.09550000 0.09549270 18293.36289562 0 661.65998651 0 5573.93010928 0 464.18507337 0 1837.76232875 0 10155
0.09650000 0.09649430 17487.62981857 0 374.40623481 0 5760.81987989 0 947.76885983 0 2052.88652765 0 9913
0.09750000 0.09749140 17493.38742748 0 -63.43622769 0 5458.72256954 0 -62.17542206 0 1438.17319837 0 10476
0.09850000 0.09850240 17571.55804070 0 200.41793708 0 6575.37759983 0 -175.06784941 0 1634.59624065 0 10575
0.09950000 0.09950330 17589.93809989 0 -101.09907273 0 5659.57454175 0 -880.65064124 0 1311.31757292 0 10882
0.10050000 0.10051200 17792.89381382 0 -23.57574762 0 6112.80908588 0 -194.01924056 0 1665.83126897 0 10875
0.10150000 0.10150300 18027.29493023 0 -140.61298903 0 5560.72082577 0 278.16226579 0 852.24016299 0 11118
0.10250000 0.10250800 17967.28292971 0 50.46057024 0 6100.49666068 0 833.37956489 0 -292.13111078 0 11575
0.10350000 0.10349800 17541.55204044 0 402.05272265 0 4791.00602135 0 202.07878580 0 -296.36295333 0 11364
0.10450000 0.10450100 16817.64344379 0 900.22872599 0 4926.73057898 0 564.28996206 0 -978.12253108 0 12093
0.10550000 0.10551000 16436.86619328 0 476.34137879 0 4598.23684626 0 134.61289622 0 -632.90626619 0 12067
0.10650000 0.10649700 15698.34212788 0 52.65820527 0 4226.87107184 0 570.07635901 0 -1125.85613221 0 12054
0.10750000 0.10749900 15871.84545778 0 169.49293386 0 4274.45992391 0 6.04850102 0 -1600.48240789 0 12807
0.10850000 0.10850100 15687.82341930 0 283.39172480 0 4103.19320362 0 -151.24242086 0 -1727.06122521 0 12736
0.10950000 0.10950300 15447.55397073 0 154.32606332 0 4076.54211778 0 -147.13458835 0 -1093.96451503 0 12933
0.11050000 0.11050200 15532.36797885 0 -39.46508735 0 4340.28489496 0 -503.10208064 0 -1208.57747093 0 13428
0.11150000 0.11150900 15794.22846081 0 -198.64082894 0 4286.65055354 0 330.60854676 0 -1001.82505682 0 13453
0.11250000 0.11250000 15928.09286786 0 245.51108713 0 5069.81823261 0 130.07102857 0 -1211.03552704 0 13668
0.11350000 0.11349100 15615.96403123 0 604.02632137 0 4810.62618093 0 -272.85862220 0 -624.36286036 0 13791
0.11450000 0.11448600 15368.71901803 0 278.02054003 0 5142.16480298 0 6.39472155 0 -85.59482846 0 14205
0.11550000 0.11549300 15049.39317026 0 186.05381009 0 5323.79521930 0 65.66220787 0 -171.82587270 0 14776
0.11650000 0.11649800 15027.24852062 0 144.37204331 0 5512.20189842 0 431.70330128 0 -618.99610452 0 14553
0.11750000 0.11747300 14559.11062729 0 274.08432856 0 4981.05140454 0 155.96255293 0 -1011.60745580 0 14568
0.11850000 0.11849100 14462.00633863 0 557.77832783 0 4849.36824547 0 44.68070596 0 -777.56951164 0 16015
0.11950000 0.11950300 13755.37056870 0 260.21624173 0 4476.61843045 0 370.31168909 0 -1279.16354165 0 15270
0.12050000 0.12050700 13831.76960995 0 87.53281747 0 4426.70439017 0 348.72176293 0 -1525.50062421 0 15999
0.12150000 0.12150000 13543.55699492 0 301.60348467 0 4231.00104900 0 9.51325291 0 -1577.70663573 0 15670
0.12250000 0.12250700 13253.68353117 0 290.33739416 0 4527.76149879 0 -261.23821731 0 -1372.42573360 0 16887
0.12350000 0.12352200 12976.76468745 0 251.14690047 0 4215.65480680 0 279.32043097 0 -815.58966061 0 16407
0.12450000 0.12449800 12936.12925537 0 256.57787579 0 4739.09896260 0 218.24216557 0 -755.81903677 0 16306
0.12550000 0.12549900 12889.84693763 0 92.99678832 0 4585.49260039 0 332.79200921 0 -780.92553330 0 17523
0.12650000 0.12650100 12707.04285487 0 116.02246284 0 4509.01605287 0 393.92120731 0 -479.15596376 0 17154
0.12750000 0.12750600 12537.30411540 0 77.56418199 0 4041.90788575 0 270.67958868 0 -228.49956728 0 18007
0.12850000 0.12850300 12664.85729731 0 -163.28800303 0 3965.24310870 0 334.38642399 0 -485.96876522 0 17496
0.12950000 0.12949900 12640.94107570 0 -161.93607217 0 3401.53997986 0 581.15200552 0 -834.78796461 0 18405
0.13050000 0.13049000 12752.43938663 0 129.92376665 0 3416.55405232 0 198.20679381 0 -256.25788560 0 18100
0.13150000 0.13148800 12652.23484702 0 216.98656394 0 3299.53065131 0 247.98353727 0 -479.52245771 0 19059
0.13250000 0.13249300 12323.05463016 0 322.67190433 0 3404.69559243 0 357.70031113 0 599.53760089 0 18957
0.13350000 0.13349100 12389.48857907 0 108.95588370 0 3292.88725642 0 157.79280822 0 775.29747059 0 19468
0.13450000 0.13450700 12276.10797293 0 -139.61869427 0 3320.06981385 0 553.19549259 0 1186.31102572 0 19953
0.13550000 0.13551000 12538.74351763 0 -81.70866389 0 3252.37361990 0 112.21690480 0 1194.84778815 0 19956
0.13650000 0.13649900 12551.80886091 0 -7.61744945 0 3313.49285290 0 164.57349994 0 758.97243488 0 19723
0.13750000 0.13749600 12414.84420291 0 192.71602793 0 3273.53283263 0 -190.62335854 0 1241.77230074 0 20946
0.13850000 0.13851100 12065.84452462 0 400.14053216 0 3096.72994993 0 -487.26865615 0 372.34235347 0 20955
0.13950000 0.13949800 11959.99309936 0 208.46308829 0 3593.19085015 0 -125.17263207 0 531.60778089 0 20506
0.14050000 0.14048300 11655.61489009 0 378.24943876 0 3309.92756431 0 29.90878525 0 -52.26104097 0 21447
0.14150000 0.14148400 11346.91847415 0 394.47703801 0 3547.71681212 0 -118.99648929 0 462.02707726 0 21771
0.14250000 0.14249400 11142.30191150 0 204.79814878 0 3480.49672814 0 205.67286244 0 430.41337544 0 22470
0.14350000 0.14350900 10887.15125838 0 88.87910144 0 3615.31335513 0 194.46877695 0 779.13513837 0 22519
0.14450000 0.14449900 10884.33888788 0 251.23326460 0 3379.42854720 0 519.70613894 0 173.87093109 0 22218
0.14550000 0.14550500 10595.89375402 0 172.63083071 0 3264.77462370 0 255.27244869 0 389.07595796 0 23559
0.14650000 0.14650700 10548.92495214 0 155.10444776 0 2881.73861892 0 -91.70509091 0 252.23531000 0 23044
0.14750000 0.14750500 10456.07243621 0 87.29310164 0 3048.99715764 0 -108.60356232 0 -103.47607942 0 23649
0.14850000 0.14849900 10347.75188251 0 145.79151535 0 2943.47790211 0 -109.64912196 0 271.79346456 0 23640
0.14950000 0.14949500 10218.89216627 0 159.66735281 0 2969.53108241 0 75.90754075 0 -220.66811194 0 24457
0.15050000 0.15050000 10082.65828171 0 104.85292301 0 2906.68456674 0 30.36618298 0 -94.18307720 0 24591
0.15150000 0.15149900 10118.89800084 0 53.35432233 0 2981.24560207 0 334.94779086 0 62.85703438 0 25020
0.15250000 0.15250500 10008.42941612 0 128.76781594 0 2942.79141798 0 111.18274967 0 43.85592848 0 25297
0.15350000 0.15350100 10033.29785766 0 58.98183142 0 3111.13504452 0 290.62416737 0 359.53056642 0 25452
0.15450000 0.15450400 9916.28552898 0 64.47027211 0 2887.99448245 0 -43.63946453 0 541.76996061 0 26061
0.15550000 0.15549900 9879.50326593 0 101.27523342 0 2869.84694207 0 184.54133052 0 554.48320397 0 26128
0.15650000 0.15649500 9770.13084137 0 107.17932918 0 2762.41217435 0 269.01320379 0 247.46203077 0 26331
0.15750000 0.15749700 9515.54487682 0 299.39344863 0 2571.30384798 0 238.80568722 0 135.93050287 0 27345
0.15850000 0.15849900 9440.20877875 0 290.23220708 0 2234.67195652 0 184.22687650 0 137.23150103 0 26980
0.15950000 0.15949700 9061.40240206 0 240.90942894 0 2032.05948467 0 179.80348273 0 -160.11135304 0 27777
0.16050000 0.16050000 8845.44777880 0 158.09840439 0 1937.05893772 0 257.86226547 0 -160.07813607 0 28224
0.16150000 0.16150500 8737.20473137 0 85.92600169 0 1594.59193108 0 240.94818208 0 -35.86624962 0 28075
0.16250000 0.16249700 8685.25338332 0 -0.64502825 0 1939.52806616 0 269.89234638 0 33.73216973 0 28590
0.16350000 0.16349900 8681.53308218 0 -68.29210646 0 1747.01355454 0 160.21100396 0 14.81886737 0 29163
0.16450000 0.16449100 8778.59308154 0 120.05611078 0 1884.83078155 0 -97.06221383 0 235.19168040 0 28996
0.16550000 0.16550500 8556.44902870 0 224.92209913 0 1944.75420347 0 -374.91777622 0 247.15643460 0 30777
0.16650000 0.16650700 8543.62727656 0 167.19653369 0 2354.36378781 0 -350.08144442 0 472.27340665 0 29211
0.16750000 0.16749900 8513.88701210 0 139.91543257 0 2321.88865912 0 -258.52771219 0 389.53988837 0 30922
0.16850000 0.16850800 8454.74972524 0 -13.85701451 0 2546.23610460 0 -130.69882939 0 -15.48021733 0 30867
0.16950000 0.16949900 8417.15918249 0 25.38474405 0 2483.93213284 0 -132.64312963 0 -390.67480167 0 30852
0.17050000 0.17049200 8476.79472396 0 100.13666626 0 2748.59391298 0 -321.41187377 0 -661.20380673 0 31257
0.17150000 0.17149500 8358.04404028 0 233.35699618 0 2688.96944383 0 -171.86905476 0 -480.90649831 0 32608
0.17250000 0.17250900 8176.34719000 0 100.74342966 0 2856.99197296 0 58.28028892 0 -524.97767279 0 32361
0.17350000 0.17350400 8137.47225757 0 30.59205841 0 2704.28246906 0 366.67110869 0 -533.78459995 0 32508
0.17450000 0.17449800 8169.46020397 0 91.89952093 0 2572.03462142 0 387.67973781 0 -358.96477062 0 32791
0.17550000 0.17549800 8007.12884980 0 110.75535793 0 2277.93152959 0 421.17352038 0 -234.69231855 0 33633
0.17650000 0.17650100 7899.56121419 0 163.59692089 0 2191.30166021 0 288.36209141 0 -51.15347632 0 33984
0.17750000 0.17750300 7682.00110383 0 168.16093318 0 1972.56788342 0 256.91779616 0 44.05235152 0 34069
