### header ###
fiducial parameters:
Omega_m = 0.31
Omega_nu = 0
Omega_de = 0.69
Omega_k = 0
H_0 = 100
w_de = -1
zeff = 0
beta = 0
fgrowth = 0
b_1 = 2
gamma = 0.55
Lx = 3500 Ly = 3500 Lz = 3500
nx = 700 ny = 700 nz = 700
xoffset = -685.467585 yoffset = -31.7331281 zoffset = 572.489161
bins = 400 dk = 0.001
kx_ny = 0.628318531 ky_ny = 0.628318531 kz_ny = 0.628318531
############################
A(data) = 8.01633668 (not used)
A(ran) = 8.01549721 (used)
Ngal = 476452
weighted Ngal = 0
Nran = 23820508
weighted Nran = 0
SN(data) = 3483.07897
SN(ran) = 69.8178877
SN(data+ran) = 3552.89686
############################
13 columns: k_central k_mean P_0(k) sigma^{lin}_{P_0(k)} P^img_1(k) sigma^{lin}_{P_1(k)} P_2(k) sigma^{lin}_{P_2(k)} P^img_3(k) sigma^{lin}_{P_3(k)} P_4(k) sigma^{lin}_{P_4(k)} N_modes
### header ###
0.00050000 0 0 0 0 0 0 0 0 0 0 0 0
0.00150000 0.00179520 -860.85111000 0 -6739.14835622 0 -510.50614425 0 4762.70515912 0 6522.67333369 0 3
0.00250000 0.00253879 16348.73048772 0 -26267.20833702 0 7030.72695799 0 -43631.60318036 0 -11285.24562491 0 6
0.00350000 0.00331552 27374.55154213 0 -23290.30308628 0 -15337.05216904 0 43814.29653987 0 22379.71509319 0 7
0.00450000 0.00420575 48297.25941244 0 -13571.90214646 0 7064.26502987 0 -26763.24848889 0 -3013.00102965 0 24
0.00550000 0.00557378 51745.18136097 0 4117.96368493 0 10286.61050487 0 -24495.30419629 0 1091.27061841 0 45
0.00650000 0.00659388 59644.73150283 0 396.17663987 0 11357.21573623 0 -22827.36918561 0 -4029.65082217 0 40
0.00750000 0.00754703 58624.74894053 0 -3689.34291887 0 8125.87953348 0 -8856.73047779 0 -7839.96996201 0 57
0.00850000 0.00846663 60306.74580374 0 -3742.05825733 0 6374.81350806 0 165.00642784 0 -15811.61201077 0 75
0.00950000 0.00948925 59977.01197064 0 -1501.26330519 0 6093.38822815 0 2923.94632113 0 -23017.70244924 0 112
0.01050000 0.01054430 65884.76160087 0 -2152.99141634 0 -10476.63374340 0 -6188.70987251 0 -20512.47823578 0 105
0.01150000 0.01145670 60206.43054088 0 2118.55648615 0 -3863.57702222 0 -9970.96066894 0 -19944.80014232 0 144
0.01250000 0.01249090 61745.59441392 0 -618.06935093 0 -3062.30609207 0 -16948.29687665 0 -5946.07094643 0 169
0.01350000 0.01339930 62878.18251962 0 -3706.56038397 0 14545.49166776 0 -9744.22160130 0 -15655.93512382 0 180
0.01450000 0.01448870 65962.60004435 0 57.90947676 0 5636.30051498 0 -3752.48838731 0 -1796.01966418 0 267
0.01550000 0.01550050 72226.98925699 0 -2652.67436308 0 17575.98697062 0 -4680.11668829 0 4502.05156056 0 238
0.01650000 0.01653350 72231.63963342 0 -1800.62575131 0 17915.79661931 0 -1942.26293039 0 -6638.40127269 0 315
0.01750000 0.01747870 73691.63638400 0 5855.01214713 0 37438.07684655 0 7466.29007171 0 -6614.44076179 0 297
0.01850000 0.01844180 69396.57086360 0 9180.13094109 0 36210.82036365 0 -4661.13872356 0 8.28101388 0 388
0.01950000 0.01947590 57421.40867924 0 9716.12004091 0 35348.83987652 0 -1373.17865168 0 9574.95897180 0 399
0.02050000 0.02045430 59550.94891161 0 -1845.04791848 0 27274.78989552 0 11951.35668600 0 6570.83794665 0 462
0.02150000 0.02154770 59343.89643751 0 -7837.85514797 0 20059.73087394 0 6935.23922876 0 5525.67691772 0 571
0.02250000 0.02255340 66958.33421529 0 -1420.84501003 0 23261.18287200 0 2085.04055892 0 -10385.63030572 0 510
0.02350000 0.02348930 70050.83453714 0 607.39230811 0 20018.54182562 0 -1636.26816170 0 -11838.41897285 0 555
0.02450000 0.02439640 68008.32277784 0 -1503.43348085 0 24341.39888131 0 1490.91068148 0 42.14757948 0 592
0.02550000 0.02547300 62266.10440364 0 7049.00736627 0 22740.78360553 0 1178.58254300 0 -7055.75041208 0 837
0.02650000 0.02652900 59874.26079632 0 4843.83208306 0 26426.98198415 0 4173.94535921 0 -2391.52250990 0 723
0.02750000 0.02749970 59265.28293129 0 2029.05888464 0 28880.38771747 0 853.81686204 0 3021.86996183 0 826
0.02850000 0.02848090 55829.09764707 0 2668.02060528 0 28282.15000752 0 5518.18095382 0 16650.78350878 0 831
0.02950000 0.02946900 56283.50585763 0 927.70027109 0 26634.69879775 0 5292.21694892 0 14486.91906947 0 996
0.03050000 0.03053250 54912.64132184 0 -1245.07185353 0 26920.36477807 0 4541.57976016 0 10434.59212607 0 1041
0.03150000 0.03150510 57424.73037669 0 490.51506179 0 27636.30130084 0 7759.44094361 0 11867.98208011 0 1036
0.03250000 0.03246190 55189.44944230 0 -1561.10922083 0 23219.55093069 0 1502.85771996 0 4399.64362831 0 1059
0.03350000 0.03345080 58210.86543881 0 718.03140663 0 24496.41142877 0 3326.14852017 0 1778.44788470 0 1302
0.03450000 0.03451200 55702.76242089 0 301.20266651 0 19789.01253213 0 -4635.53950857 0 -1318.55887335 0 1339
0.03550000 0.03553350 54439.63160558 0 3526.69046729 0 23720.46290548 0 -2640.89340947 0 -4522.02603453 0 1365
0.03650000 0.03647120 52716.55641731 0 3664.89522567 0 24297.77392153 0 -6368.69051244 0 -5227.73172917 0 1308
0.03750000 0.03744890 49973.49866673 0 2604.74226894 0 24773.55171898 0 4121.80578164 0 -5116.46593707 0 1579
0.03850000 0.03847530 48380.41257183 0 1545.09863914 0 22416.03231860 0 6324.43443014 0 -2653.79266788 0 1662
0.03950000 0.03950240 49291.55418115 0 -2008.50864978 0 20700.59703444 0 8112.00591048 0 -3287.67219143 0 1683
0.04050000 0.04050350 48893.94699692 0 -576.05319994 0 17903.50633876 0 8549.90528474 0 -1290.12514322 0 1822
0.04150000 0.04152450 49627.82068590 0 1895.69273220 0 16990.03954122 0 1590.36230300 0 1178.80398949 0 1887
0.04250000 0.04250150 47064.35604388 0 2371.81377173 0 15581.52910104 0 6061.98711496 0 8096.67074061 0 1920
0.04350000 0.04349210 44950.87068250 0 1937.35789049 0 15721.59401000 0 1554.62083849 0 7161.92293477 0 2005
0.04450000 0.04448520 43860.68958086 0 1532.23259770 0 16900.02154044 0 -2631.85839242 0 7165.72074218 0 2151
0.04550000 0.04548030 42653.25255938 0 1589.81975909 0 16949.07193939 0 -899.27982775 0 6447.31509097 0 2274
0.04650000 0.04648670 41995.88863490 0 1792.16649515 0 16247.75088538 0 -1143.22860985 0 5238.29472705 0 2311
0.04750000 0.04749250 40445.98460678 0 774.03190386 0 16930.91332669 0 -1276.79406414 0 3372.65228441 0 2568
0.04850000 0.04851840 40690.35081553 0 1535.56536747 0 17999.39267169 0 168.36909289 0 550.57799500 0 2493
0.04950000 0.04949480 36967.28159526 0 1628.18536458 0 16547.36799497 0 -59.08391825 0 -1279.96074904 0 2644
0.05050000 0.05050630 36605.43802019 0 1263.79515480 0 15716.39001733 0 1122.56765174 0 -3362.55432417 0 2829
0.05150000 0.05149060 36670.32184363 0 -1958.93785156 0 15772.85887391 0 1738.82003417 0 -2717.66890976 0 2784
0.05250000 0.05249300 37951.83271814 0 -658.67931667 0 14717.99848843 0 2802.91473854 0 -6531.58655517 0 3055
0.05350000 0.05348950 37829.37280564 0 652.07246045 0 12882.53920325 0 709.19236973 0 -1945.66213411 0 3009
0.05450000 0.05448610 36847.92193372 0 528.38905607 0 13158.68298422 0 892.25665212 0 -3051.92025139 0 3336
0.05550000 0.05550870 37631.73180763 0 -189.37993647 0 12324.71547888 0 3789.75783265 0 2058.19017124 0 3349
0.05650000 0.05647670 37542.59959284 0 -101.69852840 0 9051.61446692 0 3958.07931455 0 1237.88591472 0 3324
0.05750000 0.05747970 37205.22585562 0 194.79208884 0 9365.32664601 0 3659.81302858 0 1699.44684711 0 3639
0.05850000 0.05849280 35898.91297351 0 970.75500615 0 8275.83202850 0 471.64449860 0 2141.17724575 0 3846
0.05950000 0.05951020 36049.49659105 0 1461.91226278 0 9474.51084104 0 1745.81774346 0 1783.51900946 0 3787
0.06050000 0.06049470 34132.32354870 0 1111.27388042 0 5969.78786620 0 -1211.40091376 0 3893.51658853 0 3930
0.06150000 0.06148310 33387.82042789 0 658.92069335 0 8126.11205230 0 -696.35511633 0 1892.81392775 0 4083
0.06250000 0.06249100 33383.94511420 0 521.19204493 0 8055.43740298 0 -416.37034588 0 2331.28906289 0 4303
0.06350000 0.06350600 33133.15695706 0 483.84398609 0 8094.94345794 0 777.78874368 0 795.43470774 0 4470
0.06450000 0.06451750 32713.40512319 0 118.54473844 0 8995.83209448 0 -679.96364667 0 899.29643624 0 4479
0.06550000 0.06550280 32695.80012673 0 1052.65477837 0 8157.04812785 0 -2139.00707009 0 -236.66208514 0 4636
0.06650000 0.06648880 31091.30953726 0 1283.39316973 0 9120.66148449 0 1051.95832914 0 -271.69934979 0 4653
0.06750000 0.06749660 30952.68403053 0 606.61503091 0 8304.60900070 0 -340.42416271 0 226.75678336 0 5220
0.06850000 0.06852730 30326.43333878 0 -105.48061311 0 8941.89880029 0 1848.40283290 0 -409.48114537 0 5029
0.06950000 0.06949320 30757.92183697 0 -280.34351378 0 7345.14776587 0 1233.09159808 0 -2269.62728598 0 5040
0.07050000 0.07048030 29859.51340118 0 158.20912764 0 9210.70162991 0 360.49496591 0 -1815.54017284 0 5475
0.07150000 0.07148790 30016.62969036 0 697.76905221 0 7863.02254229 0 786.74514722 0 -1429.02745807 0 5509
0.07250000 0.07249820 29181.22278279 0 671.12460977 0 7113.39293509 0 998.52771849 0 -361.78821345 0 5916
0.07350000 0.07351270 28341.27622205 0 877.03552719 0 5950.66596123 0 1740.10442385 0 472.06856864 0 5721
0.07450000 0.07449140 27467.55907061 0 1122.61194104 0 6197.77810654 0 558.30979942 0 331.24741990 0 6028
0.07550000 0.07549160 26186.15891935 0 1147.98970952 0 5678.48607254 0 -189.05219565 0 -1262.56612675 0 6183
0.07650000 0.07648840 25287.86120681 0 960.75005344 0 6130.55802256 0 67.72686428 0 130.34230053 0 6330
0.07750000 0.07749960 24737.78810982 0 407.59109953 0 5835.40305987 0 -1622.69349147 0 -1241.01938265 0 6583
0.07850000 0.07848650 24288.58389193 0 401.94975003 0 6629.49912354 0 -96.90852996 0 -1916.36476264 0 6549
0.07950000 0.07947320 24602.48430054 0 -158.01314749 0 6126.83772142 0 -969.03658134 0 -3019.11295295 0 6828
0.08050000 0.08048110 24171.66014184 0 -153.76691092 0 6240.53942499 0 68.56991109 0 -1233.89987779 0 7147
0.08150000 0.08149960 24690.62000609 0 159.54555724 0 7891.85487611 0 773.43289109 0 -2182.67631917 0 7386
0.08250000 0.08250610 24629.61149634 0 552.87328794 0 7192.15038152 0 845.70306242 0 -1540.45933504 0 7227
0.08350000 0.08350160 24005.35382307 0 1013.48753656 0 7592.56993627 0 -885.83802542 0 -1748.51939071 0 7798
0.08450000 0.08449610 23167.17883429 0 1386.06683777 0 8397.28435944 0 -1407.07103795 0 -888.94824146 0 7371
0.08550000 0.08548940 22492.76352959 0 834.97840860 0 9453.69487038 0 -393.88356140 0 921.48980410 0 8256
0.08650000 0.08650700 22012.33535571 0 -34.42230774 0 9513.64043695 0 489.63924090 0 690.31073421 0 8037
0.08750000 0.08749060 22171.22321686 0 -162.19405734 0 8699.17129562 0 2253.47276407 0 170.59352295 0 8155
0.08850000 0.08849210 21922.98169442 0 -68.70875805 0 7647.63260759 0 2051.51355937 0 -1122.08046945 0 8718
0.08950000 0.08949900 21686.03394330 0 744.74560472 0 7290.19581779 0 1008.96892080 0 -855.81652391 0 8571
0.09050000 0.09049190 20528.86527651 0 893.92303700 0 6863.95560158 0 615.68658663 0 -304.05932631 0 8932
0.09150000 0.09150830 19819.01853238 0 774.68074210 0 5980.02976665 0 57.35519618 0 580.77333202 0 9285
0.09250000 0.09250820 19165.41919834 0 240.74334407 0 6154.85070321 0 290.16577313 0 452.66985556 0 9204
0.09350000 0.09350330 19559.48323864 0 -402.87096746 0 6860.11350486 0 -419.53038738 0 -1000.50966464 0 9349
0.09450000 0.09448040 19472.89765855 0 284.93520688 0 7402.25881728 0 -972.72477274 0 304.10693731 0 9564
0.09550000 0.09549270 19443.66672103 0 1052.43554634 0 7812.26700532 0 -1337.00536650 0 -310.98506548 0 10155
0.09650000 0.09649430 18604.60594628 0 704.06588334 0 7582.28374651 0 -445.69871985 0 795.15900685 0 9913
0.09750000 0.09749140 18498.86524426 0 21.52570668 0 7999.84326007 0 670.30525773 0 -138.40738193 0 10476
0.09850000 0.09850240 18470.52009272 0 -365.68456455 0 6911.17906693 0 1496.86759223 0 -601.15969647 0 10575
0.09950000 0.09950330 18501.07970922 0 -195.82402951 0 7246.18332664 0 1974.04050262 0 -1190.77317262 0 10882
0.10050000 0.10051200 18325.47263760 0 356.26865953 0 5687.76468074 0 633.93820686 0 -1753.96697452 0 10875
0.10150000 0.10150300 17717.49128181 0 1049.91991414 0 5834.92694990 0 624.46583298 0 -1112.87936752 0 11118
0.10250000 0.10250800 16962.58017567 0 644.98617257 0 5577.14108348 0 -680.14080387 0 -427.20350848 0 11575
0.10350000 0.10349800 16495.66023807 0 396.31615116 0 5720.46125593 0 370.00387846 0 -658.27406958 0 11364
0.10450000 0.10450100 16526.77347081 0 77.52210716 0 6179.73021708 0 -121.38478975 0 -1563.93266366 0 12093
0.10550000 0.10551000 16048.11686890 0 275.27460348 0 5395.70996900 0 81.06547254 0 -1794.00450107 0 12067
0.10650000 0.10649700 16040.47696477 0 360.65662185 0 5121.01666257 0 81.69393770 0 -1979.99741337 0 12054
0.10750000 0.10749900 15645.74858499 0 196.76739158 0 4338.66833554 0 342.03297151 0 -1299.42589607 0 12807
0.10850000 0.10850100 15555.06624472 0 299.72118945 0 4361.03443167 0 729.30967669 0 -1526.56356740 0 12736
0.10950000 0.10950300 14967.79013634 0 421.13587448 0 4002.92223006 0 589.54814943 0 -1205.86475135 0 12933
0.11050000 0.11050200 14979.08390766 0 343.32511181 0 4689.26242859 0 140.98391192 0 -1015.14284912 0 13428
0.11150000 0.11150900 14429.89659665 0 306.35683371 0 4165.38645213 0 61.19817867 0 -668.80606495 0 13453
0.11250000 0.11250000 14674.26280540 0 244.27873738 0 5272.85145281 0 -419.98656716 0 401.58768501 0 13668
0.11350000 0.11349100 14375.08858880 0 51.10066133 0 5143.59313288 0 -47.67255885 0 961.63583943 0 13791
0.11450000 0.11448600 14565.97546867 0 137.13517181 0 5887.44298652 0 -161.67033637 0 1366.24737635 0 14205
0.11550000 0.11549300 14666.18000828 0 -153.34505534 0 5965.94576948 0 629.93445421 0 1518.50291493 0 14776
0.11650000 0.11649800 14648.24284208 0 -60.82880592 0 5743.59134248 0 614.59042648 0 2307.01852689 0 14553
0.11750000 0.11747300 14567.96848714 0 45.25403094 0 5415.69551530 0 696.26321604 0 1834.67315012 0 14568
0.11850000 0.11849100 14754.64788358 0 38.51729635 0 5165.31703417 0 852.15490609 0 2517.76915749 0 16015
0.11950000 0.11950300 14409.63424223 0 205.21557542 0 5181.15045866 0 808.47569191 0 2690.76316045 0 15270
0.12050000 0.12050700 14355.71202037 0 164.62553987 0 4691.76477400 0 661.33667463 0 2623.33270231 0 15999
0.12150000 0.12150000 14026.31035701 0 291.32283107 0 4996.15405559 0 237.27327747 0 2687.44146301 0 15670
0.12250000 0.12250700 13789.47332914 0 481.68266828 0 4608.81091646 0 -315.28887814 0 2007.42356195 0 16887
0.12350000 0.12352200 13404.04570221 0 485.62884485 0 5122.67751130 0 -377.77997218 0 2471.68614159 0 16407
0.12450000 0.12449800 13111.51488050 0 258.33394651 0 5089.15051174 0 -723.40037693 0 1579.48928003 0 16306
0.12550000 0.12549900 12817.98754955 0 209.15953752 0 5288.68487730 0 -64.92921997 0 1758.79450814 0 17523
0.12650000 0.12650100 12770.48727608 0 86.40067226 0 4846.85482774 0 470.78085727 0 954.33474844 0 17154
0.12750000 0.12750600 12781.00598466 0 -186.09809939 0 4331.81456647 0 815.15341101 0 939.57755393 0 18007
0.12850000 0.12850300 12896.60105577 0 -256.14826959 0 3710.90073529 0 1080.25365521 0 979.06478593 0 17496
0.12950000 0.12949900 13046.18816407 0 -137.26914694 0 3537.95102163 0 726.88262309 0 806.85470356 0 18405
0.13050000 0.13049000 12901.36215544 0 85.03866558 0 2716.50631566 0 400.11838751 0 269.54799708 0 18100
0.13150000 0.13148800 12897.04394876 0 255.68101748 0 2973.32888982 0 -215.57152082 0 449.03481132 0 19059
0.13250000 0.13249300 12748.89624269 0 176.98225437 0 2857.20234713 0 -628.06655301 0 610.19582076 0 18957
0.13350000 0.13349100 12436.98885254 0 329.22561339 0 2982.37497920 0 -630.39395569 0 392.12638345 0 19468
0.13450000 0.13450700 12454.70457225 0 353.11858312 0 3456.74659141 0 -267.41325286 0 77.98780914 0 19953
0.13550000 0.13551000 12041.37468677 0 248.59472960 0 3227.44981674 0 99.98021431 0 -513.30854966 0 19956
0.13650000 0.13649900 12056.32232528 0 84.95351940 0 3221.99116060 0 -337.17775707 0 -658.53094752 0 19723
0.13750000 0.13749600 11859.78855975 0 193.35379384 0 3493.96067512 0 -35.14920586 0 -144.36097099 0 20946
0.13850000 0.13851100 11905.73870775 0 143.16405267 0 3620.43984153 0 -39.39964991 0 -635.55698075 0 20955
0.13950000 0.13949800 11611.76848381 0 106.73975789 0 3339.61246715 0 89.45253715 0 134.52874655 0 20506
0.14050000 0.14048300 11568.14352403 0 174.83643782 0 3353.77397059 0 622.73079968 0 -54.84886473 0 21447
0.14150000 0.14148400 11424.86764087 0 318.73458562 0 3882.43319138 0 495.24183726 0 351.84305130 0 21771
0.14250000 0.14249400 11105.09890011 0 271.76799821 0 3247.45750768 0 617.57552525 0 576.75407811 0 22470
0.14350000 0.14350900 10966.96057567 0 117.85050367 0 3607.71774031 0 -2.08067806 0 798.60249987 0 22519
0.14450000 0.14449900 10892.57669754 0 161.34148833 0 3369.76240763 0 38.66112585 0 731.93271044 0 22218
0.14550000 0.14550500 10807.85126803 0 27.17248161 0 3769.60620148 0 14.66540495 0 985.38486893 0 23559
0.14650000 0.14650700 10650.38066446 0 216.05205972 0 3390.14655762 0 -90.05730753 0 908.96700473 0 23044
0.14750000 0.14750500 10654.98675158 0 254.91370537 0 3473.88655023 0 -58.47272592 0 453.23454413 0 23649
0.14850000 0.14849900 10426.97436659 0 148.39129722 0 3333.85485824 0 -161.22522892 0 163.17727978 0 23640
0.14950000 0.14949500 10363.45243911 0 189.25260473 0 3546.66494126 0 -212.91637733 0 123.32798276 0 24457
0.15050000 0.15050000 10107.41600000 0 117.33342610 0 3442.05361637 0 84.18321777 0 -27.73373776 0 24591
0.15150000 0.15149900 10020.56468412 0 58.59407860 0 3345.75760742 0 468.87863186 0 24.42709868 0 25020
0.15250000 0.15250500 10012.06113866 0 62.24218818 0 3122.10771841 0 923.25473268 0 2.93538403 0 25297
0.15350000 0.15350100 9776.29812630 0 135.67583940 0 2541.91789792 0 748.24556659 0 655.14060166 0 25452
0.15450000 0.15450400 9717.84732358 0 234.50741073 0 2307.95967450 0 239.09799660 0 459.58120071 0 26061
0.15550000 0.15549900 9464.72290590 0 138.12946658 0 2206.31573266 0 213.81434288 0 868.13559250 0 26128
0.15650000 0.15649500 9271.62156107 0 291.55424266 0 2215.17359252 0 -80.53012564 0 832.02763403 0 26331
0.15750000 0.15749700 9120.20751917 0 230.88565328 0 2047.84861986 0 -129.73221544 0 670.03620024 0 27345
0.15850000 0.15849900 8921.04961266 0 73.98937120 0 2134.01345160 0 -81.79602454 0 311.84206342 0 26980
0.15950000 0.15949700 8861.90125348 0 32.65361457 0 2101.05114061 0 60.09448934 0 257.61645986 0 27777
0.16050000 0.16050000 8947.90000034 0 51.10099350 0 2335.56298027 0 30.28712659 0 -115.69140033 0 28224
0.16150000 0.16150500 8855.39072648 0 -29.71501956 0 2035.96801533 0 315.68858907 0 250.70400747 0 28075
0.16250000 0.16249700 8954.00085132 0 11.27406258 0 2122.81933121 0 124.76406329 0 468.53538979 0 28590
0.16350000 0.16349900 8914.92661703 0 -11.70377950 0 2080.35696553 0 11.90020255 0 320.57369878 0 29163
0.16450000 0.16449100 9019.32756775 0 77.07279221 0 2415.09548944 0 -29.35284382 0 546.17342419 0 28996
0.16550000 0.16550500 8939.78398625 0 209.88588203 0 2559.94364272 0 -424.04678867 0 604.72830676 0 30777
0.16650000 0.16650700 8890.88859985 0 221.16968825 0 2930.44577580 0 -293.47086209 0 616.46829277 0 29211
0.16750000 0.16749900 8745.02179269 0 47.17696159 0 2845.69820164 0 -142.09446610 0 607.09667704 0 30922
0.16850000 0.16850800 8648.71471142 0 215.43865293 0 3038.42308743 0 -100.32290276 0 372.54386978 0 30867
0.16950000 0.16949900 8567.49920887 0 174.63049257 0 2979.34116220 0 256.52251417 0 626.40791876 0 30852
0.17050000 0.17049200 8484.45677273 0 90.19615448 0 2860.36903202 0 336.79908357 0 566.93071153 0 31257
0.17150000 0.17149500 8303.53498520 0 60.16346992 0 2597.30166666 0 445.61457019 0 620.83964660 0 32608
0.17250000 0.17250900 8259.34533685 0 117.31460315 0 2480.12325310 0 323.64183998 0 413.07965094 0 32361
0.17350000 0.17350400 8148.54458238 0 58.52509802 0 2378.84469799 0 153.63957918 0 967.62375269 0 32508
0.17450000 0.17449800 8158.76433819 0 -43.39410181 0 2115.72197100 0 349.64519482 0 504.79061018 0 32791
0.17550000 0.17549800 8155.02189240 0 -55.43946254 0 2246.49719943 0 -25.40412062 0 908.65255071 0 33633
0.17650000 0.17650100 8238.13076249 0 -3.45900535 0 2071.23336988 0 123.04010231 0 473.74270416 0 33984
0.17750000 0.17750300 8215.12247152 0 91.62990982 0 2142.24018894 0 2.21029070 0 644.62964371 0 34069
0.17850000 0.17849800 8074.94683932 0 184.41953495 0 1869.80563677 0 -56.97010072 0 428.78574369 0 34536
