### header ###
fiducial parameters:
Omega_m = 0.31
Omega_nu = 0
Omega_de = 0.69
Omega_k = 0
H_0 = 100
w_de = -1
zeff = 0
beta = 0
fgrowth = 0
b_1 = 2
gamma = 0.55
Lx = 3500 Ly = 3500 Lz = 3500
nx = 700 ny = 700 nz = 700
xoffset = -685.467585 yoffset = -31.7331281 zoffset = 572.489161
bins = 400 dk = 0.001
kx_ny = 0.628318531 ky_ny = 0.628318531 kz_ny = 0.628318531
############################
A(data) = 8.04535175 (not used)
A(ran) = 8.04964486 (used)
Ngal = 478153
weighted Ngal = 0
Nran = 23820508
weighted Nran = 0
SN(data) = 3477.90778
SN(ran) = 70.115326
SN(data+ran) = 3548.02311
############################
13 columns: k_central k_mean P_0(k) sigma^{lin}_{P_0(k)} P^img_1(k) sigma^{lin}_{P_1(k)} P_2(k) sigma^{lin}_{P_2(k)} P^img_3(k) sigma^{lin}_{P_3(k)} P_4(k) sigma^{lin}_{P_4(k)} N_modes
### header ###
0.00050000 0 0 0 0 0 0 0 0 0 0 0 0
0.00150000 0.00179520 37679.56425085 0 -49707.87359433 0 -90758.29641297 0 125158.23805253 0 -80030.87451242 0 3
0.00250000 0.00253879 63183.11434512 0 -42373.67635771 0 -20888.05149362 0 13867.31177262 0 117581.44617913 0 6
0.00350000 0.00331552 90884.29946941 0 -37824.50098272 0 -10705.93051807 0 -137561.45631438 0 10201.04357867 0 7
0.00450000 0.00420575 108129.88826744 0 -21447.64678996 0 -41023.51706933 0 -33661.41757416 0 22172.55189584 0 24
0.00550000 0.00557378 100560.95774466 0 -3858.63876535 0 -41674.56976866 0 -25214.23024677 0 3247.18069956 0 45
0.00650000 0.00659388 114586.38231569 0 -2442.26697455 0 -45577.78571373 0 -25792.31632555 0 -28069.89354074 0 40
0.00750000 0.00754703 99727.21168582 0 7067.42064244 0 -26572.58305552 0 -24204.87711630 0 254.22832846 0 57
0.00850000 0.00846663 84694.20555629 0 13128.34481422 0 -20261.24718564 0 -41091.27969722 0 2911.45673874 0 75
0.00950000 0.00948925 84272.34998070 0 -232.72033750 0 -26285.03477998 0 -14435.10058932 0 12152.31938146 0 112
0.01050000 0.01054430 78320.86466743 0 3787.02296842 0 -9851.84459854 0 -5018.45371778 0 -881.90845734 0 105
0.01150000 0.01145670 79983.59568545 0 1677.60115025 0 -13936.51380273 0 -18099.26504155 0 -13104.87148561 0 144
0.01250000 0.01249090 67865.60051093 0 7583.34668969 0 -2461.94249575 0 -5488.98323327 0 -6982.75057455 0 169
0.01350000 0.01339930 61594.01428715 0 6472.00637532 0 -9232.23730169 0 -3597.05509151 0 -12242.00521249 0 180
0.01450000 0.01448870 64123.26544547 0 -9530.52573230 0 -9443.12080018 0 25.96183362 0 -23528.91168612 0 267
0.01550000 0.01550050 67186.97772279 0 -9418.70632396 0 1840.01001069 0 -10775.11040354 0 -28644.32575233 0 238
0.01650000 0.01653350 78988.96874699 0 -3222.27904105 0 5998.95236977 0 -22758.49932524 0 -27167.38834478 0 315
0.01750000 0.01747870 75526.09915996 0 3659.25941234 0 22415.92159535 0 -20518.67873767 0 -11124.58619179 0 297
0.01850000 0.01844180 77147.30895990 0 7322.88132066 0 18174.44612707 0 -9273.71423046 0 -12796.17506966 0 388
0.01950000 0.01947590 79537.49171850 0 4228.02259362 0 32170.08614434 0 -1267.53760059 0 -10118.44403552 0 399
0.02050000 0.02045430 70822.57557700 0 3668.08405522 0 33346.52065632 0 9186.55288948 0 -10103.37460144 0 462
0.02150000 0.02154770 73045.45550759 0 -1823.03613674 0 33312.08572613 0 3717.04587557 0 -16088.75230098 0 571
0.02250000 0.02255340 69994.47640381 0 3195.53937661 0 27641.50529351 0 4762.19583217 0 -11594.38493385 0 510
0.02350000 0.02348930 75118.85905313 0 3366.24140834 0 29860.62063366 0 -5768.55943494 0 -10216.11301275 0 555
0.02450000 0.02439640 63426.92693763 0 4132.90025111 0 32324.87724530 0 -2556.81017480 0 1263.71764853 0 592
0.02550000 0.02547300 65115.01357948 0 6965.35595226 0 29703.72579098 0 -4594.52761745 0 -9233.77635483 0 837
0.02650000 0.02652900 58522.66210571 0 6036.97473320 0 31187.86020967 0 3851.74070699 0 -5340.95732277 0 723
0.02750000 0.02749970 55232.52078585 0 1111.43996530 0 32793.90092462 0 3673.75308553 0 -2594.06854781 0 826
0.02850000 0.02848090 53144.39104830 0 2730.19170913 0 32298.19294249 0 12688.10917943 0 -727.68093771 0 831
0.02950000 0.02946900 56334.43855180 0 -1947.62193560 0 30320.78645313 0 9964.04046592 0 7560.81450869 0 996
0.03050000 0.03053250 56805.45524958 0 -2818.19454679 0 22343.06569804 0 10545.03856613 0 1876.63726119 0 1041
0.03150000 0.03150510 58247.18266422 0 -1241.56192656 0 25002.52739623 0 1468.26777723 0 3411.81509729 0 1036
0.03250000 0.03246190 58128.04444917 0 1609.67243749 0 23905.48145320 0 1583.89606531 0 180.39474488 0 1059
0.03350000 0.03345080 55596.68954913 0 2153.48967095 0 22925.80215325 0 -4874.46920584 0 5396.92792473 0 1302
0.03450000 0.03451200 54224.60705760 0 797.12766620 0 20609.02890819 0 -1978.15940745 0 5858.59958037 0 1339
0.03550000 0.03553350 56154.07038050 0 233.27616821 0 28716.84947990 0 3190.74505996 0 5521.15940919 0 1365
0.03650000 0.03647120 54897.02934384 0 794.80469246 0 24612.56011612 0 6705.21168065 0 4735.16828729 0 1308
0.03750000 0.03744890 52238.45343164 0 2117.53783227 0 27782.78815820 0 4378.16331817 0 11700.01491262 0 1579
0.03850000 0.03847530 52450.93134491 0 3876.13303856 0 28573.13070375 0 4233.79127485 0 15114.49844019 0 1662
0.03950000 0.03950240 49612.20870790 0 1374.10872697 0 29658.99359872 0 4861.01633118 0 20792.49733044 0 1683
0.04050000 0.04050350 49955.00788429 0 972.90414440 0 28587.19255627 0 6403.60155259 0 22933.88495037 0 1822
0.04150000 0.04152450 47773.42772527 0 2040.08692016 0 25137.16686603 0 8412.88526511 0 19894.31034115 0 1887
0.04250000 0.04250150 46747.35538432 0 1838.45988521 0 26379.14954094 0 5417.89890794 0 23082.69699593 0 1920
0.04350000 0.04349210 42568.65999777 0 1766.01366392 0 18972.76074650 0 4718.15012405 0 17413.55596553 0 2005
0.04450000 0.04448520 42311.33916898 0 411.38004908 0 15625.70767707 0 3920.69914596 0 13530.71309813 0 2151
0.04550000 0.04548030 42820.88755714 0 -420.53021831 0 13537.91010926 0 -1680.24743588 0 9345.80613735 0 2274
0.04650000 0.04648670 41528.74725080 0 -205.56103196 0 15056.25801164 0 -3400.68741085 0 5515.72289771 0 2311
0.04750000 0.04749250 42298.27382570 0 1999.39612645 0 15446.00384526 0 -3617.48353080 0 4909.75670503 0 2568
0.04850000 0.04851840 39806.77929500 0 2261.97630953 0 17923.99013967 0 -1622.32810475 0 4568.30835228 0 2493
0.04950000 0.04949480 39128.37795337 0 2552.89057181 0 19362.94947310 0 2186.97238120 0 4943.30584923 0 2644
0.05050000 0.05050630 37815.97529261 0 58.83423733 0 19145.26756717 0 3393.22466392 0 3522.21724806 0 2829
0.05150000 0.05149060 38146.81635819 0 -164.74290651 0 15716.16857083 0 3559.29846388 0 1630.32232327 0 2784
0.05250000 0.05249300 37978.51702095 0 1055.09179706 0 16358.25268707 0 1710.54131658 0 993.09674317 0 3055
0.05350000 0.05348950 35536.18361245 0 877.68990158 0 13587.07123146 0 2455.33231783 0 1729.90681269 0 3009
0.05450000 0.05448610 34465.37907924 0 303.27540571 0 9877.41059654 0 2525.95160553 0 -190.64882489 0 3336
0.05550000 0.05550870 35407.74464456 0 -954.98247945 0 9082.36231294 0 1871.57720875 0 -5873.35898935 0 3349
0.05650000 0.05647670 33650.56669584 0 -479.79815860 0 5435.28245790 0 1222.21857511 0 -4745.17766893 0 3324
0.05750000 0.05747970 36006.20380100 0 712.69786776 0 8213.43947815 0 -789.99708902 0 -5683.01465339 0 3639
0.05850000 0.05849280 34252.67971948 0 848.32609617 0 7287.09556684 0 -2326.10721488 0 -3061.71925885 0 3846
0.05950000 0.05951020 34032.45117883 0 1972.05855647 0 8747.49092112 0 -1353.69136000 0 -4479.49723491 0 3787
0.06050000 0.06049470 33498.76512257 0 1690.03537102 0 11834.65438241 0 -2672.06200383 0 -1509.03607721 0 3930
0.06150000 0.06148310 32019.50252680 0 1414.71094208 0 13054.16023794 0 -197.27671853 0 -1507.40844546 0 4083
0.06250000 0.06249100 31283.41437286 0 486.07838124 0 12212.22065873 0 1991.98874115 0 308.43621631 0 4303
0.06350000 0.06350600 31139.47415022 0 401.48360516 0 12504.75148043 0 2065.50897794 0 -1195.44569369 0 4470
0.06450000 0.06451750 29823.97123851 0 885.56786069 0 11596.59939881 0 2937.47670206 0 -1616.24939843 0 4479
0.06550000 0.06550280 28980.37081058 0 167.87858890 0 9761.89303171 0 1115.85782290 0 -1212.55243554 0 4636
0.06650000 0.06648880 29717.12330401 0 -422.76129176 0 8048.76079112 0 985.40479912 0 151.73956824 0 4653
0.06750000 0.06749660 30202.86619381 0 -1275.46538516 0 7941.29280643 0 1182.60179691 0 -1717.19578380 0 5220
0.06850000 0.06852730 30505.25138460 0 -134.53760441 0 8772.03826525 0 482.27393043 0 -1191.38215049 0 5029
0.06950000 0.06949320 30734.55923160 0 346.44529295 0 7310.62425708 0 791.83952387 0 -645.10021751 0 5040
0.07050000 0.07048030 30032.79528459 0 707.22481761 0 6196.78159730 0 582.68220081 0 -1087.74519018 0 5475
0.07150000 0.07148790 28883.82013816 0 1471.92164442 0 6121.94375385 0 1607.91193784 0 -1581.67052802 0 5509
0.07250000 0.07249820 27558.24141087 0 1071.66817455 0 6150.17818214 0 1001.96346088 0 -600.13107750 0 5916
0.07350000 0.07351270 26649.42498976 0 938.22230137 0 5652.76506199 0 854.12910160 0 -100.23786731 0 5721
0.07450000 0.07449140 25772.38614087 0 544.87131879 0 5757.21030200 0 1010.20348501 0 1883.97821254 0 6028
0.07550000 0.07549160 25752.01306321 0 133.78579355 0 5115.50264481 0 365.50851459 0 141.18542823 0 6183
0.07650000 0.07648840 25352.52358375 0 371.17311597 0 5527.28240482 0 -246.02484301 0 1485.64025487 0 6330
0.07750000 0.07749960 25187.32449746 0 761.82798745 0 5604.19077301 0 -607.97249793 0 480.71716156 0 6583
0.07850000 0.07848650 25172.26613570 0 80.55581343 0 6240.49513569 0 537.48054197 0 1718.21443768 0 6549
0.07950000 0.07947320 24735.57364486 0 -11.23453438 0 5290.34572602 0 360.44624768 0 723.74915517 0 6828
0.08050000 0.08048110 24718.85443438 0 618.62296718 0 5212.77301834 0 377.01487454 0 1155.89534944 0 7147
0.08150000 0.08149960 24559.52368024 0 326.88935285 0 6718.69777228 0 -287.82508366 0 225.88649863 0 7386
0.08250000 0.08250610 24418.79443179 0 336.45473426 0 7057.78771985 0 -1506.01333253 0 2048.82298444 0 7227
0.08350000 0.08350160 24271.20034196 0 613.31932359 0 8224.17963322 0 -2052.53221326 0 2147.97565319 0 7798
0.08450000 0.08449610 23964.27549799 0 506.24440643 0 8932.56483047 0 -120.26759218 0 3417.52841690 0 7371
0.08550000 0.08548940 24025.94834723 0 141.70914919 0 10555.92266143 0 553.99934337 0 3360.22913596 0 8256
0.08650000 0.08650700 23466.57449739 0 772.46849160 0 9441.51531308 0 1105.04016155 0 2845.53211677 0 8037
0.08750000 0.08749060 23205.48907817 0 278.04489915 0 9529.38528284 0 1294.80873662 0 2434.88173389 0 8155
0.08850000 0.08849210 22098.81021254 0 352.31473233 0 8241.99500385 0 697.03052815 0 2539.88059015 0 8718
0.08950000 0.08949900 21822.55570832 0 981.10873709 0 8548.76483528 0 800.81917930 0 1655.06896924 0 8571
0.09050000 0.09049190 20639.58852469 0 1285.40833285 0 6878.18353897 0 431.30691206 0 1329.59798120 0 8932
0.09150000 0.09150830 19774.83995636 0 387.71184755 0 6321.77707218 0 831.61795801 0 1629.21509079 0 9285
0.09250000 0.09250820 19297.06914043 0 -196.59577055 0 5924.82315511 0 977.16145329 0 997.09274520 0 9204
0.09350000 0.09350330 19562.58348958 0 66.14961161 0 5357.37758048 0 1124.50530858 0 -941.27383409 0 9349
0.09450000 0.09448040 19040.96626738 0 515.19638104 0 5370.12182634 0 546.35833201 0 242.81054711 0 9564
0.09550000 0.09549270 18670.92917194 0 554.14549806 0 4578.73848225 0 -447.53561854 0 810.42885001 0 10155
0.09650000 0.09649430 18380.05919895 0 185.33189451 0 5173.26696339 0 -415.03280904 0 1296.53601929 0 9913
0.09750000 0.09749140 18391.79586326 0 41.27353016 0 5239.40195953 0 270.23115952 0 276.28329227 0 10476
0.09850000 0.09850240 18156.17679112 0 108.89055698 0 5468.76516815 0 -166.53994483 0 333.32569527 0 10575
0.09950000 0.09950330 18492.44329586 0 199.29741781 0 5387.88183535 0 -439.61558460 0 -761.33637623 0 10882
0.10050000 0.10051200 17793.77959981 0 642.09740302 0 6528.69667839 0 -554.23739835 0 -16.82727637 0 10875
0.10150000 0.10150300 17480.87570043 0 1115.09383249 0 6602.61551888 0 -184.68084181 0 -391.69788448 0 11118
0.10250000 0.10250800 16508.61485811 0 677.21881735 0 6329.54984420 0 171.01537852 0 -46.73229702 0 11575
0.10350000 0.10349800 16229.37082618 0 207.33038946 0 6912.83991565 0 512.22899799 0 -11.00497187 0 11364
0.10450000 0.10450100 16240.99676724 0 228.26594123 0 6726.85807567 0 477.50508013 0 254.68229378 0 12093
0.10550000 0.10551000 15879.59608516 0 -10.55334281 0 6630.08595676 0 948.28261570 0 1798.59951587 0 12067
0.10650000 0.10649700 16148.87502475 0 -290.67399284 0 6451.46721278 0 864.47508191 0 1972.01426718 0 12054
0.10750000 0.10749900 16511.71510905 0 46.39957366 0 6249.41942949 0 985.82886916 0 1669.98339077 0 12807
0.10850000 0.10850100 16027.85451448 0 572.07823533 0 6324.81088918 0 206.59518709 0 1700.12225893 0 12736
0.10950000 0.10950300 15894.98661666 0 351.30825801 0 6469.00577529 0 -363.38373546 0 2245.55605182 0 12933
0.11050000 0.11050200 15563.14904184 0 -160.15342787 0 6201.22159956 0 17.58728074 0 2287.89662193 0 13428
0.11150000 0.11150900 15727.13017241 0 32.29896801 0 6213.72225428 0 -153.45910029 0 1351.13365297 0 13453
0.11250000 0.11250000 15879.59608516 0 -3.26288126 0 5567.64102878 0 408.73487068 0 998.51111001 0 13668
0.11350000 0.11349100 15622.93959586 0 53.39672933 0 5463.18471644 0 485.77721400 0 738.79976629 0 13791
0.11450000 0.11448600 15453.86519588 0 271.85325511 0 5092.95939148 0 1040.71549052 0 1406.21846894 0 14205
0.11550000 0.11549300 15336.49855280 0 222.19387830 0 4632.72713807 0 1326.04376493 0 733.46179850 0 14776
0.11650000 0.11649800 14823.96063695 0 134.33719533 0 4246.01512145 0 593.41903419 0 1469.88433665 0 14553
0.11750000 0.11747300 14951.95671185 0 267.20620038 0 3696.34062816 0 565.21228671 0 1424.27743072 0 14568
0.11850000 0.11849100 14689.09972066 0 90.42513016 0 3697.96825991 0 296.35298824 0 1827.35434342 0 16015
0.11950000 0.11950300 14542.94503305 0 215.52280259 0 3663.36724485 0 -480.03510635 0 1559.86912045 0 15270
0.12050000 0.12050700 14357.59431559 0 434.17242972 0 3735.51451337 0 -325.41894812 0 802.77898079 0 15999
0.12150000 0.12150000 13987.55722015 0 177.94333216 0 3490.29573561 0 -802.20543437 0 698.37913731 0 15670
0.12250000 0.12250700 14192.83812229 0 43.22137355 0 3540.88518770 0 -251.32516490 0 168.15428979 0 16887
0.12350000 0.12352200 14084.21861581 0 -139.16140725 0 4083.86092449 0 -183.62564926 0 -337.05706873 0 16407
0.12450000 0.12449800 14272.66958423 0 124.26913037 0 4269.43308845 0 4.70033475 0 -617.78479219 0 16306
0.12550000 0.12549900 13982.13178099 0 355.26329243 0 4270.60675488 0 -165.97747073 0 -367.11843062 0 17523
0.12650000 0.12650100 13593.60390310 0 456.87291006 0 4430.59077618 0 571.62869895 0 210.47492971 0 17154
0.12750000 0.12750600 13338.94043227 0 282.06415306 0 4365.33049370 0 235.77076299 0 -7.86047591 0 18007
0.12850000 0.12850300 13103.43208338 0 492.13826461 0 4144.24938405 0 477.90368382 0 419.48388361 0 17496
0.12950000 0.12949900 12705.27128290 0 418.78189822 0 4082.58760713 0 150.04882424 0 442.01274292 0 18405
0.13050000 0.13049000 12364.35440173 0 55.47633338 0 3967.19183787 0 158.04082830 0 614.27043629 0 18100
0.13150000 0.13148800 12560.00238128 0 -235.86487775 0 3852.62649297 0 69.17235629 0 54.66118883 0 19059
0.13250000 0.13249300 12599.75202738 0 -101.75344713 0 3954.24829016 0 50.87821833 0 -276.77379626 0 18957
0.13350000 0.13349100 12663.63934158 0 190.15278474 0 3992.20421964 0 86.37343434 0 103.92727666 0 19468
0.13450000 0.13450700 12521.02779792 0 231.18349882 0 3843.62469290 0 -287.42980166 0 313.06001915 0 19953
0.13550000 0.13551000 12427.68809970 0 217.73173140 0 4046.24823708 0 2.42419694 0 219.17666979 0 19956
0.13650000 0.13649900 12256.84212775 0 167.88191060 0 4140.08618991 0 41.80334091 0 -96.95359432 0 19723
0.13750000 0.13749600 12044.69638422 0 233.08350976 0 3990.25549047 0 83.00124709 0 -119.18582605 0 20946
0.13850000 0.13851100 11811.40250029 0 272.29393364 0 4028.75396386 0 54.03161644 0 -439.53475663 0 20955
0.13950000 0.13949800 11546.33104413 0 306.42437489 0 3937.76159850 0 107.12961444 0 -423.05913730 0 20506
0.14050000 0.14048300 11243.50296034 0 419.15614280 0 3247.22498886 0 368.64973314 0 -598.03951534 0 21447
0.14150000 0.14148400 10988.51839209 0 127.95842900 0 3116.74871320 0 525.19579759 0 -455.11905381 0 21771
0.14250000 0.14249400 10703.26208779 0 -29.86604607 0 2706.00975173 0 564.98973299 0 -330.08039687 0 22470
0.14350000 0.14350900 10835.72030960 0 -49.52075130 0 2709.65254659 0 508.05805323 0 -759.00786632 0 22519
0.14450000 0.14449900 10728.41840978 0 128.52865373 0 2612.92471698 0 72.87383447 0 -211.79032190 0 22218
0.14550000 0.14550500 10771.78870609 0 121.26631588 0 2691.47178924 0 35.40807681 0 150.11304373 0 23559
0.14650000 0.14650700 10628.65676316 0 -26.73501406 0 2687.77363275 0 45.14474709 0 984.22227483 0 23044
0.14750000 0.14750500 10732.53731461 0 83.93464407 0 2665.62898311 0 466.97751369 0 818.97447030 0 23649
0.14850000 0.14849900 10629.67541705 0 189.03337270 0 2914.52377271 0 234.56166512 0 783.37140985 0 23640
0.14950000 0.14949500 10495.82208231 0 173.42803810 0 2798.87333998 0 124.69984381 0 912.17797893 0 24457
0.15050000 0.15050000 10406.53485498 0 185.77257304 0 3003.46775798 0 -236.86249422 0 1216.08450716 0 24591
0.15150000 0.15149900 10354.59457925 0 168.19415016 0 2893.07667954 0 -195.87496220 0 1040.35453273 0 25020
0.15250000 0.15250500 10266.73568182 0 90.98140376 0 3065.61671719 0 35.66462258 0 1109.85662285 0 25297
0.15350000 0.15350100 10136.33691243 0 45.85769409 0 2869.29332583 0 -204.72507143 0 406.22920357 0 25452
0.15450000 0.15450400 9991.28945730 0 272.42347984 0 3090.85054545 0 -130.13081913 0 81.13190649 0 26061
0.15550000 0.15549900 9713.20801948 0 429.74239256 0 2740.32288634 0 -61.24003206 0 -3.01259135 0 26128
0.15650000 0.15649500 9467.87851848 0 187.88185092 0 2840.06238831 0 234.53066261 0 -72.25057331 0 26331
0.15750000 0.15749700 9307.18586838 0 41.24341344 0 2505.79997436 0 123.10875073 0 -360.17719019 0 27345
0.15850000 0.15849900 9184.55987102 0 138.73512275 0 2662.83875726 0 55.23019560 0 -1001.75308671 0 26980
0.15950000 0.15949700 9071.53357927 0 212.86101571 0 2461.33351789 0 -252.31503073 0 -551.61879354 0 27777
0.16050000 0.16050000 8967.54230457 0 138.68419005 0 2596.24979580 0 -107.42834577 0 -309.70178304 0 28224
0.16150000 0.16150500 8959.50379675 0 -16.15618276 0 2835.72203698 0 202.54935960 0 -27.41396902 0 28075
0.16250000 0.16249700 8989.90840070 0 -23.40611960 0 2737.58802211 0 346.27588638 0 -236.82152662 0 28590
0.16350000 0.16349900 9065.67631944 0 -5.43348874 0 2687.05393164 0 375.56661445 0 -133.59977849 0 29163
0.16450000 0.16449100 8936.21869766 0 189.09316325 0 2756.96459054 0 207.11226466 0 518.07297103 0 28996
0.16550000 0.16550500 8886.27144040 0 119.30319269 0 2680.04515003 0 315.34977593 0 662.50591213 0 30777
0.16650000 0.16650700 8771.47357668 0 74.32530553 0 2637.80423085 0 245.88976064 0 1056.23113928 0 29211
0.16750000 0.16749900 8719.59973491 0 115.60282173 0 2378.86684264 0 306.65467925 0 873.58539077 0 30922
0.16850000 0.16850800 8690.00341067 0 37.84354538 0 2442.10088968 0 51.80231456 0 910.30121987 0 30867
0.16950000 0.16949900 8572.98000966 0 76.05114880 0 2432.45689476 0 128.43896790 0 1038.48552430 0 30852
0.17050000 0.17049200 8669.36459720 0 -54.58080375 0 2196.82675029 0 -104.39253575 0 815.72474297 0 31257
0.17150000 0.17149500 8611.85494210 0 53.36683405 0 2243.31944221 0 32.10785968 0 718.31596538 0 32608
0.17250000 0.17250900 8644.69545751 0 187.22969099 0 2360.91860411 0 -178.29543209 0 339.05673060 0 32361
0.17350000 0.17350400 8361.80863072 0 290.27760361 0 2445.47794875 0 -102.93608214 0 598.03730087 0 32508
0.17450000 0.17449800 8211.23608551 0 304.05821908 0 2612.12750959 0 -137.46734155 0 424.75873916 0 32791
0.17550000 0.17549800 7940.34058650 0 164.64436282 0 2548.61665443 0 -30.30096699 0 649.15933179 0 33633
0.17650000 0.17650100 7944.82487805 0 62.80377650 0 2632.15734519 0 120.95407632 0 419.63003830 0 33984
0.17750000 0.17750300 7931.73739011 0 -61.01681399 0 2528.56467418 0 284.52885256 0 500.14355545 0 34069
