### header ###
fiducial parameters:
Omega_m = 0.31
Omega_nu = 0
Omega_de = 0.69
Omega_k = 0
H_0 = 100
w_de = -1
zeff = 0
beta = 0
fgrowth = 0
b_1 = 2
gamma = 0.55
Lx = 3500 Ly = 3500 Lz = 3500
nx = 700 ny = 700 nz = 700
xoffset = -685.467585 yoffset = -31.7331281 zoffset = 572.489161
bins = 400 dk = 0.001
kx_ny = 0.628318531 ky_ny = 0.628318531 kz_ny = 0.628318531
############################
A(data) = 8.06948793 (not used)
A(ran) = 8.0775822 (used)
Ngal = 480476
weighted Ngal = 0
Nran = 23820508
weighted Nran = 0
SN(data) = 3477.536
SN(ran) = 70.3586704
SN(data+ran) = 3547.89467
############################
13 columns: k_central k_mean P_0(k) sigma^{lin}_{P_0(k)} P^img_1(k) sigma^{lin}_{P_1(k)} P_2(k) sigma^{lin}_{P_2(k)} P^img_3(k) sigma^{lin}_{P_3(k)} P_4(k) sigma^{lin}_{P_4(k)} N_modes
### header ###
0.00050000 0 0 0 0 0 0 0 0 0 0 0 0
0.00150000 0.00179520 92452.80500321 0 -47358.21554457 0 48034.51314449 0 112226.86989684 0 -71875.55366725 0 3
0.00250000 0.00253879 166946.29915059 0 -46102.17101714 0 62236.54129638 0 -80377.99189549 0 58432.97627468 0 6
0.00350000 0.00331552 162015.79290884 0 12852.97609598 0 16410.73550671 0 732.95025709 0 47111.19197787 0 7
0.00450000 0.00420575 154122.33254563 0 49576.99871498 0 46540.63507996 0 -36304.27078512 0 47466.17071155 0 24
0.00550000 0.00557378 105537.63558090 0 44881.00431289 0 78636.97954100 0 20962.67896290 0 8469.47591725 0 45
0.00650000 0.00659388 105333.35118799 0 24906.30889356 0 143843.89341648 0 56440.84359331 0 23389.28967016 0 40
0.00750000 0.00754703 64820.48973930 0 14726.74562504 0 74897.19111026 0 69378.30152765 0 4236.33790956 0 57
0.00850000 0.00846663 70803.42045506 0 -6426.35518009 0 61572.53397700 0 90314.51763424 0 5319.27771078 0 75
0.00950000 0.00948925 72345.13096281 0 -19039.96975814 0 25962.05506502 0 56070.25288162 0 -9951.58410050 0 112
0.01050000 0.01054430 81451.89667965 0 -14009.92331628 0 7987.81871532 0 36702.87447859 0 1875.58539033 0 105
0.01150000 0.01145670 91540.66688465 0 -10913.91306747 0 -8176.19217746 0 -1608.00051644 0 -21902.71934001 0 144
0.01250000 0.01249090 87598.80852597 0 1558.33006730 0 -16356.25966860 0 -24427.98446139 0 -1079.99345558 0 169
0.01350000 0.01339930 90098.82874677 0 13516.42979911 0 -5064.60316762 0 -43945.06069597 0 -28263.65922507 0 180
0.01450000 0.01448870 75607.70219387 0 15647.29871046 0 1992.54235739 0 -37761.49945450 0 8133.49729296 0 267
0.01550000 0.01550050 78856.87591190 0 -3758.31243017 0 24438.72461647 0 -16566.96600990 0 16433.65521908 0 238
0.01650000 0.01653350 77037.80366745 0 -8793.15318868 0 33108.02277972 0 8547.04862493 0 7363.16243835 0 315
0.01750000 0.01747870 87736.10535372 0 -2263.96932799 0 30194.00833395 0 26312.38342228 0 -2605.74985050 0 297
0.01850000 0.01844180 86317.96199095 0 3416.02258072 0 30920.13139556 0 18006.03606658 0 10534.37591733 0 388
0.01950000 0.01947590 84424.70517021 0 5283.45873999 0 33148.87965830 0 14323.27010865 0 25147.24268161 0 399
0.02050000 0.02045430 83334.41334532 0 3378.08879590 0 39993.34796820 0 264.13695194 0 19503.67872155 0 462
0.02150000 0.02154770 80504.10567517 0 1534.51349662 0 40881.68058840 0 -1188.85766043 0 22361.55648049 0 571
0.02250000 0.02255340 79689.62546151 0 467.00408727 0 40758.22416667 0 -4068.09393394 0 18862.25894480 0 510
0.02350000 0.02348930 83114.29552792 0 -3578.57538139 0 41667.92637377 0 -232.85874156 0 -1480.91237217 0 555
0.02450000 0.02439640 81172.65264772 0 2870.34519669 0 51159.45537806 0 4098.36567000 0 1875.30858221 0 592
0.02550000 0.02547300 81306.51705478 0 9064.73517183 0 34537.34919056 0 -2448.71106759 0 -9559.97811632 0 837
0.02650000 0.02652900 70163.88297354 0 5315.36918011 0 38705.52586854 0 2644.49191504 0 271.67720515 0 723
0.02750000 0.02749970 67013.25294639 0 7040.00556619 0 29264.70811192 0 10580.12676348 0 -7691.27971202 0 826
0.02850000 0.02848090 58414.04259924 0 978.82230201 0 23847.79464090 0 16228.37431695 0 -8539.58587801 0 831
0.02950000 0.02946900 59169.06442862 0 1950.06891938 0 15686.38401707 0 9078.83024132 0 -18303.99232745 0 996
0.03050000 0.03053250 55964.95507260 0 943.53037389 0 9391.49054955 0 7240.00496939 0 -8564.70898302 0 1041
0.03150000 0.03150510 55388.41911929 0 235.36773037 0 8926.01001418 0 530.27356575 0 -6929.89129587 0 1036
0.03250000 0.03246190 55270.05596698 0 458.60572890 0 6021.94958842 0 1945.58462783 0 -4570.91034861 0 1059
0.03350000 0.03345080 54216.63498374 0 -474.55430556 0 10728.46269908 0 705.39788401 0 810.06789222 0 1302
0.03450000 0.03451200 54908.87673140 0 2125.13344709 0 9337.20294097 0 86.63518410 0 -2385.23342941 0 1339
0.03550000 0.03553350 54006.48225868 0 2422.42536847 0 14318.84117872 0 -4272.56655637 0 6655.93983521 0 1365
0.03650000 0.03647120 52440.52335958 0 1495.52784093 0 16560.43333826 0 -1637.01000746 0 5333.42814189 0 1308
0.03750000 0.03744890 50973.88321410 0 1287.04703692 0 18078.22762440 0 691.36149784 0 9639.55491479 0 1579
0.03850000 0.03847530 50801.93000966 0 700.01009075 0 18383.82378939 0 2776.19721875 0 4523.95261905 0 1662
0.03950000 0.03950240 49440.36622672 0 634.18733417 0 23197.07411130 0 2461.44424113 0 6983.22668452 0 1683
0.04050000 0.04050350 50797.72252623 0 1307.11008949 0 20178.86908899 0 -2120.81524041 0 5526.51841441 0 1822
0.04150000 0.04152450 46981.53505424 0 3908.02133404 0 21933.94329599 0 -954.24174092 0 5496.75600529 0 1887
0.04250000 0.04250150 46613.26953077 0 3973.12660397 0 24448.35753906 0 -761.06953320 0 11456.97738285 0 1920
0.04350000 0.04349210 43104.44979574 0 664.63844189 0 28245.16844262 0 2908.34541546 0 10850.92261157 0 2005
0.04450000 0.04448520 43405.83847731 0 35.25361788 0 25953.86154465 0 3377.23622688 0 8484.01387974 0 2151
0.04550000 0.04548030 40804.28503792 0 2030.31005735 0 25254.53350911 0 7439.60576890 0 7322.88132066 0 2274
0.04650000 0.04648670 40310.79152075 0 1610.23712605 0 22492.32063660 0 7550.86048867 0 11932.31228731 0 2311
0.04750000 0.04749250 39733.48050471 0 -951.62202886 0 17281.68457694 0 6274.85255960 0 9547.68783577 0 2568
0.04850000 0.04851840 38746.71491687 0 322.36298647 0 15203.18776199 0 926.79012599 0 7136.16870724 0 2493
0.04950000 0.04949480 38664.44754346 0 890.25588302 0 13526.28416820 0 2112.62172005 0 7356.27545231 0 2644
0.05050000 0.05050630 37839.11645148 0 692.73668058 0 14457.35596220 0 -556.48729476 0 7067.87460776 0 2829
0.05150000 0.05149060 37324.25334742 0 695.44164953 0 11091.59066383 0 1340.34920860 0 4339.22195178 0 2784
0.05250000 0.05249300 37718.98172720 0 -315.97425505 0 11036.90445155 0 1938.28796578 0 1811.75343775 0 3055
0.05350000 0.05348950 37838.78428174 0 156.64350091 0 11505.36344230 0 -755.50790444 0 2904.10471506 0 3009
0.05450000 0.05448610 37453.02448506 0 531.12945646 0 10376.79459051 0 1679.17342037 0 3493.50670980 0 3336
0.05550000 0.05550870 37201.35054193 0 543.33448011 0 12013.69387473 0 -612.17887413 0 2676.98918838 0 3349
0.05650000 0.05647670 37865.24713805 0 1185.50274601 0 11803.43042642 0 -782.82443700 0 1613.79134232 0 3324
0.05750000 0.05747970 35705.25801243 0 1400.00689472 0 13763.01047283 0 -3087.22989523 0 2063.44952553 0 3639
0.05850000 0.05849280 35229.36949173 0 1281.42229591 0 13272.17431361 0 361.50033300 0 3288.69084531 0 3846
0.05950000 0.05951020 34332.95407441 0 256.67420502 0 15016.72981204 0 499.08725567 0 1869.52882865 0 3787
0.06050000 0.06049470 34813.27152504 0 173.23427242 0 14229.26607094 0 3239.23077034 0 3431.44632920 0 3930
0.06150000 0.06148310 33833.26005534 0 495.47878501 0 13475.68364378 0 3643.42598785 0 1530.29494086 0 4083
0.06250000 0.06249100 33087.20680906 0 1487.48933311 0 11161.12486369 0 1481.68743491 0 2751.08518606 0 4303
0.06350000 0.06350600 31791.08046579 0 1016.78598212 0 12689.99147465 0 91.97304117 0 4218.45610498 0 4470
0.06450000 0.06451750 30734.89140134 0 454.69055484 0 13313.14191544 0 1491.63038259 0 4343.18584406 0 4479
0.06550000 0.06550280 31479.94813839 0 -352.92481743 0 11853.80950435 0 -69.06849788 0 2627.82806618 0 4636
0.06650000 0.06648880 30782.17022832 0 -215.67338621 0 12994.36968392 0 -29.36613061 0 2242.67724737 0 4653
0.06750000 0.06749660 31863.27202361 0 410.27724553 0 12233.36879913 0 -611.54553715 0 1807.04769970 0 5220
0.06850000 0.06852730 31204.02580391 0 -131.70973265 0 11683.40642539 0 -1960.53226634 0 -106.81161727 0 5029
0.06950000 0.06949320 31357.82039564 0 722.97630689 0 13241.72542036 0 209.79841066 0 -483.27486859 0 5040
0.07050000 0.07048030 30745.41010992 0 856.03354147 0 11443.69059306 0 1304.72953965 0 -1045.64046060 0 5475
0.07150000 0.07148790 29953.29599239 0 845.20812950 0 12038.05298933 0 1992.76380389 0 -312.83192926 0 5509
0.07250000 0.07249820 29122.31801476 0 800.99744373 0 11003.57675385 0 1640.36492188 0 577.36748490 0 5916
0.07350000 0.07351270 27889.74681594 0 597.51247268 0 10974.79978164 0 1089.02957986 0 2691.52715087 0 5721
0.07450000 0.07449140 27529.78553609 0 1078.93161963 0 10504.18168755 0 1670.26019889 0 1818.57398984 0 6028
0.07550000 0.07549160 27095.41823345 0 21.63355112 0 11243.61368359 0 628.76521671 0 1755.02991770 0 6183
0.07650000 0.07648840 26596.27783063 0 -562.49403097 0 11124.03257555 0 485.22249053 0 2319.82920670 0 6330
0.07750000 0.07749960 27938.79721489 0 41.97540483 0 10298.32502452 0 1070.17230346 0 -461.30516169 0 6583
0.07850000 0.07848650 27196.95145204 0 -36.95133745 0 9445.54563932 0 -535.45319930 0 -658.92955121 0 6549
0.07950000 0.07947320 27265.15697292 0 692.61156331 0 9904.24991190 0 -186.70486279 0 -1511.38341007 0 6828
0.08050000 0.08048110 26366.41636739 0 1331.60207199 0 9660.64769357 0 -1230.86606079 0 -1777.86105148 0 7147
0.08150000 0.08149960 25152.22522778 0 1527.29434083 0 10135.07466740 0 -278.97386720 0 -1313.75348438 0 7386
0.08250000 0.08250610 24571.92468404 0 767.80704285 0 10138.82818551 0 590.23352634 0 -628.40979508 0 7227
0.08350000 0.08350160 23938.47698116 0 296.74384130 0 10303.29649837 0 586.70809812 0 -857.17952709 0 7798
0.08450000 0.08449610 24247.94845984 0 -226.55083811 0 10835.35492288 0 1348.87489871 0 -792.43742941 0 7371
0.08550000 0.08548940 23357.40137468 0 543.14514335 0 10048.43372569 0 871.81049711 0 385.35233513 0 8256
0.08650000 0.08650700 23063.43115074 0 1580.03182395 0 9712.15614862 0 306.17081865 0 -397.25065538 0 8037
0.08750000 0.08749060 22008.68148852 0 843.92706151 0 10005.94921536 0 4.31068857 0 1170.13435916 0 8155
0.08850000 0.08849210 21197.74441880 0 332.43658759 0 9995.46372376 0 807.90878888 0 74.05547298 0 8718
0.08950000 0.08949900 20942.41660848 0 -86.01081570 0 8732.08931730 0 958.52673062 0 287.95573709 0 8571
0.09050000 0.09049190 21147.58678737 0 -76.80428834 0 8413.17314555 0 1415.82924689 0 -1547.97744360 0 8932
0.09150000 0.09150830 21086.46755437 0 123.75648173 0 7490.41666749 0 142.18636639 0 -860.02954350 0 9285
0.09250000 0.09250820 20532.40842045 0 874.36598967 0 8007.47209187 0 -431.23272748 0 -376.93072487 0 9204
0.09350000 0.09350330 19685.81846482 0 945.71051464 0 7960.35934977 0 -632.61727851 0 -252.36596343 0 9349
0.09450000 0.09448040 19516.96551133 0 345.36574128 0 8664.37097871 0 989.70529008 0 822.89296606 0 9564
0.09550000 0.09549270 18980.73282036 0 162.90047166 0 7977.03427094 0 783.73458210 0 440.13819833 0 10155
0.09650000 0.09649430 18972.53930000 0 154.96936539 0 7442.57315195 0 1576.17865491 0 459.34868189 0 9913
0.09750000 0.09749140 18714.22196198 0 106.69768305 0 6660.35769281 0 490.72986489 0 68.03157466 0 10476
0.09850000 0.09850240 18435.53154629 0 411.07666738 0 7161.36931853 0 56.09051524 0 1164.38782258 0 10575
0.09950000 0.09950330 18436.86022527 0 208.21728268 0 5844.15019648 0 275.51155123 0 758.11322247 0 10882
0.10050000 0.10051200 17688.26034428 0 227.44326749 0 6094.62832853 0 270.00971303 0 841.09365359 0 10875
0.10150000 0.10150300 18098.82214856 0 223.33543499 0 5625.36105806 0 696.58320622 0 27.38972063 0 11118
0.10250000 0.10250800 17523.06125799 0 185.42822374 0 5388.93370621 0 138.40073854 0 -468.67711555 0 11575
0.10350000 0.10349800 17217.57581624 0 231.31636672 0 5493.70004364 0 -155.38236311 0 -915.66576125 0 11364
0.10450000 0.10450100 17159.66755744 0 365.13980617 0 5852.31049987 0 -417.14430138 0 -1103.09032515 0 12093
0.10550000 0.10551000 16710.46333955 0 472.35977079 0 5769.31235303 0 -450.23172964 0 -416.47553296 0 12067
0.10650000 0.10649700 16374.63972780 0 425.13409097 0 5747.74346428 0 -72.42629110 0 -551.42281339 0 12054
0.10750000 0.10749900 16369.43573513 0 124.88364440 0 6029.96595159 0 627.72331094 0 -423.20861368 0 12807
0.10850000 0.10850100 15740.19551569 0 243.75723088 0 5672.18591972 0 569.87594993 0 -800.90665066 0 12736
0.10950000 0.10950300 15705.76058551 0 602.72975213 0 5514.64888220 0 901.80321057 0 0.31568637 0 12933
0.11050000 0.11050200 15017.94776777 0 251.33291552 0 5114.18503816 0 685.06688118 0 193.06037724 0 13428
0.11150000 0.11150900 14941.65944977 0 -39.00071405 0 4603.46298357 0 1288.86289819 0 438.68108038 0 13453
0.11250000 0.11250000 15053.15776069 0 -224.82798437 0 4336.39850895 0 870.56375333 0 897.41967718 0 13668
0.11350000 0.11349100 15189.79024896 0 229.30009637 0 4211.53590197 0 27.04382120 0 715.84351525 0 13791
0.11450000 0.11448600 14892.49832758 0 224.64529101 0 4162.77338347 0 -217.17590069 0 1096.59862111 0 14205
0.11550000 0.11549300 14721.32018588 0 421.79135611 0 4187.65289734 0 -7.27366484 0 1721.99010045 0 14776
0.11650000 0.11649800 14492.89812487 0 313.55273761 0 4626.60414245 0 -214.16422834 0 1362.77066635 0 14553
0.11750000 0.11747300 14435.65420556 0 -69.60218394 0 4168.06595473 0 134.18329001 0 1654.63714857 0 14568
0.11850000 0.11849100 14592.99194123 0 -92.54082999 0 5095.46173689 0 -151.25902935 0 721.25234592 0 16015
0.11950000 0.11950300 14690.64984613 0 -133.86108536 0 4638.41831303 0 216.64885803 0 991.50897179 0 15270
0.12050000 0.12050700 14600.41039886 0 320.64345442 0 4739.19861353 0 151.85914935 0 142.67465592 0 15999
0.12150000 0.12150000 14277.65213040 0 280.21950374 0 4254.44116064 0 -199.49450519 0 443.66473379 0 15670
0.12250000 0.12250700 14150.98473447 0 269.12724874 0 4184.51942941 0 363.98385546 0 -1125.24715434 0 16887
0.12350000 0.12352200 13869.74768408 0 290.20341903 0 4308.47410576 0 -338.02700439 0 -335.09616001 0 16407
0.12450000 0.12449800 13439.92003462 0 547.68922546 0 4617.56912539 0 -416.46556787 0 -914.70689792 0 16306
0.12550000 0.12549900 13338.71898578 0 230.30103453 0 4407.59355753 0 109.98417050 0 232.98053714 0 17523
0.12650000 0.12650100 13141.29943426 0 -70.38577236 0 4379.00481485 0 610.72729235 0 470.43982966 0 17154
0.12750000 0.12750600 13303.06609986 0 87.65118062 0 4507.41056577 0 662.85911929 0 342.79364022 0 18007
0.12850000 0.12850300 13417.44321524 0 -86.41351615 0 4642.72544738 0 106.46748942 0 1154.32307932 0 17496
0.12950000 0.12949900 13065.89690224 0 366.39540781 0 4473.05314186 0 255.74745143 0 1245.12721516 0 18405
0.13050000 0.13049000 12941.66541778 0 454.05943233 0 4708.71650330 0 126.39501673 0 2080.95487107 0 18100
0.13150000 0.13148800 12623.66824899 0 259.41349818 0 4505.68328310 0 528.15543001 0 2035.00472307 0 19059
0.13250000 0.13249300 12367.89754568 0 251.62522490 0 4365.92839924 0 312.97476225 0 1925.69873246 0 18957
0.13350000 0.13349100 12283.41570731 0 148.33815006 0 4309.92458031 0 -65.20337073 0 1369.66872472 0 19468
0.13450000 0.13450700 12158.74132985 0 -11.07763953 0 4488.58761358 0 -42.32041848 0 1575.86862981 0 19953
0.13550000 0.13551000 12075.80961696 0 92.60693176 0 4214.01610273 0 -209.23482933 0 1155.15350368 0 19956
0.13650000 0.13649900 11955.23199969 0 180.70034104 0 4425.80753186 0 56.66184720 0 899.76701004 0 19723
0.13750000 0.13749600 11905.40653800 0 191.57114955 0 4259.15797101 0 143.58369378 0 814.16243794 0 20946
0.13850000 0.13851100 11604.12857969 0 212.68496574 0 4043.86768724 0 411.01909129 0 311.23972895 0 20955
0.13950000 0.13949800 11569.25075651 0 46.37742901 0 3591.75144792 0 223.03648222 0 355.62867915 0 20506
0.14050000 0.14048300 11414.12748580 0 10.52438868 0 3446.00643633 0 469.35806353 0 -59.12876117 0 21447
0.14150000 0.14148400 11416.67412051 0 113.50350895 0 3327.77615192 0 214.14540539 0 277.42595619 0 21771
0.14250000 0.14249400 11447.78735325 0 104.90540583 0 3270.00076102 0 73.84731327 0 32.69568940 0 22470
0.14350000 0.14350900 10942.44644852 0 168.93599592 0 3089.69902367 0 -59.79387572 0 304.96061355 0 22519
0.14450000 0.14449900 11119.16075263 0 318.74012179 0 3164.01646785 0 275.76289300 0 358.91715962 0 22218
0.14550000 0.14550500 10796.32497789 0 74.71084388 0 3052.81710970 0 141.66485989 0 158.75056432 0 23559
0.14650000 0.14650700 10630.83801115 0 179.61857491 0 3042.98488526 0 119.84573660 0 377.88626650 0 23044
0.14750000 0.14750500 10591.88557244 0 297.21109341 0 3180.73567833 0 -412.96560599 0 381.61653273 0 23649
0.14850000 0.14849900 10185.75269809 0 303.33962520 0 3045.19935022 0 217.82030999 0 562.62689887 0 23640
0.14950000 0.14949500 10113.14039193 0 140.70599656 0 3000.62217050 0 -13.15657924 0 99.01337890 0 24457
0.15050000 0.15050000 9966.57602831 0 71.04158616 0 2838.22438239 0 -29.67659860 0 114.43912040 0 24591
0.15150000 0.15149900 10037.48319645 0 79.46917547 0 3047.90099748 0 199.58972718 0 -135.42228316 0 25020
0.15250000 0.15250500 10065.08650222 0 -18.21685313 0 2719.48477103 0 57.03177357 0 300.46192798 0 25297
0.15350000 0.15350100 9957.96175960 0 -26.87352884 0 2643.05251281 0 197.59227978 0 -83.49141891 0 25452
0.15450000 0.15450400 10109.04363175 0 110.82289911 0 2960.04210004 0 -30.40726131 0 -90.10292551 0 26061
0.15550000 0.15549900 9929.97092246 0 206.42467329 0 2850.83576036 0 243.01538512 0 367.84588236 0 26128
0.15650000 0.15649500 9903.17589640 0 122.05909434 0 2799.69269202 0 162.99569366 0 374.47599046 0 26331
0.15750000 0.15749700 9678.34126863 0 97.48628387 0 2720.23768912 0 163.33007786 0 386.75741315 0 27345
0.15850000 0.15849900 9612.88168430 0 113.93200792 0 2952.20289407 0 330.32288078 0 86.86205603 0 26980
0.15950000 0.15949700 9455.85397372 0 340.40201806 0 2774.13776634 0 -172.28315971 0 277.13696851 0 27777
0.16050000 0.16050000 9167.89602216 0 269.81816181 0 2632.86597398 0 49.48410191 0 200.79550335 0 28224
0.16150000 0.16150500 9103.38865777 0 10.63042834 0 2597.68919803 0 149.43209575 0 84.55856958 0 28075
0.16250000 0.16249700 9013.53674187 0 10.22482693 0 2302.37922279 0 108.06954410 0 87.43205931 0 28590
0.16350000 0.16349900 9062.46534524 0 -13.58042784 0 2274.15586683 0 243.25786903 0 -52.14500301 0 29163
0.16450000 0.16449100 8964.14310085 0 80.56234610 0 2012.14037232 0 398.11097502 0 -68.26066106 0 28996
0.16550000 0.16550500 8962.06150379 0 70.39739830 0 2030.78616731 0 209.73529841 0 -143.14522972 0 30777
0.16650000 0.16650700 8860.30683870 0 8.06410703 0 1846.25480189 0 193.88747990 0 -138.51699795 0 29211
0.16750000 0.16749900 8689.63802395 0 205.03620376 0 1974.37267236 0 -137.69321698 0 -337.80112896 0 30922
0.16850000 0.16850800 8624.51060936 0 350.06151423 0 2086.34709325 0 -268.68103405 0 -516.70110999 0 30867
0.16950000 0.16949900 8245.62672639 0 301.03768887 0 2146.70233584 0 -396.80997685 0 -187.97596568 0 30852
0.17050000 0.17049200 8227.33524579 0 100.37826439 0 2270.46878266 0 -241.76089072 0 13.64686179 0 31257
0.17150000 0.17149500 8203.30830094 0 8.36315945 0 2489.62330780 0 43.55132883 0 -195.54832862 0 32608
0.17250000 0.17250900 8183.68814136 0 59.80162635 0 2498.45902300 0 284.28304695 0 -175.72554550 0 32361
0.17350000 0.17350400 8200.89453413 0 -12.46455894 0 2488.84824506 0 243.69411863 0 -9.57663089 0 32508
0.17450000 0.17449800 8143.06378160 0 19.86984050 0 2308.34720587 0 174.04033766 0 349.56325962 0 32791
0.17550000 0.17549800 8253.05625635 0 30.10244021 0 2558.70354234 0 30.52817110 0 189.64235056 0 33633
0.17650000 0.17650100 8195.07049127 0 117.64234397 0 2533.46971408 0 15.96518516 0 447.89657633 0 33984
0.17750000 0.17750300 8067.99341933 0 137.58913713 0 2483.19028708 0 -245.41254344 0 639.86300787 0 34069
0.17850000 0.17849800 7943.00901678 0 147.19880784 0 2651.54498595 0 20.37905672 0 558.05070702 0 34536
