### header ###
fiducial parameters:
Omega_m = 0.31
Omega_nu = 0
Omega_de = 0.69
Omega_k = 0
H_0 = 100
w_de = -1
zeff = 0
beta = 0
fgrowth = 0
b_1 = 2
gamma = 0.55
Lx = 3500 Ly = 3500 Lz = 3500
nx = 700 ny = 700 nz = 700
xoffset = -685.467585 yoffset = -31.7331281 zoffset = 572.489161
bins = 400 dk = 0.001
kx_ny = 0.628318531 ky_ny = 0.628318531 kz_ny = 0.628318531
############################
A(data) = 8.01095898 (not used)
A(ran) = 8.00568674 (used)
Ngal = 475445
weighted Ngal = 0
Nran = 23820508
weighted Nran = 0
SN(data) = 3491.21071
SN(ran) = 69.7324349
SN(data+ran) = 3560.94314
############################
13 columns: k_central k_mean P_0(k) sigma^{lin}_{P_0(k)} P^img_1(k) sigma^{lin}_{P_1(k)} P_2(k) sigma^{lin}_{P_2(k)} P^img_3(k) sigma^{lin}_{P_3(k)} P_4(k) sigma^{lin}_{P_4(k)} N_modes
### header ###
0.00050000 0 0 0 0 0 0 0 0 0 0 0 0
0.00150000 0.00179520 6393.47037538 0 -6591.18887967 0 17642.19947304 0 -4660.77333684 0 16696.40148703 0 3
0.00250000 0.00253879 14106.14181896 0 -11535.25871931 0 2658.77521405 0 -4528.60299548 0 -18036.48495983 0 6
0.00350000 0.00331552 12222.73936730 0 958.24106464 0 3646.44873252 0 4384.61848353 0 12628.09717891 0 7
0.00450000 0.00420575 22793.48787167 0 -3728.57216570 0 2906.81743464 0 -9112.87764014 0 -11866.09978490 0 24
0.00550000 0.00557378 37259.25880073 0 -11946.70630957 0 11206.41067220 0 -13393.19482388 0 -11098.12333547 0 45
0.00650000 0.00659388 65541.07663850 0 -23867.06048608 0 6158.34955786 0 -8881.08959239 0 9700.05409760 0 40
0.00750000 0.00754703 77095.60120300 0 -30748.84253061 0 21496.80791215 0 -9461.15761731 0 -26784.28590605 0 57
0.00850000 0.00846663 106765.44568004 0 -11963.86841304 0 27452.50070886 0 96.82415884 0 -33493.22896016 0 75
0.00950000 0.00948925 105037.27722234 0 4622.85062433 0 42440.11030662 0 -18512.37348054 0 -22745.65542845 0 112
0.01050000 0.01054430 109998.78597358 0 17593.14907409 0 36858.21919580 0 314.55478301 0 17778.16762181 0 105
0.01150000 0.01145670 93322.31467122 0 7900.10375810 0 32667.01208220 0 29377.20293208 0 29522.80400345 0 144
0.01250000 0.01249090 93896.19326657 0 -5242.77901860 0 25804.05298986 0 42739.50596972 0 34279.03185254 0 169
0.01350000 0.01339930 104782.06013527 0 -12517.81682372 0 20981.94480809 0 47006.89067807 0 22290.91504815 0 180
0.01450000 0.01448870 98713.09745568 0 -2131.15679179 0 21470.23433259 0 34616.95920601 0 23791.32578432 0 267
0.01550000 0.01550050 97725.77825160 0 9013.92427324 0 16209.99425775 0 2337.61136036 0 73640.59296659 0 238
0.01650000 0.01653350 87455.08974982 0 12342.76336834 0 31469.87232280 0 1367.18852396 0 50391.36820539 0 315
0.01750000 0.01747870 84691.21602859 0 15804.96861588 0 44873.14296227 0 -9779.90770419 0 86046.35786315 0 297
0.01850000 0.01844180 71550.35948733 0 16291.70801491 0 36469.02697842 0 10055.43143498 0 73353.59830729 0 388
0.01950000 0.01947590 64129.35522412 0 4065.66909481 0 51181.15713470 0 12717.34011695 0 82027.76829347 0 399
0.02050000 0.02045430 69307.88154181 0 -8145.11216169 0 41361.55514604 0 23384.63929373 0 54341.53080769 0 462
0.02150000 0.02154770 76034.76176213 0 -8498.93937360 0 36816.25508474 0 14620.67275328 0 36951.00527778 0 571
0.02250000 0.02255340 76944.13179948 0 -6103.84050278 0 27775.48042382 0 -7026.05443692 0 23518.17153105 0 510
0.02350000 0.02348930 80325.39835260 0 3938.94633726 0 29993.04563849 0 9323.16323310 0 19767.31077548 0 555
0.02450000 0.02439640 80735.73871038 0 2433.91844163 0 22494.64582481 0 -5567.86247528 0 19238.82871189 0 592
0.02550000 0.02547300 74638.98449549 0 5572.11424801 0 24958.79171320 0 -8773.76554792 0 2921.98651964 0 837
0.02650000 0.02652900 69258.49897311 0 9090.79942445 0 39421.68383781 0 2328.55419866 0 -1472.06558464 0 723
0.02750000 0.02749970 58419.57876165 0 10188.73115347 0 28690.60807008 0 7328.90466536 0 4228.36583569 0 826
0.02850000 0.02848090 56930.12962704 0 3823.98238867 0 30525.51373902 0 5770.75175526 0 2740.30074169 0 831
0.02950000 0.02946900 53923.66126903 0 -2833.52971666 0 23124.99327674 0 5782.58807049 0 2406.69159491 0 996
0.03050000 0.03053250 57015.49725139 0 -1639.24661708 0 24860.91236180 0 8286.67183450 0 1405.79772060 0 1041
0.03150000 0.03150510 58597.73246798 0 -1801.92121331 0 22107.44662590 0 3673.33233718 0 8033.76886331 0 1036
0.03250000 0.03246190 59145.92326975 0 -2217.42127446 0 16869.79409369 0 6292.04788004 0 889.66019195 0 1059
0.03350000 0.03345080 61057.56014969 0 1598.00220713 0 15784.48481497 0 1099.67340571 0 8916.85320155 0 1302
0.03450000 0.03451200 60551.99779847 0 2097.26440552 0 19984.88195817 0 4170.05897320 0 6958.60183413 0 1339
0.03550000 0.03553350 55698.99783046 0 2618.30586684 0 20188.28056509 0 -2924.93175804 0 14248.08902313 0 1365
0.03650000 0.03647120 54454.35779759 0 6172.53320595 0 23495.14109542 0 -1247.61848824 0 6798.04205193 0 1308
0.03750000 0.03744890 50817.98488065 0 2855.32005191 0 21972.91787936 0 733.50387333 0 11013.35361666 0 1579
0.03850000 0.03847530 48325.49384073 0 1703.51039032 0 21200.95539300 0 4779.34686332 0 6903.68310302 0 1662
0.03950000 0.03950240 47914.48914346 0 707.37983015 0 18429.66321414 0 4190.91923316 0 7341.02886104 0 1683
0.04050000 0.04050350 46084.67674393 0 502.97696337 0 14962.69686693 0 5768.79195376 0 3504.87798739 0 1822
0.04150000 0.04152450 45162.13064004 0 410.41454236 0 11092.91934281 0 6183.11834848 0 -1596.73996210 0 1887
0.04250000 0.04250150 43737.78677537 0 66.28380819 0 9925.23196743 0 730.25414600 0 -2234.80482442 0 1920
0.04350000 0.04349210 41970.86518081 0 1876.30509144 0 7818.85503858 0 -2234.17370191 0 -5055.40206570 0 2005
0.04450000 0.04448520 42251.32716847 0 1721.93473882 0 9398.04536584 0 -933.37262310 0 -1695.82619690 0 2151
0.04550000 0.04548030 41052.85873009 0 530.97222945 0 8867.72529633 0 -2567.46175127 0 2283.02479901 0 2274
0.04650000 0.04648670 41258.36107873 0 -1396.54125705 0 12584.02932614 0 2540.10203665 0 4168.44241378 0 2311
0.04750000 0.04749250 43135.12013549 0 -791.00799228 0 14849.64843053 0 311.02271139 0 2631.10547433 0 2568
0.04850000 0.04851840 44444.86543829 0 564.39957807 0 17227.20873884 0 -84.14723271 0 4243.78958417 0 2493
0.04950000 0.04949480 41714.09796826 0 2363.00020117 0 19324.19633624 0 -1988.75562230 0 5581.58108573 0 2644
0.05050000 0.05050630 40787.45510419 0 3726.60129189 0 19659.57705500 0 -913.40479252 0 6733.54575986 0 2829
0.05150000 0.05149060 39583.33978016 0 440.75603406 0 22762.37463892 0 1787.59362500 0 9038.11730296 0 2784
0.05250000 0.05249300 38913.13195889 0 -368.11161815 0 18741.12771129 0 3902.57375023 0 4549.79542518 0 3055
0.05350000 0.05348950 38989.19883040 0 -535.47423672 0 15713.62193613 0 3685.00256754 0 986.89624127 0 3009
0.05450000 0.05448610 39052.08963537 0 -2.47804166 0 13469.26169539 0 1690.05751567 0 -1411.40031696 0 3336
0.05550000 0.05550870 38652.15726292 0 1284.54469151 0 11226.34085687 0 233.13665692 0 -3120.74582246 0 3349
0.05650000 0.05647670 37895.58530806 0 515.55290990 0 12620.67872129 0 -1589.39901074 0 -4035.51915433 0 3324
0.05750000 0.05747970 35877.10049362 0 1299.86878906 0 11800.44089872 0 -1387.46195070 0 -2460.60274445 0 3639
0.05850000 0.05849280 36309.58550104 0 1064.36819079 0 11823.47133434 0 1760.79859893 0 -4852.28026690 0 3846
0.05950000 0.05951020 35259.59693848 0 304.26970048 0 12628.42934866 0 1572.90124676 0 -1310.52036553 0 3787
0.06050000 0.06049470 34718.60314784 0 527.78561436 0 11101.33430967 0 1973.71940520 0 -2652.98438817 0 3930
0.06150000 0.06148310 34775.07200442 0 817.98571170 0 12335.89852695 0 2051.01530476 0 -618.99610452 0 4083
0.06250000 0.06249100 34142.28864103 0 1273.35057112 0 12253.29898380 0 1660.12902168 0 101.61448945 0 4303
0.06350000 0.06350600 32258.55401964 0 1582.45666308 0 11548.54550910 0 1390.30753818 0 2217.29947888 0 4470
0.06450000 0.06451750 32018.28457107 0 513.72597631 0 11275.39125582 0 -148.91280372 0 910.85483611 0 4479
0.06550000 0.06550280 31078.68708696 0 9.94256016 0 9301.11823438 0 -83.52352865 0 -114.34722010 0 4636
0.06650000 0.06648880 30712.74675171 0 124.11965398 0 11875.62198424 0 -399.26138957 0 1955.36149065 0 4653
0.06750000 0.06749660 30807.63657540 0 638.94732661 0 10566.09812794 0 947.93051577 0 52.43631588 0 5220
0.06850000 0.06852730 30232.54002432 0 214.63480214 0 9452.85337370 0 340.15731968 0 205.74593978 0 5029
0.06950000 0.06949320 29822.97472928 0 457.22058106 0 9078.33198671 0 2116.99528835 0 155.37793418 0 5040
0.07050000 0.07048030 30137.98237037 0 110.91922834 0 8663.00908276 0 -1864.33590831 0 -66.00046740 0 5475
0.07150000 0.07148790 29997.80673817 0 -450.27269724 0 9860.15991448 0 1768.56029863 0 188.68016554 0 5509
0.07250000 0.07249820 30783.38818405 0 16.28772198 0 9402.18641533 0 -481.91961603 0 955.35340233 0 5916
0.07350000 0.07351270 30281.36897677 0 405.79406121 0 9439.28977579 0 83.13090402 0 -161.73455586 0 5721
0.07450000 0.07449140 29912.54983706 0 1240.95294870 0 10216.99879873 0 -109.63572444 0 -16.34086914 0 6028
0.07550000 0.07549160 28675.77115482 0 1345.02172967 0 9611.20976325 0 809.22971723 0 -1201.65726792 0 6183
0.07650000 0.07648840 26807.31634167 0 1618.26456154 0 8585.36994113 0 968.87049647 0 -881.81655704 0 6330
0.07750000 0.07749960 25970.47003188 0 363.36380527 0 8767.56504602 0 1800.99113803 0 -1973.45366940 0 6583
0.07850000 0.07848650 25514.84386559 0 -455.85204171 0 7854.02074221 0 1652.20123711 0 -2356.32358931 0 6549
0.07950000 0.07947320 25294.83677145 0 219.20545783 0 6850.32556972 0 659.82640952 0 -3327.79829657 0 6828
0.08050000 0.08048110 25168.39082202 0 635.98105079 0 6868.43989313 0 142.74994772 0 -1090.29514659 0 7147
0.08150000 0.08149960 24764.91530563 0 817.88052461 0 7105.42086122 0 -781.40275050 0 158.03972107 0 7386
0.08250000 0.08250610 24308.84624635 0 400.90562980 0 7863.49865225 0 1307.85193525 0 767.93769628 0 7227
0.08350000 0.08350160 23970.47599989 0 50.06252016 0 8106.79084549 0 55.22709535 0 1535.05604053 0 7798
0.08450000 0.08449610 24450.12911103 0 521.28726693 0 8069.36638761 0 543.54596151 0 1323.91787857 0 7371
0.08550000 0.08548940 23509.97801068 0 695.40178917 0 8278.06863811 0 654.69660143 0 2456.30668242 0 8256
0.08650000 0.08650700 22854.38565817 0 737.48548134 0 7854.81794960 0 209.66554277 0 1664.11505862 0 8037
0.08750000 0.08749060 22015.43560666 0 635.70867160 0 7077.54074733 0 1103.66497881 0 1439.22506923 0 8155
0.08850000 0.08849210 21646.72719020 0 528.70018839 0 6982.78379153 0 665.45779393 0 -544.21251546 0 8718
0.08950000 0.08949900 21044.94633630 0 463.63477883 0 6349.51324585 0 443.89393091 0 680.53830033 0 8571
0.09050000 0.09049190 20579.68724743 0 350.12794818 0 5768.81409841 0 -7.20582470 0 123.22279567 0 8932
0.09150000 0.09150830 20644.34962437 0 161.49982257 0 5926.22934036 0 -524.36758769 0 -316.88218568 0 9285
0.09250000 0.09250820 20123.95035789 0 505.35862044 0 5694.71810073 0 -45.25502745 0 -880.70711010 0 9204
0.09350000 0.09350330 19685.15412533 0 820.10052574 0 6242.65423903 0 -883.28806901 0 -1314.81642756 0 9349
0.09450000 0.09448040 19096.77078446 0 767.99748684 0 6069.54951281 0 -83.16013495 0 -497.65671130 0 9564
0.09550000 0.09549270 18799.03597009 0 -7.19001342 0 6659.41654520 0 337.39366741 0 -1305.32744520 0 10155
0.09650000 0.09649430 18579.58249218 0 134.56860692 0 6169.23365315 0 611.46249471 0 1144.10332351 0 9913
0.09750000 0.09749140 18977.30039967 0 107.55667401 0 6711.85507554 0 536.13304004 0 -1207.37058752 0 10476
0.09850000 0.09850240 18520.89917065 0 -32.78548596 0 6261.36646797 0 541.00929189 0 277.88213597 0 10575
0.09950000 0.09950330 18496.87222579 0 436.41678996 0 6453.83669029 0 579.16895215 0 430.05795382 0 10882
0.10050000 0.10051200 18198.25162543 0 456.87401729 0 6513.43901479 0 -672.76331384 0 223.53695130 0 10875
0.10150000 0.10150300 17926.75822088 0 208.55941752 0 6730.81089563 0 119.11939210 0 -34.59625396 0 11118
0.10250000 0.10250800 17710.73716367 0 466.76713952 0 6604.56424805 0 -697.57860822 0 -780.23904916 0 11575
0.10350000 0.10349800 16967.67344509 0 681.13842033 0 5907.17386935 0 17.95632133 0 -573.32497911 0 11364
0.10450000 0.10450100 16705.92368637 0 400.42841260 0 6034.54989406 0 116.83295702 0 -1419.12879968 0 12093
0.10550000 0.10551000 16500.08916799 0 151.24020640 0 5566.67773652 0 785.98226404 0 -1257.84931637 0 12067
0.10650000 0.10649700 16100.71041179 0 275.65992038 0 5598.84284012 0 796.46886288 0 -1543.54851367 0 12054
0.10750000 0.10749900 15976.58965057 0 244.32745561 0 4979.57878534 0 1347.76766622 0 -529.30141563 0 12807
0.10850000 0.10850100 15800.09679296 0 197.42730214 0 5602.21989919 0 878.57568757 0 316.37507321 0 12736
0.10950000 0.10950300 15519.63480530 0 44.90514198 0 4614.05919843 0 445.22150266 0 798.20168171 0 12933
0.11050000 0.11050200 15382.44870080 0 254.50956551 0 5197.12782338 0 35.25417150 0 730.35822585 0 13428
0.11150000 0.11150900 15260.09951155 0 269.76944358 0 4889.58292921 0 -584.92656105 0 1038.19985832 0 13453
0.11250000 0.11250000 15370.04769700 0 64.69836200 0 5427.27716706 0 -658.47780036 0 688.13502239 0 13668
0.11350000 0.11349100 14969.78315481 0 387.26563286 0 5114.60578650 0 -368.08061564 0 941.76987424 0 13791
0.11450000 0.11448600 15199.64461804 0 4.34824590 0 5660.61534028 0 -110.19000502 0 450.48085694 0 14205
0.11550000 0.11549300 15128.44956946 0 -137.83494274 0 5264.94581289 0 809.73904417 0 36.44367135 0 14776
0.11650000 0.11649800 15107.07998256 0 32.22279041 0 4904.28697657 0 929.96123982 0 -126.71057799 0 14553
0.11750000 0.11747300 14856.95616491 0 180.89078503 0 4390.21000757 0 975.03556692 0 -395.12919794 0 14568
0.11850000 0.11849100 14803.69828253 0 257.48137750 0 4101.36627002 0 238.38826058 0 45.49352532 0 16015
0.11950000 0.11950300 14422.03524603 0 522.36681860 0 4603.90587657 0 -242.97220305 0 -111.67325366 0 15270
0.12050000 0.12050700 13705.76655351 0 594.69345878 0 4371.46456165 0 -193.89412329 0 860.77360373 0 15999
0.12150000 0.12150000 13343.48008545 0 376.98276480 0 4143.77327408 0 464.23379160 0 464.97563736 0 15670
0.12250000 0.12250700 13451.32452918 0 -202.94574883 0 4103.13784199 0 724.31605820 0 705.08121552 0 16887
0.12350000 0.12352200 13578.10264835 0 -297.90422094 0 3950.63871227 0 315.24901777 0 288.41745304 0 16407
0.12450000 0.12449800 13729.57205187 0 107.86027716 0 4060.32116192 0 -164.68865212 0 330.72812787 0 16306
0.12550000 0.12549900 13643.76153453 0 193.77786388 0 3979.65927562 0 -430.29157987 0 26.72648837 0 17523
0.12650000 0.12650100 13318.45663136 0 353.32120666 0 4130.79650939 0 -148.74339715 0 -95.53002552 0 17154
0.12750000 0.12750600 13206.51542744 0 309.96751883 0 3884.58122240 0 -7.30117956 0 15.92831431 0 18007
0.12850000 0.12850300 12987.39411928 0 184.36528056 0 3613.55285549 0 860.59755376 0 137.89805499 0 17496
0.12950000 0.12949900 12737.38102487 0 -82.37964678 0 3009.72362150 0 931.05739998 0 -103.12464383 0 18405
0.13050000 0.13049000 12668.84333425 0 109.41117770 0 3157.07412019 0 835.65382041 0 -340.02666625 0 18100
0.13150000 0.13148800 12535.53254343 0 281.74527010 0 3063.10329945 0 131.52814652 0 -33.86105159 0 19059
0.13250000 0.13249300 12205.35581734 0 373.93787547 0 3330.26742500 0 -273.22733062 0 694.29677115 0 18957
0.13350000 0.13349100 12218.31043738 0 229.21262500 0 3518.70732109 0 -616.52476162 0 886.39939229 0 19468
0.13450000 0.13450700 12168.81714544 0 -21.39538542 0 4152.60898928 0 -366.77075962 0 1374.64019856 0 19953
0.13550000 0.13551000 12280.75834935 0 -36.21159543 0 4166.63762483 0 -25.64649381 0 972.02278734 0 19956
0.13650000 0.13649900 12332.02321326 0 37.88108056 0 4138.49177514 0 43.71940672 0 840.74930429 0 19723
0.13750000 0.13749600 12324.71547888 0 100.46883600 0 4215.17869683 0 -64.02870779 0 560.38918202 0 20946
0.13850000 0.13851100 12155.30890916 0 182.70000290 0 4137.21845779 0 312.86736070 0 377.84529890 0 20955
0.13950000 0.13949800 11957.00357166 0 249.26128355 0 3908.87390305 0 107.21786087 0 366.42530308 0 20506
0.14050000 0.14048300 11554.41384125 0 342.18798406 0 3891.14711102 0 157.75405509 0 -118.15609984 0 21447
0.14150000 0.14148400 11476.46467453 0 298.46558781 0 3522.56049013 0 552.92532786 0 750.65158278 0 21771
0.14250000 0.14249400 11084.06148295 0 149.88827553 0 3159.17786191 0 544.00214129 0 562.68890389 0 22470
0.14350000 0.14350900 11002.61346159 0 116.22065746 0 3068.05262865 0 603.15935833 0 387.41178754 0 22519
0.14450000 0.14449900 10861.36381388 0 45.27584342 0 2829.99764505 0 397.39238114 0 105.37708687 0 22218
0.14550000 0.14550500 10757.35039453 0 135.13108102 0 2519.80646525 0 369.03283558 0 308.63883985 0 23559
0.14650000 0.14650700 10763.78341525 0 -43.81507160 0 2645.53271357 0 -403.33932680 0 580.49098773 0 23044
0.14750000 0.14750500 10796.32497789 0 3.05942729 0 2595.80690281 0 -91.11161430 0 502.14321732 0 23649
0.14850000 0.14849900 10707.27026938 0 247.79862944 0 2828.72432769 0 -284.12581994 0 915.74658922 0 23640
0.14950000 0.14949500 10672.60282037 0 307.01785150 0 2831.61420447 0 -289.70294995 0 735.25219342 0 24457
0.15050000 0.15050000 10499.48702183 0 277.50346246 0 3440.61421415 0 -262.74848241 0 1051.10576013 0 24591
0.15150000 0.15149900 10271.71822798 0 212.09923976 0 3758.10205600 0 55.83485526 0 773.72630770 0 25020
0.15250000 0.15250500 10168.49094370 0 25.18200978 0 3834.64503747 0 276.94320283 0 1187.26324565 0 25297
0.15350000 0.15350100 10004.94163380 0 124.58026270 0 3585.63952462 0 555.49964338 0 1099.13307626 0 25452
0.15450000 0.15450400 10014.51919477 0 87.74872780 0 3212.65719078 0 629.83258882 0 991.77249312 0 26061
0.15550000 0.15549900 9985.58721002 0 -15.41057241 0 2819.76681692 0 411.67789462 0 801.06166321 0 26128
0.15650000 0.15649500 9913.01919316 0 45.70334588 0 2690.61922023 0 109.05332016 0 1003.76271367 0 26331
0.15750000 0.15749700 9718.78847119 0 230.49258575 0 2715.23299830 0 -84.88431737 0 963.54360100 0 27345
0.15850000 0.15849900 9705.77848953 0 186.54542131 0 2665.41860894 0 -120.45139277 0 748.77814542 0 26980
0.15950000 0.15949700 9387.90311631 0 289.95207726 0 2784.46824539 0 25.30657344 0 939.73256647 0 27777
0.16050000 0.16050000 9227.39869574 0 274.54715174 0 2684.95018992 0 -115.13335516 0 762.23655624 0 28224
0.16150000 0.16150500 8923.65160899 0 21.36194700 0 2604.96371543 0 244.93975517 0 806.87684821 0 28075
0.16250000 0.16249700 9065.02305227 0 60.95126583 0 2544.33166473 0 149.30919295 0 550.83930187 0 28590
0.16350000 0.16349900 9023.34682166 0 23.03397877 0 2398.27662804 0 2.25772454 0 80.24268809 0 29163
0.16450000 0.16449100 8903.14566343 0 133.58649170 0 2325.13285029 0 32.93883766 0 303.96299708 0 28996
0.16550000 0.16550500 8708.77100123 0 224.20904142 0 2268.57541512 0 -227.79536742 0 191.24562320 0 30777
0.16650000 0.16650700 8649.47870183 0 161.48432132 0 2353.15690441 0 241.14194776 0 277.74594638 0 29211
0.16750000 0.16749900 8605.65444020 0 -53.63256985 0 2343.13645045 0 236.40409997 0 171.28775771 0 30922
0.16850000 0.16850800 8538.05789718 0 40.93626715 0 2357.44189411 0 216.92234445 0 468.07035215 0 30867
0.16950000 0.16949900 8701.30825431 0 0.62978498 0 2362.96698420 0 121.71031610 0 303.13478719 0 30852
0.17050000 0.17049200 8676.17407697 0 -25.09055238 0 2440.34039003 0 42.71846855 0 488.43457196 0 31257
0.17150000 0.17149500 8639.31430765 0 233.56183419 0 2432.05829107 0 -131.96218165 0 452.90348161 0 32608
0.17250000 0.17250900 8518.20521878 0 306.81301349 0 2506.51967547 0 -290.62527461 0 528.44995385 0 32361
0.17350000 0.17350400 8217.89055272 0 273.74883712 0 2687.16465489 0 -285.12232917 0 269.40073516 0 32508
0.17450000 0.17449800 7999.72146450 0 173.73363426 0 2624.01918645 0 -39.34550624 0 315.21026463 0 32791
0.17550000 0.17549800 7914.58635897 0 130.95570733 0 2426.99823862 0 184.03643251 0 14.83381501 0 33633
0.17650000 0.17650100 7843.18093621 0 -6.55470557 0 2396.23932028 0 245.61848868 0 -90.99280825 0 33984
0.17750000 0.17750300 7755.84243804 0 -94.67823157 0 2126.76107884 0 343.34947093 0 -270.77813237 0 34069
0.17850000 0.17849800 8019.29733478 0 35.29934658 0 2064.46817941 0 173.25641706 0 -525.28769788 0 34536
