### header ###
fiducial parameters:
Omega_m = 0.31
Omega_nu = 0
Omega_de = 0.69
Omega_k = 0
H_0 = 100
w_de = -1
zeff = 0
beta = 0
fgrowth = 0
b_1 = 2
gamma = 0.55
Lx = 3500 Ly = 3500 Lz = 3500
nx = 700 ny = 700 nz = 700
xoffset = -685.467585 yoffset = -31.7331281 zoffset = 572.489161
bins = 400 dk = 0.001
kx_ny = 0.628318531 ky_ny = 0.628318531 kz_ny = 0.628318531
############################
A(data) = 8.0923602 (not used)
A(ran) = 8.08958878 (used)
Ngal = 480198
weighted Ngal = 0
Nran = 23820508
weighted Nran = 0
SN(data) = 3489.98028
SN(ran) = 70.4632521
SN(data+ran) = 3560.44353
############################
13 columns: k_central k_mean P_0(k) sigma^{lin}_{P_0(k)} P^img_1(k) sigma^{lin}_{P_1(k)} P_2(k) sigma^{lin}_{P_2(k)} P^img_3(k) sigma^{lin}_{P_3(k)} P_4(k) sigma^{lin}_{P_4(k)} N_modes
### header ###
0.00050000 0 0 0 0 0 0 0 0 0 0 0 0
0.00150000 0.00179520 17796.21551127 0 -138.08739174 0 30196.88713840 0 -4739.99582091 0 -74976.46895596 0 3
0.00250000 0.00253879 40062.66072156 0 -3105.57673746 0 10676.07953036 0 17950.78516573 0 54934.56452498 0 6
0.00350000 0.00331552 31412.07478725 0 1714.81523396 0 5549.63742863 0 4508.34064106 0 65684.02035191 0 7
0.00450000 0.00420575 34312.35955025 0 -3433.91545763 0 11484.65819489 0 -23658.90077949 0 5947.26675751 0 24
0.00550000 0.00557378 49417.22506784 0 -4845.05003879 0 30579.21451439 0 16255.61223600 0 11014.89266981 0 45
0.00650000 0.00659388 48547.27250684 0 6977.91196861 0 38083.92555322 0 14809.89878443 0 8311.34097419 0 40
0.00750000 0.00754703 38258.75756211 0 8363.18159899 0 14059.08443848 0 28789.48393071 0 28972.39873671 0 57
0.00850000 0.00846663 46934.36695051 0 -5322.22294918 0 36049.82876079 0 22055.84959225 0 21191.98680990 0 75
0.00950000 0.00948925 51805.85770097 0 -10757.92615542 0 24087.28902672 0 26619.64043600 0 13846.38507871 0 112
0.01050000 0.01054430 55738.08313707 0 -8901.89449072 0 27286.19439008 0 7564.98877514 0 11634.02385670 0 105
0.01150000 0.01145670 66765.01142396 0 -2841.73430936 0 8496.61418538 0 -5883.85555328 0 14938.55919882 0 144
0.01250000 0.01249090 68213.27151023 0 -2689.68914495 0 14940.77366378 0 -10504.28133848 0 1804.24640152 0 169
0.01350000 0.01339930 74691.68876162 0 1067.86150927 0 24592.40848495 0 -21763.42949379 0 14107.24905144 0 180
0.01450000 0.01448870 73675.80295951 0 -1990.33896475 0 12640.94107570 0 -6070.55709437 0 -21127.54587945 0 267
0.01550000 0.01550050 70562.81883675 0 -8537.08353260 0 24963.77425937 0 14429.23225716 0 13973.60609088 0 238
0.01650000 0.01653350 87370.05429522 0 -2839.11016837 0 13273.06009960 0 11290.67106407 0 -25654.35515831 0 315
0.01750000 0.01747870 76454.18142626 0 -4107.28996380 0 6235.32436000 0 8620.25883663 0 -7571.14498774 0 297
0.01850000 0.01844180 86250.31008631 0 -384.15763128 0 4727.59481712 0 7794.25233284 0 -11561.94302213 0 388
0.01950000 0.01947590 83707.32924521 0 8462.46713564 0 4609.70777477 0 -10963.62780590 0 231.57545912 0 399
0.02050000 0.02045430 81077.20920779 0 9290.14556049 0 10585.27539452 0 -14712.57304927 0 -4401.60342981 0 462
0.02150000 0.02154770 76083.03709834 0 7987.20973745 0 27783.78466743 0 -5930.92400608 0 25.84302757 0 571
0.02250000 0.02255340 69229.37875884 0 924.60777077 0 16723.86085258 0 -2755.12658462 0 13040.31983191 0 510
0.02350000 0.02348930 70848.04192408 0 1004.08159662 0 35526.77213636 0 6326.36101466 0 -8275.14554436 0 555
0.02450000 0.02439640 73372.75342923 0 146.73487743 0 32707.42606778 0 3820.20672590 0 -1282.33022655 0 592
0.02550000 0.02547300 69890.83944351 0 1897.73003997 0 37564.07990299 0 6900.05138048 0 -6946.73230192 0 837
0.02650000 0.02652900 69214.20967384 0 411.00026834 0 40097.98143773 0 4216.10877212 0 6281.65096704 0 723
0.02750000 0.02749970 67614.14801430 0 2001.06804750 0 30903.08001534 0 6133.72470746 0 109.91186822 0 826
0.02850000 0.02848090 67260.71940609 0 3188.19842526 0 42537.21459528 0 -342.84900185 0 4276.24256821 0 831
0.02950000 0.02946900 64716.96350225 0 7038.20077725 0 28422.54708622 0 5990.52633058 0 4653.75348290 0 996
0.03050000 0.03053250 58093.83096548 0 2711.55698646 0 29866.15679607 0 6899.87422329 0 12016.79412568 0 1041
0.03150000 0.03150510 57597.01575087 0 -2082.16175447 0 20212.86112618 0 12905.12674588 0 3169.41976236 0 1036
0.03250000 0.03246190 56378.06351158 0 -1137.82531534 0 21674.29727900 0 7551.23694772 0 369.43697543 0 1059
0.03350000 0.03345080 59604.31751724 0 -1478.99685998 0 14911.65344951 0 7357.52662502 0 -4525.08199618 0 1302
0.03450000 0.03451200 55781.04375736 0 1759.62493250 0 13301.62669763 0 -1814.57688058 0 -3957.33746878 0 1339
0.03550000 0.03553350 58562.30102856 0 4062.51348224 0 16078.01214591 0 -5770.48601946 0 -4271.83578293 0 1365
0.03650000 0.03647120 52054.54211640 0 2888.47059241 0 19011.51388336 0 -7917.19942762 0 -3579.40580575 0 1308
0.03750000 0.03744890 52011.13860311 0 3827.59196656 0 23953.53534291 0 1270.65999619 0 2533.53614803 0 1579
0.03850000 0.03847530 50422.48143813 0 1781.26025520 0 24786.72778552 0 -192.96294078 0 832.51149463 0 1662
0.03950000 0.03950240 49182.71322819 0 2805.18456513 0 25314.10261663 0 4994.36033897 0 2948.43830363 0 1683
0.04050000 0.04050350 49806.52800847 0 165.01196400 0 26861.23856354 0 3420.52901693 0 7042.17574186 0 1822
0.04150000 0.04152450 44897.50207687 0 -709.16468891 0 20552.89222136 0 6447.76905629 0 6822.68904698 0 1887
0.04250000 0.04250150 51574.66755876 0 -438.71208289 0 27617.58907190 0 -830.77092517 0 182.59260135 0 1920
0.04350000 0.04349210 47343.60007581 0 2605.21837890 0 24569.82094232 0 -1901.99288502 0 2608.32970218 0 2005
0.04450000 0.04448520 46785.55490495 0 4206.70836835 0 24737.56666332 0 -433.89894330 0 5611.58708599 0 2151
0.04550000 0.04548030 41102.13057554 0 1089.00300628 0 20588.43438403 0 425.82943297 0 8102.10725210 0 2274
0.04650000 0.04648670 42761.76134260 0 409.69594847 0 22909.63655901 0 6514.01477568 0 1520.98311569 0 2311
0.04750000 0.04749250 41120.62135799 0 778.34457438 0 22175.54142354 0 5216.48224716 0 290.18791778 0 2568
0.04850000 0.04851840 39696.05604682 0 1948.98383155 0 20260.36139966 0 4535.78893428 0 1283.35995275 0 2493
0.04950000 0.04949480 38928.63321364 0 1004.53777640 0 20888.49438662 0 -2097.92874501 0 5312.62324356 0 2644
0.05050000 0.05050630 38868.62121312 0 650.15473379 0 20813.86691734 0 -389.32065634 0 5831.31737201 0 2829
0.05150000 0.05149060 39502.40108574 0 -993.37798022 0 21879.57818113 0 2731.16607372 0 7005.52634671 0 2784
0.05250000 0.05249300 39425.33770500 0 -702.19244598 0 20322.80931163 0 3828.05700420 0 1813.83503482 0 3055
0.05350000 0.05348950 39192.26526757 0 310.25207758 0 18488.56798218 0 3839.04075042 0 76.03941214 0 3009
0.05450000 0.05448610 37930.57385448 0 1905.22600387 0 15202.41269925 0 2270.81202473 0 -3702.02073079 0 3336
0.05550000 0.05550870 36320.65782585 0 1213.93647614 0 12997.02704187 0 941.04685143 0 -1139.49723639 0 3349
0.05650000 0.05647670 35549.02750924 0 722.26878534 0 12804.59003652 0 -923.34220404 0 -2534.48836796 0 3324
0.05750000 0.05747970 34667.11683744 0 1633.48900817 0 14145.55929531 0 -2083.35756555 0 -2093.69911693 0 3639
0.05850000 0.05849280 33114.44472812 0 2499.44445991 0 15266.52145995 0 -1705.11587742 0 113.98404785 0 3846
0.05950000 0.05951020 32393.96855217 0 444.72214081 0 15453.86519588 0 1037.14798746 0 1755.10742398 0 3787
0.06050000 0.06049470 32542.89132098 0 -695.87457743 0 14719.88078365 0 2658.27695944 0 363.95728188 0 3930
0.06150000 0.06148310 32959.87507365 0 -632.86640582 0 15415.22278226 0 3409.65599395 0 -1951.80727438 0 4083
0.06250000 0.06249100 33280.97249339 0 40.11901885 0 12058.20462050 0 1853.15286025 0 -11.44081179 0 4303
0.06350000 0.06350600 31385.05831469 0 300.65901536 0 8662.88728719 0 2991.85288925 0 645.71473154 0 4470
0.06450000 0.06451750 32573.45093748 0 -695.03086628 0 9137.97860050 0 2176.49796193 0 -63.96714567 0 4479
0.06550000 0.06550280 32750.05451834 0 -1284.55576384 0 7084.42773336 0 277.71272940 0 -5461.39099982 0 4636
0.06650000 0.06648880 32570.79357952 0 1050.90424381 0 6844.81155196 0 -187.33377084 0 -4615.49860065 0 4653
0.06750000 0.06749660 31560.33321657 0 2044.71515193 0 7420.76067206 0 -3025.31345485 0 -2277.86509564 0 5220
0.06850000 0.06852730 30973.16783144 0 825.42299228 0 10248.30026099 0 -2365.38075101 0 -305.00933178 0 5029
0.06950000 0.06949320 29503.31671176 0 376.69266989 0 10677.89539163 0 117.51833393 0 -2134.51170621 0 5040
0.07050000 0.07048030 30707.21058930 0 1001.59475247 0 12700.51018323 0 529.10543548 0 -359.30247653 0 5475
0.07150000 0.07148790 29211.89312254 0 660.35234495 0 12403.77187809 0 24.11076236 0 -439.82042261 0 5509
0.07250000 0.07249820 28975.27754116 0 775.21553539 0 13045.08093158 0 1386.42115217 0 2094.31916712 0 5916
0.07350000 0.07351270 28283.36796325 0 829.21969246 0 12331.35887377 0 2005.39732650 0 921.24732019 0 5721
0.07450000 0.07449140 27415.85131371 0 812.17938456 0 11872.85390303 0 1889.93512329 0 460.98627873 0 6028
0.07550000 0.07549160 26504.93115088 0 1335.95349564 0 10380.37095143 0 148.06134194 0 621.06773650 0 6183
0.07650000 0.07648840 25598.99353421 0 954.07011988 0 11229.33038457 0 -990.73723075 0 1446.42208036 0 6330
0.07750000 0.07749960 24927.67848046 0 1151.99789111 0 12020.44799287 0 -437.36790266 0 1539.40746419 0 6583
0.07850000 0.07848650 24229.12550765 0 346.48626055 0 11555.07818074 0 787.35191062 0 3085.58011884 0 6549
0.07950000 0.07947320 23832.07193965 0 128.97708288 0 12224.06804628 0 2234.35085910 0 3684.96935057 0 6828
0.08050000 0.08048110 24358.33953828 0 -516.60588799 0 11032.13227955 0 3041.56762768 0 3674.51707594 0 7147
0.08150000 0.08149960 24332.31957496 0 119.93210074 0 10397.61056117 0 1429.00531342 0 2780.59293171 0 7386
0.08250000 0.08250610 23921.97921718 0 894.32274793 0 9647.21696356 0 -101.53233280 0 3990.04511630 0 7227
0.08350000 0.08350160 23220.32599342 0 794.02187909 0 9861.67682298 0 -649.46603519 0 4813.65999793 0 7798
0.08450000 0.08449610 22691.73320658 0 71.74501096 0 9687.83025100 0 374.61218005 0 4531.34893203 0 7371
0.08550000 0.08548940 22925.46998350 0 -503.01571651 0 9411.25464935 0 438.82169891 0 2756.28917873 0 8256
0.08650000 0.08650700 23156.21723272 0 111.92016650 0 9544.12254718 0 674.27690064 0 1582.61167563 0 8037
0.08750000 0.08749060 22949.60765161 0 317.98056030 0 8172.83726304 0 43.90796841 0 1356.03869286 0 8155
0.08850000 0.08849210 22168.34441240 0 1036.43825144 0 8371.48584261 0 210.07854048 0 1267.99156591 0 8718
0.08950000 0.08949900 21855.44051303 0 760.92448574 0 8303.98895051 0 709.79581143 0 2566.66454389 0 8571
0.09050000 0.09049190 21055.46504488 0 78.50377947 0 8230.08118235 0 1837.72911177 0 1675.82957828 0 8932
0.09150000 0.09150830 21256.98135658 0 417.92932921 0 7271.47251653 0 860.07604726 0 2249.27635296 0 9285
0.09250000 0.09250820 20365.43776218 0 821.64068612 0 7794.44056236 0 301.82160946 0 1306.55647325 0 9204
0.09350000 0.09350330 19813.59309322 0 929.50727450 0 7497.65796792 0 -731.52192719 0 2467.26828399 0 9349
0.09450000 0.09448040 19009.96375789 0 579.29739112 0 7657.85236340 0 -103.79961275 0 2838.29081634 0 9564
0.09550000 0.09549270 18787.29930578 0 167.07030919 0 7756.65071775 0 171.59113941 0 1703.72076449 0 10155
0.09650000 0.09649430 18848.97215502 0 -8.66055103 0 7469.35710568 0 1365.12907154 0 1536.35150254 0 9913
0.09750000 0.09749140 18479.71012232 0 56.24563851 0 6580.23835042 0 679.29819995 0 311.47778394 0 10476
0.09850000 0.09850240 18739.68830906 0 171.44941365 0 6678.44987156 0 697.98385531 0 1882.78240146 0 10575
0.09950000 0.09950330 17785.25390970 0 331.30499599 0 6340.02426348 0 56.53075087 0 1117.96156461 0 10882
0.10050000 0.10051200 17965.17918800 0 535.63478543 0 6672.41545454 0 324.41800995 0 1100.91350609 0 10875
0.10150000 0.10150300 17404.03376619 0 339.71885562 0 6293.37655902 0 -179.57871454 0 2383.68330393 0 11118
0.10250000 0.10250800 17160.22117368 0 290.87550915 0 6492.00299394 0 393.05535150 0 1286.16125093 0 11575
0.10350000 0.10349800 17105.74533557 0 210.61111931 0 6217.42041076 0 578.86446322 0 2771.70185488 0 11364
0.10450000 0.10450100 16934.56719388 0 123.59925472 0 6576.01979467 0 509.15974955 0 1354.89824341 0 12093
0.10550000 0.10551000 16806.12822598 0 35.12196794 0 5771.13928662 0 691.56965755 0 1575.97935306 0 12067
0.10650000 0.10649700 16704.81645389 0 -63.73706276 0 5066.95050048 0 834.16127102 0 1092.79195584 0 12054
0.10750000 0.10749900 16580.80641592 0 325.77879867 0 4926.21017971 0 427.43824176 0 1764.78463587 0 12807
0.10850000 0.10850100 16557.00091756 0 101.27800150 0 4472.63239352 0 293.51515139 0 1561.28637803 0 12736
0.10950000 0.10950300 16212.31944596 0 256.67420502 0 4578.97100108 0 501.17438889 0 1903.80874629 0 12933
0.11050000 0.11050200 15849.36863840 0 402.50004457 0 3799.81150359 0 179.08821055 0 1615.95044566 0 13428
0.11150000 0.11150900 15763.55812106 0 4.88608407 0 3870.45293593 0 313.97680765 0 1039.56839767 0 13453
0.11250000 0.11250000 15406.36492241 0 276.74722268 0 3491.69084853 0 161.94603726 0 937.81151812 0 13668
0.11350000 0.11349100 15247.47706126 0 455.94726371 0 4132.18054999 0 -339.17299001 0 706.80960543 0 13791
0.11450000 0.11448600 15029.46298558 0 196.42968568 0 3624.32622754 0 -394.14043934 0 290.57766361 0 14205
0.11550000 0.11549300 14685.99946971 0 193.12127502 0 4149.79661878 0 -130.78297906 0 334.63001513 0 14776
0.11650000 0.11649800 14619.45479755 0 190.76286984 0 4299.26193151 0 -316.60759203 0 487.58643188 0 14553
0.11750000 0.11747300 14716.55908621 0 -23.18279081 0 5070.41613815 0 4.25954550 0 284.43030887 0 14568
0.11850000 0.11849100 14608.16102623 0 287.06441495 0 4697.92098660 0 30.86133735 0 364.12225952 0 16015
0.11950000 0.11950300 14318.73045547 0 660.36009558 0 5112.24738132 0 -132.23345361 0 516.77972349 0 15270
0.12050000 0.12050700 13860.66837773 0 415.13135273 0 5375.54726550 0 -205.90648849 0 617.66299661 0 15999
0.12150000 0.12150000 13430.73000502 0 339.42322455 0 4741.81168218 0 487.57978848 0 472.03978060 0 15670
0.12250000 0.12250700 13307.71647628 0 -106.96231162 0 4968.82755794 0 771.70450119 0 267.95690401 0 16887
0.12350000 0.12352200 13517.53703160 0 -314.58799998 0 4120.21136687 0 411.18849786 0 7.84865066 0 16407
0.12450000 0.12449800 13657.82338705 0 -191.33198733 0 4284.51359485 0 654.12969840 0 648.07645843 0 16306
0.12550000 0.12549900 13783.82644348 0 160.42691430 0 3688.00316757 0 89.83010342 0 158.31763642 0 17523
0.12650000 0.12650100 13517.64775484 0 422.26082268 0 4028.03426275 0 3.59341230 0 497.48287580 0 17154
0.12750000 0.12750600 13161.34034218 0 461.94846376 0 4365.95054389 0 -35.83480421 0 66.71108920 0 18007
0.12850000 0.12850300 12857.40502591 0 407.79261584 0 4272.63299032 0 -161.77552346 0 208.64245995 0 17496
0.12950000 0.12949900 12512.16993806 0 235.00787981 0 4579.57997894 0 -337.18329324 0 645.47556933 0 18405
0.13050000 0.13049000 12533.20735522 0 86.94897378 0 4538.92240221 0 461.59857829 0 1143.68257517 0 18100
0.13150000 0.13148800 12431.34196689 0 -65.77913162 0 4419.13091999 0 564.77603712 0 426.31882972 0 19059
0.13250000 0.13249300 12441.97139871 0 52.79040882 0 3867.28625103 0 458.88364425 0 401.14922095 0 18957
0.13350000 0.13349100 12463.67315536 0 99.90680479 0 3906.73694436 0 -79.31150557 0 252.88304100 0 19468
0.13450000 0.13450700 12166.15978748 0 203.58683644 0 3745.19172526 0 -36.85556184 0 331.01157938 0 19953
0.13550000 0.13551000 12410.85816597 0 62.93398704 0 4096.10691573 0 -141.73904447 0 401.75598435 0 19956
0.13650000 0.13649900 12116.44504904 0 -5.83067518 0 3733.68757977 0 -90.62111031 0 302.61328069 0 19723
0.13750000 0.13749600 12262.26756691 0 93.68869790 0 4067.56246235 0 132.39621679 0 69.06329389 0 20946
0.13850000 0.13851100 12159.84856233 0 102.16788425 0 3875.15867398 0 -140.57091420 0 -305.02815473 0 20955
0.13950000 0.13949800 12037.72081958 0 316.62309328 0 3969.57238771 0 34.79533436 0 -132.85571827 0 20506
0.14050000 0.14048300 11764.34511981 0 315.10286308 0 4081.61324255 0 -21.01959071 0 336.69389648 0 21447
0.14150000 0.14148400 11617.52609272 0 168.55953688 0 3855.72674392 0 487.35280582 0 400.09624286 0 21771
0.14250000 0.14249400 11494.18039424 0 31.20424725 0 3863.41093735 0 525.32091486 0 399.03994307 0 22470
0.14350000 0.14350900 11474.02876307 0 136.16412892 0 3779.93668054 0 455.39807640 0 40.19752164 0 22519
0.14450000 0.14449900 11187.80916650 0 331.14555451 0 3639.96035018 0 2.19688211 0 240.67580289 0 22218
0.14550000 0.14550500 11066.11324442 0 300.55382827 0 3370.37138550 0 25.11070401 0 748.50687346 0 23559
0.14650000 0.14650700 10863.14645817 0 57.42871641 0 3321.04417843 0 7.61564466 0 721.60998201 0 23044
0.14750000 0.14750500 10890.94906579 0 -38.21391465 0 3432.12174101 0 325.79651439 0 141.17214144 0 23649
0.14850000 0.14849900 10765.65463814 0 123.19622209 0 3333.96558149 0 144.80829291 0 612.49554262 0 23640
0.14950000 0.14949500 10623.69636164 0 361.17591389 0 3312.49634367 0 38.59801359 0 254.88491733 0 24457
0.15050000 0.15050000 10428.51341974 0 84.72609385 0 3200.77658625 0 67.91000053 0 355.48916786 0 24591
0.15150000 0.15149900 10323.42598489 0 107.37863103 0 3309.14142925 0 -101.91753898 0 493.39718794 0 25020
0.15250000 0.15250500 10429.07810831 0 -68.93230828 0 3322.90432900 0 316.38060937 0 162.58269594 0 25297
0.15350000 0.15350100 10378.20077577 0 -41.02694949 0 3385.20830075 0 170.73192701 0 -86.05953393 0 25452
0.15450000 0.15450400 10249.11961303 0 310.45359389 0 3056.21631342 0 97.47299708 0 204.84908147 0 26061
0.15550000 0.15549900 10021.47261476 0 488.98708097 0 3124.31111105 0 45.15017253 0 -16.80014917 0 26128
0.15650000 0.15649500 9536.41620910 0 541.60498297 0 2831.66956610 0 -225.78463324 0 188.09443955 0 26331
0.15750000 0.15749700 9308.60312596 0 265.40916207 0 2900.15189510 0 -47.15537055 0 206.41802990 0 27345
0.15850000 0.15849900 9067.68041023 0 -13.45331755 0 2968.77816432 0 191.22790748 0 100.52253678 0 26980
0.15950000 0.15949700 9073.33836821 0 30.49750076 0 2957.78334578 0 325.59942701 0 53.44589045 0 27777
0.16050000 0.16050000 9096.00341712 0 147.82660865 0 2908.09075199 0 298.58406169 0 -107.90921683 0 28224
0.16150000 0.16150500 8965.62679238 0 -38.50035569 0 2515.45504160 0 97.82266109 0 117.35999968 0 28075
0.16250000 0.16249700 8949.40583652 0 75.99401561 0 2832.27854396 0 172.88992311 0 356.83556256 0 28590
0.16350000 0.16349900 8941.20124383 0 78.92242407 0 2723.62582051 0 53.08327182 0 28.09945665 0 29163
0.16450000 0.16449100 8952.41750887 0 -0.13636011 0 2502.51149389 0 273.98246317 0 322.66193924 0 28996
0.16550000 0.16550500 8811.26751208 0 128.81321248 0 2229.88871220 0 187.30276833 0 335.63648946 0 30777
0.16650000 0.16650700 8621.85325141 0 116.22508639 0 2193.05108753 0 77.48734006 0 41.19624534 0 29211
0.16750000 0.16749900 8579.14729458 0 94.36322393 0 2021.51863144 0 369.93190835 0 -187.84531225 0 30922
0.16850000 0.16850800 8464.79232386 0 65.31110445 0 1815.99413816 0 -39.68874831 0 -218.54222557 0 30867
0.16950000 0.16949900 8341.91166302 0 95.16308867 0 1803.21667532 0 116.78977495 0 -194.92938566 0 30852
0.17050000 0.17049200 8291.88689949 0 184.68416351 0 1810.67942224 0 12.91420605 0 1.48129990 0 31257
0.17150000 0.17149500 8276.13098127 0 74.32763072 0 1737.35848729 0 178.77597099 0 164.78608858 0 32608
0.17250000 0.17250900 8295.48540505 0 -5.02870669 0 1972.65646201 0 142.67465592 0 181.28163809 0 32361
0.17350000 0.17350400 8162.30748213 0 105.40676070 0 1933.26113031 0 88.14268112 0 300.43424716 0 32508
0.17450000 0.17449800 8118.56072678 0 196.61459350 0 2065.08822960 0 143.13637186 0 295.34651391 0 32791
0.17550000 0.17549800 7933.60861301 0 186.46348611 0 1961.21875048 0 17.40193002 0 354.46940674 0 33633
0.17650000 0.17650100 7894.16899200 0 124.75852713 0 2137.11370255 0 -194.51638795 0 220.45663053 0 33984
0.17750000 0.17750300 7805.02570489 0 103.88730557 0 2108.10421152 0 -145.22350509 0 367.24354789 0 34069
0.17850000 0.17849800 7739.64362683 0 57.53036036 0 2103.65313694 0 -21.10362966 0 335.12716252 0 34536
