### header ###
fiducial parameters:
Omega_m = 0.31
Omega_nu = 0
Omega_de = 0.69
Omega_k = 0
H_0 = 100
w_de = -1
zeff = 0
beta = 0
fgrowth = 0
b_1 = 2
gamma = 0.55
Lx = 3500 Ly = 3500 Lz = 3500
nx = 700 ny = 700 nz = 700
xoffset = -685.467585 yoffset = -31.7331281 zoffset = 572.489161
bins = 400 dk = 0.001
kx_ny = 0.628318531 ky_ny = 0.628318531 kz_ny = 0.628318531
############################
A(data) = 8.02984949 (not used)
A(ran) = 8.02987991 (used)
Ngal = 477318
weighted Ngal = 0
Nran = 23820508
weighted Nran = 0
SN(data) = 3485.17003
SN(ran) = 69.9431662
SN(data+ran) = 3555.1132
############################
13 columns: k_central k_mean P_0(k) sigma^{lin}_{P_0(k)} P^img_1(k) sigma^{lin}_{P_1(k)} P_2(k) sigma^{lin}_{P_2(k)} P^img_3(k) sigma^{lin}_{P_3(k)} P_4(k) sigma^{lin}_{P_4(k)} N_modes
### header ###
0.00050000 0 0 0 0 0 0 0 0 0 0 0 0
0.00150000 0.00179520 2077.95427104 0 -5507.85047476 0 -3406.91005740 0 -3755.79901243 0 -16279.08556461 0 3
0.00250000 0.00253879 4756.03961958 0 -4189.25838443 0 5550.63393786 0 7924.13070296 0 21508.76602296 0 6
0.00350000 0.00331552 15352.55342379 0 -15336.60927605 0 -2774.43671911 0 11947.59209556 0 -11392.64717565 0 7
0.00450000 0.00420575 27194.84771033 0 -20940.53431326 0 -3522.22832038 0 6408.40694156 0 -10056.84869255 0 24
0.00550000 0.00557378 46558.79369266 0 -10507.42587872 0 -5308.53755570 0 -10287.95025617 0 -12765.83689966 0 45
0.00650000 0.00659388 60948.94064322 0 -8548.54338878 0 -3669.58989140 0 -15525.17096771 0 22969.87000603 0 40
0.00750000 0.00754703 54252.62003940 0 -2629.47784258 0 11876.83993997 0 -22720.18908137 0 1481.21132494 0 57
0.00850000 0.00846663 59584.83022556 0 14270.01222627 0 29097.29456067 0 -12492.23975339 0 6189.79496034 0 75
0.00950000 0.00948925 53875.38593282 0 1244.14177825 0 21772.06590715 0 11478.45769299 0 -4518.57146919 0 112
0.01050000 0.01054430 54652.66313509 0 -4970.20052622 0 5303.89825160 0 18242.20875496 0 -3355.42374699 0 105
0.01150000 0.01145670 63673.17544160 0 -15097.44705997 0 9338.62019854 0 13823.24391984 0 -44352.63297255 0 144
0.01250000 0.01249090 72375.69057931 0 -10007.89794453 0 481.56973057 0 -1626.97848118 0 -32254.12508971 0 169
0.01350000 0.01339930 79832.23700518 0 2821.75983538 0 8696.48072069 0 -35212.98245100 0 -42735.07703979 0 180
0.01450000 0.01448870 73764.27083481 0 796.82096281 0 -40.27414213 0 -24592.18703845 0 -35800.48000587 0 267
0.01550000 0.01550050 84504.31518565 0 -5845.71139428 0 11818.82095792 0 -23592.57755383 0 -38049.04773004 0 238
0.01650000 0.01653350 81305.18837580 0 1585.54584171 0 12360.70053454 0 -17170.29698927 0 -50215.98258026 0 315
0.01750000 0.01747870 90080.78085732 0 3843.35895710 0 21074.95233656 0 -11700.45780561 0 -52489.02014228 0 297
0.01850000 0.01844180 84033.51993436 0 6620.12086442 0 22497.19245952 0 -14813.22048187 0 -49149.16408399 0 388
0.01950000 0.01947590 77558.20293392 0 2246.63006733 0 25722.22850945 0 -1561.20887175 0 -43306.51972368 0 399
0.02050000 0.02045430 74739.63192809 0 1248.11674286 0 27920.97077193 0 8007.74889999 0 -40464.47538923 0 462
0.02150000 0.02154770 75739.01996622 0 2998.36341624 0 29730.07792405 0 -2079.60404744 0 -37472.73322323 0 571
0.02250000 0.02255340 73522.45126078 0 1632.68072846 0 23128.86859042 0 1419.12879968 0 -31965.80175143 0 510
0.02350000 0.02348930 74513.75650179 0 358.25835630 0 25562.78703206 0 1066.96243650 0 -16646.57602535 0 555
0.02450000 0.02439640 73055.19915343 0 3312.57384994 0 21416.64428047 0 7925.49259891 0 -13990.43602460 0 592
0.02550000 0.02547300 74987.09838779 0 -2247.63764889 0 21066.31592320 0 7372.38568492 0 -15303.50302484 0 837
0.02650000 0.02652900 71566.19291182 0 1656.84054121 0 23174.04367568 0 4752.82864538 0 -8436.51360627 0 723
0.02750000 0.02749970 69367.11847959 0 7144.16292576 0 19174.83067444 0 8856.05506597 0 -10482.81210065 0 826
0.02850000 0.02848090 63906.13715578 0 4637.06748940 0 20083.31492581 0 76.64584337 0 3226.29829496 0 831
0.02950000 0.02946900 59507.65612157 0 3136.90034437 0 17323.53796476 0 2009.52730366 0 -788.78466945 0 996
0.03050000 0.03053250 58109.88583647 0 1229.13877812 0 19488.62035980 0 -2641.43595339 0 -6046.68516206 0 1041
0.03150000 0.03150510 57031.55212238 0 1998.88679951 0 20482.58295877 0 -697.40587996 0 -1600.03951489 0 1036
0.03250000 0.03246190 57330.61561573 0 165.02635803 0 23948.77424324 0 -554.35476500 0 -2841.69002006 0 1059
0.03350000 0.03345080 56837.45426831 0 663.46256099 0 20172.11497085 0 3464.25362763 0 -3636.17361509 0 1302
0.03450000 0.03451200 56120.18906656 0 642.05754265 0 23077.60372651 0 -2371.72519313 0 -14102.26650527 0 1339
0.03550000 0.03553350 53809.72704665 0 2568.60220073 0 18406.85422501 0 2739.97964427 0 -7331.40701077 0 1365
0.03650000 0.03647120 53658.36836638 0 2620.59783808 0 20277.96639612 0 -6784.85491307 0 -10862.60391426 0 1308
0.03750000 0.03744890 51206.95565153 0 -359.92141948 0 17647.73563545 0 579.29185495 0 -7122.20650565 0 1579
0.03850000 0.03847530 51689.70901362 0 -2511.40257072 0 16119.31191748 0 5329.75213005 0 -12073.26298225 0 1662
0.03950000 0.03950240 53077.51420639 0 1474.35755588 0 16015.45351068 0 -769.90635564 0 -13337.27958355 0 1683
0.04050000 0.04050350 53135.20101870 0 2084.90769103 0 17476.66821700 0 -1184.04119913 0 -16317.50653174 0 1822
0.04150000 0.04152450 48393.58863836 0 3753.49596887 0 19928.63454809 0 -5675.07579650 0 -15266.41073670 0 1887
0.04250000 0.04250150 46433.78714546 0 3929.83381393 0 16563.86575895 0 -2113.40785511 0 -11369.72746328 0 1920
0.04350000 0.04349210 43747.75186771 0 1561.33066733 0 19324.41778274 0 1360.68906929 0 -9923.30538292 0 2005
0.04450000 0.04448520 42949.21580178 0 632.91180235 0 19364.83176832 0 2368.81317170 0 -13625.38147533 0 2151
0.04550000 0.04548030 42956.85570591 0 497.21381831 0 19030.44755880 0 4066.45522987 0 -14998.12830635 0 2274
0.04650000 0.04648670 40408.67087215 0 1278.06738149 0 17813.70978448 0 295.57903273 0 -9845.00190180 0 2311
0.04750000 0.04749250 40111.26822752 0 3075.88076230 0 16599.29719837 0 317.44687425 0 -7365.43226494 0 2568
0.04850000 0.04851840 38811.26657056 0 410.72013852 0 16929.25247797 0 1192.63332319 0 -3313.16068316 0 2493
0.04950000 0.04949480 38656.25402310 0 -274.11976000 0 18108.56579440 0 5526.44090813 0 -1391.83551900 0 2644
0.05050000 0.05050630 38244.47426309 0 -631.36278411 0 12913.65243599 0 6456.95908589 0 1262.17859538 0 2829
0.05150000 0.05149060 38236.05929623 0 241.19177322 0 12583.25426340 0 4462.93303698 0 -5200.16164038 0 2784
0.05250000 0.05249300 38795.32242282 0 148.46880349 0 8991.42530920 0 920.49329487 0 -4562.08570573 0 3055
0.05350000 0.05348950 37313.40246909 0 1397.46026001 0 11611.76848381 0 -3952.76459863 0 -3576.74844779 0 3009
0.05450000 0.05448610 36987.43322643 0 1587.97068084 0 11010.98413915 0 -4794.77061179 0 -2948.29436341 0 3336
0.05550000 0.05550870 35007.25865587 0 1120.94001999 0 13203.41517649 0 -1394.82504670 0 -2845.34388725 0 3349
0.05650000 0.05647670 35806.79123102 0 -359.22607749 0 13533.14900959 0 -194.21300625 0 -6100.90633670 0 3324
0.05750000 0.05747970 36084.48513747 0 168.58943215 0 15207.94886166 0 2921.47719270 0 -4264.62769947 0 3639
0.05850000 0.05849280 35473.40353073 0 1286.47127603 0 13717.17104808 0 3163.80609368 0 -1585.22474429 0 3846
0.05950000 0.05951020 33855.29398173 0 2028.05130308 0 12355.60726513 0 2282.28295324 0 1038.39140954 0 3787
0.06050000 0.06049470 32723.03804578 0 1161.55330742 0 11865.65689190 0 750.02488919 0 -512.79922272 0 3930
0.06150000 0.06148310 31355.71665392 0 801.73818226 0 11684.07076488 0 264.77803955 0 -1751.19889332 0 4083
0.06250000 0.06249100 31364.57451378 0 -622.76733835 0 9762.12555053 0 2044.00652315 0 1706.24525455 0 4303
0.06350000 0.06350600 31544.16762234 0 -1030.19456747 0 9194.51389103 0 2081.01023269 0 736.36385483 0 4470
0.06450000 0.06451750 33039.48508910 0 88.45104537 0 9650.41686544 0 1661.57949623 0 -3173.43901627 0 4479
0.06550000 0.06550280 30709.97867050 0 1696.71198288 0 9018.47499874 0 245.76464337 0 269.55021155 0 4636
0.06650000 0.06648880 31210.55847555 0 1341.75539385 0 8566.84594171 0 -753.61785860 0 3821.49111558 0 4653
0.06750000 0.06749660 30009.98629547 0 -354.43618977 0 10221.95920025 0 -33.57981454 0 3607.66237869 0 5220
0.06850000 0.06852730 30771.20862675 0 -221.39445645 0 12031.52031769 0 598.42704671 0 1203.48420151 0 5029
0.06950000 0.06949320 30533.92870588 0 184.78049274 0 10489.41120624 0 -483.62032513 0 850.56270578 0 5040
0.07050000 0.07048030 30431.39897806 0 756.11577508 0 11449.11603222 0 -1702.14849437 0 337.43906394 0 5475
0.07150000 0.07148790 30047.85364635 0 857.82504363 0 11932.31228731 0 -2413.91075069 0 -272.87523069 0 5509
0.07250000 0.07249820 29282.97744787 0 835.85422949 0 13252.57629869 0 -1238.19593982 0 -2785.15472953 0 5916
0.07350000 0.07351270 28419.44683527 0 821.69715498 0 12876.56014784 0 -293.10104644 0 -2280.12384990 0 5721
0.07450000 0.07449140 28425.09372093 0 734.66314574 0 13646.08672274 0 1849.03395541 0 -2580.79283035 0 6028
0.07550000 0.07549160 27434.67426590 0 209.50056513 0 12343.31698458 0 1720.57284287 0 -2626.11185584 0 6183
0.07650000 0.07648840 26605.80002997 0 940.73793357 0 11301.41121914 0 2130.51459695 0 -2445.74368454 0 6330
0.07750000 0.07749960 26318.47320093 0 1114.25233580 0 10532.52683909 0 1833.94237669 0 -1701.45093791 0 6583
0.07850000 0.07848650 24581.77905312 0 476.27826654 0 9830.31999909 0 1319.88755233 0 -1563.30154114 0 6549
0.07950000 0.07947320 24547.01195319 0 916.10422531 0 8575.44913809 0 33.26458545 0 -2054.37021918 0 6828
0.08050000 0.08048110 23582.72318474 0 474.89090424 0 8860.71651472 0 -182.33793788 0 -252.88525546 0 7147
0.08150000 0.08149960 23251.99284241 0 406.42407649 0 8471.01497040 0 1349.71639539 0 -564.07183726 0 7386
0.08250000 0.08250610 23204.60329218 0 -153.04942427 0 7856.54523227 0 1533.73843388 0 -312.86736070 0 7227
0.08350000 0.08350160 23106.17032454 0 188.53401085 0 7978.54010712 0 766.32224409 0 -829.35698929 0 7798
0.08450000 0.08449610 23240.58834784 0 396.77122371 0 7231.54571323 0 543.55149767 0 -1036.69734384 0 7371
0.08550000 0.08548940 22080.20870685 0 667.87377520 0 6926.40351355 0 556.50390325 0 94.13458042 0 8256
0.08650000 0.08650700 21981.44356947 0 51.97515355 0 6147.44331791 0 1045.67810650 0 995.79728319 0 8037
0.08750000 0.08749060 22122.39426441 0 -290.81350413 0 6452.10940762 0 406.22256018 0 -525.41613685 0 8155
0.08850000 0.08849210 21901.61210752 0 378.62368334 0 5971.72552304 0 784.71337562 0 -160.41694921 0 8718
0.08950000 0.08949900 21272.37188808 0 1000.18967445 0 6448.13444301 0 -835.71693266 0 -3.15618833 0 8571
0.09050000 0.09049190 20417.14551909 0 972.35495709 0 6668.88338292 0 -604.02189244 0 128.94829484 0 8932
0.09150000 0.09150830 19811.04645851 0 498.19261182 0 7546.47584805 0 -515.20745337 0 763.01383344 0 9285
0.09250000 0.09250820 19355.30956898 0 563.31338301 0 7636.00666653 0 -569.51831384 0 -276.14156651 0 9204
0.09350000 0.09350330 19411.88914880 0 441.88762565 0 8736.60682583 0 -284.39930636 0 -348.20025643 0 9349
0.09450000 0.09448040 18980.95426686 0 12.58635451 0 7803.90740008 0 -728.67523248 0 -285.73905766 0 9564
0.09550000 0.09549270 19225.54192210 0 -36.22654306 0 8463.92868252 0 90.54537561 0 -910.63006792 0 10155
0.09650000 0.09649430 19418.08965070 0 -142.56836160 0 8376.19158066 0 178.96087881 0 -1120.03208935 0 9913
0.09750000 0.09749140 18793.05691469 0 621.34343738 0 8016.99429121 0 429.98487647 0 -1107.04646681 0 10476
0.09850000 0.09850240 18835.68536524 0 695.81035795 0 7673.38683512 0 840.88549389 0 -356.38934787 0 10575
0.09950000 0.09950330 17754.91573969 0 247.84070428 0 6976.49471103 0 1080.59246835 0 -530.11190981 0 10882
0.10050000 0.10051200 17887.67291427 0 235.44412941 0 6764.01679776 0 941.56614346 0 -811.98451165 0 10875
0.10150000 0.10150300 17604.22139891 0 -64.37693241 0 6401.36494298 0 1066.90043148 0 -871.83153452 0 11118
0.10250000 0.10250800 17170.18626602 0 398.35013723 0 5465.64277255 0 1076.02070543 0 -971.40938055 0 11575
0.10350000 0.10349800 17126.11841324 0 340.68325511 0 5009.58478560 0 199.53436556 0 -392.49066294 0 11364
0.10450000 0.10450100 16538.06724212 0 434.54445983 0 5140.37108636 0 434.14807060 0 -697.94731664 0 12093
0.10550000 0.10551000 16053.76375456 0 741.21574757 0 5278.96337611 0 -243.01427789 0 181.59830658 0 12067
0.10650000 0.10649700 15915.91331056 0 347.83265525 0 5456.65204480 0 289.02532367 0 -183.23811789 0 12054
0.10750000 0.10749900 15527.49615593 0 -10.30128134 0 5209.81670762 0 292.35920067 0 354.34650394 0 12807
0.10850000 0.10850100 15833.97810691 0 -2.80052312 0 5743.70206572 0 476.34027156 0 962.56480748 0 12736
0.10950000 0.10950300 15561.82036286 0 183.25472638 0 5694.34164168 0 436.48211668 0 916.45411077 0 12933
0.11050000 0.11050200 15474.23827355 0 414.40390099 0 6003.87955431 0 -38.10883828 0 1672.19785574 0 13428
0.11150000 0.11150900 15411.90108482 0 216.23032415 0 5817.18908555 0 -240.64480038 0 1240.49898338 0 13453
0.11250000 0.11250000 14901.35618743 0 374.19696787 0 5646.67528334 0 -48.55192288 0 1167.54343515 0 13668
0.11350000 0.11349100 15113.28048446 0 292.54743020 0 6433.40825100 0 -565.59317469 0 1849.70936723 0 13791
0.11450000 0.11448600 14869.68933845 0 -41.36786637 0 6140.67812745 0 -18.42822381 0 1165.77186318 0 14205
0.11550000 0.11549300 14723.31320435 0 16.57980991 0 6424.08535350 0 426.88351829 0 1166.29226245 0 14776
0.11650000 0.11649800 14844.99805410 0 212.00069607 0 5539.32909422 0 633.98803233 0 1087.49717011 0 14553
0.11750000 0.11747300 14504.30261943 0 168.77876891 0 5669.45105549 0 1374.70663251 0 971.79580468 0 14568
0.11850000 0.11849100 14358.14793183 0 53.15369180 0 4955.17538144 0 829.91281999 0 896.48960189 0 16015
0.11950000 0.11950300 14117.54631352 0 275.83043418 0 4113.37974245 0 805.01448317 0 321.23360934 0 15270
0.12050000 0.12050700 13765.55710753 0 124.84378403 0 3830.90259168 0 160.01723828 0 391.65802411 0 15999
0.12150000 0.12150000 13732.67230282 0 22.42821188 0 3620.79415592 0 762.61744421 0 685.12888620 0 15670
0.12250000 0.12250700 13821.25090137 0 10.23312010 0 3374.75602612 0 79.92613032 0 267.00136237 0 16887
0.12350000 0.12352200 13787.25886418 0 71.28705960 0 2963.46344841 0 215.11755551 0 203.68538013 0 16407
0.12450000 0.12449800 13681.73960866 0 168.69572647 0 3629.39735230 0 -502.35691318 0 48.03429170 0 16306
0.12550000 0.12549900 13589.50714292 0 329.43709479 0 3303.25095245 0 -240.09782753 0 430.44548518 0 17523
0.12650000 0.12650100 13354.44168702 0 283.49026849 0 3956.51811675 0 -569.68439871 0 143.17069607 0 17154
0.12750000 0.12750600 13081.28743374 0 398.15747878 0 4106.57026269 0 -460.49245305 0 209.12632055 0 18007
0.12850000 0.12850300 12869.69530646 0 210.97650602 0 3778.49727831 0 107.92682183 0 -780.51142835 0 17496
0.12950000 0.12949900 12593.55152548 0 264.60198959 0 4088.51130091 0 -41.05274801 0 -365.49522780 0 18405
0.13050000 0.13049000 12618.35353307 0 18.65841744 0 3865.72505323 0 52.31607043 0 -514.84206665 0 18100
0.13150000 0.13148800 12475.40981967 0 -60.76259342 0 4142.95392204 0 321.32550963 0 -785.20387961 0 19059
0.13250000 0.13249300 12552.69464690 0 -63.48483520 0 3994.47404622 0 163.36218761 0 -225.70823420 0 18957
0.13350000 0.13349100 12438.53897802 0 269.93885015 0 4191.31783685 0 332.70564508 0 2.56510335 0 19468
0.13450000 0.13450700 12480.50308908 0 348.60993245 0 4120.69854916 0 197.91448444 0 281.93792855 0 19953
0.13550000 0.13551000 12230.15782493 0 186.43248360 0 4623.53710847 0 21.81978763 0 1248.83644397 0 19956
0.13650000 0.13649900 11979.14822129 0 258.44909868 0 4579.70177451 0 84.38683782 0 931.38956972 0 19723
0.13750000 0.13749600 11943.93822837 0 190.42959286 0 4629.49401922 0 343.78129160 0 1560.74383411 0 20946
0.13850000 0.13851100 11701.78648459 0 127.69601490 0 4411.39136495 0 521.68144169 0 1216.11772413 0 20955
0.13950000 0.13949800 11577.55500012 0 89.18491906 0 4342.51043225 0 278.89082476 0 1292.35068051 0 20506
0.14050000 0.14048300 11466.83175193 0 285.68923220 0 4324.03072213 0 220.78437135 0 1151.25604534 0 21447
0.14150000 0.14148400 11348.02570663 0 224.40945049 0 4061.62769625 0 283.22785440 0 1413.92480702 0 21771
0.14250000 0.14249400 10967.31489007 0 45.41413675 0 3895.76427047 0 388.42158357 0 1177.70782934 0 22470
0.14350000 0.14350900 11124.25402205 0 85.62494518 0 3524.53136395 0 391.56944551 0 987.93039641 0 22519
0.14450000 0.14449900 10919.10598781 0 36.19155452 0 3159.48788700 0 55.66223771 0 412.79177049 0 22218
0.14550000 0.14550500 10779.51718882 0 219.55312883 0 3391.10984988 0 -299.76658598 0 559.92857331 0 23559
0.14650000 0.14650700 10724.73132561 0 228.37223555 0 3088.61393584 0 -290.40825704 0 516.23164341 0 23044
0.14750000 0.14750500 10506.96084108 0 79.04875930 0 3298.42341883 0 79.18616685 0 122.81311966 0 23649
0.14850000 0.14849900 10550.13183555 0 131.50046571 0 3145.24887728 0 141.75565296 0 49.49927099 0 23640
0.14950000 0.14949500 10235.52279815 0 194.81976965 0 3235.28902271 0 -121.60180732 0 37.66716325 0 24457
0.15050000 0.15050000 10226.90852944 0 126.69950567 0 3283.98510726 0 221.18851120 0 353.19387493 0 24591
0.15150000 0.15149900 10001.32098359 0 115.98038801 0 3408.78128029 0 175.50188454 0 349.06611223 0 25020
0.15250000 0.15250500 10078.97119754 0 22.73945493 0 3313.51499755 0 522.55947705 0 235.32565553 0 25297
0.15350000 0.15350100 9821.84967060 0 112.01760296 0 2976.22983893 0 338.26284491 0 16.26059478 0 25452
0.15450000 0.15450400 9866.75902007 0 269.93331399 0 2846.82757877 0 244.53450808 0 322.84131090 0 26061
0.15550000 0.15549900 9591.68925460 0 117.83168072 0 2644.84622943 0 49.72780378 0 529.61033349 0 26128
0.15650000 0.15649500 9429.15859858 0 179.67836546 0 2587.42515292 0 153.23322486 0 427.86674073 0 26331
0.15750000 0.15749700 9391.90022557 0 140.06490896 0 2448.74428457 0 288.91238596 0 508.28282143 0 27345
0.15850000 0.15849900 9131.89989418 0 167.79554646 0 2266.43845643 0 157.23697752 0 581.09442943 0 26980
0.15950000 0.15949700 9271.62156107 0 40.34677658 0 2359.96638417 0 33.02719481 0 264.70164051 0 27777
0.16050000 0.16050000 9051.24908020 0 61.35363412 0 2350.06772578 0 97.22962738 0 410.09123047 0 28224
0.16150000 0.16150500 9031.01994276 0 202.91142463 0 2497.99398536 0 -78.41066122 0 740.88579229 0 28075
0.16250000 0.16249700 8980.50799693 0 91.97204466 0 2460.32593633 0 55.77451109 0 835.24746609 0 28590
0.16350000 0.16349900 8891.23184192 0 27.06607657 0 2573.91691664 0 357.57187216 0 1104.56294435 0 29163
0.16450000 0.16449100 8931.07006662 0 -9.90604363 0 2432.00292944 0 338.58283509 0 865.57677823 0 28996
0.16550000 0.16550500 8835.13944439 0 179.11146243 0 2409.00571079 0 171.75390259 0 910.22703530 0 30777
0.16650000 0.16650700 8672.36519723 0 262.51707082 0 2262.66279366 0 56.89691265 0 1051.61176537 0 29211
0.16750000 0.16749900 8448.69316357 0 147.61955618 0 2170.55212350 0 -177.79164131 0 962.67995966 0 30922
0.16850000 0.16850800 8370.22359758 0 156.40101699 0 2270.55736126 0 238.72485925 0 995.89804135 0 30867
0.16950000 0.16949900 8201.85782639 0 111.64668008 0 2091.83896636 0 -62.62971955 0 768.65518293 0 30852
0.17050000 0.17049200 8269.48758638 0 43.69925508 0 2094.16415457 0 -105.49467496 0 369.36611256 0 31257
0.17150000 0.17149500 8097.33508010 0 64.22280565 0 2218.61708554 0 -259.90289493 0 254.23054293 0 32608
0.17250000 0.17250900 8253.22234122 0 206.35602488 0 2363.40987719 0 -371.97364505 0 -153.50228236 0 32361
0.17350000 0.17350400 8040.54512610 0 85.08605513 0 2518.75459440 0 -523.60581174 0 255.29127165 0 32508
0.17450000 0.17449800 8048.14074093 0 60.17753177 0 2565.42444351 0 86.57450776 0 155.62373979 0 32791
0.17550000 0.17549800 8087.15961359 0 -109.95239293 0 2306.36525972 0 218.33517310 0 201.46648624 0 33633
0.17650000 0.17650100 8142.83126278 0 -100.26355510 0 2552.65805299 0 634.93582333 0 221.17743888 0 33984
0.17750000 0.17750300 8183.20095907 0 -67.26271242 0 2084.08833899 0 687.47400459 0 245.18113185 0 34069
