### header ###
fiducial parameters:
Omega_m = 0.31
Omega_nu = 0
Omega_de = 0.69
Omega_k = 0
H_0 = 100
w_de = -1
zeff = 0
beta = 0
fgrowth = 0
b_1 = 2
gamma = 0.55
Lx = 3500 Ly = 3500 Lz = 3500
nx = 700 ny = 700 nz = 700
xoffset = -685.467585 yoffset = -31.7331281 zoffset = 572.489161
bins = 400 dk = 0.001
kx_ny = 0.628318531 ky_ny = 0.628318531 kz_ny = 0.628318531
############################
A(data) = 8.05416555 (not used)
A(ran) = 8.04816878 (used)
Ngal = 479090
weighted Ngal = 0
Nran = 23820508
weighted Nran = 0
SN(data) = 3492.01467
SN(ran) = 70.1024689
SN(data+ran) = 3562.11714
############################
13 columns: k_central k_mean P_0(k) sigma^{lin}_{P_0(k)} P^img_1(k) sigma^{lin}_{P_1(k)} P_2(k) sigma^{lin}_{P_2(k)} P^img_3(k) sigma^{lin}_{P_3(k)} P_4(k) sigma^{lin}_{P_4(k)} N_modes
### header ###
0.00050000 0 0 0 0 0 0 0 0 0 0 0 0
0.00150000 0.00179520 23512.08175240 0 -5523.35172951 0 46439.87692411 0 -62758.82285807 0 -57146.70430049 0 3
0.00250000 0.00253879 40130.42334945 0 5556.87872906 0 11151.04904811 0 20320.15195368 0 43857.92149965 0 6
0.00350000 0.00331552 46687.34338381 0 -9947.23267685 0 -4475.64406587 0 29842.57274421 0 61602.65070051 0 7
0.00450000 0.00420575 41744.10396852 0 -7357.26088922 0 3799.00322388 0 6067.61185597 0 13871.18708630 0 24
0.00550000 0.00557378 65651.79988669 0 -7089.91960647 0 33925.38179784 0 11541.79139096 0 -30160.90208274 0 45
0.00650000 0.00659388 59526.81124351 0 -5724.95661981 0 22887.49190938 0 25632.09978542 0 21799.41454945 0 40
0.00750000 0.00754703 74862.42401033 0 -3440.54778020 0 41042.00785177 0 6458.24347557 0 30319.23632765 0 57
0.00850000 0.00846663 76386.97241461 0 -2628.66956287 0 20525.87574881 0 22781.19759112 0 5037.06629580 0 75
0.00950000 0.00948925 83882.27197734 0 -2093.20086232 0 34228.32060487 0 35280.85580213 0 7234.96706160 0 112
0.01050000 0.01054430 82409.20988347 0 2402.01907383 0 37397.88430746 0 -60.07810230 0 2972.90814148 0 105
0.01150000 0.01145670 77063.15929128 0 8022.72975547 0 24784.40259731 0 2039.99834156 0 17784.03595397 0 144
0.01250000 0.01249090 73073.24704288 0 2951.46104831 0 21019.59071247 0 12446.62177514 0 6047.17234435 0 169
0.01350000 0.01339930 73412.72452182 0 -3440.64743112 0 6022.63607256 0 3476.08994287 0 -17685.38153983 0 180
0.01450000 0.01448870 70477.78338214 0 -897.10633039 0 7177.97780576 0 49.10354611 0 -22783.30133283 0 267
0.01550000 0.01550050 76002.65202015 0 3189.41638099 0 2676.67916328 0 -14193.61318502 0 -19659.68777824 0 238
0.01650000 0.01653350 70026.14325279 0 668.57465336 0 1903.07797285 0 -16958.15124574 0 -31267.13805538 0 315
0.01750000 0.01747870 75075.01264685 0 1628.50646200 0 13164.99420937 0 -19810.27139578 0 -39375.29079682 0 297
0.01850000 0.01844180 70202.85755690 0 4619.04174459 0 21051.36828470 0 -25379.20788656 0 -35858.72043442 0 388
0.01950000 0.01947590 70366.28507122 0 3230.09610237 0 26837.65451168 0 -14329.80278029 0 -41321.91622319 0 399
0.02050000 0.02045430 71278.75535952 0 -2477.56554607 0 34307.70917382 0 -6558.82447422 0 -26172.76140632 0 462
0.02150000 0.02154770 72670.98948222 0 2714.32506767 0 36051.15743977 0 3621.84602678 0 -41452.34820955 0 571
0.02250000 0.02255340 71925.82202193 0 2500.16416102 0 37010.46366206 0 12561.44178351 0 -27094.31100097 0 510
0.02350000 0.02348930 73763.60649533 0 -3818.73410670 0 29227.72654703 0 6515.25487606 0 -37840.77730021 0 555
0.02450000 0.02439640 69842.34266080 0 408.64407762 0 28269.08466423 0 4848.27208532 0 -12010.59362378 0 592
0.02550000 0.02547300 76191.10298857 0 3648.74070376 0 39283.83339382 0 7223.78401353 0 -19862.75421542 0 837
0.02650000 0.02652900 69172.13483953 0 2997.97588487 0 37616.34127613 0 5997.10329152 0 3290.81673167 0 723
0.02750000 0.02749970 70761.89923699 0 1619.22785380 0 36888.33591931 0 7462.43690267 0 -667.02342065 0 826
0.02850000 0.02848090 65665.52956946 0 4335.40199972 0 41368.30926418 0 10862.18316591 0 10801.91650193 0 831
0.02950000 0.02946900 66836.20647254 0 -731.51971272 0 38353.09376956 0 6608.61671893 0 10713.13860153 0 996
0.03050000 0.03053250 66652.51660380 0 -1841.58228081 0 41142.65528437 0 798.75972688 0 21405.90412539 0 1041
0.03150000 0.03150510 67214.76925809 0 712.42438134 0 37135.02731627 0 7451.01026346 0 13918.68735978 0 1036
0.03250000 0.03246190 67034.40108679 0 1520.25234225 0 41205.10319635 0 6185.03386067 0 18343.74197355 0 1059
0.03350000 0.03345080 62867.88525754 0 5823.31208117 0 34622.60609167 0 5596.34049471 0 21318.32203608 0 1302
0.03450000 0.03451200 58978.84188824 0 4472.80955071 0 37412.72122272 0 6638.31269410 0 23703.96514150 0 1339
0.03550000 0.03553350 55408.34930397 0 1820.95453967 0 32010.86611344 0 3989.93439305 0 23979.88747598 0 1365
0.03650000 0.03647120 55162.65441624 0 -22.62983891 0 36092.34648809 0 2820.58616895 0 12202.58773613 0 1308
0.03750000 0.03744890 55706.08411834 0 957.20469504 0 34890.11345928 0 1276.12972465 0 18355.14646811 0 1579
0.03850000 0.03847530 54309.42106572 0 2988.97408479 0 33169.80635221 0 -3182.30794845 0 8227.80028344 0 1662
0.03950000 0.03950240 51061.46530341 0 4432.08554003 0 31243.66472676 0 -285.77781080 0 6271.03260754 0 1683
0.04050000 0.04050350 49921.45874009 0 1631.15274763 0 29887.74782947 0 -456.98474054 0 -1067.66885082 0 1822
0.04150000 0.04152450 47803.98734177 0 -344.56078326 0 27431.24184520 0 3214.50626902 0 -8021.26820859 0 1887
0.04250000 0.04250150 46881.66268437 0 1976.98574102 0 25194.41078534 0 109.53873088 0 -13352.11649881 0 1920
0.04350000 0.04349210 46507.19665901 0 1514.57223962 0 22893.13879503 0 622.88249053 0 -12352.94990717 0 2005
0.04450000 0.04448520 44578.72984534 0 475.90512919 0 20194.37034374 0 846.80475874 0 -10256.41627509 0 2151
0.04550000 0.04548030 44223.75111166 0 1043.03292810 0 22696.38358301 0 3551.95751252 0 -10649.62774637 0 2274
0.04650000 0.04648670 43340.40103763 0 1371.76139411 0 21687.36262228 0 3394.18795618 0 -4565.16381203 0 2311
0.04750000 0.04749250 41832.90401357 0 1871.51077480 0 22637.03592198 0 6985.99476573 0 -3007.11055285 0 2568
0.04850000 0.04851840 40344.00849521 0 2163.41047399 0 19179.81322060 0 5344.03542907 0 -1806.05119047 0 2493
0.04950000 0.04949480 38095.33004779 0 1730.67080310 0 17205.17481245 0 4168.71922190 0 2042.95465229 0 2644
0.05050000 0.05050630 36058.13300440 0 563.20819592 0 15144.83661019 0 4000.19843816 0 1125.67897501 0 2829
0.05150000 0.05149060 35232.46974268 0 513.09596103 0 11593.83131760 0 1963.76538519 0 3129.63689929 0 2784
0.05250000 0.05249300 36093.34299733 0 -99.20138698 0 10612.55760288 0 3322.83789505 0 -1177.86284188 0 3055
0.05350000 0.05348950 35419.92420186 0 -188.12322760 0 9762.75667305 0 -1490.41242686 0 -1351.87549873 0 3009
0.05450000 0.05448610 34478.99803877 0 1621.64162061 0 9980.64895315 0 171.03863040 0 -1979.95312407 0 3336
0.05550000 0.05550870 35042.69009529 0 710.56312354 0 12565.42782044 0 -2457.67965070 0 1472.48633298 0 3349
0.05650000 0.05647670 34250.13308477 0 472.44392045 0 12036.94575685 0 1617.26805231 0 2321.39040450 0 3324
0.05750000 0.05747970 34841.28450683 0 -397.33591228 0 12404.21477108 0 26.21118237 0 1157.70013839 0 3639
0.05850000 0.05849280 34569.79110228 0 536.01899510 0 12554.13404913 0 228.06774661 0 2380.29517254 0 3846
0.05950000 0.05951020 33814.32637990 0 816.07795013 0 11971.61904042 0 -279.41676019 0 -143.52722493 0 3787
0.06050000 0.06049470 33130.49959911 0 334.26684288 0 9365.99098549 0 2962.11262478 0 657.50454301 0 3930
0.06150000 0.06148310 32479.88979276 0 -0.70844167 0 9481.26495918 0 2342.44996631 0 -880.62628213 0 4083
0.06250000 0.06249100 32840.84758185 0 -46.13782390 0 8148.24562961 0 2915.23240150 0 -3042.18767787 0 4303
0.06350000 0.06350600 32014.63070388 0 48.15143689 0 9227.57585294 0 725.27159983 0 -2264.97690955 0 4470
0.06450000 0.06451750 31594.10380727 0 1914.16137000 0 7570.80174567 0 -847.03395586 0 -492.18144668 0 4479
0.06550000 0.06550280 31231.15299971 0 556.60798310 0 10573.72695974 0 -168.14432470 0 1966.77705754 0 4636
0.06650000 0.06648880 31365.46029976 0 -316.61312819 0 10962.64236899 0 309.84461603 0 5419.47117806 0 4653
0.06750000 0.06749660 32128.23275652 0 -1208.45567536 0 11154.81363855 0 2802.75972599 0 4144.42654124 0 5220
0.06850000 0.06852730 32849.15182546 0 -377.48323388 0 10804.28597944 0 1413.18296125 0 4337.61646468 0 5029
0.06950000 0.06949320 32004.77633479 0 1719.49882736 0 9107.04252496 0 2415.07334479 0 2509.73064967 0 5040
0.07050000 0.07048030 31511.50426412 0 1135.30082528 0 8421.97564378 0 -1249.51185578 0 2832.56642441 0 5475
0.07150000 0.07148790 29903.47053071 0 1211.46734771 0 8542.34288688 0 -1825.52740982 0 1232.87015158 0 5509
0.07250000 0.07249820 29099.28757913 0 804.63248797 0 9265.99682006 0 -1331.29204689 0 -141.21864520 0 5916
0.07350000 0.07351270 28219.25920255 0 420.59665226 0 8274.66943439 0 -1614.89857480 0 -137.96559617 0 5721
0.07450000 0.07449140 28610.55516164 0 419.28679623 0 10300.12981347 0 497.94902067 0 -1644.21809092 0 6028
0.07550000 0.07549160 27737.17017994 0 588.87273762 0 9640.16389265 0 585.96514512 0 -2268.68613837 0 6183
0.07650000 0.07648840 27385.62386695 0 692.82968811 0 9637.08578635 0 1215.48660162 0 -882.01807336 0 6330
0.07750000 0.07749960 26771.10983952 0 525.49696482 0 10385.68566734 0 1272.88553348 0 65.76418398 0 6583
0.07850000 0.07848650 26691.94271706 0 271.98612301 0 8609.41903064 0 595.22493037 0 -173.19994821 0 6549
0.07950000 0.07947320 26293.11757709 0 702.88668074 0 10366.94022142 0 525.84685029 0 1642.09220455 0 6828
0.08050000 0.08048110 25237.48212889 0 606.53752464 0 8458.74683450 0 465.76620136 0 993.16428435 0 7147
0.08150000 0.08149960 24638.35863295 0 839.00762760 0 9595.14381994 0 1002.32109698 0 1532.32117630 0 7386
0.08250000 0.08250610 23658.67933299 0 1001.53053298 0 7957.94558296 0 1246.88771480 0 523.83390164 0 7227
0.08350000 0.08350160 22773.22551725 0 1473.99216916 0 8624.68776656 0 460.54117127 0 -756.38040364 0 7798
0.08450000 0.08449610 21348.21731309 0 404.94813559 0 7575.68464092 0 582.24373675 0 -572.62520818 0 7371
0.08550000 0.08548940 21434.36000018 0 402.57755085 0 7755.05630298 0 371.30044770 0 512.01198043 0 8256
0.08650000 0.08650700 21410.88667156 0 -95.85544114 0 6808.91507490 0 -49.64022169 0 -56.90621341 0 8037
0.08750000 0.08749060 21329.94797714 0 78.30824222 0 7516.80201753 0 627.35903146 0 35.15872806 0 8155
0.08850000 0.08849210 21267.50006516 0 975.32012567 0 7736.84232865 0 -529.96686235 0 23.45970966 0 8718
0.08950000 0.08949900 20106.34536143 0 1209.20859344 0 7955.19964640 0 -123.58375346 0 889.23058574 0 8571
0.09050000 0.09049190 19361.51007088 0 520.28079260 0 8164.43336850 0 -41.06049863 0 1150.09345124 0 8932
0.09150000 0.09150830 19058.23909409 0 328.77939870 0 8368.19736214 0 1536.45115346 0 1750.24667338 0 9285
0.09250000 0.09250820 18736.03444187 0 335.83689854 0 8892.36121905 0 819.45279474 0 2777.16051101 0 9204
0.09350000 0.09350330 18667.49675124 0 -157.09525176 0 8081.61237886 0 916.91471949 0 2238.71335508 0 9349
0.09450000 0.09448040 18848.41853878 0 -99.34278057 0 7923.70995462 0 769.88531822 0 2210.31284192 0 9564
0.09550000 0.09549270 18754.41450107 0 218.05615051 0 7931.95883661 0 198.05510296 0 2679.34759356 0 10155
0.09650000 0.09649430 18191.49750729 0 563.74409644 0 8064.10703332 0 -90.32016452 0 2051.43605310 0 9913
0.09750000 0.09749140 18000.05701118 0 454.57540266 0 7943.11974002 0 238.74146774 0 2221.66197486 0 10476
0.09850000 0.09850240 17628.91268326 0 171.04859550 0 7221.76885041 0 1091.54964099 0 1976.56499268 0 10575
0.09950000 0.09950330 17690.80697899 0 -37.90876137 0 6884.24010064 0 229.32224102 0 612.57969229 0 10882
0.10050000 0.10051200 17369.26666626 0 174.63159981 0 6600.72215134 0 283.93094702 0 965.41482389 0 10875
0.10150000 0.10150300 17243.59577957 0 417.91272072 0 6008.98389605 0 -316.97408598 0 963.63660852 0 11118
0.10250000 0.10250800 17033.33233126 0 117.88372065 0 5908.46933135 0 -86.63739856 0 597.96311630 0 11575
0.10350000 0.10349800 16973.87394698 0 11.58962383 0 5731.40071285 0 221.39556368 0 -85.72924648 0 11364
0.10450000 0.10450100 17043.40814685 0 89.31889419 0 6410.33352608 0 -555.01578279 0 -1861.82249058 0 12093
0.10550000 0.10551000 16547.25727172 0 640.48416530 0 6082.64807307 0 -800.10058542 0 -1302.16076030 0 12067
0.10650000 0.10649700 16278.08905538 0 548.66137558 0 6453.82561797 0 100.82182172 0 -1041.03990963 0 12054
0.10750000 0.10749900 15829.65990023 0 171.94766827 0 6382.58628008 0 1012.83094769 0 -511.53144153 0 12807
0.10850000 0.10850100 15841.61801103 0 -1.11615678 0 5533.40540044 0 1255.83415326 0 -772.53492555 0 12736
0.10950000 0.10950300 15983.23304546 0 -286.20520254 0 5343.60360840 0 1617.34555858 0 -894.97933679 0 12933
0.11050000 0.11050200 16012.46398298 0 98.22846180 0 4939.30873997 0 599.63946627 0 -128.34706760 0 13428
0.11150000 0.11150900 15719.04737529 0 663.80469583 0 4443.46788995 0 417.68241637 0 570.76173591 0 13453
0.11250000 0.11250000 15369.16191102 0 318.53417655 0 4560.42485700 0 192.88100557 0 1943.77983889 0 13668
0.11350000 0.11349100 15119.48098636 0 70.52583727 0 4455.64744725 0 796.86746657 0 1862.52004704 0 13791
0.11450000 0.11448600 15281.57982170 0 -69.33323717 0 4222.25391239 0 876.28482356 0 2639.36542864 0 14205
0.11550000 0.11549300 14945.09187046 0 -18.39312454 0 3852.53791437 0 760.21696419 0 1934.86661741 0 14776
0.11650000 0.11649800 15295.75239747 0 16.54194256 0 4096.88197847 0 245.58970064 0 2252.39874856 0 14553
0.11750000 0.11747300 14877.43996582 0 274.10758044 0 4315.12857297 0 -1001.38548553 0 1767.13196873 0 14568
0.11850000 0.11849100 14685.44585347 0 695.11612318 0 4392.34696626 0 -496.18187763 0 2147.34453068 0 16015
0.11950000 0.11950300 14261.15436642 0 163.64231742 0 4977.34217573 0 -950.20255682 0 1455.40173579 0 15270
0.12050000 0.12050700 14113.00666034 0 246.64157150 0 5175.37070511 0 -391.08115599 0 781.85560858 0 15999
0.12150000 0.12150000 13982.35322748 0 201.62039155 0 4965.50586049 0 375.82017069 0 678.91952644 0 15670
0.12250000 0.12250700 13882.92375061 0 -139.23891352 0 4440.15726482 0 97.06088515 0 2.14019181 0 16887
0.12350000 0.12352200 13999.62605420 0 -25.16318683 0 4558.97438245 0 545.77039157 0 -288.99764286 0 16407
0.12450000 0.12449800 13788.80898965 0 223.60559971 0 4332.94394361 0 479.84355513 0 -966.38475954 0 16306
0.12550000 0.12549900 13325.54291924 0 522.36571136 0 3578.75253858 0 383.46228928 0 -549.11201920 0 17523
0.12650000 0.12650100 13180.16329437 0 214.01143026 0 3344.29606055 0 95.92563968 0 -770.61719889 0 17154
0.12750000 0.12750600 13048.51335228 0 -3.95902046 0 3374.10275896 0 339.88604773 0 -477.49179334 0 18007
0.12850000 0.12850300 12921.07089362 0 40.62137023 0 3333.65555640 0 0.36056583 0 -724.33598838 0 17496
0.12950000 0.12949900 12909.77712230 0 330.30073613 0 3606.11225321 0 -298.37368752 0 -452.60563608 0 18405
0.13050000 0.13049000 12735.16655991 0 277.78469952 0 3513.45903913 0 -156.69554083 0 -394.73945211 0 18100
0.13150000 0.13148800 12550.25873544 0 51.07032316 0 3653.18070601 0 369.07712488 0 85.60091824 0 19059
0.13250000 0.13249300 12661.97849286 0 -61.71425973 0 3808.60292949 0 394.71952192 0 165.92875250 0 18957
0.13350000 0.13349100 12605.17746654 0 214.61597919 0 3893.37264831 0 689.27215015 0 151.74399717 0 19468
0.13450000 0.13450700 12447.83973087 0 343.10255809 0 3418.96781913 0 64.32721767 0 465.04096408 0 19953
0.13550000 0.13551000 12163.05953653 0 351.75225823 0 3736.79890304 0 -65.68114155 0 405.31573678 0 19956
0.13650000 0.13649900 11904.63147526 0 174.45112091 0 3593.50087524 0 -510.42753074 0 339.69338927 0 19723
0.13750000 0.13749600 11791.47231562 0 264.01847807 0 4103.27070989 0 -312.58944535 0 214.93707661 0 20946
0.13850000 0.13851100 11655.50416684 0 56.00714063 0 3849.76983317 0 -44.81434892 0 209.63454026 0 20955
0.13950000 0.13949800 11843.95513526 0 -221.73326959 0 3818.83375763 0 651.34168701 0 414.97966188 0 20506
0.14050000 0.14048300 11823.80350409 0 -13.17019820 0 3626.68463272 0 558.43934562 0 -195.59815408 0 21447
0.14150000 0.14148400 11775.86033762 0 283.47366001 0 3599.23633950 0 476.78870071 0 95.97502225 0 21771
0.14250000 0.14249400 11393.20079189 0 319.88942910 0 3394.01079898 0 200.37254055 0 747.05418444 0 22470
0.14350000 0.14350900 11297.97879845 0 249.52812658 0 3754.84679250 0 91.75070889 0 835.32607960 0 22519
0.14450000 0.14449900 11133.77622139 0 173.41253684 0 3786.42506288 0 -135.38685172 0 1083.07045465 0 22218
0.14550000 0.14550500 10941.95926623 0 269.23465029 0 3744.78204924 0 -218.40825044 0 1048.25685095 0 23559
0.14650000 0.14650700 10692.69908991 0 167.69146661 0 3746.85257398 0 25.65025840 0 1236.53509110 0 23044
0.14750000 0.14750500 10790.32377784 0 50.81056642 0 3796.41229987 0 302.37190401 0 1064.56970711 0 23649
0.14850000 0.14849900 10689.04522272 0 47.74320028 0 3602.98985761 0 321.22032255 0 758.73770159 0 23640
0.14950000 0.14949500 10627.54953068 0 143.70106043 0 3075.42679698 0 224.25000902 0 849.64591728 0 24457
0.15050000 0.15050000 10475.18326885 0 152.57885047 0 2993.05977265 0 418.88597807 0 966.74461010 0 24591
0.15150000 0.15149900 10251.25657172 0 242.89912571 0 2833.82866943 0 288.17939805 0 950.58012310 0 25020
0.15250000 0.15250500 9885.49339366 0 311.38145471 0 2792.52889786 0 416.67151311 0 1019.43669668 0 25297
0.15350000 0.15350100 9795.92935820 0 311.34934497 0 2602.11812795 0 315.48264383 0 974.27046928 0 25452
0.15450000 0.15450400 9381.10470887 0 77.46275949 0 2536.89106245 0 169.05889873 0 1194.19452099 0 26061
0.15550000 0.15549900 9352.54918316 0 89.76112284 0 2405.69508567 0 369.26756886 0 1342.25364847 0 26128
0.15650000 0.15649500 9449.49845928 0 -56.46974236 0 2217.55414235 0 260.30371309 0 1157.14652215 0 26331
0.15750000 0.15749700 9359.84584522 0 -86.07370651 0 1992.39841717 0 392.22049821 0 1216.94814849 0 27345
0.15850000 0.15849900 9316.99594817 0 149.86502365 0 1878.44205013 0 71.78664290 0 790.67250083 0 26980
0.15950000 0.15949700 9210.24766460 0 196.91243904 0 1746.82532501 0 71.66241141 0 843.77647790 0 27777
0.16050000 0.16050000 9098.50576253 0 157.16390017 0 1845.69011332 0 -344.96381589 0 559.61854822 0 28224
0.16150000 0.16150500 8888.16480795 0 256.79378612 0 1705.52555344 0 -126.68843334 0 612.96279473 0 28075
0.16250000 0.16249700 8835.39410786 0 52.54670695 0 1775.04868098 0 -195.28702176 0 249.55470016 0 28590
0.16350000 0.16349900 8858.62384533 0 47.44424751 0 2012.90436273 0 -258.07928304 0 6.34053359 0 29163
0.16450000 0.16449100 8825.75011294 0 99.49258912 0 1939.49484918 0 -144.59238257 0 -112.90892511 0 28996
0.16550000 0.16550500 8635.14004119 0 145.95095683 0 1812.46206654 0 -30.29864180 0 -279.98477046 0 30777
0.16650000 0.16650700 8577.44215656 0 120.51007609 0 1776.72060202 0 10.44885328 0 -56.79892258 0 29211
0.16750000 0.16749900 8503.87763046 0 43.97595248 0 1737.49135519 0 441.08156041 0 -540.42245868 0 30922
0.16850000 0.16850800 8432.16218261 0 110.79411107 0 1793.53946342 0 134.42023776 0 -372.95686749 0 30867
0.16950000 0.16949900 8437.83121292 0 69.38671649 0 1690.60005958 0 -33.28584432 0 -530.87590022 0 30852
0.17050000 0.17049200 8252.33655523 0 184.60222831 0 1994.32500168 0 -57.34246300 0 215.67338621 0 31257
0.17150000 0.17149500 8315.85848272 0 166.85107716 0 2208.76271645 0 -380.60120055 0 349.94304036 0 32608
0.17250000 0.17250900 8156.06269094 0 54.15618009 0 2416.06985403 0 30.41102590 0 308.49157793 0 32361
0.17350000 0.17350400 8188.92535100 0 82.26848064 0 2424.85020761 0 144.93230295 0 853.56884197 0 32508
0.17450000 0.17449800 8200.37413486 0 -25.60541548 0 2276.40354876 0 297.49233046 0 341.26898110 0 32791
0.17550000 0.17549800 8184.07567273 0 88.12928361 0 2305.53483536 0 148.14438438 0 687.84714194 0 33633
0.17650000 0.17650100 8109.53678205 0 150.34002639 0 2238.06008792 0 -188.75435011 0 263.17587415 0 33984
0.17750000 0.17750300 7884.80180520 0 231.57878081 0 2291.11866845 0 -89.18026868 0 439.97654239 0 34069
0.17850000 0.17849800 7780.96554306 0 122.17646098 0 2308.22541029 0 -15.99142657 0 122.04802201 0 34536
