### header ###
fiducial parameters:
Omega_m = 0.31
Omega_nu = 0
Omega_de = 0.69
Omega_k = 0
H_0 = 100
w_de = -1
zeff = 0
beta = 0
fgrowth = 0
b_1 = 2
gamma = 0.55
Lx = 3500 Ly = 3500 Lz = 3500
nx = 700 ny = 700 nz = 700
xoffset = -685.467585 yoffset = -31.7331281 zoffset = 572.489161
bins = 400 dk = 0.001
kx_ny = 0.628318531 ky_ny = 0.628318531 kz_ny = 0.628318531
############################
A(data) = 8.04544192 (not used)
A(ran) = 8.03790829 (used)
Ngal = 477535
weighted Ngal = 0
Nran = 23820508
weighted Nran = 0
SN(data) = 3490.01856
SN(ran) = 70.0130963
SN(data+ran) = 3560.03166
############################
13 columns: k_central k_mean P_0(k) sigma^{lin}_{P_0(k)} P^img_1(k) sigma^{lin}_{P_1(k)} P_2(k) sigma^{lin}_{P_2(k)} P^img_3(k) sigma^{lin}_{P_3(k)} P_4(k) sigma^{lin}_{P_4(k)} N_modes
### header ###
0.00050000 0 0 0 0 0 0 0 0 0 0 0 0
0.00150000 0.00179520 11672.33410057 0 -18354.48212862 0 -8211.70112315 0 2349.89056859 0 15943.48339936 0 3
0.00250000 0.00253879 14445.95146764 0 -10790.16876529 0 -15840.40005530 0 29177.90108534 0 18268.22871828 0 6
0.00350000 0.00331552 28360.87423698 0 -17079.94681875 0 1528.00296962 0 -34516.53321990 0 -56507.27754222 0 7
0.00450000 0.00420575 39399.98208117 0 -17831.42550419 0 -11330.64215667 0 7705.77338521 0 23705.73671347 0 24
0.00550000 0.00557378 61561.35092894 0 -22442.71662141 0 -14186.96979013 0 5847.23937510 0 105.71656435 0 45
0.00650000 0.00659388 79960.45452658 0 -8465.79990541 0 -17844.71229397 0 4361.47732466 0 6732.10635763 0 40
0.00750000 0.00754703 91383.43987223 0 -2791.18914656 0 -6113.98275231 0 -7156.74108675 0 -39316.38602879 0 57
0.00850000 0.00846663 77105.78774183 0 2988.58655342 0 -12074.25949149 0 -8568.58429671 0 -258.99053537 0 75
0.00950000 0.00948925 84708.26740881 0 2496.60994476 0 8025.74142782 0 -36216.13507957 0 -15261.20674404 0 112
0.01050000 0.01054430 84414.29718488 0 -4745.29946450 0 12050.23254663 0 -16883.63449971 0 -14091.08345720 0 105
0.01150000 0.01145670 87453.09673136 0 -795.83441867 0 12910.55218504 0 -3436.51745396 0 -1202.88629597 0 144
0.01250000 0.01249090 90332.78697019 0 6213.89941147 0 22175.20925379 0 5123.41935706 0 -28189.80681853 0 169
0.01350000 0.01339930 84526.68128179 0 13707.53812548 0 23586.15560543 0 3424.01679924 0 -6004.94249750 0 180
0.01450000 0.01448870 72766.98653840 0 13945.59310909 0 28140.75641958 0 3483.87378721 0 -11832.55064069 0 267
0.01550000 0.01550050 66164.33780254 0 1436.88880869 0 29821.09243406 0 5815.86040657 0 1110.07806934 0 238
0.01650000 0.01653350 67406.87409369 0 -1804.14675060 0 43955.57940455 0 14321.16636693 0 13153.14682181 0 315
0.01750000 0.01747870 70636.22835030 0 -4256.57811933 0 31411.63189426 0 9068.02365230 0 14878.99009130 0 297
0.01850000 0.01844180 76021.69641884 0 -1682.60584107 0 60833.34557211 0 2259.93900176 0 27856.08694849 0 388
0.01950000 0.01947590 80937.25502208 0 730.84208644 0 56636.71301935 0 8535.96522779 0 29220.86170564 0 399
0.02050000 0.02045430 78599.77652961 0 4316.43510730 0 68361.64066280 0 2901.12625968 0 30967.85311553 0 462
0.02150000 0.02154770 76943.02456700 0 4509.24857169 0 66493.96091239 0 9268.45487617 0 33892.27554663 0 571
0.02250000 0.02255340 76688.36109617 0 2006.59313758 0 64197.56074501 0 17011.40912812 0 27945.88350277 0 510
0.02350000 0.02348930 76688.91471241 0 -1199.57567085 0 56513.69949061 0 18735.37010238 0 38580.29787484 0 555
0.02450000 0.02439640 76053.14182133 0 343.34282753 0 40763.53888258 0 25025.33638536 0 21687.91623852 0 592
0.02550000 0.02547300 74080.71787813 0 4479.22042678 0 31982.07806892 0 15245.15187305 0 20915.40013593 0 837
0.02650000 0.02652900 72066.44054712 0 2173.91811024 0 21488.72511504 0 11761.46631536 0 17016.28095104 0 723
0.02750000 0.02749970 67225.95230616 0 595.84055163 0 17708.19052896 0 1984.53706655 0 7735.81260245 0 826
0.02850000 0.02848090 67329.81071295 0 -166.32403450 0 22722.40354633 0 384.71456922 0 13225.67054938 0 831
0.02950000 0.02946900 67308.88401905 0 2617.03254949 0 26752.95122681 0 2752.75710711 0 6104.28339577 0 996
0.03050000 0.03053250 62665.81532960 0 5215.74040140 0 28150.16789568 0 -1321.01692946 0 18191.05461430 0 1041
0.03150000 0.03150510 61564.34045664 0 5993.23905016 0 32372.70968852 0 5784.30428083 0 17884.57266332 0 1036
0.03250000 0.03246190 54982.61841469 0 3844.75407003 0 29186.86966845 0 1554.03400527 0 21420.29814766 0 1059
0.03350000 0.03345080 56005.92267443 0 2414.07683556 0 29723.10235942 0 9512.76572329 0 14037.71485158 0 1302
0.03450000 0.03451200 50026.09220962 0 1576.69905418 0 26454.21990321 0 3270.66510050 0 15653.60993561 0 1339
0.03550000 0.03553350 51265.97114281 0 811.95904530 0 22581.78502113 0 4034.13511372 0 9672.57258740 0 1365
0.03650000 0.03647120 50734.49955152 0 -687.21159050 0 20123.61818815 0 -14.09152635 0 9498.63743682 0 1308
0.03750000 0.03744890 50467.10290715 0 -734.77276176 0 18917.84201539 0 6130.84590301 0 1568.59411241 0 1579
0.03850000 0.03847530 49654.61571196 0 -45.90940184 0 15933.40758378 0 743.39921002 0 44.79873694 0 1662
0.03950000 0.03950240 49132.66632001 0 2962.95412147 0 14295.14640361 0 555.08221674 0 -3507.74571952 0 1683
0.04050000 0.04050350 47007.99791056 0 1950.96577770 0 14078.46100691 0 1391.60300018 0 863.24826832 0 1822
0.04150000 0.04152450 44729.97780237 0 1328.87828008 0 15316.12547514 0 1057.17450136 0 21.75113921 0 1887
0.04250000 0.04250150 44697.20372090 0 1164.87500487 0 14182.31941371 0 1800.52610038 0 -1882.50559334 0 1920
0.04350000 0.04349210 43098.02784735 0 958.95412236 0 15849.14719191 0 -312.94597421 0 -3786.87902820 0 2005
0.04450000 0.04448520 41862.02422784 0 1745.12018699 0 13098.11736747 0 594.30039125 0 702.61097985 0 2151
0.04550000 0.04548030 42379.43396662 0 1197.30584426 0 13886.13472481 0 -580.10345636 0 -364.26619974 0 2274
0.04650000 0.04648670 39570.49588337 0 277.18125781 0 13819.70077590 0 2021.20860634 0 591.93644990 0 2311
0.04750000 0.04749250 41276.96258442 0 1810.34725250 0 18179.53939649 0 -2896.92984858 0 -3910.95550012 0 2568
0.04850000 0.04851840 38658.91138106 0 1508.48246097 0 19328.18237317 0 -2901.51379105 0 556.87814782 0 2493
0.04950000 0.04949480 38437.46488468 0 2670.16863629 0 22006.46702356 0 -2453.54967354 0 370.59624784 0 2644
0.05050000 0.05050630 38621.59764642 0 -1152.38542248 0 21088.23912635 0 -1066.30474040 0 1636.30137867 0 2829
0.05150000 0.05149060 39106.56547347 0 -2457.14817910 0 21817.79460865 0 6848.89723982 0 1124.33922371 0 2784
0.05250000 0.05249300 41282.38802359 0 -2263.19426526 0 18316.17188475 0 6216.88893917 0 1622.46097265 0 3055
0.05350000 0.05348950 41381.26388422 0 -23.50422040 0 16044.02010871 0 7827.89005564 0 696.26764497 0 3009
0.05450000 0.05448610 40725.89297820 0 1635.05020597 0 12941.00107829 0 4749.10834424 0 -346.25484896 0 3336
0.05550000 0.05550870 36917.89902657 0 3403.16761161 0 10306.77320836 0 1715.65673065 0 3448.64164964 0 3349
0.05650000 0.05647670 35984.16987462 0 1781.74743749 0 10087.30865813 0 -1290.78948271 0 1696.92235706 0 3324
0.05750000 0.05747970 33975.65015251 0 1030.89433840 0 12079.68493065 0 -1865.87496146 0 4609.98458289 0 3639
0.05850000 0.05849280 34472.57609037 0 1303.65552415 0 12044.58566097 0 -1294.35477130 0 3404.03125295 0 3846
0.05950000 0.05951020 32697.68242194 0 744.30160449 0 12709.70021283 0 593.53307914 0 3635.84144535 0 3787
0.06050000 0.06049470 33043.69257253 0 -344.48992039 0 12464.78038784 0 1870.38139767 0 3906.29405137 0 3930
0.06150000 0.06148310 33095.17888293 0 -702.43492989 0 12472.75246171 0 2095.04994056 0 2068.55386727 0 4083
0.06250000 0.06249100 34691.03305905 0 -63.64549463 0 13018.17518228 0 1758.35161515 0 3190.24680535 0 4303
0.06350000 0.06350600 32960.87158288 0 1107.52036231 0 12837.14267149 0 -581.37677372 0 4281.83409224 0 4470
0.06450000 0.06451750 32699.78616366 0 2219.69110104 0 13636.12163040 0 -457.09546379 0 5904.05147375 0 4479
0.06550000 0.06550280 31218.53054942 0 7.12703404 0 12813.22644988 0 1160.14712217 0 5863.99180255 0 4636
0.06650000 0.06648880 31094.63123470 0 -106.11284286 0 13061.57869556 0 2970.48330235 0 6066.52676814 0 4653
0.06750000 0.06749660 31419.49324488 0 -103.53609142 0 12077.69191218 0 3665.82530096 0 4116.45784875 0 5220
0.06850000 0.06852730 31773.58619258 0 380.74514077 0 11737.10720076 0 2228.88113064 0 5289.70353118 0 5029
0.06950000 0.06949320 30804.09343146 0 712.89827684 0 9692.64671229 0 -770.25956280 0 5330.40539722 0 5040
0.07050000 0.07048030 30540.35065428 0 1049.62317583 0 11195.22762413 0 -266.06242923 0 4997.83704897 0 5475
0.07150000 0.07148790 29822.86400603 0 1331.81244616 0 12717.45084020 0 -2055.66568118 0 4803.32951888 0 5509
0.07250000 0.07249820 27799.28592218 0 1076.03177776 0 12431.34196689 0 285.31498762 0 3878.17034633 0 5916
0.07350000 0.07351270 28422.65780947 0 465.67983722 0 12654.78148173 0 -500.32071265 0 5272.29783657 0 5721
0.07450000 0.07449140 27712.81106534 0 -124.89471672 0 12381.07361221 0 1057.91966882 0 4117.50971961 0 6028
0.07550000 0.07549160 28499.61046695 0 -874.92846377 0 12571.84976884 0 2219.95683684 0 2767.78225189 0 6183
0.07650000 0.07648840 28016.85710486 0 185.88551075 0 10381.05743557 0 2139.94821770 0 2892.42341237 0 6330
0.07750000 0.07749960 28453.43887246 0 467.12256115 0 11042.48490326 0 859.62761811 0 2180.87153023 0 6583
0.07850000 0.07848650 27233.26867745 0 969.01997285 0 10077.73109716 0 492.90336225 0 2732.45046340 0 6549
0.07950000 0.07947320 26501.72017668 0 1706.31168850 0 9875.80510944 0 -1322.46740401 0 1650.03106145 0 6828
0.08050000 0.08048110 25133.84516858 0 1055.90782740 0 10159.13482923 0 -1353.04916516 0 1086.27035652 0 7147
0.08150000 0.08149960 24220.59981754 0 504.53594671 0 9555.94779008 0 582.94682938 0 72.01661509 0 7386
0.08250000 0.08250610 24002.69646511 0 351.67696642 0 8782.67876940 0 1099.96903678 0 -821.74033704 0 7227
0.08350000 0.08350160 23696.65740712 0 -248.53383181 0 8772.41472429 0 1404.96729624 0 -805.04659291 0 7798
0.08450000 0.08449610 23676.72722245 0 586.88746978 0 7900.73488062 0 1574.45137224 0 -595.78961893 0 7371
0.08550000 0.08548940 22954.36875128 0 741.06737841 0 7193.99945977 0 1491.33142982 0 -25.72056766 0 8256
0.08650000 0.08650700 22408.17096798 0 361.00097115 0 7272.09256672 0 -216.73522216 0 -350.33389342 0 8037
0.08750000 0.08749060 22033.04060312 0 212.48455666 0 7487.21676562 0 -789.48554761 0 421.97958563 0 8155
0.08850000 0.08849210 21638.09077684 0 840.23111949 0 8912.21389745 0 -954.33364121 0 601.65684386 0 8718
0.08950000 0.08949900 21326.73700294 0 783.48324033 0 8502.71503636 0 -412.00342097 0 572.78797136 0 8571
0.09050000 0.09049190 20701.37209718 0 630.68958676 0 9362.10459948 0 -895.00812483 0 -871.49272138 0 8932
0.09150000 0.09150830 20341.18937083 0 557.34429270 0 8657.76080079 0 647.45972993 0 -52.39822708 0 9285
0.09250000 0.09250820 19947.23605378 0 23.82852880 0 8655.85636093 0 1330.73843065 0 175.31365502 0 9204
0.09350000 0.09350330 19896.52480611 0 40.66222711 0 7267.39790099 0 1487.05751244 0 -1421.49827719 0 9349
0.09450000 0.09448040 20185.62320713 0 -300.73541440 0 8036.60337847 0 643.04076510 0 -1070.76578007 0 9564
0.09550000 0.09549270 19406.79587939 0 414.25885353 0 6963.82797144 0 433.88454927 0 -761.33637623 0 10155
0.09650000 0.09649430 19297.40131018 0 817.52953191 0 6735.62735693 0 -237.64420035 0 -751.52518921 0 9913
0.09750000 0.09749140 18725.73717979 0 871.87471659 0 6680.11072029 0 -644.30411736 0 -702.58108458 0 10476
0.09850000 0.09850240 18241.65513872 0 654.52608763 0 7901.10026734 0 -245.73142640 0 -412.39870296 0 10575
0.09950000 0.09950330 17815.81352619 0 218.76699377 0 7259.04936808 0 2.45823327 0 -1082.30646423 0 10882
0.10050000 0.10051200 17425.18190659 0 345.44103309 0 7241.67689044 0 718.87954671 0 -1152.04218041 0 10875
0.10150000 0.10150300 17091.01914357 0 415.61964225 0 7119.51593071 0 225.26755567 0 -1369.03760220 0 11118
0.10250000 0.10250800 16966.34476611 0 393.94113749 0 6819.99847205 0 525.57225663 0 -1433.73319612 0 11575
0.10350000 0.10349800 16208.77630202 0 147.61069832 0 6404.77521902 0 649.13386545 0 -540.48999986 0 11364
0.10450000 0.10450100 16332.23272374 0 -96.34627730 0 6495.57935486 0 716.87213422 0 -1046.72665566 0 12093
0.10550000 0.10551000 16353.60231064 0 35.52378261 0 6235.42401092 0 539.15357025 0 -94.39854464 0 12067
0.10650000 0.10649700 16141.23512062 0 328.21471013 0 5567.70746273 0 1062.89335713 0 318.38359293 0 12054
0.10750000 0.10749900 16145.88549705 0 -19.54686079 0 5720.08479689 0 778.81514819 0 1100.01775501 0 12807
0.10850000 0.10850100 16259.59827293 0 -96.65552733 0 5490.10153808 0 960.84859713 0 1232.47154789 0 12736
0.10950000 0.10950300 15957.10235889 0 474.61852505 0 5475.86252836 0 985.72921823 0 1570.73107110 0 12933
0.11050000 0.11050200 15669.99697634 0 622.06313850 0 4866.70750614 0 -137.75411477 0 1916.38690729 0 13428
0.11150000 0.11150900 15174.51044071 0 418.15631187 0 5141.23472769 0 -41.44924796 0 1441.71634231 0 13453
0.11250000 0.11250000 14867.47487349 0 261.13192299 0 4899.32657505 0 31.45248877 0 1722.48835506 0 13668
0.11350000 0.11349100 14622.22287875 0 -87.24205822 0 4645.84784298 0 416.90624640 0 876.46308799 0 13791
0.11450000 0.11448600 14794.28680643 0 -343.30075270 0 4525.54703383 0 325.74779616 0 804.19956007 0 14205
0.11550000 0.11549300 15190.01169545 0 -81.30219885 0 4329.40079966 0 90.88728900 0 457.44424202 0 14776
0.11650000 0.11649800 15135.20368760 0 80.66376860 0 4459.92136463 0 -209.15400136 0 -154.69366451 0 14553
0.11750000 0.11747300 15024.59116266 0 307.05881910 0 4741.10305340 0 -386.43410126 0 969.26467123 0 14568
0.11850000 0.11849100 14854.74169994 0 511.87357637 0 5409.02997576 0 -309.37514946 0 112.32098466 0 16015
0.11950000 0.11950300 14177.00469779 0 500.77357074 0 5849.68635889 0 -171.50366805 0 707.34218425 0 15270
0.12050000 0.12050700 14030.62856369 0 380.41297103 0 5460.51628616 0 212.55652678 0 354.42068851 0 15999
0.12150000 0.12150000 13676.86778574 0 89.32376601 0 5537.63502852 0 708.91334714 0 836.29380078 0 15670
0.12250000 0.12250700 13949.57914602 0 -139.20237485 0 5285.80607285 0 573.82766266 0 385.80297875 0 16887
0.12350000 0.12352200 13837.97011185 0 -281.20715512 0 4636.38100526 0 217.80591597 0 642.11179705 0 16407
0.12450000 0.12449800 14043.47246048 0 169.27591629 0 4595.85629642 0 764.89945035 0 569.78847856 0 16306
0.12550000 0.12549900 14027.30686625 0 151.19813156 0 4207.45021411 0 137.41862332 0 494.38816101 0 17523
0.12650000 0.12650100 13599.25078876 0 343.58641868 0 3862.45871741 0 255.17169054 0 156.47187987 0 17154
0.12750000 0.12750600 13351.11998957 0 237.97083393 0 3791.71763415 0 213.55192878 0 -85.91105405 0 18007
0.12850000 0.12850300 12993.26245143 0 179.56653498 0 3404.40771199 0 124.48282624 0 121.27960267 0 17496
0.12950000 0.12949900 13066.33979524 0 55.69755843 0 3215.50277826 0 397.85852601 0 -305.71242441 0 18405
0.13050000 0.13049000 12896.71177901 0 -21.23151501 0 3029.17769621 0 -73.17987353 0 -171.93881041 0 18100
0.13150000 0.13148800 12847.66138007 0 103.56720466 0 2594.58894708 0 357.76674508 0 -367.51481985 0 19059
0.13250000 0.13249300 12858.73370489 0 96.98847214 0 3081.82660072 0 -4.50239480 0 -333.46077763 0 18957
0.13350000 0.13349100 12750.22492166 0 298.24414132 0 2896.68625743 0 -262.88024308 0 -556.70209786 0 19468
0.13450000 0.13450700 12387.60628385 0 547.29394346 0 3594.98456677 0 -581.83627520 0 -230.04304936 0 19953
0.13550000 0.13551000 12094.07895291 0 547.13450198 0 3437.21501043 0 -267.68784651 0 299.95702996 0 19956
0.13650000 0.13649900 11748.51169532 0 130.38437537 0 3692.94142444 0 715.69182440 0 381.06180926 0 19723
0.13750000 0.13749600 11676.76303050 0 116.86174507 0 3647.71097755 0 502.41227481 0 814.54664761 0 20946
0.13850000 0.13851100 11653.62187163 0 34.37857205 0 3300.08426755 0 782.27082076 0 89.01041922 0 20955
0.13950000 0.13949800 11415.78833452 0 155.11552008 0 3163.77287671 0 292.96707131 0 381.99409901 0 20506
0.14050000 0.14048300 11044.00181176 0 447.89546910 0 3075.11677188 0 -0.10798207 0 500.24652807 0 21447
0.14150000 0.14148400 11011.15022402 0 155.54955521 0 3104.51379428 0 39.22271416 0 346.85829066 0 21771
0.14250000 0.14249400 10789.32726861 0 76.03265802 0 3014.62866140 0 -174.81318593 0 933.19878760 0 22470
0.14350000 0.14350900 10896.07555218 0 45.55863059 0 3054.84334514 0 126.05066743 0 397.79652099 0 22519
0.14450000 0.14449900 10776.47229949 0 11.58729865 0 2844.17022082 0 272.00605319 0 734.80265703 0 22218
0.14550000 0.14550500 10793.04756975 0 99.37201151 0 2658.81950335 0 142.50967828 0 628.60577523 0 23559
0.14650000 0.14650700 10713.18289083 0 30.29808819 0 2929.40497727 0 331.87522072 0 354.30110741 0 23044
0.14750000 0.14750500 10686.76432381 0 186.02945098 0 2470.66748771 0 -308.48272007 0 147.55865839 0 23649
0.14850000 0.14849900 10343.83227953 0 362.48909161 0 2782.28699740 0 -214.33474214 0 458.96557945 0 23640
0.14950000 0.14949500 10338.41791269 0 213.40355962 0 2765.26883416 0 -415.62960734 0 92.47960003 0 24457
0.15050000 0.15050000 10071.60810154 0 168.17864890 0 2858.40923053 0 152.11049113 0 366.61685430 0 24591
0.15150000 0.15149900 9981.00326755 0 -95.75235780 0 2661.13361924 0 501.76786550 0 -278.33942299 0 25020
0.15250000 0.15250500 9990.17115250 0 -1.30066600 0 2846.48433670 0 254.43205924 0 -381.83576477 0 25297
0.15350000 0.15350100 10012.55939328 0 168.30819510 0 2583.50554993 0 133.96737968 0 -482.49648416 0 25452
0.15450000 0.15450400 9787.08257067 0 260.67020704 0 2687.90650065 0 -177.63995046 0 -290.30417719 0 26061
0.15550000 0.15549900 9694.10825917 0 125.41400876 0 2608.81688447 0 -507.99161928 0 -404.38012533 0 26128
0.15650000 0.15649500 9513.17539931 0 184.99861753 0 3018.21609464 0 -287.96238049 0 -522.54397579 0 26331
0.15750000 0.15749700 9500.66367226 0 173.68934497 0 3082.77882066 0 -81.67755066 0 -573.02491911 0 27345
0.15850000 0.15849900 9201.81055308 0 65.38617481 0 2849.10847768 0 131.73630623 0 -433.16927709 0 26980
0.15950000 0.15949700 9249.79800885 0 161.20862043 0 2905.11229662 0 466.82914454 0 -667.37441335 0 27777
0.16050000 0.16050000 9323.49540284 0 4.09216517 0 2569.68728856 0 328.56902453 0 -500.41372018 0 28224
0.16150000 0.16150500 9099.30296991 0 60.92679599 0 2492.39138900 0 578.18683694 0 -40.58593879 0 28075
0.16250000 0.16249700 9058.82255038 0 99.57419216 0 2324.88925915 0 290.39275579 0 -98.94705568 0 28590
0.16350000 0.16349900 9103.85369541 0 80.89816972 0 2424.10836185 0 477.35338928 0 643.65085020 0 29163
0.16450000 0.16449100 9081.65368415 0 71.63395554 0 2380.51661903 0 209.87480970 0 877.53821073 0 28996
0.16550000 0.16550500 8928.70058911 0 173.75910061 0 2484.09821771 0 -9.80558443 0 956.34437540 0 30777
0.16650000 0.16650700 8855.42394346 0 195.38888714 0 2650.26059627 0 -17.15512790 0 1376.38962588 0 29211
0.16750000 0.16749900 8686.52670067 0 268.89251545 0 2346.64637741 0 -6.28617955 0 1157.44547492 0 30922
0.16850000 0.16850800 8506.14745705 0 229.18715865 0 2766.16569247 0 -316.94751240 0 1273.04054602 0 30867
0.16950000 0.16949900 8443.97635320 0 -17.30128259 0 2688.65941874 0 -219.92183725 0 556.31567372 0 30852
0.17050000 0.17049200 8347.00493243 0 87.17285619 0 2685.41522757 0 -15.89144347 0 511.81378581 0 31257
0.17150000 0.17149500 8197.21852229 0 230.88011712 0 2660.22568860 0 -273.24172464 0 268.67771235 0 32608
0.17250000 0.17250900 8213.21803165 0 50.67504117 0 2711.65663739 0 -14.13349046 0 138.12393042 0 32361
0.17350000 0.17350400 8055.83600668 0 32.87018924 0 2535.01983955 0 423.20750645 0 216.24361094 0 32508
0.17450000 0.17449800 8172.37222539 0 18.41028665 0 2493.96365913 0 326.99232547 0 43.10134954 0 32791
0.17550000 0.17549800 8075.87691460 0 -26.32256996 0 2251.80084302 0 359.25929446 0 -48.40410735 0 33633
0.17650000 0.17650100 8083.33966153 0 78.51894856 0 2217.78666117 0 82.20005367 0 46.86760083 0 33984
0.17750000 0.17750300 8090.01627339 0 66.39109901 0 2098.52665055 0 -126.31751046 0 150.21380188 0 34069
0.17850000 0.17849800 7893.09497649 0 80.67594816 0 2259.45181947 0 -120.67173204 0 176.32455827 0 34536
