### header ###
fiducial parameters:
Omega_m = 0.31
Omega_nu = 0
Omega_de = 0.69
Omega_k = 0
H_0 = 100
w_de = -1
zeff = 0
beta = 0
fgrowth = 0
b_1 = 2
gamma = 0.55
Lx = 3500 Ly = 3500 Lz = 3500
nx = 700 ny = 700 nz = 700
xoffset = -685.467585 yoffset = -31.7331281 zoffset = 572.489161
bins = 400 dk = 0.001
kx_ny = 0.628318531 ky_ny = 0.628318531 kz_ny = 0.628318531
############################
A(data) = 8.06833919 (not used)
A(ran) = 8.06431556 (used)
Ngal = 478930
weighted Ngal = 0
Nran = 23820508
weighted Nran = 0
SN(data) = 3490.44748
SN(ran) = 70.2431132
SN(data+ran) = 3560.69059
############################
13 columns: k_central k_mean P_0(k) sigma^{lin}_{P_0(k)} P^img_1(k) sigma^{lin}_{P_1(k)} P_2(k) sigma^{lin}_{P_2(k)} P^img_3(k) sigma^{lin}_{P_3(k)} P_4(k) sigma^{lin}_{P_4(k)} N_modes
### header ###
0.00050000 0 0 0 0 0 0 0 0 0 0 0 0
0.00150000 0.00179520 99608.73781026 0 -67371.11048453 0 83926.56127662 0 63744.59193668 0 -251561.00541468 0 3
0.00250000 0.00253879 153236.54656014 0 -32307.93658833 0 52820.30410086 0 21539.87925570 0 178220.14028093 0 6
0.00350000 0.00331552 122493.12946868 0 28274.95299638 0 24186.82922684 0 -65587.58040274 0 121907.40348578 0 7
0.00450000 0.00420575 85289.12156880 0 53790.23975497 0 -18982.94728533 0 -14227.38377572 0 53315.01557375 0 24
0.00550000 0.00557378 56689.08511574 0 -2014.60950075 0 -12388.27062334 0 5089.73734496 0 -4338.15900860 0 45
0.00650000 0.00659388 62629.16593445 0 -75.18064263 0 8850.65177146 0 -11236.41667246 0 23121.89302579 0 40
0.00750000 0.00754703 58345.17273886 0 5922.26544807 0 17202.40673124 0 -27220.53550390 0 -723.80894572 0 57
0.00850000 0.00846663 54156.95515296 0 8769.96774051 0 20027.73185522 0 7147.47355088 0 35755.63709036 0 75
0.00950000 0.00948925 48464.00862421 0 -1815.25229239 0 19780.59756526 0 14283.07756956 0 18850.52228050 0 112
0.01050000 0.01054430 63463.57633278 0 2143.53565094 0 38759.89098340 0 24961.89196415 0 34310.14508528 0 105
0.01150000 0.01145670 70510.55746361 0 -7844.08886685 0 31912.98676205 0 24770.45146803 0 11349.57583211 0 144
0.01250000 0.01249090 63425.93042840 0 1992.08839207 0 27407.54707009 0 16275.09952768 0 18169.79575065 0 169
0.01350000 0.01339930 61808.26377239 0 6280.84268733 0 11242.72789761 0 230.05190722 0 23379.32457782 0 180
0.01450000 0.01448870 64532.72001727 0 -2562.29097558 0 23750.35818249 0 5999.46169671 0 20341.30009408 0 267
0.01550000 0.01550050 60968.64938139 0 -8471.79003314 0 19286.55043186 0 7556.62916990 0 18686.76259643 0 238
0.01650000 0.01653350 74969.60411457 0 -5403.78169379 0 19282.56439492 0 -117.18062802 0 -409.30066648 0 315
0.01750000 0.01747870 73897.80307213 0 355.66078889 0 19564.57650805 0 -22805.00308948 0 9906.12113480 0 297
0.01850000 0.01844180 78053.57874631 0 7949.60812237 0 32644.31381632 0 2983.26076519 0 -954.37350158 0 388
0.01950000 0.01947590 66180.94628977 0 6051.88915473 0 26850.27696197 0 -3971.77578035 0 16138.02414643 0 399
0.02050000 0.02045430 66431.62372367 0 1883.52424722 0 29223.18689385 0 19533.90616830 0 16021.10039634 0 462
0.02150000 0.02154770 66437.60277907 0 -2111.25982409 0 25077.15486551 0 9592.71898081 0 8452.20309054 0 571
0.02250000 0.02255340 65240.13084993 0 -1167.53236283 0 26390.44331225 0 22230.57087789 0 3276.47807103 0 510
0.02350000 0.02348930 66846.06084163 0 -977.24449573 0 17189.89500420 0 -4544.21497347 0 5386.23205895 0 555
0.02450000 0.02439640 65634.63778322 0 -1705.97951876 0 13960.87291733 0 5267.11598855 0 7846.81265875 0 592
0.02550000 0.02547300 70555.51110237 0 -518.60112093 0 21444.76798551 0 -9988.08955543 0 2224.03145237 0 837
0.02650000 0.02652900 69820.64090416 0 4145.94344974 0 19465.14703118 0 -3680.78401179 0 12647.36302410 0 723
0.02750000 0.02749970 70005.88089837 0 2438.79026456 0 24960.67400842 0 -6421.60515275 0 640.41773135 0 826
0.02850000 0.02848090 63728.09417270 0 5249.42241349 0 28727.14674198 0 1067.62456152 0 8517.90626601 0 831
0.02950000 0.02946900 64548.22127201 0 -266.08457388 0 31102.82475507 0 4415.17810003 0 -4083.91628611 0 996
0.03050000 0.03053250 61905.36806105 0 3252.07466713 0 24426.76650566 0 5370.21040494 0 3799.78935894 0 1041
0.03150000 0.03150510 61050.91675480 0 3693.73863183 0 26616.87235479 0 8626.37075993 0 5285.37425218 0 1036
0.03250000 0.03246190 56589.43419237 0 -1860.39416068 0 21225.86812384 0 9073.96949073 0 4777.64172530 0 1059
0.03350000 0.03345080 59566.33944311 0 838.91904900 0 19113.26854844 0 5007.29281436 0 7013.24375711 0 1302
0.03450000 0.03451200 55725.90357977 0 2662.93840818 0 19590.48574813 0 3213.81978489 0 -1486.23816041 0 1339
0.03550000 0.03553350 53329.96321226 0 4312.07261132 0 19381.77242530 0 -2691.18390880 0 11617.41536947 0 1365
0.03650000 0.03647120 50336.00658130 0 4219.03186587 0 20318.38038171 0 -979.65936977 0 8837.85216397 0 1308
0.03750000 0.03744890 47917.14650141 0 3319.79300573 0 25007.73138890 0 -253.41451259 0 11279.48801600 0 1579
0.03850000 0.03847530 46849.33149590 0 2351.96109333 0 27257.18489905 0 2749.01466132 0 11086.94028741 0 1662
0.03950000 0.03950240 44158.20294873 0 1186.89785893 0 24533.39299367 0 4325.29296716 0 13761.34962410 0 1683
0.04050000 0.04050350 44290.18506057 0 56.36953782 0 25861.18618592 0 2554.97216888 0 8609.07578857 0 1822
0.04150000 0.04152450 45393.76367525 0 -1746.96926524 0 22837.77717094 0 5582.95405401 0 9745.84923305 0 1887
0.04250000 0.04250150 46309.88783074 0 -505.54131380 0 25059.99276204 0 2631.54836732 0 6524.93208795 0 1920
0.04350000 0.04349210 44751.90100551 0 2005.10944606 0 19732.43295230 0 47.30440405 0 4200.84003619 0 2005
0.04450000 0.04448520 43981.04575163 0 40.62646350 0 19095.22065899 0 3129.76976719 0 4378.22975211 0 2151
0.04550000 0.04548030 44182.22989359 0 -858.14614105 0 14828.72173662 0 3810.34128449 0 788.66287388 0 2274
0.04650000 0.04648670 44948.98838728 0 -78.97590340 0 18187.40074711 0 2900.78301761 0 -114.24646194 0 2311
0.04750000 0.04749250 43331.98607077 0 2844.83456030 0 15290.65912805 0 1548.96288050 0 5145.40899415 0 2568
0.04850000 0.04851840 40759.44212240 0 2780.03931547 0 14355.49057387 0 -723.87427244 0 7064.29824684 0 2493
0.04950000 0.04949480 39989.14048477 0 1344.53454738 0 14179.66205575 0 572.49898368 0 9995.67409793 0 2644
0.05050000 0.05050630 40063.65723080 0 -379.97450696 0 15933.73975352 0 2764.95880906 0 4254.98370456 0 2829
0.05150000 0.05149060 38737.19271752 0 141.33601185 0 12513.72006354 0 1154.83240626 0 3448.77451754 0 2784
0.05250000 0.05249300 38578.85847262 0 725.14426809 0 13193.00719116 0 -257.93645005 0 449.41127037 0 3055
0.05350000 0.05348950 37932.45614970 0 593.73570268 0 13007.32430395 0 -2451.20234068 0 -102.06989417 0 3009
0.05450000 0.05448610 37290.59347997 0 2925.67360381 0 11774.42093540 0 -2858.39815821 0 -4420.59246687 0 3336
0.05550000 0.05550870 34229.98145360 0 1763.76598199 0 9898.95734064 0 -2105.43578124 0 -2625.54716727 0 3349
0.05650000 0.05647670 33505.40851746 0 837.25820028 0 10983.40297803 0 894.95829937 0 -4296.52706728 0 3324
0.05750000 0.05747970 34354.65583105 0 -1378.22763180 0 10769.17563744 0 2692.30221360 0 -8686.80350879 0 3639
0.05850000 0.05849280 35061.07015448 0 -2124.72377107 0 9502.60132911 0 3203.35643793 0 -9226.77864555 0 3846
0.05950000 0.05951020 35009.58384408 0 622.24804632 0 10227.68359218 0 -3482.06899827 0 -9128.69999231 0 3787
0.06050000 0.06049470 36014.17587487 0 1964.60688187 0 11783.38951850 0 -2258.68782905 0 -4618.01201839 0 3930
0.06150000 0.06148310 33842.00719195 0 738.14317743 0 12593.21935574 0 -874.74909211 0 -3913.42462855 0 4083
0.06250000 0.06249100 33088.97838104 0 1318.70281358 0 14079.45751614 0 1850.91625063 0 -656.09725052 0 4303
0.06350000 0.06350600 33064.95143618 0 335.68631492 0 13796.00600079 0 3189.42745331 0 -3439.18588424 0 4470
0.06450000 0.06451750 32723.48093877 0 542.96466446 0 14760.18404599 0 1969.62264501 0 -1479.18508950 0 4479
0.06550000 0.06550280 31521.24790996 0 1162.59410596 0 13347.57684563 0 3065.41741534 0 2346.44707557 0 4636
0.06650000 0.06648880 31318.40291929 0 460.13370972 0 14293.04266189 0 1210.18295803 0 5874.66552368 0 4653
0.06750000 0.06749660 31286.84679355 0 -111.02884435 0 12880.10329179 0 2996.11573430 0 6735.84880342 0 5220
0.06850000 0.06852730 31376.31117809 0 -550.04652341 0 14427.34996194 0 1800.78076386 0 6722.48450737 0 5029
0.06950000 0.06949320 31500.09976956 0 481.98937168 0 12209.12040778 0 -845.50818950 0 4200.04282881 0 5040
0.07050000 0.07048030 31503.86436000 0 1307.28724669 0 14312.75140007 0 -935.25713278 0 4625.76264576 0 5475
0.07150000 0.07148790 30525.51373902 0 508.10898593 0 14044.02607672 0 -1413.31582915 0 5237.66360454 0 5509
0.07250000 0.07249820 29586.35914790 0 1254.70477612 0 13562.37994711 0 72.86586240 0 4147.91432356 0 5916
0.07350000 0.07351270 29072.16038333 0 482.83751176 0 12613.26026366 0 1936.97035912 0 2562.55671138 0 5721
0.07450000 0.07449140 28167.77289214 0 451.81839378 0 11059.37019861 0 1947.61086328 0 1389.54354777 0 6028
0.07550000 0.07549160 28173.53050105 0 4.57125359 0 10338.72793779 0 1677.70080117 0 -1093.50058462 0 6183
0.07650000 0.07648840 26933.65156785 0 872.51248250 0 9553.02469633 0 535.96141901 0 -624.26763837 0 6330
0.07750000 0.07749960 26442.04034591 0 1071.32382525 0 8546.83825076 0 -130.89480954 0 -1599.72948980 0 6583
0.07850000 0.07848650 25647.15814718 0 1012.99038917 0 8275.93167942 0 263.08618832 0 -1489.00624161 0 6549
0.07950000 0.07947320 24522.98500834 0 496.57605240 0 7530.89708703 0 994.61697337 0 -563.17830065 0 6828
0.08050000 0.08048110 24679.10478828 0 121.73467522 0 7294.22614403 0 1478.03356772 0 -1347.47978578 0 7147
0.08150000 0.08149960 24054.29349876 0 332.13984928 0 6820.64066688 0 1227.07932570 0 -1461.10398307 0 7386
0.08250000 0.08250610 23694.22149566 0 749.10035007 0 6905.57647057 0 838.94894428 0 -1223.41438619 0 7227
0.08350000 0.08350160 22775.21853571 0 844.60800949 0 6758.18168258 0 -392.30021895 0 -532.99403596 0 7798
0.08450000 0.08449610 22194.03220598 0 714.53587368 0 6524.83243703 0 404.56392592 0 -362.59206423 0 7371
0.08550000 0.08548940 22123.05860390 0 87.04043119 0 6723.82425867 0 -251.66176357 0 408.24768839 0 8256
0.08650000 0.08650700 21794.65344978 0 -519.67402920 0 6297.37366828 0 1566.22463490 0 17.91147841 0 8037
0.08750000 0.08749060 22529.63437124 0 82.71945642 0 6907.73557391 0 853.51901651 0 40.71792090 0 8155
0.08850000 0.08849210 21966.60665421 0 837.51839991 0 6384.45750298 0 778.00908294 0 434.36951710 0 8718
0.08950000 0.08949900 20895.91284425 0 899.60978303 0 5956.40142549 0 169.55050995 0 1198.84489741 0 8571
0.09050000 0.09049190 20354.03326762 0 646.68023827 0 5442.10300999 0 251.60861641 0 1589.00040705 0 8932
0.09150000 0.09150830 20204.99977556 0 449.64821812 0 5308.32718153 0 304.32727657 0 2207.58905002 0 9285
0.09250000 0.09250820 19567.01241951 0 134.36598337 0 5332.64200683 0 178.27550191 0 1298.59547171 0 9204
0.09350000 0.09350330 19907.92930068 0 -189.78961248 0 5030.61113043 0 -203.69645246 0 1456.04393063 0 9349
0.09450000 0.09448040 19463.37545921 0 322.44713614 0 5789.51934582 0 -1031.28962040 0 -975.71872937 0 9564
0.09550000 0.09549270 19096.54933797 0 1092.44317760 0 6357.87285109 0 -863.80077733 0 -92.14820535 0 10155
0.09650000 0.09649430 18228.36834894 0 849.03583219 0 6205.01940697 0 -619.32384534 0 1126.37653148 0 9913
0.09750000 0.09749140 17984.77720293 0 -89.97869402 0 6467.53315609 0 102.85414694 0 49.13443789 0 10476
0.09850000 0.09850240 18181.53241495 0 -109.42147496 0 6625.64595450 0 796.21087771 0 -994.43981617 0 10575
0.09950000 0.09950330 18045.01064994 0 304.79342145 0 6763.77320662 0 639.65152647 0 -606.48880641 0 10882
0.10050000 0.10051200 17725.90624867 0 384.96258929 0 5725.85347812 0 535.73111465 0 -758.06228978 0 10875
0.10150000 0.10150300 17393.07216462 0 316.50683387 0 5789.30897165 0 9.19717125 0 -530.47065313 0 11118
0.10250000 0.10250800 17178.93340263 0 468.83434256 0 5794.41331339 0 80.63143741 0 -1559.81375883 0 11575
0.10350000 0.10349800 16795.38807091 0 231.34404753 0 5946.65777965 0 -187.65043933 0 -336.34733271 0 11364
0.10450000 0.10450100 16821.40803423 0 180.20097919 0 5921.42395139 0 69.95871279 0 -929.35226196 0 12093
0.10550000 0.10551000 16591.65729425 0 -53.36218368 0 5823.98749298 0 188.76652967 0 -713.34116984 0 12067
0.10650000 0.10649700 16551.90764815 0 106.36584548 0 6353.44392116 0 222.14626730 0 -1049.16810328 0 12054
0.10750000 0.10749900 16686.65784119 0 311.32498586 0 6436.04346431 0 321.28897096 0 -701.53253542 0 12807
0.10850000 0.10850100 15996.85200499 0 607.85291682 0 6075.75001471 0 4.05760844 0 -1246.81020853 0 12736
0.10950000 0.10950300 15541.33656195 0 628.50501708 0 6372.46617520 0 -169.54829548 0 -350.77125025 0 12933
0.11050000 0.11050200 15145.16877994 0 526.27645649 0 6630.17453535 0 -440.01086660 0 -82.16838682 0 13428
0.11150000 0.11150900 14797.60850388 0 345.45210541 0 6392.06419013 0 462.46000517 0 -124.87921547 0 13453
0.11250000 0.11250000 14529.87968977 0 -29.14523773 0 6388.18887644 0 805.94345122 0 365.38782625 0 13668
0.11350000 0.11349100 14660.53312263 0 18.15163714 0 5887.81944556 0 1188.74693718 0 196.16616435 0 13791
0.11450000 0.11448600 14665.07277580 0 -217.58557671 0 5826.48983839 0 873.57764015 0 942.16515624 0 14205
0.11550000 0.11549300 14784.98605359 0 88.84610592 0 5768.43763937 0 697.63950601 0 1214.35722449 0 14776
0.11650000 0.11649800 14571.51163108 0 114.74139486 0 4836.87866308 0 800.88339878 0 1662.94139219 0 14553
0.11750000 0.11747300 14393.35792475 0 376.63620103 0 5311.05097344 0 351.23518066 0 1580.29755974 0 14568
0.11850000 0.11849100 14273.00175397 0 339.50183805 0 4449.19228188 0 272.84090648 0 1784.39372312 0 16015
0.11950000 0.11950300 13983.46045996 0 -13.84616363 0 4693.56956295 0 99.38662697 0 1881.90768780 0 15270
0.12050000 0.12050700 13849.26388316 0 214.75549049 0 4154.51342915 0 -222.99330015 0 1111.77213504 0 15999
0.12150000 0.12150000 13866.20454014 0 130.06881411 0 4739.57507257 0 -489.49087175 0 767.77604034 0 15670
0.12250000 0.12250700 13700.00894461 0 329.89216734 0 4066.84276124 0 -132.52022682 0 266.24512259 0 16887
0.12350000 0.12352200 13383.34045479 0 -16.41029261 0 4220.22767695 0 -176.59250853 0 333.95349609 0 16407
0.12450000 0.12449800 13572.45576270 0 -128.40132199 0 4255.23836803 0 630.93982130 0 -675.99089653 0 16306
0.12550000 0.12549900 13608.44081836 0 107.18586185 0 4642.23826509 0 -90.06007561 0 -963.77169089 0 17523
0.12650000 0.12650100 13408.36390888 0 376.21766715 0 4406.46418040 0 -196.21598981 0 -665.36257193 0 17154
0.12750000 0.12750600 13115.05802444 0 372.68005937 0 4515.84767728 0 -162.86946915 0 -121.45343817 0 18007
0.12850000 0.12850300 12941.55469453 0 189.10312835 0 4506.56906909 0 42.66797875 0 594.97137413 0 17496
0.12950000 0.12949900 12688.66279567 0 19.91357619 0 4725.19212263 0 560.94722719 0 56.22692628 0 18405
0.13050000 0.13049000 12841.90377116 0 135.54518596 0 4657.76166449 0 321.34211812 0 159.27649975 0 18100
0.13150000 0.13148800 12642.71264767 0 209.94788705 0 4192.33649073 0 142.37016698 0 108.67686111 0 19059
0.13250000 0.13249300 12410.85816597 0 223.69750001 0 4663.54141804 0 33.05985817 0 723.42141435 0 18957
0.13350000 0.13349100 12132.49992003 0 202.66229732 0 4247.65382553 0 365.47419038 0 262.01217281 0 19468
0.13450000 0.13450700 12141.57922638 0 157.43960106 0 4535.87751288 0 170.64667010 0 -110.95798147 0 19953
0.13550000 0.13551000 11981.03051651 0 288.00113363 0 4077.43897609 0 42.30015612 0 -65.21289293 0 19956
0.13650000 0.13649900 11698.35406389 0 284.45023906 0 4223.91476112 0 112.97093012 0 153.36609276 0 19723
0.13750000 0.13749600 11437.93298416 0 182.46194792 0 4033.30468936 0 150.45517857 0 494.43134308 0 20946
0.13850000 0.13851100 11390.98632693 0 93.83939224 0 3828.11236582 0 838.05430043 0 423.83087834 0 20955
0.13950000 0.13949800 11307.05810480 0 -141.46998698 0 3115.54182980 0 740.77285457 0 886.65737745 0 20506
0.14050000 0.14048300 11389.87909445 0 -186.90859357 0 3348.79142443 0 669.78375123 0 685.98366967 0 21447
0.14150000 0.14148400 11494.40184073 0 -32.25556449 0 2812.48122718 0 259.38692460 0 717.45453851 0 21771
0.14250000 0.14249400 11348.69004612 0 237.59548212 0 3036.88403428 0 150.09311354 0 1009.41956442 0 22470
0.14350000 0.14350900 11248.59622976 0 365.92261954 0 2702.62162033 0 -173.26195323 0 1244.67324984 0 22519
0.14450000 0.14449900 10859.26007216 0 190.94888489 0 3141.98254146 0 129.75989625 0 1469.80683038 0 22218
0.14550000 0.14550500 10867.91863017 0 236.95328728 0 3061.36494446 0 7.63550841 0 1210.49298312 0 23559
0.14650000 0.14650700 10510.00573041 0 332.78979475 0 3000.99862955 0 267.89489899 0 1227.42256777 0 23044
0.14750000 0.14750500 10399.07210805 0 258.71594171 0 3091.30451077 0 -80.79143250 0 974.92595091 0 23649
0.14850000 0.14849900 10182.12097555 0 34.52195866 0 3000.62217050 0 -61.53843122 0 1493.23586969 0 23640
0.14950000 0.14949500 10227.66144753 0 99.65789893 0 3166.14235422 0 76.68836110 0 816.03033913 0 24457
0.15050000 0.15050000 10221.44987331 0 44.72920274 0 3142.43650678 0 5.91674036 0 890.27470597 0 24591
0.15150000 0.15149900 10259.48330906 0 89.33306676 0 2990.01488333 0 -92.64192031 0 1102.39276869 0 25020
0.15250000 0.15250500 9928.58688185 0 211.81578825 0 3057.02459313 0 31.61159808 0 816.79322231 0 25297
0.15350000 0.15350100 9846.96170329 0 155.07233802 0 2968.58993480 0 89.88624011 0 560.21313206 0 25452
0.15450000 0.15450400 9830.27570979 0 130.30576186 0 3424.83615128 0 -221.38559859 0 424.84953222 0 26061
0.15550000 0.15549900 9547.53282322 0 323.23437843 0 3149.81067511 0 -40.31400249 0 322.63093673 0 26128
0.15650000 0.15649500 9428.15101703 0 218.39828535 0 3411.49399987 0 -104.79800428 0 496.07115438 0 26331
0.15750000 0.15749700 9205.14332285 0 97.58194875 0 3076.32365529 0 123.56714498 0 686.71776481 0 27345
0.15850000 0.15849900 9231.58403452 0 30.55385889 0 3084.47288635 0 363.17779021 0 353.59137139 0 26980
0.15950000 0.15949700 9151.57541538 0 62.57823324 0 3021.61529836 0 152.83683563 0 221.73326959 0 27777
0.16050000 0.16050000 9202.26451840 0 117.24595474 0 3019.42297804 0 138.64432968 0 346.20945243 0 28224
0.16150000 0.16150500 8989.18869959 0 155.76878725 0 2846.17431161 0 -91.89509200 0 184.44832299 0 28075
0.16250000 0.16249700 8897.85309216 0 85.46915757 0 3133.74473180 0 -23.96361116 0 347.73743325 0 28590
0.16350000 0.16349900 8981.51557849 0 51.99408722 0 2993.11513428 0 100.08772658 0 -106.15524986 0 29163
0.16450000 0.16449100 8892.88161832 0 32.83641865 0 2955.18134945 0 -40.05944975 0 -169.10761696 0 28996
0.16550000 0.16550500 8931.09221127 0 35.99103472 0 2526.00696715 0 12.60362734 0 -168.78319784 0 30777
0.16650000 0.16650700 8843.54333893 0 90.79018471 0 2816.94337409 0 -49.07675108 0 -249.87579758 0 29211
0.16750000 0.16749900 8812.64048036 0 149.92702867 0 2694.50560624 0 299.48202723 0 -62.87076406 0 30922
0.16850000 0.16850800 8597.64914935 0 176.34448846 0 2547.43191568 0 418.85054663 0 -64.04664496 0 30867
0.16950000 0.16949900 8422.56247700 0 116.36127598 0 2265.43087487 0 452.45283799 0 -201.38676550 0 30852
0.17050000 0.17049200 8359.12912811 0 47.43339663 0 2405.65079637 0 292.89067227 0 395.77250002 0 31257
0.17150000 0.17149500 8362.36224696 0 31.74557321 0 1969.81087454 0 250.14042614 0 245.86429430 0 32608
0.17250000 0.17250900 8274.39262627 0 -87.20917342 0 2230.22088195 0 218.06833007 0 388.40386785 0 32361
0.17350000 0.17350400 8429.52696931 0 42.80904017 0 2011.44281585 0 52.52057627 0 498.86359470 0 32508
0.17450000 0.17449800 8272.32210153 0 189.51169713 0 2249.44243783 0 -236.61779584 0 393.14725180 0 32791
0.17550000 0.17549800 8096.64859596 0 365.68567179 0 2330.84616990 0 -294.25478268 0 579.27303200 0 33633
0.17650000 0.17650100 7862.87860206 0 427.80362848 0 2516.07509179 0 -148.20528216 0 534.58734350 0 33984
0.17750000 0.17750300 7544.49390190 0 168.85848965 0 2483.06849150 0 -12.68700195 0 578.01189421 0 34069
0.17850000 0.17849800 7564.44623123 0 -8.40831239 0 2502.97653153 0 230.01426132 0 523.93798149 0 34536
