### header ###
fiducial parameters:
Omega_m = 0.31
Omega_nu = 0
Omega_de = 0.69
Omega_k = 0
H_0 = 100
w_de = -1
zeff = 0
beta = 0
fgrowth = 0
b_1 = 2
gamma = 0.55
Lx = 3500 Ly = 3500 Lz = 3500
nx = 700 ny = 700 nz = 700
xoffset = -685.467585 yoffset = -31.7331281 zoffset = 572.489161
bins = 400 dk = 0.001
kx_ny = 0.628318531 ky_ny = 0.628318531 kz_ny = 0.628318531
############################
A(data) = 8.0215449 (not used)
A(ran) = 8.01994343 (used)
Ngal = 476477
weighted Ngal = 0
Nran = 23820508
weighted Nran = 0
SN(data) = 3485.10763
SN(ran) = 69.8566158
SN(data+ran) = 3554.96424
############################
13 columns: k_central k_mean P_0(k) sigma^{lin}_{P_0(k)} P^img_1(k) sigma^{lin}_{P_1(k)} P_2(k) sigma^{lin}_{P_2(k)} P^img_3(k) sigma^{lin}_{P_3(k)} P_4(k) sigma^{lin}_{P_4(k)} N_modes
### header ###
0.00050000 0 0 0 0 0 0 0 0 0 0 0 0
0.00150000 0.00179520 4635.60594252 0 -7790.35487450 0 9146.61501386 0 -22639.47183344 0 9298.71553990 0 3
0.00250000 0.00253879 13227.10995160 0 -7955.69790102 0 3795.94726223 0 -16641.81492567 0 9468.34355612 0 6
0.00350000 0.00331552 17774.84592437 0 -2849.89461275 0 639.36253879 0 -18648.56307581 0 -13484.43078039 0 7
0.00450000 0.00420575 28109.42174035 0 -8472.62045750 0 -6186.79436032 0 -17171.95783799 0 13326.42870523 0 24
0.00550000 0.00557378 39476.82401541 0 -11144.62709971 0 8581.72714626 0 -24351.36397365 0 -1622.51633427 0 45
0.00650000 0.00659388 59232.73029633 0 -13431.17289801 0 10355.86789661 0 -19841.05245877 0 13268.63116967 0 40
0.00750000 0.00754703 61920.98003905 0 -10954.94710324 0 14340.32148887 0 -16519.02284343 0 -12955.83799355 0 57
0.00850000 0.00846663 70691.14708140 0 -4956.31583090 0 6959.54298173 0 9827.80658136 0 -19726.34317365 0 75
0.00950000 0.00948925 79777.20755083 0 -6435.89952409 0 4033.47077424 0 -6995.19586765 0 -33129.61381312 0 112
0.01050000 0.01054430 81666.03544164 0 8746.81550931 0 23762.64846304 0 -26401.62636032 0 -43809.75688669 0 105
0.01150000 0.01145670 74789.23594328 0 6775.85311299 0 16003.60612313 0 -5335.89727033 0 -8118.82646257 0 144
0.01250000 0.01249090 73410.28861036 0 -3021.38277954 0 28703.34124362 0 -3104.64666217 0 -20914.18218020 0 169
0.01350000 0.01339930 69756.19997371 0 -171.05634612 0 24375.28019526 0 13792.13068710 0 -23480.08273367 0 180
0.01450000 0.01448870 82718.23846916 0 -168.70347710 0 32139.08363484 0 7778.81751204 0 -16813.43596036 0 267
0.01550000 0.01550050 70832.65139258 0 2417.63105183 0 513.64293387 0 -3318.42003745 0 -9085.04181555 0 238
0.01650000 0.01653350 78035.08796386 0 1680.55746097 0 29029.64265602 0 6950.80691745 0 -9756.53402650 0 315
0.01750000 0.01747870 77628.06930353 0 -441.96956086 0 1492.71547043 0 -12705.38200615 0 -15985.44751042 0 297
0.01850000 0.01844180 79373.51058794 0 613.93494485 0 27960.16680179 0 -37.97563822 0 -14325.15240387 0 388
0.01950000 0.01947590 81379.15150559 0 -3473.89762255 0 19520.84082502 0 4655.49183790 0 -869.01473509 0 399
0.02050000 0.02045430 75575.26028215 0 -3004.20960374 0 15484.64625888 0 7900.18126438 0 -1769.27999975 0 462
0.02150000 0.02154770 86757.20111650 0 1630.80950556 0 30977.04314513 0 16324.92498936 0 -4627.36813286 0 571
0.02250000 0.02255340 75981.83604949 0 3229.37640126 0 8797.95857765 0 2431.99185712 0 5381.73669508 0 510
0.02350000 0.02348930 75353.48161603 0 14928.37265999 0 30007.77183050 0 5568.82576754 0 14878.21502856 0 555
0.02450000 0.02439640 67059.86743388 0 6393.82468978 0 24886.04653914 0 -12166.38123398 0 10644.92200832 0 592
0.02550000 0.02547300 64986.24244184 0 32.22843730 0 39487.78561698 0 -4043.30299867 0 8652.84468857 0 837
0.02650000 0.02652900 63809.14359037 0 1632.68072846 0 28392.87325570 0 -3833.10598432 0 2330.17075808 0 723
0.02750000 0.02749970 60453.34338433 0 -17.88667641 0 24653.97061094 0 3909.63789346 0 4095.99619249 0 826
0.02850000 0.02848090 66163.11984681 0 -3138.82692889 0 22034.25855885 0 5266.41843209 0 -3876.36555738 0 831
0.02950000 0.02946900 66808.63638374 0 -1929.91728821 0 20179.97632147 0 6452.12047995 0 -8238.80617431 0 996
0.03050000 0.03053250 67493.79184352 0 -420.40510104 0 13406.26016717 0 6320.48161018 0 -8874.61228237 0 1041
0.03150000 0.03150510 66105.76520425 0 4667.74890147 0 14600.52112211 0 2963.59631631 0 -812.90794354 0 1036
0.03250000 0.03246190 65557.46367923 0 693.31133424 0 16308.64867188 0 280.65353888 0 4662.83278925 0 1059
0.03350000 0.03345080 64769.99993813 0 -208.55055966 0 21332.05171885 0 1301.13103409 0 -1172.52598132 0 1302
0.03450000 0.03451200 62765.02335997 0 6051.63449126 0 20449.25526106 0 -2263.33820548 0 -730.29400637 0 1339
0.03550000 0.03553350 60414.92241721 0 6307.48270084 0 25489.82041150 0 -6163.93000957 0 5130.21776450 0 1365
0.03650000 0.03647120 53471.46752344 0 5176.61080549 0 26751.84399433 0 1135.10152343 0 2570.73915942 0 1308
0.03750000 0.03744890 52427.90090928 0 569.91470307 0 27222.08562938 0 2499.98700383 0 -196.58137653 0 1579
0.03850000 0.03847530 51188.13269934 0 -393.16718199 0 23173.60078269 0 5294.99610245 0 -11593.38842461 0 1662
0.03950000 0.03950240 52455.91389107 0 -692.61820671 0 21451.30065715 0 2776.52938850 0 -9076.81507821 0 1683
0.04050000 0.04050350 51066.55857283 0 -626.96485669 0 19558.70817590 0 212.32732965 0 -9023.69006373 0 1822
0.04150000 0.04152450 51906.94802657 0 2654.37950110 0 20926.47246075 0 163.70100075 0 -4610.02887219 0 1887
0.04250000 0.04250150 49260.99456465 0 3618.56861863 0 20143.88054256 0 2109.56575840 0 -5990.60383685 0 1920
0.04350000 0.04349210 47882.04723174 0 1225.10845188 0 19341.57988620 0 2915.37634172 0 -761.81137896 0 2005
0.04450000 0.04448520 43710.65957956 0 1782.45606628 0 16677.68925809 0 6743.96481752 0 669.26778090 0 2151
0.04550000 0.04548030 43026.72207552 0 1794.41417708 0 13760.79600786 0 7201.35148345 0 525.37627648 0 2274
0.04650000 0.04648670 41663.60816709 0 838.07423062 0 13400.28111177 0 2806.73469060 0 -5755.44980236 0 2311
0.04750000 0.04749250 39286.04785878 0 651.40037034 0 9090.61119493 0 -1037.68499521 0 -3301.28007863 0 2568
0.04850000 0.04851840 38459.94170406 0 1501.66190888 0 9903.88452518 0 -2674.03287765 0 -5802.89471420 0 2493
0.04950000 0.04949480 37561.20109853 0 1472.36453741 0 8582.24754553 0 -3528.07450789 0 -3322.06283231 0 2644
0.05050000 0.05050630 38856.33093257 0 409.22537467 0 16763.72122193 0 -3776.83642959 0 -4644.34200681 0 2829
0.05150000 0.05149060 37341.19400439 0 1315.61363495 0 13244.93639456 0 -1847.36203437 0 -4528.65835710 0 2784
0.05250000 0.05249300 37176.43781109 0 1993.80460242 0 17675.41644749 0 -137.67882296 0 -2649.04264054 0 3055
0.05350000 0.05348950 36285.66927943 0 367.62997202 0 18993.02310091 0 1926.27449335 0 -155.07787418 0 3009
0.05450000 0.05448610 36380.44837987 0 -829.82313416 0 16931.46694293 0 2450.40513329 0 -1823.65618693 0 3336
0.05550000 0.05550870 37612.90885544 0 -288.88359791 0 16844.32774661 0 2563.34284644 0 -1112.82400590 0 3349
0.05650000 0.05647670 36445.44292656 0 448.43690578 0 17230.75188278 0 -581.83406073 0 -2303.37573202 0 3324
0.05750000 0.05747970 36442.56412211 0 2022.84731042 0 15331.73745313 0 26.36630564 0 721.70741847 0 3639
0.05850000 0.05849280 34722.69990803 0 754.87346023 0 15688.37703554 0 330.16565377 0 920.28181346 0 3846
0.05950000 0.05951020 34370.59997879 0 5.15815324 0 16131.15930504 0 255.87478316 0 -4498.06552363 0 3787
0.06050000 0.06049470 34638.55023940 0 343.86211957 0 18230.69353715 0 -1345.96287728 0 -1945.90572525 0 3930
0.06150000 0.06148310 34286.33958692 0 1833.31125417 0 18556.33061007 0 -333.77412443 0 -4357.18126263 0 4083
0.06250000 0.06249100 33014.24018851 0 80.47310317 0 16913.97266972 0 833.15036777 0 1618.80710546 0 4303
0.06350000 0.06350600 32952.34589277 0 104.65107453 0 15419.43026570 0 4947.17009060 0 -2034.22966033 0 4470
0.06450000 0.06451750 32868.30694740 0 131.42295943 0 13398.73098629 0 4353.56061242 0 -2892.11338728 0 4479
0.06550000 0.06550280 32712.40861395 0 373.14398978 0 11167.32536559 0 3561.59043511 0 -4919.20139810 0 4636
0.06650000 0.06648880 30973.50000118 0 327.51493921 0 9231.35151570 0 2073.28174997 0 -1604.31343227 0 4653
0.06750000 0.06749660 30325.76899929 0 176.73644876 0 8501.34206808 0 596.63997348 0 -1246.31195391 0 5220
0.06850000 0.06852730 31123.30855598 0 616.91672192 0 10474.59643564 0 -690.58200617 0 -1457.00722289 0 5029
0.06950000 0.06949320 30277.05077009 0 849.93601219 0 10366.30909891 0 -319.65912475 0 -623.11611659 0 5040
0.07050000 0.07048030 29186.64822195 0 1962.43670621 0 11803.87331941 0 -3063.36903525 0 954.42554151 0 5475
0.07150000 0.07148790 29254.18940335 0 949.93017763 0 13641.43634632 0 -1617.82166855 0 3307.09304916 0 5509
0.07250000 0.07249820 28204.20084079 0 -17.77152423 0 15109.07300103 0 333.97453350 0 2628.37061010 0 5916
0.07350000 0.07351270 28753.16670530 0 491.30008962 0 14791.96161822 0 1667.92393836 0 2552.43660649 0 5721
0.07450000 0.07449140 27792.97469703 0 -16.53862086 0 13617.74157120 0 1483.24863271 0 957.33756293 0 6028
0.07550000 0.07549160 27397.80342425 0 722.61645634 0 12677.92264060 0 2550.79790242 0 710.34721321 0 6183
0.07650000 0.07648840 26423.10667047 0 637.49685206 0 10924.88574136 0 2266.23915458 0 -728.17365616 0 6330
0.07750000 0.07749960 25636.52871535 0 753.88913055 0 9658.20070978 0 1991.78943930 0 -1572.34763052 0 6583
0.07850000 0.07848650 24572.69974677 0 934.77991558 0 8717.20811275 0 1808.71962075 0 -780.84359809 0 6549
0.07950000 0.07947320 23855.76671477 0 237.08504795 0 7191.91786270 0 2028.07344773 0 -443.12329710 0 6828
0.08050000 0.08048110 23911.57123185 0 -649.72291313 0 6760.05290548 0 1254.00721966 0 -1492.27257743 0 7147
0.08150000 0.08149960 24773.55171898 0 -630.49139215 0 5847.36117068 0 -244.80688728 0 -1116.10141404 0 7386
0.08250000 0.08250610 24708.55717230 0 120.17237019 0 6325.40879472 0 -774.18802364 0 -1418.46446019 0 7227
0.08350000 0.08350160 24332.65174471 0 1337.35968090 0 6841.64486707 0 -1189.65486781 0 -481.32392496 0 7798
0.08450000 0.08449610 23974.24059033 0 851.75408793 0 7300.43771825 0 -816.22521205 0 1.82592601 0 7371
0.08550000 0.08548940 22631.72120606 0 783.77444247 0 7223.76186888 0 1070.93518664 0 1062.22015978 0 8256
0.08650000 0.08650700 22749.30929564 0 683.79799276 0 7521.90635927 0 1299.50340234 0 548.65694665 0 8037
0.08750000 0.08749060 21818.23750164 0 317.96063012 0 7422.59867798 0 1309.98889394 0 1695.69332900 0 8155
0.08850000 0.08849210 21664.99652615 0 606.99148995 0 6684.12997420 0 939.88868625 0 1322.32346379 0 8718
0.08950000 0.08949900 21189.44017519 0 -56.29103504 0 6571.96732378 0 629.44062852 0 2347.58752502 0 8571
0.09050000 0.09049190 21439.34254634 0 -43.87596939 0 6943.17808565 0 259.55633117 0 1306.49003930 0 8932
0.09150000 0.09150830 21062.44060952 0 429.42683130 0 6418.63776969 0 -338.29052572 0 994.61254444 0 9285
0.09250000 0.09250820 20632.17006707 0 794.48248780 0 6406.44714007 0 546.18338928 0 678.06585020 0 9204
0.09350000 0.09350330 19839.83450304 0 592.43359728 0 5276.99250229 0 417.76102987 0 1850.36263439 0 9349
0.09450000 0.09448040 19591.48225736 0 187.20533187 0 5885.00707506 0 1615.10894897 0 1275.60932538 0 9564
0.09550000 0.09549270 19283.89307390 0 339.44979813 0 4758.14336129 0 1256.94138574 0 12.14135778 0 10155
0.09650000 0.09649430 18396.55696293 0 670.81901360 0 4330.97306979 0 941.32033785 0 1394.79182973 0 9913
0.09750000 0.09749140 18048.22162414 0 799.69976726 0 3694.24795877 0 -22.91838370 0 1794.12629664 0 10476
0.09850000 0.09850240 17404.14448944 0 401.71612398 0 4114.77485538 0 566.26637204 0 2550.24428618 0 10575
0.09950000 0.09950330 17157.12092273 0 265.53206487 0 3656.45811416 0 -274.47075270 0 1248.31604470 0 10882
0.10050000 0.10051200 16762.94615919 0 416.09464499 0 4152.68649556 0 -167.64385561 0 1784.63731427 0 10875
0.10150000 0.10150300 16362.90306349 0 612.43796653 0 4185.95883164 0 -1266.60752530 0 1544.61145685 0 11118
0.10250000 0.10250800 16375.08262079 0 -16.41483227 0 4696.44836740 0 -696.06391419 0 1415.45278784 0 11575
0.10350000 0.10349800 16814.76463934 0 -276.30654415 0 5420.67806146 0 -421.56658791 0 1556.76886950 0 11364
0.10450000 0.10450100 16689.09375265 0 39.37816960 0 5735.51961768 0 384.29935704 0 1179.15830389 0 12093
0.10550000 0.10551000 16752.09528087 0 242.74743486 0 5693.16797525 0 45.77808407 0 1252.95534880 0 12067
0.10650000 0.10649700 16681.45384852 0 380.24134999 0 5594.73500761 0 298.74018147 0 1229.33807996 0 12054
0.10750000 0.10749900 15985.89040342 0 549.90590489 0 5502.44718025 0 364.85414019 0 1567.79690502 0 12807
0.10850000 0.10850100 16002.49889064 0 67.39325513 0 5618.36334878 0 647.36007901 0 1224.44411239 0 12736
0.10950000 0.10950300 15814.71226172 0 41.12394306 0 5710.31900640 0 287.35118816 0 1370.05625608 0 12933
0.11050000 0.11050200 15615.74258473 0 -16.33743672 0 4919.15710880 0 667.20611401 0 900.08921469 0 13428
0.11150000 0.11150900 15603.45230418 0 93.19509366 0 4989.30028653 0 546.74697061 0 848.29398642 0 13453
0.11250000 0.11250000 15630.91166973 0 321.72079163 0 4972.10496609 0 61.71481335 0 765.25265752 0 13668
0.11350000 0.11349100 15328.96937193 0 297.79017600 0 4426.01790603 0 248.72538303 0 754.02864185 0 13791
0.11450000 0.11448600 14903.23848265 0 399.76628758 0 4711.89426052 0 -90.98195737 0 1413.84730074 0 14205
0.11550000 0.11549300 14770.81347782 0 171.44166303 0 4260.09911862 0 247.48860435 0 1244.82826239 0 14776
0.11650000 0.11649800 14483.92954177 0 61.79541988 0 4711.06383616 0 157.57468342 0 927.09129323 0 14553
0.11750000 0.11747300 14366.45217544 0 358.71453608 0 4359.60610177 0 153.86102568 0 783.42123531 0 14568
0.11850000 0.11849100 14328.69554781 0 215.67227898 0 4805.99794916 0 -229.79502929 0 156.55160061 0 16015
0.11950000 0.11950300 13899.42151459 0 201.57499502 0 4380.42207243 0 -14.28495986 0 1267.61510686 0 15270
0.12050000 0.12050700 13990.65747110 0 122.53409707 0 4515.63730311 0 619.04592998 0 469.74670213 0 15999
0.12150000 0.12150000 13924.00207569 0 -104.20032019 0 4071.07238932 0 538.84575962 0 1050.28751532 0 15670
0.12250000 0.12250700 13867.42249587 0 212.14685076 0 4136.81985409 0 547.70140501 0 149.32580143 0 16887
0.12350000 0.12352200 13399.61677228 0 540.38592001 0 3829.61820200 0 73.10048496 0 507.47343448 0 16407
0.12450000 0.12449800 13185.03511729 0 309.46372805 0 3533.69924890 0 -35.50750629 0 491.79170084 0 16306
0.12550000 0.12549900 12846.99704058 0 129.43215543 0 3567.35911635 0 17.53236201 0 444.18291859 0 17523
0.12650000 0.12650100 12973.55371326 0 52.97343435 0 3594.61918005 0 210.21362284 0 436.74895970 0 17154
0.12750000 0.12750600 12872.57411091 0 132.86679059 0 3556.48609337 0 -385.16299837 0 115.57624815 0 18007
0.12850000 0.12850300 12791.85686298 0 246.22746655 0 4054.90679508 0 48.04968223 0 936.13406091 0 17496
0.12950000 0.12949900 12568.97096438 0 247.81523793 0 3914.93046473 0 -303.00856268 0 825.73301737 0 18405
0.13050000 0.13049000 12513.83078679 0 108.30483100 0 4391.95943489 0 240.38460074 0 834.45247317 0 18100
0.13150000 0.13148800 12495.56145084 0 -13.04131634 0 4429.48354370 0 -39.13413556 0 783.63603841 0 19059
0.13250000 0.13249300 12646.03434512 0 -4.62463327 0 4692.66163231 0 -132.31649605 0 751.39564301 0 18957
0.13350000 0.13349100 12631.86176935 0 122.77990268 0 4530.61815859 0 -187.23301268 0 435.82663505 0 19468
0.13450000 0.13450700 12539.62930361 0 111.12960251 0 4450.04485089 0 -263.69405895 0 127.26973040 0 19953
0.13550000 0.13551000 12432.67064587 0 98.15095552 0 4199.85459929 0 197.04752140 0 -299.90388281 0 19956
0.13650000 0.13649900 12232.48301314 0 248.27806111 0 4179.65867882 0 218.90318336 0 -671.30287420 0 19723
0.13750000 0.13749600 12071.93430327 0 236.71523230 0 4223.82618252 0 261.80401310 0 -515.81310954 0 20946
0.13850000 0.13851100 11842.62645628 0 256.41068369 0 3774.69947090 0 286.30374623 0 -464.52942267 0 20955
0.13950000 0.13949800 11500.93451238 0 328.68639117 0 3871.39408354 0 662.22246061 0 169.73209607 0 20506
0.14050000 0.14048300 11451.88411343 0 0.98803669 0 3613.81859128 0 661.61680445 0 686.71001418 0 21447
0.14150000 0.14148400 11594.27421060 0 -38.42207435 0 3436.34029677 0 788.92307351 0 593.48989707 0 21771
0.14250000 0.14249400 11453.21279241 0 155.12105624 0 3145.56997470 0 34.00465964 0 489.30374946 0 22470
0.14350000 0.14350900 11133.88694464 0 255.67658855 0 3175.67562589 0 -49.99353957 0 677.00622871 0 22519
0.14450000 0.14449900 11195.89196362 0 137.78954621 0 2951.32818041 0 163.13409772 0 768.75815555 0 22218
0.14550000 0.14550500 10954.27169143 0 64.70533756 0 3064.79736515 0 -77.45511959 0 854.98831401 0 23559
0.14650000 0.14650700 10966.63947825 0 122.53631154 0 3230.30647654 0 271.55873127 0 1031.13792955 0 23044
0.14750000 0.14750500 10654.34455674 0 243.37966461 0 3163.11960954 0 358.58609711 0 795.56868287 0 23649
0.14850000 0.14849900 10596.58023816 0 284.47791987 0 3089.97583179 0 529.08439806 0 1254.63834218 0 23640
0.14950000 0.14949500 10170.57254077 0 203.45286131 0 2873.58938786 0 54.96767078 0 1265.30099098 0 24457
0.15050000 0.15050000 10271.81787891 0 68.88480801 0 2829.05649744 0 341.05528523 0 1780.30803527 0 24591
0.15150000 0.15149900 10053.49377813 0 -19.12744112 0 2597.02485854 0 128.31495786 0 1173.12388686 0 25020
0.15250000 0.15250500 10120.38169236 0 59.72733105 0 2554.97216888 0 -62.15017716 0 1171.97236508 0 25297
0.15350000 0.15350100 10102.43345383 0 241.87715013 0 2912.36466937 0 -304.37599480 0 1025.88743312 0 25452
0.15450000 0.15450400 9883.73289401 0 326.52728783 0 2996.32610847 0 -550.81604999 0 916.30131269 0 26061
0.15550000 0.15549900 9734.25650896 0 246.98149187 0 3215.82387568 0 -276.19914260 0 1041.39754573 0 26128
0.15650000 0.15649500 9644.71461815 0 -60.27707197 0 3292.88725642 0 63.42460175 0 1076.50899496 0 26331
0.15750000 0.15749700 9807.80996273 0 -14.78111074 0 3683.35279115 0 210.81927901 0 957.47264530 0 27345
0.15850000 0.15849900 9890.40950588 0 14.43831156 0 3311.88736580 0 206.42024436 0 857.33121794 0 26980
0.15950000 0.15949700 9744.19945665 0 128.12562110 0 3408.98058214 0 -77.74377510 0 647.64574499 0 27777
0.16050000 0.16050000 9710.38457665 0 238.34507851 0 3227.83734811 0 -412.90913714 0 666.57831320 0 28224
0.16150000 0.16150500 9378.41413394 0 259.24076991 0 3467.17672139 0 -214.44325093 0 99.29107281 0 28075
0.16250000 0.16249700 9238.41565893 0 227.41337222 0 3346.01227090 0 -103.05787771 0 212.97284619 0 28590
0.16350000 0.16349900 9114.04023425 0 129.98355721 0 3411.52721685 0 308.90457565 0 -282.75285166 0 29163
0.16450000 0.16449100 8938.59924749 0 71.62443334 0 3127.62173617 0 325.35251417 0 -532.07724746 0 28996
0.16550000 0.16550500 8882.68400716 0 103.75742720 0 3101.85643632 0 187.19979571 0 -415.00844992 0 30777
0.16650000 0.16650700 8836.09166432 0 178.77597099 0 3059.16155182 0 192.75256661 0 -1.00744648 0 29211
0.16750000 0.16749900 8571.21951001 0 204.55455763 0 3156.25476815 0 207.99805065 0 236.42403016 0 30922
0.16850000 0.16850800 8564.16643910 0 126.75929622 0 3089.52186647 0 177.49379577 0 680.58480409 0 30867
0.16950000 0.16949900 8320.38706357 0 17.26684766 0 2707.84775765 0 446.54243101 0 533.85546283 0 30852
0.17050000 0.17049200 8343.80503056 0 34.64630087 0 2966.56369936 0 429.46004828 0 887.60295399 0 31257
0.17150000 0.17149500 8299.30535712 0 160.41584197 0 2654.21341623 0 226.32606992 0 812.76511055 0 32608
0.17250000 0.17250900 8237.59929090 0 34.62160958 0 2517.90202538 0 167.60953141 0 861.00058639 0 32361
0.17350000 0.17350400 7996.20046521 0 52.13215911 0 2242.22328205 0 95.46004842 0 935.64244969 0 32508
0.17450000 0.17449800 8244.33126439 0 17.81880305 0 2207.88800279 0 2.26202060 0 319.11658083 0 32791
0.17550000 0.17549800 7970.30229745 0 115.25847243 0 2194.42405581 0 32.73222808 0 287.19063945 0 33633
0.17650000 0.17650100 8054.71770187 0 112.26783750 0 2035.37010979 0 -186.21989496 0 182.93916512 0 33984
0.17750000 0.17750300 7936.34347724 0 -1.31616725 0 1976.43212478 0 65.52347164 0 171.93991764 0 34069
0.17850000 0.17849800 7981.34140530 0 101.34742498 0 1899.34659939 0 57.72966220 0 14.99934626 0 34536
