### header ###
fiducial parameters:
Omega_m = 0.31
Omega_nu = 0
Omega_de = 0.69
Omega_k = 0
H_0 = 100
w_de = -1
zeff = 0
beta = 0
fgrowth = 0
b_1 = 2
gamma = 0.55
Lx = 3500 Ly = 3500 Lz = 3500
nx = 700 ny = 700 nz = 700
xoffset = -685.467585 yoffset = -31.7331281 zoffset = 572.489161
bins = 400 dk = 0.001
kx_ny = 0.628318531 ky_ny = 0.628318531 kz_ny = 0.628318531
############################
A(data) = 8.06108397 (not used)
A(ran) = 8.05943733 (used)
Ngal = 478719
weighted Ngal = 0
Nran = 23820508
weighted Nran = 0
SN(data) = 3486.71186
SN(ran) = 70.200622
SN(data+ran) = 3556.91248
############################
13 columns: k_central k_mean P_0(k) sigma^{lin}_{P_0(k)} P^img_1(k) sigma^{lin}_{P_1(k)} P_2(k) sigma^{lin}_{P_2(k)} P^img_3(k) sigma^{lin}_{P_3(k)} P_4(k) sigma^{lin}_{P_4(k)} N_modes
### header ###
0.00050000 0 0 0 0 0 0 0 0 0 0 0 0
0.00150000 0.00179520 113437.07499951 0 -121412.47056638 0 42414.09034330 0 28011.43166570 0 -61176.80908798 0 3
0.00250000 0.00253879 150172.83428282 0 -54257.49186232 0 14321.83070642 0 11959.77165286 0 134612.89621517 0 6
0.00350000 0.00331552 153216.61637546 0 27251.31656690 0 68043.53277076 0 -137942.34428814 0 -40807.82818186 0 7
0.00450000 0.00420575 114129.09530068 0 66331.86207705 0 13631.47125398 0 -39866.79129552 0 96179.30664418 0 24
0.00550000 0.00557378 72458.84373870 0 22231.12449413 0 45131.46030029 0 -9187.38331384 0 6992.40564180 0 45
0.00650000 0.00659388 46823.42225583 0 5043.34430397 0 13413.23573180 0 20926.02956775 0 9467.87851848 0 40
0.00750000 0.00754703 72429.50207793 0 -6063.40437254 0 71585.12658726 0 16618.78449005 0 -73236.45311071 0 57
0.00850000 0.00846663 60871.43436949 0 -4621.31157118 0 14657.21142518 0 16386.70856185 0 -6825.90002117 0 75
0.00950000 0.00948925 80724.22349257 0 -9663.33826850 0 38598.89938054 0 -5382.48961317 0 -39007.80033609 0 112
0.01050000 0.01054430 81962.22013054 0 -16358.47413356 0 5511.30504011 0 9390.72655914 0 -18428.44525841 0 105
0.01150000 0.01145670 92416.48777781 0 1107.16161899 0 28111.63620531 0 -2146.79091444 0 -27092.98232199 0 144
0.01250000 0.01249090 84442.42088992 0 5743.53598085 0 893.72927132 0 -1574.57316781 0 -18275.42572942 0 169
0.01350000 0.01339930 85920.57625321 0 2416.35773447 0 7661.51730291 0 7186.09381985 0 -7130.28930276 0 180
0.01450000 0.01448870 75426.44823659 0 3331.39680214 0 -5480.61255571 0 -5188.79036279 0 -15383.77737978 0 267
0.01550000 0.01550050 77209.20325564 0 2729.32806780 0 1042.94988567 0 -4890.45764287 0 -10471.00900240 0 238
0.01650000 0.01653350 76763.54218169 0 2810.23354525 0 12507.07666865 0 -26127.91849080 0 -7050.91180614 0 315
0.01750000 0.01747870 74131.87201879 0 3000.19034983 0 3874.41682822 0 -3163.01995862 0 -5251.12755152 0 297
0.01850000 0.01844180 77012.22659712 0 1069.81134568 0 20723.73819332 0 -383.63058862 0 12541.95449183 0 388
0.01950000 0.01947590 74055.80514729 0 -2018.47374211 0 20069.47451978 0 13523.40536375 0 2587.17048945 0 399
0.02050000 0.02045430 79759.60255437 0 -132.98194277 0 23581.83739875 0 5333.27312935 0 -4079.40984991 0 462
0.02150000 0.02154770 72696.78799905 0 8720.56302717 0 29033.40724646 0 8449.65645583 0 5834.68335876 0 571
0.02250000 0.02255340 67593.44276689 0 10807.06513297 0 33300.90267806 0 -6597.74369596 0 22427.43681316 0 510
0.02350000 0.02348930 57637.31901321 0 6088.80428567 0 36736.09145305 0 5823.98749298 0 16841.67038865 0 555
0.02450000 0.02439640 60977.72868775 0 1909.63278915 0 43527.96622006 0 3422.54418004 0 28086.39130472 0 592
0.02550000 0.02547300 60009.67532885 0 -743.79670648 0 43194.02490352 0 9554.22050741 0 16234.90698859 0 837
0.02650000 0.02652900 58045.00201303 0 -889.31252095 0 37687.42560147 0 7667.14204392 0 21525.04234044 0 723
0.02750000 0.02749970 61823.98647363 0 254.03899171 0 36015.39383060 0 10863.47862792 0 20233.89854334 0 826
0.02850000 0.02848090 57990.52617492 0 379.03889552 0 26541.80199252 0 1368.32897341 0 22638.25387771 0 831
0.02950000 0.02946900 57723.90459329 0 1743.23789177 0 25025.89000160 0 13253.24063818 0 16111.89345985 0 996
0.03050000 0.03053250 57171.28486159 0 -1454.94777047 0 22951.71139332 0 1510.14330969 0 16438.08414901 0 1041
0.03150000 0.03150510 55687.48261264 0 2671.22050715 0 19085.91990614 0 8875.44270673 0 10645.81886663 0 1036
0.03250000 0.03246190 54741.24173364 0 2005.51912208 0 18352.04621716 0 3551.06065421 0 10465.46176766 0 1059
0.03350000 0.03345080 54467.20169438 0 794.05288160 0 20792.27588394 0 8.09334904 0 13192.34285167 0 1302
0.03450000 0.03451200 50127.40398171 0 3507.97823834 0 18506.06225539 0 -2552.25944930 0 8406.38581044 0 1339
0.03550000 0.03553350 51492.73235510 0 3439.46269237 0 22310.40233983 0 -2760.46344519 0 9255.63312403 0 1365
0.03650000 0.03647120 47186.04089364 0 1447.24143240 0 18134.91792747 0 -2023.15733551 0 4276.82940142 0 1308
0.03750000 0.03744890 47782.28558512 0 -320.76414276 0 19928.74527134 0 1677.52364397 0 5079.41793823 0 1579
0.03850000 0.03847530 49737.10453186 0 -1516.17772672 0 16682.45035776 0 4192.59115420 0 -3550.89456934 0 1662
0.03950000 0.03950240 49102.21742675 0 567.77220821 0 14964.57916215 0 2145.71689893 0 -5578.75764290 0 1683
0.04050000 0.04050350 48504.42260980 0 1812.17418609 0 13098.89243020 0 3330.80996892 0 -7437.77883530 0 1822
0.04150000 0.04152450 44934.48364177 0 262.59236263 0 10120.39276469 0 1259.23335698 0 -8172.72653979 0 1887
0.04250000 0.04250150 46357.38810421 0 1098.70789899 0 13269.07406267 0 -1675.25381739 0 -9228.63879612 0 1920
0.04350000 0.04349210 44475.75722453 0 3639.88284391 0 15380.56640558 0 -4616.34009734 0 -11335.84614933 0 2005
0.04450000 0.04448520 42762.09351235 0 2737.35550329 0 17150.36680459 0 -5002.63136561 0 -6006.20474252 0 2151
0.04550000 0.04548030 41105.34154974 0 -982.88916692 0 18091.40369093 0 2181.39192950 0 -4150.57168152 0 2274
0.04650000 0.04648670 44571.64355746 0 -2510.26212126 0 14572.28669382 0 7148.73579591 0 -7134.40820760 0 2311
0.04750000 0.04749250 43997.43279237 0 -1625.28441548 0 14384.05717190 0 8458.02713339 0 -12539.29713387 0 2568
0.04850000 0.04851840 44800.61923471 0 1038.33272622 0 9439.48907764 0 2503.04296548 0 -10983.75729242 0 2493
0.04950000 0.04949480 41844.97284762 0 3530.80937212 0 9166.84415131 0 -1650.96113673 0 -6502.92030621 0 2644
0.05050000 0.05050630 38441.78309136 0 4787.78397483 0 10345.89173194 0 -3735.69167056 0 -4527.13037628 0 2829
0.05150000 0.05149060 35860.49200639 0 2164.39591090 0 11902.85990329 0 -483.26711796 0 -926.52881913 0 2784
0.05250000 0.05249300 35115.10309960 0 686.01024325 0 12563.76697172 0 2351.77286381 0 549.72874769 0 3055
0.05350000 0.05348950 34090.02726789 0 21.86330186 0 11191.57375694 0 1976.02244876 0 32.56127138 0 3009
0.05450000 0.05448610 35491.22997369 0 481.15119669 0 12564.87420420 0 1168.72817391 0 79.62684538 0 3336
0.05550000 0.05550870 33713.34677756 0 1.35008178 0 12089.42857649 0 3156.70873347 0 3839.48364341 0 3349
0.05650000 0.05647670 34159.34002125 0 -86.99747057 0 11796.01196879 0 178.77043482 0 979.47335471 0 3324
0.05750000 0.05747970 35210.98943253 0 -1119.95458308 0 9504.87115569 0 1794.21487524 0 328.28889471 0 3639
0.05850000 0.05849280 34779.05804135 0 -726.56374013 0 12267.47155957 0 -897.92457519 0 -877.26029538 0 3846
0.05950000 0.05951020 35157.95299665 0 2231.18417421 0 10751.95817234 0 -1524.79199543 0 643.35743359 0 3787
0.06050000 0.06049470 35170.02183070 0 711.21196177 0 12452.37938404 0 -2102.14730077 0 1148.08936045 0 3930
0.06150000 0.06148310 33441.63192651 0 750.26294418 0 11652.62536239 0 -1176.62274150 0 1844.37250667 0 4083
0.06250000 0.06249100 33936.23267616 0 281.84381379 0 14557.56050181 0 -325.13106767 0 1349.09634520 0 4303
0.06350000 0.06350600 33694.30237887 0 834.70049324 0 13929.64896135 0 727.91677823 0 340.62457179 0 4470
0.06450000 0.06451750 33294.92362266 0 893.05496674 0 14884.52625371 0 -1004.51452452 0 -3088.03817495 0 4479
0.06550000 0.06550280 31598.64346045 0 709.54004073 0 12451.38287481 0 1475.57551161 0 -734.12945968 0 4636
0.06650000 0.06648880 31750.77720345 0 20.71598757 0 12303.56733848 0 3583.92331427 0 -703.17345396 0 4653
0.06750000 0.06749660 30931.53589012 0 -725.28820832 0 8964.45312595 0 3546.52100104 0 -1732.56417065 0 5220
0.06850000 0.06852730 32746.40065115 0 -184.65426823 0 7316.28221507 0 2624.50636874 0 -4223.98119507 0 5029
0.06950000 0.06949320 30473.36308913 0 793.97094640 0 7292.64280158 0 1346.57185514 0 -8.15620663 0 5040
0.07050000 0.07048030 30135.32501241 0 2083.75616925 0 5812.91516817 0 -1480.02658618 0 -1675.28703436 0 5475
0.07150000 0.07148790 28073.87957768 0 1532.74192465 0 6889.08977891 0 -762.15462103 0 -505.20914406 0 5509
0.07250000 0.07249820 27416.29420670 0 797.28489322 0 8386.27846857 0 -576.02662637 0 -1967.56319260 0 5916
0.07350000 0.07351270 26372.17397630 0 752.03340891 0 8066.46543850 0 -305.24960123 0 -1669.59585940 0 5721
0.07450000 0.07449140 26956.57128023 0 757.08571073 0 9670.64600288 0 -583.46169248 0 -3290.16346451 0 6028
0.07550000 0.07549160 25705.84146871 0 583.75400186 0 8260.15361656 0 308.42403675 0 -1595.83203146 0 6183
0.07650000 0.07648840 25195.18584808 0 457.32244645 0 6821.01712593 0 1086.76307497 0 -2209.98067218 0 6330
0.07750000 0.07749960 25076.26907953 0 -29.68158114 0 7729.54566660 0 1345.50891196 0 -2201.49927137 0 6583
0.07850000 0.07848650 25223.64172286 0 -847.57982147 0 6142.26146990 0 1537.93484499 0 -3670.58640063 0 6549
0.07950000 0.07947320 25590.02495111 0 -94.33609673 0 6914.68899389 0 1048.83593354 0 -1431.93947950 0 6828
0.08050000 0.08048110 25523.70172545 0 514.70144812 0 5814.06668995 0 465.42517375 0 -917.09187668 0 7147
0.08150000 0.08149960 25394.70914131 0 87.26907469 0 7170.48184185 0 118.11513224 0 -589.01446338 0 7386
0.08250000 0.08250610 24856.15126213 0 663.71722446 0 6388.78678198 0 -256.36750162 0 -698.33374078 0 7227
0.08350000 0.08350160 24572.25685378 0 1241.89409631 0 7520.77698214 0 -909.32574806 0 -324.01276287 0 7798
0.08450000 0.08449610 23440.00091783 0 600.69465883 0 7460.23351003 0 -8.48518755 0 881.39470147 0 7371
0.08550000 0.08548940 23491.93012123 0 397.33369781 0 9590.09483982 0 -269.63879015 0 1209.14215950 0 8256
0.08650000 0.08650700 22697.82298523 0 914.87851895 0 8638.59460653 0 668.69202000 0 525.48921420 0 8037
0.08750000 0.08749060 22666.04541300 0 493.08162668 0 9446.53107623 0 445.97109905 0 1434.84042860 0 8155
0.08850000 0.08849210 21665.99303538 0 742.91313496 0 8463.28648768 0 150.77959768 0 1489.49342390 0 8718
0.08950000 0.08949900 21263.07113523 0 759.47622566 0 8854.92568884 0 1334.74661224 0 1922.68706011 0 8571
0.09050000 0.09049190 20595.18850217 0 120.72709366 0 7156.68572513 0 1106.22047138 0 1759.80208970 0 8932
0.09150000 0.09150830 20532.18697395 0 -216.63778570 0 7089.80888323 0 1902.33612709 0 1079.81629838 0 9285
0.09250000 0.09250820 20230.13395290 0 -1.70179418 0 5729.59592390 0 562.46081400 0 -238.04723297 0 9204
0.09350000 0.09350330 20133.25111074 0 281.64783364 0 5680.24657219 0 889.34573792 0 -880.17010234 0 9349
0.09450000 0.09448040 19767.20005223 0 703.26646148 0 5471.77684050 0 -1024.41924285 0 441.97288255 0 9564
0.09550000 0.09549270 19273.92798156 0 936.82497398 0 6066.75928696 0 -560.07915693 0 880.19113976 0 10155
0.09650000 0.09649430 19099.31741917 0 180.32277476 0 6515.32131001 0 67.82551870 0 2437.71624905 0 9913
0.09750000 0.09749140 18829.37414009 0 291.30622258 0 6816.68784692 0 641.45742265 0 2192.53068826 0 10476
0.09850000 0.09850240 18323.92251212 0 382.30744580 0 6507.89178006 0 707.73303732 0 1693.42350241 0 10575
0.09950000 0.09950330 18044.56775695 0 293.26823854 0 6797.30020617 0 253.19970949 0 1238.59454351 0 10882
0.10050000 0.10051200 17978.46597778 0 338.90061082 0 6488.30483745 0 -553.07812595 0 1562.33824889 0 10875
0.10150000 0.10150300 17257.76835533 0 227.68796587 0 6586.67137114 0 115.14442749 0 789.81882459 0 11118
0.10250000 0.10250800 17199.30648029 0 345.79977641 0 6181.78966950 0 255.84599512 0 -859.12936349 0 11575
0.10350000 0.10349800 16701.82692619 0 509.19185929 0 5564.15324646 0 250.94095522 0 -229.62230102 0 11364
0.10450000 0.10450100 16465.76496106 0 387.07961780 0 4657.14161430 0 950.10290590 0 -1032.89178580 0 12093
0.10550000 0.10551000 16150.97876646 0 121.79003684 0 4727.21835807 0 703.84554407 0 -244.46696690 0 12067
0.10650000 0.10649700 15976.14675758 0 165.55340069 0 4868.52336741 0 1026.74443106 0 -423.14771590 0 12054
0.10750000 0.10749900 15983.78666170 0 -81.44226376 0 4481.81135079 0 987.44875028 0 970.74614829 0 12807
0.10850000 0.10850100 15984.22955469 0 -139.64526785 0 4403.24213388 0 488.38253203 0 1501.23008821 0 12736
0.10950000 0.10950300 16156.07203588 0 27.05090749 0 4552.44171081 0 597.54347519 0 2040.54088548 0 12933
0.11050000 0.11050200 16167.47653044 0 162.17080546 0 4221.88852567 0 107.01368720 0 1775.98982859 0 13428
0.11150000 0.11150900 15840.95367154 0 347.10298904 0 4555.05477947 0 -570.47274824 0 1829.85668883 0 13453
0.11250000 0.11250000 15636.55855539 0 280.19071570 0 3846.79137779 0 306.14867400 0 1668.94259224 0 13668
0.11350000 0.11349100 15403.70756445 0 -56.45069796 0 3921.26383452 0 -138.57235957 0 933.44127151 0 13791
0.11450000 0.11448600 15570.56749947 0 197.40847919 0 3722.03949406 0 34.89753192 0 685.83751499 0 14205
0.11550000 0.11549300 15324.42971875 0 242.32004312 0 3748.08160204 0 20.27575193 0 44.89384821 0 14776
0.11650000 0.11649800 14921.72926510 0 397.55846601 0 3536.63341497 0 -209.65889937 0 608.10204413 0 14553
0.11750000 0.11747300 14835.69730126 0 332.51741556 0 4291.58881041 0 -87.62117462 0 224.52460267 0 14568
0.11850000 0.11849100 14711.46581679 0 420.58115100 0 4231.53252059 0 -90.47152320 0 869.10109922 0 16015
0.11950000 0.11950300 14284.95986478 0 509.61039317 0 4516.47879980 0 -346.75753251 0 1079.10102620 0 15270
0.12050000 0.12050700 13882.70230412 0 301.28903064 0 4770.85439018 0 -274.18176502 0 989.11956409 0 15999
0.12150000 0.12150000 13830.66237747 0 148.38686829 0 5273.02861001 0 233.06468681 0 1105.11434613 0 15670
0.12250000 0.12250700 13559.16897291 0 160.80669504 0 4908.58303860 0 176.42088750 0 366.42087415 0 16887
0.12350000 0.12352200 13272.17431361 0 335.85239979 0 4860.61772749 0 361.96869234 0 824.95241847 0 16407
0.12450000 0.12449800 13122.47648207 0 330.76688100 0 4370.87772843 0 525.67190756 0 956.03767200 0 16306
0.12550000 0.12549900 12803.03991105 0 166.20002446 0 4487.66861062 0 658.53094752 0 893.39710157 0 17523
0.12650000 0.12650100 12566.09215993 0 11.18880568 0 4002.78936216 0 543.36326815 0 328.59338364 0 17154
0.12750000 0.12750600 12638.61588749 0 140.95844557 0 3985.70476497 0 469.04914566 0 676.37510620 0 18007
0.12850000 0.12850300 12462.23375313 0 48.06651216 0 3477.33004324 0 218.59426550 0 1196.76330035 0 17496
0.12950000 0.12949900 12512.50210781 0 -77.32402326 0 3697.91289828 0 325.85851941 0 897.24362721 0 18405
0.13050000 0.13049000 12630.75453687 0 -86.41872015 0 3539.96618474 0 -369.17899027 0 993.94377602 0 18100
0.13150000 0.13148800 12552.91609340 0 180.64719388 0 3748.61307363 0 -127.73587527 0 681.77397178 0 19059
0.13250000 0.13249300 12490.68962791 0 100.53748442 0 3611.34946285 0 -522.91822037 0 243.04970933 0 18957
0.13350000 0.13349100 12524.01732562 0 23.51329971 0 3920.35590389 0 -169.84060486 0 290.20341903 0 19468
0.13450000 0.13450700 12556.79140708 0 111.52045557 0 3602.69090484 0 -111.77179735 0 -178.55341726 0 19953
0.13550000 0.13551000 12458.24771620 0 279.72567806 0 3734.18583439 0 -214.79867255 0 -500.65509686 0 19956
0.13650000 0.13649900 12326.15488111 0 157.70533686 0 3898.35519447 0 130.17732289 0 -140.42033058 0 19723
0.13750000 0.13749600 11869.42148234 0 315.22465866 0 3393.23573625 0 338.77106462 0 -761.88999247 0 20946
0.13850000 0.13851100 11725.14908995 0 326.80188149 0 3519.67061335 0 402.00732612 0 -523.63570702 0 20955
0.13950000 0.13949800 11353.67259229 0 58.25083653 0 3464.94011177 0 492.70738210 0 -752.01347873 0 20506
0.14050000 0.14048300 11400.28707977 0 250.07620666 0 3217.60651997 0 444.16298840 0 -238.78243534 0 21447
0.14150000 0.14148400 11241.84211162 0 105.00583182 0 3450.62359578 0 -45.38136267 0 -205.18235845 0 21771
0.14250000 0.14249400 11149.16675289 0 123.58596793 0 3523.32448054 0 10.76574322 0 -83.34393554 0 22470
0.14350000 0.14350900 11062.24900306 0 154.45339506 0 3541.38344232 0 -260.47865582 0 430.95259766 0 22519
0.14450000 0.14449900 11033.28380134 0 188.62591115 0 3765.84161104 0 -64.41623916 0 214.74109646 0 22218
0.14550000 0.14550500 11001.91590512 0 39.00724672 0 3445.61890496 0 412.72312208 0 833.12490142 0 23559
0.14650000 0.14650700 10908.10009694 0 100.81008505 0 3183.71413370 0 544.35645569 0 467.34622211 0 23044
0.14750000 0.14750500 10601.03131274 0 239.25300915 0 2696.23288891 0 632.43569239 0 418.82065136 0 23649
0.14850000 0.14849900 10456.34924434 0 275.95887315 0 2585.24390493 0 251.87435221 0 543.99881959 0 23640
0.14950000 0.14949500 10239.39811184 0 54.64712697 0 2318.78840817 0 177.69863378 0 76.00209840 0 24457
0.15050000 0.15050000 10103.59604794 0 126.12263754 0 2420.90845997 0 -126.15031836 0 416.90181747 0 24591
0.15150000 0.15149900 10117.33680304 0 195.42542582 0 2457.00423888 0 87.59570828 0 429.54530518 0 25020
0.15250000 0.15250500 9841.25945601 0 60.55089057 0 2415.52731011 0 29.56133569 0 485.81707437 0 25297
0.15350000 0.15350100 9871.01079280 0 91.41953565 0 2469.82599102 0 181.35692990 0 575.53612238 0 25452
0.15450000 0.15450400 9719.29779813 0 169.79188663 0 2583.91522595 0 222.83939484 0 330.31180845 0 26061
0.15550000 0.15549900 9690.70905545 0 165.24780452 0 2434.35026230 0 104.95368117 0 883.33568001 0 26128
0.15650000 0.15649500 9515.46737055 0 193.92291134 0 2584.65707172 0 -86.57085389 0 814.71162525 0 26331
0.15750000 0.15749700 9401.85424558 0 120.71269964 0 2400.62396091 0 44.06298096 0 832.23136481 0 27345
0.15850000 0.15849900 9313.81819095 0 142.30041134 0 2553.70992385 0 -183.75408823 0 577.95431812 0 26980
0.15950000 0.15949700 9234.01994598 0 162.09219195 0 2770.14065708 0 -179.34065955 0 665.52422787 0 27777
0.16050000 0.16050000 9084.60999488 0 70.35277683 0 2708.26850599 0 -19.06244658 0 585.18011729 0 28224
0.16150000 0.16150500 9120.66148449 0 45.88913949 0 2805.25099908 0 253.08898624 0 632.65603165 0 28075
0.16250000 0.16249700 9033.15690145 0 127.44245866 0 2757.14174774 0 37.02020731 0 808.93630062 0 28590
0.16350000 0.16349900 8952.50608747 0 53.94181988 0 2563.85217338 0 330.00731952 0 518.12390373 0 29163
0.16450000 0.16449100 8877.04819383 0 96.15140439 0 2566.28808484 0 271.30406780 0 724.79548986 0 28996
0.16550000 0.16550500 8770.01202981 0 119.78151712 0 2372.12379682 0 239.92952819 0 557.79050739 0 30777
0.16650000 0.16650700 8596.82979732 0 196.77624944 0 2232.87823990 0 135.87181955 0 560.93283317 0 29211
0.16750000 0.16749900 8416.97095296 0 145.33976450 0 2182.34414943 0 -3.74180359 0 577.18811324 0 30922
0.16850000 0.16850800 8488.11063992 0 121.40804164 0 2032.85669205 0 46.25707284 0 639.64488308 0 30867
0.16950000 0.16949900 8419.90511904 0 22.09615285 0 2155.84807614 0 2.87033412 0 313.85279761 0 30852
0.17050000 0.17049200 8279.07621967 0 67.06806095 0 2003.06106597 0 -142.64918957 0 305.72017503 0 31257
0.17150000 0.17149500 8364.02309568 0 56.82294952 0 2183.27422472 0 46.96127270 0 278.94729362 0 32608
0.17250000 0.17250900 8246.05854706 0 128.20644908 0 2238.49190859 0 26.33253505 0 218.24105834 0 32361
0.17350000 0.17350400 8186.13512514 0 163.77075639 0 2271.05561588 0 38.22720144 0 356.23544255 0 32508
0.17450000 0.17449800 8029.27349944 0 68.91116014 0 2177.27302466 0 114.87869169 0 406.09633568 0 32791
0.17550000 0.17549800 8077.71492052 0 39.56473827 0 2231.61599487 0 140.82447044 0 421.42486215 0 33633
0.17650000 0.17650100 8017.32646096 0 73.88196965 0 2278.97232812 0 -7.76919566 0 310.85773375 0 33984
0.17750000 0.17750300 7954.15884787 0 74.38930357 0 2145.45116313 0 -60.20831284 0 513.24211571 0 34069
0.17850000 0.17849800 7969.66010261 0 163.00565875 0 2360.78573621 0 -6.78403556 0 627.21509123 0 34536
