### header ###
fiducial parameters:
Omega_m = 0.31
Omega_nu = 0
Omega_de = 0.69
Omega_k = 0
H_0 = 100
w_de = -1
zeff = 0
beta = 0
fgrowth = 0
b_1 = 2
gamma = 0.55
Lx = 3500 Ly = 3500 Lz = 3500
nx = 700 ny = 700 nz = 700
xoffset = -685.467585 yoffset = -31.7331281 zoffset = 572.489161
bins = 400 dk = 0.001
kx_ny = 0.628318531 ky_ny = 0.628318531 kz_ny = 0.628318531
############################
A(data) = 7.99758551 (not used)
A(ran) = 8.0026266 (used)
Ngal = 475877
weighted Ngal = 0
Nran = 23820508
weighted Nran = 0
SN(data) = 3476.5472
SN(ran) = 69.7057799
SN(data+ran) = 3546.25298
############################
13 columns: k_central k_mean P_0(k) sigma^{lin}_{P_0(k)} P^img_1(k) sigma^{lin}_{P_1(k)} P_2(k) sigma^{lin}_{P_2(k)} P^img_3(k) sigma^{lin}_{P_3(k)} P_4(k) sigma^{lin}_{P_4(k)} N_modes
### header ###
0.00050000 0 0 0 0 0 0 0 0 0 0 0 0
0.00150000 0.00179520 128304.99276599 0 -115002.70172887 0 3804.82726673 0 86748.56470314 0 -292590.61226266 0 3
0.00250000 0.00253879 190708.61544388 0 -65151.99514438 0 25024.45059937 0 14823.73919045 0 212020.62625481 0 6
0.00350000 0.00331552 176382.13436104 0 34548.31079213 0 50488.69394055 0 -182238.28695762 0 79174.09801796 0 7
0.00450000 0.00420575 136776.42848474 0 85887.47000200 0 15973.71084612 0 -54928.69619282 0 106337.83249554 0 24
0.00550000 0.00557378 68122.58916997 0 15735.98803226 0 39245.63387320 0 19518.51563681 0 3884.70301797 0 45
0.00650000 0.00659388 62546.67711455 0 4571.38645858 0 48675.15785850 0 31231.59589271 0 3168.29038523 0 40
0.00750000 0.00754703 61592.24271518 0 7.45696717 0 46712.92045414 0 55021.26082831 0 -4647.13223266 0 57
0.00850000 0.00846663 67817.98951421 0 -1154.52238117 0 40711.60967918 0 -454.89428562 0 11497.61281493 0 75
0.00950000 0.00948925 77107.44859056 0 -6697.12888353 0 20044.45106569 0 28406.04932224 0 30731.79115039 0 112
0.01050000 0.01054430 75715.54663760 0 -14896.81653425 0 10525.91666117 0 17311.24768421 0 11767.55609401 0 105
0.01150000 0.01145670 96543.47540746 0 -6303.03162626 0 10475.67045114 0 12637.06576202 0 8330.89469982 0 144
0.01250000 0.01249090 91786.14032588 0 2840.00702668 0 1894.98410341 0 6279.02682606 0 -6013.66748945 0 169
0.01350000 0.01339930 88081.00827182 0 3416.06687002 0 -2402.36231590 0 6919.61617844 0 9153.22519178 0 180
0.01450000 0.01448870 78354.96742787 0 -3586.84640803 0 -8.25395311 0 445.89691447 0 -23261.95793474 0 267
0.01550000 0.01550050 90204.12655580 0 -4022.04413502 0 -5942.94855084 0 -19024.57922665 0 -26057.60922820 0 238
0.01650000 0.01653350 91754.14130716 0 -7828.60975675 0 -2300.64086779 0 -20234.23071308 0 -37611.24800672 0 315
0.01750000 0.01747870 94050.20930480 0 3575.58585369 0 2372.61097911 0 -28292.89016259 0 -23793.42952604 0 297
0.01850000 0.01844180 90729.50836844 0 2172.62264824 0 6112.18903569 0 -22158.93293631 0 -31026.64716031 0 388
0.01950000 0.01947590 84467.66579050 0 11537.58390753 0 10707.43635425 0 -14354.82623438 0 -31445.51320820 0 399
0.02050000 0.02045430 81192.25066265 0 11107.31336507 0 11034.67891426 0 -5825.65941403 0 -33075.47014476 0 462
0.02150000 0.02154770 70085.71236032 0 3969.68311096 0 15291.87708378 0 -996.77939840 0 -27798.73230593 0 571
0.02250000 0.02255340 70006.32379137 0 4314.65246301 0 14201.25308915 0 6844.41294827 0 -20728.94218598 0 510
0.02350000 0.02348930 63079.14521508 0 2289.77891715 0 18824.50231717 0 3704.25734040 0 -34621.16668944 0 555
0.02450000 0.02439640 64215.38718797 0 353.38321168 0 7526.63424197 0 6842.49743608 0 -23203.71750620 0 592
0.02550000 0.02547300 61612.83723934 0 -944.10281308 0 9106.51105337 0 1414.34555536 0 -19859.32179472 0 837
0.02650000 0.02652900 64387.56183890 0 1344.73384922 0 5615.84993104 0 -1493.51267781 0 -22631.72120606 0 723
0.02750000 0.02749970 62081.19657917 0 1640.68601930 0 7956.45081911 0 -316.53008575 0 -13985.89637142 0 826
0.02850000 0.02848090 63079.58810807 0 681.41744292 0 6487.91730608 0 -3291.03817817 0 -22141.66010959 0 831
0.02950000 0.02946900 57956.75558423 0 2803.21369131 0 11879.71874442 0 -1426.12650897 0 -12481.27815182 0 996
0.03050000 0.03053250 57875.92761305 0 2206.95792750 0 11941.17014717 0 1190.25277335 0 -12373.54443133 0 1041
0.03150000 0.03150510 55796.87718185 0 -259.95714932 0 7609.49952091 0 6815.34809562 0 -1929.40796127 0 1036
0.03250000 0.03246190 59068.30627277 0 -2347.28857225 0 7920.11144905 0 4662.24595604 0 -8475.39961103 0 1059
0.03350000 0.03345080 54658.64219050 0 3165.54444868 0 7286.34264876 0 3643.70279597 0 -1109.01512616 0 1302
0.03450000 0.03451200 54830.15250194 0 4751.11243503 0 12519.03477945 0 -4230.33670951 0 -3366.28569764 0 1339
0.03550000 0.03553350 50558.56031015 0 2129.80596817 0 12625.99343720 0 -722.60981294 0 5464.56875705 0 1365
0.03650000 0.03647120 49881.81981724 0 1345.29853779 0 13382.23322231 0 -2169.01307035 0 3806.08951176 0 1308
0.03750000 0.03744890 50814.44173671 0 -559.65397966 0 14336.66762168 0 1931.02452070 0 242.47284120 0 1579
0.03850000 0.03847530 51793.01380418 0 -1403.48360471 0 11838.75114259 0 2253.12952200 0 1359.81435563 0 1662
0.03950000 0.03950240 51283.46541603 0 1590.53946020 0 12043.03553550 0 1478.25501421 0 -4502.52767053 0 1683
0.04050000 0.04050350 49221.02347206 0 4289.77294914 0 13534.58841182 0 -1043.99068420 0 644.70936445 0 1822
0.04150000 0.04152450 44944.78090385 0 3742.52329498 0 12976.54324096 0 -2195.57557759 0 -4428.71955329 0 1887
0.04250000 0.04250150 44448.96219847 0 1284.00214759 0 16204.34737209 0 -1287.97711220 0 4876.10790991 0 1920
0.04350000 0.04349210 45033.35950240 0 -1064.61288917 0 17491.17296251 0 346.78742778 0 -1961.09695490 0 2005
0.04450000 0.04448520 44590.79867940 0 -1495.52784093 0 18100.04010429 0 1900.34310862 0 2497.96076839 0 2151
0.04550000 0.04548030 45493.74676836 0 990.49806853 0 16392.13400101 0 1753.10333319 0 -1390.57327397 0 2274
0.04650000 0.04648670 45054.06474981 0 -504.27796154 0 14826.28582516 0 3352.86603996 0 1541.77694170 0 2311
0.04750000 0.04749250 44538.31585976 0 692.70678530 0 15502.58342508 0 2553.86493640 0 -1690.16823892 0 2568
0.04850000 0.04851840 42900.94046558 0 4115.58313509 0 14302.01124500 0 -492.67195067 0 -2964.41566835 0 2493
0.04950000 0.04949480 40033.31906079 0 3312.93923666 0 15067.55178296 0 -359.98785343 0 2543.86662708 0 2644
0.05050000 0.05050630 37248.96153865 0 557.18152952 0 13193.67153065 0 2912.17643985 0 4385.49319719 0 2829
0.05150000 0.05149060 38879.25064495 0 -962.91801464 0 13143.95679222 0 2320.22781040 0 3920.46662714 0 2784
0.05250000 0.05249300 38352.54015332 0 -398.66902019 0 14969.22953857 0 4064.25183723 0 1981.20429677 0 3055
0.05350000 0.05348950 38359.95861095 0 1304.26450201 0 11530.16544990 0 1373.40009818 0 5429.45841505 0 3009
0.05450000 0.05448610 36769.64059725 0 358.87840649 0 12196.38723424 0 274.88153595 0 4594.11794143 0 3336
0.05550000 0.05550870 38074.07118413 0 -122.96481051 0 12659.54258140 0 21.37899838 0 4967.81997638 0 3349
0.05650000 0.05647670 37197.58595149 0 -59.58582673 0 10409.42473175 0 -1041.36986491 0 229.42853533 0 3324
0.05750000 0.05747970 36723.24755626 0 833.39063722 0 10857.44421089 0 -2175.11392132 0 -1178.68219392 0 3639
0.05850000 0.05849280 36013.73298188 0 1508.75926909 0 10805.98004513 0 -3037.74767562 0 -4625.02080000 0 3846
0.05950000 0.05951020 35163.71060555 0 442.64829437 0 11206.29994895 0 -1198.11412398 0 -6718.08879441 0 3787
0.06050000 0.06049470 34047.39881734 0 1694.20963748 0 11652.18246940 0 -2120.06232233 0 -6879.56757957 0 3930
0.06150000 0.06148310 33642.59462197 0 822.21091085 0 12352.83918392 0 1911.09433602 0 -6280.94233825 0 4083
0.06250000 0.06249100 32730.12433366 0 -129.60377647 0 11141.19467902 0 2082.74858769 0 -7410.03158931 0 4303
0.06350000 0.06350600 32797.44406856 0 -158.54019015 0 10441.66734163 0 2535.27450302 0 -5506.18962604 0 4470
0.06450000 0.06451750 33166.15248502 0 265.17775048 0 10313.98129182 0 2594.35642826 0 -4733.92818691 0 4479
0.06550000 0.06550280 32329.30617523 0 908.40785233 0 11242.72789761 0 708.61439437 0 -1619.32750473 0 4636
0.06650000 0.06648880 32119.04272692 0 1072.58164134 0 9899.79883733 0 32.47512869 0 -1887.77601996 0 4653
0.06750000 0.06749660 30758.25400671 0 1498.34021143 0 10677.55214956 0 -465.37313383 0 -204.08730552 0 5220
0.06850000 0.06852730 30340.82736105 0 855.70912235 0 10447.48031216 0 287.27368188 0 -1248.24961075 0 5029
0.06950000 0.06949320 28711.86693373 0 693.05999247 0 10150.26589705 0 103.41938912 0 270.13593753 0 5040
0.07050000 0.07048030 28633.69632051 0 592.77241042 0 9501.36122873 0 432.01332638 0 -2993.41408705 0 5475
0.07150000 0.07148790 27631.54020117 0 863.38113622 0 9842.01237410 0 -232.85431263 0 -1345.65285218 0 5509
0.07250000 0.07249820 26513.78901073 0 1251.17270451 0 9547.74319739 0 1277.97880289 0 -3973.64700324 0 5916
0.07350000 0.07351270 26099.01972302 0 62.07920356 0 6677.57515790 0 563.70423607 0 -2883.07837023 0 5721
0.07450000 0.07449140 25867.82958081 0 122.24732386 0 9229.35849723 0 618.56206939 0 -2631.55943965 0 6028
0.07550000 0.07549160 25239.91804035 0 827.62417045 0 8324.45060678 0 -132.63095007 0 -3248.45401692 0 6183
0.07650000 0.07648840 25881.00564734 0 306.70007578 0 9532.39695519 0 667.15296686 0 -483.49631509 0 6330
0.07750000 0.07749960 25081.25162569 0 -53.25345345 0 7735.69080687 0 621.41651473 0 -10.39756627 0 6583
0.07850000 0.07848650 26063.47756036 0 -269.13942830 0 9547.47746160 0 1822.15035075 0 104.73168106 0 6549
0.07950000 0.07947320 25664.65242039 0 362.10377471 0 8501.41957436 0 497.12634694 0 1172.03879903 0 6828
0.08050000 0.08048110 25177.47012837 0 743.91296589 0 8717.35205297 0 878.00767731 0 1522.30072234 0 7147
0.08150000 0.08149960 24363.87570069 0 678.07027913 0 8199.30011935 0 1611.30006923 0 1686.42579313 0 7386
0.08250000 0.08250610 24001.81067912 0 148.21635449 0 7787.17711728 0 557.63549484 0 1962.83530990 0 7227
0.08350000 0.08350160 23690.78907497 0 487.25094043 0 7398.72674567 0 971.07278187 0 1191.22713794 0 7798
0.08450000 0.08449610 23094.32293699 0 1140.44945632 0 8084.69048516 0 282.34649734 0 1575.09356708 0 7371
0.08550000 0.08548940 22536.05631963 0 473.94311323 0 7040.90242450 0 749.21107332 0 2401.15543250 0 8256
0.08650000 0.08650700 21695.33469615 0 -15.17451044 0 7233.38371915 0 286.85846970 0 2040.90627220 0 8037
0.08750000 0.08749060 22361.44575724 0 128.59065875 0 7224.47049767 0 677.71153580 0 1586.86344836 0 8155
0.08850000 0.08849210 21706.40702097 0 362.76922143 0 7207.35268350 0 -145.16371453 0 1044.39814575 0 8718
0.08950000 0.08949900 21369.36545349 0 626.76223315 0 7623.01882952 0 -380.08633744 0 984.50240464 0 8571
0.09050000 0.09049190 20750.09032638 0 864.92018937 0 6648.57673920 0 -847.93302863 0 1521.17134521 0 8932
0.09150000 0.09150830 20378.72455197 0 718.43776095 0 7352.80981464 0 449.92834794 0 8.41472327 0 9285
0.09250000 0.09250820 19265.29156820 0 293.88385980 0 7163.26268607 0 -6.08796279 0 72.77872320 0 9204
0.09350000 0.09350330 19216.01972276 0 826.75277849 0 7215.93373524 0 509.83405413 0 -1089.49018858 0 9349
0.09450000 0.09448040 18824.94521017 0 97.35518754 0 6416.86619772 0 -248.71652517 0 -490.80183500 0 9564
0.09550000 0.09549270 18200.02319740 0 496.56940900 0 7144.55045713 0 123.62029214 0 -730.48445035 0 10155
0.09650000 0.09649430 18738.80252308 0 163.52384355 0 7587.48773917 0 -213.34266184 0 19.97801712 0 9913
0.09750000 0.09749140 18100.92589027 0 179.43366708 0 8200.87238948 0 2.50294331 0 322.78705651 0 10476
0.09850000 0.09850240 18398.54998140 0 396.01166223 0 7919.81249628 0 370.35265670 0 773.19594334 0 10575
0.09950000 0.09950330 17835.74371087 0 -15.68151219 0 8220.74721253 0 229.33663504 0 964.60322248 0 10882
0.10050000 0.10051200 17865.30681813 0 276.00094799 0 7905.15273822 0 1015.90462506 0 1681.19965581 0 10875
0.10150000 0.10150300 17858.88486974 0 142.76102005 0 7884.85716683 0 858.40080452 0 853.74157023 0 11118
0.10250000 0.10250800 17066.10641272 0 735.99736088 0 6807.23208153 0 549.61913167 0 594.87504490 0 11575
0.10350000 0.10349800 16496.54602405 0 870.75419732 0 6612.18200752 0 610.34418991 0 439.52811323 0 11364
0.10450000 0.10450100 15774.85189237 0 332.80529600 0 6048.68925285 0 477.74977851 0 1257.59465290 0 12093
0.10550000 0.10551000 15838.62848333 0 -127.73587527 0 5972.04662046 0 938.75598742 0 1196.39791363 0 12067
0.10650000 0.10649700 15866.86291162 0 -21.27846167 0 5747.93169380 0 395.37832525 0 -340.73086611 0 12054
0.10750000 0.10749900 15832.98159767 0 274.59365550 0 5871.99709340 0 -550.77397515 0 516.11759847 0 12807
0.10850000 0.10850100 15569.34954374 0 580.39576574 0 6723.29278708 0 -911.16264674 0 367.81930878 0 12736
0.10950000 0.10950300 15102.76177588 0 485.46940337 0 6267.74412707 0 -253.30268211 0 826.21023457 0 12933
0.11050000 0.11050200 14997.68541335 0 79.10478526 0 6951.78128204 0 385.47855963 0 -31.49788530 0 13428
0.11150000 0.11150900 14822.52123472 0 -13.24250048 0 6523.04979273 0 242.88251722 0 -1081.14829906 0 13453
0.11250000 0.11250000 14602.18197083 0 259.80545847 0 6231.34939539 0 840.61865086 0 -1282.09770773 0 13668
0.11350000 0.11349100 14221.51544357 0 367.37973748 0 5390.81600143 0 421.61530614 0 -1190.96140214 0 13791
0.11450000 0.11448600 13928.20955912 0 214.07343528 0 4953.01627810 0 714.38307560 0 -1279.99396601 0 14205
0.11550000 0.11549300 13828.22646601 0 -37.92226961 0 4840.67647049 0 610.62985589 0 -879.73828168 0 14776
0.11650000 0.11649800 13877.38758820 0 150.47510875 0 4543.32918748 0 466.94318948 0 -796.79660369 0 14553
0.11750000 0.11747300 13785.59801546 0 225.69273294 0 4383.33409386 0 52.22560953 0 -396.58742312 0 14568
0.11850000 0.11849100 13499.82131189 0 310.01955876 0 4690.93434964 0 3.75919822 0 384.88176132 0 16015
0.11950000 0.11950300 13630.03185175 0 42.68071192 0 4503.39131186 0 318.99035633 0 666.60156508 0 15270
0.12050000 0.12050700 13630.47474475 0 -354.51480328 0 4559.29547987 0 674.57585341 0 538.84908132 0 15999
0.12150000 0.12150000 13651.40143865 0 -85.44358050 0 4355.65328181 0 490.37665773 0 534.64713405 0 15670
0.12250000 0.12250700 14013.13429048 0 82.42161089 0 4173.73498504 0 356.09371680 0 -20.90997470 0 16887
0.12350000 0.12352200 13644.09370427 0 216.89577087 0 3613.34248132 0 -69.01612578 0 410.15323549 0 16407
0.12450000 0.12449800 13393.63771688 0 317.46791167 0 3849.95806269 0 -59.09809083 0 357.22863009 0 16306
0.12550000 0.12549900 13257.22667511 0 189.16402613 0 3897.86801218 0 177.23691784 0 136.61145084 0 17523
0.12650000 0.12650100 13046.52033381 0 200.09241073 0 3889.84057669 0 393.41077313 0 -91.68981110 0 17154
0.12750000 0.12750600 12924.17114456 0 239.36041070 0 3717.98702318 0 -222.74528007 0 -213.40798855 0 18007
0.12850000 0.12850300 12788.20299579 0 345.09336209 0 4223.54937440 0 -218.63744757 0 322.48810374 0 17496
0.12950000 0.12949900 12617.02485410 0 274.45635867 0 4310.35640098 0 -354.98980601 0 -18.43077045 0 18405
0.13050000 0.13049000 12324.05113939 0 186.46459334 0 4488.86442170 0 41.24252765 0 273.79976981 0 18100
0.13150000 0.13148800 12478.06717762 0 106.75968807 0 4345.95392527 0 -155.07676694 0 -461.03721143 0 19059
0.13250000 0.13249300 12106.92284970 0 154.89075189 0 4200.03175648 0 799.89242571 0 243.27004859 0 18957
0.13350000 0.13349100 11954.56766020 0 79.24817187 0 3828.76563299 0 537.88468183 0 -307.14186154 0 19468
0.13450000 0.13450700 11868.20352661 0 -6.68277915 0 3211.38387343 0 679.20851412 0 -235.78072808 0 19953
0.13550000 0.13551000 11796.56558503 0 88.53397708 0 3446.79257139 0 290.60866612 0 -334.21148126 0 19956
0.13650000 0.13649900 11739.21094247 0 179.00516811 0 2922.42941263 0 308.36313897 0 -288.69536839 0 19723
0.13750000 0.13749600 11505.25271906 0 125.32210846 0 2916.18462144 0 -180.12900908 0 45.80011800 0 20946
0.13850000 0.13851100 11505.69561205 0 173.01393315 0 2825.75694464 0 221.50960862 0 -175.10770977 0 20955
0.13950000 0.13949800 11425.97487335 0 24.90520166 0 3177.19253439 0 -370.52317050 0 183.99767937 0 20506
0.14050000 0.14048300 11436.82575168 0 341.91781933 0 3097.92576101 0 -19.04340218 0 92.90223067 0 21447
0.14150000 0.14148400 11042.45168629 0 336.94080932 0 3502.07668921 0 -158.28109775 0 39.44781452 0 21771
0.14250000 0.14249400 10892.38846802 0 172.84563381 0 3607.57380009 0 134.21429252 0 435.04271445 0 22470
0.14350000 0.14350900 10922.00693691 0 -41.64699968 0 3538.05067255 0 243.05081656 0 513.76583668 0 22519
0.14450000 0.14449900 10892.79814404 0 31.26946324 0 3444.48952783 0 234.80414903 0 740.48275966 0 22218
0.14550000 0.14550500 10829.16549330 0 32.27394455 0 3376.58295972 0 658.58852361 0 741.72728897 0 23559
0.14650000 0.14650700 10743.44355456 0 310.59531965 0 3438.92014845 0 157.31669826 0 788.63851477 0 23044
0.14750000 0.14750500 10363.67388560 0 452.94777091 0 2938.12996923 0 48.33900208 0 929.71432698 0 23649
0.14850000 0.14849900 10113.14039193 0 186.87537659 0 3053.10499014 0 32.20297095 0 635.63891596 0 23640
0.14950000 0.14949500 9892.17000553 0 142.14429156 0 2750.52049750 0 367.18043564 0 825.05539109 0 24457
0.15050000 0.15050000 9815.62702405 0 92.10214448 0 2719.87230240 0 108.24703346 0 366.21714338 0 24591
0.15150000 0.15149900 9482.32790236 0 80.82531382 0 2358.22802917 0 186.52659836 0 82.79020858 0 25020
0.15250000 0.15250500 9696.87634037 0 -107.40210436 0 2525.69694206 0 220.75558330 0 364.98257916 0 25297
0.15350000 0.15350100 9697.97250053 0 -40.92696640 0 2415.46087616 0 35.15939240 0 24.75871480 0 25452
0.15450000 0.15450400 9704.54946147 0 218.02736247 0 2582.19901561 0 -120.64737292 0 504.62895424 0 26061
0.15550000 0.15549900 9548.28574131 0 274.91032399 0 2643.69470765 0 -124.82828277 0 387.96429655 0 26128
0.15650000 0.15649500 9452.72050580 0 176.15736617 0 3008.20671300 0 -251.73041198 0 622.88249053 0 26331
0.15750000 0.15749700 9196.14152278 0 232.89195854 0 2941.69525782 0 -54.72828711 0 895.41780085 0 27345
0.15850000 0.15849900 9179.17872115 0 126.92648833 0 3110.54821130 0 170.52487453 0 717.50104227 0 26980
0.15950000 0.15949700 9093.93289238 0 142.25612204 0 2932.18413080 0 4.34845627 0 574.99357846 0 27777
0.16050000 0.16050000 8981.68166336 0 177.74624478 0 3092.81034694 0 106.83896592 0 686.98350061 0 28224
0.16150000 0.16150500 8831.12019048 0 229.21594670 0 2784.76719816 0 83.52685035 0 596.95664197 0 28075
0.16250000 0.16249700 8628.28627213 0 139.03186105 0 2853.44882901 0 19.84326692 0 955.83726292 0 28590
0.16350000 0.16349900 8559.08424201 0 70.53281284 0 2661.36613806 0 242.09416769 0 412.92685286 0 29163
0.16450000 0.16449100 8519.62247636 0 58.70015147 0 2887.78410828 0 246.03812980 0 763.12898562 0 28996
0.16550000 0.16550500 8399.96386204 0 75.82604844 0 2701.14900113 0 6.42618910 0 583.77393204 0 30777
0.16650000 0.16650700 8462.81037771 0 99.55381908 0 2779.58535015 0 -62.88681893 0 707.33000469 0 29211
0.16750000 0.16749900 8292.56231130 0 131.05425102 0 2823.69749223 0 100.84363420 0 629.70082816 0 30922
0.16850000 0.16850800 8342.77530435 0 -53.64663170 0 2772.73158109 0 48.11379099 0 996.61331353 0 30867
0.16950000 0.16949900 8475.18923686 0 -94.88628055 0 2862.17382097 0 154.84978429 0 812.20817261 0 30852
0.17050000 0.17049200 8443.31201371 0 -34.72856824 0 2874.24265502 0 318.98149847 0 964.73498315 0 31257
0.17150000 0.17149500 8446.61156650 0 162.25052619 0 2528.77504836 0 277.52228542 0 734.28225777 0 32608
0.17250000 0.17250900 8341.25839585 0 164.90456245 0 2504.61523560 0 198.92870939 0 948.13092485 0 32361
0.17350000 0.17350400 8234.89764365 0 131.78945339 0 2396.91473209 0 80.98442313 0 823.65917093 0 32508
0.17450000 0.17449800 8026.07359757 0 261.20721480 0 2547.44298800 0 -109.04778399 0 764.21296622 0 32791
0.17550000 0.17549800 7930.74088088 0 229.11186684 0 2526.70452362 0 -156.85941124 0 970.93659228 0 33633
0.17650000 0.17650100 7742.95425195 0 164.65432791 0 2537.95400563 0 273.00145519 0 1238.09628890 0 33984
0.17750000 0.17750300 7737.35165559 0 -25.62944243 0 2664.78748643 0 101.84778334 0 1285.14259705 0 34069
0.17850000 0.17849800 7723.51124957 0 3.29966352 0 2672.73741565 0 255.82827940 0 920.14340940 0 34536
