### header ###
fiducial parameters:
Omega_m = 0.31
Omega_nu = 0
Omega_de = 0.69
Omega_k = 0
H_0 = 100
w_de = -1
zeff = 0
beta = 0
fgrowth = 0
b_1 = 2
gamma = 0.55
Lx = 3500 Ly = 3500 Lz = 3500
nx = 700 ny = 700 nz = 700
xoffset = -685.467585 yoffset = -31.7331281 zoffset = 572.489161
bins = 400 dk = 0.001
kx_ny = 0.628318531 ky_ny = 0.628318531 kz_ny = 0.628318531
############################
A(data) = 8.0093964 (not used)
A(ran) = 8.00370665 (used)
Ngal = 475407
weighted Ngal = 0
Nran = 23820508
weighted Nran = 0
SN(data) = 3494.32426
SN(ran) = 69.7151876
SN(data+ran) = 3564.03945
############################
13 columns: k_central k_mean P_0(k) sigma^{lin}_{P_0(k)} P^img_1(k) sigma^{lin}_{P_1(k)} P_2(k) sigma^{lin}_{P_2(k)} P^img_3(k) sigma^{lin}_{P_3(k)} P_4(k) sigma^{lin}_{P_4(k)} N_modes
### header ###
0.00050000 0 0 0 0 0 0 0 0 0 0 0 0
0.00150000 0.00179520 56256.71083157 0 -41310.40100538 0 8769.05980987 0 73603.16850870 0 -60306.19218749 0 3
0.00250000 0.00253879 88004.38778408 0 -22304.86617742 0 33090.52850651 0 -44865.83522789 0 46266.81648720 0 6
0.00350000 0.00331552 81162.57683214 0 11835.98306139 0 8213.95987741 0 -22538.82440084 0 35426.45687350 0 7
0.00450000 0.00420575 65906.46335752 0 24080.64563183 0 17423.07816488 0 -9125.31186091 0 44909.34946443 0 24
0.00550000 0.00557378 54034.49524047 0 3797.66347257 0 18023.19817005 0 22263.67712909 0 149.72219066 0 45
0.00650000 0.00659388 62705.01135945 0 -3562.66445062 0 43363.65291975 0 24123.82769863 0 -21449.08619219 0 40
0.00750000 0.00754703 56193.26641036 0 675.38302589 0 5498.72687911 0 13353.99879402 0 -5585.12422967 0 57
0.00850000 0.00846663 70012.74573976 0 -9199.58501579 0 18332.55892548 0 -7079.97665879 0 573.38587690 0 75
0.00950000 0.00948925 62428.20323899 0 3898.05624170 0 11027.43761383 0 -6763.52961547 0 -5757.88571382 0 112
0.01050000 0.01054430 72791.12420650 0 -3036.15326085 0 28102.22472921 0 -10418.81406320 0 -12573.28917106 0 105
0.01150000 0.01145670 62938.08379689 0 5303.72109441 0 19350.88063905 0 -6626.46530654 0 -1211.68879420 0 144
0.01250000 0.01249090 65229.39069486 0 7241.62152881 0 20536.06228764 0 1231.91793165 0 -532.23447448 0 169
0.01350000 0.01339930 52539.17777371 0 -2484.45253211 0 13663.13810296 0 5215.91755859 0 -5884.87420716 0 180
0.01450000 0.01448870 64096.80258916 0 -3905.71829048 0 19140.06357450 0 5544.73238873 0 -11044.46684940 0 267
0.01550000 0.01550050 63164.73428592 0 -8989.32156749 0 24821.27343895 0 5331.10295368 0 -18993.24454741 0 238
0.01650000 0.01653350 70533.47717598 0 -5829.86689746 0 7047.40187917 0 10705.63156530 0 -16885.40607168 0 315
0.01750000 0.01747870 75504.28668006 0 -8210.21743162 0 11880.27236066 0 -4983.91913667 0 -26899.32736092 0 297
0.01850000 0.01844180 74232.96234439 0 4628.42000372 0 2425.45918547 0 -4945.18814445 0 -21026.45555386 0 388
0.01950000 0.01947590 72125.56676165 0 10618.87990035 0 11643.32460954 0 -19377.56494186 0 -22030.27252192 0 399
0.02050000 0.02045430 65842.90821306 0 8294.04600283 0 6263.82452408 0 -13187.13885901 0 -11670.56252860 0 462
0.02150000 0.02154770 63346.87402919 0 -1828.82696262 0 9696.64382155 0 -12159.18422284 0 -18563.63834445 0 571
0.02250000 0.02255340 67297.47952448 0 -4071.13882327 0 18215.85662189 0 -4678.99838349 0 -27129.63171714 0 510
0.02350000 0.02348930 73330.23570192 0 -1479.56154854 0 19126.66606147 0 -8796.61882635 0 -30416.56206281 0 555
0.02450000 0.02439640 68863.99203983 0 -1391.13796254 0 20850.18414274 0 455.72581721 0 -23896.29142360 0 592
0.02550000 0.02547300 70217.03013266 0 1516.77563226 0 17907.27092920 0 2063.83705690 0 -30144.84721176 0 837
0.02650000 0.02652900 68465.72051610 0 2392.77368261 0 13365.07111884 0 3654.63118057 0 -27801.27894064 0 723
0.02750000 0.02749970 64578.33799552 0 4588.39354950 0 15955.55223341 0 2616.73359672 0 -25478.52664019 0 826
0.02850000 0.02848090 60302.09542731 0 7061.18692357 0 11734.11767306 0 372.95908196 0 -16462.33254036 0 831
0.02950000 0.02946900 55004.65234108 0 2691.17283647 0 10265.99383605 0 -435.73916368 0 -10023.88638157 0 996
0.03050000 0.03053250 55020.26431907 0 1970.23162288 0 16183.19923169 0 -1079.05673690 0 -10124.43416325 0 1041
0.03150000 0.03150510 54012.68276058 0 1701.62809510 0 17254.11448814 0 -3884.50371613 0 -7648.15300686 0 1036
0.03250000 0.03246190 56438.62912834 0 -1034.86819578 0 18482.03531053 0 52.64857234 0 1610.99004414 0 1059
0.03350000 0.03345080 57139.83945911 0 820.58881526 0 27088.55339207 0 -1722.96446503 0 3975.00889919 0 1302
0.03450000 0.03451200 58013.88878029 0 454.47796620 0 27988.62267657 0 2017.00112291 0 304.27745111 0 1339
0.03550000 0.03553350 55847.03481328 0 1307.75228433 0 30137.42875413 0 2799.48231785 0 3811.52602325 0 1365
0.03650000 0.03647120 54169.79904975 0 2699.22241661 0 29042.37582956 0 4658.51458257 0 3972.93837445 0 1308
0.03750000 0.03744890 54161.60552939 0 1162.29515319 0 26825.47495438 0 6990.85551632 0 3510.93454907 0 1579
0.03850000 0.03847530 51620.17481376 0 272.97598885 0 21735.97012824 0 9988.68746097 0 2346.29206302 0 1662
0.03950000 0.03950240 49958.77247472 0 2083.81153087 0 17537.89817325 0 2665.81721264 0 4965.93768116 0 1683
0.04050000 0.04050350 50723.42722670 0 2079.38260094 0 15475.01333628 0 1342.91798795 0 -34.49029181 0 1822
0.04150000 0.04152450 47870.86418367 0 186.77572567 0 14702.38651044 0 -5368.09559090 0 -3741.67072597 0 1887
0.04250000 0.04250150 47039.99692928 0 1101.54352137 0 14103.59518425 0 -2355.14992287 0 -3723.50104094 0 1920
0.04350000 0.04349210 45508.69440686 0 1065.58393206 0 17130.21517342 0 486.46369814 0 -5079.61724008 0 2005
0.04450000 0.04448520 46704.50548728 0 854.88644862 0 15738.42394372 0 1153.78053540 0 -8292.56231130 0 2151
0.04550000 0.04548030 44864.50654891 0 1576.62154790 0 16864.92227077 0 1613.37059397 0 -7441.63200434 0 2274
0.04650000 0.04648670 43191.14609907 0 3436.51745396 0 15507.56597125 0 19.39417343 0 -6602.05083031 0 2311
0.04750000 0.04749250 39828.48105165 0 1507.56345801 0 15960.42405633 0 3166.44130699 0 -2105.39149194 0 2568
0.04850000 0.04851840 41516.78914000 0 -1619.31643240 0 13832.65539593 0 2782.91811992 0 -2167.06434118 0 2493
0.04950000 0.04949480 41978.83725468 0 -2218.49528996 0 14729.84587599 0 5050.91777415 0 -1595.05696872 0 2644
0.05050000 0.05050630 44247.11371703 0 -459.74728558 0 12985.29037756 0 2211.65259323 0 -3872.97742599 0 2829
0.05150000 0.05149060 42620.03558493 0 1822.88112419 0 11136.65502584 0 -962.87593981 0 -41.36675914 0 2784
0.05250000 0.05249300 41900.77736471 0 2253.50598104 0 12476.51705215 0 -625.42801801 0 2500.16416102 0 3055
0.05350000 0.05348950 40525.26245249 0 724.90067695 0 15108.63010804 0 -558.83130592 0 5054.85952178 0 3009
0.05450000 0.05448610 40110.05027179 0 1622.25059848 0 15332.62323912 0 1561.04278688 0 2526.42771549 0 3336
0.05550000 0.05550870 38870.28206184 0 1118.55947015 0 16804.79954700 0 -467.08159354 0 5601.51127040 0 3349
0.05650000 0.05647670 38317.77305339 0 1578.62563869 0 18500.19392324 0 542.02019515 0 4345.34494740 0 3324
0.05750000 0.05747970 37454.02099429 0 1137.92496626 0 16812.99306737 0 -720.70980200 0 5656.41892918 0 3639
0.05850000 0.05849280 36696.56325345 0 1088.87456732 0 19255.88009211 0 213.13450213 0 4894.08936541 0 3846
0.05950000 0.05951020 34862.21120074 0 1103.01946227 0 17765.65589477 0 1255.57948978 0 3912.73814441 0 3787
0.06050000 0.06049470 34672.43155335 0 590.02315217 0 16811.44294190 0 3772.30784874 0 1242.48092952 0 3930
0.06150000 0.06148310 33913.75585678 0 387.05858038 0 15159.67352545 0 3651.19875987 0 2978.47752087 0 4083
0.06250000 0.06249100 33251.18793963 0 662.78272025 0 12913.98460573 0 2580.50494991 0 -422.02055323 0 4303
0.06350000 0.06350600 32159.12454277 0 282.50704605 0 12116.11287930 0 1503.69921665 0 2139.18422729 0 4470
0.06450000 0.06451750 32073.97836491 0 458.16172867 0 10711.86528418 0 830.64470066 0 511.76396035 0 4479
0.06550000 0.06550280 31540.40303190 0 558.53899655 0 11160.90341720 0 866.14589573 0 2008.66366233 0 4636
0.06650000 0.06648880 31578.82399902 0 172.98846680 0 12246.98775866 0 -369.97841212 0 1435.33868322 0 4653
0.06750000 0.06749660 31494.78505365 0 261.07323967 0 12286.40523501 0 -822.37145956 0 411.04455764 0 5220
0.06850000 0.06852730 30995.20175783 0 902.26603375 0 13188.02464499 0 -167.22753620 0 1818.43004962 0 5029
0.06950000 0.06949320 30767.00114332 0 1165.00787277 0 14704.71169865 0 538.75164486 0 4359.06355785 0 5040
0.07050000 0.07048030 30193.78688746 0 429.91179913 0 12605.62035953 0 658.14341615 0 3315.40836510 0 5475
0.07150000 0.07148790 29874.01814669 0 -479.48702627 0 12993.04100494 0 2292.72415555 0 4154.51342915 0 5509
0.07250000 0.07249820 30020.28355755 0 89.54399455 0 12132.27847354 0 2246.01001714 0 3357.22853594 0 5916
0.07350000 0.07351270 30162.89510121 0 290.24770833 0 12833.26735780 0 1496.66829039 0 2851.14578545 0 5721
0.07450000 0.07449140 29174.46866465 0 661.54372710 0 11818.15661843 0 1350.03749281 0 3962.68540167 0 6028
0.07550000 0.07549160 28274.84227314 0 1032.68141163 0 10041.21456991 0 1134.04965258 0 2617.48651480 0 6183
0.07650000 0.07648840 27599.87335219 0 673.85172337 0 9183.41942156 0 1213.31642595 0 2918.00048271 0 6330
0.07750000 0.07749960 27119.33445506 0 379.97561420 0 8069.53247248 0 399.46401311 0 1625.66087452 0 6583
0.07850000 0.07848650 25655.46239079 0 1218.31004445 0 9794.16885856 0 -634.36559860 0 -399.48615776 0 6549
0.07950000 0.07947320 25416.52162120 0 1380.58603699 0 8189.76684768 0 -818.55482919 0 -167.75790056 0 6828
0.08050000 0.08048110 24040.56381599 0 650.15362656 0 8350.64772730 0 -42.45251131 0 966.07694891 0 7147
0.08150000 0.08149960 23494.03386294 0 359.84834214 0 8002.10201433 0 1826.10317072 0 1722.23369159 0 7386
0.08250000 0.08250610 23602.09975317 0 -559.27419891 0 7180.72374231 0 3062.01821162 0 815.36267795 0 7227
0.08350000 0.08350160 23870.16073703 0 -317.29296893 0 7040.33773594 0 2043.16502646 0 1580.66294646 0 7798
0.08450000 0.08449610 23533.00844630 0 592.87095411 0 6959.13330572 0 558.03852746 0 2248.56772417 0 7371
0.08550000 0.08548940 23030.65706928 0 1205.80938973 0 7368.16712917 0 -853.12484174 0 2948.64867780 0 8256
0.08650000 0.08650700 22072.79024922 0 1062.31206008 0 6941.87155132 0 -911.98089155 0 3170.41627160 0 8037
0.08750000 0.08749060 21292.63424250 0 441.08488210 0 7721.00890416 0 -1236.95583944 0 1921.02621139 0 8155
0.08850000 0.08849210 21036.64209269 0 637.13810874 0 8176.70150440 0 -756.84544128 0 1706.35597780 0 8718
0.08950000 0.08949900 20880.19014300 0 422.80004490 0 8045.36158740 0 582.20719808 0 1213.09497946 0 8571
0.09050000 0.09049190 20075.01068219 0 313.67010425 0 7170.65899905 0 482.42229958 0 196.28795992 0 8932
0.09150000 0.09150830 19950.00413499 0 694.35656170 0 7582.11766164 0 815.13680252 0 778.30360678 0 9285
0.09250000 0.09250820 19504.34306104 0 425.35885916 0 7839.61564762 0 1475.87446438 0 1474.95546142 0 9204
0.09350000 0.09350330 18974.97521146 0 480.34734591 0 6549.54586602 0 707.86922691 0 1136.79558913 0 9349
0.09450000 0.09448040 19089.02015709 0 88.95516832 0 6878.84787846 0 606.85087143 0 2556.37835413 0 9564
0.09550000 0.09549270 19015.94281329 0 -201.37569317 0 6316.55093487 0 -373.47726676 0 1965.04977486 0 10155
0.09650000 0.09649430 18833.36017703 0 92.45557308 0 6902.57587054 0 -117.85603983 0 1549.09574840 0 9913
0.09750000 0.09749140 18817.08385954 0 325.80758672 0 6375.21211176 0 -358.48091003 0 780.56568274 0 10476
0.09850000 0.09850240 18397.22130242 0 257.92537772 0 5744.52141776 0 826.13494276 0 366.69436058 0 10575
0.09950000 0.09950330 18286.27660774 0 253.32039783 0 5658.40087532 0 65.63840237 0 -708.33315732 0 10882
0.10050000 0.10051200 18064.49794162 0 208.84286903 0 4981.17320011 0 592.25754732 0 -1035.78498427 0 10875
0.10150000 0.10150300 17536.68021752 0 363.71147627 0 4859.95338800 0 717.91071829 0 -1033.20070366 0 11118
0.10250000 0.10250800 17389.30757418 0 504.30010619 0 4773.25708467 0 267.17298341 0 -431.58704187 0 11575
0.10350000 0.10349800 16912.09037450 0 481.80335662 0 5361.82865505 0 419.13621261 0 -131.64994209 0 11364
0.10450000 0.10450100 16529.76299851 0 487.74365889 0 5051.55996899 0 756.68599980 0 437.04348354 0 12093
0.10550000 0.10551000 16122.85506142 0 430.79094172 0 5374.94935996 0 -242.22260666 0 894.62391516 0 12067
0.10650000 0.10649700 16207.66906953 0 -90.95759826 0 5497.81894848 0 -319.42882039 0 1014.43089863 0 12054
0.10750000 0.10749900 16020.65750335 0 -180.16222605 0 5381.89170762 0 20.98139119 0 292.17097115 0 12807
0.10850000 0.10850100 16164.70844924 0 302.63763980 0 5936.16121572 0 -869.35354823 0 506.21451115 0 12736
0.10950000 0.10950300 16260.92695191 0 299.28383262 0 5132.81976083 0 409.63505069 0 192.12255132 0 12933
0.11050000 0.11050200 15793.34267482 0 192.75921000 0 5337.64669765 0 244.16579967 0 309.85568835 0 13428
0.11150000 0.11150900 15595.03733732 0 286.18859405 0 4754.02445646 0 451.93576043 0 -397.95264077 0 13453
0.11250000 0.11250000 15686.16257058 0 12.48050309 0 5538.60939311 0 765.40434837 0 38.45363048 0 13668
0.11350000 0.11349100 15221.01420494 0 118.17049386 0 5184.76003655 0 -466.52687007 0 -1091.62382557 0 13791
0.11450000 0.11448600 15208.83464764 0 507.53543950 0 5836.26670121 0 -139.03628998 0 -70.48409461 0 14205
0.11550000 0.11549300 14704.49025216 0 384.86404560 0 5487.67669894 0 -0.34484313 0 862.04802831 0 14776
0.11650000 0.11649800 14761.40200172 0 16.31772798 0 5400.17211590 0 678.27843883 0 634.75866613 0 14553
0.11750000 0.11747300 14665.29422230 0 -154.48550480 0 5133.26265382 0 564.65424154 0 794.41494662 0 14568
0.11850000 0.11849100 14963.80409941 0 193.18438727 0 5165.39454045 0 437.14092000 0 272.21089120 0 16015
0.11950000 0.11950300 14524.45425060 0 325.82087351 0 4883.54851219 0 17.64386032 0 1079.44316103 0 15270
0.12050000 0.12050700 14445.06568165 0 174.52973442 0 4947.56869429 0 326.99453994 0 956.20707857 0 15999
0.12150000 0.12150000 14109.35279315 0 300.54718488 0 5360.82107350 0 -250.91770334 0 1317.71737667 0 15670
0.12250000 0.12250700 14179.10843951 0 131.13286452 0 5560.35543905 0 160.74358279 0 117.98337157 0 16887
0.12350000 0.12352200 13689.60095928 0 431.32905671 0 5548.75164264 0 -162.84068111 0 947.21081466 0 16407
0.12450000 0.12449800 13627.26377055 0 234.75100188 0 4753.48191254 0 731.80537870 0 895.48755650 0 16306
0.12550000 0.12549900 13537.02432328 0 -331.98926566 0 4713.20079485 0 773.98318564 0 978.97177840 0 17523
0.12650000 0.12650100 13817.59703418 0 -255.45403482 0 3804.27365049 0 1299.32624514 0 353.69545124 0 17154
0.12750000 0.12750600 13725.14312195 0 92.08143923 0 3847.02389661 0 362.95634372 0 -51.83398141 0 18007
0.12850000 0.12850300 13383.22973155 0 585.70051656 0 3427.61530481 0 -292.01152967 0 249.00329838 0 17496
0.12950000 0.12949900 12945.98362446 0 484.45628565 0 3678.69134240 0 -321.55802845 0 209.99549805 0 18405
0.13050000 0.13049000 12504.86220368 0 430.42555500 0 3887.08356781 0 -378.82077072 0 774.46372453 0 18100
0.13150000 0.13148800 12165.49544799 0 495.84306449 0 3977.90984830 0 -140.88536822 0 91.93284863 0 19059
0.13250000 0.13249300 12109.24803791 0 264.18788464 0 4242.53841146 0 232.29073130 0 620.89611546 0 18957
0.13350000 0.13349100 11773.20297967 0 34.55894022 0 4208.15884290 0 -99.81357582 0 239.11681955 0 19468
0.13450000 0.13450700 11843.29079577 0 60.74100238 0 4475.97623561 0 133.67285584 0 576.32557914 0 19953
0.13550000 0.13551000 11931.75867107 0 97.83174040 0 4323.84249260 0 126.82905187 0 102.11484781 0 19956
0.13650000 0.13649900 11661.26177575 0 170.36654029 0 4367.85498376 0 126.43819880 0 1037.50340909 0 19723
0.13750000 0.13749600 11826.46086204 0 -112.67751352 0 4012.02368106 0 538.18252737 0 1146.79389844 0 20946
0.13850000 0.13851100 11660.04382002 0 -193.33718536 0 3812.85470222 0 812.00887076 0 843.32251258 0 20955
0.13950000 0.13949800 12063.18716667 0 -60.45600074 0 3713.01554933 0 711.61610163 0 837.40435496 0 20506
0.14050000 0.14048300 11816.38504646 0 264.19895696 0 3478.68086687 0 -73.01135275 0 474.70267472 0 21447
0.14150000 0.14148400 11480.22926497 0 525.31205700 0 3037.61480772 0 -268.29350268 0 1137.31598840 0 21771
0.14250000 0.14249400 11222.79771293 0 262.75955474 0 3254.94239926 0 -337.04267471 0 1004.36504814 0 22470
0.14350000 0.14350900 10891.87914108 0 138.41956149 0 3233.83854816 0 199.58861995 0 870.70105016 0 22519
0.14450000 0.14449900 11005.48119372 0 50.63983117 0 3194.67573527 0 429.47887123 0 732.56936912 0 22218
0.14550000 0.14550500 10745.84624904 0 -6.70608639 0 3009.66825988 0 566.62290090 0 835.37258336 0 23559
0.14650000 0.14650700 10883.41988492 0 99.47675570 0 2726.03958733 0 196.68656361 0 627.46089685 0 23044
0.14750000 0.14750500 10635.10085621 0 277.75148254 0 2744.38642955 0 131.89353324 0 842.99587900 0 23649
0.14850000 0.14849900 10434.62534304 0 357.47554293 0 2872.89183139 0 -99.91289457 0 831.72425233 0 23640
0.14950000 0.14949500 10183.02890619 0 233.74895648 0 3048.31067350 0 -472.68640437 0 619.71137670 0 24457
0.15050000 0.15050000 10044.54733968 0 247.20958176 0 3194.38785483 0 -335.93544223 0 301.63448717 0 24591
0.15150000 0.15149900 9944.80783771 0 152.36515460 0 3230.40612746 0 -336.48352231 0 291.16228236 0 25020
0.15250000 0.15250500 9716.46328298 0 89.12224970 0 3100.19558760 0 -101.71214736 0 175.00473715 0 25297
0.15350000 0.15350100 9766.84236090 0 30.33540192 0 3158.14813570 0 412.71647869 0 -224.58882216 0 25452
0.15450000 0.15450400 9614.59789465 0 117.87154109 0 3035.06817301 0 283.00087174 0 -272.46334021 0 26061
0.15550000 0.15549900 9521.94468057 0 293.44539574 0 2712.69743592 0 562.98674943 0 -248.30684915 0 26128
0.15650000 0.15649500 9171.18450264 0 140.83886446 0 2574.95771517 0 337.67822616 0 308.08965254 0 26331
0.15750000 0.15749700 9199.64037742 0 92.12174249 0 2594.11283711 0 311.30616290 0 515.20966783 0 27345
0.15850000 0.15849900 9194.15957663 0 -131.74737855 0 2453.49431191 0 243.95431826 0 418.22938921 0 26980
0.15950000 0.15949700 9180.95029313 0 67.43488708 0 2573.89477199 0 17.68028827 0 446.22133359 0 27777
0.16050000 0.16050000 9258.45656686 0 105.33479059 0 2547.75301310 0 -202.48624735 0 374.84137718 0 28224
0.16150000 0.16150500 9219.67021302 0 41.30796509 0 2700.52895094 0 -259.42457050 0 321.49934513 0 28075
0.16250000 0.16249700 9172.55747091 0 80.60563889 0 2857.80025267 0 -298.88522892 0 373.12184513 0 28590
0.16350000 0.16349900 9217.97614732 0 91.74284754 0 2871.39706754 0 206.04267809 0 209.28576202 0 29163
0.16450000 0.16449100 9031.03101508 0 -1.92454721 0 2908.73294683 0 -26.74486843 0 6.87353316 0 28996
0.16550000 0.16550500 9105.07165114 0 74.90383451 0 2591.22296033 0 413.04864843 0 -259.39356799 0 30777
0.16650000 0.16650700 8872.77427645 0 238.22660464 0 2578.20190635 0 22.79636668 0 -169.81624574 0 29211
0.16750000 0.16749900 8735.05670035 0 303.12814379 0 2452.39815176 0 42.64373036 0 -34.11959038 0 30922
0.16850000 0.16850800 8604.74650956 0 161.15104434 0 2373.23102930 0 189.83058009 0 478.42629755 0 30867
0.16950000 0.16949900 8374.78539540 0 141.71911428 0 2373.87322414 0 311.18104563 0 280.65796781 0 30852
0.17050000 0.17049200 8318.59334695 0 146.36727624 0 2155.69306359 0 331.90290153 0 340.76519032 0 31257
0.17150000 0.17149500 8189.66719676 0 47.31270829 0 2238.44761929 0 267.08994097 0 546.70157408 0 32608
0.17250000 0.17250900 8150.19435878 0 60.38580220 0 2001.99812278 0 254.35455297 0 773.51261183 0 32361
0.17350000 0.17350400 8153.48283925 0 -2.83097201 0 2074.03466805 0 108.23053570 0 981.25046285 0 32508
0.17450000 0.17449800 8185.96904027 0 -23.25918985 0 2050.51705014 0 147.12683773 0 1002.25244856 0 32791
0.17550000 0.17549800 8184.93931406 0 20.42268168 0 2139.60497563 0 -70.11704704 0 1002.45507211 0 33633
0.17650000 0.17650100 8225.98442217 0 161.42563800 0 2000.85767333 0 -13.73067928 0 987.53179272 0 33984
0.17750000 0.17750300 8111.95054886 0 105.81134345 0 2143.24777050 0 1.22111134 0 1257.70537615 0 34069
0.17850000 0.17849800 8066.83082522 0 51.35753927 0 1961.34054605 0 93.69833082 0 1146.28457150 0 34536
