### header ###
fiducial parameters:
Omega_m = 0.31
Omega_nu = 0
Omega_de = 0.69
Omega_k = 0
H_0 = 100
w_de = -1
zeff = 0
beta = 0
fgrowth = 0
b_1 = 2
gamma = 0.55
Lx = 3500 Ly = 3500 Lz = 3500
nx = 700 ny = 700 nz = 700
xoffset = -685.467585 yoffset = -31.7331281 zoffset = 572.489161
bins = 400 dk = 0.001
kx_ny = 0.628318531 ky_ny = 0.628318531 kz_ny = 0.628318531
############################
A(data) = 8.07016324 (not used)
A(ran) = 8.0651436 (used)
Ngal = 478634
weighted Ngal = 0
Nran = 23820508
weighted Nran = 0
SN(data) = 3492.20555
SN(ran) = 70.2503257
SN(data+ran) = 3562.45588
############################
13 columns: k_central k_mean P_0(k) sigma^{lin}_{P_0(k)} P^img_1(k) sigma^{lin}_{P_1(k)} P_2(k) sigma^{lin}_{P_2(k)} P^img_3(k) sigma^{lin}_{P_3(k)} P_4(k) sigma^{lin}_{P_4(k)} N_modes
### header ###
0.00050000 0 0 0 0 0 0 0 0 0 0 0 0
0.00150000 0.00179520 30864.88049471 0 -30808.07946839 0 -4255.17193408 0 58964.00497298 0 -45725.82269656 0 3
0.00250000 0.00253879 43145.52812082 0 -14623.21938799 0 18926.36770550 0 -19762.77112231 0 42448.41455024 0 6
0.00350000 0.00331552 40680.05355345 0 13695.46929143 0 10873.25549073 0 -40098.75650047 0 7227.57074862 0 7
0.00450000 0.00420575 35720.09492769 0 12882.53920325 0 -5568.31644060 0 1851.15984178 0 36144.16496824 0 24
0.00550000 0.00557378 36903.94789730 0 -20045.22612843 0 -9369.26839364 0 2714.95619018 0 -11468.60332391 0 45
0.00650000 0.00659388 73578.80939410 0 -26004.46206907 0 -599.46784524 0 -1943.44766914 0 -2800.94386472 0 40
0.00750000 0.00754703 77535.83683779 0 -2464.53341976 0 6688.30424065 0 -21173.93892044 0 -16482.15200179 0 57
0.00850000 0.00846663 66847.38952061 0 17252.23219293 0 17472.68218006 0 -17814.04195422 0 29241.34550656 0 75
0.00950000 0.00948925 65879.55760821 0 9376.70899592 0 23911.57123185 0 -22712.99207023 0 8254.52887555 0 112
0.01050000 0.01054430 55471.35083218 0 -320.46297553 0 23570.98652043 0 4861.13812675 0 6171.66956461 0 105
0.01150000 0.01145670 65084.12179324 0 -7077.54074733 0 27793.97120626 0 30860.00867179 0 -1826.64571463 0 144
0.01250000 0.01249090 79594.07129833 0 -25014.59623029 0 5646.89672983 0 16792.84143620 0 -24024.95183800 0 169
0.01350000 0.01339930 95116.58490808 0 -27789.87444608 0 9088.68461041 0 10097.65020951 0 -16523.23032687 0 180
0.01450000 0.01448870 108436.25949517 0 998.51664617 0 -7742.94317963 0 -2330.51400015 0 -29593.22398929 0 267
0.01550000 0.01550050 107603.50994556 0 11992.65645757 0 8102.25119232 0 -14710.13713781 0 -3132.42712514 0 238
0.01650000 0.01653350 88740.03304503 0 22274.86017716 0 -3643.92424247 0 -7450.60058744 0 -588.59371503 0 315
0.01750000 0.01747870 81546.56505685 0 10923.51277308 0 18490.56100064 0 5225.71656606 0 3927.06573273 0 297
0.01850000 0.01844180 73269.11646892 0 -3363.88300315 0 23425.16400257 0 2775.00140767 0 -23017.48100275 0 388
0.01950000 0.01947590 75900.45446208 0 -1812.27383702 0 17258.54341807 0 8786.81981888 0 -24174.53894630 0 399
0.02050000 0.02045430 75581.68223055 0 -2993.66875052 0 8615.75240043 0 -6919.87084191 0 -32550.97411810 0 462
0.02150000 0.02154770 77214.07507856 0 888.18646551 0 12647.03085435 0 -13757.58503366 0 -31295.04031392 0 571
0.02250000 0.02255340 75345.84171191 0 7826.10741134 0 9625.03909695 0 -5498.14004590 0 -20878.41857103 0 510
0.02350000 0.02348930 72208.05558155 0 6539.12680837 0 19138.18127929 0 -9654.11502193 0 -32176.39736948 0 555
0.02450000 0.02439640 66982.47188339 0 3677.86091804 0 19575.31666313 0 1767.36448755 0 -14974.32280799 0 592
0.02550000 0.02547300 63812.02239482 0 4158.21158564 0 24546.01544396 0 8516.46686378 0 -15610.09569907 0 837
0.02650000 0.02652900 62471.16385928 0 2584.53527614 0 20928.35475596 0 8837.63071747 0 -4226.18458770 0 723
0.02750000 0.02749970 60624.30007953 0 -1256.76422854 0 22362.77443622 0 6743.04581456 0 -13996.41508000 0 826
0.02850000 0.02848090 59889.54060457 0 1389.43282452 0 17187.68053923 0 6264.74352704 0 -5809.20593935 0 831
0.02950000 0.02946900 59614.28260958 0 -1185.81277110 0 13676.64633924 0 -1909.90959727 0 -8292.21906923 0 996
0.03050000 0.03053250 57610.52398715 0 3320.91131053 0 10284.41818455 0 3389.94725578 0 -3602.72412182 0 1041
0.03150000 0.03150510 55118.91873321 0 3928.54942425 0 10604.84019248 0 -1934.61195394 0 -1022.41625929 0 1036
0.03250000 0.03246190 52562.54037908 0 3268.17382742 0 8294.62176372 0 3780.04740379 0 -1118.52625318 0 1059
0.03350000 0.03345080 51254.45592500 0 848.80663506 0 12957.27739577 0 3658.92724260 0 3626.48533088 0 1302
0.03450000 0.03451200 48793.41028756 0 2657.22508858 0 16162.93687727 0 2718.80935922 0 5087.95470066 0 1339
0.03550000 0.03553350 48760.85765260 0 1832.29260029 0 16959.25847822 0 749.05384631 0 10984.99739280 0 1365
0.03650000 0.03647120 48939.45425192 0 -212.40483593 0 19035.98372121 0 478.84815313 0 10596.10412820 0 1308
0.03750000 0.03744890 47266.09380208 0 205.59646340 0 18850.07938750 0 1225.52920023 0 11200.76378654 0 1579
0.03850000 0.03847530 49819.59335175 0 1777.13027804 0 21242.91950406 0 -559.73037870 0 11879.71874442 0 1662
0.03950000 0.03950240 44677.93787572 0 2424.20801277 0 17930.96570431 0 1355.99440357 0 9184.53772637 0 1683
0.04050000 0.04050350 42983.42928547 0 3785.19603483 0 19394.83776858 0 -938.17247591 0 8621.52108166 0 1822
0.04150000 0.04152450 41330.66335979 0 1326.60845350 0 18273.32198770 0 2632.97669722 0 5027.74339830 0 1887
0.04250000 0.04250150 39919.60628491 0 189.35225565 0 20375.07068478 0 2351.65106823 0 6900.63821370 0 1920
0.04350000 0.04349210 40200.95405855 0 475.40908904 0 18112.66255458 0 1542.25305166 0 1907.17473304 0 2005
0.04450000 0.04448520 40022.57890572 0 -608.04778974 0 16745.67333247 0 2464.48913046 0 2710.05115029 0 2151
0.04550000 0.04548030 41064.48467115 0 -796.83646406 0 14116.77125078 0 1426.02685804 0 -353.87260844 0 2274
0.04650000 0.04648670 41892.80529084 0 -587.12552476 0 14863.82100630 0 592.77241042 0 52.81587517 0 2311
0.04750000 0.04749250 41455.89135349 0 -263.48922094 0 14433.55046384 0 415.89091421 0 -2899.76436373 0 2568
0.04850000 0.04851840 41438.95069652 0 1478.17750794 0 14625.43385295 0 -496.75653129 0 -5048.75867081 0 2493
0.04950000 0.04949480 40672.41364933 0 1248.93609489 0 12639.16950373 0 76.13330545 0 -4605.04632602 0 2644
0.05050000 0.05050630 39668.70740452 0 508.20199346 0 13025.15074691 0 -2278.02010819 0 -9721.46797380 0 2829
0.05150000 0.05149060 38912.91051240 0 2109.68755397 0 13535.80636755 0 -676.37621343 0 -4656.89802315 0 2784
0.05250000 0.05249300 37589.21408033 0 663.21011199 0 14872.67886615 0 776.10575030 0 -6093.89755509 0 3055
0.05350000 0.05348950 38088.02231341 0 -782.51884084 0 13277.82119927 0 2633.66318136 0 -4878.99778669 0 3009
0.05450000 0.05448610 37628.52083343 0 154.70362960 0 15308.26412452 0 158.61658919 0 -8054.65126792 0 3336
0.05550000 0.05550870 38165.41786389 0 1602.39792008 0 15388.64920270 0 683.37502995 0 -5233.75507388 0 3349
0.05650000 0.05647670 36789.23861218 0 1806.51622811 0 16041.58419725 0 -1828.40621428 0 -3675.14819845 0 3324
0.05750000 0.05747970 35564.08587100 0 1466.19725249 0 16943.75722348 0 -366.96784700 0 -1978.74624067 0 3639
0.05850000 0.05849280 34374.91818547 0 371.52300143 0 17419.20285119 0 786.46169571 0 -781.64412718 0 3846
0.05950000 0.05951020 35728.84206430 0 -125.27560470 0 16649.34410655 0 3759.20928848 0 -2014.74236865 0 3787
0.06050000 0.06049470 33339.76653818 0 -191.17365309 0 13276.71396679 0 3237.07166700 0 -2303.50859992 0 3930
0.06150000 0.06148310 34275.71015510 0 999.17323503 0 12940.55818530 0 3238.42249063 0 -3547.31820842 0 4083
0.06250000 0.06249100 32581.42301135 0 1153.59230588 0 10809.02493446 0 805.51827395 0 -537.45064670 0 4303
0.06350000 0.06350600 31766.38918145 0 1019.02259173 0 9822.51401009 0 1225.92780392 0 -1582.48988006 0 4470
0.06450000 0.06451750 30943.27255443 0 -189.66117352 0 8198.25932082 0 451.20830868 0 -163.63567403 0 4479
0.06550000 0.06550280 31263.37346494 0 -598.80239852 0 10169.24386179 0 1913.08735449 0 -1455.92213505 0 4636
0.06650000 0.06648880 31084.11252612 0 522.69788111 0 10244.12599454 0 -156.21168024 0 -530.82718199 0 4653
0.06750000 0.06749660 31521.80152620 0 215.12973506 0 9905.08033626 0 -467.31964853 0 -1553.20358091 0 5220
0.06850000 0.06852730 31378.52564305 0 397.49203206 0 10668.91573620 0 -1341.12427133 0 -1901.28425623 0 5029
0.06950000 0.06949320 31562.21551179 0 716.93635370 0 11573.90113293 0 -2447.16094212 0 -364.16101266 0 5040
0.07050000 0.07048030 30647.08786553 0 1114.65093949 0 12553.35898639 0 -90.21564177 0 651.48230554 0 5475
0.07150000 0.07148790 30242.06222367 0 435.95950294 0 13016.18216381 0 -139.90325301 0 -29.45714512 0 5509
0.07250000 0.07249820 29990.38828054 0 380.63884645 0 12007.05047984 0 2510.02960244 0 -1007.52176794 0 5916
0.07350000 0.07351270 29809.24504650 0 114.78125523 0 13372.48957647 0 -104.19932368 0 -1587.52778785 0 5721
0.07450000 0.07449140 29173.69360191 0 898.55459047 0 11602.46773096 0 1184.67232165 0 -1605.58674963 0 6028
0.07550000 0.07549160 27798.28941294 0 1478.45431606 0 11750.72616028 0 -466.06293966 0 -826.25341664 0 6183
0.07650000 0.07648840 27445.08225123 0 572.69274936 0 11394.08657788 0 711.62274502 0 -769.46124818 0 6330
0.07750000 0.07749960 26047.97630561 0 372.29252800 0 11511.89611395 0 779.66771720 0 -1422.15154436 0 6583
0.07850000 0.07848650 26313.26920826 0 954.46208018 0 11797.56209427 0 720.43853004 0 -1859.16513262 0 6549
0.07950000 0.07947320 25110.81473296 0 740.62116372 0 10740.95228147 0 1087.76401314 0 -2669.06140381 0 6828
0.08050000 0.08048110 24549.00497166 0 360.21815779 0 9450.70534268 0 1660.98159069 0 -1035.72408649 0 7147
0.08150000 0.08149960 24242.74446718 0 -70.71052365 0 8390.69632617 0 1206.71732036 0 -3155.59042866 0 7386
0.08250000 0.08250610 24319.58640142 0 234.18631331 0 8084.30295379 0 745.53616871 0 -2709.33144917 0 7227
0.08350000 0.08350160 23906.03506944 0 570.34430927 0 7399.92255675 0 -843.37676697 0 -2957.40688674 0 7798
0.08450000 0.08449610 23038.29697341 0 1021.36106673 0 7461.08607904 0 -1117.10899560 0 -3171.91103545 0 7371
0.08550000 0.08548940 23086.24013987 0 715.88005392 0 8026.73793706 0 107.27266888 0 -2814.04242498 0 8256
0.08650000 0.08650700 22055.84959225 0 300.36449152 0 7493.60549704 0 1021.32784976 0 -1862.56433634 0 8037
0.08750000 0.08749060 21955.64505264 0 238.41926309 0 7279.30065017 0 1191.70324791 0 -2265.86269554 0 8155
0.08850000 0.08849210 21788.89584087 0 265.18439387 0 7550.35116173 0 1313.37702534 0 -1808.30994473 0 8718
0.08950000 0.08949900 21467.13408164 0 443.19637445 0 6933.11334239 0 386.58911381 0 -2428.79195524 0 8571
0.09050000 0.09049190 20438.51510599 0 1026.52077010 0 7179.42828031 0 100.97927018 0 -1242.54736347 0 8932
0.09150000 0.09150830 19744.28033986 0 1299.25981119 0 7327.28810594 0 -555.33355851 0 -711.95823647 0 9285
0.09250000 0.09250820 18921.05298959 0 603.84584247 0 7082.96618649 0 260.10994741 0 -366.60024582 0 9204
0.09350000 0.09350330 18637.60147423 0 -35.34230720 0 7222.72107035 0 89.66435072 0 -763.94833765 0 9349
0.09450000 0.09448040 18589.10469153 0 -80.41342333 0 7757.97939673 0 699.43765156 0 -166.20334616 0 9564
0.09550000 0.09549270 18805.79008823 0 -145.15485668 0 7597.69642266 0 471.94455861 0 -938.18354823 0 10155
0.09650000 0.09649430 18816.30879681 0 -4.40875615 0 7167.12692743 0 854.06488212 0 650.97519306 0 9913
0.09750000 0.09749140 18985.82608978 0 181.33810695 0 6636.28645865 0 906.91641018 0 -116.11325591 0 10476
0.09850000 0.09850240 18434.53503706 0 233.70577441 0 6609.80145769 0 1100.51379516 0 1362.54921986 0 10575
0.09950000 0.09950330 18747.99255268 0 391.66909644 0 6121.76659666 0 283.78811403 0 -124.18830240 0 10882
0.10050000 0.10051200 17874.38612449 0 537.26241718 0 6147.23294374 0 -47.57047201 0 1547.31310411 0 10875
0.10150000 0.10150300 17469.36048262 0 508.71353486 0 6188.45520904 0 221.33688036 0 341.81152501 0 11118
0.10250000 0.10250800 17160.99623642 0 110.10674114 0 5561.00870622 0 573.59625107 0 456.20414164 0 11575
0.10350000 0.10349800 17041.19368188 0 198.48581640 0 5861.40087855 0 -33.05731153 0 296.69844477 0 11364
0.10450000 0.10450100 16672.26381892 0 418.53830707 0 5286.35968909 0 228.27590632 0 135.35806368 0 12093
0.10550000 0.10551000 16246.20075990 0 665.20423769 0 5497.80787615 0 254.99231888 0 -397.09785730 0 12067
0.10650000 0.10649700 15712.29325715 0 484.56479443 0 5766.45569323 0 -441.19781982 0 34.41201047 0 12054
0.10750000 0.10749900 15365.28659733 0 742.01406219 0 6001.17790706 0 106.63578876 0 84.95473736 0 12807
0.10850000 0.10850100 15072.64505238 0 195.59593962 0 5755.77089978 0 -251.82674121 0 -84.29349812 0 12736
0.10950000 0.10950300 14979.63752390 0 -313.19842322 0 5504.51770499 0 985.95952259 0 -231.15360354 0 12933
0.11050000 0.11050200 15317.12198437 0 -394.90110805 0 4982.91155511 0 352.99457308 0 -856.01582575 0 13428
0.11150000 0.11150900 15148.82264713 0 41.60127098 0 4574.30955233 0 860.47465096 0 -1356.31550098 0 13453
0.11250000 0.11250000 15448.21831022 0 303.98846343 0 4508.40707501 0 234.95583988 0 -964.82577621 0 13668
0.11350000 0.11349100 14642.92812616 0 367.37973748 0 3984.99613618 0 -310.30522474 0 -1096.02618192 0 13791
0.11450000 0.11448600 14592.43832499 0 378.02467056 0 4316.80049402 0 81.36032855 0 -1619.29428775 0 14205
0.11550000 0.11549300 14365.67711270 0 149.25050963 0 4252.42599752 0 -314.38759090 0 -693.36005247 0 14776
0.11650000 0.11649800 14250.30348809 0 141.71468535 0 4172.38416141 0 350.75353454 0 -1204.91253141 0 14553
0.11750000 0.11747300 14316.95888350 0 291.19217764 0 4510.82084182 0 -191.07400216 0 -610.64867884 0 14568
0.11850000 0.11849100 14140.68747239 0 180.17772731 0 4314.61924603 0 -246.75229475 0 -982.29126138 0 16015
0.11950000 0.11950300 14125.62911064 0 80.96393932 0 4555.73019128 0 257.52234510 0 -644.75918991 0 15270
0.12050000 0.12050700 14003.27992139 0 35.44527983 0 4418.76553328 0 183.15728992 0 -606.87412331 0 15999
0.12150000 0.12150000 13815.38256922 0 92.08143923 0 4348.23482418 0 963.29447369 0 -386.38095410 0 15670
0.12250000 0.12250700 13923.66990594 0 46.66209848 0 4037.33501560 0 674.03552396 0 -56.32181610 0 16887
0.12350000 0.12352200 13771.64688618 0 136.64577505 0 3807.73928816 0 908.56729381 0 371.65365486 0 16407
0.12450000 0.12449800 13523.51608700 0 319.81413729 0 3955.93128353 0 133.52448669 0 621.51948735 0 16306
0.12550000 0.12549900 13454.86767312 0 354.75064379 0 4081.67967650 0 152.37733415 0 1498.39557306 0 17523
0.12650000 0.12650100 13042.42357363 0 32.94769552 0 4233.94628740 0 91.07031453 0 2267.84464168 0 17154
0.12750000 0.12750600 13211.83014335 0 265.65828937 0 4338.36938277 0 330.72369894 0 2010.82276566 0 18007
0.12850000 0.12850300 12825.40600718 0 174.65485169 0 4410.06268597 0 104.02615252 0 2422.69110427 0 17496
0.12950000 0.12949900 12820.31273777 0 39.98305071 0 4384.19773519 0 386.95892946 0 2160.77526068 0 18405
0.13050000 0.13049000 12790.97107700 0 120.07271926 0 4203.33130928 0 220.66811194 0 2282.65941229 0 18100
0.13150000 0.13148800 12662.75355560 0 -120.80902886 0 3623.71724967 0 356.15682905 0 1563.22403487 0 19059
0.13250000 0.13249300 12848.76861255 0 -81.56261993 0 3544.71621209 0 165.24005390 0 1638.89230268 0 18957
0.13350000 0.13349100 12890.84344686 0 134.26965415 0 3367.74724451 0 -393.03542132 0 440.22013353 0 19468
0.13450000 0.13450700 12571.84976884 0 288.95888972 0 3177.55792110 0 -604.21233642 0 782.77571877 0 19953
0.13550000 0.13551000 12420.04819557 0 516.75425715 0 3482.09114292 0 -470.47415387 0 234.35018372 0 19956
0.13650000 0.13649900 12169.70293142 0 250.71286533 0 3771.37777345 0 -292.68361979 0 337.26855014 0 19723
0.13750000 0.13749600 11826.79303179 0 86.95129897 0 4040.98888279 0 241.41654142 0 113.39278570 0 20946
0.13850000 0.13851100 11899.31675935 0 226.04594010 0 3990.31085209 0 52.58036682 0 -555.26491010 0 20955
0.13950000 0.13949800 11663.69768721 0 218.34181649 0 3857.06649523 0 -30.71197169 0 -294.42418925 0 20506
0.14050000 0.14048300 11571.02232848 0 148.65038962 0 4102.49564716 0 -141.82097967 0 -111.47284458 0 21447
0.14150000 0.14148400 11383.78931579 0 167.28621952 0 3946.57516906 0 213.52978413 0 397.61161317 0 21771
0.14250000 0.14249400 11464.28511723 0 42.18500394 0 4155.95283138 0 353.67109212 0 -43.23742842 0 22470
0.14350000 0.14350900 11217.59372027 0 168.46320765 0 3667.32006481 0 540.26966060 0 273.22954508 0 22519
0.14450000 0.14449900 11123.81112905 0 243.02202851 0 3747.71621532 0 493.47137252 0 155.99244821 0 22218
0.14550000 0.14550500 10980.13664221 0 -30.28336200 0 3177.31432996 0 494.14014094 0 368.28213196 0 23559
0.14650000 0.14650700 10779.20716372 0 47.97826573 0 3129.27151257 0 142.58607732 0 130.69440046 0 23044
0.14750000 0.14750500 10741.40624679 0 186.30515186 0 2929.91430421 0 187.44781578 0 99.75965360 0 23649
0.14850000 0.14849900 10759.65343809 0 177.93447430 0 2909.75160072 0 -159.22999598 0 120.32295380 0 23640
0.14950000 0.14949500 10448.04500072 0 156.50731131 0 2664.34459344 0 -64.50802873 0 130.53938791 0 24457
0.15050000 0.15050000 10578.96416938 0 7.92781779 0 3060.29092895 0 90.15662628 0 -157.41745641 0 24591
0.15150000 0.15149900 10268.20830102 0 49.83088712 0 2862.45062909 0 162.66241668 0 -395.46136769 0 25020
0.15250000 0.15250500 10272.05039773 0 372.84835871 0 3060.42379685 0 32.53159755 0 -446.12721883 0 25297
0.15350000 0.15350100 10132.46159874 0 232.84324031 0 3167.64819039 0 -103.30755864 0 -181.26392237 0 25452
0.15450000 0.15450400 9776.05453515 0 222.77738982 0 3162.13417263 0 -109.93932759 0 230.83693505 0 26061
0.15550000 0.15549900 9890.67524168 0 250.59771316 0 3205.78127707 0 30.65517066 0 403.80657890 0 26128
0.15650000 0.15649500 9641.07182329 0 118.61670855 0 3251.17780882 0 242.94230778 0 303.08274726 0 26331
0.15750000 0.15749700 9544.10040253 0 184.24127052 0 3069.04913788 0 87.00931795 0 619.63940659 0 27345
0.15850000 0.15849900 9457.84699219 0 94.69650090 0 3092.38959860 0 319.54065087 0 515.22516909 0 26980
0.15950000 0.15949700 9371.28355676 0 -85.73411830 0 2777.59233168 0 544.70080499 0 713.44857139 0 27777
0.16050000 0.16050000 9420.23430478 0 -45.53272135 0 2568.48040516 0 239.11903402 0 184.44832299 0 28224
0.16150000 0.16150500 9376.74221289 0 98.58487993 0 2334.40038616 0 181.25063558 0 -13.57998494 0 28075
0.16250000 0.16249700 9219.21624770 0 229.97550818 0 2326.63868647 0 -99.25697005 0 75.33488011 0 28590
0.16350000 0.16349900 9035.95819962 0 182.74318497 0 2227.09848635 0 -84.32472208 0 224.12599898 0 29163
0.16450000 0.16449100 9020.25764303 0 38.38265688 0 2238.06008792 0 41.85958832 0 205.20671756 0 28996
0.16550000 0.16550500 8964.77422337 0 175.95031369 0 2285.01781747 0 29.24488865 0 12.43997838 0 30777
0.16650000 0.16650700 8841.67211603 0 122.14656570 0 2534.59909121 0 46.58990693 0 355.13928240 0 29211
0.16750000 0.16749900 8805.36596295 0 160.18996655 0 2467.16863307 0 -83.10621273 0 187.54525224 0 30922
0.16850000 0.16850800 8643.98682872 0 113.30309987 0 2525.40906161 0 -31.78045103 0 288.98546330 0 30867
0.16950000 0.16949900 8519.37888521 0 106.14949225 0 2813.98706336 0 -11.26287953 0 92.82250993 0 30852
0.17050000 0.17049200 8427.97684383 0 153.99167911 0 2747.11022146 0 37.74799122 0 470.70777992 0 31257
0.17150000 0.17149500 8361.05571263 0 127.69490767 0 2698.95668082 0 256.91115277 0 532.92206585 0 32608
0.17250000 0.17250900 8344.91226304 0 -35.19493456 0 2317.14970410 0 617.85454783 0 744.03697593 0 32361
0.17350000 0.17350400 8265.42404317 0 2.00727962 0 2289.88964039 0 356.13357716 0 510.19833362 0 32508
0.17450000 0.17449800 8301.23194163 0 85.79933430 0 2045.99954161 0 310.53663633 0 730.47116356 0 32791
0.17550000 0.17549800 8133.37549738 0 221.64801268 0 2131.76576966 0 191.35081028 0 752.29139408 0 33633
0.17650000 0.17650100 7952.54228845 0 140.35278940 0 1939.67200638 0 -42.25686333 0 849.34142835 0 33984
0.17750000 0.17750300 7893.51572484 0 234.91155058 0 2046.86318295 0 -59.98133018 0 771.53066569 0 34069
