### header ###
fiducial parameters:
Omega_m = 0.31
Omega_nu = 0
Omega_de = 0.69
Omega_k = 0
H_0 = 100
w_de = -1
zeff = 0
beta = 0
fgrowth = 0
b_1 = 2
gamma = 0.55
Lx = 3500 Ly = 3500 Lz = 3500
nx = 700 ny = 700 nz = 700
xoffset = -685.467585 yoffset = -31.7331281 zoffset = 572.489161
bins = 400 dk = 0.001
kx_ny = 0.628318531 ky_ny = 0.628318531 kz_ny = 0.628318531
############################
A(data) = 8.03457656 (not used)
A(ran) = 8.03211201 (used)
Ngal = 476919
weighted Ngal = 0
Nran = 23820508
weighted Nran = 0
SN(data) = 3488.74154
SN(ran) = 69.9626086
SN(data+ran) = 3558.70415
############################
13 columns: k_central k_mean P_0(k) sigma^{lin}_{P_0(k)} P^img_1(k) sigma^{lin}_{P_1(k)} P_2(k) sigma^{lin}_{P_2(k)} P^img_3(k) sigma^{lin}_{P_3(k)} P_4(k) sigma^{lin}_{P_4(k)} N_modes
### header ###
0.00050000 0 0 0 0 0 0 0 0 0 0 0 0
0.00150000 0.00179520 14354.05117164 0 -25652.47286309 0 -4380.17848128 0 -14981.63054237 0 39410.72223624 0 3
0.00250000 0.00253879 25002.30594974 0 -23519.38948678 0 -8419.21863490 0 -5000.45011762 0 -44661.99372798 0 6
0.00350000 0.00331552 34316.56703368 0 -10578.96416938 0 -14830.82547834 0 4974.52980522 0 -12298.25262257 0 7
0.00450000 0.00420575 46574.95928690 0 -8280.64848980 0 -19400.48465424 0 161.13775755 0 -5518.63491914 0 24
0.00550000 0.00557378 42486.61407086 0 450.00253251 0 -24418.68370855 0 -9922.81820062 0 -3538.16139580 0 45
0.00650000 0.00659388 50292.93523775 0 -2033.96392454 0 -19017.38221551 0 8489.43931890 0 6607.48734180 0 40
0.00750000 0.00754703 52032.84035975 0 -11605.23581217 0 -2212.59374083 0 -22907.42209405 0 -16643.69722089 0 57
0.00850000 0.00846663 53957.98547597 0 -6005.99436835 0 -9110.48601798 0 -7821.84456629 0 2105.65722774 0 75
0.00950000 0.00948925 61916.21893937 0 -11422.43172941 0 -8616.48317387 0 -16584.79245286 0 -2215.43932831 0 112
0.01050000 0.01054430 64584.42777417 0 -6075.30712172 0 -15418.21230996 0 -7721.31892926 0 -6044.17174433 0 105
0.01150000 0.01145670 87330.63681886 0 -10928.57282553 0 -12981.85795687 0 -26640.34568341 0 -43016.42481343 0 144
0.01250000 0.01249090 73767.92470200 0 4658.90211394 0 -12866.15216252 0 -34221.89865648 0 -45126.03486113 0 169
0.01350000 0.01339930 82378.87171347 0 14237.79176105 0 -2264.55616121 0 -52304.55521080 0 -58589.98184060 0 180
0.01450000 0.01448870 65358.82617199 0 13454.09261039 0 10824.74763570 0 -37785.30495286 0 -37359.57406359 0 267
0.01550000 0.01550050 66911.83045105 0 -1175.69266622 0 27188.97937817 0 -10966.80556312 0 -29818.65652260 0 238
0.01650000 0.01653350 71580.25476434 0 -11139.97672329 0 33593.87639277 0 10346.36784191 0 -52150.87134232 0 315
0.01750000 0.01747870 81586.20397970 0 -2313.91658525 0 38417.31325351 0 16501.08567723 0 -47542.34830630 0 297
0.01850000 0.01844180 77906.87044246 0 8711.95983078 0 43761.26010398 0 10246.84978644 0 -37708.46301862 0 388
0.01950000 0.01947590 72677.63287711 0 9028.66153757 0 32082.39333177 0 16018.33231514 0 14262.48304539 0 399
0.02050000 0.02045430 71143.45155024 0 -6999.30370016 0 17214.03267230 0 23138.05862002 0 7437.54631648 0 462
0.02150000 0.02154770 81783.84497771 0 -12733.94860418 0 17924.98664891 0 18329.01578154 0 -12117.88445127 0 571
0.02250000 0.02255340 86122.20328815 0 2614.91773545 0 14962.91831342 0 729.90315330 0 -3078.03986563 0 510
0.02350000 0.02348930 80760.76216447 0 7666.06802841 0 4221.83316405 0 -9054.09466768 0 2253.21810059 0 555
0.02450000 0.02439640 80118.23515524 0 -4793.69659628 0 2583.48340529 0 -7596.98779387 0 7829.94950805 0 592
0.02550000 0.02547300 81470.94107834 0 -5367.58626396 0 9045.33645875 0 1960.59870029 0 -12629.64730439 0 837
0.02650000 0.02652900 83736.33873623 0 9019.60437587 0 18516.91313371 0 -7729.10277360 0 -25376.55052861 0 723
0.02750000 0.02749970 74839.83646770 0 16553.56849687 0 14765.05586891 0 -13304.61622533 0 -13373.04319271 0 826
0.02850000 0.02848090 62709.10811964 0 13023.26845169 0 22424.66873196 0 -11922.67936472 0 169.74095393 0 831
0.02950000 0.02946900 54759.95396259 0 1721.18182073 0 21110.82666898 0 7114.90984359 0 1708.37114092 0 996
0.03050000 0.03053250 57094.11075761 0 -2172.83302241 0 23660.00801197 0 9434.73905029 0 -2579.88489972 0 1041
0.03150000 0.03150510 56005.47978144 0 -797.34136207 0 19394.72704533 0 14464.22080359 0 -2356.95471182 0 1036
0.03250000 0.03246190 54165.03795008 0 2665.86150194 0 16443.50958817 0 8642.53635417 0 1154.35629629 0 1059
0.03350000 0.03345080 52489.02014228 0 2421.79424596 0 15830.65640946 0 5243.29941787 0 6645.67579010 0 1302
0.03450000 0.03451200 50098.28376744 0 858.07970710 0 17404.36593593 0 1395.13507180 0 6768.97719928 0 1339
0.03550000 0.03553350 51125.79551061 0 -579.80118190 0 18840.33574166 0 -4941.48998796 0 5629.75677102 0 1365
0.03650000 0.03647120 53638.32745846 0 -712.74769323 0 20102.58077099 0 -6790.36893083 0 7209.74430566 0 1308
0.03750000 0.03744890 54444.83559825 0 589.30455829 0 22674.90327286 0 -4213.18567837 0 -368.04075527 0 1579
0.03850000 0.03847530 51575.77479124 0 1436.03623968 0 22039.79472126 0 -4052.72554710 0 -1743.54791687 0 1662
0.03950000 0.03950240 51370.60461235 0 2596.77019507 0 23851.44850809 0 2058.12373729 0 -5045.70270916 0 1683
0.04050000 0.04050350 48962.26324105 0 2473.69023238 0 21696.22048214 0 2568.58005608 0 -8166.92464158 0 1822
0.04150000 0.04152450 45270.52870001 0 933.69704221 0 16560.54406150 0 5841.22710273 0 -10447.61318005 0 1887
0.04250000 0.04250150 45675.11144889 0 1494.22130660 0 15614.63535225 0 5161.80710720 0 -7133.87673600 0 1920
0.04350000 0.04349210 42863.29456119 0 2867.32245201 0 13235.08202547 0 2370.96120272 0 -5355.27383876 0 2005
0.04450000 0.04448520 41952.48512161 0 2008.24291398 0 11444.02276281 0 3016.61060754 0 -4010.89430393 0 2151
0.04550000 0.04548030 39669.15029751 0 182.47523471 0 10476.27942901 0 3717.41126229 0 -1080.33559042 0 2274
0.04650000 0.04648670 39259.58500247 0 -184.48043273 0 8478.26734316 0 2517.62521726 0 -2713.93753630 0 2311
0.04750000 0.04749250 38344.12518646 0 1621.01049810 0 8633.43490317 0 2206.81398728 0 -509.44541553 0 2568
0.04850000 0.04851840 37345.51221107 0 1186.95322056 0 7564.15835078 0 1565.13954706 0 -1619.96969957 0 2493
0.04950000 0.04949480 36934.17534405 0 -105.78045166 0 6903.94883882 0 1692.22769133 0 4035.38628643 0 2644
0.05050000 0.05050630 37340.97255789 0 -474.68717346 0 5973.40851641 0 1367.40997045 0 1729.81823409 0 2829
0.05150000 0.05149060 38622.26198591 0 -1292.62748863 0 6822.32366026 0 -1817.03493669 0 2332.11948725 0 2784
0.05250000 0.05249300 39797.25709566 0 -540.02274775 0 9324.66906927 0 -2326.46152927 0 -86.21510009 0 3055
0.05350000 0.05348950 39624.97172148 0 1359.89186190 0 9554.24265206 0 -2807.76441681 0 2149.22682590 0 3009
0.05450000 0.05448610 38837.72942688 0 1361.13196228 0 13256.00871938 0 -1881.06619112 0 80.26195393 0 3336
0.05550000 0.05550870 38059.34499213 0 1616.51513422 0 15252.68105393 0 -1946.06073780 0 -19.43137644 0 3349
0.05650000 0.05647670 36207.27721971 0 1690.55577029 0 14399.66914990 0 1532.71978000 0 466.35635627 0 3324
0.05750000 0.05747970 35492.89082241 0 786.38308220 0 16384.38337364 0 -110.47412088 0 -424.98461458 0 3639
0.05850000 0.05849280 34067.88261825 0 1050.06717606 0 13884.69532258 0 1705.04944347 0 1666.71705495 0 3846
0.05950000 0.05951020 33419.48727687 0 1035.06306870 0 14746.34363997 0 2828.87934024 0 678.47774068 0 3787
0.06050000 0.06049470 32946.80973036 0 300.30580820 0 10727.92015516 0 3977.82126970 0 3001.20900372 0 3930
0.06150000 0.06148310 32670.44450289 0 -159.40826041 0 11540.79488172 0 3723.21316049 0 670.64407087 0 4083
0.06250000 0.06249100 32592.82750591 0 -140.74696416 0 8092.54076345 0 1193.26444571 0 -2275.92743880 0 4303
0.06350000 0.06350600 32033.34293283 0 183.82938003 0 8668.62275144 0 114.03387331 0 -1435.03973045 0 4470
0.06450000 0.06451750 31807.02461353 0 1200.88220518 0 8490.77907020 0 -2131.43359991 0 -3130.29016645 0 4479
0.06550000 0.06550280 31087.43422357 0 1079.40440790 0 8598.40206744 0 -1598.42295547 0 -1619.40501100 0 4636
0.06650000 0.06648880 29957.72492232 0 562.17404078 0 8016.13064988 0 -1398.54534784 0 -2864.56544313 0 4653
0.06750000 0.06749660 29898.26653805 0 452.48494774 0 9139.50658133 0 281.96782383 0 -961.72552526 0 5220
0.06850000 0.06852730 31041.37335232 0 -568.97134099 0 9923.52682941 0 1514.79368611 0 -2050.90458151 0 5029
0.06950000 0.06949320 31015.24266575 0 -106.88524823 0 11025.00170237 0 1730.63758613 0 -774.01086645 0 5040
0.07050000 0.07048030 30521.97059508 0 662.33318386 0 11568.25424727 0 1420.66785283 0 2074.51077802 0 5475
0.07150000 0.07148790 30424.42341343 0 759.06101348 0 11683.40642539 0 1262.65470534 0 3167.45996087 0 5509
0.07250000 0.07249820 29926.39024309 0 454.89428562 0 12303.78878498 0 791.64243649 0 1725.31179789 0 5916
0.07350000 0.07351270 29102.38783008 0 1016.06628101 0 11346.91847415 0 60.11674471 0 1508.21672517 0 5721
0.07450000 0.07449140 28230.55297386 0 751.28491976 0 12097.17920386 0 -325.99249454 0 2387.42574972 0 6028
0.07550000 0.07549160 27799.95026166 0 169.55161718 0 11072.76771164 0 196.18166560 0 397.11446578 0 6183
0.07650000 0.07648840 27653.57412756 0 222.11747926 0 10035.10264661 0 336.80572696 0 -1736.92666663 0 6330
0.07750000 0.07749960 26931.54782614 0 419.71640244 0 9779.32087097 0 523.21717314 0 -1617.36770323 0 6583
0.07850000 0.07848650 26628.60901910 0 722.75818209 0 8896.10366484 0 401.62200922 0 -1737.03738987 0 6549
0.07950000 0.07947320 25710.82401488 0 590.83807528 0 8520.79614279 0 1007.08330388 0 -1376.51142145 0 6828
0.08050000 0.08048110 25378.32210058 0 658.25413940 0 7862.14782863 0 1222.32929835 0 -886.34513790 0 7147
0.08150000 0.08149960 24613.66734860 0 521.73458885 0 7037.79110123 0 719.31468908 0 -680.04890357 0 7386
0.08250000 0.08250610 24294.23077758 0 567.22080644 0 8227.76706646 0 232.86870666 0 -47.59627053 0 7227
0.08350000 0.08350160 23898.06299557 0 685.48873675 0 8449.53466026 0 225.34174024 0 330.78791842 0 7798
0.08450000 0.08449610 22860.69688331 0 1101.47155126 0 7756.39605428 0 45.36054670 0 585.02621198 0 7371
0.08550000 0.08548940 22189.93544580 0 1090.32061294 0 8608.89863137 0 899.39276546 0 2608.63972727 0 8256
0.08650000 0.08650700 21047.49297101 0 419.25025756 0 8114.19823080 0 1831.42895895 0 3322.18462789 0 8037
0.08750000 0.08749060 21143.71147369 0 227.10002543 0 7316.41508296 0 2167.15291978 0 2837.83685102 0 8155
0.08850000 0.08849210 20740.45740379 0 111.24254022 0 5711.61446840 0 1557.35570272 0 2176.42045565 0 8718
0.08950000 0.08949900 20030.83210616 0 320.35335951 0 5876.12707055 0 56.71266917 0 1799.70674835 0 8571
0.09050000 0.09049190 20319.04472119 0 481.63284282 0 5996.90398968 0 -1946.80258356 0 1404.43582465 0 8932
0.09150000 0.09150830 20015.88446766 0 84.88143857 0 6397.99895623 0 -975.15846973 0 1590.39551998 0 9285
0.09250000 0.09250820 20400.09413887 0 -479.91109631 0 6468.62931625 0 -694.08307528 0 654.01011730 0 9204
0.09350000 0.09350330 20721.52372835 0 -172.13368333 0 7431.15758506 0 74.66323289 0 -478.16499069 0 9349
0.09450000 0.09448040 20517.01788895 0 530.59577040 0 7207.19767095 0 240.60494001 0 461.64286759 0 9564
0.09550000 0.09549270 20098.48401081 0 1041.19935111 0 7975.98240009 0 633.50527896 0 769.26858973 0 10155
0.09650000 0.09649430 19237.38930966 0 716.19561517 0 7489.33157966 0 442.18214949 0 2323.10661485 0 9913
0.09750000 0.09749140 18833.47090028 0 688.02872807 0 7266.85535708 0 1943.04906545 0 1972.20249670 0 10476
0.09850000 0.09850240 18042.35329198 0 81.50759047 0 6630.84994717 0 381.03745015 0 1847.95993991 0 10575
0.09950000 0.09950330 18081.88149159 0 466.76160336 0 6746.31215038 0 664.43249665 0 2031.17369868 0 10882
0.10050000 0.10051200 17593.37052059 0 191.84242151 0 6374.73600179 0 91.28533907 0 745.97131108 0 10875
0.10150000 0.10150300 17536.23732452 0 -67.31530597 0 5207.21471129 0 289.43278522 0 1526.76286924 0 11118
0.10250000 0.10250800 17527.49018792 0 -355.22343206 0 4745.95273167 0 853.70281710 0 1419.20630595 0 11575
0.10350000 0.10349800 17651.94311888 0 -63.79563535 0 4292.20886060 0 622.35876957 0 68.41932748 0 11364
0.10450000 0.10450100 17731.44241108 0 530.57362575 0 3936.90902949 0 431.03010394 0 507.24645182 0 12093
0.10550000 0.10551000 17087.03310663 0 472.98535714 0 4164.41208754 0 -210.75284506 0 -142.49528425 0 12067
0.10650000 0.10649700 16927.59162924 0 289.84578294 0 3974.13418553 0 -818.18612078 0 50.14069077 0 12054
0.10750000 0.10749900 16436.53402354 0 509.83294690 0 4910.81964822 0 -624.08162331 0 -412.85156105 0 12807
0.10850000 0.10850100 16421.91855478 0 467.97180846 0 5345.47483130 0 -405.44639021 0 -227.84408565 0 12736
0.10950000 0.10950300 15920.89585673 0 79.79337315 0 5447.57273845 0 -166.73038882 0 324.22313704 0 12933
0.11050000 0.11050200 15854.46190782 0 181.74999743 0 5867.34671697 0 659.54185077 0 465.54032593 0 13428
0.11150000 0.11150900 15579.09318958 0 539.88434369 0 6019.43617068 0 576.20599803 0 -252.53869170 0 13453
0.11250000 0.11250000 14964.57916215 0 507.82996334 0 5124.36050467 0 212.23542936 0 513.35173173 0 13668
0.11350000 0.11349100 14990.70984872 0 476.81970322 0 6195.47506297 0 -152.30757851 0 928.73774793 0 13791
0.11450000 0.11448600 14642.48523317 0 271.08151407 0 5777.37300550 0 -637.28315619 0 959.57085085 0 14205
0.11550000 0.11549300 14619.45479755 0 -265.99378082 0 5912.23392179 0 275.81271846 0 1182.96718362 0 14776
0.11650000 0.11649800 14778.01048895 0 -209.87813140 0 5781.83515240 0 325.52192074 0 387.73509943 0 14553
0.11750000 0.11747300 14969.22953857 0 -110.59624862 0 5189.72043807 0 1108.40614830 0 -566.55757418 0 14568
0.11850000 0.11849100 14826.17510191 0 10.82858973 0 4830.65601653 0 601.39553699 0 -768.24550691 0 16015
0.11950000 0.11950300 14694.85732956 0 306.10992087 0 3845.98309808 0 82.51085383 0 -900.46013757 0 15270
0.12050000 0.12050700 14392.69358526 0 281.86595844 0 4084.52526397 0 302.01758961 0 -783.21086114 0 15999
0.12150000 0.12150000 14283.74190905 0 173.53433242 0 3661.19706918 0 -106.29132873 0 -601.14087352 0 15670
0.12250000 0.12250700 14341.42872135 0 148.26285825 0 4201.75903915 0 -67.96912675 0 -773.03428740 0 16887
0.12350000 0.12352200 13996.08291026 0 194.68247282 0 4413.59475758 0 -163.32343447 0 -649.11172080 0 16407
0.12450000 0.12449800 13832.21250294 0 361.56787419 0 4393.98567033 0 -329.55999760 0 -220.70907954 0 16306
0.12550000 0.12549900 13774.96858363 0 239.37591195 0 4734.30464596 0 416.07360757 0 341.19368929 0 17523
0.12650000 0.12650100 13102.32485090 0 330.22655155 0 4547.22664582 0 526.15908985 0 -162.85507513 0 17154
0.12750000 0.12750600 13114.83657794 0 247.85952723 0 4298.87440014 0 319.39117449 0 -96.59750835 0 18007
0.12850000 0.12850300 13057.81410513 0 -66.81738352 0 4221.03595666 0 133.98952433 0 -96.31217454 0 17496
0.12950000 0.12949900 13086.60214965 0 -139.93646999 0 4053.55597146 0 224.31976466 0 -217.50474874 0 18405
0.13050000 0.13049000 13039.10187618 0 84.97887503 0 4170.92261453 0 -217.47706793 0 59.00275811 0 18100
0.13150000 0.13148800 13424.97239611 0 180.97272023 0 4014.86926854 0 99.06209713 0 -764.70457744 0 19059
0.13250000 0.13249300 12763.51171145 0 239.00056014 0 4115.99281111 0 -32.68594576 0 -387.59890983 0 18957
0.13350000 0.13349100 12684.45531224 0 437.10991749 0 4006.79754375 0 -18.89846545 0 -435.31841534 0 19468
0.13450000 0.13450700 12407.31502203 0 310.15685559 0 4226.33960025 0 -125.29332042 0 -461.08482242 0 19953
0.13550000 0.13551000 12195.28000175 0 320.27806770 0 4072.64465944 0 140.99498424 0 -471.26361063 0 19956
0.13650000 0.13649900 11843.29079577 0 120.09486391 0 3838.26568768 0 418.09873578 0 -36.92996786 0 19723
0.13750000 0.13749600 11877.94717245 0 59.17305047 0 3565.34395323 0 527.36375879 0 -165.81249309 0 20946
0.13850000 0.13851100 11835.65089164 0 -29.27976647 0 3552.92080478 0 378.14535890 0 -281.73973394 0 20955
0.13950000 0.13949800 11779.29275832 0 132.37407214 0 3535.03900020 0 435.64837062 0 -253.61049274 0 20506
0.14050000 0.14048300 11726.80993868 0 260.73664099 0 3484.46062043 0 102.47193029 0 428.75917011 0 21447
0.14150000 0.14148400 11370.50252601 0 293.86835855 0 3392.12850377 0 57.26794626 0 935.00911271 0 21771
0.14250000 0.14249400 11270.18726316 0 239.75015653 0 3646.49302182 0 251.84445693 0 823.80421839 0 22470
0.14350000 0.14350900 10956.79618149 0 169.27813076 0 3474.81662551 0 302.85022844 0 1108.17362947 0 22519
0.14450000 0.14449900 10946.75358288 0 135.14547504 0 3586.39244271 0 137.84490783 0 1010.69398900 0 22218
0.14550000 0.14550500 10770.22750829 0 123.73544431 0 3307.72417167 0 -27.18333249 0 1069.22561969 0 23559
0.14650000 0.14650700 10729.07167694 0 163.11527476 0 3207.90716343 0 213.51871180 0 628.15070268 0 23044
0.14750000 0.14750500 10443.30604570 0 145.12939033 0 3066.53572015 0 -15.11106602 0 628.65006453 0 23649
0.14850000 0.14849900 10489.52192949 0 142.15314942 0 3184.72171526 0 -194.13771444 0 152.28321939 0 23640
0.14950000 0.14949500 10235.99890812 0 147.99822969 0 3168.85507380 0 63.96127733 0 286.89168668 0 24457
0.15050000 0.15050000 10221.08448659 0 -44.96083577 0 3021.75923858 0 311.52871663 0 278.29291922 0 24591
0.15150000 0.15149900 10295.75624517 0 -135.04028795 0 2861.09980546 0 311.70476660 0 185.09162506 0 25020
0.15250000 0.15250500 10371.05912626 0 -24.17243520 0 2759.62194850 0 290.90208273 0 -228.69554743 0 25297
0.15350000 0.15350100 10308.98767332 0 189.57591661 0 2424.87235226 0 200.20091951 0 68.37038780 0 25452
0.15450000 0.15450400 10177.64775633 0 271.22213260 0 2225.13868485 0 -128.01157616 0 417.10554824 0 26061
0.15550000 0.15549900 9991.63269937 0 188.25277380 0 2215.76042573 0 171.47488000 0 302.56899139 0 26128
0.15650000 0.15649500 9803.38103281 0 136.89268790 0 2408.86177057 0 291.19107041 0 361.71845780 0 26331
0.15750000 0.15749700 9680.02426200 0 188.14647948 0 2290.66470313 0 85.83277272 0 220.60167799 0 27345
0.15850000 0.15849900 9429.08109231 0 373.33221931 0 2503.12047175 0 -84.98230745 0 313.67342595 0 26980
0.15950000 0.15949700 9181.99109166 0 262.31776898 0 2519.75110363 0 -156.67007449 0 808.40704350 0 27777
0.16050000 0.16050000 9043.52059748 0 34.30859496 0 2425.58098105 0 358.64035150 0 638.23316166 0 28224
0.16150000 0.16150500 9097.29887912 0 -2.07841931 0 2647.78039551 0 243.07739014 0 822.42792841 0 28075
0.16250000 0.16249700 9069.20839106 0 1.90736296 0 2276.42569341 0 173.87314556 0 371.26612349 0 28590
0.16350000 0.16349900 9168.33891516 0 -110.48286801 0 2355.96927491 0 85.54256708 0 355.24446948 0 29163
0.16450000 0.16449100 9128.05779747 0 35.68366698 0 2013.05937528 0 36.59370136 0 557.69528540 0 28996
0.16550000 0.16550500 9194.05992571 0 82.08025111 0 2255.63186740 0 -46.30512673 0 268.65113877 0 30777
0.16650000 0.16650700 9122.59914133 0 220.03366773 0 2013.44690665 0 -44.87004271 0 370.51209817 0 29211
0.16750000 0.16749900 8810.07170100 0 357.91289976 0 2151.48558016 0 -60.70546022 0 472.93442444 0 30922
0.16850000 0.16850800 8587.48475517 0 292.18536517 0 2171.15002904 0 -172.74487566 0 237.26552684 0 30867
0.16950000 0.16949900 8390.90670034 0 283.54895182 0 2353.33406160 0 -95.98332649 0 260.17748859 0 30852
0.17050000 0.17049200 8247.02183932 0 10.42071850 0 2242.98727246 0 2.95519242 0 356.08153724 0 31257
0.17150000 0.17149500 8171.25392059 0 -40.57630587 0 2190.62624839 0 252.94393878 0 290.01629674 0 32608
0.17250000 0.17250900 8230.07011002 0 0.40444434 0 2077.78818617 0 281.51828744 0 63.41995137 0 32361
0.17350000 0.17350400 8215.28855639 0 38.83130748 0 1913.23129471 0 240.53296990 0 -49.30705544 0 32508
0.17450000 0.17449800 8105.16321375 0 129.38232997 0 1583.23172582 0 129.82190127 0 -207.16541182 0 32791
0.17550000 0.17549800 8025.88536804 0 86.88309345 0 1540.26003320 0 38.55660310 0 -61.67594949 0 33633
0.17650000 0.17650100 8000.75119071 0 99.37621899 0 1430.77688539 0 85.91869396 0 -337.01388667 0 33984
0.17750000 0.17750300 7913.78915158 0 96.32789724 0 1475.23226954 0 -110.75425070 0 -505.03641579 0 34069
