### header ###
fiducial parameters:
Omega_m = 0.31
Omega_nu = 0
Omega_de = 0.69
Omega_k = 0
H_0 = 100
w_de = -1
zeff = 0
beta = 0
fgrowth = 0
b_1 = 2
gamma = 0.55
Lx = 3500 Ly = 3500 Lz = 3500
nx = 700 ny = 700 nz = 700
xoffset = -685.467585 yoffset = -31.7331281 zoffset = 572.489161
bins = 400 dk = 0.001
kx_ny = 0.628318531 ky_ny = 0.628318531 kz_ny = 0.628318531
############################
A(data) = 8.07893567 (not used)
A(ran) = 8.07371201 (used)
Ngal = 479637
weighted Ngal = 0
Nran = 23820508
weighted Nran = 0
SN(data) = 3494.03806
SN(ran) = 70.3249597
SN(data+ran) = 3564.36302
############################
13 columns: k_central k_mean P_0(k) sigma^{lin}_{P_0(k)} P^img_1(k) sigma^{lin}_{P_1(k)} P_2(k) sigma^{lin}_{P_2(k)} P^img_3(k) sigma^{lin}_{P_3(k)} P_4(k) sigma^{lin}_{P_4(k)} N_modes
### header ###
0.00050000 0 0 0 0 0 0 0 0 0 0 0 0
0.00150000 0.00179520 18821.84495922 0 -26831.45400978 0 6149.30346848 0 -39629.84354440 0 -8612.92895760 0 3
0.00250000 0.00253879 28153.48959312 0 -18375.40882253 0 7940.10806767 0 -8941.83236634 0 18296.02025358 0 6
0.00350000 0.00331552 38432.92523151 0 -3868.62600234 0 15057.14379763 0 -14034.83604712 0 -8990.28485975 0 7
0.00450000 0.00420575 46516.49741186 0 -1921.83449110 0 4622.07556159 0 17062.34182229 0 55537.45261135 0 24
0.00550000 0.00557378 46395.25545509 0 -9526.53969536 0 -17970.71535041 0 34645.74725054 0 14275.32694218 0 45
0.00650000 0.00659388 69064.17967255 0 -20236.66662454 0 -42555.59465448 0 33326.36902515 0 7162.77550378 0 40
0.00750000 0.00754703 72299.95587755 0 -19333.82925883 0 -33847.87552411 0 22930.12035993 0 -8962.27187796 0 57
0.00850000 0.00846663 69766.27578930 0 531.02537660 0 -52959.37250058 0 -15117.59869114 0 -2278.55157978 0 75
0.00950000 0.00948925 60567.60977646 0 10048.40050872 0 -31751.22009645 0 -36356.08926527 0 26389.00391002 0 112
0.01050000 0.01054430 59920.87528381 0 5741.41009449 0 -29776.47096504 0 -24790.27092946 0 39954.37338484 0 105
0.01150000 0.01145670 59609.18934016 0 -2446.62947053 0 -11987.78463465 0 -5288.67380498 0 41072.67819152 0 144
0.01250000 0.01249090 62366.41966650 0 752.17734914 0 1900.74171232 0 -8638.52817258 0 33378.96256804 0 169
0.01350000 0.01339930 68536.91556468 0 131.05425102 0 15031.45600405 0 910.04987810 0 16971.65948202 0 180
0.01450000 0.01448870 67042.15171417 0 -906.74589637 0 6731.02126980 0 8698.97199377 0 6260.82392405 0 267
0.01550000 0.01550050 70928.09483252 0 -1446.13419991 0 18250.62372182 0 -7992.41373012 0 10578.83130148 0 238
0.01650000 0.01653350 74778.38506495 0 -2718.70970830 0 9925.12124419 0 -3722.72597820 0 -5831.17343179 0 315
0.01750000 0.01747870 70744.84785677 0 909.73210238 0 19820.67938111 0 -6682.41376385 0 5863.42711399 0 297
0.01850000 0.01844180 72353.87809942 0 7732.25838618 0 21207.70951114 0 -16090.63459620 0 -14990.70984872 0 388
0.01950000 0.01947590 64321.46005973 0 6918.32071643 0 23824.65348203 0 10699.49749735 0 13190.57127970 0 399
0.02050000 0.02045430 64126.91931266 0 2241.28213444 0 19162.98328688 0 2398.33198967 0 -11382.23919032 0 462
0.02150000 0.02154770 64996.09681093 0 -8063.95202077 0 28561.28331619 0 7290.99302518 0 6582.16493494 0 571
0.02250000 0.02255340 73590.54605841 0 -2245.07994185 0 27043.82119980 0 10559.05612935 0 309.24338879 0 510
0.02350000 0.02348930 72212.59523473 0 -2354.71810221 0 18005.70389683 0 4036.71496541 0 10156.28924175 0 555
0.02450000 0.02439640 79445.92359225 0 -34.70354479 0 33419.48727687 0 4154.66844170 0 24346.82432047 0 592
0.02550000 0.02547300 78350.31705145 0 -1420.49069563 0 25005.73837043 0 2498.45902300 0 14402.99084734 0 837
0.02650000 0.02652900 74549.85228070 0 10536.88933507 0 32019.61325005 0 151.67977769 0 15096.11838099 0 723
0.02750000 0.02749970 67568.86220579 0 7306.46106295 0 23169.17185276 0 -900.37266621 0 7150.79524833 0 826
0.02850000 0.02848090 62687.95997923 0 102.57922111 0 31445.95610120 0 3037.74767562 0 11588.95949468 0 831
0.02950000 0.02946900 61222.31634299 0 2082.44963492 0 30419.44086726 0 10047.43721646 0 4864.84735557 0 996
0.03050000 0.03053250 60258.24902103 0 2029.21389719 0 26709.87988327 0 8668.44559424 0 3039.29780109 0 1041
0.03150000 0.03150510 55211.48336869 0 3150.84040132 0 20890.15523534 0 6030.40884458 0 2236.04492480 0 1036
0.03250000 0.03246190 55588.93892176 0 1928.33394577 0 18535.84680915 0 3797.02127773 0 -4390.23215222 0 1059
0.03350000 0.03345080 52491.34533049 0 469.37135032 0 14007.26595832 0 1480.38090058 0 1220.32520756 0 1302
0.03450000 0.03451200 54456.12936956 0 -462.67259380 0 18145.54735929 0 -4378.19653514 0 -10642.91791753 0 1339
0.03550000 0.03553350 52480.82662192 0 2035.02686772 0 15059.13681610 0 -5029.13851123 0 -4891.04447609 0 1365
0.03650000 0.03647120 52647.13294069 0 2347.57645270 0 16760.17807798 0 -2222.01628926 0 -15386.87763073 0 1308
0.03750000 0.03744890 48595.65856630 0 2451.89989714 0 18276.31151540 0 -550.78394024 0 -6282.39281280 0 1579
0.03850000 0.03847530 47206.96758755 0 2299.91009435 0 21597.89823775 0 240.20522908 0 -7045.63030720 0 1662
0.03950000 0.03950240 45862.89807781 0 1631.38526645 0 20197.35987144 0 7278.65845533 0 -4382.65868204 0 1683
0.04050000 0.04050350 43947.82877718 0 109.12163640 0 16962.46945242 0 5946.74635825 0 -2410.97658461 0 1822
0.04150000 0.04152450 43193.13911754 0 634.21280052 0 17017.49890677 0 4502.14013916 0 -2920.27030929 0 1887
0.04250000 0.04250150 43422.00407154 0 1154.46701954 0 12436.76740605 0 3367.10504968 0 -2540.60029126 0 1920
0.04350000 0.04349210 42515.06994565 0 486.99074080 0 12026.20560177 0 -1327.58281808 0 2833.47435504 0 2005
0.04450000 0.04448520 42741.38826494 0 1324.44935016 0 11753.93713448 0 -4228.01152130 0 2248.88882159 0 2151
0.04550000 0.04548030 42197.51566985 0 584.98967331 0 15616.07475447 0 -457.72437184 0 -1093.22709820 0 2274
0.04650000 0.04648670 41315.49427479 0 100.31559503 0 13684.61841311 0 -439.34099094 0 -4899.33764738 0 2311
0.04750000 0.04749250 41229.01941796 0 1322.92136933 0 15742.07781091 0 -395.22552717 0 -8297.66665304 0 2568
0.04850000 0.04851840 38788.56830468 0 1890.74340301 0 13410.24620410 0 845.33989016 0 -5405.49790414 0 2493
0.04950000 0.04949480 37927.36288029 0 1455.40173579 0 14328.47410131 0 1949.89176219 0 -3693.99329530 0 2644
0.05050000 0.05050630 36397.94265309 0 1191.21606561 0 12012.58664225 0 1723.28556245 0 -5912.54394688 0 2829
0.05150000 0.05149060 35868.79625000 0 1865.59815334 0 11707.76553999 0 1257.72752080 0 -4558.32111529 0 2784
0.05250000 0.05249300 33196.26920853 0 1224.77628214 0 11759.36257364 0 -613.80429141 0 -4288.25604064 0 3055
0.05350000 0.05348950 32778.62111637 0 1405.21088738 0 11952.90681147 0 371.55289671 0 860.38053620 0 3009
0.05450000 0.05448610 32379.24236016 0 221.05785777 0 13404.26714870 0 1361.88488037 0 -2120.78202344 0 3336
0.05550000 0.05550870 31872.35132996 0 99.31211023 0 12398.67860867 0 1363.98862208 0 -3112.48586815 0 3349
0.05650000 0.05647670 31645.70084092 0 318.21307913 0 11893.44842720 0 583.50044562 0 -1751.67500328 0 3324
0.05750000 0.05747970 32263.97945880 0 -160.90080980 0 12250.97379559 0 -349.43592788 0 -1811.27732778 0 3639
0.05850000 0.05849280 32779.28545586 0 -1365.42802431 0 11005.61406161 0 2476.73512171 0 -2715.81983152 0 3846
0.05950000 0.05951020 32949.24564182 0 -249.10294930 0 9735.02049938 0 1351.68726921 0 -4185.88132536 0 3787
0.06050000 0.06049470 34022.37536325 0 118.91566132 0 7835.79569556 0 1644.76063484 0 -5502.08179353 0 3930
0.06150000 0.06148310 32641.21356537 0 364.71130720 0 6974.92244091 0 -872.63317084 0 -5303.12318887 0 4083
0.06250000 0.06249100 33285.51214657 0 1132.03448946 0 8532.24492665 0 590.51476339 0 -2776.17507410 0 4303
0.06350000 0.06350600 31649.57615461 0 145.01977431 0 8383.45502574 0 -251.33955892 0 -726.52830870 0 4470
0.06450000 0.06451750 32303.28621190 0 195.27373497 0 8700.24531112 0 1953.30203823 0 -1051.01607430 0 4479
0.06550000 0.06550280 31826.84407496 0 310.35394297 0 9144.32304263 0 1575.30394125 0 1236.69010364 0 4636
0.06650000 0.06648880 31284.85377509 0 921.06462683 0 10191.03419703 0 -490.88155574 0 536.38106012 0 4653
0.06750000 0.06749660 31197.60385551 0 410.47544014 0 8827.02343030 0 943.06312178 0 2903.51788184 0 5220
0.06850000 0.06852730 30952.35186078 0 -550.35765574 0 9048.30384180 0 452.68646405 0 2818.23883609 0 5029
0.06950000 0.06949320 31041.37335232 0 -289.33645600 0 9123.67315684 0 784.82852780 0 2102.49054284 0 5040
0.07050000 0.07048030 30840.96427311 0 557.68753477 0 8992.66540958 0 584.21350334 0 -997.24554328 0 5475
0.07150000 0.07148790 30705.66046382 0 1417.81119303 0 9256.80679046 0 -2536.19350598 0 761.55560826 0 5509
0.07250000 0.07249820 29089.54393329 0 1378.64838014 0 10758.63478421 0 -1358.10921761 0 666.77429335 0 5916
0.07350000 0.07351270 28078.52995410 0 1380.56389234 0 11138.09442807 0 -1477.24743265 0 151.66206197 0 5721
0.07450000 0.07449140 27535.43242175 0 1312.04834636 0 11071.60511753 0 795.50224892 0 277.12589619 0 6028
0.07550000 0.07549160 26854.04155241 0 290.32300014 0 10562.35568215 0 -41.18229421 0 -1687.94270163 0 6183
0.07650000 0.07648840 26573.13667176 0 597.01753976 0 8852.24618623 0 2636.91844486 0 -678.30501241 0 6330
0.07750000 0.07749960 25362.37795284 0 -80.54075507 0 8453.84179461 0 1534.44706267 0 213.95274694 0 6583
0.07850000 0.07848650 26114.74242427 0 438.15293049 0 7255.25156067 0 1684.73172743 0 -1028.37759897 0 6549
0.07950000 0.07947320 25695.87637638 0 477.34896035 0 8586.32216106 0 470.90597454 0 -794.02187909 0 6828
0.08050000 0.08048110 24523.09573159 0 1377.08718234 0 9190.92645779 0 -1453.78517636 0 51.01274707 0 7147
0.08150000 0.08149960 24318.14699919 0 863.82735091 0 10510.78079314 0 -2097.88445571 0 1275.89720583 0 7386
0.08250000 0.08250610 24147.96536673 0 -540.03049838 0 11565.37544282 0 -948.19846603 0 1177.60817841 0 7227
0.08350000 0.08350160 24797.46794059 0 -452.16717201 0 13216.36979653 0 528.87845282 0 1107.75288113 0 7798
0.08450000 0.08449610 24937.42212630 0 628.37879257 0 12494.12204861 0 310.37055146 0 -118.09741652 0 7371
0.08550000 0.08548940 24201.88758860 0 921.85408359 0 11507.57790727 0 786.69089283 0 375.41603084 0 8256
0.08650000 0.08650700 23270.26217836 0 1242.08232583 0 11281.03814148 0 551.03196032 0 -1510.47547943 0 8037
0.08750000 0.08749060 22077.88351864 0 904.66097761 0 10640.52629537 0 747.37306740 0 -1647.08582305 0 8155
0.08850000 0.08849210 21074.28799707 0 329.41273568 0 9921.13520725 0 167.15224439 0 -2556.62194528 0 8718
0.08950000 0.08949900 21080.04560598 0 426.21364264 0 9303.75344769 0 642.54915388 0 -2320.32746132 0 8571
0.09050000 0.09049190 20688.30675390 0 6.86211760 0 9436.87600898 0 919.98175346 0 -2823.65320293 0 8932
0.09150000 0.09150830 20529.30816950 0 207.27502784 0 8865.95372436 0 723.12467605 0 -2334.75470056 0 9285
0.09250000 0.09250820 20289.59233718 0 250.19689500 0 9481.98466029 0 488.17326509 0 -1140.85913234 0 9204
0.09350000 0.09350330 20285.16340725 0 324.84650892 0 9160.04574387 0 417.14319415 0 -1561.61854777 0 9349
0.09450000 0.09448040 19868.51182432 0 722.83125944 0 8727.99255712 0 1243.16741366 0 409.92182390 0 9564
0.09550000 0.09549270 19331.28262412 0 386.29680444 0 8215.27748407 0 516.80186814 0 -548.52518598 0 10155
0.09650000 0.09649430 19387.08714121 0 41.40927687 0 7715.39523548 0 1289.81511812 0 989.60121022 0 9913
0.09750000 0.09749140 18977.07895317 0 -190.98099463 0 6921.89707735 0 932.86993955 0 -395.59091389 0 10476
0.09850000 0.09850240 19026.35079862 0 379.07875589 0 6872.82453375 0 737.21753108 0 -255.73970080 0 10575
0.09950000 0.09950330 18277.97236412 0 541.36803522 0 5997.47975057 0 875.74892304 0 -584.17475020 0 10882
0.10050000 0.10051200 18052.53983082 0 347.88690964 0 5492.93605323 0 566.19772362 0 -189.58034554 0 10875
0.10150000 0.10150300 17340.03572874 0 499.88999921 0 5507.40758177 0 1064.55420585 0 1168.10812372 0 11118
0.10250000 0.10250800 17184.46956504 0 665.04811791 0 5272.20925797 0 440.04408357 0 1194.36060586 0 11575
0.10350000 0.10349800 16522.01237114 0 408.24215223 0 5650.04127008 0 963.03095236 0 2572.87611811 0 11364
0.10450000 0.10450100 16041.36275076 0 547.46002833 0 5471.35609216 0 330.76688100 0 2580.01776762 0 12093
0.10550000 0.10551000 15834.64244639 0 311.13122017 0 5866.01803800 0 245.02944100 0 2968.04739089 0 12067
0.10650000 0.10649700 15636.00493915 0 222.16841195 0 5664.44636467 0 313.96794979 0 3242.07635782 0 12054
0.10750000 0.10749900 15592.71214911 0 80.71924095 0 5919.89597056 0 -261.38658646 0 3134.43121594 0 12807
0.10850000 0.10850100 15438.80683413 0 287.40765702 0 5978.25819468 0 149.61368188 0 3283.54221427 0 12736
0.10950000 0.10950300 15274.38281057 0 396.55420615 0 5827.05452696 0 -291.47673639 0 2927.09086138 0 12933
0.11050000 0.11050200 15045.96074956 0 -51.63667258 0 5447.46201520 0 682.00427613 0 2226.51165313 0 13428
0.11150000 0.11150900 14989.49189299 0 -222.44300561 0 5106.96588238 0 280.36455120 0 995.09640503 0 13453
0.11250000 0.11250000 15163.54883914 0 196.75078310 0 4785.54736522 0 99.73141917 0 1029.71402858 0 13668
0.11350000 0.11349100 14872.78958940 0 379.51389825 0 4813.28353889 0 -405.07325286 0 71.65244632 0 13791
0.11450000 0.11448600 14494.66969684 0 567.05250710 0 4664.63757820 0 175.90380993 0 359.86495063 0 14205
0.11550000 0.11549300 14044.91186271 0 329.96303022 0 4839.03776642 0 80.49436203 0 626.57511086 0 14776
0.11650000 0.11649800 13852.25341086 0 42.26317456 0 4581.35155091 0 902.61924091 0 1226.20461204 0 14553
0.11750000 0.11747300 14012.13778125 0 -111.36987196 0 4756.50465722 0 1128.28097134 0 1544.73325242 0 14568
0.11850000 0.11849100 13902.85393529 0 97.29871868 0 4832.32793758 0 1066.95800757 0 2154.39760159 0 16015
0.11950000 0.11950300 13979.58514628 0 64.52884470 0 4446.72315344 0 656.36852248 0 3079.93323318 0 15270
0.12050000 0.12050700 13835.75564688 0 77.20123118 0 4349.66315408 0 560.38696756 0 2883.76485437 0 15999
0.12150000 0.12150000 13923.78062919 0 -68.67997000 0 4330.65197237 0 547.67040250 0 3500.21653864 0 15670
0.12250000 0.12250700 13827.34068002 0 318.14221625 0 4215.12333521 0 -205.04727608 0 2562.43491580 0 16887
0.12350000 0.12352200 13547.87520160 0 387.21359293 0 4061.63876857 0 -696.40051286 0 2440.62827047 0 16407
0.12450000 0.12449800 13273.61371584 0 52.90456449 0 3767.31423025 0 -123.38888055 0 1981.07142888 0 16306
0.12550000 0.12549900 13314.35987117 0 52.10890723 0 3775.29737644 0 -463.01029971 0 1285.04294613 0 17523
0.12650000 0.12650100 13179.16678514 0 77.67800549 0 3641.74299448 0 259.99811693 0 846.25224973 0 17154
0.12750000 0.12750600 13044.97020834 0 227.50084358 0 3464.40864018 0 123.68008269 0 441.84887252 0 18007
0.12850000 0.12850300 12886.63596343 0 199.96065006 0 3241.12413789 0 360.33552443 0 521.66261874 0 17496
0.12950000 0.12949900 12652.56701676 0 363.24200970 0 3314.69973631 0 261.53274115 0 391.36350027 0 18405
0.13050000 0.13049000 12284.63366304 0 467.86219244 0 3590.55563684 0 -202.92138972 0 869.99131414 0 18100
0.13150000 0.13148800 12012.36519575 0 391.47311629 0 3756.36370100 0 -312.19969952 0 1099.54385951 0 19059
0.13250000 0.13249300 11906.84594023 0 231.81794303 0 3975.47393684 0 -54.22261404 0 1059.72999393 0 18957
0.13350000 0.13349100 11723.48824123 0 104.15968476 0 4156.48430297 0 -271.50890581 0 928.12434113 0 19468
0.13450000 0.13450700 11791.91520861 0 -70.94979659 0 4009.56562495 0 231.53006259 0 695.12940997 0 19953
0.13550000 0.13551000 11693.70368747 0 -96.33033315 0 3762.36490105 0 279.97480536 0 624.32521446 0 19956
0.13650000 0.13649900 11712.85880941 0 227.98581141 0 3487.05154444 0 226.47001014 0 -447.47250629 0 19723
0.13750000 0.13749600 11548.10261610 0 76.90737168 0 3145.89107212 0 177.76063880 0 -528.28719068 0 20946
0.13850000 0.13851100 11453.76640865 0 30.02548755 0 3049.41790598 0 119.12271379 0 -545.63973813 0 20955
0.13950000 0.13949800 11346.91847415 0 132.19470047 0 2654.09162065 0 -9.67164251 0 -675.38302589 0 20506
0.14050000 0.14048300 11484.76891814 0 39.68022262 0 3101.35818170 0 -71.06085201 0 -890.02225697 0 21447
0.14150000 0.14148400 11304.51147009 0 193.91516071 0 3215.35883804 0 63.83638151 0 -525.80256099 0 21771
0.14250000 0.14249400 11002.42523207 0 359.21500516 0 3235.49939688 0 -2.42095275 0 -338.94379288 0 22470
0.14350000 0.14350900 10865.72630986 0 214.67576975 0 3384.75433544 0 57.81281536 0 89.77064504 0 22519
0.14450000 0.14449900 10846.93657464 0 13.15126453 0 3498.52247295 0 281.92796346 0 317.47566229 0 22218
0.14550000 0.14550500 10645.40919061 0 208.80965206 0 3467.82998855 0 403.14999004 0 355.66853952 0 23559
0.14650000 0.14650700 10460.40171522 0 182.61031707 0 3012.20382226 0 805.52159565 0 728.92989595 0 23044
0.14750000 0.14750500 10376.89424144 0 23.83506147 0 2887.91697617 0 463.80639986 0 412.08314171 0 23649
0.14850000 0.14849900 10303.52901719 0 52.07978702 0 2596.98056924 0 86.50342343 0 611.20008062 0 23640
0.14950000 0.14949500 10200.76677055 0 100.68242115 0 2559.16857998 0 -261.46187827 0 171.61992746 0 24457
0.15050000 0.15050000 10143.57821286 0 2.60136521 0 2609.51444093 0 -104.06855952 0 613.89951341 0 24591
0.15150000 0.15149900 10147.77462396 0 97.52304398 0 2537.03500267 0 -335.29878355 0 168.60493341 0 25020
0.15250000 0.15250500 10156.87607497 0 149.44538254 0 2930.25754628 0 -75.74234166 0 -218.14472911 0 25297
0.15350000 0.15350100 9931.91965163 0 365.01579613 0 3055.09800861 0 -168.34584101 0 292.04142495 0 25452
0.15450000 0.15450400 9707.74936335 0 382.32183983 0 3149.32349282 0 93.89597182 0 279.55184256 0 26061
0.15550000 0.15549900 9462.89597231 0 316.91208096 0 3249.43945383 0 66.02183698 0 662.69192719 0 26128
0.15650000 0.15649500 9376.33253687 0 190.22586208 0 3663.59976367 0 13.46804374 0 390.82759975 0 26331
0.15750000 0.15749700 9077.95552766 0 146.86885256 0 3582.05209138 0 245.90194020 0 805.17946081 0 27345
0.15850000 0.15849900 9015.02043339 0 157.91792549 0 3391.43094730 0 271.24206278 0 508.57180911 0 26980
0.15950000 0.15949700 8966.11397467 0 7.65961286 0 3193.25847770 0 164.33876666 0 787.91106302 0 27777
0.16050000 0.16050000 8880.18166175 0 27.21488862 0 3200.61050138 0 99.08833854 0 414.36514785 0 28224
0.16150000 0.16150500 8868.34534652 0 60.47737033 0 3041.00293912 0 101.93447964 0 481.63505729 0 28075
0.16250000 0.16249700 8932.49839652 0 7.51121049 0 2835.03555284 0 56.62087959 0 311.48553457 0 28590
0.16350000 0.16349900 8823.87889005 0 140.44579693 0 2921.54362665 0 100.36973870 0 147.79228445 0 29163
0.16450000 0.16449100 8751.51017503 0 69.58956149 0 2794.66585655 0 187.30498279 0 346.72210107 0 28996
0.16550000 0.16550500 8737.44832251 0 -77.93089739 0 2492.33602738 0 440.86897177 0 335.90554695 0 30777
0.16650000 0.16650700 8763.56793676 0 -64.12725148 0 2468.90698806 0 369.60195307 0 283.21788930 0 29211
0.16750000 0.16749900 8803.57224633 0 114.51219774 0 2387.09357998 0 -55.18801004 0 92.42955312 0 30922
0.16850000 0.16850800 8552.55157037 0 404.58496334 0 2477.14479773 0 -93.30825282 0 364.05914727 0 30867
0.16950000 0.16949900 8347.35924683 0 124.86482144 0 2168.70304525 0 -73.72994663 0 378.90159869 0 30852
0.17050000 0.17049200 8306.80132102 0 -36.43315265 0 2507.91478840 0 127.90196014 0 366.47512855 0 31257
0.17150000 0.17149500 8387.29712245 0 -18.65863889 0 2356.48967418 0 138.38191558 0 -162.62919970 0 32608
0.17250000 0.17250900 8414.78970497 0 79.51567924 0 2267.36853171 0 47.86233849 0 -132.60326926 0 32361
0.17350000 0.17350400 8213.32875490 0 216.86698283 0 2233.52043474 0 -198.81244998 0 -89.22799040 0 32508
0.17450000 0.17449800 8190.64156135 0 182.74872113 0 2176.30973240 0 36.87704215 0 -30.28756948 0 32791
0.17550000 0.17549800 7963.34887747 0 32.66424400 0 2119.98481605 0 103.49733829 0 -11.90020255 0 33633
0.17650000 0.17650100 7911.76291614 0 174.20863700 0 2014.66486238 0 274.32902694 0 -4.80593152 0 33984
0.17750000 0.17750300 7871.57037705 0 94.82959025 0 1772.51311859 0 278.60848048 0 53.36594827 0 34069
0.17850000 0.17849800 7695.29896593 0 49.32632128 0 1854.83585362 0 62.23764853 0 -142.75991282 0 34536
