### header ###
fiducial parameters:
Omega_m = 0.31
Omega_nu = 0
Omega_de = 0.69
Omega_k = 0
H_0 = 100
w_de = -1
zeff = 0
beta = 0
fgrowth = 0
b_1 = 2
gamma = 0.55
Lx = 3500 Ly = 3500 Lz = 3500
nx = 700 ny = 700 nz = 700
xoffset = -685.467585 yoffset = -31.7331281 zoffset = 572.489161
bins = 400 dk = 0.001
kx_ny = 0.628318531 ky_ny = 0.628318531 kz_ny = 0.628318531
############################
A(data) = 8.03819515 (not used)
A(ran) = 8.03353408 (used)
Ngal = 477576
weighted Ngal = 0
Nran = 23820508
weighted Nran = 0
SN(data) = 3488.8945
SN(ran) = 69.9749954
SN(data+ran) = 3558.86949
############################
13 columns: k_central k_mean P_0(k) sigma^{lin}_{P_0(k)} P^img_1(k) sigma^{lin}_{P_1(k)} P_2(k) sigma^{lin}_{P_2(k)} P^img_3(k) sigma^{lin}_{P_3(k)} P_4(k) sigma^{lin}_{P_4(k)} N_modes
### header ###
0.00050000 0 0 0 0 0 0 0 0 0 0 0 0
0.00150000 0.00179520 20519.78597016 0 -28326.88219978 0 -8994.47019853 0 -22475.49070287 0 -6471.64098860 0 3
0.00250000 0.00253879 31828.17275394 0 -16295.02971235 0 1969.77765756 0 -11746.96156985 0 -8004.75937229 0 6
0.00350000 0.00331552 41438.61852678 0 -11831.33268496 0 -10841.50006315 0 -3250.32523981 0 15210.82766611 0 7
0.00450000 0.00420575 44980.87668276 0 -12660.53909063 0 -16703.81994466 0 -6002.56194766 0 5896.97625819 0 24
0.00550000 0.00557378 56622.98333657 0 -6326.06206189 0 -15759.90425387 0 -17940.37718040 0 -16871.12277267 0 45
0.00650000 0.00659388 60032.15214823 0 -9190.47249247 0 -22120.62269244 0 -6273.34672342 0 2932.18413080 0 40
0.00750000 0.00754703 60591.85816782 0 2729.81525009 0 -2511.94511463 0 -28216.60184459 0 12790.52818400 0 57
0.00850000 0.00846663 61878.90520474 0 -6853.13794023 0 -13053.93879144 0 -7875.03601471 0 -2428.74766594 0 75
0.00950000 0.00948925 64478.79779540 0 -2268.54219814 0 7215.69014409 0 4935.86524696 0 17445.22281451 0 112
0.01050000 0.01054430 64955.90427184 0 -1241.67264981 0 2235.38058531 0 -2801.91822931 0 22190.48906204 0 105
0.01150000 0.01145670 65150.44501890 0 1770.37615990 0 -305.27063864 0 9455.66574420 0 24804.88639822 0 144
0.01250000 0.01249090 68547.21282676 0 -1592.35532147 0 12785.32419134 0 1066.63691015 0 38069.08863797 0 169
0.01350000 0.01339930 76617.16604759 0 -3179.20769750 0 13622.94556387 0 -133.78800802 0 23308.46169898 0 180
0.01450000 0.01448870 73896.47439315 0 6017.39886292 0 27655.23497628 0 4635.42878533 0 39227.14309075 0 267
0.01550000 0.01550050 75719.53267454 0 8074.71432049 0 33774.24456406 0 2377.02883672 0 46968.02681796 0 238
0.01650000 0.01653350 63607.07366243 0 6767.28313358 0 34051.05268453 0 9073.12799404 0 38113.04576750 0 315
0.01750000 0.01747870 67975.10580339 0 1824.87414266 0 34860.66107527 0 11903.63496603 0 34853.24261764 0 297
0.01850000 0.01844180 64700.13356853 0 -5429.35876412 0 22727.71826224 0 17865.86043437 0 5085.39699363 0 388
0.01950000 0.01947590 75038.47397494 0 -7163.22946910 0 22932.33482489 0 9541.49840619 0 16096.28148186 0 399
0.02050000 0.02045430 74264.62919337 0 -1043.75484368 0 16194.49300300 0 -11417.00629025 0 -4134.09606219 0 462
0.02150000 0.02154770 81085.62417465 0 -694.21372871 0 3095.57842815 0 -9509.42188120 0 -4099.71649363 0 571
0.02250000 0.02255340 77396.65771482 0 -2818.37170399 0 13606.44779989 0 -16420.03625956 0 -4646.94400314 0 510
0.02350000 0.02348930 81666.03544164 0 4183.98795782 0 11251.80720396 0 7932.29100635 0 -19838.17365432 0 555
0.02450000 0.02439640 79225.58432836 0 1813.54715437 0 18465.42682330 0 -4630.30229894 0 -17804.74120138 0 592
0.02550000 0.02547300 72520.40586469 0 7804.89283699 0 15742.40998065 0 1452.58936528 0 -20072.24260099 0 837
0.02650000 0.02652900 64193.79615457 0 5808.48623824 0 22117.74388798 0 5685.93774714 0 -10323.87995021 0 723
0.02750000 0.02749970 62154.05247648 0 2744.74074394 0 13226.33488887 0 10231.72499074 0 -8396.39857345 0 826
0.02850000 0.02848090 56853.28769280 0 3573.73677544 0 16739.25138408 0 6236.36515853 0 2861.00015454 0 831
0.02950000 0.02946900 58381.48996427 0 956.68318854 0 8305.78266713 0 4795.19136013 0 -6599.31596608 0 996
0.03050000 0.03053250 56669.92999380 0 -3894.53524241 0 6748.68162789 0 4503.41345651 0 -6303.21985578 0 1041
0.03150000 0.03150510 59668.31555469 0 -271.07819237 0 5201.54568098 0 978.58092533 0 -9760.35397856 0 1036
0.03250000 0.03246190 57381.43758665 0 -474.43029553 0 7789.96734313 0 -4300.65704443 0 -10411.78313694 0 1059
0.03350000 0.03345080 58023.63242613 0 3509.59479777 0 3662.85791791 0 654.47404771 0 -2482.30450109 0 1302
0.03450000 0.03451200 56019.54163396 0 3359.87482157 0 6152.12691131 0 -3066.17033343 0 -2486.75557567 0 1339
0.03550000 0.03553350 56015.00198078 0 445.32115358 0 7808.69064440 0 -923.10082736 0 -2066.52763183 0 1365
0.03650000 0.03647120 53236.06989780 0 2984.74445671 0 14376.30654453 0 -2532.34033695 0 -1483.00504156 0 1308
0.03750000 0.03744890 50745.23970659 0 5821.46300293 0 17819.35667014 0 -3978.02057154 0 2511.61294489 0 1579
0.03850000 0.03847530 48078.91316702 0 1813.95683039 0 20649.77506353 0 481.95947640 0 3423.07565163 0 1662
0.03950000 0.03950240 46528.89841565 0 478.84261697 0 19929.63105732 0 5326.54115586 0 -762.70159388 0 1683
0.04050000 0.04050350 46938.24226420 0 -1187.85007887 0 19137.40621655 0 6568.70098796 0 899.16799727 0 1822
0.04150000 0.04152450 47161.90322553 0 -1409.28550292 0 15322.99031652 0 2152.73675287 0 -2084.80804010 0 1887
0.04250000 0.04250150 48777.57686307 0 1832.41439586 0 17664.56556917 0 805.60131639 0 647.37447303 0 1920
0.04350000 0.04349210 45966.42431487 0 1604.87812084 0 14755.42294632 0 -3321.27669725 0 2785.34295905 0 2005
0.04450000 0.04448520 46311.88084921 0 2112.53314145 0 18984.05451781 0 -1110.94171068 0 -1199.77497270 0 2151
0.04550000 0.04548030 44035.52158974 0 2929.61535144 0 19918.22656276 0 -7445.66233057 0 1512.75637835 0 2274
0.04650000 0.04648670 42242.02641562 0 3624.97949470 0 24498.95806348 0 -1737.04846220 0 1161.84118787 0 2311
0.04750000 0.04749250 40064.87518653 0 829.68251564 0 23900.27746054 0 1208.92071300 0 2323.25055507 0 2568
0.04850000 0.04851840 39859.70500764 0 -363.81444889 0 22884.05948868 0 6510.69307824 0 1062.35967107 0 2493
0.04950000 0.04949480 38900.95240159 0 -446.06078488 0 20264.79032958 0 7840.13604689 0 218.57654978 0 2644
0.05050000 0.05050630 39203.44831564 0 1601.91073779 0 16950.17917187 0 6132.14136501 0 -245.00951082 0 2829
0.05150000 0.05149060 37532.96667025 0 -537.90239755 0 15023.48393018 0 4749.78375605 0 4570.64461281 0 2784
0.05250000 0.05249300 38979.67663105 0 -1028.89246208 0 11362.75189864 0 2830.15265759 0 4386.64471898 0 3055
0.05350000 0.05348950 38726.00966946 0 -535.90827185 0 13256.78378212 0 904.71855370 0 4061.97093832 0 3009
0.05450000 0.05448610 38719.03410482 0 1058.24298070 0 12274.77929395 0 -133.18235185 0 4352.45337994 0 3336
0.05550000 0.05550870 37830.70148462 0 1124.93712925 0 14354.49406464 0 -815.04600946 0 8192.37991634 0 3349
0.05650000 0.05647670 38048.60483705 0 1269.01021979 0 13907.28286521 0 -2068.77531377 0 5487.74313289 0 3324
0.05750000 0.05747970 35881.41870030 0 822.73131011 0 16316.95291549 0 233.03257706 0 4208.13669825 0 3639
0.05850000 0.05849280 35977.41575648 0 1298.71726728 0 17018.71686250 0 -526.70163376 0 3785.71643409 0 3846
0.05950000 0.05951020 33860.49797440 0 2008.66366233 0 16232.24963063 0 -656.84795415 0 -138.69969131 0 3787
0.06050000 0.06049470 32880.15433496 0 2336.78093600 0 17558.71414391 0 207.04693795 0 3404.24162712 0 3930
0.06150000 0.06148310 30944.15834042 0 308.79606687 0 14659.42589014 0 4229.71665932 0 3401.57319684 0 4083
0.06250000 0.06249100 30651.18462571 0 -577.48152985 0 13405.26365794 0 4841.19686976 0 3933.28837928 0 4303
0.06350000 0.06350600 31308.54855020 0 -24.22569309 0 11194.89545439 0 4068.30430812 0 -413.84364135 0 4470
0.06450000 0.06451750 31299.91213684 0 93.40081745 0 10164.63777466 0 1400.46086004 0 3225.30178572 0 4479
0.06550000 0.06550280 30404.38250551 0 899.03955830 0 7843.22522551 0 -478.19377873 0 4250.23367721 0 4636
0.06650000 0.06648880 30429.07378985 0 352.91042341 0 9181.63677726 0 -1271.15825080 0 5795.90807724 0 4653
0.06750000 0.06749660 30460.29774584 0 123.16521959 0 9423.55600223 0 706.70663280 0 3785.22925180 0 5220
0.06850000 0.06852730 29743.25399059 0 795.37823888 0 8110.20112154 0 1366.21415937 0 3517.68866721 0 5029
0.06950000 0.06949320 29025.98878883 0 976.07636546 0 7882.72020814 0 806.46938665 0 1502.73592439 0 5040
0.07050000 0.07048030 28869.42611590 0 122.64482032 0 7735.39185410 0 627.66019869 0 478.66767423 0 5475
0.07150000 0.07148790 28009.43864723 0 639.24517215 0 8630.30143524 0 369.54769868 0 1916.17653311 0 5509
0.07250000 0.07249820 27156.20529671 0 1068.08849193 0 7230.00666008 0 -1163.87849564 0 1930.68127863 0 5916
0.07350000 0.07351270 26798.34775857 0 -37.20411862 0 9135.21051930 0 798.02673898 0 3215.62457383 0 5721
0.07450000 0.07449140 26954.02464552 0 -87.16477339 0 8559.07316969 0 171.13053070 0 1067.96005297 0 6028
0.07550000 0.07549160 26595.72421439 0 955.22385613 0 8508.94875523 0 316.39611062 0 1111.65033947 0 6183
0.07650000 0.07648840 26156.04219584 0 752.20281548 0 8375.97013416 0 -896.70551223 0 881.02488582 0 6330
0.07750000 0.07749960 25698.86590408 0 -75.89425396 0 8462.57785889 0 -59.04062546 0 362.96963051 0 6583
0.07850000 0.07848650 25640.51475228 0 156.05556046 0 8301.37588186 0 -214.92046812 0 -247.52735748 0 6549
0.07950000 0.07947320 25263.16992246 0 549.72210429 0 8007.69353837 0 931.47150493 0 -1838.00591990 0 6828
0.08050000 0.08048110 25006.40270992 0 601.78749729 0 7724.07593814 0 1164.34353328 0 -416.41020624 0 7147
0.08150000 0.08149960 24211.40978794 0 755.15137558 0 7716.60211888 0 401.26990929 0 -1170.00149126 0 7386
0.08250000 0.08250610 23812.47392473 0 657.59976500 0 7614.55957336 0 716.26758529 0 227.95037997 0 7227
0.08350000 0.08350160 23166.84666455 0 865.56902761 0 7649.30452864 0 1011.62295706 0 1949.86961754 0 7798
0.08450000 0.08449610 22188.49604357 0 581.18190080 0 7290.72728939 0 407.73393252 0 2155.80378684 0 7371
0.08550000 0.08548940 22194.58582222 0 382.98839378 0 7995.51398107 0 1246.31195391 0 3267.19946284 0 8256
0.08650000 0.08650700 21607.53116034 0 657.43921629 0 7569.05231835 0 835.53534653 0 3067.56544636 0 8037
0.08750000 0.08749060 21347.55297360 0 195.93032383 0 7871.98005306 0 320.52387332 0 4586.05728896 0 8155
0.08850000 0.08849210 21190.54740767 0 -297.21330787 0 7405.79088890 0 298.70142833 0 3557.11721589 0 8718
0.08950000 0.08949900 21838.27840956 0 -153.44913520 0 7581.69691329 0 19.32497140 0 2842.59795069 0 8571
0.09050000 0.09049190 21785.24197368 0 306.42216043 0 7968.25391736 0 -1014.18509302 0 2503.88446216 0 8932
0.09150000 0.09150830 21312.78587367 0 461.32177017 0 8267.29526606 0 -827.05394572 0 2056.07535720 0 9285
0.09250000 0.09250820 21171.39228573 0 545.11933887 0 8077.07272568 0 -471.32561565 0 1845.60153472 0 9204
0.09350000 0.09350330 20741.67535952 0 274.81399477 0 8011.55777973 0 867.87650010 0 461.45242361 0 9349
0.09450000 0.09448040 20047.77276314 0 628.03112157 0 7472.85596033 0 318.06692444 0 336.92862977 0 9564
0.09550000 0.09549270 19500.24630086 0 689.89552203 0 6959.22188431 0 807.14922740 0 -592.54764223 0 10155
0.09650000 0.09649430 19016.71787603 0 232.20436717 0 6920.55732605 0 1188.93516670 0 646.14655221 0 9913
0.09750000 0.09749140 18735.37010238 0 120.03175166 0 5638.74749877 0 863.75759527 0 39.59961610 0 10476
0.09850000 0.09850240 18571.61041832 0 317.25310856 0 5548.53019615 0 718.62266877 0 -148.74228992 0 10575
0.09950000 0.09950330 18310.85716884 0 320.47958402 0 5387.31714679 0 386.64779713 0 314.97220965 0 10882
0.10050000 0.10051200 17693.13216720 0 597.60548020 0 4735.23472124 0 -36.06510857 0 983.68637431 0 10875
0.10150000 0.10150300 17428.83577378 0 397.12110918 0 5120.11980426 0 720.35659484 0 1091.14217944 0 11118
0.10250000 0.10250800 16804.24593076 0 444.71217571 0 4781.52811131 0 16.43775198 0 -17.72358106 0 11575
0.10350000 0.10349800 16460.89313814 0 559.78241862 0 4792.88831657 0 -24.52863189 0 -109.88750911 0 11364
0.10450000 0.10450100 16187.07454537 0 310.65621744 0 4841.71726902 0 -244.16690690 0 -158.79485362 0 12093
0.10550000 0.10551000 15935.62204874 0 -151.87243614 0 4381.57359421 0 167.96716750 0 -103.60739720 0 12067
0.10650000 0.10649700 16006.48492758 0 26.23221979 0 4843.10130962 0 -284.12692717 0 -875.47211492 0 12054
0.10750000 0.10749900 16147.65706902 0 272.75343512 0 5308.34932618 0 -46.79895242 0 -639.57402020 0 12807
0.10850000 0.10850100 16000.50587218 0 601.19512791 0 5372.54666548 0 103.66386605 0 -559.99057833 0 12736
0.10950000 0.10950300 15202.63414575 0 344.32162105 0 4922.97706087 0 -130.26590149 0 -533.71927323 0 12933
0.11050000 0.11050200 15340.48458974 0 -58.00613815 0 4777.89638877 0 573.60843062 0 -367.13836080 0 13428
0.11150000 0.11150900 15408.24721763 0 -133.19342417 0 4987.69479943 0 125.83032817 0 -1613.42595560 0 13453
0.11250000 0.11250000 15304.05664108 0 -129.20406554 0 4455.00525241 0 447.66737921 0 -1260.79455477 0 13668
0.11350000 0.11349100 15288.33393984 0 -78.87038415 0 4081.09284328 0 294.74750114 0 -940.51980877 0 13791
0.11450000 0.11448600 15417.43724723 0 280.42434175 0 3568.07881746 0 566.88863669 0 -1029.24788370 0 14205
0.11550000 0.11549300 15020.38367923 0 170.34771733 0 3576.37198875 0 947.94933872 0 -1264.38198802 0 14776
0.11650000 0.11649800 14689.76406015 0 220.40126891 0 3247.40214606 0 649.50811002 0 -280.09549370 0 14553
0.11750000 0.11747300 14458.79536443 0 539.14028346 0 3571.41158723 0 336.44255471 0 -86.22595097 0 14568
0.11850000 0.11849100 14061.63107318 0 516.03455603 0 3573.31602710 0 368.51686524 0 948.02573776 0 16015
0.11950000 0.11950300 13924.99858492 0 -40.25941593 0 3479.25662776 0 748.28764143 0 1938.96337759 0 15270
0.12050000 0.12050700 13908.72226744 0 72.07109092 0 3402.69150164 0 641.49174686 0 2229.95514615 0 15999
0.12150000 0.12150000 13949.57914602 0 81.14242520 0 3617.89320682 0 -184.80374462 0 2343.44647554 0 15670
0.12250000 0.12250700 13801.76360969 0 27.13417137 0 3623.06398251 0 -224.10053263 0 2141.09973948 0 16887
0.12350000 0.12352200 13892.11378021 0 202.82506049 0 3753.68419839 0 -593.31495434 0 2306.59777855 0 16407
0.12450000 0.12449800 13904.95767700 0 293.97686733 0 4171.83054517 0 -674.63232227 0 1517.35139315 0 16306
0.12550000 0.12549900 13844.94567648 0 -63.45084316 0 4418.66588235 0 -183.02552925 0 1609.58385889 0 17523
0.12650000 0.12650100 13935.96018649 0 -131.17604659 0 3677.83877339 0 457.57600269 0 357.32274485 0 17154
0.12750000 0.12750600 13947.58612755 0 8.84987671 0 4008.07086110 0 275.62781064 0 240.43331897 0 18007
0.12850000 0.12850300 13857.23595703 0 393.49381557 0 3576.93667731 0 -75.94308291 0 -49.63346757 0 17496
0.12950000 0.12949900 13508.34700200 0 309.46483529 0 4035.34199713 0 -190.03431086 0 62.00568332 0 18405
0.13050000 0.13049000 13048.29190578 0 652.62386223 0 4041.07746139 0 -326.56604097 0 229.79392205 0 18100
0.13150000 0.13148800 12817.87682631 0 506.11375300 0 4646.45682085 0 -604.55779296 0 -375.54225534 0 19059
0.13250000 0.13249300 12392.92099977 0 371.27165966 0 4662.78849995 0 73.37939682 0 1005.31062468 0 18957
0.13350000 0.13349100 12278.65460764 0 -84.56155910 0 4601.31495256 0 451.35667784 0 963.61889280 0 19468
0.13450000 0.13450700 12389.15640933 0 -70.74473713 0 4638.83906137 0 779.58578199 0 1040.72877731 0 19953
0.13550000 0.13551000 12481.94249131 0 -109.37928940 0 4485.53165193 0 825.32666305 0 1074.65991671 0 19956
0.13650000 0.13649900 12492.01830689 0 -41.87088209 0 4012.53300800 0 584.62207212 0 1281.84304425 0 19723
0.13750000 0.13749600 12557.34502332 0 56.28605249 0 3827.85770235 0 273.66579468 0 1446.86497335 0 20946
0.13850000 0.13851100 12227.94335997 0 182.33793788 0 3730.83091997 0 41.31438704 0 1022.24353102 0 20955
0.13950000 0.13949800 12209.34185427 0 407.76382779 0 3840.96733494 0 -252.52208321 0 771.75321942 0 20506
0.14050000 0.14048300 11611.54703731 0 311.26187360 0 3416.12223165 0 112.67529905 0 781.54336902 0 21447
0.14150000 0.14148400 11671.66976108 0 134.31394345 0 3403.49978135 0 -171.97756355 0 313.35565023 0 21771
0.14250000 0.14249400 11362.64117539 0 244.32745561 0 3383.77997085 0 -13.62969968 0 -237.14594573 0 22470
0.14350000 0.14350900 11292.55335929 0 183.20711538 0 3293.69553613 0 -294.68881782 0 -333.00791955 0 22519
0.14450000 0.14449900 11133.11188190 0 147.87200519 0 3289.41054642 0 -101.10793059 0 -410.21413328 0 22218
0.14550000 0.14550500 10876.87614095 0 52.84477394 0 2992.57259036 0 300.45085565 0 -166.87765074 0 23559
0.14650000 0.14650700 11044.41148778 0 -43.53682408 0 3171.37956386 0 501.98599030 0 -470.43097180 0 23044
0.14750000 0.14750500 11032.24300280 0 84.73251580 0 2771.77936115 0 336.13474408 0 -762.98725986 0 23649
0.14850000 0.14849900 10889.88612261 0 278.20434063 0 2929.54891749 0 200.99591243 0 -315.20915740 0 23640
0.14950000 0.14949500 10455.37487975 0 393.17825431 0 2789.68331038 0 127.14904205 0 -58.17676268 0 24457
0.15050000 0.15050000 10205.74931671 0 314.41637895 0 2653.32763024 0 210.25237598 0 149.42102343 0 24591
0.15150000 0.15149900 10086.44501679 0 33.83547452 0 2647.11605602 0 276.12827972 0 198.66740252 0 25020
0.15250000 0.15250500 9903.38627057 0 86.20934248 0 2624.37350084 0 341.97318095 0 46.09209520 0 25297
0.15350000 0.15350100 9759.54569885 0 315.88567645 0 2368.15990454 0 347.16277960 0 299.77544384 0 25452
0.15450000 0.15450400 9667.49039031 0 153.22879593 0 2279.61452296 0 81.10068254 0 297.33067452 0 26061
0.15550000 0.15549900 9599.37344802 0 19.59535757 0 2400.29179116 0 -40.17227674 0 591.47694842 0 26128
0.15650000 0.15649500 9579.05573198 0 57.68581580 0 2266.67097525 0 179.32737276 0 255.01114183 0 26331
0.15750000 0.15749700 9687.59773218 0 16.78863395 0 2461.93142343 0 -36.51364845 0 538.88672723 0 27345
0.15850000 0.15849900 9503.26566860 0 186.44577039 0 2309.38800440 0 -120.05832524 0 523.99887927 0 26980
0.15950000 0.15949700 9430.08867387 0 258.56092917 0 2684.92804527 0 -198.65743743 0 861.44680108 0 27777
0.16050000 0.16050000 9303.42127794 0 184.04196867 0 2746.74483474 0 118.11402500 0 644.55213744 0 28224
0.16150000 0.16150500 9123.75066311 0 146.79023905 0 2782.16520183 0 89.13620083 0 1017.77252626 0 28075
0.16250000 0.16249700 9055.33476806 0 165.92764527 0 2807.36581312 0 287.32240011 0 1059.99240803 0 28590
0.16350000 0.16349900 8951.91925425 0 50.28662401 0 2642.04493125 0 180.46782222 0 803.09564928 0 29163
0.16450000 0.16449100 8886.27144040 0 -31.43543739 0 2274.83127864 0 482.80097309 0 1144.25833606 0 28996
0.16550000 0.16550500 8835.69306063 0 6.21164066 0 2191.05806906 0 189.08098370 0 520.29297216 0 30777
0.16650000 0.16650700 8769.36983497 0 137.26139631 0 1925.35549039 0 158.44386092 0 533.80342290 0 29211
0.16750000 0.16749900 8733.36263466 0 135.52636301 0 1880.05860956 0 -271.00732949 0 209.71868993 0 30922
0.16850000 0.16850800 8466.20958143 0 361.67859743 0 1847.78278271 0 -181.50308459 0 253.45990912 0 30867
0.16950000 0.16949900 8251.06323788 0 268.44962246 0 1937.70113256 0 -284.60303714 0 82.32517094 0 30852
0.17050000 0.17049200 8150.05041856 0 48.45404353 0 2138.79669592 0 -50.67880576 0 78.33592303 0 31257
0.17150000 0.17149500 8053.80977124 0 39.93909358 0 2335.30831680 0 14.57383682 0 265.78008495 0 32608
0.17250000 0.17250900 8116.34626181 0 39.70535680 0 2473.73452168 0 347.75736344 0 404.28268887 0 32361
0.17350000 0.17350400 8114.04321825 0 76.47975850 0 2420.66486883 0 370.49548969 0 728.70180606 0 32508
0.17450000 0.17449800 8049.42513061 0 78.31267115 0 2378.52360057 0 84.51616257 0 901.60723043 0 32791
0.17550000 0.17549800 8034.54392605 0 122.33590246 0 2571.80210260 0 30.91271294 0 1081.24019935 0 33633
0.17650000 0.17650100 8032.50661829 0 142.63701001 0 2385.18914011 0 -197.93773632 0 1002.44621425 0 33984
0.17750000 0.17750300 7883.82744062 0 21.98686901 0 2376.15412306 0 -144.02547954 0 1186.31102572 0 34069
0.17850000 0.17849800 7953.94847370 0 -105.04347772 0 2417.14386953 0 34.93063817 0 902.97687701 0 34536
