### header ###
fiducial parameters:
Omega_m = 0.31
Omega_nu = 0
Omega_de = 0.69
Omega_k = 0
H_0 = 100
w_de = -1
zeff = 0
beta = 0
fgrowth = 0
b_1 = 2
gamma = 0.55
Lx = 3500 Ly = 3500 Lz = 3500
nx = 700 ny = 700 nz = 700
xoffset = -685.467585 yoffset = -31.7331281 zoffset = 572.489161
bins = 400 dk = 0.001
kx_ny = 0.628318531 ky_ny = 0.628318531 kz_ny = 0.628318531
############################
A(data) = 7.96825382 (not used)
A(ran) = 7.96558082 (used)
Ngal = 473671
weighted Ngal = 0
Nran = 23820508
weighted Nran = 0
SN(data) = 3489.37333
SN(ran) = 69.3830978
SN(data+ran) = 3558.75643
############################
13 columns: k_central k_mean P_0(k) sigma^{lin}_{P_0(k)} P^img_1(k) sigma^{lin}_{P_1(k)} P_2(k) sigma^{lin}_{P_2(k)} P^img_3(k) sigma^{lin}_{P_3(k)} P_4(k) sigma^{lin}_{P_4(k)} N_modes
### header ###
0.00050000 0 0 0 0 0 0 0 0 0 0 0 0
0.00150000 0.00179520 32301.29319344 0 -23391.17196538 0 26754.05845930 0 -123657.93803961 0 -81854.92930305 0 3
0.00250000 0.00253879 46201.26832427 0 -6192.37481203 0 -14780.88929340 0 37690.19368267 0 47857.79884039 0 6
0.00350000 0.00331552 62538.48359418 0 -25314.87767937 0 3078.95886859 0 -29703.28289799 0 2233.53150707 0 7
0.00450000 0.00420575 59135.73673092 0 -17834.63647839 0 -4587.57419746 0 -2888.20485662 0 8715.38117915 0 24
0.00550000 0.00557378 84212.89159643 0 -7763.07266615 0 -7794.01981402 0 11802.54464044 0 -13442.79883907 0 45
0.00650000 0.00659388 73349.16937736 0 4247.63168088 0 -5981.77919397 0 -10517.81171940 0 32675.75921880 0 40
0.00750000 0.00754703 78046.38173518 0 8887.63333635 0 -31147.22477759 0 -11705.44035178 0 -10317.75695458 0 57
0.00850000 0.00846663 68291.66356995 0 -5902.29097410 0 -12409.19731725 0 -6494.80429212 0 -23385.30363322 0 75
0.00950000 0.00948925 67673.49567533 0 6315.69836586 0 -7064.33146382 0 -20541.81989655 0 -13024.70785392 0 112
0.01050000 0.01054430 64978.04892147 0 12272.12193599 0 12251.08451884 0 -28766.45349508 0 -756.31064799 0 105
0.01150000 0.01145670 62904.31320619 0 -3918.96079096 0 17807.28783608 0 -1555.92737282 0 26902.20616537 0 144
0.01250000 0.01249090 70733.66480870 0 -20530.19395549 0 22154.83617613 0 27652.02400209 0 17084.37574867 0 169
0.01350000 0.01339930 89843.39021320 0 -14836.47236399 0 19834.40906388 0 19416.20735548 0 -6270.97724591 0 180
0.01450000 0.01448870 96806.88601490 0 1873.33770839 0 25597.77557848 0 1241.59514354 0 6619.19078913 0 267
0.01550000 0.01550050 94477.60104280 0 11483.44023916 0 34247.91861980 0 -5955.20561441 0 35525.99707362 0 238
0.01650000 0.01653350 76833.40855130 0 13024.70785392 0 26541.69126927 0 -5223.71247527 0 32181.37991565 0 315
0.01750000 0.01747870 74733.32070294 0 9355.28404739 0 30362.63984094 0 4514.81795108 0 17715.05537034 0 297
0.01850000 0.01844180 74299.28557005 0 -5213.57022573 0 26013.65209867 0 -3802.33599365 0 -16893.15669906 0 388
0.01950000 0.01947590 70854.68531897 0 5466.86072828 0 33922.83516313 0 -3372.66335673 0 -11911.60703990 0 399
0.02050000 0.02045430 69352.83518057 0 8174.06629109 0 35180.42981603 0 -19866.18663611 0 -15321.77236079 0 462
0.02150000 0.02154770 64910.95063307 0 2181.92340109 0 37541.49236036 0 -4860.49593191 0 -10707.84603027 0 571
0.02250000 0.02255340 69546.26869515 0 -8793.14211635 0 43396.09483147 0 5106.86623145 0 -18796.48933538 0 510
0.02350000 0.02348930 71986.94125493 0 -2050.37310992 0 43885.82375819 0 17907.82454544 0 -18278.19381062 0 555
0.02450000 0.02439640 77062.16278205 0 -516.48409242 0 42518.28091984 0 7442.90532169 0 -8876.38385434 0 592
0.02550000 0.02547300 74836.07187726 0 1594.14903809 0 36312.90719848 0 3022.29071017 0 1669.46299151 0 837
0.02650000 0.02652900 77695.94265467 0 4264.20695113 0 46535.98470354 0 4764.01169345 0 10055.32071173 0 723
0.02750000 0.02749970 70922.89083985 0 3300.77075169 0 44426.48537909 0 3631.08034568 0 12233.03662939 0 826
0.02850000 0.02848090 68677.64481313 0 2270.50199964 0 41073.34253101 0 9952.79098391 0 18036.92785282 0 831
0.02950000 0.02946900 69672.49319808 0 -464.10313817 0 42900.71901908 0 10525.77272095 0 19621.59898087 0 996
0.03050000 0.03053250 66930.54267999 0 5321.12678902 0 39478.81703388 0 10971.22342073 0 12259.72093220 0 1041
0.03150000 0.03150510 61625.68113613 0 6022.65821720 0 33343.42040537 0 4404.73689773 0 15680.29423842 0 1036
0.03250000 0.03246190 57169.07039663 0 6545.64840769 0 36365.72218787 0 6173.78437865 0 18408.95796673 0 1059
0.03350000 0.03345080 52922.94455192 0 1657.71525487 0 26614.21499684 0 3823.65021892 0 12349.07459348 0 1302
0.03450000 0.03451200 50393.91484010 0 -637.47913634 0 27425.59495955 0 7769.27316805 0 8132.34577118 0 1339
0.03550000 0.03553350 49276.27437290 0 2408.14206946 0 24320.91508040 0 2398.18804945 0 2330.29255366 0 1365
0.03650000 0.03647120 47499.27696276 0 2521.37873538 0 18888.72180112 0 4696.49265670 0 2733.14801986 0 1308
0.03750000 0.03744890 47093.47625816 0 1007.71996256 0 17201.29949876 0 2616.64501812 0 2222.49239922 0 1579
0.03850000 0.03847530 44831.73246745 0 -1394.11641792 0 15783.48830573 0 -162.42768339 0 892.86895168 0 1662
0.03950000 0.03950240 46833.49807141 0 -1166.14832222 0 13400.61328151 0 2363.33237092 0 -5548.55234080 0 1683
0.04050000 0.04050350 46059.09967360 0 -52.66130552 0 11644.32111878 0 3367.26006222 0 -3122.80527488 0 1822
0.04150000 0.04152450 47324.55567712 0 1004.65957198 0 10210.43291011 0 -1039.71012342 0 -3261.94010855 0 1887
0.04250000 0.04250150 44033.63929452 0 3484.65992227 0 13776.85087885 0 545.72499503 0 3573.71463079 0 1920
0.04350000 0.04349210 43206.97952356 0 4225.22129545 0 13747.28777158 0 135.25730552 0 4712.93505906 0 2005
0.04450000 0.04448520 39127.71361388 0 1465.92044436 0 16665.17753104 0 2609.13798189 0 9475.17518053 0 2151
0.04550000 0.04548030 39483.02451731 0 1005.38259479 0 19329.95394514 0 2198.46545437 0 11276.49848830 0 2274
0.04650000 0.04648670 39217.84233790 0 -380.70638763 0 20284.72051426 0 712.33912444 0 10103.60712026 0 2311
0.04750000 0.04749250 39751.08550117 0 -1244.10856127 0 19146.04262991 0 4269.36665450 0 11801.43740795 0 2568
0.04850000 0.04851840 40632.11038699 0 -567.01818289 0 17889.44448624 0 -62.41458428 0 8367.61052892 0 2493
0.04950000 0.04949480 40862.08257347 0 1381.10643625 0 17596.47077154 0 2672.90350052 0 9805.91659519 0 2644
0.05050000 0.05050630 39128.15650687 0 926.69158230 0 14243.21720021 0 -75.47815599 0 6115.71003498 0 2829
0.05150000 0.05149060 38577.64051689 0 762.64623225 0 15764.44390704 0 1991.29118468 0 7463.51091818 0 2784
0.05250000 0.05249300 38965.94694828 0 -1273.14019695 0 13683.84335037 0 2156.21346286 0 3650.53442038 0 3055
0.05350000 0.05348950 37867.12943327 0 713.96343449 0 12209.34185427 0 879.23338366 0 1482.01960465 0 3009
0.05450000 0.05448610 38443.66538658 0 2492.65712480 0 13809.07134407 0 -2707.71488975 0 401.05953512 0 3336
0.05550000 0.05550870 36615.84600552 0 1504.15318196 0 12765.72617641 0 -4174.15573338 0 2571.00489521 0 3349
0.05650000 0.05647670 35864.58876657 0 458.82496093 0 16485.69514573 0 -589.57472301 0 2199.99343519 0 3324
0.05750000 0.05747970 36792.67103287 0 -814.87992459 0 14063.62409165 0 -86.82429940 0 -2147.51061555 0 3639
0.05850000 0.05849280 35359.46930835 0 182.38997781 0 14059.08443848 0 2786.08480482 0 -2823.25459923 0 3846
0.05950000 0.05951020 36517.96665412 0 479.48702627 0 12426.35942072 0 1384.10703628 0 -3002.42695945 0 3787
0.06050000 0.06049470 36006.31452425 0 -281.98996848 0 11101.99864916 0 2043.69649805 0 -3931.23999919 0 3930
0.06150000 0.06148310 35091.85121748 0 379.93353936 0 10449.41796900 0 1098.11663684 0 -2956.22214798 0 4083
0.06250000 0.06249100 35011.24469280 0 939.56537437 0 11252.13937370 0 902.15863220 0 -3437.32573368 0 4303
0.06350000 0.06350600 33381.84137249 0 1247.26417385 0 10881.34936017 0 28.30529117 0 -2100.67468157 0 4470
0.06450000 0.06451750 33425.02343928 0 1105.35240111 0 11328.87058469 0 813.01313062 0 -1665.68732874 0 4479
0.06550000 0.06550280 32130.44722149 0 1658.29101576 0 11907.06738672 0 1596.41886468 0 602.62013611 0 4636
0.06650000 0.06648880 31430.78701619 0 915.90492346 0 10465.92680530 0 183.92792372 0 1339.79559236 0 4653
0.06750000 0.06749660 30886.91442110 0 280.23721946 0 11917.25392556 0 2409.44860379 0 4428.75277026 0 5220
0.06850000 0.06852730 30890.56828829 0 146.70498215 0 12490.46818142 0 2026.58975621 0 2774.82425048 0 5029
0.06950000 0.06949320 30304.62085889 0 515.50197721 0 10622.32339337 0 1445.97918737 0 2195.13268460 0 5040
0.07050000 0.07048030 29698.85396806 0 1114.26340812 0 11027.29367361 0 1151.89824018 0 4209.90827022 0 5475
0.07150000 0.07148790 28373.93958026 0 901.62494614 0 8821.33225534 0 796.60394524 0 4203.03235651 0 5509
0.07250000 0.07249820 27863.17323638 0 261.27697044 0 9280.85587996 0 1698.83786925 0 2602.27314050 0 5916
0.07350000 0.07351270 27172.48161419 0 198.09828503 0 7962.06448779 0 1604.88919316 0 3193.40241792 0 5721
0.07450000 0.07449140 27000.41768651 0 513.13360693 0 7146.20023353 0 380.15277139 0 2017.58795613 0 6028
0.07550000 0.07549160 26301.08965096 0 1320.86191692 0 7001.50709280 0 520.54763563 0 2743.54493286 0 6183
0.07650000 0.07648840 25989.29298407 0 251.43145921 0 7408.59218708 0 -321.47498602 0 3171.50135943 0 6330
0.07750000 0.07749960 25096.53143394 0 690.62518824 0 8402.16725468 0 193.60735008 0 3637.59087267 0 6583
0.07850000 0.07848650 25951.64707969 0 481.64391515 0 9456.96120620 0 -1013.18526209 0 4450.12235716 0 6549
0.07950000 0.07947320 24322.79737562 0 397.93160335 0 10402.16128667 0 -85.04088005 0 3901.37793915 0 6828
0.08050000 0.08048110 24713.87188821 0 782.62624239 0 11129.34729146 0 -535.85733916 0 4006.97470094 0 7147
0.08150000 0.08149960 23912.56774109 0 979.54311036 0 11331.52794265 0 166.70160077 0 3307.18162776 0 7386
0.08250000 0.08250610 23360.94451862 0 916.14630014 0 11453.98785515 0 114.53766409 0 2117.96965293 0 7227
0.08350000 0.08350160 22365.21034768 0 233.43671692 0 9845.01297412 0 702.78260089 0 3192.46127031 0 7798
0.08450000 0.08449610 22595.29325741 0 -425.81393171 0 8843.01186734 0 1422.59443735 0 -215.16184481 0 7371
0.08550000 0.08548940 22767.46790834 0 -190.19153787 0 9012.37414776 0 689.79587111 0 199.01175183 0 8256
0.08650000 0.08650700 22207.42971901 0 961.01911094 0 7875.50105236 0 88.16416143 0 -1484.25621426 0 8037
0.08750000 0.08749060 21891.53629194 0 712.22286503 0 7184.68763460 0 -188.96029536 0 293.20734076 0 8155
0.08850000 0.08849210 21439.01037660 0 157.38202497 0 7687.40439834 0 259.04700422 0 32.17374001 0 8718
0.08950000 0.08949900 21384.53453849 0 -122.48759331 0 7580.16893247 0 371.14543515 0 -340.05988323 0 8571
0.09050000 0.09049190 21518.50966880 0 220.46548839 0 8249.69026960 0 -117.01122145 0 -1068.04530987 0 8932
0.09150000 0.09150830 21321.42228703 0 466.73613701 0 8321.49429605 0 -633.51635129 0 -969.91129500 0 9285
0.09250000 0.09250820 20587.10570505 0 647.69224875 0 8590.96146516 0 -162.27709977 0 -1398.98824084 0 9204
0.09350000 0.09350330 19978.34928652 0 987.98243634 0 8458.02713339 0 194.88288190 0 -1887.26669301 0 9349
0.09450000 0.09448040 19229.52795904 0 584.48809699 0 7921.28511548 0 -35.37242393 0 -2187.38205722 0 9564
0.09550000 0.09549270 18419.47667531 0 455.15337802 0 7429.33065146 0 1054.96889426 0 -1587.08489486 0 10155
0.09650000 0.09649430 18537.61838112 0 218.80131797 0 7214.01822304 0 1589.77546979 0 -1337.11608975 0 9913
0.09750000 0.09749140 17752.36910498 0 40.82355088 0 6115.58823941 0 1083.12138734 0 -1191.23821026 0 10476
0.09850000 0.09850240 18075.23809670 0 68.91968583 0 5823.81033579 0 909.73431684 0 -1846.88592440 0 10575
0.09950000 0.09950330 17650.72516315 0 363.43023922 0 5431.81682023 0 -57.20870932 0 -1613.07164120 0 10882
0.10050000 0.10051200 17676.74512647 0 668.11072295 0 5966.01220343 0 -740.21702387 0 -1210.70335729 0 10875
0.10150000 0.10150300 16611.03386268 0 489.47094156 0 5665.18821043 0 -472.79602038 0 -1044.09033512 0 11118
0.10250000 0.10250800 16723.41795959 0 169.93693408 0 6381.01400996 0 102.32998308 0 -1606.60540351 0 11575
0.10350000 0.10349800 16269.45264202 0 338.98143879 0 6039.03418561 0 164.41295123 0 -920.34714018 0 11364
0.10450000 0.10450100 16355.37388262 0 166.43697221 0 6043.28595834 0 953.35706216 0 -1077.09693541 0 12093
0.10550000 0.10551000 16026.74728200 0 -61.96504789 0 4990.40751901 0 730.53649028 0 -413.94218504 0 12067
0.10650000 0.10649700 16296.35839133 0 -253.98473732 0 5503.89765480 0 607.82191431 0 -1218.56470792 0 12054
0.10750000 0.10749900 16479.82681358 0 -10.19814263 0 5160.34556033 0 -118.56577586 0 -1565.13954706 0 12807
0.10850000 0.10850100 16056.31038926 0 535.46094993 0 5518.07023057 0 -290.19013224 0 -1078.35253704 0 12736
0.10950000 0.10950300 15538.78992724 0 677.67278267 0 5209.83885227 0 -589.30787999 0 -436.42011166 0 12933
0.11050000 0.11050200 15421.75545391 0 222.60576878 0 5873.86831629 0 279.34479008 0 -483.61368173 0 13428
0.11150000 0.11150900 15258.99227907 0 6.92063483 0 5204.32483451 0 391.79421371 0 -906.33179143 0 13453
0.11250000 0.11250000 15284.79079590 0 -97.45362051 0 5661.63399417 0 573.86641579 0 -157.24029921 0 13668
0.11350000 0.11349100 15379.90206609 0 42.69931343 0 5538.31044034 0 614.67679061 0 -415.94959753 0 13791
0.11450000 0.11448600 15255.11696539 0 283.75157536 0 5492.61495581 0 118.76729217 0 -66.66436399 0 14205
0.11550000 0.11549300 15074.85951734 0 505.35086982 0 5813.03696374 0 -171.78822679 0 257.65964192 0 14776
0.11650000 0.11649800 14532.86921747 0 609.92897773 0 6140.56740420 0 -575.24159854 0 847.02177630 0 14553
0.11750000 0.11747300 14168.36828444 0 439.93557479 0 6047.83668384 0 -54.15341201 0 1280.14897856 0 14568
0.11850000 0.11849100 13858.67535926 0 254.75204943 0 5901.31660952 0 785.45965031 0 865.93552156 0 16015
0.11950000 0.11950300 13738.31918848 0 25.93459570 0 5509.26773234 0 641.53935785 0 229.62562272 0 15270
0.12050000 0.12050700 13546.54652262 0 57.36028945 0 5182.53449927 0 560.54640904 0 160.04602632 0 15999
0.12150000 0.12150000 13521.41234528 0 247.79198605 0 4790.69599626 0 90.89382167 0 176.60911702 0 15670
0.12250000 0.12250700 13200.09347905 0 207.33149669 0 4547.69168346 0 22.74333024 0 90.31651065 0 16887
0.12350000 0.12352200 13430.17638878 0 26.59384192 0 4633.88973218 0 217.30766136 0 -107.98384430 0 16407
0.12450000 0.12449800 13092.13831206 0 -38.06288814 0 4585.90227641 0 307.55928818 0 466.18030630 0 16306
0.12550000 0.12549900 13453.87116389 0 -30.96574937 0 4448.37292984 0 354.65652903 0 580.66039430 0 17523
0.12650000 0.12650100 13188.24609149 0 -17.74926885 0 4440.73302572 0 514.34270480 0 847.90756229 0 17154
0.12750000 0.12750600 13464.72204221 0 25.21666616 0 4778.77110243 0 189.68774710 0 1004.46248460 0 18007
0.12850000 0.12850300 13155.58273327 0 452.02655349 0 4568.30835228 0 246.49430958 0 1224.01229173 0 17496
0.12950000 0.12949900 12722.65483287 0 444.42761697 0 4361.46625234 0 -103.43533327 0 1734.26930867 0 18405
0.13050000 0.13049000 12689.10568867 0 79.00745953 0 4605.06847067 0 128.19426952 0 1418.51982182 0 18100
0.13150000 0.13148800 12523.79587912 0 -38.06410609 0 4694.83180798 0 52.11610424 0 846.81583106 0 19059
0.13250000 0.13249300 12465.44472733 0 185.09162506 0 4418.14548309 0 147.93511744 0 1163.86742331 0 18957
0.13350000 0.13349100 12385.61326539 0 331.97376441 0 4301.95250644 0 426.52477497 0 1339.39698866 0 19468
0.13450000 0.13450700 12173.57824511 0 144.69535520 0 3901.14542033 0 244.66294705 0 1130.45114701 0 19953
0.13550000 0.13551000 11940.28436118 0 232.50996333 0 4158.63233399 0 542.73657457 0 750.13007628 0 19956
0.13650000 0.13649900 11669.12312637 0 311.10796829 0 4044.17771234 0 -114.68049708 0 674.57585341 0 19723
0.13750000 0.13749600 11317.13392039 0 88.11212150 0 3509.15190477 0 548.30041779 0 733.58359407 0 20946
0.13850000 0.13851100 11558.62132468 0 -241.43536437 0 3630.08383644 0 240.78763337 0 578.47582462 0 20955
0.13950000 0.13949800 11560.39289665 0 -237.02525739 0 3276.99847030 0 295.72850912 0 196.47951114 0 20506
0.14050000 0.14048300 11874.29330526 0 259.30056046 0 3538.41605927 0 167.43791037 0 336.53334777 0 21447
0.14150000 0.14148400 11617.41536947 0 451.69991991 0 3372.88480323 0 -299.28051092 0 894.21645361 0 21771
0.14250000 0.14249400 11236.52739571 0 342.21455763 0 3232.50986918 0 14.65942589 0 1194.00629147 0 22470
0.14350000 0.14350900 11052.27283840 0 139.83681906 0 3447.77800830 0 417.13322906 0 1239.94536714 0 22519
0.14450000 0.14449900 10865.10625967 0 142.73001754 0 3269.56894035 0 321.73740012 0 1036.61873033 0 22218
0.14550000 0.14550500 10840.72500041 0 140.32067966 0 3164.19362505 0 208.36454460 0 763.03044192 0 23559
0.14650000 0.14650700 10576.43967932 0 145.91552539 0 3006.82267240 0 146.04617882 0 880.70489563 0 23044
0.14750000 0.14750500 10450.30375498 0 196.19716686 0 2657.81192179 0 226.99816004 0 802.82769902 0 23649
0.14850000 0.14849900 10325.29720778 0 58.42699722 0 2450.44942259 0 318.26069012 0 748.71614040 0 23640
0.14950000 0.14949500 10223.43181945 0 -31.51726187 0 2236.13350340 0 271.24427724 0 62.56605368 0 24457
0.15050000 0.15050000 10155.81313178 0 239.79001690 0 2158.82653152 0 230.58227158 0 197.09402517 0 24591
0.15150000 0.15149900 10037.98145106 0 173.28299064 0 2163.84229466 0 -75.37009010 0 168.66693843 0 25020
0.15250000 0.15250500 9765.73512842 0 266.06685816 0 2106.57623070 0 -46.44286645 0 386.36434562 0 25297
0.15350000 0.15350100 9715.07924238 0 176.47957082 0 2374.58185293 0 -153.78794834 0 399.83050706 0 25452
0.15450000 0.15450400 9567.44086324 0 105.66851046 0 2593.62565482 0 -260.84293531 0 556.21270110 0 26061
0.15550000 0.15549900 9499.88860953 0 223.33322052 0 2767.23970798 0 -112.11725388 0 550.50491766 0 26128
0.15650000 0.15649500 9391.71199605 0 154.46446738 0 2792.72819971 0 32.41677754 0 815.05265285 0 26331
0.15750000 0.15749700 9254.14943250 0 93.08093799 0 2941.11949693 0 -99.39017012 0 588.62471754 0 27345
0.15850000 0.15849900 9253.40758674 0 51.13863941 0 2935.22902012 0 93.10418987 0 66.96519906 0 26980
0.15950000 0.15949700 9080.26964355 0 126.33079725 0 2759.42264665 0 3.40516063 0 14.60406427 0 27777
0.16050000 0.16050000 8978.80285891 0 174.26732032 0 2525.22083209 0 158.14712262 0 -104.45708740 0 28224
0.16150000 0.16150500 8977.47417993 0 20.95636774 0 2467.76653861 0 222.87925520 0 -201.30593753 0 28075
0.16250000 0.16249700 8845.72458692 0 169.93804132 0 2473.60165378 0 -68.62283681 0 -299.01477512 0 28590
0.16350000 0.16349900 8761.60813527 0 191.68962342 0 2219.63573942 0 53.77739586 0 -272.11124028 0 29163
0.16450000 0.16449100 8557.86628628 0 98.34228530 0 2210.39034820 0 103.75798081 0 -131.90682003 0 28996
0.16550000 0.16550500 8648.81436234 0 -123.91260151 0 2312.87578672 0 185.93644345 0 -59.87581092 0 30777
0.16650000 0.16650700 8639.77934529 0 7.84767630 0 2345.01874567 0 209.47399155 0 -244.05839812 0 29211
0.16750000 0.16749900 8666.06504441 0 203.57244242 0 2392.97298446 0 41.22713712 0 -20.72285241 0 30922
0.16850000 0.16850800 8508.93768291 0 108.49018172 0 2441.07116347 0 -172.69394296 0 31.02343619 0 30867
0.16950000 0.16949900 8391.42709961 0 104.44679014 0 2396.20610330 0 118.21146146 0 204.56673719 0 30852
0.17050000 0.17049200 8366.43686249 0 164.97653257 0 2745.34972181 0 -182.91037707 0 348.24565296 0 31257
0.17150000 0.17149500 8354.12443729 0 78.98874730 0 2494.43976909 0 301.31449699 0 275.50380060 0 32608
0.17250000 0.17250900 8182.21552216 0 106.08881591 0 2658.38768268 0 26.47868974 0 251.11368349 0 32361
0.17350000 0.17350400 8173.43516858 0 112.35752333 0 2578.66694399 0 -5.96801629 0 424.61147724 0 32508
0.17450000 0.17449800 8067.19621194 0 165.54565006 0 2663.09342073 0 47.39619362 0 280.12206728 0 32791
0.17550000 0.17549800 7932.37958495 0 219.71367754 0 2519.36357226 0 31.98163518 0 588.80298197 0 33633
0.17650000 0.17650100 7758.69909785 0 119.72172657 0 2499.42231526 0 203.40082138 0 561.89723266 0 33984
0.17750000 0.17750300 7566.62747922 0 100.90264969 0 2365.83471632 0 338.63266056 0 440.31646276 0 34069
0.17850000 0.17849800 7658.87101728 0 85.35179093 0 2139.93714537 0 314.06649348 0 421.23552540 0 34536
