### header ###
fiducial parameters:
Omega_m = 0.31
Omega_nu = 0
Omega_de = 0.69
Omega_k = 0
H_0 = 100
w_de = -1
zeff = 0
beta = 0
fgrowth = 0
b_1 = 2
gamma = 0.55
Lx = 3500 Ly = 3500 Lz = 3500
nx = 700 ny = 700 nz = 700
xoffset = -685.467585 yoffset = -31.7331281 zoffset = 572.489161
bins = 400 dk = 0.001
kx_ny = 0.628318531 ky_ny = 0.628318531 kz_ny = 0.628318531
############################
A(data) = 8.03924428 (not used)
A(ran) = 8.04244451 (used)
Ngal = 478102
weighted Ngal = 0
Nran = 23820508
weighted Nran = 0
SN(data) = 3482.47407
SN(ran) = 70.0526084
SN(data+ran) = 3552.52668
############################
13 columns: k_central k_mean P_0(k) sigma^{lin}_{P_0(k)} P^img_1(k) sigma^{lin}_{P_1(k)} P_2(k) sigma^{lin}_{P_2(k)} P^img_3(k) sigma^{lin}_{P_3(k)} P_4(k) sigma^{lin}_{P_4(k)} N_modes
### header ###
0.00050000 0 0 0 0 0 0 0 0 0 0 0 0
0.00150000 0.00179520 43921.25519761 0 -17152.69199281 0 53877.82184428 0 6945.52541851 0 -161902.85519569 0 3
0.00250000 0.00253879 75926.47442540 0 -10777.59060430 0 17834.41503189 0 15004.10736175 0 89758.35475860 0 6
0.00350000 0.00331552 52824.51158429 0 16653.10869699 0 9476.29348534 0 -12426.91303696 0 83608.12121483 0 7
0.00450000 0.00420575 39151.18694249 0 14693.86082033 0 -15546.09766162 0 -26617.97958727 0 -11708.09770973 0 24
0.00550000 0.00557378 46764.29604130 0 -15192.22616042 0 -3396.84531414 0 -13977.03851157 0 -31741.80862035 0 45
0.00650000 0.00659388 43475.37267717 0 -3883.83937664 0 -800.23788225 0 -48089.09970585 0 -16755.74914806 0 40
0.00750000 0.00754703 54892.04679767 0 -8932.29909467 0 -20128.37928782 0 -29955.51045736 0 -7507.65627723 0 57
0.00850000 0.00846663 65649.36397523 0 -15464.49462771 0 19575.20593988 0 -32704.99015632 0 -12707.59647111 0 75
0.00950000 0.00948925 76929.18416098 0 -6700.14055588 0 15438.91755738 0 -1879.12853427 0 -30555.40901603 0 112
0.01050000 0.01054430 81841.75323651 0 5603.43785492 0 33177.99987258 0 -501.44012469 0 17511.98893317 0 105
0.01150000 0.01145670 72217.79922739 0 10772.96237252 0 23159.98182316 0 10859.79154375 0 -10900.09480609 0 144
0.01250000 0.01249090 73755.63442146 0 -288.36984204 0 26540.69476004 0 25552.15760023 0 12350.07110272 0 169
0.01350000 0.01339930 69591.22233391 0 -1746.16098552 0 32735.43904958 0 12035.72780112 0 -2982.98395707 0 180
0.01450000 0.01448870 73529.98044165 0 866.94863928 0 15232.75086925 0 1592.46604472 0 -1379.12449011 0 267
0.01550000 0.01550050 82112.25013183 0 -6319.31901607 0 32549.64543912 0 -15882.80705936 0 11485.21181113 0 238
0.01650000 0.01653350 80554.59547635 0 781.25881027 0 33003.83220318 0 -33098.72202688 0 -17376.02078440 0 315
0.01750000 0.01747870 84031.41619265 0 10131.57581275 0 49592.83213947 0 -30286.35152294 0 2255.76473530 0 297
0.01850000 0.01844180 81650.31274040 0 6720.95652654 0 48962.59541079 0 -5475.41963537 0 -6539.17109767 0 388
0.01950000 0.01947590 82056.44561475 0 -2814.89499399 0 54118.86635559 0 5952.33788228 0 -16919.73027862 0 399
0.02050000 0.02045430 85373.82485366 0 -2480.33362727 0 51675.53643786 0 12156.41614164 0 -31439.75559930 0 462
0.02150000 0.02154770 88577.82348643 0 2960.24140189 0 54721.75444196 0 11341.27158849 0 -25520.71219775 0 571
0.02250000 0.02255340 83096.35836171 0 5930.03822010 0 45911.61630701 0 13609.65877409 0 -8135.06956308 0 510
0.02350000 0.02348930 85953.35033467 0 5652.79827896 0 58264.34476769 0 3718.05345713 0 -25422.16850686 0 555
0.02450000 0.02439640 75523.10963226 0 4757.32400925 0 46967.25175522 0 2343.50183717 0 -8058.16119489 0 592
0.02550000 0.02547300 71034.94276702 0 6933.70017561 0 46250.65089296 0 13500.59637462 0 -10709.86119338 0 837
0.02650000 0.02652900 64830.89772463 0 4705.69375863 0 37185.07422445 0 11327.43118247 0 -6875.93585703 0 723
0.02750000 0.02749970 62108.21305173 0 4561.49887251 0 37105.68565550 0 16130.93785854 0 -10606.68927072 0 826
0.02850000 0.02848090 56315.28342986 0 2215.71613643 0 30257.78492491 0 12978.86842917 0 -13738.76208147 0 831
0.02950000 0.02946900 52664.07359766 0 1418.57518344 0 25412.75703076 0 8463.28648768 0 -4606.56323452 0 996
0.03050000 0.03053250 53235.84845130 0 -32.52495415 0 19431.37644048 0 8665.83252559 0 -4241.08793691 0 1041
0.03150000 0.03150510 55894.75653325 0 -3813.25330592 0 19327.07514069 0 3763.66036305 0 -2802.11753115 0 1036
0.03250000 0.03246190 55474.45108313 0 557.70967942 0 16714.44937648 0 5424.02190356 0 3100.74920384 0 1059
0.03350000 0.03345080 56129.60054265 0 261.84165901 0 19043.95579508 0 735.92871247 0 4600.15235845 0 1302
0.03450000 0.03451200 55062.89276962 0 25.04570946 0 15740.63840868 0 5299.00428403 0 2954.28449114 0 1339
0.03550000 0.03553350 55159.77561179 0 1035.43509881 0 12800.27182984 0 6246.82850548 0 -1211.67772188 0 1365
0.03650000 0.03647120 54501.63662457 0 1375.71421407 0 15624.37899809 0 -3053.57002779 0 -3159.75362280 0 1308
0.03750000 0.03744890 52502.30693206 0 2994.35523466 0 12819.31622853 0 -1361.29804715 0 -322.37959495 0 1579
0.03850000 0.03847530 49125.46930887 0 1799.25278303 0 9537.78917738 0 -4048.00873672 0 -4707.81964499 0 1662
0.03950000 0.03950240 48868.36992658 0 1653.68492864 0 14339.10353314 0 -2134.11310252 0 -8617.38003218 0 1683
0.04050000 0.04050350 48076.69870205 0 576.43187345 0 12137.92535919 0 -385.32022539 0 -9548.41860921 0 1822
0.04150000 0.04152450 45574.79618603 0 3158.76818589 0 11931.53722457 0 3803.65360030 0 -7681.89038058 0 1887
0.04250000 0.04250150 43851.38882801 0 2592.36340979 0 10958.32416231 0 1599.93986397 0 -2537.76577611 0 1920
0.04350000 0.04349210 41161.58895981 0 762.14133424 0 12013.80459798 0 4288.22282366 0 -499.12600880 0 2005
0.04450000 0.04448520 40810.15337007 0 554.14992699 0 13092.13831206 0 3439.48483701 0 975.46074420 0 2151
0.04550000 0.04548030 40764.09249882 0 150.62458514 0 10734.59676703 0 2418.93758616 0 -1610.65787439 0 2274
0.04650000 0.04648670 39583.67194991 0 1455.73390553 0 13257.33739836 0 -1723.36306872 0 5341.33378181 0 2311
0.04750000 0.04749250 39637.92634152 0 1732.69703855 0 15189.34735596 0 -2819.75574459 0 2766.75252568 0 2568
0.04850000 0.04851840 38706.85454752 0 1583.68569114 0 17360.07663666 0 -590.76056900 0 5099.37026755 0 2493
0.04950000 0.04949480 36741.51689221 0 1529.98491577 0 16350.39133645 0 -2475.55038295 0 6878.91431241 0 2644
0.05050000 0.05050630 37181.97397350 0 754.55900621 0 16558.88321278 0 3353.45287317 0 3423.06457931 0 2829
0.05150000 0.05149060 37407.29578356 0 -1787.21716595 0 16554.12211311 0 2624.57280269 0 4814.24683115 0 2784
0.05250000 0.05249300 37063.72154443 0 211.51572824 0 14990.70984872 0 1713.56406126 0 1785.41237701 0 3055
0.05350000 0.05348950 37329.78950983 0 530.14623401 0 12962.92428143 0 1661.32483276 0 4408.04752285 0 3009
0.05450000 0.05448610 36726.56925371 0 263.81031836 0 14216.53289740 0 1446.21170619 0 1496.09252950 0 3336
0.05550000 0.05550870 35708.91187962 0 1113.72086421 0 12193.72987628 0 686.45756518 0 4843.36704542 0 3349
0.05650000 0.05647670 35187.18393417 0 587.38129547 0 12182.10393522 0 1034.39097858 0 261.86269643 0 3324
0.05750000 0.05747970 34136.64175538 0 1104.54412140 0 12204.91292435 0 509.38119605 0 3004.99573881 0 3639
0.05850000 0.05849280 33464.21946914 0 1789.78594531 0 11016.49815691 0 1147.25893608 0 1883.18100516 0 3846
0.05950000 0.05951020 31954.06508712 0 1020.96357027 0 12335.01274096 0 969.42632717 0 2495.67986947 0 3787
0.06050000 0.06049470 31550.47884748 0 962.69656815 0 11745.07927463 0 1954.30961979 0 3917.24458061 0 3930
0.06150000 0.06148310 31046.79879148 0 88.12629408 0 12316.96485151 0 832.41073647 0 2901.85703312 0 4083
0.06250000 0.06249100 30631.47588754 0 1035.69751291 0 13359.53495643 0 516.07995256 0 2891.78121754 0 4303
0.06350000 0.06350600 30308.82834232 0 12.76306882 0 11893.22698070 0 120.56543772 0 3815.57849413 0 4470
0.06450000 0.06451750 29776.91385803 0 131.61451065 0 12135.37872448 0 823.14098613 0 2407.82097204 0 4479
0.06550000 0.06550280 31109.35742671 0 -467.60199281 0 12768.93715061 0 -391.35242795 0 4091.25723746 0 4636
0.06650000 0.06648880 31415.50720795 0 -374.59778603 0 11926.66540165 0 1628.93828267 0 2033.19993412 0 4653
0.06750000 0.06749660 30136.76441464 0 571.77374640 0 11705.77252152 0 1400.63801723 0 4299.23978686 0 5220
0.06850000 0.06852730 30420.88026949 0 1095.69069047 0 11421.54594343 0 2181.79053319 0 2908.82152543 0 5029
0.06950000 0.06949320 29327.37747040 0 853.79139570 0 10014.00986783 0 2168.95770872 0 6104.93666293 0 5040
0.07050000 0.07048030 28670.23499241 0 703.58977337 0 10514.22428616 0 2495.00445766 0 4192.84581768 0 5475
0.07150000 0.07148790 27981.64711194 0 249.80050577 0 9468.70894284 0 1135.01294483 0 6441.35818022 0 5509
0.07250000 0.07249820 27753.66794392 0 693.82951904 0 8548.06727882 0 60.83544931 0 4235.70678705 0 5916
0.07350000 0.07351270 26769.33826754 0 202.25483576 0 8578.94799274 0 -946.08808092 0 3813.00971477 0 5721
0.07450000 0.07449140 26972.29398147 0 350.48004811 0 10109.49759707 0 -270.56997266 0 3310.66941007 0 6028
0.07550000 0.07549160 26197.78486041 0 985.62735285 0 9757.89592245 0 -1505.98011556 0 1941.25534883 0 6183
0.07650000 0.07648840 25586.81397691 0 1085.28270514 0 9629.27979736 0 -299.53628162 0 1181.01845446 0 6330
0.07750000 0.07749960 25337.90811499 0 614.06559828 0 9583.56216818 0 762.82338945 0 1418.34266462 0 6583
0.07850000 0.07848650 24621.41797598 0 0.30639780 0 9312.20163153 0 -134.15228750 0 900.63840200 0 6549
0.07950000 0.07947320 24941.85105623 0 385.65903853 0 9703.61938619 0 1189.42234899 0 -221.39556368 0 6828
0.08050000 0.08048110 23670.63744380 0 730.78008143 0 9324.76872019 0 1035.85031099 0 820.06287983 0 7147
0.08150000 0.08149960 23570.54362744 0 380.51151472 0 9025.04088735 0 -91.18103777 0 353.49947109 0 7386
0.08250000 0.08250610 22865.45798299 0 693.71768856 0 9304.45100415 0 435.78456021 0 -128.34706760 0 7227
0.08350000 0.08350160 22596.95410613 0 528.98031821 0 9121.45869187 0 -1294.35477130 0 1079.66903646 0 7798
0.08450000 0.08449610 22096.26357784 0 425.18723813 0 9981.00326755 0 104.89521929 0 1552.47280747 0 7371
0.08550000 0.08548940 22203.66512858 0 290.66624221 0 9702.54537068 0 279.84858086 0 2007.99932284 0 8256
0.08650000 0.08650700 22114.09002079 0 -121.42797182 0 9859.57308126 0 1850.90517831 0 1825.02915521 0 8037
0.08750000 0.08749060 21745.27088108 0 1.30304655 0 8678.16709544 0 2141.01116088 0 2600.93338920 0 8155
0.08850000 0.08849210 21906.48393044 0 -27.27600785 0 8162.27426516 0 2429.73310285 0 2299.35647811 0 8718
0.08950000 0.08949900 21607.64188359 0 706.83175008 0 7062.44916860 0 1675.74099968 0 2649.88413722 0 8571
0.09050000 0.09049190 20693.40002331 0 1162.90413105 0 5945.86057226 0 1084.06917834 0 2795.90595693 0 8932
0.09150000 0.09150830 19633.66781492 0 709.51900331 0 5137.96839187 0 35.53452276 0 2439.03385570 0 9285
0.09250000 0.09250820 18934.11833288 0 367.05753283 0 5321.28180157 0 -208.21838991 0 1601.55642339 0 9204
0.09350000 0.09350330 18812.65492962 0 82.19119581 0 5364.37528976 0 -739.27144733 0 69.31098179 0 9349
0.09450000 0.09448040 18886.50733616 0 -8.54649501 0 5729.95023830 0 -1456.39824502 0 -127.45685268 0 9564
0.09550000 0.09549270 18838.89633944 0 105.66109200 0 6213.88833915 0 -1047.21383795 0 -118.70639438 0 10155
0.09650000 0.09649430 18634.39050004 0 498.14832252 0 7229.45304384 0 -809.73904417 0 -264.57209431 0 9913
0.09750000 0.09749140 18401.87167885 0 913.15455798 0 7808.09273886 0 -77.65442144 0 -1184.32907958 0 10476
0.09850000 0.09850240 17741.07533367 0 565.91205764 0 8153.13959718 0 -196.70538657 0 -510.12747074 0 10575
0.09950000 0.09950330 17418.87068145 0 341.68640774 0 8009.32117012 0 -119.19025498 0 -596.40634743 0 10882
0.10050000 0.10051200 17072.97125411 0 173.47675633 0 8377.47597034 0 688.04865825 0 46.72620724 0 10875
0.10150000 0.10150300 17301.83620811 0 -114.66167412 0 7724.08701046 0 949.64672612 0 -1005.50881929 0 11118
0.10250000 0.10250800 17048.72286276 0 -48.11556256 0 6468.13106163 0 935.62694843 0 -1752.12896860 0 11575
0.10350000 0.10349800 16964.46247089 0 101.84811550 0 6018.48395075 0 390.52643252 0 -1290.62339784 0 11364
0.10450000 0.10450100 16777.78307445 0 519.05065731 0 5414.28933004 0 -30.46284438 0 -1991.76729465 0 12093
0.10550000 0.10551000 16318.39231772 0 439.21144474 0 5683.46861871 0 -82.68147835 0 -1644.11844000 0 12067
0.10650000 0.10649700 16125.95531237 0 254.79855319 0 5380.49659470 0 62.64001681 0 -2385.94205820 0 12054
0.10750000 0.10749900 15613.86028951 0 174.12891626 0 5092.60507709 0 540.85095765 0 -1197.98125608 0 12807
0.10850000 0.10850100 15786.36711018 0 63.69520937 0 4976.93249971 0 1020.81630835 0 -1808.05528126 0 12736
0.10950000 0.10950300 15458.62629555 0 345.48642962 0 4685.89644185 0 560.68592033 0 -1345.76357543 0 12933
0.11050000 0.11050200 15444.89661278 0 490.69996962 0 4458.36016683 0 400.95102633 0 -1436.53449430 0 13428
0.11150000 0.11150900 14834.36862228 0 152.64417718 0 4385.95823484 0 -72.05171436 0 -614.33133408 0 13453
0.11250000 0.11250000 14660.97601562 0 139.48914807 0 4666.42022249 0 437.12209705 0 -716.34952049 0 13668
0.11350000 0.11349100 14793.40102045 0 -59.55947460 0 4156.82754504 0 313.86608440 0 -1197.89267748 0 13791
0.11450000 0.11448600 14922.39360459 0 148.98145213 0 4696.81375412 0 -137.89805499 0 -356.00070927 0 14205
0.11550000 0.11549300 14511.38890732 0 206.19990510 0 4349.71851571 0 -133.42151406 0 -754.62876185 0 14776
0.11650000 0.11649800 14533.53355696 0 262.67429784 0 4732.96489465 0 167.31611480 0 -171.94102488 0 14553
0.11750000 0.11747300 14279.09153262 0 244.74045333 0 5107.77416209 0 12.64581290 0 -173.19662651 0 14568
0.11850000 0.11849100 14147.99520677 0 198.75376666 0 4953.02735042 0 292.97592917 0 369.57759396 0 16015
0.11950000 0.11950300 14197.93139170 0 -46.25939803 0 4751.06814573 0 370.33715544 0 391.37346536 0 15270
0.12050000 0.12050700 13885.58110857 0 137.95341661 0 4377.86436539 0 292.43338525 0 239.54310406 0 15999
0.12150000 0.12150000 14041.36871877 0 236.19372580 0 4762.11832590 0 245.83882795 0 221.85063623 0 15670
0.12250000 0.12250700 13759.46732888 0 120.68612606 0 3851.69641769 0 168.66693843 0 -225.75363073 0 16887
0.12350000 0.12352200 13613.75553427 0 12.58724030 0 3810.04233172 0 386.00560229 0 -309.27106960 0 16407
0.12450000 0.12449800 13467.26867692 0 78.00209244 0 3612.81100973 0 123.96796313 0 -971.66625848 0 16306
0.12550000 0.12549900 13547.10013886 0 107.01147274 0 3701.97644149 0 117.41536131 0 -836.37905769 0 17523
0.12650000 0.12650100 13338.05464629 0 210.59118912 0 3689.29862957 0 -161.19090471 0 -182.27814733 0 17154
0.12750000 0.12750600 13264.31296299 0 424.52843480 0 3604.34068124 0 343.74364569 0 237.00311274 0 18007
0.12850000 0.12850300 13051.28143348 0 148.28721737 0 3871.17263704 0 6.98540793 0 411.82626377 0 17496
0.12950000 0.12949900 13031.79414180 0 16.27244217 0 3904.09065873 0 348.77048116 0 426.76504442 0 18405
0.13050000 0.13049000 12954.62003782 0 262.17715045 0 3915.71659979 0 48.69630600 0 345.59383117 0 18100
0.13150000 0.13148800 12638.61588749 0 350.25085099 0 3817.37221075 0 -28.86078970 0 836.96589090 0 19059
0.13250000 0.13249300 12616.58196110 0 21.87581359 0 3902.56267790 0 -106.31956316 0 481.96611980 0 18957
0.13350000 0.13349100 12418.38734685 0 49.83409810 0 4185.00661170 0 395.68281418 0 604.23226661 0 19468
0.13450000 0.13450700 12397.34992969 0 281.79177387 0 3866.90979199 0 144.75293128 0 398.00025177 0 19953
0.13550000 0.13551000 12109.35876116 0 181.49422673 0 3705.16527104 0 374.62546684 0 499.93207405 0 19956
0.13650000 0.13649900 11881.71176289 0 68.22456528 0 3462.80315308 0 425.66224086 0 374.09067356 0 19723
0.13750000 0.13749600 11718.94858806 0 301.97772924 0 3198.49568734 0 420.10504104 0 331.78664212 0 20946
0.13850000 0.13851100 11593.05625487 0 271.74253186 0 2801.32032377 0 456.01369766 0 690.25205089 0 20955
0.13950000 0.13949800 11276.05559531 0 81.31083526 0 2640.79375855 0 191.74277058 0 336.56102858 0 20506
0.14050000 0.14048300 11134.55128413 0 146.75037868 0 2413.95503999 0 77.43563230 0 139.10161670 0 21447
0.14150000 0.14148400 11004.51790146 0 257.84565698 0 2615.07274799 0 -165.20351522 0 -99.07837345 0 21771
0.14250000 0.14249400 10765.31139607 0 271.69713533 0 2580.10634622 0 -342.53233336 0 25.99859374 0 22470
0.14350000 0.14350900 10555.98909538 0 173.65834246 0 2711.86701156 0 -142.79755872 0 86.19007664 0 22519
0.14450000 0.14449900 10481.79344677 0 292.22079661 0 2604.04471247 0 -99.07195150 0 -24.25824572 0 22218
0.14550000 0.14550500 10334.44294808 0 92.45668032 0 2694.01842395 0 37.32779649 0 -524.45505906 0 23559
0.14650000 0.14650700 10320.11535977 0 46.18997455 0 2710.39439236 0 162.21952369 0 -219.28185687 0 23044
0.14750000 0.14750500 10136.45870800 0 79.12870149 0 2732.91550104 0 -3.08613374 0 -573.78226612 0 23649
0.14850000 0.14849900 10181.58950396 0 43.81440726 0 2612.11643727 0 -76.59402489 0 -384.81311291 0 23640
0.14950000 0.14949500 10339.43656658 0 -49.66900973 0 2827.56173359 0 -46.99714703 0 -570.45946145 0 24457
0.15050000 0.15050000 10211.30762377 0 99.99250459 0 2599.16181723 0 -17.79998010 0 -204.54016361 0 24591
0.15150000 0.15149900 10107.58208487 0 261.49288078 0 2624.19634364 0 176.25701709 0 -224.51795928 0 25020
0.15250000 0.15250500 10032.30134843 0 177.93558153 0 2703.02022403 0 321.46944985 0 146.94857330 0 25297
0.15350000 0.15350100 9762.05911658 0 125.97980455 0 2462.83935406 0 343.94959093 0 153.15571859 0 25452
0.15450000 0.15450400 9770.72874692 0 179.60528812 0 2706.89553771 0 176.55154093 0 -149.60039509 0 26061
0.15550000 0.15549900 9550.14589188 0 124.67659192 0 2354.00947342 0 99.98220733 0 87.33141188 0 26128
0.15650000 0.15649500 9444.30553894 0 119.78594605 0 2504.77024815 0 -44.12553959 0 -117.49729651 0 26331
0.15750000 0.15749700 9543.92324533 0 93.75712487 0 2565.45766048 0 -285.98597051 0 63.83604934 0 27345
0.15850000 0.15849900 9431.90453514 0 29.40377651 0 2970.92619534 0 -341.08296604 0 -227.23732225 0 26980
0.15950000 0.15949700 9374.94849627 0 212.82004811 0 3102.96366880 0 -253.72896661 0 76.28654643 0 27777
0.16050000 0.16050000 9463.71532434 0 111.80944325 0 3427.32742436 0 -19.24724368 0 174.37361464 0 28224
0.16150000 0.16150500 9233.15630465 0 21.16973144 0 3274.13073817 0 225.06714659 0 602.84158261 0 28075
0.16250000 0.16249700 9241.48269291 0 129.91158710 0 3016.30058245 0 621.14524277 0 384.09230456 0 28590
0.16350000 0.16349900 9190.68286664 0 15.25866011 0 3091.69204214 0 474.81339797 0 580.54524212 0 29163
0.16450000 0.16449100 8970.65362784 0 240.72673558 0 2863.17033020 0 301.94672673 0 422.37486762 0 28996
0.16550000 0.16550500 8747.66807832 0 344.77780083 0 2511.76795743 0 292.03035263 0 725.94147548 0 30777
0.16650000 0.16650700 8578.08435140 0 148.83972637 0 2440.81650000 0 155.32921595 0 895.51855901 0 29211
0.16750000 0.16749900 8374.32035776 0 120.79242038 0 2322.63050488 0 -109.53695931 0 404.14207035 0 30922
0.16850000 0.16850800 8193.40964255 0 124.58247716 0 2476.87906193 0 25.10295338 0 231.40162362 0 30867
0.16950000 0.16949900 8318.62656392 0 152.51463098 0 2408.06456318 0 -348.05853067 0 6.34176262 0 30852
0.17050000 0.17049200 8094.81059004 0 166.84664823 0 2508.30231977 0 -377.89180267 0 94.55986842 0 31257
0.17150000 0.17149500 8072.06803486 0 13.16233685 0 2580.56031153 0 -15.36882974 0 17.55483883 0 32608
0.17250000 0.17250900 7946.25320795 0 38.89076586 0 2542.79261158 0 222.61905557 0 -220.48874028 0 32361
0.17350000 0.17350400 8045.49445530 0 88.00715587 0 2562.83351950 0 240.73227174 0 -122.51748858 0 32508
0.17450000 0.17449800 7950.99216297 0 14.76893118 0 2442.70986754 0 380.12287612 0 -8.31454088 0 32791
0.17550000 0.17549800 7925.69190076 0 -18.28062972 0 2175.04748737 0 463.88169167 0 145.46377454 0 33633
0.17650000 0.17650100 7945.68851938 0 -19.86286494 0 2141.96338082 0 37.06039985 0 79.38679738 0 33984
0.17750000 0.17750300 7921.81658707 0 38.57653328 0 1992.47592344 0 266.77216525 0 117.52940625 0 34069
0.17850000 0.17849800 7963.70319186 0 88.62554521 0 1963.02353942 0 -98.50792728 0 307.12746752 0 34536
