### header ###
fiducial parameters:
Omega_m = 0.31
Omega_nu = 0
Omega_de = 0.69
Omega_k = 0
H_0 = 100
w_de = -1
zeff = 0
beta = 0
fgrowth = 0
b_1 = 2
gamma = 0.55
Lx = 3500 Ly = 3500 Lz = 3500
nx = 700 ny = 700 nz = 700
xoffset = -685.467585 yoffset = -31.7331281 zoffset = 572.489161
bins = 400 dk = 0.001
kx_ny = 0.628318531 ky_ny = 0.628318531 kz_ny = 0.628318531
############################
A(data) = 8.08238959 (not used)
A(ran) = 8.08453053 (used)
Ngal = 480388
weighted Ngal = 0
Nran = 23820508
weighted Nran = 0
SN(data) = 3484.22001
SN(ran) = 70.4191929
SN(data+ran) = 3554.6392
############################
13 columns: k_central k_mean P_0(k) sigma^{lin}_{P_0(k)} P^img_1(k) sigma^{lin}_{P_1(k)} P_2(k) sigma^{lin}_{P_2(k)} P^img_3(k) sigma^{lin}_{P_3(k)} P_4(k) sigma^{lin}_{P_4(k)} N_modes
### header ###
0.00050000 0 0 0 0 0 0 0 0 0 0 0 0
0.00150000 0.00179520 41573.36871982 0 -18032.49892290 0 7279.42244575 0 17767.31674349 0 -14743.13266577 0 3
0.00250000 0.00253879 68119.48891902 0 -7232.15469109 0 14448.27665585 0 -46808.58534057 0 -31967.68404665 0 6
0.00350000 0.00331552 59429.59623160 0 9391.52376653 0 -5627.36514885 0 29988.28453882 0 93845.26057241 0 7
0.00450000 0.00420575 66536.47863970 0 -7509.57178943 0 9876.89019728 0 12470.53799674 0 11111.85301825 0 24
0.00550000 0.00557378 65567.76094132 0 5207.92334007 0 14941.99161952 0 8560.55686121 0 -30969.95685724 0 45
0.00650000 0.00659388 71924.05044996 0 13865.42947740 0 57806.06124344 0 -20734.92124138 0 -91.46615014 0 40
0.00750000 0.00754703 66953.79456211 0 -7191.66319923 0 39083.31359135 0 -23981.54832471 0 5337.96779507 0 57
0.00850000 0.00846663 70541.89214284 0 -17867.74272959 0 58606.36888134 0 7862.11461165 0 46257.18356460 0 75
0.00950000 0.00948925 79690.40052425 0 -63.41596534 0 48316.41453438 0 -6872.02732637 0 -16024.53281703 0 112
0.01050000 0.01054430 100735.78975355 0 -9403.54831128 0 63339.01267857 0 23184.67310751 0 1020.08221322 0 105
0.01150000 0.01145670 104695.36383194 0 -5135.89786713 0 53433.48944931 0 -4161.87652516 0 -17740.85388717 0 144
0.01250000 0.01249090 103644.48948341 0 11654.95055060 0 50784.54645970 0 6814.04156129 0 -965.90864958 0 169
0.01350000 0.01339930 102174.08474749 0 14909.10681480 0 64338.51143995 0 14016.12381818 0 8806.92716075 0 180
0.01450000 0.01448870 88537.29877760 0 3379.11852210 0 48826.07364578 0 29822.97472928 0 -10298.61290497 0 267
0.01550000 0.01550050 86993.81669788 0 127.24426405 0 34736.65103730 0 25472.54758478 0 14882.09034225 0 238
0.01650000 0.01653350 78673.96110590 0 5298.63889731 0 28390.76951399 0 24910.51637699 0 -1924.69115090 0 315
0.01750000 0.01747870 77651.32118565 0 6856.60357790 0 34821.46504541 0 1363.22463167 0 23257.41828157 0 297
0.01850000 0.01844180 72656.04184372 0 2399.15134170 0 31516.59753354 0 2974.19253116 0 -1251.72632075 0 388
0.01950000 0.01947590 78945.78668020 0 4198.66986053 0 33933.24314846 0 -6084.29784947 0 29220.86170564 0 399
0.02050000 0.02045430 69512.60882770 0 1449.58876526 0 27113.90901590 0 6726.92450962 0 22336.64374965 0 462
0.02150000 0.02154770 73154.62863030 0 -4491.52177966 0 27668.85393581 0 15370.49059000 0 17948.79214727 0 571
0.02250000 0.02255340 75718.09327231 0 -1066.21173288 0 19371.25371672 0 13258.77680058 0 2026.83334735 0 510
0.02350000 0.02348930 75319.15740910 0 3987.33239672 0 24486.11416669 0 -1428.05309348 0 2048.36901912 0 555
0.02450000 0.02439640 67036.94772150 0 9029.69126378 0 17381.55694681 0 -3736.57745655 0 15862.54470494 0 592
0.02550000 0.02547300 64116.62205058 0 1614.06815044 0 25604.64041987 0 -12826.73468616 0 6153.75454306 0 837
0.02650000 0.02652900 63111.91929654 0 486.36072552 0 35395.01147101 0 -4390.06606735 0 11624.72310385 0 723
0.02750000 0.02749970 67848.21696096 0 4059.62360546 0 41497.08040182 0 -3572.81777248 0 6005.05322074 0 826
0.02850000 0.02848090 63968.80651425 0 3156.18833420 0 43419.90032983 0 6771.09201332 0 13120.26201710 0 831
0.02950000 0.02946900 61005.74166954 0 5069.09853150 0 39183.18596122 0 5799.51765513 0 15705.76058551 0 996
0.03050000 0.03053250 60141.32527094 0 4608.17979395 0 38663.56175748 0 7712.85967310 0 9519.88522815 0 1041
0.03150000 0.03150510 54965.45631122 0 -432.53372565 0 38602.55324773 0 7710.63413581 0 10496.61928970 0 1036
0.03250000 0.03246190 52202.91126897 0 2604.64261801 0 31742.14079010 0 7737.88312719 0 88.04435888 0 1059
0.03350000 0.03345080 51934.07522237 0 1704.81692465 0 24629.72221959 0 7083.58623668 0 -918.50470533 0 1302
0.03450000 0.03451200 48115.00894592 0 329.33522941 0 19257.54094083 0 7221.44775299 0 -3566.47333036 0 1339
0.03550000 0.03553350 50754.20828970 0 -1617.71094530 0 13010.20310841 0 4537.21726418 0 -6587.91147152 0 1365
0.03650000 0.03647120 49153.37156742 0 -1949.22742270 0 12032.07393393 0 4331.48239673 0 -9549.95766236 0 1308
0.03750000 0.03744890 50366.67692104 0 757.64818483 0 13509.23278798 0 2903.66182207 0 -4913.20019805 0 1579
0.03850000 0.03847530 49198.32520618 0 2918.80876242 0 13152.81465207 0 -518.47821812 0 1868.28872827 0 1662
0.03950000 0.03950240 46618.03063044 0 3598.74915721 0 16303.11250947 0 1310.09961719 0 9111.70397371 0 1683
0.04050000 0.04050350 45373.61204408 0 2015.74995021 0 19550.18248579 0 2414.12112486 0 14957.49287426 0 1822
0.04150000 0.04152450 43366.08883121 0 591.72164680 0 20434.41834580 0 3718.21954200 0 13705.76655351 0 1887
0.04250000 0.04250150 43628.83509915 0 -285.41463855 0 19471.67970282 0 3911.67520123 0 17794.55466254 0 1920
0.04350000 0.04349210 42685.69447110 0 444.71660464 0 15609.20991309 0 4508.44029198 0 12443.52152419 0 2005
0.04450000 0.04448520 42245.34811306 0 1325.47907636 0 17957.76073037 0 -1732.68596622 0 11664.69419644 0 2151
0.04550000 0.04548030 41297.88927833 0 1661.16982022 0 18322.04021690 0 -1293.84544436 0 7177.28024929 0 2274
0.04650000 0.04648670 40062.21782857 0 2894.50500944 0 14496.55199206 0 -3556.35322548 0 8606.35199666 0 2311
0.04750000 0.04749250 39516.13076852 0 344.13560599 0 15639.99097608 0 -115.34262210 0 5629.33602267 0 2568
0.04850000 0.04851840 39672.13982521 0 -482.00487294 0 16089.41664047 0 3216.41070889 0 5158.66256696 0 2493
0.04950000 0.04949480 39723.29396587 0 -436.26731357 0 13250.47255697 0 2271.05561588 0 2557.30842941 0 2644
0.05050000 0.05050630 39184.62536344 0 690.92414101 0 12779.78802893 0 3545.36947926 0 -1086.24046124 0 2829
0.05150000 0.05149060 38176.60091196 0 1794.75741915 0 14360.80528978 0 94.87255087 0 1071.90290783 0 2784
0.05250000 0.05249300 36468.03046919 0 1583.55282324 0 13729.68277512 0 -4514.41934738 0 -619.93393043 0 3055
0.05350000 0.05348950 36347.56357516 0 2063.77062295 0 18270.55390650 0 -4071.38241441 0 -411.41326605 0 3009
0.05450000 0.05448610 34863.65060297 0 1431.83982857 0 19499.13906837 0 -3771.36670113 0 282.44614826 0 3336
0.05550000 0.05550870 34665.67743521 0 443.57061902 0 22886.93829313 0 -566.02942429 0 854.74472286 0 3349
0.05650000 0.05647670 35101.81630982 0 -1293.42469601 0 23275.35544777 0 2549.80139319 0 -1480.48055150 0 3324
0.05750000 0.05747970 35915.18929099 0 -58.62762774 0 20692.51423733 0 4017.98059181 0 -2550.10034596 0 3639
0.05850000 0.05849280 34649.40111773 0 1379.89955285 0 19405.35647716 0 4719.75561115 0 1911.11648067 0 3846
0.05950000 0.05951020 33581.91828196 0 1654.39355743 0 18271.77186223 0 3611.05051008 0 2436.29899147 0 3787
0.06050000 0.06049470 31433.44437415 0 1777.53995406 0 15889.89334724 0 3544.17366817 0 5259.64216930 0 3930
0.06150000 0.06148310 30388.99197401 0 1401.92240691 0 14977.53378218 0 1607.95622714 0 3515.82851664 0 4083
0.06250000 0.06249100 29206.46768338 0 -35.17644378 0 14241.00273525 0 669.94429994 0 4989.84283045 0 4303
0.06350000 0.06350600 30251.69514626 0 -667.47406427 0 14302.78630773 0 1478.73112418 0 3644.64394358 0 4470
0.06450000 0.06451750 30919.46705607 0 -1319.68825048 0 14218.63663911 0 237.02968632 0 3526.08148942 0 4479
0.06550000 0.06550280 30778.51636113 0 -253.30378934 0 12647.03085435 0 1291.35417127 0 1469.71825178 0 4636
0.06650000 0.06648880 31280.31412191 0 1271.08074453 0 13275.60673431 0 125.56569961 0 2060.85860152 0 4653
0.06750000 0.06749660 30912.04859844 0 533.30959721 0 12559.78093478 0 694.55475632 0 770.32267505 0 5220
0.06850000 0.06852730 29271.90512306 0 599.16003461 0 11465.50307296 0 1418.80770226 0 725.54508625 0 5029
0.06950000 0.06949320 29819.43158534 0 472.35423462 0 10096.36581983 0 -406.49161767 0 -1942.38472596 0 5040
0.07050000 0.07048030 28689.94373059 0 496.31806723 0 11253.68949918 0 800.35192719 0 -1727.73663703 0 5475
0.07150000 0.07148790 28589.29629799 0 194.61271717 0 10627.42773511 0 642.79274502 0 -975.69990641 0 5509
0.07250000 0.07249820 28072.21872895 0 723.35940933 0 10429.08918063 0 -76.03631189 0 -1937.03679307 0 5916
0.07350000 0.07351270 28022.72543702 0 564.29106929 0 10852.02984405 0 304.64505229 0 -335.40397064 0 5721
0.07450000 0.07449140 27640.39806103 0 253.66031820 0 12428.35243919 0 291.37708546 0 -1494.55347635 0 6028
0.07550000 0.07549160 27174.47463266 0 701.16382700 0 11369.06312379 0 -93.57841754 0 -109.46875378 0 6183
0.07650000 0.07648840 26845.73730879 0 627.14644282 0 12321.39378144 0 1454.83704722 0 761.01970774 0 6330
0.07750000 0.07749960 26252.92503800 0 22.44470964 0 11415.89905777 0 1406.57278334 0 202.22826219 0 6583
0.07850000 0.07848650 26452.66977773 0 405.54161220 0 11303.95785385 0 1286.99167530 0 504.71864007 0 6549
0.07950000 0.07947320 26236.09510428 0 747.90011006 0 10201.79649675 0 394.02971609 0 -804.12316102 0 6828
0.08050000 0.08048110 25576.95960782 0 986.33598163 0 11029.36419835 0 -384.29603534 0 1750.58991545 0 7147
0.08150000 0.08149960 24957.02014123 0 565.39387284 0 9634.45057305 0 -427.52239143 0 -383.90407504 0 7386
0.08250000 0.08250610 24634.26187277 0 -18.97530738 0 10436.95053125 0 -951.92430333 0 -147.11687263 0 7227
0.08350000 0.08350160 24226.57887294 0 427.93428192 0 11564.37893359 0 2.34282643 0 -1339.39698866 0 7798
0.08450000 0.08449610 24853.16173443 0 447.43707485 0 12117.88445127 0 -642.25573727 0 -1038.54310039 0 7371
0.08550000 0.08548940 23532.89772305 0 505.60221159 0 12031.85248743 0 401.27876715 0 110.75203623 0 8256
0.08650000 0.08650700 23180.13345433 0 1045.98702436 0 11734.44984280 0 1050.65179481 0 278.08033059 0 8037
0.08750000 0.08749060 22596.62193639 0 926.72812097 0 12518.59188646 0 1571.51720616 0 1244.68432216 0 8155
0.08850000 0.08849210 21393.28167510 0 1078.10562420 0 11392.97934539 0 1742.01993604 0 2361.23970153 0 8718
0.08950000 0.08949900 20432.53605059 0 678.80215980 0 10241.71222773 0 2631.49300570 0 2175.32429550 0 8571
0.09050000 0.09049190 19975.47048207 0 187.33930700 0 9368.65941578 0 1612.51802496 0 3250.35845679 0 8932
0.09150000 0.09150830 19612.85184426 0 160.39812625 0 8627.64407729 0 1278.42169589 0 2174.56030508 0 9285
0.09250000 0.09250820 18986.71187577 0 600.42781580 0 8327.50656843 0 376.21323822 0 2093.35587486 0 9204
0.09350000 0.09350330 18454.46522173 0 799.12622083 0 6652.52955916 0 132.66084535 0 2568.12609076 0 9349
0.09450000 0.09448040 17946.79912880 0 227.25171628 0 7430.50431790 0 -121.03822599 0 2393.63732394 0 9564
0.09550000 0.09549270 18080.55281261 0 -345.83410062 0 6856.58143325 0 687.16397950 0 886.40160675 0 10155
0.09650000 0.09649430 18227.15039321 0 -48.48925352 0 6913.29388097 0 739.97564719 0 1056.63638637 0 9913
0.09750000 0.09749140 17862.42801368 0 279.88290507 0 6135.35233921 0 267.17519787 0 772.35666112 0 10476
0.09850000 0.09850240 17982.23056822 0 276.72618526 0 6073.05943978 0 837.63133762 0 652.66372260 0 10575
0.09950000 0.09950330 17598.90668300 0 230.12277010 0 5790.63765063 0 261.34894055 0 326.77309344 0 10882
0.10050000 0.10051200 17256.21822986 0 404.22732725 0 5604.22398998 0 35.77811391 0 -485.87686492 0 10875
0.10150000 0.10150300 17005.87296571 0 557.97873691 0 5626.37971195 0 -400.74951002 0 516.82844172 0 11118
0.10250000 0.10250800 16597.85779614 0 298.85976257 0 5613.52474283 0 236.56686315 0 -236.30002012 0 11575
0.10350000 0.10349800 16496.98891705 0 -171.82255100 0 5329.71891308 0 238.67503379 0 259.40685478 0 11364
0.10450000 0.10450100 16690.53315488 0 319.24501980 0 6070.68996227 0 173.94733013 0 -542.83511826 0 12093
0.10550000 0.10551000 16127.72688434 0 423.28390549 0 6235.65652974 0 322.35080691 0 -13.39330555 0 12067
0.10650000 0.10649700 15988.43703813 0 385.27482885 0 6133.80221373 0 -87.00433541 0 374.49592064 0 12054
0.10750000 0.10749900 15764.22246055 0 195.95468294 0 6113.47342537 0 -43.89224571 0 1335.93135099 0 12807
0.10850000 0.10850100 15635.56204616 0 -295.05309730 0 5944.75333978 0 900.39813255 0 1080.17393447 0 12736
0.10950000 0.10950300 15768.76211372 0 -48.08633162 0 5845.77782823 0 877.84823583 0 1568.19550871 0 12933
0.11050000 0.11050200 15772.41598091 0 74.77052371 0 5329.97357655 0 965.36721289 0 1158.92916644 0 13428
0.11150000 0.11150900 15710.74313167 0 255.27687762 0 4551.47841855 0 790.14877987 0 1089.14030311 0 13453
0.11250000 0.11250000 15259.87806506 0 328.82922416 0 4291.78811225 0 326.45088879 0 1237.16621361 0 13668
0.11350000 0.11349100 14913.97863772 0 594.26053088 0 4044.45452046 0 -56.44084359 0 898.23127859 0 13791
0.11450000 0.11448600 14525.56148309 0 538.06516072 0 4338.30294882 0 248.83499904 0 883.09983949 0 14205
0.11550000 0.11549300 14138.25156093 0 123.49296040 0 4481.43489175 0 -378.26936894 0 269.18261036 0 14776
0.11650000 0.11649800 14033.39664490 0 8.95790938 0 4371.99603324 0 204.62209881 0 685.69578923 0 14553
0.11750000 0.11747300 14221.62616681 0 88.70127991 0 4424.40134661 0 -502.30708772 0 211.14923429 0 14568
0.11850000 0.11849100 14162.16778254 0 249.84590230 0 4288.31140226 0 -94.64412881 0 164.65654238 0 16015
0.11950000 0.11950300 14014.68441595 0 126.86226884 0 4146.26454716 0 75.94762257 0 363.67272313 0 15270
0.12050000 0.12050700 14078.57173016 0 6.16999764 0 3801.02945932 0 578.14476210 0 66.64664827 0 15999
0.12150000 0.12150000 13912.37613463 0 -161.14993711 0 3889.90701064 0 327.75077972 0 -305.68695806 0 15670
0.12250000 0.12250700 14054.65550855 0 178.67410560 0 3892.18790955 0 207.15544673 0 -743.00835696 0 16887
0.12350000 0.12352200 13707.75957198 0 278.50329340 0 3687.62670853 0 -667.87045350 0 -374.27779584 0 16407
0.12450000 0.12449800 13710.30620669 0 314.36323179 0 4293.89185397 0 -602.92462505 0 -180.26076975 0 16306
0.12550000 0.12549900 13505.35747430 0 44.27523742 0 4393.35454782 0 -445.95006163 0 -65.24223459 0 17523
0.12650000 0.12650100 13803.75662816 0 -127.58972058 0 5287.59978947 0 -253.55956004 0 -57.73431258 0 17154
0.12750000 0.12750600 13681.85033190 0 211.51904994 0 5448.18171631 0 -2.62982108 0 179.71601136 0 18007
0.12850000 0.12850300 13579.87422033 0 401.56111143 0 5224.90828635 0 639.98258898 0 130.50838540 0 17496
0.12950000 0.12949900 13273.06009960 0 265.53317210 0 5059.17772846 0 585.23437168 0 647.54387960 0 18405
0.13050000 0.13049000 12749.89275192 0 199.60412120 0 4762.80481004 0 1059.92265238 0 486.46148367 0 18100
0.13150000 0.13148800 12889.62549113 0 184.37856735 0 4924.99222398 0 339.44204750 0 787.33862383 0 19059
0.13250000 0.13249300 12473.97041744 0 267.10987116 0 4247.38808973 0 328.45387235 0 1000.39008353 0 18957
0.13350000 0.13349100 12340.99179637 0 235.50059827 0 4353.17308105 0 -50.13803341 0 1210.96909309 0 19468
0.13450000 0.13450700 12186.53286515 0 89.81471289 0 4178.67324191 0 -16.44162729 0 1055.47047057 0 19953
0.13550000 0.13551000 12246.54486566 0 235.13742601 0 4697.99849288 0 180.17440561 0 903.94349096 0 19956
0.13650000 0.13649900 11875.06836800 0 256.27560132 0 4223.29471093 0 387.33760297 0 1211.69986653 0 19723
0.13750000 0.13749600 11889.01949727 0 187.22526206 0 4294.74442298 0 499.65415870 0 955.95241510 0 20946
0.13850000 0.13851100 11728.02789441 0 -158.86239480 0 3700.55918391 0 601.37449957 0 607.88281210 0 20955
0.13950000 0.13949800 11638.34206338 0 -90.51592322 0 3371.57826890 0 458.32006292 0 141.62499952 0 20506
0.14050000 0.14048300 11834.87582891 0 244.85671274 0 3192.69378913 0 -96.84242818 0 -128.02043402 0 21447
0.14150000 0.14148400 11258.22915235 0 248.86267986 0 2856.50479066 0 5.00968444 0 -348.19472027 0 21771
0.14250000 0.14249400 11148.17024365 0 226.70031450 0 2778.31203279 0 152.16806722 0 -84.74513825 0 22470
0.14350000 0.14350900 11008.50393839 0 15.98367594 0 2311.61354169 0 532.05178112 0 -466.58223170 0 22519
0.14450000 0.14449900 11023.92768686 0 89.64442054 0 2742.76987013 0 439.63662202 0 -161.99032656 0 22218
0.14550000 0.14550500 10937.14280494 0 150.39317355 0 2644.07116669 0 279.52194728 0 -11.13222610 0 23559
0.14650000 0.14650700 10659.90286380 0 256.73842450 0 2420.11125259 0 127.24094235 0 1010.24445262 0 23044
0.14750000 0.14750500 10614.51740437 0 267.27263433 0 2610.16770810 0 -91.79411240 0 1348.25484852 0 23649
0.14850000 0.14849900 10551.96984147 0 52.90445377 0 2746.09156757 0 -168.90720788 0 1347.36906253 0 23640
0.14950000 0.14949500 10323.29311699 0 323.11922625 0 3259.62599266 0 -235.13631878 0 953.01935626 0 24457
0.15050000 0.15050000 10045.10095592 0 635.24584843 0 3344.73895354 0 -576.74189855 0 1284.88793358 0 24591
0.15150000 0.15149900 9626.87710287 0 317.96505905 0 3444.60025108 0 -194.16318079 0 1057.40923465 0 25020
0.15250000 0.15250500 9536.32763050 0 221.96357394 0 3630.09490877 0 159.16909820 0 1654.45999138 0 25297
0.15350000 0.15350100 9315.05829133 0 41.02285273 0 3372.51941651 0 374.62103791 0 905.19134197 0 25452
0.15450000 0.15450400 9355.63836179 0 -150.61240558 0 3342.14802953 0 504.05540781 0 987.11768777 0 26061
0.15550000 0.15549900 9352.79277431 0 41.78163915 0 2952.98902913 0 137.55481292 0 782.45572859 0 26128
0.15650000 0.15649500 9422.01694908 0 -12.93325045 0 2873.20185649 0 383.94504264 0 606.36368914 0 26331
0.15750000 0.15749700 9357.63138026 0 -44.33834967 0 2680.69841719 0 159.37725790 0 636.59556482 0 27345
0.15850000 0.15849900 9410.87819031 0 71.70249323 0 2342.21744749 0 -11.79158304 0 431.93249841 0 26980
0.15950000 0.15949700 9282.27313754 0 36.94657635 0 2514.40317074 0 95.36394064 0 750.10350270 0 27777
0.16050000 0.16050000 9224.57525291 0 70.99574674 0 2298.75857257 0 -24.89302210 0 604.93646647 0 28224
0.16150000 0.16150500 9268.43273152 0 179.80126827 0 2393.06156305 0 244.98847340 0 157.28458851 0 28075
0.16250000 0.16249700 9085.42934691 0 208.84176180 0 2443.57350888 0 -114.49558925 0 438.58696562 0 28590
0.16350000 0.16349900 8893.30236666 0 220.50424153 0 2663.51416907 0 6.52839773 0 524.14392673 0 29163
0.16450000 0.16449100 8765.07377294 0 281.01228220 0 2715.19978133 0 -149.49410077 0 520.86651858 0 28996
0.16550000 0.16550500 8509.44700985 0 194.63264736 0 2655.65281845 0 -124.85374912 0 656.30983916 0 30777
0.16650000 0.16650700 8435.06313172 0 133.79243695 0 2758.49257137 0 243.23129545 0 541.71238452 0 29211
0.16750000 0.16749900 8343.20712502 0 -58.42345408 0 2476.92335123 0 286.87618542 0 447.78585308 0 30922
0.16850000 0.16850800 8444.76248826 0 31.01070301 0 2527.98891329 0 257.06505808 0 416.92839105 0 30867
0.16950000 0.16949900 8407.60376617 0 53.92266476 0 2322.86302370 0 93.25654506 0 328.23131862 0 30852
0.17050000 0.17049200 8337.87026446 0 53.88512958 0 2349.90164091 0 106.54776377 0 578.00525081 0 31257
0.17150000 0.17149500 8255.13785341 0 74.37645967 0 2492.87857129 0 -42.52437070 0 549.60695212 0 32608
0.17250000 0.17250900 8255.35929991 0 127.93849881 0 2555.74723161 0 240.62487019 0 454.66951742 0 32361
0.17350000 0.17350400 8078.80000835 0 179.50231549 0 2450.75944768 0 23.64915713 0 763.95719551 0 32508
0.17450000 0.17449800 7996.88694934 0 170.19049032 0 2531.73135908 0 -45.92158140 0 822.33934982 0 32791
0.17550000 0.17549800 7907.98725338 0 133.68392816 0 2590.35931900 0 -128.78663890 0 750.09021591 0 33633
0.17650000 0.17650100 7880.39501993 0 128.84975115 0 2645.04553128 0 -114.26417766 0 666.69789431 0 33984
0.17750000 0.17750300 7840.56786755 0 1.45664184 0 2739.38173873 0 -69.45226466 0 742.42152374 0 34069
0.17850000 0.17849800 7838.20946237 0 4.74030585 0 2519.93933315 0 50.39557569 0 573.11681940 0 34536
