### header ###
fiducial parameters:
Omega_m = 0.31
Omega_nu = 0
Omega_de = 0.69
Omega_k = 0
H_0 = 100
w_de = -1
zeff = 0
beta = 0
fgrowth = 0
b_1 = 2
gamma = 0.55
Lx = 3500 Ly = 3500 Lz = 3500
nx = 700 ny = 700 nz = 700
xoffset = -685.467585 yoffset = -31.7331281 zoffset = 572.489161
bins = 400 dk = 0.001
kx_ny = 0.628318531 ky_ny = 0.628318531 kz_ny = 0.628318531
############################
A(data) = 8.04349335 (not used)
A(ran) = 8.03825031 (used)
Ngal = 478284
weighted Ngal = 0
Nran = 23820508
weighted Nran = 0
SN(data) = 3489.7333
SN(ran) = 70.0160754
SN(data+ran) = 3559.74938
############################
13 columns: k_central k_mean P_0(k) sigma^{lin}_{P_0(k)} P^img_1(k) sigma^{lin}_{P_1(k)} P_2(k) sigma^{lin}_{P_2(k)} P^img_3(k) sigma^{lin}_{P_3(k)} P_4(k) sigma^{lin}_{P_4(k)} N_modes
### header ###
0.00050000 0 0 0 0 0 0 0 0 0 0 0 0
0.00150000 0.00179520 5060.93822811 0 -10609.82273865 0 -19690.02594825 0 -529.68341084 0 -20838.44747844 0 3
0.00250000 0.00253879 28564.27284390 0 -33533.53222250 0 -28786.05151001 0 18055.64008177 0 19787.57312990 0 6
0.00350000 0.00331552 39000.71404821 0 -30290.11611338 0 -10844.82176060 0 -49449.99914931 0 17592.48473460 0 7
0.00450000 0.00420575 60295.23058592 0 -19147.14986239 0 -13924.22352219 0 -40981.88512801 0 -7500.38175983 0 24
0.00550000 0.00557378 74507.22383015 0 -7472.32448874 0 -11524.85073398 0 -49831.66218581 0 -21980.88995322 0 45
0.00650000 0.00659388 65224.51887194 0 6844.03648923 0 -15743.29576664 0 -30499.60449895 0 -11518.20733909 0 40
0.00750000 0.00754703 79642.67880428 0 -2803.61229500 0 -36.69368445 0 -46843.79533350 0 -43500.50685450 0 57
0.00850000 0.00846663 69659.64930129 0 -255.05321666 0 5288.10911641 0 -44776.48156661 0 -30088.26763193 0 75
0.00950000 0.00948925 78725.66886280 0 1207.17128568 0 17038.97921692 0 -30778.62708438 0 -47646.20671310 0 112
0.01050000 0.01054430 77924.80760867 0 7972.97072774 0 18967.22458409 0 -33047.23571647 0 -47390.87890278 0 105
0.01150000 0.01145670 68012.97315427 0 5273.42721370 0 24187.71501283 0 -7220.86091978 0 -46888.19535602 0 144
0.01250000 0.01249090 69739.70220973 0 5304.25256600 0 20386.14300960 0 10226.42134715 0 -19934.72432674 0 169
0.01350000 0.01339930 56691.74247370 0 513.18232516 0 12434.88511083 0 10864.55264342 0 -30034.78830306 0 180
0.01450000 0.01448870 70636.11762705 0 -5440.99577751 0 7200.39926351 0 24239.42276973 0 -14651.34309303 0 267
0.01550000 0.01550050 72576.21038177 0 -11594.49565709 0 8176.96724019 0 17074.85354933 0 -11216.04359479 0 238
0.01650000 0.01653350 72572.22434484 0 2112.96496212 0 -5212.48513790 0 -5058.97842661 0 -9342.77232035 0 315
0.01750000 0.01747870 77031.04954931 0 6629.59877446 0 13540.78891372 0 -14639.60642872 0 -7055.97185858 0 297
0.01850000 0.01844180 69019.89037327 0 7164.04882113 0 16789.96263175 0 -21051.03611495 0 -272.95827313 0 388
0.01950000 0.01947590 65186.20862806 0 5955.93638785 0 28753.05598205 0 -5148.14385838 0 8509.95633679 0 399
0.02050000 0.02045430 62627.61580897 0 -4406.61919295 0 28287.57544668 0 16475.95149989 0 3142.19291563 0 462
0.02150000 0.02154770 69289.50148261 0 -3906.79230599 0 27482.17453937 0 18694.95611680 0 -9827.15331419 0 571
0.02250000 0.02255340 69982.18612326 0 -612.96500919 0 23811.69886199 0 17818.13871441 0 5018.37621150 0 510
0.02350000 0.02348930 64551.10007647 0 3343.96389080 0 13777.62594159 0 807.79363670 0 -2179.04459663 0 555
0.02450000 0.02439640 64002.68782820 0 4195.70247748 0 12732.06630896 0 452.19042390 0 9918.53321092 0 592
0.02550000 0.02547300 58429.87602373 0 2402.12979708 0 14451.48763005 0 3390.09119600 0 653.11658068 0 837
0.02650000 0.02652900 60496.96834412 0 -1445.74666855 0 11597.04229180 0 -3897.76836126 0 -244.33077731 0 723
0.02750000 0.02749970 62128.36468290 0 -1643.88592117 0 7938.89011194 0 1909.74351240 0 -1567.58653085 0 826
0.02850000 0.02848090 65707.93657352 0 -4775.61548986 0 9859.00839269 0 -6820.57423294 0 2258.70997370 0 831
0.02950000 0.02946900 65793.85781411 0 867.42032032 0 10895.33370642 0 -2400.19214024 0 124.29681118 0 996
0.03050000 0.03053250 67297.47952448 0 3679.54391141 0 17927.42256037 0 -3562.31013623 0 3274.91687324 0 1041
0.03150000 0.03150510 62711.10113810 0 5516.70833462 0 17642.08874979 0 -4846.76624914 0 3778.32012111 0 1036
0.03250000 0.03246190 59943.57354968 0 5074.01464372 0 26860.13133106 0 2710.25045213 0 5923.97058610 0 1059
0.03350000 0.03345080 56345.73232311 0 1685.44035622 0 24124.71348461 0 3818.24692441 0 6337.79872619 0 1302
0.03450000 0.03451200 54550.90847001 0 2599.48291465 0 29234.70211166 0 4108.67400440 0 3375.17677447 0 1339
0.03550000 0.03553350 54371.09391496 0 2261.73271838 0 22475.15853313 0 4316.42403498 0 5767.71793826 0 1365
0.03650000 0.03647120 49807.41379445 0 1385.97825917 0 24228.46116816 0 9214.38871408 0 5138.52200811 0 1308
0.03750000 0.03744890 49850.15296825 0 978.26425684 0 17698.55760637 0 -875.03807979 0 4289.71758751 0 1579
0.03850000 0.03847530 50680.24515991 0 329.84898528 0 17392.18637863 0 3551.88000625 0 -4477.12775739 0 1662
0.03950000 0.03950240 47778.29954819 0 2531.85315466 0 17823.67487682 0 -3652.37242630 0 -5954.18696053 0 1683
0.04050000 0.04050350 45448.68240635 0 3397.87504035 0 15145.39022643 0 -567.00821780 0 -2264.47865494 0 1822
0.04150000 0.04152450 43136.89170746 0 1911.78082016 0 16277.09254615 0 -502.72894330 0 -2893.81852530 0 1887
0.04250000 0.04250150 41976.40134322 0 1050.86216898 0 14721.87380212 0 4775.29439244 0 2258.39994861 0 1920
0.04350000 0.04349210 44060.65576708 0 -1882.61631659 0 16324.92498936 0 5864.29075532 0 -2745.89226573 0 2005
0.04450000 0.04448520 43520.54776243 0 -855.47328184 0 15802.31125792 0 2080.63377365 0 4303.35869169 0 2151
0.04550000 0.04548030 44352.19007956 0 1896.19098682 0 18573.27126704 0 -1821.00990130 0 1028.38645683 0 2274
0.04650000 0.04648670 42246.01245255 0 3123.93465201 0 17584.95555373 0 -1958.47281392 0 7127.49907691 0 2311
0.04750000 0.04749250 39773.89449029 0 2096.63328301 0 18641.36606467 0 1686.31506988 0 9836.69765818 0 2568
0.04850000 0.04851840 38287.54560664 0 1137.23848212 0 18148.64761024 0 4324.89436346 0 4650.80824450 0 2493
0.04950000 0.04949480 38154.78843206 0 -146.67951580 0 15291.21274430 0 5185.78976276 0 4900.06842082 0 2644
0.05050000 0.05050630 36418.31573075 0 567.26841743 0 13958.87989887 0 3657.10030900 0 3209.08082986 0 2829
0.05150000 0.05149060 36806.40071565 0 1042.43059363 0 10289.03534400 0 1635.64811151 0 4278.53453945 0 2784
0.05250000 0.05249300 36713.28246392 0 -508.04808814 0 9525.72034333 0 40.23815707 0 1621.95164571 0 3055
0.05350000 0.05348950 36956.76288668 0 -45.95823079 0 11403.27660748 0 -2986.30565451 0 2029.47963298 0 3009
0.05450000 0.05448610 36738.63808776 0 483.54724778 0 13299.63367917 0 -2918.88626869 0 969.49829728 0 3336
0.05550000 0.05550870 36375.79800345 0 1336.83928163 0 13352.44866855 0 -2441.09330812 0 748.41940209 0 3349
0.05650000 0.05647670 35981.84468640 0 615.24922980 0 14479.05771885 0 -306.25386109 0 -1479.78299504 0 3324
0.05750000 0.05747970 35025.97088481 0 -75.94341508 0 14705.81893113 0 3168.41218080 0 -1408.79832063 0 3639
0.05850000 0.05849280 35624.87293425 0 -113.85007272 0 12318.40425374 0 2105.63508309 0 -5183.68602105 0 3846
0.05950000 0.05951020 33640.04798726 0 536.18286551 0 9951.27407541 0 1280.99047524 0 -6196.44942756 0 3787
0.06050000 0.06049470 34209.05475969 0 1651.84692272 0 8550.35925005 0 1784.80339914 0 -3112.29763862 0 3930
0.06150000 0.06148310 32311.36900902 0 629.08520690 0 7639.83769092 0 1928.01284835 0 -5481.84158376 0 4083
0.06250000 0.06249100 31683.78963830 0 -246.83644441 0 6401.80783597 0 24.16302373 0 -3544.55012722 0 4303
0.06350000 0.06350600 32144.61979725 0 -300.52946916 0 6710.45996261 0 316.47804583 0 -6909.68430308 0 4470
0.06450000 0.06451750 32968.84365675 0 53.58562319 0 8738.89879707 0 -3054.67726027 0 -4554.92191157 0 4479
0.06550000 0.06550280 32097.78386327 0 776.43016942 0 9875.87154339 0 -1199.29886273 0 -2755.91271969 0 4636
0.06650000 0.06648880 32337.38897235 0 384.28164132 0 10216.21266367 0 -1308.92595076 0 -2025.72611487 0 4653
0.06750000 0.06749660 31901.91443723 0 1388.62454481 0 10967.79100003 0 1615.16431060 0 -2423.53260095 0 5220
0.06850000 0.06852730 30234.31159629 0 1511.60485657 0 10311.93291173 0 2470.74499398 0 -783.03148948 0 5029
0.06950000 0.06949320 29548.15962728 0 706.04007885 0 10464.80850050 0 2245.27924370 0 1717.14042217 0 5040
0.07050000 0.07048030 29027.20674456 0 28.61299107 0 8573.26789010 0 1602.66365587 0 -304.14569044 0 5475
0.07150000 0.07148790 29309.21885769 0 523.23599609 0 10845.75183588 0 -102.32621849 0 1051.74684773 0 5509
0.07250000 0.07249820 27988.73339982 0 984.32192575 0 10831.68998336 0 -2299.77722646 0 2470.24673936 0 5916
0.07350000 0.07351270 27785.88840914 0 1242.10447048 0 11821.58903912 0 -2611.14207268 0 1542.18661772 0 5721
0.07450000 0.07449140 26929.88697742 0 795.47678257 0 13056.81759589 0 -518.01428771 0 1963.38892614 0 6028
0.07550000 0.07549160 26814.29190631 0 300.13972332 0 13460.51455878 0 955.51062934 0 313.55052314 0 6183
0.07650000 0.07648840 26364.31262568 0 287.48073436 0 13309.82021800 0 1785.93277627 0 427.33637638 0 6330
0.07750000 0.07749960 26274.62679465 0 9.67494206 0 11436.38285868 0 2759.66623780 0 -1243.93140408 0 6583
0.07850000 0.07848650 25773.05048036 0 268.16727818 0 9584.59189439 0 2281.44145656 0 723.01063110 0 6549
0.07950000 0.07947320 25411.98196803 0 524.46170245 0 8907.78496752 0 1086.38550870 0 -662.83918911 0 6828
0.08050000 0.08048110 24816.40161603 0 758.26048439 0 9167.54170777 0 718.14545157 0 1856.76243814 0 7147
0.08150000 0.08149960 24177.74992049 0 482.40015493 0 7659.47999515 0 -388.11709464 0 -235.20496719 0 7386
0.08250000 0.08250610 23943.57025058 0 306.02466397 0 8428.88477447 0 479.32426310 0 938.17801207 0 7227
0.08350000 0.08350160 23396.15451154 0 286.53958675 0 8425.29734123 0 -172.39388296 0 34.33594360 0 7798
0.08450000 0.08449610 23141.15887097 0 593.83646084 0 8436.67969114 0 1088.52689632 0 -189.81729330 0 7371
0.08550000 0.08548940 22676.23195184 0 778.50069416 0 8693.94515830 0 -45.01520089 0 -31.73328293 0 8256
0.08650000 0.08650700 21898.40113333 0 252.54312063 0 6837.27129876 0 750.76673496 0 -1071.19649351 0 8037
0.08750000 0.08749060 21582.28625975 0 189.19613587 0 7524.77409140 0 555.34130914 0 -396.77454541 0 8155
0.08850000 0.08849210 21378.33403659 0 503.01239481 0 6799.53681578 0 458.02332461 0 -1737.90103121 0 8718
0.08950000 0.08949900 20833.90782526 0 524.70861530 0 6475.41665136 0 272.78775932 0 -992.60623918 0 8571
0.09050000 0.09049190 20562.41442071 0 448.33061146 0 6147.06685887 0 564.06408663 0 -1188.50334603 0 8932
0.09150000 0.09150830 19958.86199484 0 507.41696563 0 6221.20714585 0 -82.71901353 0 -229.49939821 0 9285
0.09250000 0.09250820 19466.25426366 0 707.00780004 0 7460.06742516 0 117.50836884 0 36.78525258 0 9204
0.09350000 0.09350330 18997.67347734 0 946.95615118 0 6821.81433332 0 59.00762993 0 344.92174105 0 9349
0.09450000 0.09448040 18320.49009143 0 588.03456263 0 7394.81821501 0 -126.27432839 0 1083.02837981 0 9564
0.09550000 0.09549270 18002.27147614 0 115.62828808 0 7137.04342090 0 786.46944633 0 1657.31665118 0 10155
0.09650000 0.09649430 18440.73553896 0 -337.98603679 0 7757.61401001 0 1012.96492282 0 1032.71905753 0 9913
0.09750000 0.09749140 18385.15246837 0 -106.31092675 0 6963.63974192 0 669.26445920 0 726.74311180 0 10476
0.09850000 0.09850240 18367.43674866 0 165.59658276 0 5954.04302030 0 206.83877824 0 961.07890149 0 10575
0.09950000 0.09950330 18094.61466513 0 349.62083571 0 6468.78432880 0 431.01238822 0 1612.04191500 0 10882
0.10050000 0.10051200 18351.71404742 0 -144.66988885 0 6108.93377219 0 788.21444472 0 1226.79144526 0 10875
0.10150000 0.10150300 17848.03399142 0 365.91265444 0 5718.68968396 0 196.44518693 0 774.60766476 0 11118
0.10250000 0.10250800 17695.12518567 0 395.66288400 0 5677.32347844 0 -133.36061628 0 184.94989931 0 11575
0.10350000 0.10349800 16820.96514124 0 784.48085680 0 5735.12101399 0 -230.01647578 0 1332.36606240 0 11364
0.10450000 0.10450100 16841.89183515 0 610.83026497 0 6054.83439313 0 -59.37456678 0 818.23041008 0 12093
0.10550000 0.10551000 16137.80269993 0 -39.20754508 0 6089.43540819 0 1106.69768858 0 1043.47139216 0 12067
0.10650000 0.10649700 16413.39286466 0 -253.61049274 0 6124.30215904 0 481.37707212 0 523.17509831 0 12054
0.10750000 0.10749900 16309.97735086 0 103.52900514 0 5653.29653358 0 366.46184176 0 -231.18460605 0 12807
0.10850000 0.10850100 16445.39188339 0 517.69761922 0 5991.60034609 0 -351.13885144 0 1291.04414618 0 12736
0.10950000 0.10950300 15874.61353899 0 189.68553263 0 6022.63607256 0 115.14553472 0 2395.98465681 0 12933
0.11050000 0.11050200 15986.11184991 0 211.05401230 0 5937.26844820 0 518.29884646 0 1971.65995278 0 13428
0.11150000 0.11150900 15731.22693259 0 380.11955442 0 5861.01334718 0 508.66149494 0 1848.87894287 0 13453
0.11250000 0.11250000 15465.04824395 0 622.07863975 0 5578.38118386 0 462.09240398 0 1860.02877396 0 13668
0.11350000 0.11349100 14828.61101337 0 399.65334986 0 5045.86879403 0 454.32627535 0 2038.69180723 0 13791
0.11450000 0.11448600 14439.75096574 0 220.25954315 0 4645.85891531 0 217.04414003 0 1550.87839270 0 14205
0.11550000 0.11549300 14242.66358397 0 154.09354450 0 4265.81243823 0 144.73743003 0 758.37452934 0 14776
0.11650000 0.11649800 14139.35879341 0 -24.77122653 0 3966.33926886 0 312.43332557 0 822.10018760 0 14553
0.11750000 0.11747300 13956.33326416 0 186.83108729 0 3894.00377082 0 103.06883932 0 33.20645575 0 14568
0.11850000 0.11849100 13943.93226036 0 26.31393355 0 3661.87248100 0 495.76777268 0 609.43847374 0 16015
0.11950000 0.11950300 13911.60107189 0 19.92509140 0 4073.91797680 0 358.93487534 0 740.24359745 0 15270
0.12050000 0.12050700 13820.47583863 0 242.44073146 0 3994.51833552 0 348.17811178 0 1416.13927198 0 15999
0.12150000 0.12150000 13968.18065172 0 94.06925370 0 4128.33845328 0 37.69916227 0 1998.31103862 0 15670
0.12250000 0.12250700 13823.02247334 0 -21.16751697 0 4449.80125974 0 88.86404308 0 2474.11098073 0 16887
0.12350000 0.12352200 14010.03403953 0 -5.08658173 0 4758.35373546 0 -103.93115197 0 2449.48613033 0 16407
0.12450000 0.12449800 13909.60805342 0 277.39052475 0 4731.29297361 0 -33.61491381 0 2259.87256781 0 16306
0.12550000 0.12549900 13703.55208855 0 310.69829227 0 4893.69076172 0 -34.92388405 0 2074.27825920 0 17523
0.12650000 0.12650100 13389.43023344 0 287.29250484 0 4689.97105738 0 -396.32058009 0 1127.71628278 0 17154
0.12750000 0.12750600 13156.13634952 0 391.35464241 0 4730.25217507 0 -329.60760860 0 481.65941640 0 18007
0.12850000 0.12850300 12935.57563913 0 204.29657246 0 4680.14990527 0 -225.50671788 0 652.00824097 0 17496
0.12950000 0.12949900 12680.02638231 0 15.07408445 0 4480.18371904 0 80.32872005 0 52.37265001 0 18405
0.13050000 0.13049000 12808.02245722 0 18.09018574 0 4570.94356558 0 0.78251884 0 -385.28700841 0 18100
0.13150000 0.13148800 12641.27324545 0 251.92528490 0 4862.67717990 0 100.05927071 0 -1160.77824469 0 19059
0.13250000 0.13249300 12512.94500080 0 430.97363508 0 4725.02603776 0 -152.12045622 0 -147.38925182 0 18957
0.13350000 0.13349100 12058.31534375 0 156.72322165 0 4679.45234881 0 629.35758609 0 788.28309314 0 19468
0.13450000 0.13450700 12222.73936730 0 -169.42207098 0 4078.67907647 0 1048.98098099 0 794.13703127 0 19953
0.13550000 0.13551000 12250.08800961 0 -173.08922496 0 3872.49024370 0 1094.85472995 0 915.56278863 0 19956
0.13650000 0.13649900 12259.72093220 0 176.36774034 0 3345.29256978 0 918.44270031 0 983.74948656 0 19723
0.13750000 0.13749600 11970.84397768 0 184.74063237 0 2800.40132081 0 557.96655735 0 1437.20990611 0 20946
0.13850000 0.13851100 11914.92873735 0 209.48727834 0 2476.10399919 0 72.27858629 0 1127.05194329 0 20955
0.13950000 0.13949800 11542.78790019 0 279.29164292 0 2663.27057793 0 -67.93336314 0 888.05359761 0 20506
0.14050000 0.14048300 11430.40380328 0 379.13411751 0 2404.13388787 0 -273.94260280 0 424.81631525 0 21447
0.14150000 0.14148400 11193.01315917 0 43.93609211 0 2669.00604218 0 -54.85373655 0 640.37897821 0 21771
0.14250000 0.14249400 11201.53884928 0 -127.26087254 0 2513.52845708 0 328.37858054 0 339.00801237 0 22470
0.14350000 0.14350900 11164.66800763 0 14.20114237 0 2210.14675705 0 485.61666529 0 31.78908745 0 22519
0.14450000 0.14449900 11186.14831778 0 232.19218761 0 2216.56870544 0 104.73832445 0 -228.80737791 0 22218
0.14550000 0.14550500 10939.05831713 0 375.61533268 0 2356.17964908 0 -102.33352622 0 345.78095346 0 23559
0.14650000 0.14650700 10534.40913431 0 414.75600092 0 2411.74057502 0 -305.85082847 0 -1.82982347 0 23044
0.14750000 0.14750500 10243.80489712 0 329.93313495 0 2360.57536204 0 -153.99721528 0 620.49308284 0 23649
0.14850000 0.14849900 10279.02596236 0 29.22241183 0 2402.72770262 0 146.72159064 0 152.59213726 0 23640
0.14950000 0.14949500 10206.21435436 0 -141.70914919 0 2447.92493253 0 201.03577280 0 219.39479458 0 24457
0.15050000 0.15050000 10387.04756330 0 -43.85205317 0 2434.60492577 0 152.31865083 0 -236.77613008 0 24591
0.15150000 0.15149900 10238.35731331 0 262.53810824 0 2732.99300731 0 -299.74333410 0 257.97298872 0 25020
0.15250000 0.15250500 10062.84989261 0 425.86486441 0 2639.39864562 0 -362.34736585 0 351.33040266 0 25297
0.15350000 0.15350100 9889.42406897 0 273.31923092 0 3012.82387245 0 -230.57673542 0 756.86315700 0 25452
0.15450000 0.15450400 9740.08055182 0 97.57187294 0 3130.65555317 0 -76.55737549 0 708.39405511 0 26061
0.15550000 0.15549900 9706.04422532 0 34.63611433 0 3153.76349507 0 342.31863749 0 766.47393494 0 26128
0.15650000 0.15649500 9714.03844384 0 -25.33514003 0 3282.84465781 0 54.58977233 0 679.13765124 0 26331
0.15750000 0.15749700 9691.16302077 0 24.14597235 0 3191.53119503 0 277.42817066 0 556.15844671 0 27345
0.15850000 0.15849900 9753.19018440 0 138.62661396 0 3003.88850632 0 153.55764398 0 74.14316579 0 26980
0.15950000 0.15949700 9333.60443540 0 238.31075430 0 2976.35163450 0 -187.97153675 0 399.33335968 0 27777
0.16050000 0.16050000 9442.19072490 0 267.62916319 0 3228.68991712 0 -385.76754731 0 141.88962809 0 28224
0.16150000 0.16150500 9205.32048005 0 63.78367724 0 3317.78891493 0 -169.81846021 0 164.57903610 0 28075
0.16250000 0.16249700 9139.03047136 0 138.04974584 0 3349.55541484 0 -42.62335728 0 195.53725630 0 28590
0.16350000 0.16349900 9148.10977771 0 39.80987955 0 3244.99945158 0 485.04754780 0 -11.23209847 0 29163
0.16450000 0.16449100 9079.07383247 0 61.91920847 0 3130.25694948 0 342.66630849 0 115.69140033 0 28996
0.16550000 0.16550500 9055.20190016 0 190.38530356 0 3071.26360285 0 416.23747798 0 -68.31690847 0 30777
0.16650000 0.16650700 8702.51513771 0 156.49845345 0 2774.62494863 0 244.91761052 0 303.90763546 0 29211
0.16750000 0.16749900 8595.42361207 0 197.72293322 0 2636.37590094 0 419.64996849 0 331.02929510 0 30922
0.16850000 0.16850800 8464.88090245 0 24.76103999 0 2454.22508535 0 253.15320572 0 441.44251819 0 30867
0.16950000 0.16949900 8451.49446175 0 79.22647011 0 2288.57203374 0 234.86393959 0 85.70433375 0 30852
0.17050000 0.17049200 8309.56940222 0 210.03314395 0 2259.16393902 0 73.36101676 0 386.44517359 0 31257
0.17150000 0.17149500 8148.02418312 0 144.39640242 0 2119.78551421 0 -88.31175552 0 457.77862623 0 32608
0.17250000 0.17250900 8126.88711504 0 -8.46036339 0 2091.63966452 0 44.10605230 0 244.68398447 0 32361
0.17350000 0.17350400 8106.14865065 0 70.95887590 0 2134.16846414 0 -8.60366142 0 -2.50343050 0 32508
0.17450000 0.17449800 8085.18873977 0 94.89746360 0 2163.20009982 0 -127.80120199 0 -205.60310679 0 32791
0.17550000 0.17549800 8003.70750143 0 164.52256725 0 2239.62128572 0 -390.29169923 0 72.52051659 0 33633
0.17650000 0.17650100 7960.14897560 0 117.56483769 0 2299.55577996 0 5.89575830 0 -77.95990688 0 33984
0.17750000 0.17750300 7910.91034713 0 -92.16459239 0 2116.28665956 0 185.93755068 0 142.61043643 0 34069
0.17850000 0.17849800 8044.24328259 0 -88.02752894 0 2303.37573202 0 368.53236650 0 -309.65306481 0 34536
