### header ###
fiducial parameters:
Omega_m = 0.31
Omega_nu = 0
Omega_de = 0.69
Omega_k = 0
H_0 = 100
w_de = -1
zeff = 0
beta = 0
fgrowth = 0
b_1 = 2
gamma = 0.55
Lx = 3500 Ly = 3500 Lz = 3500
nx = 700 ny = 700 nz = 700
xoffset = -685.467585 yoffset = -31.7331281 zoffset = 572.489161
bins = 400 dk = 0.001
kx_ny = 0.628318531 ky_ny = 0.628318531 kz_ny = 0.628318531
############################
A(data) = 8.04346054 (not used)
A(ran) = 8.04167047 (used)
Ngal = 477691
weighted Ngal = 0
Nran = 23820508
weighted Nran = 0
SN(data) = 3489.19999
SN(ran) = 70.0458663
SN(data+ran) = 3559.24586
############################
13 columns: k_central k_mean P_0(k) sigma^{lin}_{P_0(k)} P^img_1(k) sigma^{lin}_{P_1(k)} P_2(k) sigma^{lin}_{P_2(k)} P^img_3(k) sigma^{lin}_{P_3(k)} P_4(k) sigma^{lin}_{P_4(k)} N_modes
### header ###
0.00050000 0 0 0 0 0 0 0 0 0 0 0 0
0.00150000 0.00179520 14681.57053978 0 -32745.29341866 0 -23137.06211079 0 -24364.31859369 0 11479.12203248 0 3
0.00250000 0.00253879 23453.06626111 0 -36760.67201415 0 -33822.74134677 0 -17473.78941255 0 -14571.95452408 0 6
0.00350000 0.00331552 38778.71393559 0 -22610.79451216 0 -12985.84399380 0 -37003.93099041 0 -43208.86181878 0 7
0.00450000 0.00420575 64090.15919427 0 -17875.38263372 0 -10725.01920606 0 -39536.83601593 0 6752.31335043 0 24
0.00550000 0.00557378 66955.23396434 0 7474.61645997 0 10403.57854425 0 -54280.74374444 0 20105.68102194 0 45
0.00650000 0.00659388 85162.56489612 0 23646.94266869 0 55598.57184435 0 -56529.97580810 0 65225.18321143 0 40
0.00750000 0.00754703 59751.46871408 0 11114.73182270 0 75254.82720190 0 -2346.25884605 0 1643.31016028 0 57
0.00850000 0.00846663 72397.72450570 0 3320.45734521 0 85038.88702790 0 36227.65029738 0 26112.97085230 0 75
0.00950000 0.00948925 62339.95681018 0 -317.60853019 0 77385.69611325 0 46719.12095604 0 2116.88456510 0 112
0.01050000 0.01054430 85196.44621007 0 -5963.95275102 0 91280.24580492 0 47483.88643126 0 10288.40422149 0 105
0.01150000 0.01145670 84921.96327781 0 -1622.78207007 0 84897.05054697 0 34752.15229204 0 7841.37614727 0 144
0.01250000 0.01249090 87435.38101165 0 238.83447527 0 79131.24812091 0 22592.08228321 0 13095.79217925 0 169
0.01350000 0.01339930 89775.62758531 0 -2585.25497726 0 69591.99739665 0 113.87996799 0 -404.47756179 0 180
0.01450000 0.01448870 90432.43789356 0 3226.91834515 0 70758.90970929 0 9005.83040379 0 -5032.96953561 0 267
0.01550000 0.01550050 87014.52194529 0 -3939.04598818 0 63524.25267279 0 9725.08862401 0 -3961.50066291 0 238
0.01650000 0.01653350 89799.98669992 0 1874.74389364 0 48297.92375193 0 18304.32449719 0 -11995.64598527 0 315
0.01750000 0.01747870 90728.84402895 0 8754.40005181 0 51964.85628537 0 9045.97865359 0 -23788.66842637 0 297
0.01850000 0.01844180 78274.80379619 0 7498.97557457 0 40247.23637629 0 4216.16413374 0 -17875.60408022 0 388
0.01950000 0.01947590 76132.75183677 0 6202.37312134 0 26174.42225504 0 7204.03098606 0 9271.86515221 0 399
0.02050000 0.02045430 69612.03830457 0 1994.09248286 0 28668.02052745 0 11870.08582183 0 -5195.35625141 0 462
0.02150000 0.02154770 69241.11542315 0 4712.27071957 0 28897.43909769 0 5033.70030905 0 3310.96836284 0 571
0.02250000 0.02255340 65875.46084803 0 5543.69159020 0 40047.82380631 0 1698.33961463 0 4396.65410061 0 510
0.02350000 0.02348930 63090.43898639 0 2717.24816142 0 33903.68004119 0 1916.14331614 0 11633.91313345 0 555
0.02450000 0.02439640 64239.19268633 0 -837.59922788 0 43624.84906222 0 -2443.83924467 0 9085.69508271 0 592
0.02550000 0.02547300 65961.82498161 0 -848.22201631 0 43333.53619624 0 9080.16999263 0 105.80901826 0 837
0.02650000 0.02652900 66940.06487934 0 -2427.59614416 0 43011.66371376 0 11607.45027713 0 4675.30022700 0 723
0.02750000 0.02749970 71561.87470514 0 -2279.17162997 0 35701.49342200 0 12358.92896257 0 8001.88056784 0 826
0.02850000 0.02848090 71431.33199553 0 -3831.47835257 0 28778.07943614 0 10933.81003517 0 -1454.98098744 0 831
0.02950000 0.02946900 70092.68792495 0 4659.43358553 0 23800.29436742 0 9135.37660417 0 1672.31965131 0 996
0.03050000 0.03053250 67050.34523453 0 5547.32331274 0 22089.95235269 0 -1016.02863510 0 4807.60343626 0 1041
0.03150000 0.03150510 59393.94334569 0 3842.67247296 0 23051.03014695 0 -2578.03582147 0 7135.21648731 0 1036
0.03250000 0.03246190 57597.68009036 0 5425.14020837 0 23020.91342344 0 -2413.10247098 0 6856.20497420 0 1059
0.03350000 0.03345080 54603.61273615 0 2381.03701830 0 24268.87515375 0 3440.68064810 0 2745.07291369 0 1302
0.03450000 0.03451200 52763.28162804 0 165.31977463 0 23498.13062312 0 2597.92171685 0 347.12956262 0 1339
0.03550000 0.03553350 51373.70486330 0 1313.52096556 0 18770.80154180 0 4385.19424442 0 -2802.94795552 0 1365
0.03650000 0.03647120 51712.85017249 0 1995.28829394 0 22516.23685821 0 2427.21968512 0 -2335.78442677 0 1308
0.03750000 0.03744890 48112.57303446 0 4000.32023373 0 13614.41987376 0 1366.93386049 0 792.61680107 0 1579
0.03850000 0.03847530 46049.79892075 0 974.94477386 0 19376.45770938 0 892.65414858 0 642.87578746 0 1662
0.03950000 0.03950240 46404.88837768 0 1567.70832642 0 20136.12991519 0 3054.38937982 0 1479.29581275 0 1683
0.04050000 0.04050350 45650.08799480 0 -1263.58478063 0 21308.57839024 0 3445.91785773 0 8668.77776399 0 1822
0.04150000 0.04152450 46220.20199971 0 2421.07454485 0 22685.64342793 0 1638.10616762 0 9764.17393062 0 1887
0.04250000 0.04250150 45374.94072305 0 2128.45514454 0 26250.37840329 0 802.43463149 0 19312.01677894 0 1920
0.04350000 0.04349210 44466.23502519 0 2329.71679277 0 27078.03468349 0 -1015.56691916 0 15372.37288522 0 2005
0.04450000 0.04448520 43112.53259286 0 2809.73529063 0 31475.96210146 0 214.27052266 0 22658.51623213 0 2151
0.04550000 0.04548030 41213.51816321 0 934.15322200 0 32283.90964347 0 2240.14168498 0 15778.72720606 0 2274
0.04650000 0.04648670 41514.24250529 0 611.98289398 0 33170.91358469 0 4161.11253475 0 21497.69369814 0 2311
0.04750000 0.04749250 41920.59682613 0 -817.87498845 0 30725.25847875 0 3830.24932451 0 16074.13683222 0 2568
0.04850000 0.04851840 41745.76481725 0 -1199.14385018 0 28264.32356456 0 2848.08982380 0 10050.30494859 0 2493
0.04950000 0.04949480 41559.19614405 0 1039.90388911 0 26601.81399304 0 2295.09363306 0 7773.31456661 0 2644
0.05050000 0.05050630 40724.12140623 0 2114.92476361 0 22673.57459388 0 1169.84647871 0 3913.19210973 0 2829
0.05150000 0.05149060 36872.83466456 0 1307.09901717 0 21227.41824932 0 1249.68901298 0 5687.16677520 0 2784
0.05250000 0.05249300 36527.93174646 0 1837.41908668 0 16484.03429701 0 2568.54683910 0 330.99939983 0 3055
0.05350000 0.05348950 35194.60239180 0 800.20134357 0 16754.53119233 0 3246.61601100 0 925.06948672 0 3009
0.05450000 0.05448610 34241.27522491 0 295.84476853 0 14182.20869046 0 2238.81300601 0 -2526.30591992 0 3336
0.05550000 0.05550870 34003.77385755 0 155.76435832 0 13039.21259943 0 2581.03642150 0 -1329.99658489 0 3349
0.05650000 0.05647670 33502.52971301 0 -247.02245947 0 11641.55303757 0 2364.30673550 0 1451.50427745 0 3324
0.05750000 0.05747970 34277.14955732 0 -1531.16965452 0 9462.06554795 0 3715.76148589 0 -1752.78223577 0 3639
0.05850000 0.05849280 34357.53463551 0 -897.43739290 0 9312.27913780 0 1816.21558465 0 -2131.20108109 0 3846
0.05950000 0.05951020 35206.44977935 0 1041.26024890 0 8601.83448814 0 -1344.92207875 0 -5105.37146760 0 3787
0.06050000 0.06049470 33518.03096776 0 2159.28049683 0 9748.55088030 0 -3182.20829753 0 -4205.31325542 0 3930
0.06150000 0.06148310 31976.20973676 0 2003.55932058 0 10193.86871218 0 -5217.26838222 0 -4388.46058025 0 4083
0.06250000 0.06249100 31878.21966212 0 588.14528588 0 12474.30258718 0 -1588.45786313 0 -4067.40744980 0 4303
0.06350000 0.06350600 31131.39135310 0 463.33250436 0 12735.38800641 0 358.15870537 0 -4356.55014012 0 4470
0.06450000 0.06451750 31710.69538761 0 682.97421179 0 14704.60097540 0 2344.93016707 0 -1663.91575677 0 4479
0.06550000 0.06550280 31009.81722659 0 244.47361030 0 13014.96420808 0 1749.98093759 0 -2634.17250830 0 4636
0.06650000 0.06648880 31386.27627042 0 322.38402388 0 15002.22506653 0 1407.83502837 0 429.43901086 0 4653
0.06750000 0.06749660 30656.61006488 0 720.22372694 0 15467.37343216 0 429.54751964 0 2302.37922279 0 5220
0.06850000 0.06852730 29885.42264126 0 1240.45469408 0 15655.49223083 0 1566.23570722 0 5173.61020546 0 5029
0.06950000 0.06949320 29819.09941559 0 -264.23549563 0 15416.88363099 0 1156.42682103 0 1227.50007404 0 5040
0.07050000 0.07048030 29256.62531481 0 364.35699281 0 14396.34745245 0 1017.03621666 0 2924.30063553 0 5475
0.07150000 0.07148790 29534.42994451 0 606.12120522 0 13560.05475890 0 -463.95809071 0 1216.19523040 0 5509
0.07250000 0.07249820 28921.35531930 0 73.88695219 0 12763.17954170 0 1504.64036426 0 1569.60169397 0 5916
0.07350000 0.07351270 28934.97427882 0 -173.40478622 0 12607.17048501 0 696.14031323 0 397.05910416 0 5721
0.07450000 0.07449140 28780.29390111 0 -40.10872159 0 9836.91910468 0 3346.53267016 0 -1260.79455477 0 6028
0.07550000 0.07549160 28726.92529548 0 -532.08610532 0 10724.98598909 0 1777.24100129 0 -939.95069127 0 6183
0.07650000 0.07648840 28416.12513782 0 792.06650653 0 8721.37130688 0 1290.01441997 0 -1367.07780071 0 6330
0.07750000 0.07749960 28181.50257491 0 988.31903501 0 9714.65849403 0 -599.47116694 0 329.43820203 0 6583
0.07850000 0.07848650 27436.99945411 0 956.24140278 0 9692.07095140 0 -943.87915212 0 -1083.28082882 0 6549
0.07950000 0.07947320 26439.82588094 0 720.87145795 0 10816.80877881 0 -1543.59280297 0 1594.38155691 0 6828
0.08050000 0.08048110 26451.78399175 0 257.32415048 0 11688.49969480 0 -965.37385629 0 171.31211683 0 7147
0.08150000 0.08149960 25620.69529086 0 766.00668284 0 11077.75025781 0 880.02505489 0 -516.63356881 0 7386
0.08250000 0.08250610 25531.23090632 0 992.48665807 0 11190.79869421 0 1031.58857317 0 -1973.04399338 0 7227
0.08350000 0.08350160 24399.19641687 0 746.07428370 0 10178.33424046 0 1292.50569306 0 -2183.63961143 0 7798
0.08450000 0.08449610 23096.86957170 0 801.43922949 0 9113.35375011 0 1506.57802110 0 -1208.55532628 0 7371
0.08550000 0.08548940 22625.63142741 0 742.49238662 0 8568.16354836 0 2210.78895189 0 -858.74958275 0 8256
0.08650000 0.08650700 22023.51840378 0 160.78012146 0 7222.00136924 0 1760.44428454 0 -489.88726097 0 8037
0.08750000 0.08749060 21572.87478366 0 301.50936990 0 6020.15587180 0 1809.80470858 0 730.03934290 0 8155
0.08850000 0.08849210 21251.22374768 0 484.36659982 0 6361.47135666 0 130.49509862 0 1711.50460884 0 8718
0.08950000 0.08949900 20997.99967907 0 547.55303586 0 6197.82239584 0 24.68918060 0 1945.15280717 0 8571
0.09050000 0.09049190 20098.15184106 0 709.98625542 0 7431.36795923 0 -360.83377905 0 2870.87666828 0 8932
0.09150000 0.09150830 19864.52578739 0 697.61846859 0 8297.94346116 0 -1422.79373920 0 3907.05804178 0 9285
0.09250000 0.09250820 19509.87922345 0 646.06240254 0 8975.53652309 0 562.61804101 0 3157.41736226 0 9204
0.09350000 0.09350330 18854.72976393 0 557.73736023 0 8769.84594493 0 576.70535988 0 4624.25680958 0 9349
0.09450000 0.09448040 18986.26898277 0 -123.49517486 0 8717.13060647 0 944.28882814 0 4014.40423090 0 9564
0.09550000 0.09549270 18671.81495792 0 -264.02733593 0 7889.18644583 0 1370.67630627 0 2047.36143757 0 10155
0.09650000 0.09649430 18987.70838500 0 53.89885926 0 7717.69827904 0 461.98500243 0 2002.96141504 0 9913
0.09750000 0.09749140 18161.49150703 0 654.10755375 0 6589.16264423 0 122.74779294 0 1289.97013067 0 10476
0.09850000 0.09850240 17965.62208099 0 701.15718361 0 6561.74756798 0 48.63009350 0 2363.55381741 0 10575
0.09950000 0.09950330 17575.43335438 0 34.33406131 0 6095.35910196 0 555.84067099 0 919.73594785 0 10882
0.10050000 0.10051200 17459.28466703 0 350.03715512 0 5965.70217834 0 402.54322664 0 774.44268712 0 10875
0.10150000 0.10150300 16762.50326620 0 481.82328681 0 5910.90524281 0 108.98079643 0 577.25011826 0 11118
0.10250000 0.10250800 16707.80598159 0 493.57766684 0 6002.97162368 0 -93.77783011 0 950.18594833 0 11575
0.10350000 0.10349800 16569.51264461 0 -86.46500246 0 5990.48204128 0 121.92844090 0 1543.41564577 0 11364
0.10450000 0.10450100 16385.93349911 0 -40.91600480 0 5731.56679772 0 767.27557126 0 1866.12962493 0 12093
0.10550000 0.10551000 16714.00648349 0 -9.94748734 0 5675.25295369 0 546.56870619 0 1263.71764853 0 12067
0.10650000 0.10649700 16491.78492438 0 16.24221472 0 5934.19034190 0 130.84166238 0 1160.42393029 0 12054
0.10750000 0.10749900 16729.72918473 0 227.11331222 0 5944.63154421 0 -261.91141466 0 1307.78550130 0 12807
0.10850000 0.10850100 16373.08960233 0 338.88068063 0 5755.13977726 0 -829.40570752 0 1619.85897632 0 12736
0.10950000 0.10950300 16309.64518111 0 356.06271429 0 6260.42532036 0 -367.31773246 0 1593.54006022 0 12933
0.11050000 0.11050200 16059.74280996 0 85.63922848 0 6255.08845980 0 954.17862866 0 1671.06847860 0 13428
0.11150000 0.11150900 15545.21187563 0 250.97527943 0 5622.10579457 0 1075.61435111 0 792.41639199 0 13453
0.11250000 0.11250000 15678.41194320 0 202.26812255 0 5291.94014080 0 1325.67837821 0 1135.43369318 0 13668
0.11350000 0.11349100 15005.32531748 0 376.60852022 0 4749.26335679 0 655.77726034 0 196.45293756 0 13791
0.11450000 0.11448600 14897.92376674 0 358.90165837 0 4311.17575301 0 209.13739287 0 967.24618641 0 14205
0.11550000 0.11549300 14484.48315801 0 -30.78416325 0 4306.29285777 0 -301.65995352 0 864.45847343 0 14776
0.11650000 0.11649800 14569.18644287 0 234.39004409 0 4895.93844366 0 -446.60443603 0 1131.15977580 0 14553
0.11750000 0.11747300 14698.84336650 0 263.80146050 0 4756.24999375 0 -371.12993390 0 572.90201630 0 14568
0.11850000 0.11849100 14199.03862418 0 306.01026994 0 5002.01131542 0 83.80565149 0 1266.18677696 0 16015
0.11950000 0.11950300 14267.35486831 0 -5.97939864 0 5315.57955429 0 1.73602981 0 1309.14739726 0 15270
0.12050000 0.12050700 14183.53736944 0 -5.90398504 0 5215.82897999 0 333.93245867 0 1019.11227756 0 15999
0.12150000 0.12150000 14202.02815188 0 196.98662362 0 5077.05953304 0 368.56779794 0 731.47099449 0 15670
0.12250000 0.12250700 14068.82808432 0 304.03607443 0 4940.15023666 0 181.09673027 0 1004.57210061 0 16887
0.12350000 0.12352200 13756.58852443 0 212.87319527 0 5126.72998218 0 214.47203897 0 824.44530600 0 16407
0.12450000 0.12449800 13622.72411737 0 285.48107250 0 4316.35760103 0 447.90543419 0 1064.61510364 0 16306
0.12550000 0.12549900 13459.96094254 0 -33.23734753 0 3865.42610046 0 636.93991412 0 784.56943539 0 17523
0.12650000 0.12650100 13291.77232854 0 6.40826300 0 3641.14508894 0 433.98530743 0 -51.29199111 0 17154
0.12750000 0.12750600 13300.63018840 0 145.88009395 0 2933.92248580 0 584.20685994 0 20.68155264 0 18007
0.12850000 0.12850300 13005.77417848 0 256.59448428 0 3022.34607180 0 37.80855683 0 77.76293022 0 17496
0.12950000 0.12949900 12883.64643573 0 196.47397498 0 2623.76452298 0 -55.23052777 0 -87.88724259 0 18405
0.13050000 0.13049000 12868.69879722 0 25.73440807 0 3160.18544346 0 -74.18834088 0 -127.42252848 0 18100
0.13150000 0.13148800 12713.68624976 0 129.73332267 0 3106.23000462 0 -521.64711748 0 -23.47089270 0 19059
0.13250000 0.13249300 12623.33607924 0 403.06473314 0 3818.40193696 0 -452.46169585 0 387.36528378 0 18957
0.13350000 0.13349100 12365.46163422 0 446.10175248 0 4168.94066839 0 -195.54389969 0 855.73901763 0 19468
0.13450000 0.13450700 12152.20865821 0 306.78976161 0 4388.98097951 0 -203.75845748 0 836.18529200 0 19953
0.13550000 0.13551000 11932.64445706 0 179.42702369 0 4551.95452852 0 248.51279439 0 420.09839764 0 19956
0.13650000 0.13649900 11862.44591770 0 59.96461097 0 4286.07479265 0 199.84549788 0 343.11473764 0 19723
0.13750000 0.13749600 11749.17603481 0 93.67375026 0 4332.53426759 0 398.60037177 0 344.53420968 0 20946
0.13850000 0.13851100 11655.61489009 0 23.23372351 0 3971.31074270 0 184.18147996 0 489.03247750 0 20955
0.13950000 0.13949800 11809.74165157 0 -118.01326685 0 3723.45675164 0 222.93683129 0 -419.05095571 0 20506
0.14050000 0.14048300 11671.44831458 0 42.18101791 0 3769.96051588 0 98.33298454 0 -246.42012500 0 21447
0.14150000 0.14148400 11652.18246940 0 291.31175875 0 3614.90367912 0 -279.53080514 0 -81.92778520 0 21771
0.14250000 0.14249400 11423.31751540 0 180.46339329 0 3813.76263286 0 -14.54338793 0 -59.09576564 0 22470
0.14350000 0.14350900 11350.57234134 0 293.24609389 0 4149.37587044 0 193.59959945 0 251.44363877 0 22519
0.14450000 0.14449900 11107.31336507 0 334.17937151 0 3892.65294719 0 -153.42477608 0 273.98799933 0 22218
0.14550000 0.14550500 10917.03546306 0 197.45166126 0 4195.31494611 0 270.85342418 0 491.05871294 0 23559
0.14650000 0.14650700 10780.14831133 0 137.44962583 0 4123.63271523 0 110.58373689 0 458.93789864 0 23044
0.14750000 0.14750500 10535.62709004 0 69.88618907 0 3874.51647914 0 302.28775434 0 50.93778744 0 23649
0.14850000 0.14849900 10408.81575389 0 296.68958691 0 3940.02035277 0 41.15151314 0 -331.23191865 0 23640
0.14950000 0.14949500 10153.17791848 0 362.74264785 0 3538.42713159 0 -280.91152404 0 -493.89876426 0 24457
0.15050000 0.15050000 9946.45761411 0 110.07319200 0 3429.77440815 0 143.51172367 0 -521.02706729 0 24591
0.15150000 0.15149900 9747.63187734 0 -29.85464158 0 3216.34427494 0 445.57692428 0 -602.32671951 0 25020
0.15250000 0.15250500 9955.47048651 0 -75.28749056 0 2907.92466712 0 425.44522330 0 -1316.83159068 0 25297
0.15350000 0.15350100 9912.54308319 0 87.64132625 0 2973.53926400 0 265.17221431 0 -846.48366132 0 25452
0.15450000 0.15450400 9802.77205494 0 164.60450245 0 2645.27805010 0 23.95574981 0 -832.45724024 0 26061
0.15550000 0.15549900 9686.76730782 0 151.26345828 0 2941.25236483 0 -160.93291954 0 -39.68553734 0 26128
0.15650000 0.15649500 9696.27843483 0 123.34459125 0 2911.01384575 0 241.82621743 0 -80.31953002 0 26331
0.15750000 0.15749700 9509.42188120 0 96.17022734 0 2963.31950819 0 224.12710621 0 -178.39397578 0 27345
0.15850000 0.15849900 9403.24935851 0 215.38993470 0 2954.61666088 0 80.03087451 0 -6.46876218 0 26980
0.15950000 0.15949700 9138.59865069 0 187.72794560 0 3043.16204246 0 100.34515813 0 91.22134104 0 27777
0.16050000 0.16050000 9032.86902100 0 251.23547907 0 2941.27450947 0 60.73424826 0 205.22000435 0 28224
0.16150000 0.16150500 8833.99899493 0 119.61432502 0 2831.96851887 0 159.93419584 0 274.25041343 0 28075
0.16250000 0.16249700 8823.13704429 0 44.89694846 0 2781.40121142 0 228.29362204 0 105.91110510 0 28590
0.16350000 0.16349900 8746.95944953 0 90.26757098 0 2763.23152639 0 185.00193923 0 345.06346681 0 29163
0.16450000 0.16449100 8839.22513225 0 50.38406047 0 2889.67747582 0 306.19296330 0 798.94242024 0 28996
0.16550000 0.16550500 8721.62597035 0 -24.47814209 0 2519.67359736 0 264.14359534 0 941.91713616 0 30777
0.16650000 0.16650700 8679.55113604 0 126.79472766 0 2796.91353849 0 254.74429880 0 1185.35880579 0 29211
0.16750000 0.16749900 8725.00302942 0 277.95742778 0 2876.24674581 0 -159.56659466 0 1280.60294387 0 30922
0.16850000 0.16850800 8553.42628403 0 140.76246542 0 2885.49213704 0 126.11931585 0 1786.74105598 0 30867
0.16950000 0.16949900 8318.05080303 0 127.47567564 0 2710.79299605 0 25.06951496 0 1546.82592181 0 30852
0.17050000 0.17049200 8366.10469275 0 110.17561100 0 2840.31705178 0 112.03864037 0 1184.38444120 0 31257
0.17150000 0.17149500 8160.96773083 0 61.21700163 0 2733.83450400 0 170.61013143 0 935.43650444 0 32608
0.17250000 0.17250900 8073.73995591 0 107.89426920 0 2400.21428489 0 243.71183435 0 778.87936767 0 32361
0.17350000 0.17350400 7997.23019141 0 8.51849310 0 2108.28136872 0 226.12344638 0 866.07060392 0 32508
0.17450000 0.17449800 8028.86382342 0 23.40988419 0 2083.87796482 0 369.94740961 0 491.15836386 0 32791
0.17550000 0.17549800 7913.51234346 0 38.74040369 0 1713.97373728 0 320.71985346 0 609.77728688 0 33633
0.17650000 0.17650100 7841.26542402 0 13.68041093 0 1743.17145782 0 26.03590747 0 368.78149380 0 33984
0.17750000 0.17750300 7859.94443599 0 16.83325542 0 1587.45028157 0 24.75262503 0 529.74098693 0 34069
0.17850000 0.17849800 7844.66462774 0 66.83377056 0 1773.44319388 0 -73.74035461 0 235.57035391 0 34536
