### header ###
fiducial parameters:
Omega_m = 0.31
Omega_nu = 0
Omega_de = 0.69
Omega_k = 0
H_0 = 100
w_de = -1
zeff = 0
beta = 0
fgrowth = 0
b_1 = 2
gamma = 0.55
Lx = 3500 Ly = 3500 Lz = 3500
nx = 700 ny = 700 nz = 700
xoffset = -685.467585 yoffset = -31.7331281 zoffset = 572.489161
bins = 400 dk = 0.001
kx_ny = 0.628318531 ky_ny = 0.628318531 kz_ny = 0.628318531
############################
A(data) = 8.05961517 (not used)
A(ran) = 8.06377553 (used)
Ngal = 479530
weighted Ngal = 0
Nran = 23820508
weighted Nran = 0
SN(data) = 3482.77581
SN(ran) = 70.2384094
SN(data+ran) = 3553.01422
############################
13 columns: k_central k_mean P_0(k) sigma^{lin}_{P_0(k)} P^img_1(k) sigma^{lin}_{P_1(k)} P_2(k) sigma^{lin}_{P_2(k)} P^img_3(k) sigma^{lin}_{P_3(k)} P_4(k) sigma^{lin}_{P_4(k)} N_modes
### header ###
0.00050000 0 0 0 0 0 0 0 0 0 0 0 0
0.00150000 0.00179520 13712.74211815 0 -6891.11601436 0 -10204.53136098 0 25644.16861947 0 10560.37373601 0 3
0.00250000 0.00253879 26451.34109875 0 -7082.34613630 0 5975.25759466 0 -15533.14304158 0 15264.74988798 0 6
0.00350000 0.00331552 25836.71634807 0 -5357.92012439 0 1199.60888783 0 -6252.85185018 0 -3166.02055864 0 7
0.00450000 0.00420575 31525.12322365 0 -7657.78592945 0 14493.45174111 0 -3449.59386957 0 16761.06386397 0 24
0.00550000 0.00557378 37647.01161588 0 -4242.31696497 0 15855.01552406 0 13834.09479816 0 3766.88240958 0 45
0.00650000 0.00659388 47515.77472674 0 -2885.50320936 0 5183.53100850 0 28572.90925725 0 148.29386076 0 40
0.00750000 0.00754703 52548.58924981 0 -17732.77109005 0 -10063.56959372 0 14611.15055393 0 7550.98228425 0 57
0.00850000 0.00846663 69121.75576160 0 -23646.83194544 0 -19197.52894031 0 38500.79858265 0 56347.61461833 0 75
0.00950000 0.00948925 82582.82393663 0 -19323.97488974 0 -28628.16015810 0 32596.48137310 0 -802.44127488 0 112
0.01050000 0.01054430 91135.41979629 0 -16253.50849428 0 -44346.10030090 0 10782.25205305 0 36113.60535175 0 105
0.01150000 0.01145670 102041.54901941 0 203.04982869 0 -40793.87705259 0 -8899.94576155 0 -2553.05665668 0 144
0.01250000 0.01249090 92685.43454765 0 8378.54998584 0 -35710.35128185 0 -41879.73994755 0 37614.45898091 0 169
0.01350000 0.01339930 86211.22477970 0 17909.92828715 0 -14199.03862418 0 -32433.05385878 0 13823.79753608 0 180
0.01450000 0.01448870 77280.84119722 0 5771.17250360 0 -1805.70794840 0 -18834.13523977 0 22167.90151941 0 267
0.01550000 0.01550050 76217.45512163 0 8553.93561097 0 8986.02201469 0 -13493.06719375 0 -4550.41547537 0 238
0.01650000 0.01653350 65236.58770599 0 5621.10928533 0 7234.63489185 0 -1581.93626381 0 -6446.72825776 0 315
0.01750000 0.01747870 65348.19674016 0 3784.62027394 0 13789.14115940 0 2470.53461981 0 -27750.12479998 0 297
0.01850000 0.01844180 61474.10100937 0 -4473.18600976 0 9628.18363720 0 -8580.39846729 0 -23707.06539245 0 388
0.01950000 0.01947590 68778.18152248 0 -3905.99509860 0 4380.49957870 0 -5214.06848035 0 -33316.07176307 0 399
0.02050000 0.02045430 70111.17870740 0 -3435.72024658 0 10514.25750314 0 -15969.61408593 0 -44478.19313599 0 462
0.02150000 0.02154770 76193.31745353 0 346.24709833 0 11253.35732943 0 -9838.50244713 0 -40725.00719221 0 571
0.02250000 0.02255340 71743.01793917 0 1804.44570337 0 17821.34968860 0 -4874.46920584 0 -24295.78090306 0 510
0.02350000 0.02348930 71598.74554678 0 5587.49370718 0 16267.45962356 0 5443.11059155 0 -30811.29044259 0 555
0.02450000 0.02439640 70320.11347673 0 1141.54561648 0 20188.72345808 0 7492.00000994 0 -23147.47009612 0 592
0.02550000 0.02547300 66232.98621642 0 4224.51266666 0 18979.62558788 0 5064.42601042 0 -19326.07863146 0 837
0.02650000 0.02652900 61236.04602576 0 8111.02047357 0 19305.37338405 0 617.33525580 0 -16086.42711277 0 723
0.02750000 0.02749970 53835.96845647 0 8012.85324173 0 15219.35335622 0 -838.18938279 0 -11081.62557149 0 826
0.02850000 0.02848090 50329.14173991 0 3385.68441072 0 16214.42318767 0 1410.81348374 0 -4097.47988401 0 831
0.02950000 0.02946900 45994.76946640 0 203.76510087 0 12899.92275321 0 -239.60621631 0 -5780.79435387 0 996
0.03050000 0.03053250 49997.30416509 0 -2058.23446054 0 11861.44940847 0 7411.20525574 0 -4860.92775258 0 1041
0.03150000 0.03150510 49215.26586315 0 -1907.08615444 0 11832.77208719 0 -2348.76119145 0 -6879.70044747 0 1036
0.03250000 0.03246190 52474.18322703 0 2262.75137226 0 15017.17270503 0 -4935.07911189 0 -7505.76290969 0 1059
0.03350000 0.03345080 51262.31727562 0 489.77210880 0 16800.03844733 0 -5550.91074598 0 2386.38495119 0 1302
0.03450000 0.03451200 49348.46593072 0 1109.49123613 0 23056.89847910 0 2339.53794488 0 -301.71863684 0 1339
0.03550000 0.03553350 51850.36844674 0 -954.57723236 0 21810.15470452 0 7471.07331603 0 13.12989494 0 1365
0.03650000 0.03647120 51750.05318389 0 -2005.56341138 0 19372.47167245 0 8209.40915191 0 -8111.26406472 0 1308
0.03750000 0.03744890 52474.95828976 0 1543.76996016 0 17831.75767393 0 1375.14952550 0 -4762.12939823 0 1579
0.03850000 0.03847530 48212.55612758 0 2637.07345741 0 15918.34922202 0 -486.96638169 0 -3236.90558213 0 1662
0.03950000 0.03950240 47068.12063432 0 3497.32666187 0 13929.75968459 0 -217.29658903 0 -1630.17838305 0 1683
0.04050000 0.04050350 43735.68303365 0 1545.70761701 0 12129.62111558 0 -1623.49069886 0 -7426.29683446 0 1822
0.04150000 0.04152450 42748.69599932 0 2151.90632850 0 9580.91588255 0 30.13167115 0 -9397.62461750 0 1887
0.04250000 0.04250150 40423.17561766 0 1491.05462170 0 13014.96420808 0 -2507.19508728 0 -9400.39269871 0 1920
0.04350000 0.04349210 41266.33315260 0 -32.55042050 0 14630.08422937 0 -1475.80803043 0 -12743.02791053 0 2005
0.04450000 0.04448520 39436.41002982 0 578.55333089 0 12704.49622016 0 898.50144331 0 -4926.90773618 0 2151
0.04550000 0.04548030 40654.58720637 0 394.26444937 0 14268.57282404 0 2297.76206334 0 -7800.13173732 0 2274
0.04650000 0.04648670 39333.65885550 0 -925.22782096 0 13137.97773681 0 2156.53456028 0 -6031.03996709 0 2311
0.04750000 0.04749250 41258.58252523 0 497.72535971 0 13673.87825804 0 4134.11820684 0 -5398.37839928 0 2568
0.04850000 0.04851840 40417.19656226 0 1834.31883573 0 12506.30160591 0 -225.01067773 0 -4574.16561210 0 2493
0.04950000 0.04949480 38648.39267248 0 2010.66775312 0 11382.46063682 0 -328.50591228 0 786.62445888 0 2644
0.05050000 0.05050630 38383.09976982 0 -739.06993102 0 10732.36015741 0 1421.65328974 0 3127.03490296 0 2829
0.05150000 0.05149060 37860.92893138 0 -954.11440918 0 13798.77408199 0 3931.69396450 0 1197.15083172 0 2784
0.05250000 0.05249300 39783.74885938 0 -872.61656235 0 12041.70685652 0 1541.66621845 0 -1536.38471951 0 3055
0.05350000 0.05348950 39043.01032901 0 1067.88586839 0 13622.39194763 0 253.20967458 0 1551.25485174 0 3009
0.05450000 0.05448610 38404.35863347 0 2463.68085075 0 14371.32399836 0 -2290.60934151 0 3325.39560208 0 3336
0.05550000 0.05550870 36692.13432352 0 2451.45700415 0 16536.51711665 0 -2249.95176477 0 3313.61464848 0 3349
0.05650000 0.05647670 35254.28222257 0 2662.51765984 0 16713.89576024 0 -123.75758896 0 8100.20281223 0 3324
0.05750000 0.05747970 34051.16340778 0 507.95950954 0 14805.91274749 0 2154.94014550 0 7044.08018172 0 3639
0.05850000 0.05849280 33503.74766874 0 -1238.90456861 0 14084.66150881 0 6200.30259660 0 5155.60660531 0 3846
0.05950000 0.05951020 34972.82372568 0 -1732.92955737 0 10743.18889109 0 3754.21566998 0 1802.18694911 0 3787
0.06050000 0.06049470 34760.01364267 0 -433.86129739 0 9371.47178628 0 3058.65222488 0 911.71626298 0 3930
0.06150000 0.06148310 35201.57795643 0 352.66240333 0 8116.97738433 0 -789.78892931 0 2004.74405934 0 4083
0.06250000 0.06249100 34500.03545592 0 1088.03971402 0 9934.36663541 0 -1680.50209935 0 1953.75600355 0 4303
0.06350000 0.06350600 33988.93694229 0 1120.50819932 0 11052.36141700 0 -2231.25060815 0 2637.59385667 0 4470
0.06450000 0.06451750 32916.47156036 0 911.20915051 0 10918.14269555 0 156.30800946 0 3053.43715989 0 4479
0.06550000 0.06550280 32570.90430277 0 763.84647226 0 10944.53911791 0 40.92342325 0 2794.03473404 0 4636
0.06650000 0.06648880 32463.72419853 0 714.25020770 0 11946.15269333 0 2368.09347059 0 3396.32491487 0 4653
0.06750000 0.06749660 32233.64128879 0 -127.17340117 0 12243.00172172 0 666.80197416 0 1959.96757777 0 5220
0.06850000 0.06852730 31518.14765901 0 816.97923737 0 10291.17230269 0 1896.64495213 0 1210.27153663 0 5029
0.06950000 0.06949320 30462.51221080 0 1119.92136611 0 10283.93100226 0 -783.48102586 0 589.92350125 0 5040
0.07050000 0.07048030 30109.74794208 0 945.29419523 0 9549.45940774 0 -385.18625026 0 -703.29414230 0 5475
0.07150000 0.07148790 28927.77726769 0 138.44613507 0 10045.01237732 0 723.66721996 0 -92.26114306 0 5509
0.07250000 0.07249820 28745.30535468 0 721.17926858 0 8529.44362847 0 1577.66234643 0 -623.37742345 0 5916
0.07350000 0.07351270 28398.52014136 0 436.32488966 0 8915.18128050 0 1701.86061393 0 -860.91643672 0 5721
0.07450000 0.07449140 28108.09306137 0 -243.79819848 0 7798.71447974 0 648.88473814 0 -326.78416577 0 6028
0.07550000 0.07549160 27301.69564483 0 650.40386110 0 6567.64911710 0 1994.32500168 0 -977.02637093 0 6183
0.07650000 0.07648840 26393.76500970 0 1337.84686319 0 6216.99966242 0 473.81799596 0 -945.50789110 0 6330
0.07750000 0.07749960 25805.93528507 0 1167.37735028 0 7279.12349298 0 -928.43768793 0 -532.07171130 0 6583
0.07850000 0.07848650 24703.90679587 0 918.44602201 0 7328.82715909 0 -782.25199781 0 -902.98905656 0 6549
0.07950000 0.07947320 24348.81733894 0 515.12994710 0 7133.61100021 0 -1282.99456604 0 -390.60504602 0 6828
0.08050000 0.08048110 23915.66799204 0 378.41330916 0 8723.37539767 0 -1264.02767362 0 -719.10431490 0 7147
0.08150000 0.08149960 24169.88856987 0 619.37367080 0 9248.94543984 0 -168.79094847 0 -978.64514482 0 7386
0.08250000 0.08250610 23293.07116748 0 51.34403103 0 9656.52878874 0 1806.09547977 0 50.02420991 0 7227
0.08350000 0.08350160 23532.56555331 0 225.25316165 0 9638.82414135 0 1633.74367164 0 -177.56687312 0 7798
0.08450000 0.08449610 23087.45809560 0 487.01509992 0 9270.74684740 0 1316.72086743 0 383.16776544 0 7371
0.08550000 0.08548940 22741.89083801 0 417.63591260 0 8910.25409596 0 1840.25360183 0 901.44557448 0 8256
0.08650000 0.08650700 22251.16540205 0 595.12860114 0 8218.14521619 0 163.96230761 0 1405.08909181 0 8037
0.08750000 0.08749060 21882.34626234 0 634.94246673 0 6871.23011898 0 565.82790797 0 1288.74110262 0 8155
0.08850000 0.08849210 21021.25156119 0 723.92963406 0 7714.40979857 0 -270.04514447 0 2142.59450333 0 8718
0.08950000 0.08949900 20448.81236807 0 578.76038336 0 6897.67083065 0 1011.06048295 0 1617.41199253 0 8571
0.09050000 0.09049190 19946.12882130 0 240.79870569 0 6371.25929180 0 429.91844252 0 966.94059025 0 8932
0.09150000 0.09150830 19538.88871447 0 230.91111963 0 5960.04422036 0 1018.48779844 0 1366.38024425 0 9285
0.09250000 0.09250820 19485.52010885 0 172.79802282 0 5296.43550467 0 1123.35378680 0 -149.63914823 0 9204
0.09350000 0.09350330 19250.89754594 0 -116.76984477 0 4701.39769660 0 974.80747703 0 94.04799484 0 9349
0.09450000 0.09448040 19110.27902074 0 151.48490477 0 4243.94459671 0 339.79857636 0 217.83802571 0 9564
0.09550000 0.09549270 19061.56079154 0 226.25520704 0 3977.73269110 0 126.97520656 0 -822.22973380 0 10155
0.09650000 0.09649430 18367.10457892 0 766.47282771 0 3847.18998149 0 -149.26822535 0 332.36793917 0 9913
0.09750000 0.09749140 17876.26841970 0 999.15109038 0 3886.33064972 0 -812.60345460 0 -402.66502221 0 10476
0.09850000 0.09850240 17016.28095104 0 488.16772893 0 4286.32945612 0 -236.30777074 0 537.06865149 0 10575
0.09950000 0.09950330 16754.42046908 0 411.61035344 0 4813.13959867 0 -82.58027730 0 239.89077506 0 10882
0.10050000 0.10051200 16785.86587156 0 61.68303578 0 5109.33535989 0 9.79814382 0 669.27663876 0 10875
0.10150000 0.10150300 17009.96972589 0 -229.90907423 0 5115.28119832 0 509.05899140 0 1307.59727178 0 11118
0.10250000 0.10250800 16997.23655235 0 -141.65268033 0 6143.72301677 0 -272.42901600 0 751.69570301 0 11575
0.10350000 0.10349800 16922.27691333 0 518.42064203 0 5757.91893079 0 367.68422642 0 1637.15394769 0 11364
0.10450000 0.10450100 16598.52213563 0 720.33666466 0 5848.74521128 0 -162.01136398 0 1643.73090863 0 12093
0.10550000 0.10551000 16078.89793189 0 661.28574193 0 6174.22727165 0 -91.63522454 0 1958.82712832 0 12067
0.10650000 0.10649700 15756.25038668 0 306.51959688 0 6161.23943464 0 -188.12212037 0 1622.99244424 0 12054
0.10750000 0.10749900 15624.71116783 0 -10.95282122 0 6056.80526695 0 339.80632699 0 1485.05342165 0 12807
0.10850000 0.10850100 15647.63088021 0 -184.36528056 0 5968.80242929 0 -31.09130954 0 866.39059411 0 12736
0.10950000 0.10950300 15598.58048126 0 357.16883953 0 6663.44687143 0 192.57540941 0 723.50777848 0 12933
0.11050000 0.11050200 15148.37975413 0 973.88847407 0 6380.33859815 0 -174.16213323 0 220.83530404 0 13428
0.11150000 0.11150900 14356.92997610 0 733.10194794 0 6123.39422840 0 312.59941044 0 1467.21590637 0 13453
0.11250000 0.11250000 13840.95963955 0 138.49374606 0 5765.64741351 0 823.45765462 0 1068.20918027 0 13668
0.11350000 0.11349100 13907.50431171 0 -120.80792163 0 5492.27171374 0 1052.74667866 0 614.67789784 0 13791
0.11450000 0.11448600 13986.89288066 0 -510.13411414 0 4788.40402502 0 1128.00416322 0 33.87145958 0 14205
0.11550000 0.11549300 14241.66707474 0 -332.58938567 0 3804.34008444 0 411.90709174 0 -444.88822568 0 14776
0.11650000 0.11649800 14485.14749750 0 -137.71203993 0 3881.74670725 0 -219.63174234 0 -421.44257787 0 14553
0.11750000 0.11747300 14689.76406015 0 275.69756629 0 3989.28112588 0 -139.06397079 0 -144.73964449 0 14568
0.11850000 0.11849100 14356.37635986 0 180.02382199 0 3559.29846388 0 116.82742086 0 -264.95851845 0 16015
0.11950000 0.11950300 14271.45162850 0 65.86449925 0 3791.10865628 0 51.24305143 0 284.95513707 0 15270
0.12050000 0.12050700 14318.28756248 0 103.06728919 0 4182.06137330 0 143.33567371 0 826.39735686 0 15999
0.12150000 0.12150000 14159.39970133 0 386.41860001 0 4268.23727737 0 151.36864536 0 802.74133489 0 15670
0.12250000 0.12250700 13858.56463601 0 336.67396630 0 4406.99565199 0 208.62031530 0 1349.83819097 0 16887
0.12350000 0.12352200 13783.05138075 0 345.97250468 0 4500.76717088 0 -82.87801212 0 1363.00318518 0 16407
0.12450000 0.12449800 13402.60629998 0 148.63710283 0 4159.10844395 0 476.22290491 0 1343.20586840 0 16306
0.12550000 0.12549900 13295.75836548 0 143.20723474 0 4486.47279954 0 99.37511176 0 1294.25512038 0 17523
0.12650000 0.12650100 13202.08649751 0 113.82017744 0 4553.94754699 0 239.70365277 0 930.37423754 0 17154
0.12750000 0.12750600 13102.54629739 0 139.13483367 0 4291.10162812 0 339.80079082 0 450.40113621 0 18007
0.12850000 0.12850300 12729.74112075 0 134.41470160 0 4136.07800833 0 -17.53756600 0 748.12155656 0 17496
0.12950000 0.12949900 12846.11125459 0 325.52745690 0 4410.16233689 0 97.31599151 0 401.11489674 0 18405
0.13050000 0.13049000 12726.75159305 0 195.81627888 0 4224.16942459 0 40.26528427 0 433.64538706 0 18100
0.13150000 0.13148800 12449.38985634 0 335.48701308 0 4276.29792983 0 -30.24239439 0 1174.61865071 0 19059
0.13250000 0.13249300 12149.99419325 0 325.76661912 0 3995.80272520 0 -66.82181245 0 766.70423930 0 18957
0.13350000 0.13349100 12180.66453299 0 36.31490022 0 4114.06622659 0 554.46880994 0 692.27717910 0 19468
0.13450000 0.13450700 11949.03149779 0 -45.90552653 0 3716.86871837 0 595.68664631 0 533.25755729 0 19953
0.13550000 0.13551000 12026.64849477 0 -10.58419031 0 3646.00583953 0 229.96443586 0 -99.81457233 0 19956
0.13650000 0.13649900 11897.43446413 0 99.80017831 0 3363.81656920 0 313.28921628 0 425.82500404 0 19723
0.13750000 0.13749600 11881.82248614 0 114.09920002 0 2987.39074234 0 391.21734558 0 584.31315426 0 20946
0.13850000 0.13851100 11561.50012913 0 203.13397836 0 2946.87710583 0 239.33826605 0 561.57392078 0 20955
0.13950000 0.13949800 11606.12159815 0 169.52504360 0 2844.87884960 0 439.56354467 0 632.55305903 0 20506
0.14050000 0.14048300 11225.23362439 0 205.88766554 0 2896.58660651 0 -81.05860770 0 862.22407828 0 21447
0.14150000 0.14148400 11262.32591253 0 270.19240639 0 3062.78220203 0 17.64275309 0 927.11343788 0 21771
0.14250000 0.14249400 10909.20732942 0 109.45458121 0 3269.80145917 0 -153.75251690 0 1189.05696227 0 22470
0.14350000 0.14350900 10914.56633463 0 228.77969710 0 3400.53239830 0 -157.14396999 0 982.58467799 0 22519
0.14450000 0.14449900 10787.24567154 0 82.09309501 0 3371.19073753 0 139.91875427 0 982.18053813 0 22218
0.14550000 0.14550500 10652.08580248 0 104.36341553 0 3226.12113776 0 295.76172609 0 798.49731278 0 23559
0.14650000 0.14650700 10659.19423501 0 109.53563063 0 3090.19727829 0 219.74246558 0 850.48741397 0 23044
0.14750000 0.14750500 10497.43864174 0 152.02080530 0 2960.82823510 0 156.90370054 0 950.57680140 0 23649
0.14850000 0.14849900 10565.42271612 0 108.62149949 0 3164.06075715 0 14.27964515 0 1212.13168720 0 23640
0.14950000 0.14949500 10397.10123423 0 60.96244888 0 3032.49939366 0 94.97474843 0 1425.04142113 0 24457
0.15050000 0.15050000 10497.36113546 0 57.72777991 0 3272.79098687 0 118.62003025 0 1774.09646104 0 24591
0.15150000 0.15149900 10424.44987653 0 88.42535757 0 3293.60695753 0 124.42635738 0 1275.53181911 0 25020
0.15250000 0.15250500 10251.74375401 0 220.86962825 0 3381.90874796 0 -55.22122701 0 1594.85766688 0 25297
0.15350000 0.15350100 10101.34836600 0 333.78630398 0 3606.33369971 0 -228.82841533 0 1238.39524167 0 25452
0.15450000 0.15450400 9742.82648837 0 292.18979410 0 3451.31007992 0 -233.32710090 0 1299.07158167 0 26061
0.15550000 0.15549900 9509.93120814 0 314.79615969 0 3451.25471830 0 -0.53127340 0 825.78616453 0 26128
0.15650000 0.15649500 9523.25121489 0 85.62405939 0 3514.64377788 0 101.58957672 0 895.81972624 0 26331
0.15750000 0.15749700 9352.70419571 0 -115.92281192 0 3420.58437855 0 212.79458176 0 355.72279391 0 27345
0.15850000 0.15849900 9450.12958179 0 25.04548802 0 3113.22771391 0 258.44909868 0 28.45266381 0 26980
0.15950000 0.15949700 9360.43267844 0 145.00095136 0 2904.08257041 0 137.03773535 0 230.69078036 0 27777
0.16050000 0.16050000 9306.34437170 0 100.36542049 0 2928.40846804 0 150.38320845 0 54.68344420 0 28224
0.16150000 0.16150500 9166.23517344 0 136.30917638 0 2840.46099200 0 131.51043080 0 213.03374398 0 28075
0.16250000 0.16249700 9080.90076606 0 122.41451596 0 2595.37508214 0 74.09832287 0 -80.57751519 0 28590
0.16350000 0.16349900 8939.79505858 0 135.87624848 0 2721.00167953 0 79.85781408 0 144.72857217 0 29163
0.16450000 0.16449100 8845.23740462 0 25.85808593 0 2535.88348089 0 130.93134821 0 273.77319623 0 28996
0.16550000 0.16550500 8947.08064831 0 -42.73075883 0 2649.99486047 0 170.29457018 0 387.46493470 0 30777
0.16650000 0.16650700 8891.73009654 0 128.64380591 0 2554.13067219 0 199.68716364 0 758.70337739 0 29211
0.16750000 0.16749900 8826.96806867 0 137.76186539 0 2562.24668628 0 500.74146099 0 838.08198124 0 30922
0.16850000 0.16850800 8775.18280550 0 64.26853435 0 2455.13301599 0 334.90239432 0 885.60882829 0 30867
0.16950000 0.16949900 8582.56864295 0 31.92007305 0 2207.25688027 0 594.11548342 0 1308.67128729 0 30852
0.17050000 0.17049200 8533.07535101 0 179.55878435 0 2198.38794809 0 315.11282818 0 1215.13228722 0 31257
0.17150000 0.17149500 8507.42077441 0 84.63917610 0 1968.98045018 0 110.59104463 0 1049.74054248 0 32608
0.17250000 0.17250900 8325.30317579 0 107.42125948 0 1935.08806391 0 -261.11199280 0 998.03832174 0 32361
0.17350000 0.17350400 8211.41324271 0 251.43145921 0 2019.95743364 0 -347.63667510 0 596.04317517 0 32508
0.17450000 0.17449800 8114.85149796 0 136.64356059 0 2213.30236962 0 -539.35287210 0 515.08565780 0 32791
0.17550000 0.17549800 8073.20848432 0 50.11223490 0 2386.15243237 0 -246.52088316 0 148.20971109 0 33633
0.17650000 0.17650100 7977.90898460 0 141.51538351 0 2322.18761189 0 88.12407962 0 469.60276191 0 33984
0.17750000 0.17750300 8022.69653850 0 25.22153798 0 2313.34082436 0 128.48214996 0 383.07475791 0 34069
0.17850000 0.17849800 8043.97754680 0 -79.47703682 0 1990.74864077 0 417.77431666 0 316.92758221 0 34536
