### header ###
fiducial parameters:
Omega_m = 0.31
Omega_nu = 0
Omega_de = 0.69
Omega_k = 0
H_0 = 100
w_de = -1
zeff = 0
beta = 0
fgrowth = 0
b_1 = 2
gamma = 0.55
Lx = 3500 Ly = 3500 Lz = 3500
nx = 700 ny = 700 nz = 700
xoffset = -685.467585 yoffset = -31.7331281 zoffset = 572.489161
bins = 400 dk = 0.001
kx_ny = 0.628318531 ky_ny = 0.628318531 kz_ny = 0.628318531
############################
A(data) = 8.03108879 (not used)
A(ran) = 8.03097796 (used)
Ngal = 477664
weighted Ngal = 0
Nran = 23820508
weighted Nran = 0
SN(data) = 3490.16209
SN(ran) = 69.9527306
SN(data+ran) = 3560.11482
############################
13 columns: k_central k_mean P_0(k) sigma^{lin}_{P_0(k)} P^img_1(k) sigma^{lin}_{P_1(k)} P_2(k) sigma^{lin}_{P_2(k)} P^img_3(k) sigma^{lin}_{P_3(k)} P_4(k) sigma^{lin}_{P_4(k)} N_modes
### header ###
0.00050000 0 0 0 0 0 0 0 0 0 0 0 0
0.00150000 0.00179520 19865.07940363 0 -29788.76124559 0 1279.71715789 0 -9626.27919733 0 -7811.69124443 0 3
0.00250000 0.00253879 35537.29084493 0 -29024.32794011 0 -13120.81563334 0 -14562.10015499 0 -2443.29670076 0 6
0.00350000 0.00331552 40716.70294860 0 -13022.27194246 0 -16324.14992663 0 -8727.97041247 0 32813.83110929 0 7
0.00450000 0.00420575 40691.23660152 0 -100.45244896 0 -22106.89300966 0 -19119.35832709 0 14960.15023222 0 24
0.00550000 0.00557378 37063.05720494 0 -7804.66031817 0 -43250.16159036 0 -4778.92611498 0 3686.65234394 0 45
0.00650000 0.00659388 41493.42653463 0 -14602.18197083 0 -54033.94162423 0 -25031.09399427 0 -30122.14894588 0 40
0.00750000 0.00754703 64396.08752901 0 -11055.11842588 0 -19154.34687352 0 -65093.42254608 0 -18890.93626609 0 57
0.00850000 0.00846663 67301.13339167 0 -1326.73024907 0 -21361.17193313 0 -75820.62300013 0 -25199.28260826 0 75
0.00950000 0.00948925 64993.66089947 0 15806.62946460 0 25278.89262371 0 -66039.77414833 0 5954.34197307 0 112
0.01050000 0.01054430 64056.83149656 0 -2161.83820387 0 43405.94920055 0 -9929.95985013 0 -6612.37023705 0 105
0.01150000 0.01145670 72306.48854919 0 -8440.80966830 0 62222.47944386 0 4762.51692959 0 -10727.05651383 0 144
0.01250000 0.01249090 77079.21416227 0 1301.59607173 0 56235.67341442 0 43836.88408250 0 -15424.30208862 0 169
0.01350000 0.01339930 78373.79038007 0 -862.07349466 0 65022.55966725 0 25731.19709255 0 2370.85047947 0 180
0.01450000 0.01448870 73593.31413961 0 8011.46920113 0 36830.53838375 0 35630.29837341 0 2315.75459117 0 267
0.01550000 0.01550050 68396.18631624 0 7158.47944175 0 38133.08667542 0 19146.26407640 0 12525.23528135 0 238
0.01650000 0.01653350 60228.24302077 0 5500.43201713 0 27137.27162127 0 10566.20885119 0 20556.32464206 0 315
0.01750000 0.01747870 59044.50077441 0 2319.88456833 0 30054.38631799 0 5445.86760043 0 17748.60451455 0 297
0.01850000 0.01844180 57735.08764136 0 -5604.62259368 0 23313.11207540 0 -5102.63660337 0 9011.21155366 0 388
0.01950000 0.01947590 68781.39249668 0 -3342.07052326 0 24230.01129364 0 -2258.10099584 0 14643.14957266 0 399
0.02050000 0.02045430 66235.64357438 0 807.18908777 0 22508.15406109 0 -505.56013675 0 8791.09373626 0 462
0.02150000 0.02154770 70852.24940751 0 924.22799003 0 25901.37872501 0 1037.17898997 0 12033.18116641 0 571
0.02250000 0.02255340 71411.18036436 0 -1664.31436047 0 29405.54808362 0 1856.28632817 0 12341.21324286 0 510
0.02350000 0.02348930 69931.91776858 0 4201.82547310 0 34620.94524294 0 6334.78705384 0 9422.26054022 0 555
0.02450000 0.02439640 71179.43660590 0 5036.66769210 0 38102.96995191 0 2270.29162546 0 6143.64551050 0 592
0.02550000 0.02547300 65454.26961192 0 1339.58521818 0 40163.08670767 0 9279.58256261 0 5620.02419750 0 837
0.02650000 0.02652900 67719.11365358 0 -3489.03349058 0 34168.64077410 0 9359.05971016 0 5553.10306630 0 723
0.02750000 0.02749970 63615.82079904 0 -1671.28992510 0 26954.46753851 0 6952.23524735 0 3543.38753311 0 826
0.02850000 0.02848090 71377.52049691 0 -1330.43947788 0 25453.61390935 0 681.93562772 0 -5057.21792697 0 831
0.02950000 0.02946900 68855.90924271 0 2017.72082403 0 24729.15169646 0 -3777.15752701 0 -6425.33652621 0 996
0.03050000 0.03053250 64468.72197982 0 5373.35494519 0 22106.67156316 0 -2761.60389464 0 -6274.77505333 0 1041
0.03150000 0.03150510 61339.46153957 0 2971.60160715 0 13500.70709787 0 1677.39077608 0 -12637.95154800 0 1036
0.03250000 0.03246190 58772.12158387 0 3619.55405554 0 19130.98426815 0 6075.27390474 0 -14456.47017622 0 1059
0.03350000 0.03345080 56765.37343374 0 2024.80711191 0 8736.75076605 0 1860.27236511 0 -16407.85670226 0 1302
0.03450000 0.03451200 53372.48093956 0 1443.08931059 0 12355.60726513 0 1262.05679980 0 -17415.43826075 0 1339
0.03550000 0.03553350 49820.36841449 0 4378.69478976 0 6255.50920814 0 -690.83556241 0 -13021.93977271 0 1365
0.03650000 0.03647120 48396.24599632 0 2001.67702536 0 9437.34104663 0 -59.70075747 0 -13008.09936669 0 1308
0.03750000 0.03744890 46610.39072632 0 862.57507097 0 9301.32860855 0 -2787.63493029 0 -16709.13466057 0 1579
0.03850000 0.03847530 45263.77458187 0 1092.91485864 0 10236.65217528 0 2688.17223645 0 -16864.47937778 0 1662
0.03950000 0.03950240 44388.39658171 0 1315.24824823 0 10127.77800534 0 -658.39365069 0 -15680.62640817 0 1683
0.04050000 0.04050350 44359.71926043 0 2286.87796804 0 8839.42443409 0 635.83932504 0 -12496.55796007 0 1822
0.04150000 0.04152450 42095.53955827 0 -184.76388425 0 10545.23786798 0 1194.30524424 0 -1630.36661257 0 1887
0.04250000 0.04250150 42572.53531145 0 1010.74492170 0 8227.09165465 0 919.17679545 0 -222.64784362 0 1920
0.04350000 0.04349210 41220.49372785 0 -710.57973203 0 11336.73193532 0 3049.08573623 0 4519.52368912 0 2005
0.04450000 0.04448520 43515.45449301 0 -476.31259075 0 11934.30530578 0 3296.56326826 0 2833.20861924 0 2151
0.04550000 0.04548030 43456.77117147 0 421.79578504 0 13068.66498345 0 983.29109231 0 2556.41157110 0 2274
0.04650000 0.04648670 44833.06114643 0 36.81758376 0 12571.96049208 0 390.60615325 0 5763.89798619 0 2311
0.04750000 0.04749250 42316.87533139 0 866.32305293 0 13689.49023603 0 687.59469294 0 5292.21694892 0 2568
0.04850000 0.04851840 41049.42630940 0 897.73413120 0 10280.83075131 0 4281.93374317 0 3715.26323127 0 2493
0.04950000 0.04949480 40183.12761559 0 435.23094397 0 8702.92481373 0 3111.57793751 0 1645.54676990 0 2644
0.05050000 0.05050630 40083.14452248 0 1444.96053348 0 6363.50866442 0 2001.67702536 0 -1949.00597620 0 2829
0.05150000 0.05149060 38240.82039590 0 1593.55113255 0 6650.90192741 0 -1904.34021788 0 -2244.65919351 0 2784
0.05250000 0.05249300 37055.19585432 0 2476.28115639 0 5857.22661209 0 -5510.08708438 0 -3342.23660813 0 3055
0.05350000 0.05348950 35204.67820738 0 2322.26511816 0 9352.06200087 0 -4485.05554196 0 -5273.59329857 0 3009
0.05450000 0.05448610 34128.78040475 0 1447.87255491 0 11850.15563716 0 -3127.24527713 0 -5794.46867502 0 3336
0.05550000 0.05550870 33191.84027860 0 -405.72319833 0 13012.41757337 0 1221.22206587 0 -6414.67387741 0 3349
0.05650000 0.05647670 34037.76589475 0 -165.70619877 0 12464.55894134 0 806.83255891 0 -8501.60780388 0 3324
0.05750000 0.05747970 34499.92473268 0 -129.10995078 0 13099.00315345 0 737.22196001 0 -9159.59177855 0 3639
0.05850000 0.05849280 34065.11453705 0 1043.68065910 0 12194.17276927 0 9.12551116 0 -7554.91295956 0 3846
0.05950000 0.05951020 32700.78267289 0 1425.77219457 0 12745.79599174 0 -1525.37882864 0 -4690.61325222 0 3787
0.06050000 0.06049470 32739.64653301 0 626.27172916 0 14516.48217673 0 2273.12614062 0 -3511.94213063 0 3930
0.06150000 0.06148310 32625.04797113 0 -364.80210026 0 13634.79295143 0 3167.47103319 0 -1854.28223738 0 4083
0.06250000 0.06249100 32896.31992919 0 -762.55433196 0 12905.56963887 0 4350.12819172 0 -166.53883760 0 4303
0.06350000 0.06350600 33390.92067884 0 -712.37787758 0 12586.24379110 0 2746.97735356 0 486.54009718 0 4470
0.06450000 0.06451750 33632.29735989 0 475.98263547 0 11266.97628896 0 1175.90304039 0 2471.11038070 0 4479
0.06550000 0.06550280 33377.08027282 0 420.54793403 0 10766.15289276 0 488.37367417 0 2004.76620399 0 4636
0.06650000 0.06648880 32426.96408013 0 1421.33219232 0 9404.07978287 0 147.20434400 0 3647.63347128 0 4653
0.06750000 0.06749660 31693.09039115 0 938.61093997 0 8281.14674441 0 -181.42447108 0 -1085.36796205 0 5220
0.06850000 0.06852730 30544.33669121 0 659.19085808 0 8429.28337816 0 1874.30100065 0 -782.64949427 0 5029
0.06950000 0.06949320 28804.09939947 0 1038.16553411 0 5541.01208759 0 1395.60010944 0 189.64013610 0 5040
0.07050000 0.07048030 28829.01213031 0 1143.18432055 0 6308.44599310 0 1054.13404096 0 -2772.95302758 0 5475
0.07150000 0.07148790 27605.85240759 0 1504.83966610 0 6042.02371331 0 -935.31913780 0 -238.87987180 0 5509
0.07250000 0.07249820 26292.67468410 0 1590.25157975 0 7209.81073961 0 -1178.36109650 0 738.13542680 0 5916
0.07350000 0.07351270 25430.80492022 0 435.61958257 0 8171.47536708 0 -655.89684144 0 1884.72005831 0 5721
0.07450000 0.07449140 25822.43304905 0 -402.12026383 0 8498.85079500 0 988.52165855 0 1004.64960688 0 6028
0.07550000 0.07549160 25749.57715175 0 -277.36505840 0 9187.69333894 0 471.99327683 0 -203.15944470 0 6183
0.07650000 0.07648840 25925.95928611 0 240.09782753 0 7837.87729262 0 889.13757821 0 683.54000759 0 6330
0.07750000 0.07749960 26142.86612931 0 110.41156224 0 7870.97247151 0 659.14103262 0 -1228.36371538 0 6583
0.07850000 0.07848650 25247.00432823 0 739.94132298 0 7298.76579720 0 -1214.08041636 0 -1517.46211640 0 6549
0.07950000 0.07947320 25031.86905700 0 356.53771702 0 6899.33167937 0 688.11952113 0 -1552.45066282 0 6828
0.08050000 0.08048110 24498.95806348 0 -187.71022988 0 7263.75510613 0 297.10701356 0 -2094.67348152 0 7147
0.08150000 0.08149960 25211.79433531 0 42.63454033 0 7087.28439317 0 523.61909853 0 -1584.69327269 0 7386
0.08250000 0.08250610 24363.21136120 0 742.95520980 0 8182.01622031 0 916.27916804 0 -1318.81353682 0 7227
0.08350000 0.08350160 23987.30593361 0 1174.35291492 0 7630.45943180 0 -251.09375331 0 197.92666399 0 7798
0.08450000 0.08449610 23064.98127622 0 882.59272701 0 8179.69103210 0 609.03987004 0 1989.78534851 0 7371
0.08550000 0.08548940 22648.77258629 0 147.32392511 0 7746.64133612 0 1366.45775052 0 2717.67998209 0 8256
0.08650000 0.08650700 22281.39284880 0 -191.74719951 0 7170.52613115 0 1960.82014678 0 1611.51044341 0 8037
0.08750000 0.08749060 22560.08326449 0 -80.68569180 0 6329.60520583 0 949.74637704 0 1266.93969505 0 8155
0.08850000 0.08849210 22001.04158439 0 529.36674235 0 6218.67158347 0 -119.24450937 0 271.06379835 0 8718
0.08950000 0.08949900 21528.25331464 0 952.64511168 0 5607.45710883 0 -851.34884084 0 241.50954894 0 8571
0.09050000 0.09049190 20759.61252573 0 764.59385419 0 5443.80814801 0 -677.01287211 0 -74.40735146 0 8932
0.09150000 0.09150830 20356.24773258 0 357.78224633 0 6100.39700976 0 -918.63425153 0 622.10632056 0 9285
0.09250000 0.09250820 20114.31743530 0 491.51489272 0 5956.60072734 0 -193.71032270 0 -286.49751191 0 9204
0.09350000 0.09350330 19557.93311316 0 198.01192089 0 6401.60853412 0 -101.79696136 0 -728.41060391 0 9349
0.09450000 0.09448040 19690.13667150 0 607.67686686 0 7131.13079945 0 -268.50387685 0 -838.16834538 0 9564
0.09550000 0.09549270 19427.61185005 0 101.13682936 0 7605.53562863 0 -399.33225244 0 -1910.80645558 0 10155
0.09650000 0.09649430 18842.88237637 0 547.50653210 0 7548.59066209 0 163.95787868 0 -765.36005907 0 9913
0.09750000 0.09749140 18888.72180112 0 337.73801671 0 7591.75058423 0 -342.42603904 0 -1237.25479221 0 10476
0.09850000 0.09850240 18602.72365106 0 169.40546249 0 7674.81516502 0 511.67206005 0 -1249.15754139 0 10575
0.09950000 0.09950330 18427.11657943 0 336.81569205 0 8138.44662215 0 -85.50436756 0 -986.32048038 0 10882
0.10050000 0.10051200 18343.63125030 0 184.35642270 0 7197.22150629 0 -63.42017282 0 -1256.86387946 0 10875
0.10150000 0.10150300 18362.67564899 0 120.26648495 0 7935.08123221 0 -30.36972613 0 -1100.46175524 0 11118
0.10250000 0.10250800 17864.31030890 0 392.53827394 0 7619.03279258 0 896.87713326 0 -1244.80611774 0 11575
0.10350000 0.10349800 17558.27125091 0 462.43564605 0 7051.93046002 0 419.69868672 0 -1674.40124837 0 11364
0.10450000 0.10450100 17019.60264849 0 173.35385352 0 6798.19706448 0 714.87025789 0 -1545.67440003 0 12093
0.10550000 0.10551000 16934.12430089 0 195.59040346 0 6611.69482523 0 1023.88223509 0 -2667.23447021 0 12067
0.10650000 0.10649700 16600.73660060 0 3.29628646 0 5414.33361934 0 531.08516716 0 -2471.50898439 0 12054
0.10750000 0.10749900 16656.31967119 0 309.78593271 0 5715.92160275 0 585.46578327 0 -2094.49632432 0 12807
0.10850000 0.10850100 16364.78535871 0 429.79775418 0 5476.39399995 0 -446.85356333 0 -1794.67991288 0 12736
0.10950000 0.10950300 15853.02250559 0 653.81967331 0 5281.25534735 0 696.89655302 0 -730.28071958 0 12933
0.11050000 0.11050200 15475.89912227 0 331.18320042 0 5353.74585794 0 352.85284732 0 -156.65346600 0 13428
0.11150000 0.11150900 15054.26499318 0 417.43550352 0 5237.30929014 0 1032.60833428 0 38.31112966 0 13453
0.11250000 0.11250000 14786.75762556 0 253.09784410 0 5195.86557835 0 1159.31669781 0 210.35534860 0 13668
0.11350000 0.11349100 14467.87467078 0 220.36030131 0 4884.27928563 0 848.81438569 0 932.56323615 0 13791
0.11450000 0.11448600 14473.63227969 0 -1.68479816 0 4505.51719823 0 436.60723395 0 1392.62165407 0 14205
0.11550000 0.11549300 14299.68605679 0 146.57211425 0 4243.46848675 0 344.11567581 0 1369.80159261 0 14776
0.11650000 0.11649800 14247.31396039 0 167.03266328 0 4290.68087977 0 -180.02050030 0 1489.47127925 0 14553
0.11750000 0.11747300 14016.45598792 0 194.54185430 0 4151.97786677 0 -214.24062738 0 1564.76308802 0 14568
0.11850000 0.11849100 14031.29290318 0 262.89906603 0 5009.02009703 0 -290.44479571 0 1976.12209968 0 16015
0.11950000 0.11950300 13903.73972127 0 173.05490075 0 4868.71159693 0 -155.14209366 0 2072.91636325 0 15270
0.12050000 0.12050700 13699.67677486 0 192.97954926 0 5307.40817857 0 383.22423430 0 2050.99316011 0 15999
0.12150000 0.12150000 13747.28777158 0 130.46852504 0 5017.67865504 0 205.31301188 0 2247.90338468 0 15670
0.12250000 0.12250700 13537.46721627 0 102.40128885 0 5119.92050242 0 558.38730570 0 1304.70739501 0 16887
0.12350000 0.12352200 13462.95047024 0 -302.64539043 0 4557.34675071 0 263.70956021 0 2055.78747675 0 16407
0.12450000 0.12449800 13813.61099725 0 66.73290168 0 4443.92185526 0 768.49795592 0 1136.39698544 0 16306
0.12550000 0.12549900 13610.65528332 0 262.03099576 0 4191.47284940 0 -142.29819687 0 1174.50792746 0 17523
0.12650000 0.12650100 13231.09598854 0 299.03359807 0 4134.71611238 0 -296.57886366 0 1026.41558301 0 17154
0.12750000 0.12750600 13271.06708113 0 181.24177772 0 3850.84384868 0 -278.84321377 0 794.52124094 0 18007
0.12850000 0.12850300 13118.15827539 0 37.94773596 0 4338.60190159 0 109.47008246 0 655.44951952 0 17496
0.12950000 0.12949900 13183.15282207 0 -21.39903928 0 4170.35792597 0 -252.96829790 0 -394.53904303 0 18405
0.13050000 0.13049000 13181.71341985 0 175.43323612 0 4592.64532223 0 -423.23297280 0 -70.85313519 0 18100
0.13150000 0.13148800 13081.95177323 0 338.52636624 0 4711.29635498 0 -499.57111626 0 -783.88295126 0 19059
0.13250000 0.13249300 12662.53210910 0 463.58827506 0 4804.75784878 0 -15.64541642 0 -327.77624607 0 18957
0.13350000 0.13349100 12588.56897931 0 64.99355018 0 4734.92469615 0 199.89643058 0 -68.88724392 0 19468
0.13450000 0.13450700 12468.65570153 0 -27.05223617 0 4764.44351411 0 477.64126972 0 -229.93896951 0 19953
0.13550000 0.13551000 12684.01241925 0 -210.89457082 0 4837.77552139 0 1096.84331949 0 -327.35217603 0 19956
0.13650000 0.13649900 12525.45672785 0 167.14227930 0 4045.68354851 0 649.76830966 0 49.50547150 0 19723
0.13750000 0.13749600 12251.41668858 0 463.24060407 0 3874.60505774 0 147.69152629 0 393.65436428 0 20946
0.13850000 0.13851100 11936.74121724 0 354.19259862 0 3771.45527973 0 103.52800863 0 400.17485636 0 20955
0.13950000 0.13949800 11394.41874762 0 261.48623738 0 3616.79704666 0 371.56064733 0 409.14676116 0 20506
0.14050000 0.14048300 11214.82563906 0 290.57212745 0 3177.93438015 0 259.67701951 0 -123.31801767 0 21447
0.14150000 0.14148400 11003.42174130 0 56.19094122 0 3194.18855298 0 165.93761036 0 23.79686195 0 21771
0.14250000 0.14249400 11035.14395191 0 83.70622201 0 3054.17900565 0 140.35832556 0 -402.34835372 0 22470
0.14350000 0.14350900 10860.14585815 0 178.75714803 0 3158.52459474 0 -91.53789880 0 -80.70639705 0 22519
0.14450000 0.14449900 10801.28537941 0 222.16841195 0 3290.20775381 0 -149.77423059 0 258.65836562 0 22218
0.14550000 0.14550500 10762.97513554 0 151.17266521 0 3146.76578578 0 17.39572952 0 695.69077684 0 23559
0.14650000 0.14650700 10612.46902428 0 -98.96167115 0 3315.88447506 0 573.20761247 0 1214.23542891 0 23044
0.14750000 0.14750500 10806.12398536 0 75.67424687 0 3290.31847706 0 586.07254667 0 560.66488291 0 23649
0.14850000 0.14849900 10434.03850983 0 268.58691929 0 2910.13913208 0 474.53991154 0 1011.58531115 0 23640
0.14950000 0.14949500 10340.68773928 0 247.49414051 0 2812.62516741 0 288.43295429 0 782.50444682 0 24457
0.15050000 0.15050000 10055.09926523 0 20.07999323 0 2410.47832999 0 96.30619549 0 1042.13385533 0 24591
0.15150000 0.15149900 10055.49786893 0 -24.69073073 0 2528.77504836 0 90.71622158 0 353.45961072 0 25020
0.15250000 0.15250500 10007.33325596 0 111.95449071 0 2340.30193529 0 -304.80560100 0 470.10323099 0 25297
0.15350000 0.15350100 10030.89516318 0 278.27409627 0 2465.35277179 0 -208.37118799 0 319.17969308 0 25452
0.15450000 0.15450400 9724.59036940 0 298.52759283 0 2583.50554993 0 -349.19122950 0 265.15117690 0 26061
0.15550000 0.15549900 9754.21991061 0 119.55674893 0 2838.20223774 0 78.52924582 0 603.75947834 0 26128
0.15650000 0.15649500 9495.88042794 0 157.71087302 0 2838.21331006 0 100.18405581 0 69.79129924 0 26331
0.15750000 0.15749700 9412.49474973 0 132.37960830 0 2713.11818426 0 221.91707018 0 477.26923961 0 27345
0.15850000 0.15849900 9388.91069787 0 107.24066986 0 2828.01569890 0 -91.85999273 0 -134.97496124 0 26980
0.15950000 0.15949700 9267.27013741 0 126.11599415 0 2659.30668564 0 -140.49783686 0 277.54775176 0 27777
0.16050000 0.16050000 9068.16759252 0 276.47705795 0 2784.80041514 0 -64.23133134 0 -467.15577812 0 28224
0.16150000 0.16150500 8947.00314203 0 288.26022603 0 2555.30433862 0 16.93024899 0 3.95619702 0 28075
0.16250000 0.16249700 8789.93114215 0 0.51015626 0 2399.00740148 0 130.75861995 0 -320.10755390 0 28590
0.16350000 0.16349900 8680.86874269 0 12.05787245 0 2345.61665121 0 409.11465142 0 -209.55924845 0 29163
0.16450000 0.16449100 8934.83465706 0 -104.55031638 0 2392.16470474 0 210.32877502 0 -179.07381652 0 28996
0.16550000 0.16550500 8803.62760796 0 -12.89117562 0 2425.89100614 0 223.13170421 0 -205.50899203 0 30777
0.16650000 0.16650700 8916.22207904 0 65.54816293 0 2373.36389720 0 -71.44661180 0 -41.83877235 0 29211
0.16750000 0.16749900 8731.94537708 0 141.89294978 0 2578.44549749 0 -5.41226309 0 132.19580771 0 30922
0.16850000 0.16850800 8715.51404705 0 251.94632232 0 2758.86903041 0 -249.69421145 0 -7.05452138 0 30867
0.16950000 0.16949900 8458.89077473 0 235.96009975 0 2689.72236192 0 -70.02403951 0 -19.63189624 0 30852
0.17050000 0.17049200 8377.48704266 0 186.68493260 0 2693.13263796 0 162.54283557 0 88.98273841 0 31257
0.17150000 0.17149500 8182.68055980 0 34.20385077 0 2347.99720104 0 137.39204974 0 200.68699457 0 32608
0.17250000 0.17250900 8169.86987999 0 52.33511483 0 2451.42378717 0 357.28067002 0 157.10189515 0 32361
0.17350000 0.17350400 8227.27988417 0 37.63494278 0 2281.89542187 0 277.00188615 0 340.36658662 0 32508
0.17450000 0.17449800 8082.57567112 0 21.14991198 0 2102.92236351 0 236.97764640 0 419.91570428 0 32791
0.17550000 0.17549800 8118.37249725 0 91.75414131 0 2093.17871767 0 118.33879320 0 459.10730521 0 33633
0.17650000 0.17650100 8044.98512836 0 90.80679320 0 2246.03216179 0 -133.44144425 0 466.69849111 0 33984
0.17750000 0.17750300 7916.57937743 0 191.07621663 0 2437.72732137 0 29.60883597 0 422.41804969 0 34069
