### header ###
fiducial parameters:
Omega_m = 0.31
Omega_nu = 0
Omega_de = 0.69
Omega_k = 0
H_0 = 100
w_de = -1
zeff = 0
beta = 0
fgrowth = 0
b_1 = 2
gamma = 0.55
Lx = 3500 Ly = 3500 Lz = 3500
nx = 700 ny = 700 nz = 700
xoffset = -685.467585 yoffset = -31.7331281 zoffset = 572.489161
bins = 400 dk = 0.001
kx_ny = 0.628318531 ky_ny = 0.628318531 kz_ny = 0.628318531
############################
A(data) = 8.04381708 (not used)
A(ran) = 8.04575667 (used)
Ngal = 477993
weighted Ngal = 0
Nran = 23820508
weighted Nran = 0
SN(data) = 3482.34388
SN(ran) = 70.0814585
SN(data+ran) = 3552.42533
############################
13 columns: k_central k_mean P_0(k) sigma^{lin}_{P_0(k)} P^img_1(k) sigma^{lin}_{P_1(k)} P_2(k) sigma^{lin}_{P_2(k)} P^img_3(k) sigma^{lin}_{P_3(k)} P_4(k) sigma^{lin}_{P_4(k)} N_modes
### header ###
0.00050000 0 0 0 0 0 0 0 0 0 0 0 0
0.00150000 0.00179520 14469.53551950 0 -22573.03788453 0 -13414.34296429 0 29123.75741698 0 -18239.32995051 0 3
0.00250000 0.00253879 36238.27972920 0 -38477.21453078 0 -20509.93160107 0 -26418.23484755 0 15214.92442629 0 6
0.00350000 0.00331552 46113.57551171 0 -29540.07683016 0 -33024.42672734 0 -2022.84731042 0 38352.98304632 0 7
0.00450000 0.00420575 60636.36891359 0 -17450.20536068 0 -25661.10927645 0 -40203.50069326 0 -7833.45943502 0 24
0.00550000 0.00557378 55614.18382234 0 2162.62433893 0 -25966.59471819 0 -22271.31703322 0 13743.08028815 0 45
0.00650000 0.00659388 46098.84931970 0 14807.90576596 0 -27492.25035495 0 -10866.73389141 0 31763.73182349 0 40
0.00750000 0.00754703 43232.88876364 0 -9770.79518086 0 -48271.23944912 0 -3488.62381456 0 4335.25805949 0 57
0.00850000 0.00846663 45801.22522857 0 -5053.49762583 0 -34204.73655301 0 -2154.14293812 0 5737.42405755 0 75
0.00950000 0.00948925 58417.69646643 0 -9216.50352812 0 -47931.65124693 0 -15878.37812943 0 -22667.59553848 0 112
0.01050000 0.01054430 57396.71739490 0 981.49405399 0 -36074.96293813 0 -44362.15517189 0 -9114.95923721 0 105
0.01150000 0.01145670 61070.07187673 0 2451.64523367 0 -38618.27594897 0 -27993.49449949 0 2896.39837698 0 144
0.01250000 0.01249090 58163.69733509 0 -7741.21589696 0 -22324.46419235 0 -34227.10264914 0 -25288.08265331 0 169
0.01350000 0.01339930 64167.44402150 0 -5351.23244020 0 -4897.98682375 0 -28864.55429298 0 -35868.57480351 0 180
0.01450000 0.01448870 74621.93311527 0 -6560.28602110 0 361.55680186 0 -15717.16508007 0 -27041.82818133 0 267
0.01550000 0.01550050 73352.26962831 0 2724.03549653 0 9248.83471659 0 1109.56874240 0 -13827.67284977 0 238
0.01650000 0.01653350 84710.48187378 0 1972.16927972 0 19797.98111523 0 1076.55217702 0 -24863.12682677 0 315
0.01750000 0.01747870 77335.87065157 0 -3351.95810932 0 22886.49540014 0 5692.92438411 0 4724.83780824 0 297
0.01850000 0.01844180 85533.37705430 0 9929.46159552 0 43513.90436754 0 -7454.22123766 0 -1045.06802140 0 388
0.01950000 0.01947590 80578.73314445 0 -563.67434080 0 34407.69226694 0 5217.54519034 0 16436.42330029 0 399
0.02050000 0.02045430 79724.17111495 0 -32.15668863 0 50898.14851234 0 4823.63616259 0 24070.68053950 0 462
0.02150000 0.02154770 83137.87957978 0 7643.94552342 0 48512.61613016 0 14154.63860166 0 20900.89539041 0 571
0.02250000 0.02255340 74228.75486096 0 1120.39747607 0 33698.28841581 0 14137.91939118 0 24437.39593749 0 510
0.02350000 0.02348930 73725.07480496 0 2610.17878042 0 35302.00394254 0 25416.52162120 0 19788.68036238 0 555
0.02450000 0.02439640 70481.65869583 0 -531.26232436 0 19643.52218401 0 17235.62370570 0 11585.63779724 0 592
0.02550000 0.02547300 68064.57018792 0 817.80301834 0 9939.44883250 0 16959.59064797 0 855.32601992 0 837
0.02650000 0.02652900 69896.37560592 0 -1037.20999248 0 6482.51401157 0 -6695.67840898 0 -2515.22252278 0 723
0.02750000 0.02749970 67505.19633808 0 -942.63130111 0 5424.49801353 0 -10826.54135232 0 -5448.77962185 0 826
0.02850000 0.02848090 64890.90972515 0 6785.65212046 0 14711.24437029 0 -12553.80187938 0 -4287.52526720 0 831
0.02950000 0.02946900 61923.63739700 0 6513.56081036 0 8803.95977770 0 -8467.66005598 0 -3996.06846100 0 996
0.03050000 0.03053250 56524.10747594 0 2655.29850406 0 16002.38816740 0 5205.22169282 0 -9367.93971466 0 1041
0.03150000 0.03150510 56586.99828091 0 968.20726421 0 15352.66414704 0 3112.59659139 0 -10893.47355585 0 1036
0.03250000 0.03246190 52555.67553769 0 3191.46476108 0 14090.86201071 0 3112.99519509 0 -15079.95278676 0 1059
0.03350000 0.03345080 52986.05680339 0 -728.49143189 0 11299.52892392 0 4166.25009346 0 -9600.93464582 0 1302
0.03450000 0.03451200 53181.59405969 0 -3886.46351762 0 9276.05049099 0 -3492.57663452 0 -14833.48283629 0 1339
0.03550000 0.03553350 55987.09972224 0 -1429.91324405 0 12011.70085626 0 -3654.98549496 0 -18368.32253465 0 1365
0.03650000 0.03647120 58583.89206195 0 -360.04210783 0 14260.93291992 0 -8364.95317097 0 -13246.37579679 0 1308
0.03750000 0.03744890 56927.25082259 0 4278.56775642 0 13781.27980878 0 -6687.78384139 0 -11263.32242177 0 1579
0.03850000 0.03847530 53291.21007539 0 5152.87174108 0 16921.50185059 0 282.50926052 0 -7095.30075634 0 1662
0.03950000 0.03950240 50921.06822471 0 2331.32227987 0 17804.63047813 0 5936.65947034 0 -12751.77504714 0 1683
0.04050000 0.04050350 47957.78193350 0 1204.54714470 0 15641.54110156 0 6761.86876675 0 -8357.59007496 0 1822
0.04150000 0.04152450 45574.24256979 0 3488.90062268 0 14303.89354022 0 3764.39113649 0 -4728.48060310 0 1887
0.04250000 0.04250150 43366.53172420 0 1309.22490353 0 13505.35747430 0 4944.71203449 0 1967.76249445 0 1920
0.04350000 0.04349210 41296.00698311 0 1164.14423143 0 9615.42831901 0 3438.83156985 0 -751.23841599 0 2005
0.04450000 0.04448520 42204.49123448 0 330.59636720 0 10296.92991160 0 633.52299468 0 2981.83243529 0 2151
0.04550000 0.04548030 40814.80374649 0 1556.74672485 0 12568.30662489 0 -4256.54490236 0 -962.51719648 0 2274
0.04650000 0.04648670 39672.80416470 0 2475.78290177 0 13240.17529489 0 -3748.14803598 0 690.48235525 0 2311
0.04750000 0.04749250 39604.82009031 0 448.88644217 0 14311.86561409 0 -2493.49862148 0 -553.67492425 0 2568
0.04850000 0.04851840 38885.56187009 0 -38.98222327 0 13841.51325579 0 -1204.81288049 0 -1608.85308545 0 2493
0.04950000 0.04949480 39698.93485127 0 201.89941414 0 14707.70122635 0 1188.32618884 0 -5235.44913957 0 2644
0.05050000 0.05050630 39022.30508160 0 -394.23787580 0 15124.46353253 0 258.15900377 0 -7924.86147640 0 2829
0.05150000 0.05149060 38202.17798229 0 1499.87926458 0 14439.08662625 0 3515.23061110 0 -5136.47362802 0 2784
0.05250000 0.05249300 37749.20917396 0 1261.63605146 0 15604.44881341 0 2331.10083337 0 -1978.74624067 0 3055
0.05350000 0.05348950 36311.68924275 0 481.23756083 0 13288.67207759 0 3481.59288830 0 1742.81714343 0 3009
0.05450000 0.05448610 37104.79986951 0 308.07193682 0 14298.57882430 0 3575.12081604 0 4189.82307300 0 3336
0.05550000 0.05550870 35815.64909088 0 1414.17947049 0 13148.93933838 0 2893.90710390 0 6810.52056200 0 3349
0.05650000 0.05647670 36752.03560079 0 196.57584037 0 16267.90251655 0 2722.26392456 0 11864.88182917 0 3324
0.05750000 0.05747970 35878.87206559 0 -1077.81220759 0 12363.46861575 0 1206.38515062 0 10583.92457090 0 3639
0.05850000 0.05849280 37846.31346261 0 -1172.82493409 0 17267.40127793 0 1233.74486524 0 11668.01589389 0 3846
0.05950000 0.05951020 37170.68020218 0 99.29793765 0 12967.24248811 0 -684.74024760 0 6173.98368050 0 3787
0.06050000 0.06049470 37843.98827440 0 816.10009478 0 16284.17883403 0 317.28411107 0 7101.63412613 0 3930
0.06150000 0.06148310 36899.62969062 0 1700.98590026 0 13203.41517649 0 -633.47759815 0 6402.77112823 0 4083
0.06250000 0.06249100 35187.51610391 0 1388.04878392 0 15032.23106679 0 937.74176247 0 5516.43152650 0 4303
0.06350000 0.06350600 33694.85599511 0 1822.98077512 0 12100.27945481 0 2801.50855329 0 1937.43539677 0 4470
0.06450000 0.06451750 32520.19305510 0 1039.38127538 0 14469.20334976 0 310.14910496 0 3837.65670982 0 4479
0.06550000 0.06550280 31028.97234853 0 994.11539705 0 11555.74252023 0 1109.88983982 0 4389.55674040 0 4636
0.06650000 0.06648880 30779.06997737 0 -238.30411091 0 11907.62100296 0 115.27065199 0 1723.44057500 0 4653
0.06750000 0.06749660 30881.15681220 0 294.72203479 0 12327.70500658 0 148.25400039 0 95.91534242 0 5220
0.06850000 0.06852730 29489.25485925 0 868.84311405 0 11607.89317012 0 -1376.88788050 0 1231.13179659 0 5029
0.06950000 0.06949320 30231.98640808 0 263.22680684 0 11611.98993031 0 677.82779521 0 1133.45174704 0 5040
0.07050000 0.07048030 29734.39613073 0 -130.00016570 0 9442.72219649 0 2313.98301920 0 1547.75599710 0 5475
0.07150000 0.07148790 29941.00571185 0 -485.57237599 0 9347.40055212 0 2083.93332644 0 -967.36908922 0 5509
0.07250000 0.07249820 29273.89814152 0 566.94067662 0 7513.96750238 0 2221.29658814 0 -2534.63230819 0 5916
0.07350000 0.07351270 28574.12721298 0 1473.11745550 0 7506.60440637 0 439.97543516 0 -1187.50683680 0 5721
0.07450000 0.07449140 27208.68811635 0 1674.37910373 0 6460.08148149 0 -621.62135274 0 119.71286871 0 6028
0.07550000 0.07549160 26341.94652955 0 695.90004378 0 6468.14213396 0 895.03359118 0 2518.82102834 0 6183
0.07650000 0.07648840 26253.58937749 0 -519.12594912 0 7454.35410556 0 1102.30751179 0 223.27010827 0 6330
0.07750000 0.07749960 26838.87246741 0 -245.31621422 0 7029.58650854 0 448.80782866 0 810.37791731 0 6583
0.07850000 0.07848650 26287.35996819 0 566.74026754 0 6834.66930243 0 116.41220868 0 -198.18686363 0 6549
0.07950000 0.07947320 25532.55958530 0 924.90450908 0 6634.82491178 0 -14.92914772 0 -302.30989899 0 6828
0.08050000 0.08048110 25353.07719999 0 537.19044706 0 6611.80554848 0 -766.82271318 0 -808.12248475 0 7147
0.08150000 0.08149960 24495.08274979 0 545.44707968 0 6456.84836264 0 -628.77518180 0 -1519.72087066 0 7386
0.08250000 0.08250610 24155.71599410 0 588.69447319 0 6897.96978342 0 -429.94058717 0 -2334.34502454 0 7227
0.08350000 0.08350160 23593.90623281 0 377.65928384 0 6418.81492689 0 187.78773616 0 -2486.77772032 0 7798
0.08450000 0.08449610 23405.78743414 0 296.20794078 0 6952.66706802 0 388.91651649 0 -1981.75791302 0 7371
0.08550000 0.08548940 23349.31857756 0 103.27965638 0 6136.09418497 0 1231.78506375 0 -1420.70106981 0 8256
0.08650000 0.08650700 23490.82288874 0 -175.31254778 0 6490.77396589 0 790.25507419 0 -1987.98055956 0 8037
0.08750000 0.08749060 23298.60732989 0 505.86905462 0 6118.22345271 0 -232.10250178 0 -1006.17869494 0 8155
0.08850000 0.08849210 22607.47281471 0 816.32264851 0 6122.89597379 0 249.90015669 0 -840.67069079 0 8718
0.08950000 0.08949900 21925.30688264 0 834.34507162 0 6186.10787618 0 -202.31684078 0 -1662.70887337 0 8571
0.09050000 0.09049190 21158.76983544 0 853.63416868 0 7346.44322787 0 -573.28179704 0 -1113.43298376 0 8932
0.09150000 0.09150830 20447.70513559 0 1119.64455799 0 7855.05046842 0 -357.05368736 0 -954.77874867 0 9285
0.09250000 0.09250820 19018.71089449 0 1070.58862288 0 7042.87329832 0 421.73710171 0 -14.90135619 0 9204
0.09350000 0.09350330 19029.22960307 0 323.17348064 0 7423.99379090 0 1674.03586166 0 -198.62864939 0 9349
0.09450000 0.09448040 18951.72332934 0 -427.65747380 0 6725.78406016 0 1348.64237989 0 254.53392463 0 9564
0.09550000 0.09549270 19165.64064484 0 86.65367488 0 6318.51073636 0 984.08829970 0 -428.39267616 0 10155
0.09650000 0.09649430 18807.67238345 0 49.46871138 0 6000.45820594 0 -390.43010329 0 610.59996061 0 9913
0.09750000 0.09749140 18525.99244006 0 535.45098483 0 5855.34431687 0 -372.42761037 0 101.77736335 0 10476
0.09850000 0.09850240 18015.33681943 0 720.56696901 0 5985.22268699 0 -34.65504800 0 786.26460832 0 10575
0.09950000 0.09950330 17506.56349401 0 602.81279457 0 5698.19481072 0 638.28409436 0 -101.57606848 0 10882
0.10050000 0.10051200 16858.83249212 0 561.28161140 0 5620.40065654 0 202.44195805 0 396.93952305 0 10875
0.10150000 0.10150300 16492.44926387 0 265.79780067 0 5839.65483260 0 741.45712425 0 -599.18550096 0 11118
0.10250000 0.10250800 16214.97680391 0 42.23682242 0 5444.26211333 0 384.65367143 0 -406.54476483 0 11575
0.10350000 0.10349800 16369.87862813 0 107.48680764 0 5347.29069257 0 -143.06108005 0 -47.22955513 0 11364
0.10450000 0.10450100 16145.77477380 0 42.36847237 0 5246.94221274 0 -194.27168957 0 380.29560438 0 12093
0.10550000 0.10551000 16362.68161700 0 87.50491521 0 5260.11827927 0 107.37287342 0 362.93641353 0 12067
0.10650000 0.10649700 16219.95935008 0 172.12261100 0 4801.19256019 0 223.93001883 0 225.49896726 0 12054
0.10750000 0.10749900 16079.45154813 0 304.81556609 0 4891.98562370 0 761.47035136 0 191.81141900 0 12807
0.10850000 0.10850100 15730.23042335 0 265.50992022 0 4466.97443554 0 295.10292276 0 -307.43417091 0 12736
0.10950000 0.10950300 15611.20293155 0 53.64541375 0 4697.84348033 0 139.23227013 0 -137.94455875 0 12933
0.11050000 0.11050200 15668.88974386 0 180.25301912 0 4716.36747975 0 -209.24922335 0 -593.33156282 0 13428
0.11150000 0.11150900 15230.75785079 0 488.54086628 0 4870.93713422 0 -315.51807526 0 -904.60007982 0 13453
0.11250000 0.11250000 14945.31331696 0 582.80510362 0 4820.98987696 0 -210.45721399 0 206.48889278 0 13668
0.11350000 0.11349100 14567.74704064 0 213.63940014 0 5117.98284557 0 77.94584503 0 -384.61823999 0 13791
0.11450000 0.11448600 14199.92441017 0 87.61043447 0 5048.94690033 0 486.12599223 0 -275.84261374 0 14205
0.11550000 0.11549300 14338.88208664 0 203.48497105 0 5174.17489403 0 875.42893286 0 -691.93061533 0 14776
0.11650000 0.11649800 13892.66739645 0 206.93732193 0 4896.82422964 0 489.06790894 0 -330.94846713 0 14553
0.11750000 0.11747300 13733.66881206 0 317.03830546 0 4649.01452788 0 291.48448701 0 -24.96211341 0 14568
0.11850000 0.11849100 13529.60586565 0 259.16879980 0 4459.88814765 0 331.71135031 0 216.87362622 0 16015
0.11950000 0.11950300 13395.85218184 0 142.62372322 0 4558.52041714 0 -276.84798084 0 681.44290927 0 15270
0.12050000 0.12050700 13345.03021092 0 76.61096555 0 4607.77011793 0 -9.40137814 0 125.94769481 0 15999
0.12150000 0.12150000 13378.24718538 0 -182.94470128 0 4320.63151841 0 628.76964564 0 493.85558219 0 15670
0.12250000 0.12250700 13397.95592355 0 -3.69898691 0 4047.67656698 0 381.60656764 0 522.59823019 0 16887
0.12350000 0.12352200 13543.44627167 0 45.72803716 0 4091.36796071 0 459.06190868 0 475.16660513 0 16407
0.12450000 0.12449800 13360.31001917 0 216.39198009 0 3906.63729344 0 378.42659595 0 754.04967926 0 16306
0.12550000 0.12549900 13575.11312065 0 -47.80088709 0 3900.08247715 0 -291.21321506 0 738.70454430 0 17523
0.12650000 0.12650100 13220.68800321 0 120.40378178 0 3823.66129125 0 91.86873987 0 920.91957937 0 17154
0.12750000 0.12750600 13522.96247076 0 74.39882577 0 4255.27158500 0 -142.76877068 0 482.79100800 0 18007
0.12850000 0.12850300 13296.20125847 0 38.75856230 0 4031.73241924 0 52.55877579 0 1083.62296365 0 17496
0.12950000 0.12949900 13304.83767183 0 306.09441961 0 4342.28898575 0 390.44339008 0 980.85518085 0 18405
0.13050000 0.13049000 12976.54324096 0 234.26714128 0 3621.50278471 0 256.17927210 0 1056.14256069 0 18100
0.13150000 0.13148800 12839.46785970 0 138.36309263 0 4035.82917942 0 519.51015879 0 341.61665209 0 19059
0.13250000 0.13249300 12692.98100235 0 159.09269916 0 3391.01019896 0 -153.72040715 0 851.81387848 0 18957
0.13350000 0.13349100 12529.22131828 0 242.54148962 0 3789.72461568 0 -22.75628486 0 27.80460064 0 19468
0.13450000 0.13450700 12331.13742728 0 192.83228734 0 3483.13194145 0 -81.74077363 0 397.86849110 0 19953
0.13550000 0.13551000 12222.96081380 0 44.41640956 0 3648.67426981 0 382.07492698 0 193.87640757 0 19956
0.13650000 0.13649900 12201.25905716 0 -88.27997795 0 3228.95565291 0 400.04309570 0 181.54294496 0 19723
0.13750000 0.13749600 12346.63868202 0 101.97168265 0 2867.98679150 0 599.68375557 0 457.35898512 0 20946
0.13850000 0.13851100 12148.99768401 0 113.45036179 0 3120.97834128 0 94.29081092 0 223.41072680 0 20955
0.13950000 0.13949800 12117.77372802 0 193.27296587 0 2993.80161841 0 -290.14030678 0 400.97649268 0 20506
0.14050000 0.14048300 11988.89186713 0 189.73867979 0 3387.26775317 0 -391.53290684 0 161.97261084 0 21447
0.14150000 0.14148400 11699.90418937 0 459.17373916 0 3534.10892491 0 -736.62516170 0 313.23939082 0 21771
0.14250000 0.14249400 11517.76444610 0 366.90805645 0 3896.01893394 0 -552.29199088 0 -134.80555467 0 22470
0.14350000 0.14350900 11095.68742401 0 361.06408341 0 4150.40559665 0 -197.33983078 0 -75.54658296 0 22519
0.14450000 0.14449900 11016.29885506 0 103.26758755 0 4126.92119571 0 44.20027778 0 -389.87870151 0 22218
0.14550000 0.14550500 10833.41726603 0 -56.98837006 0 3770.50305979 0 627.48857766 0 -914.98592050 0 23559
0.14650000 0.14650700 10915.39675899 0 98.89025465 0 3809.36691991 0 438.28801285 0 -755.08715610 0 23044
0.14750000 0.14750500 10699.12103831 0 224.29983448 0 3561.22504840 0 167.44233930 0 -1079.49077203 0 23649
0.14850000 0.14849900 10453.02754689 0 465.20483449 0 3256.43716311 0 -120.36170694 0 -831.25921469 0 23640
0.14950000 0.14949500 10118.08972113 0 362.78250822 0 3235.47725223 0 168.19304293 0 -441.15685221 0 24457
0.15050000 0.15050000 9910.41719683 0 3.34860319 0 3359.74195367 0 278.78563768 0 100.30385836 0 24591
0.15150000 0.15149900 9911.93410533 0 -103.12730119 0 3067.67616960 0 691.05368721 0 -103.52933731 0 25020
0.15250000 0.15250500 9949.26998462 0 63.77138696 0 3080.34290920 0 664.23208757 0 126.76815408 0 25297
0.15350000 0.15350100 9840.60618885 0 211.11048115 0 2669.99147909 0 433.27003525 0 545.80803747 0 25452
0.15450000 0.15450400 9665.17627442 0 113.36067596 0 2816.92122944 0 -55.86641138 0 607.99796428 0 26061
0.15550000 0.15549900 9624.75121651 0 146.10375491 0 2779.09816786 0 -122.18310437 0 846.68185593 0 26128
0.15650000 0.15649500 9504.88222802 0 169.13086884 0 2866.87955902 0 -181.62709463 0 738.71229493 0 26331
0.15750000 0.15749700 9529.76174189 0 25.22685270 0 3006.98875727 0 -20.43807221 0 1049.56781421 0 27345
0.15850000 0.15849900 9460.05038483 0 -2.09838271 0 2845.73141861 0 103.62134832 0 733.20159886 0 26980
0.15950000 0.15949700 9475.92809862 0 3.46572625 0 3104.85703635 0 224.02966975 0 447.07168813 0 27777
0.16050000 0.16050000 9499.74466930 0 103.77292845 0 2951.23960181 0 3.40177250 0 156.47298710 0 28224
0.16150000 0.16150500 9360.49911238 0 73.91053625 0 2953.95232139 0 72.01196471 0 386.45292422 0 28075
0.16250000 0.16249700 9333.31655495 0 153.17232708 0 2981.59991646 0 -112.58561322 0 522.37456922 0 28590
0.16350000 0.16349900 9194.63568660 0 125.71517599 0 2829.12293139 0 102.27318205 0 169.30359710 0 29163
0.16450000 0.16449100 9152.54977997 0 102.50680811 0 2797.52251635 0 107.32271579 0 335.96423027 0 28996
0.16550000 0.16550500 8991.09313946 0 150.92575237 0 2814.68461982 0 95.58937318 0 339.49298019 0 30777
0.16650000 0.16650700 8951.64244613 0 128.49211506 0 2598.27603124 0 267.81296378 0 292.26287145 0 29211
0.16750000 0.16749900 8729.40981470 0 177.27345651 0 2526.75988524 0 279.92387267 0 172.23554872 0 30922
0.16850000 0.16850800 8625.04208096 0 181.68245625 0 2210.84431351 0 276.73393589 0 174.86079693 0 30867
0.16950000 0.16949900 8399.74241555 0 155.45876215 0 2310.57274316 0 136.40993453 0 103.19074561 0 30852
0.17050000 0.17049200 8305.70516086 0 249.04426598 0 2164.13017510 0 88.22638790 0 370.10906555 0 31257
0.17150000 0.17149500 8198.00465735 0 123.71329966 0 2213.70097332 0 -228.45970691 0 229.67434095 0 32608
0.17250000 0.17250900 8062.70084807 0 74.86519209 0 2441.41440554 0 28.71541008 0 418.25707002 0 32361
0.17350000 0.17350400 8111.37478797 0 66.06413326 0 2679.30330427 0 -153.24761888 0 429.44676149 0 32508
0.17450000 0.17449800 8054.46303840 0 100.41037413 0 2870.00195462 0 13.61541638 0 805.00230361 0 32791
0.17550000 0.17549800 7970.75626277 0 229.22148286 0 2893.22061976 0 164.23690127 0 1075.44162285 0 33633
0.17650000 0.17650100 7924.69539153 0 73.04014079 0 3092.35638163 0 89.79577922 0 1126.05543406 0 33984
0.17750000 0.17750300 7842.82662182 0 67.54815696 0 2932.95919354 0 110.42307746 0 1174.66294001 0 34069
0.17850000 0.17849800 7831.53285050 0 24.05230048 0 2934.93006735 0 247.76209077 0 1226.39284156 0 34536
