### header ###
fiducial parameters:
Omega_m = 0.31
Omega_nu = 0
Omega_de = 0.69
Omega_k = 0
H_0 = 100
w_de = -1
zeff = 0
beta = 0
fgrowth = 0
b_1 = 2
gamma = 0.55
Lx = 3500 Ly = 3500 Lz = 3500
nx = 700 ny = 700 nz = 700
xoffset = -685.467585 yoffset = -31.7331281 zoffset = 572.489161
bins = 400 dk = 0.001
kx_ny = 0.628318531 ky_ny = 0.628318531 kz_ny = 0.628318531
############################
A(data) = 8.0634747 (not used)
A(ran) = 8.06026537 (used)
Ngal = 478792
weighted Ngal = 0
Nran = 23820508
weighted Nran = 0
SN(data) = 3491.82017
SN(ran) = 70.2078345
SN(data+ran) = 3562.028
############################
13 columns: k_central k_mean P_0(k) sigma^{lin}_{P_0(k)} P^img_1(k) sigma^{lin}_{P_1(k)} P_2(k) sigma^{lin}_{P_2(k)} P^img_3(k) sigma^{lin}_{P_3(k)} P_4(k) sigma^{lin}_{P_4(k)} N_modes
### header ###
0.00050000 0 0 0 0 0 0 0 0 0 0 0 0
0.00150000 0.00179520 96117.41234844 0 -83926.89344636 0 87762.23604029 0 -230115.01947344 0 -96436.95964271 0 3
0.00250000 0.00253879 124125.19014695 0 -15536.79690877 0 2902.28885379 0 74253.77831505 0 118605.63622486 0 6
0.00350000 0.00331552 146007.42568604 0 5316.40997865 0 54526.32790891 0 -19672.19950529 0 133495.69864097 0 7
0.00450000 0.00420575 116693.44572868 0 27623.67885055 0 38782.36780278 0 -21550.39796428 0 48817.21578592 0 24
0.00550000 0.00557378 138022.06502684 0 -1893.78829233 0 74647.06729261 0 62605.02826634 0 -6993.38000638 0 45
0.00650000 0.00659388 93613.07392096 0 2990.46884864 0 76496.25626057 0 6705.72100759 0 -8417.38062898 0 40
0.00750000 0.00754703 115213.07590042 0 32879.93288846 0 41461.98113214 0 77195.58429611 0 -17853.45943058 0 57
0.00850000 0.00846663 91733.76822949 0 10835.18883801 0 76747.59803395 0 10070.81089415 0 10478.90356999 0 75
0.00950000 0.00948925 85450.66678790 0 -1999.31862018 0 39444.49282694 0 50716.34093882 0 -14519.36098119 0 112
0.01050000 0.01054430 100511.79662247 0 -11678.75604896 0 41558.75325106 0 11591.83829914 0 -17047.17273728 0 105
0.01150000 0.01145670 103625.88797771 0 -1575.93506376 0 51654.72046720 0 19104.18924209 0 5755.11763261 0 144
0.01250000 0.01249090 96477.26290505 0 17905.16718748 0 33470.75214078 0 -4456.35607603 0 17078.95030951 0 169
0.01350000 0.01339930 92835.02165595 0 12327.04066710 0 42684.91940836 0 12690.43436764 0 56486.79374130 0 180
0.01450000 0.01448870 84014.14336593 0 -3044.63466166 0 31750.33431046 0 25884.54879129 0 12843.78606638 0 267
0.01550000 0.01550050 83550.54512578 0 3930.90782944 0 34977.25265561 0 32287.00989442 0 46046.14505356 0 238
0.01650000 0.01653350 74838.28634222 0 10624.15032696 0 25036.85160317 0 26470.71766719 0 9353.62319867 0 315
0.01750000 0.01747870 75557.21239270 0 5580.61779347 0 23524.37203294 0 27538.42194945 0 35429.88929419 0 297
0.01850000 0.01844180 81128.14190195 0 -18790.39955673 0 17448.43378871 0 26931.54782614 0 31473.85835974 0 388
0.01950000 0.01947590 80786.67140454 0 -4882.48556900 0 26394.09717944 0 3836.06229504 0 23816.68140816 0 399
0.02050000 0.02045430 93100.97889810 0 4230.84603645 0 21327.84423542 0 2895.60116960 0 11381.13195784 0 462
0.02150000 0.02154770 84740.15570429 0 5246.63218764 0 30399.95357558 0 -11285.35634816 0 25755.22403741 0 571
0.02250000 0.02255340 88596.09282238 0 11565.48616607 0 33101.49010808 0 -11992.98862732 0 27607.29180982 0 510
0.02350000 0.02348930 80716.69431169 0 2765.45706368 0 49288.67537670 0 -1318.06061874 0 9414.81993794 0 555
0.02450000 0.02439640 79197.68206982 0 1899.13622522 0 46348.86241410 0 -1626.42486494 0 20170.67556862 0 592
0.02550000 0.02547300 77754.07235997 0 2028.05130308 0 42587.48294996 0 7056.00507555 0 -8727.47215785 0 837
0.02650000 0.02652900 75426.78040633 0 1472.44204368 0 45988.56896450 0 733.84600817 0 -3177.55792110 0 723
0.02750000 0.02749970 70867.63993901 0 4331.57097533 0 34331.29322569 0 4840.69861514 0 -16714.33865324 0 826
0.02850000 0.02848090 70436.15144083 0 2365.39182333 0 34544.43547845 0 4957.81059475 0 -10557.88246292 0 831
0.02950000 0.02946900 69594.65475461 0 976.43843048 0 28542.34964075 0 -1678.77481668 0 -14643.92463540 0 996
0.03050000 0.03053250 66460.19032170 0 477.99558412 0 26366.74853714 0 724.93610839 0 -23208.70005236 0 1041
0.03150000 0.03150510 67771.81791971 0 -534.46776239 0 22578.90621668 0 1798.77667306 0 -19047.60966227 0 1036
0.03250000 0.03246190 63743.59542744 0 784.05346506 0 21214.24218278 0 2262.91745714 0 -19056.02462913 0 1059
0.03350000 0.03345080 63895.06483096 0 3687.30561111 0 17057.13782962 0 7071.61705355 0 -20643.35311513 0 1302
0.03450000 0.03451200 57918.33461711 0 4318.83780179 0 12089.87146948 0 5800.27057322 0 -19592.14659685 0 1339
0.03550000 0.03553350 54275.87192152 0 4306.06033895 0 9464.36859151 0 3717.12338184 0 -20060.17376693 0 1365
0.03650000 0.03647120 49951.02184735 0 3000.89897862 0 5772.43474863 0 4535.88858521 0 -14129.39370107 0 1308
0.03750000 0.03744890 48089.21042910 0 1137.53743489 0 3883.35219434 0 269.87684513 0 -10099.85360215 0 1579
0.03850000 0.03847530 47000.57945293 0 64.78793710 0 7573.35945271 0 1459.09989228 0 -5694.99490885 0 1662
0.03950000 0.03950240 47394.75421647 0 147.40696754 0 5880.25704771 0 2660.59107532 0 -5368.77100271 0 1683
0.04050000 0.04050350 46548.49643058 0 363.36380527 0 9209.16257676 0 1132.68775662 0 -2529.50582179 0 1822
0.04150000 0.04152450 46345.31927016 0 905.01307754 0 3754.27103161 0 -1945.80607433 0 -2156.58992190 0 1887
0.04250000 0.04250150 45188.26132661 0 1521.89104632 0 10668.27354136 0 -1056.55112947 0 -4331.54883068 0 1920
0.04350000 0.04349210 43844.08109363 0 2906.91708556 0 8479.67352841 0 -4327.20847935 0 -2368.23741081 0 2005
0.04450000 0.04448520 42874.80977900 0 455.37703898 0 10089.75564191 0 213.12232257 0 124.19273133 0 2151
0.04550000 0.04548030 42135.39992761 0 -361.73728076 0 8031.07828838 0 1369.15939777 0 -2328.25524589 0 2274
0.04650000 0.04648670 41758.49799079 0 1054.13846989 0 9776.99568276 0 661.52158245 0 -5205.45421164 0 2311
0.04750000 0.04749250 41638.91688275 0 2137.62302949 0 8511.62825784 0 451.15959046 0 -2696.84186678 0 2568
0.04850000 0.04851840 39826.37730993 0 1755.93784834 0 9467.94495242 0 -580.61831947 0 -47.80066564 0 2493
0.04950000 0.04949480 38211.03584214 0 1861.95535848 0 9977.64835313 0 -223.49598370 0 4267.44006998 0 2644
0.05050000 0.05050630 37274.31716248 0 1928.19000554 0 13126.57324225 0 12.82551673 0 -395.41154223 0 2829
0.05150000 0.05149060 36489.40005609 0 1205.18933954 0 14407.75194702 0 -330.76023761 0 1637.60791300 0 2784
0.05250000 0.05249300 36597.35522307 0 128.85196561 0 13732.45085633 0 -337.47449538 0 4399.13430137 0 3055
0.05350000 0.05348950 36286.99795841 0 288.35766248 0 14676.80944011 0 -753.24139955 0 4378.01937794 0 3009
0.05450000 0.05448610 36965.28857680 0 -287.64792646 0 16331.23621451 0 -109.93810963 0 2833.40792109 0 3336
0.05550000 0.05550870 36045.28910761 0 -709.65851460 0 11155.47797803 0 3615.82268208 0 3600.15534246 0 3349
0.05650000 0.05647670 37430.76911217 0 -644.24543404 0 10999.85645271 0 5564.72900736 0 2549.33635554 0 3324
0.05750000 0.05747970 37203.45428364 0 -1065.07460512 0 7810.44007172 0 5359.27094802 0 -1346.79330164 0 3639
0.05850000 0.05849280 36925.87110044 0 787.01531195 0 6778.11186726 0 1105.00694458 0 -1491.19856193 0 3846
0.05950000 0.05951020 36394.95312539 0 1284.02429224 0 5377.89459837 0 -1766.93266688 0 -2652.80723097 0 3787
0.06050000 0.06049470 34821.24359891 0 1380.02134842 0 7452.99220960 0 -4238.46379593 0 -1412.43004317 0 3930
0.06150000 0.06148310 33549.58709349 0 1781.54813565 0 7866.70962645 0 -3246.21740731 0 -4159.40739672 0 4083
0.06250000 0.06249100 32892.99823175 0 1148.31080694 0 10397.46662095 0 -1776.22234741 0 -4703.91111433 0 4303
0.06350000 0.06350600 31176.34499186 0 1468.57780232 0 10342.93542122 0 -1268.60054377 0 -7150.57380183 0 4470
0.06450000 0.06451750 30513.55562822 0 1970.72987750 0 11001.18513169 0 -461.32287741 0 -8642.99031949 0 4479
0.06550000 0.06550280 28516.21895418 0 1509.77792297 0 9302.45798568 0 798.74865456 0 -4628.26499117 0 4636
0.06650000 0.06648880 28128.68758553 0 211.14259090 0 8709.21389423 0 1725.99828203 0 -5853.45094933 0 4653
0.06750000 0.06749660 27937.46853591 0 -1422.82695617 0 7539.88781478 0 4388.44950792 0 -5835.49163847 0 5220
0.06850000 0.06852730 29599.86738418 0 -1026.59384744 0 6851.33315128 0 2334.93185776 0 -6894.09446973 0 5029
0.06950000 0.06949320 29248.98541068 0 628.34779006 0 5752.57099790 0 1538.02342358 0 -3851.96215348 0 5040
0.07050000 0.07048030 29293.60687970 0 214.19965978 0 5703.95241962 0 -833.23230297 0 -1117.92834764 0 5475
0.07150000 0.07148790 29119.66065680 0 248.91361255 0 7170.29361233 0 244.45478735 0 1401.30235672 0 5509
0.07250000 0.07249820 28709.09885252 0 955.70550226 0 8287.41368026 0 247.01360161 0 1296.60245324 0 5916
0.07350000 0.07351270 28072.32945220 0 926.28633521 0 8942.10917446 0 -555.86724457 0 2102.41303656 0 5721
0.07450000 0.07449140 27881.99618857 0 79.21572996 0 9546.61382026 0 290.78139439 0 2515.92007924 0 6028
0.07550000 0.07549160 27755.10734615 0 156.94909707 0 10821.72489103 0 98.92125716 0 2723.36008472 0 6183
0.07650000 0.07648840 27540.74713766 0 606.04480618 0 10024.52857641 0 217.58889841 0 3580.26944708 0 6330
0.07750000 0.07749960 26093.48356061 0 703.24320960 0 10437.94704049 0 1133.78391678 0 2998.69558598 0 6583
0.07850000 0.07848650 26402.17997656 0 711.04919860 0 10438.60030765 0 1201.87871441 0 2098.03946826 0 6549
0.07950000 0.07947320 25135.83818705 0 314.88584552 0 8320.32062962 0 524.92784733 0 1368.88258965 0 6828
0.08050000 0.08048110 24536.27179812 0 653.48307463 0 9306.30008240 0 -625.70593336 0 2279.01661742 0 7147
0.08150000 0.08149960 24065.91943982 0 1067.18941916 0 8056.47820152 0 -301.35103566 0 1195.39033207 0 7386
0.08250000 0.08250610 23724.78111216 0 27.74071332 0 8443.90991925 0 333.06217394 0 2830.47375501 0 7227
0.08350000 0.08350160 23522.37901448 0 15.81947336 0 6889.36658703 0 1205.72081113 0 23.32617742 0 7798
0.08450000 0.08449610 23712.26938512 0 474.39597132 0 7316.92440991 0 -147.14566068 0 -906.79018567 0 7371
0.08550000 0.08548940 22610.79451216 0 899.15360325 0 5834.57263551 0 447.86003766 0 -1197.74873726 0 8256
0.08650000 0.08650700 22225.25616197 0 285.70362623 0 6369.86417887 0 974.24500293 0 652.86745337 0 8037
0.08750000 0.08749060 22121.84064817 0 -140.47015604 0 5261.29194570 0 728.35302783 0 342.38728590 0 8155
0.08850000 0.08849210 22197.68607317 0 -314.50274308 0 5272.59678934 0 898.81257564 0 -1396.95093307 0 8718
0.08950000 0.08949900 22122.28354116 0 440.99298181 0 5966.57689200 0 -605.14684064 0 -1331.33633619 0 8571
0.09050000 0.09049190 21697.65988436 0 798.31794112 0 5590.80433230 0 -656.24451244 0 -293.03904142 0 8932
0.09150000 0.09150830 21149.57980584 0 641.69547763 0 5826.85522511 0 -362.87219405 0 82.74459060 0 9285
0.09250000 0.09250820 21011.61863860 0 -54.09029976 0 5634.67288323 0 212.16899541 0 -667.05110147 0 9204
0.09350000 0.09350330 20544.25580801 0 404.32808540 0 6552.90078044 0 85.35134803 0 -1587.54993250 0 9349
0.09450000 0.09448040 20155.83865337 0 909.44311470 0 6657.15779094 0 -498.46277655 0 -1516.98600643 0 9564
0.09550000 0.09549270 19389.30160617 0 1192.95442061 0 6217.17681962 0 -72.84482498 0 -1009.55907571 0 10155
0.09650000 0.09649430 18457.01185644 0 549.52280245 0 6746.51145222 0 437.24278539 0 -427.69290523 0 9913
0.09750000 0.09749140 18229.58630467 0 106.13720197 0 5962.71265064 0 362.01851781 0 -771.00030133 0 10476
0.09850000 0.09850240 18160.16282805 0 114.79343479 0 5789.99545579 0 1395.38973527 0 168.13325237 0 10575
0.09950000 0.09950330 18157.50547010 0 -42.00828964 0 5903.03281986 0 1068.39519533 0 506.99511005 0 10882
0.10050000 0.10051200 18099.81865779 0 -97.65292235 0 5429.59128294 0 807.39724747 0 825.67765575 0 10875
0.10150000 0.10150300 18224.16086551 0 291.45237727 0 5743.96780152 0 317.17670952 0 1253.06607205 0 11118
0.10250000 0.10250800 17490.17645328 0 646.77213856 0 5603.23855307 0 -333.17289719 0 1465.73221484 0 11575
0.10350000 0.10349800 17385.65370699 0 613.99252094 0 6072.77155933 0 -247.27823017 0 1831.32930803 0 11364
0.10450000 0.10450100 16994.57919440 0 266.91610547 0 6409.83527146 0 -238.44583667 0 2293.63208618 0 12093
0.10550000 0.10551000 16555.00789910 0 51.96308471 0 6213.79976055 0 8.44595830 0 1642.56831452 0 12067
0.10650000 0.10649700 16794.72373142 0 241.71881588 0 6578.85430982 0 175.69454299 0 1327.30600996 0 12054
0.10750000 0.10749900 16656.76256418 0 260.15755840 0 6272.75989021 0 -256.38521734 0 564.18698944 0 12807
0.10850000 0.10850100 16217.85560837 0 178.35411541 0 6527.93268798 0 -426.90234124 0 -33.51603795 0 12736
0.10950000 0.10950300 16372.09309309 0 265.98381572 0 6129.98226167 0 167.07363089 0 -205.00963018 0 12933
0.11050000 0.11050200 15779.83443854 0 193.79336514 0 6226.13433040 0 321.91787901 0 -3.91351321 0 13428
0.11150000 0.11150900 16033.83356988 0 281.71094590 0 5544.30056806 0 262.04649702 0 -486.47366323 0 13453
0.11250000 0.11250000 15655.93512382 0 19.95875127 0 5477.56766638 0 820.36958323 0 97.56711184 0 13668
0.11350000 0.11349100 15459.40135829 0 149.44538254 0 4974.77339637 0 524.64661028 0 -9.56921244 0 13791
0.11450000 0.11448600 15146.27601242 0 423.24515236 0 5375.89050757 0 855.22636899 0 -94.45933171 0 14205
0.11550000 0.11549300 14927.70832050 0 391.51297666 0 4684.29095475 0 78.65890274 0 -233.50647257 0 14776
0.11650000 0.11649800 14477.61831662 0 355.58106816 0 5247.62869687 0 -654.37218232 0 -635.83378887 0 14553
0.11750000 0.11747300 14529.76896652 0 375.09161172 0 5210.85750615 0 -311.31502076 0 -587.65478189 0 14568
0.11850000 0.11849100 14097.94829859 0 235.55042373 0 5626.62330309 0 -218.93418587 0 -604.01967797 0 16015
0.11950000 0.11950300 14144.56278608 0 -106.93241634 0 5192.67674880 0 -148.98698829 0 -516.60588799 0 15270
0.12050000 0.12050700 14205.90346557 0 -165.85124623 0 5115.15940274 0 853.53562499 0 -944.16813980 0 15999
0.12150000 0.12150000 14375.75292829 0 9.94736554 0 5273.52686462 0 744.02147468 0 -304.71923687 0 15670
0.12250000 0.12250700 14100.71637979 0 326.94250001 0 4836.09252801 0 436.52086981 0 -20.78840057 0 16887
0.12350000 0.12352200 13964.30533803 0 337.82880977 0 5066.90621118 0 401.02631814 0 898.29217637 0 16407
0.12450000 0.12449800 13647.41540172 0 167.06698749 0 5051.72605386 0 602.96337818 0 735.18354501 0 16306
0.12550000 0.12549900 13449.88512695 0 172.85227721 0 4583.07883358 0 252.13898077 0 723.48784830 0 17523
0.12650000 0.12650100 13349.68058735 0 346.30578166 0 4796.61969004 0 68.73577452 0 823.42111595 0 17154
0.12750000 0.12750600 12979.08987567 0 258.05824562 0 4075.61204250 0 89.57156464 0 895.28825465 0 18007
0.12850000 0.12850300 12784.21695886 0 86.64548136 0 3426.70737417 0 853.06062226 0 825.52153597 0 17496
0.12950000 0.12949900 12650.24182855 0 -128.30388553 0 3257.83227604 0 458.05764882 0 -41.98027666 0 18405
0.13050000 0.13049000 12745.57454524 0 87.07386961 0 3308.43280046 0 524.93891965 0 -13.95002204 0 18100
0.13150000 0.13148800 12719.66530516 0 12.60473457 0 2689.20196265 0 -46.53653832 0 -290.23220708 0 19059
0.13250000 0.13249300 12663.08572534 0 149.37894859 0 3026.97430357 0 -341.63768951 0 2.28351198 0 18957
0.13350000 0.13349100 12639.39095023 0 424.49078890 0 3195.89369100 0 -366.00898367 0 262.22476145 0 19468
0.13450000 0.13450700 12180.22164000 0 321.29118543 0 3582.90466039 0 -323.46579002 0 274.36445838 0 19953
0.13550000 0.13551000 12238.12989880 0 151.72406699 0 3765.55373060 0 -269.99310454 0 83.04121818 0 19956
0.13650000 0.13649900 12052.22556510 0 177.68977592 0 4038.16543996 0 21.53711117 0 -31.65998414 0 19723
0.13750000 0.13749600 11916.92175581 0 215.54273278 0 4170.22505807 0 152.61538914 0 -394.12383085 0 20946
0.13850000 0.13851100 11721.05232977 0 213.39027283 0 3995.22696431 0 -56.06327732 0 -652.55189212 0 20955
0.13950000 0.13949800 11609.66474210 0 106.04917699 0 3927.14323900 0 187.19315231 0 -67.65256898 0 20506
0.14050000 0.14048300 11338.06061429 0 40.26384486 0 3732.94573401 0 427.45374302 0 -78.66975362 0 21447
0.14150000 0.14148400 11433.61477748 0 33.20645575 0 3529.94573078 0 834.14355531 0 -309.48476547 0 21771
0.14250000 0.14249400 11309.49401626 0 187.98925247 0 3517.36756979 0 540.90410481 0 68.39862223 0 22470
0.14350000 0.14350900 11113.95675996 0 374.86352183 0 2987.57897187 0 244.20455281 0 629.90345170 0 22519
0.14450000 0.14449900 10906.76034563 0 9.21602742 0 3136.86712740 0 165.08061242 0 819.30664005 0 22218
0.14550000 0.14550500 10982.77185551 0 41.50759911 0 3337.61944868 0 -100.56804403 0 579.14570027 0 23559
0.14650000 0.14650700 10928.29601741 0 134.50770913 0 3776.14994545 0 -255.64337158 0 1180.54234449 0 23044
0.14750000 0.14750500 10827.93646525 0 307.32898383 0 3409.40133048 0 208.43208578 0 904.72408986 0 23649
0.14850000 0.14849900 10585.55220264 0 190.23693441 0 3541.52738254 0 128.64602037 0 1215.92949461 0 23640
0.14950000 0.14949500 10389.98172937 0 175.31919118 0 3480.23099235 0 286.57169649 0 824.74425877 0 24457
0.15050000 0.15050000 10267.07892389 0 272.40908582 0 3585.01947443 0 130.71986681 0 967.29269018 0 24591
0.15150000 0.15149900 10041.14813596 0 126.87444840 0 3225.47894292 0 -125.38300625 0 426.49709415 0 25020
0.15250000 0.15250500 9920.91376076 0 -28.60346887 0 3473.32186166 0 -219.33168233 0 609.57244887 0 25297
0.15350000 0.15350100 10039.16618982 0 101.25740698 0 3439.03087170 0 -372.87936122 0 -58.36897824 0 25452
0.15450000 0.15450400 9868.77418318 0 213.57628789 0 3553.38584242 0 -276.29325736 0 -303.21782962 0 26061
0.15550000 0.15549900 9852.04390038 0 237.78481888 0 3642.08623655 0 -70.95190033 0 -8.26025327 0 26128
0.15650000 0.15649500 9471.29986684 0 253.09341517 0 3597.50905683 0 227.36576122 0 153.72372885 0 26331
0.15750000 0.15749700 9436.23381414 0 155.69903160 0 3448.16553967 0 823.91051271 0 120.71602134 0 27345
0.15850000 0.15849900 9238.53745451 0 5.27375938 0 3077.87378076 0 625.80336982 0 299.22293483 0 26980
0.15950000 0.15949700 9303.94167721 0 69.08665649 0 2954.62773321 0 701.29448043 0 712.67904481 0 27777
0.16050000 0.16050000 9120.65041216 0 34.59791481 0 2759.55551455 0 346.13858955 0 929.37219214 0 28224
0.16150000 0.16150500 9109.82167849 0 140.39929317 0 2607.27783132 0 46.40942803 0 1378.91411594 0 28075
0.16250000 0.16249700 9068.89836596 0 112.94435655 0 2830.92772033 0 39.39809979 0 1501.96086165 0 28590
0.16350000 0.16349900 8925.01350494 0 75.34252001 0 2691.94789921 0 -145.77822856 0 1508.53782259 0 29163
0.16450000 0.16449100 9023.08108586 0 28.51300798 0 2785.26545278 0 189.23599624 0 1485.05342165 0 28996
0.16550000 0.16550500 8826.37016313 0 42.81424416 0 2536.66961595 0 -54.40552885 0 1054.79505876 0 30777
0.16650000 0.16650700 8936.90518180 0 45.40040707 0 2704.67000043 0 -80.59977056 0 591.92094864 0 29211
0.16750000 0.16749900 8720.86197994 0 127.02613925 0 2658.54269523 0 -193.68042743 0 564.25785232 0 30922
0.16850000 0.16850800 8705.99184770 0 195.65462294 0 2830.20801922 0 -191.26223168 0 246.65375106 0 30867
0.16950000 0.16949900 8400.58391223 0 301.25359920 0 2514.79070211 0 -56.56751099 0 326.24162185 0 30852
0.17050000 0.17049200 8417.40277363 0 148.93162667 0 2690.96246230 0 267.12094348 0 475.23746801 0 31257
0.17150000 0.17149500 8396.87468342 0 -139.65191124 0 2614.49698710 0 272.97377438 0 282.78828310 0 32608
0.17250000 0.17250900 8377.65312753 0 36.64253031 0 2583.02943997 0 -41.69029247 0 384.13659386 0 32361
0.17350000 0.17350400 8344.36971913 0 227.71564669 0 2773.69487334 0 30.89964759 0 543.61571716 0 32508
0.17450000 0.17449800 8025.73035550 0 262.45728027 0 2600.91124455 0 -21.86983454 0 675.94439276 0 32791
0.17550000 0.17549800 7972.80464286 0 150.84713886 0 2623.13340046 0 223.33764945 0 685.51863203 0 33633
0.17650000 0.17650100 7794.40734539 0 83.97251142 0 2394.01378299 0 306.17967651 0 300.06000259 0 33984
0.17750000 0.17750300 7743.05390288 0 43.92158737 0 2202.40720200 0 253.68799901 0 515.98473057 0 34069
0.17850000 0.17849800 7736.74267773 0 -34.43969129 0 2067.80094918 0 123.41102520 0 178.41944213 0 34536
