### header ###
fiducial parameters:
Omega_m = 0.31
Omega_nu = 0
Omega_de = 0.69
Omega_k = 0
H_0 = 100
w_de = -1
zeff = 0
beta = 0
fgrowth = 0
b_1 = 2
gamma = 0.55
Lx = 3500 Ly = 3500 Lz = 3500
nx = 700 ny = 700 nz = 700
xoffset = -685.467585 yoffset = -31.7331281 zoffset = 572.489161
bins = 400 dk = 0.001
kx_ny = 0.628318531 ky_ny = 0.628318531 kz_ny = 0.628318531
############################
A(data) = 7.983362 (not used)
A(ran) = 7.97472526 (used)
Ngal = 474555
weighted Ngal = 0
Nran = 23820508
weighted Nran = 0
SN(data) = 3494.68082
SN(ran) = 69.4627491
SN(data+ran) = 3564.14357
############################
13 columns: k_central k_mean P_0(k) sigma^{lin}_{P_0(k)} P^img_1(k) sigma^{lin}_{P_1(k)} P_2(k) sigma^{lin}_{P_2(k)} P^img_3(k) sigma^{lin}_{P_3(k)} P_4(k) sigma^{lin}_{P_4(k)} N_modes
### header ###
0.00050000 0 0 0 0 0 0 0 0 0 0 0 0
0.00150000 0.00179520 10988.40766885 0 -16720.20698539 0 -18519.57049167 0 42337.02696256 0 3034.00522983 0 3
0.00250000 0.00253879 38393.61847840 0 -43284.92869029 0 -13423.75444038 0 -59631.11254330 0 18024.41612578 0 6
0.00350000 0.00331552 54507.28351022 0 -31699.06944655 0 -38094.88715479 0 1499.50280554 0 -16851.08186475 0 7
0.00450000 0.00420575 76530.58046751 0 -14404.09807983 0 -17177.60472365 0 -54563.53092030 0 -4555.03263482 0 24
0.00550000 0.00557378 73708.02342474 0 6748.63733859 0 -8700.64391482 0 -23126.43267896 0 27085.56386437 0 45
0.00650000 0.00659388 58850.18147384 0 1558.79510494 0 -10320.25929999 0 6593.59157415 0 2661.97511592 0 40
0.00750000 0.00754703 61432.80123779 0 2125.84207588 0 -7754.42518047 0 5082.45175523 0 1864.67915038 0 57
0.00850000 0.00846663 63472.65563913 0 -1603.32799536 0 -6321.11273269 0 -7896.46096324 0 -14975.98365671 0 75
0.00950000 0.00948925 58539.04914644 0 1698.12924046 0 -4997.34986667 0 -3778.39762739 0 -8593.67418474 0 112
0.01050000 0.01054430 57245.35871463 0 -484.39095893 0 -8684.88799660 0 -12617.79991683 0 -12927.27139551 0 105
0.01150000 0.01145670 58371.96776493 0 130.85162747 0 1195.71142949 0 -13182.37775934 0 -19416.76097172 0 144
0.01250000 0.01249090 55359.52035152 0 3339.20279113 0 8783.03308379 0 -23951.65304770 0 -26162.68559073 0 169
0.01350000 0.01339930 56919.61091846 0 6618.08355665 0 25600.98655268 0 -13726.80397067 0 -26828.79665182 0 180
0.01450000 0.01448870 57547.07956594 0 -605.12137429 0 30069.88757274 0 -29147.56291534 0 -19358.96343617 0 267
0.01550000 0.01550050 61093.10231236 0 -1525.25703307 0 47239.63094576 0 -5912.03461994 0 8285.12170902 0 238
0.01650000 0.01653350 79233.66712548 0 -8089.78375457 0 57243.14424966 0 -5637.68455559 0 -13300.85163490 0 315
0.01750000 0.01747870 69872.57010756 0 -1473.87037358 0 56385.26052272 0 22947.94680289 0 -11028.67771421 0 297
0.01850000 0.01844180 83343.04975867 0 301.44625765 0 60846.18946890 0 12027.86645050 0 -17422.63527188 0 388
0.01950000 0.01947590 80164.40674974 0 -2961.34863437 0 47280.70927084 0 19490.94554801 0 3658.90509795 0 399
0.02050000 0.02045430 84147.56488000 0 -4223.11755373 0 37687.09343172 0 23549.72765678 0 -14055.20912479 0 462
0.02150000 0.02154770 83754.82951868 0 -504.88029601 0 24762.70084066 0 8083.29537223 0 -8866.41876200 0 571
0.02250000 0.02255340 77915.72830232 0 1576.32259513 0 9552.89182843 0 9490.25568693 0 -11669.89818911 0 510
0.02350000 0.02348930 78735.19106215 0 -569.50834874 0 13237.18576719 0 5050.00984351 0 -15939.60808568 0 555
0.02450000 0.02439640 77332.10606113 0 3592.94725900 0 -968.65569336 0 -6924.65408623 0 -13511.11508320 0 592
0.02550000 0.02547300 71318.06211263 0 7756.32962033 0 7291.52449677 0 -6417.75198371 0 -18614.23886887 0 837
0.02650000 0.02652900 62351.36130475 0 9835.70114895 0 4667.99249262 0 844.80066794 0 -6634.02770439 0 723
0.02750000 0.02749970 60425.10895605 0 5802.79506328 0 13403.93497896 0 -4427.12513851 0 -8093.44869409 0 826
0.02850000 0.02848090 54768.81182244 0 1814.14505991 0 11913.93222811 0 -549.97233883 0 963.85251886 0 831
0.02950000 0.02946900 58130.48036063 0 -1262.92044114 0 15584.40790549 0 3291.53643279 0 -1647.81659649 0 996
0.03050000 0.03053250 58541.59578115 0 536.95682101 0 19859.76468772 0 -2669.57073075 0 4170.93368686 0 1041
0.03150000 0.03150510 62363.76230854 0 -1198.00340073 0 24571.03889805 0 2140.14751955 0 14109.35279315 0 1036
0.03250000 0.03246190 61989.18555993 0 820.30314928 0 24760.04348271 0 2620.71963365 0 13235.85708821 0 1059
0.03350000 0.03345080 59897.84484818 0 1570.18852718 0 25815.34676117 0 9206.32806161 0 16388.48013382 0 1302
0.03450000 0.03451200 59255.31783896 0 770.94604694 0 27577.28580956 0 8212.53154751 0 14029.85350095 0 1339
0.03550000 0.03553350 56468.96729834 0 639.73789060 0 17888.33725376 0 7495.78674503 0 17893.20907668 0 1365
0.03650000 0.03647120 57190.10781378 0 185.57991459 0 19501.90714958 0 2153.00248866 0 14390.03622731 0 1308
0.03750000 0.03744890 53586.84114805 0 4083.42910382 0 16909.43301654 0 374.97203061 0 13471.69760685 0 1579
0.03850000 0.03847530 53142.06586009 0 2743.03560592 0 16754.97408532 0 2663.03805911 0 9431.24019565 0 1662
0.03950000 0.03950240 49033.90118262 0 -334.59569093 0 13916.14072507 0 -278.03604129 0 7844.70891704 0 1683
0.04050000 0.04050350 49001.56999415 0 2317.34900594 0 13451.10308268 0 2280.85462334 0 5097.27759816 0 1822
0.04150000 0.04152450 47931.87269342 0 2182.87562102 0 15093.79319278 0 -1533.73843388 0 2578.61158236 0 1887
0.04250000 0.04250150 45503.04752121 0 2560.02114899 0 17113.49596295 0 -1987.42694332 0 4108.07609886 0 1920
0.04350000 0.04349210 44063.97746453 0 3663.99836736 0 18361.23624676 0 -3912.49455327 0 5095.02991622 0 2005
0.04450000 0.04448520 42306.13517632 0 2982.88430614 0 20445.04777763 0 -2572.90933508 0 7390.20105556 0 2151
0.04550000 0.04548030 40100.74951894 0 1361.25375785 0 23595.23491178 0 -1905.43637804 0 4750.66954204 0 2274
0.04650000 0.04648670 39842.54290417 0 1277.58019920 0 22584.77454883 0 1286.67057788 0 -339.58377326 0 2311
0.04750000 0.04749250 38333.93864763 0 773.67316054 0 22359.23129228 0 4954.72141612 0 646.26724055 0 2568
0.04850000 0.04851840 37695.50839859 0 446.35087979 0 18066.71240659 0 4413.48403434 0 -285.24301751 0 2493
0.04950000 0.04949480 36560.70582792 0 -671.77123354 0 14208.67154678 0 5737.30226198 0 -3002.12800668 0 2644
0.05050000 0.05050630 35810.55582146 0 -748.07616002 0 10747.78390589 0 4371.09917493 0 -5539.03014145 0 2829
0.05150000 0.05149060 36356.42143502 0 949.68215756 0 7432.66342124 0 1292.42818678 0 -3928.22832683 0 2784
0.05250000 0.05249300 35028.51751952 0 845.32328167 0 8875.56450230 0 282.24131025 0 -1567.19899948 0 3055
0.05350000 0.05348950 35345.29673258 0 -201.91602263 0 8846.32249246 0 -887.27521318 0 -361.26781418 0 3009
0.05450000 0.05448610 36067.10158751 0 -726.34450810 0 10694.21599841 0 -3913.94502782 0 -1880.41292395 0 3336
0.05550000 0.05550870 37479.26589488 0 -295.45834439 0 14126.51489662 0 -828.16007097 0 -1622.40561103 0 3349
0.05650000 0.05647670 37148.09265955 0 539.24989948 0 16241.66110673 0 -1822.37179725 0 -583.30778717 0 3324
0.05750000 0.05747970 36890.43966102 0 763.37479123 0 14981.85198886 0 1900.49812117 0 -599.60403483 0 3639
0.05850000 0.05849280 36798.87153477 0 1174.86224186 0 13339.05115552 0 4113.71191220 0 179.04502848 0 3846
0.05950000 0.05951020 35145.66271610 0 709.04510781 0 11599.03531027 0 7142.26955822 0 -484.64451517 0 3787
0.06050000 0.06049470 33518.25241425 0 58.00093416 0 6900.89287717 0 4340.84958353 0 713.20498024 0 3930
0.06150000 0.06148310 33635.06544109 0 251.61304534 0 5479.40567230 0 1958.78283902 0 -1781.72529284 0 4083
0.06250000 0.06249100 32643.98164657 0 1408.41078926 0 6104.25017879 0 -2847.74658173 0 -820.76375799 0 4303
0.06350000 0.06350600 32277.37697183 0 1199.60888783 0 5199.06548022 0 -3716.38153608 0 356.40042019 0 4470
0.06450000 0.06451750 31082.89457039 0 320.82836225 0 8386.13452834 0 -2703.82850374 0 732.68452129 0 4479
0.06550000 0.06550280 30673.32927535 0 538.49808862 0 10891.72412853 0 -1435.52691274 0 -868.46554778 0 4636
0.06650000 0.06648880 32083.72201075 0 353.15622902 0 12821.19852375 0 -547.78555468 0 -1806.57158974 0 4653
0.06750000 0.06749660 31036.72297590 0 330.22212262 0 12414.73347966 0 249.92783750 0 -625.45237712 0 5220
0.06850000 0.06852730 30961.43116713 0 -363.16228896 0 12151.87648846 0 2158.58294037 0 1238.97100256 0 5029
0.06950000 0.06949320 31250.97246114 0 50.42436373 0 11918.80405103 0 1888.88325244 0 52.91774056 0 5040
0.07050000 0.07048030 30901.86205961 0 685.03587867 0 11836.09378464 0 1501.08614799 0 -1157.21295610 0 5475
0.07150000 0.07148790 30454.98302993 0 1647.27405257 0 10869.91164864 0 -871.64109054 0 -1236.22506600 0 5509
0.07250000 0.07249820 28430.40843684 0 1945.09744554 0 11075.86796259 0 -759.49061968 0 1497.36584685 0 5916
0.07350000 0.07351270 27203.37340044 0 774.71063738 0 11102.88443515 0 -1.33525594 0 2145.21864431 0 5721
0.07450000 0.07449140 27355.50714344 0 40.72378924 0 11893.11625745 0 1790.77138222 0 724.88074676 0 6028
0.07550000 0.07549160 26749.07591313 0 47.77442423 0 10358.14879552 0 2102.40196424 0 132.98194277 0 6183
0.07650000 0.07648840 27231.82927522 0 -11.98080907 0 10126.11715662 0 1806.02904582 0 -321.51595362 0 6330
0.07750000 0.07749960 26353.35102411 0 478.95998361 0 9395.29942929 0 522.78203078 0 595.52056144 0 6583
0.07850000 0.07848650 25618.37010265 0 1199.37636901 0 8584.90490349 0 384.41008029 0 283.50909145 0 6549
0.07950000 0.07947320 24677.11176981 0 1284.74399336 0 8942.30847631 0 -1149.57305197 0 -686.29812370 0 6828
0.08050000 0.08048110 23612.06484551 0 1096.45246642 0 9522.90797282 0 223.98205876 0 1001.95238856 0 7147
0.08150000 0.08149960 22937.42809431 0 141.90180764 0 8851.52648512 0 103.65600470 0 -1184.32907958 0 7386
0.08250000 0.08250610 23119.56783757 0 -332.80418877 0 8453.55391416 0 931.43607349 0 -648.30565555 0 7227
0.08350000 0.08350160 23535.22291127 0 -613.53634115 0 8176.24753908 0 1423.28092149 0 -927.91618143 0 7798
0.08450000 0.08449610 23837.27593232 0 248.23155734 0 8576.62280452 0 828.19550241 0 577.13828778 0 7371
0.08550000 0.08548940 23747.92227103 0 365.13759171 0 8106.29259088 0 172.14586289 0 375.23555194 0 8256
0.08650000 0.08650700 22782.19410035 0 1013.17529700 0 8594.62640468 0 139.41496349 0 937.26233081 0 8037
0.08750000 0.08749060 22234.55691482 0 1364.60867227 0 8718.68073195 0 -383.71916722 0 793.04197835 0 8155
0.08850000 0.08849210 21442.66424379 0 783.78662203 0 8852.05795671 0 -156.68446851 0 509.20846778 0 8718
0.08950000 0.08949900 20679.78106379 0 639.22192027 0 8716.98666625 0 -73.98051334 0 936.59688408 0 8571
0.09050000 0.09049190 20170.78629187 0 415.37383664 0 8306.61309150 0 567.02482629 0 383.14894249 0 8932
0.09150000 0.09150830 19789.89831811 0 273.55174974 0 7810.04146803 0 458.16062144 0 110.80296893 0 9285
0.09250000 0.09250820 19642.52567477 0 336.11038496 0 8029.41743966 0 114.93183885 0 -868.13116357 0 9204
0.09350000 0.09350330 19414.54650676 0 394.42942701 0 7960.47007302 0 -286.28935221 0 -939.12137414 0 9349
0.09450000 0.09448040 18756.73968928 0 309.26774790 0 8129.42267742 0 29.49224439 0 -1225.49598325 0 9564
0.09550000 0.09549270 18720.53318713 0 527.74021783 0 7881.46903543 0 -68.18392985 0 -1285.60763469 0 10155
0.09650000 0.09649430 18511.93058754 0 328.16931360 0 8653.24329227 0 616.04200826 0 -1112.71328265 0 9913
0.09750000 0.09749140 17958.75723960 0 202.42645680 0 6813.45472808 0 1407.92360696 0 -1051.37924655 0 10476
0.09850000 0.09850240 17759.89828586 0 88.55446088 0 6882.01456335 0 1149.72806452 0 -776.86309732 0 10575
0.09950000 0.09950330 17599.68174573 0 308.89571779 0 5760.11125111 0 964.52682344 0 -1291.43167755 0 10882
0.10050000 0.10051200 17406.35895440 0 -124.79063687 0 6263.38163109 0 930.94889119 0 158.91443473 0 10875
0.10150000 0.10150300 17307.59381702 0 25.98608201 0 5102.90233917 0 252.56415804 0 12.67028274 0 11118
0.10250000 0.10250800 17342.02874720 0 191.45046121 0 5924.34704514 0 -70.29021820 0 -263.18916094 0 11575
0.10350000 0.10349800 17138.18724729 0 483.95581657 0 6049.26501374 0 110.74207114 0 1022.82593531 0 11364
0.10450000 0.10450100 16882.85943698 0 370.87748489 0 5934.66645187 0 5.06284267 0 873.82787469 0 12093
0.10550000 0.10551000 16408.52104174 0 231.28536421 0 5850.43927698 0 205.72822406 0 1290.96663991 0 12067
0.10650000 0.10649700 16645.57951611 0 -74.65348924 0 6098.92439056 0 623.11943828 0 1011.43694200 0 12054
0.10750000 0.10749900 16320.60678268 0 227.90055451 0 5949.74695827 0 830.87279055 0 567.64709094 0 12807
0.10850000 0.10850100 15775.29478537 0 597.41614345 0 5360.94286907 0 208.70778667 0 662.71739353 0 12736
0.10950000 0.10950300 15745.95312460 0 181.36800223 0 4916.86513757 0 578.12815362 0 1388.85706363 0 12933
0.11050000 0.11050200 15459.62280479 0 -29.20524973 0 4850.36475471 0 1258.62437911 0 1949.21635037 0 13428
0.11150000 0.11150900 15605.00242966 0 -4.48957305 0 3892.91868299 0 927.80545818 0 1320.64047042 0 13453
0.11250000 0.11250000 15510.99839195 0 -71.57693307 0 3942.27910703 0 821.77798295 0 1553.87899272 0 13668
0.11350000 0.11349100 15199.31244830 0 312.18309103 0 3538.24997440 0 315.71848434 0 1401.33557370 0 13791
0.11450000 0.11448600 15057.69741387 0 343.69049853 0 3642.78379301 0 -556.03332944 0 1615.51862499 0 14205
0.11550000 0.11549300 14772.58504979 0 653.92486039 0 3652.66030675 0 -321.83262211 0 686.44760008 0 14776
0.11650000 0.11649800 14172.46504462 0 500.16680734 0 4062.36954201 0 -1194.57098003 0 417.96143895 0 14553
0.11750000 0.11747300 13966.63052624 0 290.74153402 0 4319.44677965 0 -512.96087866 0 821.15018213 0 14568
0.11850000 0.11849100 13728.79698914 0 269.12060534 0 4766.03792889 0 -333.68997476 0 23.44243683 0 16015
0.11950000 0.11950300 13769.98603746 0 29.03108206 0 4677.72506613 0 247.71226531 0 263.91107652 0 15270
0.12050000 0.12050700 13660.03785201 0 97.51717565 0 4725.30284588 0 38.58572331 0 -347.65217635 0 15999
0.12150000 0.12150000 13741.97305567 0 217.53907294 0 4809.57431007 0 316.30753202 0 -0.84272682 0 15670
0.12250000 0.12250700 13404.37787195 0 167.33383052 0 4872.84157409 0 44.58227299 0 229.72859534 0 16887
0.12350000 0.12352200 13501.92505360 0 57.40646104 0 4833.57911028 0 152.00530404 0 -188.39007063 0 16407
0.12450000 0.12449800 13299.85512566 0 -146.40935108 0 4452.84614907 0 172.30973329 0 204.17366966 0 16306
0.12550000 0.12549900 13489.74549630 0 93.58018912 0 4836.55756566 0 184.07297118 0 -62.68718492 0 17523
0.12650000 0.12650100 13439.03424863 0 -65.23381962 0 4175.04151937 0 330.45131975 0 123.57600284 0 17154
0.12750000 0.12750600 13310.70600398 0 -95.18700489 0 4349.97317918 0 442.42352617 0 103.33900404 0 18007
0.12850000 0.12850300 13645.53310650 0 -47.48776174 0 4018.72243758 0 738.79755183 0 206.40142141 0 17496
0.12950000 0.12949900 13718.49972705 0 -111.99878001 0 4214.99046731 0 404.79533751 0 123.26929944 0 18405
0.13050000 0.13049000 13663.91316570 0 130.70104386 0 3835.88513785 0 -349.39385305 0 157.93453398 0 18100
0.13150000 0.13148800 13492.62430075 0 396.62285456 0 4069.46690222 0 -275.81271846 0 300.54386318 0 19059
0.13250000 0.13249300 13279.26060150 0 322.92103164 0 4241.06579226 0 -281.48617770 0 996.62881479 0 18957
0.13350000 0.13349100 12957.16667252 0 403.96491315 0 4220.18338765 0 369.75807285 0 815.79449862 0 19468
0.13450000 0.13450700 12855.41200744 0 99.14126426 0 4086.39648687 0 558.05845765 0 493.61531274 0 19953
0.13550000 0.13551000 12440.53199649 0 275.05980038 0 3922.22712678 0 322.74276721 0 611.15579132 0 19956
0.13650000 0.13649900 12405.76489656 0 308.61337351 0 3923.24578067 0 93.53634271 0 510.53050337 0 19723
0.13750000 0.13749600 11946.81703282 0 236.87024485 0 3873.05493226 0 75.22714639 0 1252.46816651 0 20946
0.13850000 0.13851100 11936.96266373 0 257.19238982 0 3996.04631635 0 -206.29955602 0 694.70866163 0 20955
0.13950000 0.13949800 11589.62383417 0 416.83095459 0 4307.57724745 0 68.55784226 0 1387.25157653 0 20506
0.14050000 0.14048300 11263.76531476 0 461.35166545 0 4165.12071633 0 -11.95412477 0 812.40968892 0 21447
0.14150000 0.14148400 10999.45784901 0 182.24271589 0 4061.94879367 0 315.76498811 0 1038.54642208 0 21771
0.14250000 0.14249400 10853.30316141 0 161.84306464 0 4063.43248520 0 62.12836468 0 687.99440386 0 22470
0.14350000 0.14350900 10660.31253982 0 128.67037949 0 3851.43068189 0 362.06502157 0 671.63836564 0 22519
0.14450000 0.14449900 10582.95020631 0 -62.65374650 0 3490.58361605 0 599.59517697 0 546.05937924 0 22218
0.14550000 0.14550500 10642.12071014 0 -93.05214995 0 3110.93574267 0 450.40667237 0 739.37331272 0 23559
0.14650000 0.14650700 10636.21916101 0 -73.03969790 0 2797.60002263 0 212.68164405 0 88.61513722 0 23044
0.14750000 0.14750500 10706.61700221 0 91.09854895 0 2779.46355458 0 51.99696603 0 -324.91847904 0 23649
0.14850000 0.14849900 10419.19052224 0 188.90714820 0 2684.77303273 0 -282.26124044 0 -137.11634886 0 23640
0.14950000 0.14949500 10558.72395961 0 267.01686363 0 2902.42172169 0 -236.90567628 0 -320.73092579 0 24457
0.15050000 0.15050000 10326.79197163 0 142.49528425 0 2805.72710904 0 -30.12436341 0 -154.19098096 0 24591
0.15150000 0.15149900 10323.73600998 0 88.23280985 0 2798.19792817 0 -153.86324014 0 -176.72205473 0 25020
0.15250000 0.15250500 10164.95887208 0 150.39428078 0 2949.09157080 0 148.62935220 0 -107.99823833 0 25297
0.15350000 0.15350100 10049.47452422 0 150.88589200 0 2912.66362214 0 408.77251658 0 44.13218299 0 25452
0.15450000 0.15450400 9783.06331676 0 193.15006307 0 2794.98695397 0 340.07427725 0 155.17198894 0 26061
0.15550000 0.15549900 9761.30619849 0 205.78026399 0 2969.92968611 0 261.64789332 0 -100.13555903 0 26128
0.15650000 0.15649500 9532.57411239 0 288.64000677 0 2950.09915236 0 -147.74688792 0 -170.23699409 0 26331
0.15750000 0.15749700 9246.18843096 0 382.05499680 0 3059.95875921 0 -375.66958707 0 151.48269031 0 27345
0.15850000 0.15849900 8990.88276529 0 322.51467732 0 3107.49224965 0 -320.19281080 0 186.08924153 0 26980
0.15950000 0.15949700 8804.53553859 0 63.38706657 0 3099.81912855 0 334.46835919 0 251.06717973 0 27777
0.16050000 0.16050000 8874.01437683 0 -148.72125250 0 2932.43879427 0 374.62546684 0 -108.09124585 0 28224
0.16150000 0.16150500 8877.96719679 0 -106.11129273 0 2634.79255849 0 552.02514786 0 -52.88596299 0 28075
0.16250000 0.16249700 9048.79102409 0 24.32191159 0 2584.35811895 0 449.21086129 0 39.56850286 0 28590
0.16350000 0.16349900 8929.12133745 0 51.11948429 0 2286.52365365 0 317.64285440 0 112.09178753 0 29163
0.16450000 0.16449100 8885.13099095 0 160.38705393 0 2337.72208361 0 147.39368075 0 489.39232805 0 28996
0.16550000 0.16550500 8751.63197061 0 210.18926373 0 2283.22410085 0 145.01202368 0 393.57685800 0 30777
0.16650000 0.16650700 8699.32630816 0 17.99086698 0 2257.55845192 0 -38.49780905 0 482.26507257 0 29211
0.16750000 0.16749900 8551.55506113 0 123.33130446 0 2247.64872121 0 51.69181276 0 698.38910240 0 30922
0.16850000 0.16850800 8675.77547327 0 19.02900816 0 2159.69017285 0 193.25525015 0 596.34766410 0 30867
0.16950000 0.16949900 8524.23963581 0 5.59217730 0 1956.90054380 0 368.22566310 0 893.22437330 0 30852
0.17050000 0.17049200 8542.26538061 0 51.15115113 0 1649.48851753 0 236.45946159 0 802.92513548 0 31257
0.17150000 0.17149500 8465.21307220 0 54.26424598 0 1515.10371121 0 490.15964016 0 928.04572763 0 32608
0.17250000 0.17250900 8347.06029406 0 89.91624611 0 1473.83715661 0 305.14330691 0 868.48547796 0 32361
0.17350000 0.17350400 8233.73504954 0 116.63586964 0 1301.89502450 0 -57.24048689 0 574.72784266 0 32508
0.17450000 0.17449800 8178.18519592 0 184.45496639 0 1518.46969795 0 -305.38689806 0 469.76331062 0 32791
0.17550000 0.17549800 8110.97618428 0 173.99161943 0 1687.06798797 0 -545.32417688 0 687.42971530 0 33633
0.17650000 0.17650100 7912.47154493 0 241.30581817 0 1888.51786572 0 -245.16895230 0 696.01187426 0 33984
0.17750000 0.17750300 7875.76678815 0 83.46960643 0 1952.18373343 0 -10.63339572 0 769.67162235 0 34069
0.17850000 0.17849800 7894.32400455 0 -16.57538098 0 2184.30395092 0 231.71164871 0 445.60903402 0 34536
