### header ###
fiducial parameters:
Omega_m = 0.31
Omega_nu = 0
Omega_de = 0.69
Omega_k = 0
H_0 = 100
w_de = -1
zeff = 0
beta = 0
fgrowth = 0
b_1 = 2
gamma = 0.55
Lx = 3500 Ly = 3500 Lz = 3500
nx = 700 ny = 700 nz = 700
xoffset = -685.467585 yoffset = -31.7331281 zoffset = 572.489161
bins = 400 dk = 0.001
kx_ny = 0.628318531 ky_ny = 0.628318531 kz_ny = 0.628318531
############################
A(data) = 8.01472169 (not used)
A(ran) = 8.00041249 (used)
Ngal = 475812
weighted Ngal = 0
Nran = 23820508
weighted Nran = 0
SN(data) = 3500.18293
SN(ran) = 69.6864943
SN(data+ran) = 3569.86942
############################
13 columns: k_central k_mean P_0(k) sigma^{lin}_{P_0(k)} P^img_1(k) sigma^{lin}_{P_1(k)} P_2(k) sigma^{lin}_{P_2(k)} P^img_3(k) sigma^{lin}_{P_3(k)} P_4(k) sigma^{lin}_{P_4(k)} N_modes
### header ###
0.00050000 0 0 0 0 0 0 0 0 0 0 0 0
0.00150000 0.00179520 32772.42061447 0 -30904.85158731 0 20355.02977685 0 -96317.37853467 0 4674.62481518 0 3
0.00250000 0.00253879 49592.27852323 0 -20685.09577970 0 9299.01449267 0 244.28427354 0 34546.09632717 0 6
0.00350000 0.00331552 62501.61275254 0 -6293.16618485 0 24425.54854993 0 -543.13407103 0 -35165.37145428 0 7
0.00450000 0.00420575 63984.75066199 0 12122.86699744 0 39762.26854923 0 -9015.00936107 0 28489.53465137 0 24
0.00550000 0.00557378 62772.77398734 0 11383.01425306 0 58443.82715300 0 30556.95914151 0 14907.99958232 0 45
0.00650000 0.00659388 57017.37954661 0 -3855.38350185 0 67602.74351973 0 17645.18900074 0 11876.39704698 0 40
0.00750000 0.00754703 66965.64194967 0 2593.57029319 0 57023.35860201 0 56386.81064819 0 -2131.26751504 0 57
0.00850000 0.00846663 70758.90970929 0 -5579.54377796 0 50975.21189308 0 42025.00884917 0 2518.28955675 0 75
0.00950000 0.00948925 71712.67976917 0 -5879.48198497 0 22025.06852925 0 27675.60805395 0 178.02858906 0 112
0.01050000 0.01054430 81635.14365540 0 -1962.04917484 0 27802.49689637 0 34967.61973302 0 14972.32978952 0 105
0.01150000 0.01145670 80032.53536115 0 -5415.40763485 0 15816.26238720 0 15643.86628977 0 12645.92362187 0 144
0.01250000 0.01249090 80864.17767828 0 6361.02846366 0 10283.67633879 0 26011.10546396 0 20157.83167183 0 169
0.01350000 0.01339930 80793.42552268 0 2936.09266146 0 22105.56433068 0 -3511.54352693 0 28199.32901787 0 180
0.01450000 0.01448870 81069.90147341 0 -1498.87168302 0 20156.72443935 0 7352.74338069 0 25800.84201566 0 267
0.01550000 0.01550050 82739.82950255 0 6417.65233279 0 27739.27392166 0 3599.09239928 0 49465.83257380 0 238
0.01650000 0.01653350 84542.40398303 0 2198.62046691 0 41660.39719289 0 1497.46549777 0 29386.28223843 0 315
0.01750000 0.01747870 79831.79411218 0 5005.48802542 0 47534.81912543 0 19806.28535884 0 66111.52281316 0 297
0.01850000 0.01844180 79854.16020832 0 5083.14931169 0 41733.91742969 0 25606.74416159 0 24537.48975385 0 388
0.01950000 0.01947590 75093.83559904 0 3063.57940942 0 41867.44966700 0 13082.72683597 0 34315.23835470 0 399
0.02050000 0.02045430 72652.38797653 0 6429.95368566 0 28083.18033053 0 11587.40936921 0 25534.10971078 0 462
0.02150000 0.02154770 66117.50186856 0 1426.72441451 0 32215.26122960 0 2987.90006929 0 30589.84394622 0 571
0.02250000 0.02255340 68386.11050065 0 -4517.57495996 0 18228.03617919 0 10865.20591059 0 17333.83522684 0 510
0.02350000 0.02348930 68617.30064287 0 -175.91266779 0 28445.57752184 0 -5267.34850738 0 14859.61352286 0 555
0.02450000 0.02439640 72650.61640456 0 1039.94374948 0 22270.20980074 0 -6867.10014182 0 3014.98297579 0 592
0.02550000 0.02547300 67077.47243034 0 3560.18424986 0 28451.66730049 0 -3200.56621208 0 10399.17175897 0 837
0.02650000 0.02652900 70990.65346774 0 327.98329855 0 26430.63585134 0 1742.89464970 0 19808.27837731 0 723
0.02750000 0.02749970 73279.19228451 0 -5118.82434226 0 33593.98711601 0 9022.32816777 0 6942.28122734 0 826
0.02850000 0.02848090 74174.94336234 0 -1465.00144140 0 31154.75395847 0 5790.56014436 0 10711.46668048 0 831
0.02950000 0.02946900 71884.85442010 0 6295.12598634 0 26832.33979576 0 3022.83325409 0 2026.83334735 0 996
0.03050000 0.03053250 67771.37502672 0 5068.89922965 0 29808.46998377 0 -2013.71264244 0 -3405.81389724 0 1041
0.03150000 0.03150510 62280.05553291 0 3824.74637908 0 25319.30660929 0 -1821.17598617 0 1310.56465483 0 1036
0.03250000 0.03246190 58075.89379927 0 5289.20527657 0 28107.20727538 0 2365.61326983 0 -3239.03146850 0 1059
0.03350000 0.03345080 58845.75254392 0 2485.39367972 0 26045.87256389 0 -1464.32602959 0 -3024.11764377 0 1302
0.03450000 0.03451200 52911.54005736 0 1540.35968412 0 25701.30181554 0 6294.48379150 0 3115.92936116 0 1339
0.03550000 0.03553350 54240.10831235 0 4241.69691478 0 26295.88565830 0 4881.95409741 0 5201.36852378 0 1365
0.03650000 0.03647120 52144.78156367 0 -731.74115922 0 25271.69561257 0 8893.24700504 0 10777.94491869 0 1308
0.03750000 0.03744890 51147.38654401 0 -168.97142736 0 25755.44548390 0 12486.37142124 0 10514.00283967 0 1579
0.03850000 0.03847530 50734.61027477 0 1242.03803653 0 22303.75894494 0 6269.98073668 0 10803.28947020 0 1662
0.03950000 0.03950240 49876.17293158 0 -23.43601488 0 17713.83741461 0 7275.08209442 0 9099.98945405 0 1683
0.04050000 0.04050350 48477.07396749 0 2240.30776986 0 19907.92930068 0 -2571.30384798 0 10789.34941326 0 1822
0.04150000 0.04152450 46868.81878759 0 1948.44128764 0 13909.60805342 0 1371.40707971 0 8455.52478798 0 1887
0.04250000 0.04250150 46428.47242955 0 -333.21275756 0 11323.44514553 0 607.15093143 0 6412.27118292 0 1920
0.04350000 0.04349210 45698.36333101 0 312.07236778 0 12210.89197975 0 2005.96201507 0 5797.57999829 0 2005
0.04450000 0.04448520 45625.61815695 0 463.95587625 0 12103.15825926 0 2918.23300153 0 2523.67070661 0 2151
0.04550000 0.04548030 43247.61495565 0 2431.89220619 0 9084.65428418 0 -486.59435157 0 2216.95623681 0 2274
0.04650000 0.04648670 41836.77932726 0 3304.95609047 0 11457.97389208 0 2980.48161166 0 3686.25374025 0 2311
0.04750000 0.04749250 39329.67281857 0 905.24448913 0 11513.55696267 0 902.09219825 0 4069.40046827 0 2568
0.04850000 0.04851840 38948.23122857 0 -1254.88193332 0 10221.73775375 0 -860.73927952 0 3988.59464175 0 2493
0.04950000 0.04949480 39839.66409972 0 -1382.86693590 0 12041.81757977 0 1614.54426041 0 4149.47552136 0 2644
0.05050000 0.05050630 41985.92354256 0 -238.81011615 0 13367.28558381 0 -2600.63443643 0 2240.46278240 0 2829
0.05150000 0.05149060 42229.07179558 0 603.65982742 0 15215.69948903 0 491.69537162 0 2836.19814695 0 2784
0.05250000 0.05249300 41215.95407467 0 732.15304970 0 13282.91446869 0 -1263.82837177 0 1565.29455961 0 3055
0.05350000 0.05348950 41278.40198665 0 2083.37971020 0 13756.47780118 0 557.86247750 0 3363.99372640 0 3009
0.05450000 0.05448610 39319.48627974 0 1356.04976519 0 14809.56661468 0 979.75348453 0 2953.68658560 0 3336
0.05550000 0.05550870 39938.20779060 0 986.21529329 0 14512.38541655 0 394.17476354 0 293.56054792 0 3349
0.05650000 0.05647670 37455.68184301 0 1786.07671650 0 14777.67831921 0 -503.55715319 0 2554.97216888 0 3324
0.05750000 0.05747970 36237.06177347 0 2150.66622812 0 14749.33316767 0 -1076.33848116 0 2707.44915395 0 3639
0.05850000 0.05849280 34683.50387817 0 835.50212956 0 12849.76512178 0 825.01442349 0 520.01948574 0 3846
0.05950000 0.05951020 33647.02355190 0 962.00565508 0 14066.72434260 0 206.48557108 0 1156.53754428 0 3787
0.06050000 0.06049470 33666.84301332 0 384.58502302 0 12972.77865052 0 991.38606898 0 -1299.44804072 0 3930
0.06150000 0.06148310 33492.67534392 0 -48.59399772 0 14638.72064273 0 739.20279892 0 -2276.79108013 0 4083
0.06250000 0.06249100 32858.00968532 0 -17.07053534 0 13269.51695566 0 -192.05833184 0 21.34555996 0 4303
0.06350000 0.06350600 33219.96398364 0 909.67895522 0 14818.53519779 0 -53.35244003 0 -2243.13121268 0 4470
0.06450000 0.06451750 33089.19982753 0 418.96237712 0 12768.27281112 0 1878.55277338 0 262.31334005 0 4479
0.06550000 0.06550280 31929.59524927 0 244.78584986 0 12922.73174234 0 989.40523007 0 -1733.61604151 0 4636
0.06650000 0.06648880 32251.13556201 0 695.69852747 0 13484.54150364 0 134.83212825 0 -2567.22923245 0 4653
0.06750000 0.06749660 31452.59949609 0 407.90223185 0 13460.62528203 0 -171.32761808 0 -2813.98706336 0 5220
0.06850000 0.06852730 30843.17873807 0 1222.87184227 0 14579.04081196 0 211.06729909 0 -953.25630401 0 5029
0.06950000 0.06949320 30482.33167223 0 409.18219260 0 14596.42436193 0 250.99188792 0 529.44314139 0 5040
0.07050000 0.07048030 30491.85387157 0 607.03577925 0 14908.55319856 0 2539.09445509 0 -339.23831672 0 5475
0.07150000 0.07148790 29616.80804116 0 777.96036471 0 14396.12600596 0 2236.50996244 0 2452.17670526 0 5509
0.07250000 0.07249820 29042.59727606 0 375.30087866 0 13409.02824837 0 2797.42286543 0 413.05197013 0 5916
0.07350000 0.07351270 28613.87685908 0 -138.64765138 0 12023.43752057 0 2597.31273898 0 2127.07110394 0 5721
0.07450000 0.07449140 28377.03983121 0 599.27740125 0 11068.77060238 0 1658.96642758 0 883.72210415 0 6028
0.07550000 0.07549160 27525.24588291 0 908.78209691 0 10002.42821607 0 -548.92600414 0 1571.99331613 0 6183
0.07650000 0.07648840 27038.28503739 0 851.13957390 0 8817.63409885 0 328.08294947 0 2503.08725478 0 6330
0.07750000 0.07749960 26252.70359151 0 360.13290089 0 9119.80891548 0 1059.20738020 0 2071.94199866 0 6583
0.07850000 0.07848650 25666.97760860 0 935.17851928 0 8444.97286243 0 968.54497012 0 303.41823870 0 6549
0.07950000 0.07947320 24984.25806028 0 1134.02750793 0 9094.63044884 0 630.67962167 0 765.73983981 0 6828
0.08050000 0.08048110 23768.73824169 0 1335.54381963 0 8880.61348242 0 -411.34461764 0 2248.09161420 0 7147
0.08150000 0.08149960 23341.78939668 0 -106.31358410 0 8852.57835598 0 -159.20563687 0 2061.04683104 0 7386
0.08250000 0.08250610 23425.60689556 0 -144.73743003 0 9433.00069530 0 1473.87037358 0 1666.46239148 0 7227
0.08350000 0.08350160 23452.84481462 0 -241.59812754 0 8450.27650602 0 680.91918830 0 1678.27656206 0 7798
0.08450000 0.08449610 23426.93557454 0 43.00889563 0 7266.71141685 0 1400.58265561 0 -806.41623949 0 7371
0.08550000 0.08548940 23207.37137339 0 392.94130656 0 7507.08051634 0 231.55331447 0 67.94421402 0 8256
0.08650000 0.08650700 22581.45285139 0 1035.21365231 0 6782.08683187 0 132.50029664 0 -876.77864925 0 8037
0.08750000 0.08749060 21582.17553651 0 830.49190258 0 6200.26937962 0 -82.98618873 0 703.07491026 0 8155
0.08850000 0.08849210 21355.63577072 0 335.60659418 0 6986.12763362 0 144.49494612 0 116.08557510 0 8718
0.08950000 0.08949900 21183.46111979 0 124.05322004 0 7091.93476959 0 330.04275096 0 878.94218152 0 8571
0.09050000 0.09049190 21256.87063333 0 374.73951179 0 7270.85246634 0 287.33347244 0 383.30506227 0 8932
0.09150000 0.09150830 21201.61973249 0 575.22941898 0 7825.55379510 0 71.06317720 0 1334.97913106 0 9285
0.09250000 0.09250820 20292.02824864 0 371.31927065 0 7636.30561930 0 -18.58943686 0 1111.14101253 0 9204
0.09350000 0.09350330 20140.78029161 0 662.83586741 0 8539.86268613 0 661.21709352 0 1761.55151702 0 9349
0.09450000 0.09448040 19399.26669851 0 320.60691575 0 7858.79291421 0 614.17078537 0 1437.67494375 0 9564
0.09550000 0.09549270 19251.22971568 0 232.83659691 0 7438.44317479 0 849.06462023 0 450.85067259 0 10155
0.09650000 0.09649430 18622.54311248 0 349.30859615 0 7002.86898875 0 203.55472670 0 804.94804922 0 9913
0.09750000 0.09749140 18332.66964873 0 566.72476629 0 6118.09058482 0 907.67486443 0 509.43102151 0 10476
0.09850000 0.09850240 17966.84003672 0 149.04124269 0 6219.11447646 0 130.45523825 0 882.85846281 0 10575
0.09950000 0.09950330 18047.77873115 0 -41.64312437 0 5685.00767186 0 756.99823936 0 1214.54545401 0 10882
0.10050000 0.10051200 17768.42397597 0 78.18423218 0 5945.24052207 0 -5.90673098 0 27.48505334 0 10875
0.10150000 0.10150300 17873.27889200 0 668.11625911 0 6787.97730867 0 -697.69043871 0 1419.78206685 0 11118
0.10250000 0.10250800 17227.98380157 0 683.24991268 0 7192.52684057 0 -259.37806674 0 1054.34995130 0 11575
0.10350000 0.10349800 16448.15996460 0 809.38140808 0 7368.18927382 0 -388.38725936 0 2465.04274670 0 11364
0.10450000 0.10450100 16186.41020588 0 391.40778957 0 7259.02722343 0 1346.50542120 0 2011.22136936 0 12093
0.10550000 0.10551000 15875.16715523 0 -143.50508028 0 7158.67874360 0 1062.41835439 0 1865.25491127 0 12067
0.10650000 0.10649700 15891.22202622 0 113.07611721 0 5973.27564851 0 724.01821266 0 1334.44765947 0 12054
0.10750000 0.10749900 15691.80945623 0 -30.76976922 0 5593.19595446 0 450.57497171 0 1424.65388977 0 12807
0.10850000 0.10850100 15611.42437805 0 263.26666721 0 5676.54841570 0 267.76424555 0 2030.48721454 0 12736
0.10950000 0.10950300 15481.10311493 0 144.22145969 0 4652.85662459 0 497.90030244 0 1856.59635327 0 12933
0.11050000 0.11050200 15293.20576276 0 -85.17884121 0 4560.23662748 0 971.00745516 0 1648.64702085 0 13428
0.11150000 0.11150900 15322.54742353 0 -0.56984495 0 3656.38060789 0 744.14437748 0 1080.97224909 0 13453
0.11250000 0.11250000 15121.03111183 0 320.16955892 0 4342.62115550 0 -296.63754698 0 1122.93303846 0 13668
0.11350000 0.11349100 15003.55374551 0 519.55666256 0 4032.48533733 0 -446.00431602 0 919.10261087 0 13791
0.11450000 0.11448600 14591.10964601 0 514.57190192 0 3835.56404043 0 -676.48915114 0 781.62419699 0 14205
0.11550000 0.11549300 14079.23606965 0 543.76851524 0 4339.86414662 0 -584.85901987 0 205.99395986 0 14776
0.11650000 0.11649800 13729.68277512 0 189.38325816 0 4189.04801026 0 89.62327240 0 -175.41330594 0 14553
0.11750000 0.11747300 13532.48467010 0 157.30784040 0 4053.13522311 0 207.75888843 0 -661.35328312 0 14568
0.11850000 0.11849100 13587.84629419 0 -91.84748101 0 3523.25804659 0 825.41745612 0 -463.12877358 0 16015
0.11950000 0.11950300 13845.83146247 0 -463.20074370 0 3354.51581636 0 568.94144571 0 -578.23112624 0 15270
0.12050000 0.12050700 14033.17519840 0 -145.49366981 0 3255.34100296 0 541.02700761 0 -885.36191545 0 15999
0.12150000 0.12150000 14135.48347972 0 183.90245738 0 3519.05056316 0 143.53719002 0 108.96584879 0 15670
0.12250000 0.12250700 13763.45336582 0 364.76002543 0 3262.83696686 0 530.62788014 0 55.33327894 0 16887
0.12350000 0.12352200 13537.24576977 0 118.39969098 0 3125.27440331 0 270.27766329 0 498.29669167 0 16407
0.12450000 0.12449800 13635.12512117 0 98.76513738 0 3056.92494221 0 519.64967009 0 320.00790298 0 16306
0.12550000 0.12549900 13704.43787453 0 242.36876135 0 3187.42336252 0 -50.97144730 0 799.94889457 0 17523
0.12650000 0.12650100 13187.91392175 0 240.03471528 0 3218.12691924 0 -730.39587175 0 448.28410770 0 17154
0.12750000 0.12750600 13083.72334520 0 253.75111126 0 3448.67486661 0 -204.77268243 0 721.36971256 0 18007
0.12850000 0.12850300 12902.91228091 0 134.76901600 0 3533.71032122 0 -51.34502754 0 430.32147515 0 17496
0.12950000 0.12949900 12682.01940078 0 310.77026238 0 3523.34662519 0 616.61887638 0 331.12673156 0 18405
0.13050000 0.13049000 12446.51105189 0 118.67317741 0 3134.98483218 0 418.90147933 0 138.36973603 0 18100
0.13150000 0.13148800 12426.35942072 0 16.31794942 0 2410.06865398 0 550.36651360 0 76.58018448 0 19059
0.13250000 0.13249300 12399.23222491 0 87.35621389 0 2270.42449336 0 261.01787804 0 -202.76859164 0 18957
0.13350000 0.13349100 12153.42661394 0 307.83720354 0 2377.95891200 0 -121.90297456 0 101.61105703 0 19468
0.13450000 0.13450700 11879.49729793 0 243.05303102 0 2321.24646428 0 -97.75135532 0 429.50987374 0 19953
0.13550000 0.13551000 11817.71372544 0 146.36063285 0 2076.65880904 0 282.41403852 0 654.48622726 0 19956
0.13650000 0.13649900 11828.12171077 0 47.08450768 0 2660.10389303 0 6.28168418 0 541.63598548 0 19723
0.13750000 0.13749600 11931.86939432 0 -20.13923017 0 2884.28525363 0 -73.61789470 0 781.82349884 0 20946
0.13850000 0.13851100 11816.93866270 0 227.52077377 0 3140.56528389 0 -226.05590519 0 817.14310778 0 20955
0.13950000 0.13949800 11622.06574589 0 387.41178754 0 3274.18609980 0 -456.24621648 0 1178.95900204 0 20506
0.14050000 0.14048300 11573.34751669 0 262.49381894 0 3632.85191765 0 -159.28978654 0 1095.75712442 0 21447
0.14150000 0.14148400 11214.27202282 0 233.73234799 0 3530.47720237 0 247.76209077 0 1122.21333734 0 21771
0.14250000 0.14249400 11041.35552613 0 87.68450832 0 3504.87798739 0 460.01745031 0 1086.36004235 0 22470
0.14350000 0.14350900 11201.53884928 0 -150.57143798 0 3248.69760806 0 618.38823389 0 561.26943185 0 22519
0.14450000 0.14449900 11133.66549814 0 -257.05398576 0 3331.87291210 0 57.77572307 0 79.05352040 0 22218
0.14550000 0.14550500 11354.55837827 0 150.37767229 0 2755.25945252 0 -204.38957999 0 -37.76448898 0 23559
0.14650000 0.14650700 11154.14929906 0 159.55884403 0 3243.38289215 0 -244.39278233 0 674.61792825 0 23044
0.14750000 0.14750500 11093.03006606 0 160.77015637 0 2846.72792785 0 162.76096037 0 656.44159983 0 23649
0.14850000 0.14849900 10960.18431288 0 174.25846246 0 3115.60826374 0 404.04463389 0 728.98082864 0 23640
0.14950000 0.14949500 10703.00742432 0 306.24943216 0 2693.05513169 0 482.57177597 0 345.41335227 0 24457
0.15050000 0.15050000 10448.20001327 0 312.71234816 0 2727.99938882 0 414.32196578 0 978.77247655 0 24591
0.15150000 0.15149900 10106.04303172 0 291.30732982 0 2605.06336636 0 22.85349987 0 523.67113846 0 25020
0.15250000 0.15250500 9869.43852267 0 157.47281804 0 2591.30046661 0 102.04675301 0 877.58803620 0 25297
0.15350000 0.15350100 9693.56571525 0 169.75977689 0 2639.50936887 0 -97.10650312 0 613.29939340 0 25452
0.15450000 0.15450400 9737.11316877 0 29.62389433 0 2671.55267689 0 -190.23914887 0 809.84090956 0 26061
0.15550000 0.15549900 9734.50010011 0 60.48301721 0 2762.82185037 0 81.24351553 0 565.54224199 0 26128
0.15650000 0.15649500 9739.59336953 0 76.65769076 0 2595.56331166 0 -319.99904512 0 244.64855303 0 26331
0.15750000 0.15749700 9622.33744970 0 202.04778329 0 2827.97140961 0 -138.86799064 0 285.93171612 0 27345
0.15850000 0.15849900 9553.51187862 0 181.73892511 0 2938.36248805 0 -372.89264801 0 -130.90256017 0 26980
0.15950000 0.15949700 9245.97805679 0 224.15589426 0 3054.82120049 0 -87.15890506 0 72.67718998 0 27777
0.16050000 0.16050000 9186.56396181 0 190.38641079 0 2807.28830684 0 334.52593528 0 80.65756810 0 28224
0.16150000 0.16150500 9004.95569013 0 94.28826429 0 2895.25792753 0 490.24821876 0 323.57429880 0 28075
0.16250000 0.16249700 9015.26402454 0 48.13394262 0 2667.26768719 0 540.65165580 0 -35.74312536 0 28590
0.16350000 0.16349900 8979.66650025 0 0.13737987 0 2691.56036784 0 102.31138158 0 57.91955257 0 29163
0.16450000 0.16449100 8919.79843995 0 137.68435912 0 2613.33439300 0 -109.70160478 0 690.81563223 0 28996
0.16550000 0.16550500 8856.70833314 0 165.55450792 0 2812.20441906 0 -81.48112762 0 506.39388281 0 30777
0.16650000 0.16650700 8778.12804390 0 77.80821603 0 2760.62953006 0 -86.46666331 0 773.96657715 0 29211
0.16750000 0.16749900 8659.25556464 0 158.71070395 0 2727.50113420 0 284.45466799 0 675.81152486 0 30922
0.16850000 0.16850800 8507.96331832 0 123.03013722 0 2454.50189347 0 117.43861319 0 595.79404786 0 30867
0.16950000 0.16949900 8381.57273052 0 95.08325721 0 2364.40638642 0 304.24644860 0 465.85699442 0 30852
0.17050000 0.17049200 8343.97111543 0 119.53128258 0 2384.67981317 0 71.48071456 0 309.76600252 0 31257
0.17150000 0.17149500 8179.51387490 0 122.56399235 0 2191.99921667 0 69.76727230 0 195.74652324 0 32608
0.17250000 0.17250900 8007.07348818 0 99.51739113 0 2082.57143049 0 117.76413954 0 509.93259783 0 32361
0.17350000 0.17350400 8101.68650375 0 32.29885728 0 2138.12128410 0 290.56991298 0 574.06571764 0 32508
0.17450000 0.17449800 8142.66517791 0 -38.52283251 0 1979.97526872 0 226.93394055 0 677.74253831 0 32791
0.17550000 0.17549800 8073.48529244 0 -3.23968474 0 1952.89236221 0 175.76208417 0 625.07813254 0 33633
0.17650000 0.17650100 8206.77393861 0 8.89047892 0 1771.05157172 0 129.80086385 0 740.65438070 0 33984
0.17750000 0.17750300 8169.77022906 0 54.03792766 0 1875.28643756 0 -5.31600030 0 747.31327684 0 34069
0.17850000 0.17849800 8026.88187728 0 241.14194776 0 1786.80748993 0 -90.16138738 0 589.37320670 0 34536
