### header ###
fiducial parameters:
Omega_m = 0.31
Omega_nu = 0
Omega_de = 0.69
Omega_k = 0
H_0 = 100
w_de = -1
zeff = 0
beta = 0
fgrowth = 0
b_1 = 2
gamma = 0.55
Lx = 3500 Ly = 3500 Lz = 3500
nx = 700 ny = 700 nz = 700
xoffset = -685.467585 yoffset = -31.7331281 zoffset = 572.489161
bins = 400 dk = 0.001
kx_ny = 0.628318531 ky_ny = 0.628318531 kz_ny = 0.628318531
############################
A(data) = 8.04392167 (not used)
A(ran) = 8.04276853 (used)
Ngal = 478144
weighted Ngal = 0
Nran = 23820508
weighted Nran = 0
SN(data) = 3490.04546
SN(ran) = 70.0554307
SN(data+ran) = 3560.10089
############################
13 columns: k_central k_mean P_0(k) sigma^{lin}_{P_0(k)} P^img_1(k) sigma^{lin}_{P_1(k)} P_2(k) sigma^{lin}_{P_2(k)} P^img_3(k) sigma^{lin}_{P_3(k)} P_4(k) sigma^{lin}_{P_4(k)} N_modes
### header ###
0.00050000 0 0 0 0 0 0 0 0 0 0 0 0
0.00150000 0.00179520 24778.86643490 0 -32720.49141107 0 -10223.80827849 0 -23624.68729580 0 30320.34356013 0 3
0.00250000 0.00253879 31193.39637208 0 -13578.21337160 0 -5439.77782178 0 10308.98767332 0 -16834.80554726 0 6
0.00350000 0.00331552 48499.88295662 0 -12423.92350926 0 -11771.09923795 0 -18514.25577575 0 39834.57083030 0 7
0.00450000 0.00420575 50457.24853806 0 -12161.62013430 0 -13726.13963118 0 -9284.03363719 0 16031.61910492 0 24
0.00550000 0.00557378 61205.04351627 0 4089.86212454 0 -15328.74792543 0 -7898.45398171 0 4732.48878469 0 45
0.00650000 0.00659388 65916.42844985 0 -9887.87394350 0 -7229.12087409 0 10314.84493315 0 23378.88168483 0 40
0.00750000 0.00754703 53288.22054769 0 374.66421998 0 -15655.16006108 0 18261.25315365 0 21193.97982836 0 57
0.00850000 0.00846663 59813.69517956 0 -4247.72025948 0 -25431.02636672 0 17146.38076766 0 11253.35732943 0 75
0.00950000 0.00948925 61576.29856744 0 -7110.28161182 0 -13482.10559218 0 3251.93072691 0 -2548.67201606 0 112
0.01050000 0.01054430 63582.16093159 0 1006.71902439 0 -22538.16006135 0 -24085.40673150 0 7105.71981399 0 105
0.01150000 0.01145670 60282.82958213 0 5172.25938183 0 -3096.97354107 0 -19823.66890881 0 6807.79677010 0 144
0.01250000 0.01249090 56534.84763102 0 -401.70505165 0 -4236.62579001 0 -23652.92172409 0 5852.85304379 0 169
0.01350000 0.01339930 65881.10773368 0 -4832.09541876 0 2433.97380326 0 -9163.42280294 0 -10236.76289853 0 180
0.01450000 0.01448870 67354.61272055 0 -4292.64068127 0 816.12445390 0 -9892.51324760 0 -12492.01830689 0 267
0.01550000 0.01550050 67702.17299661 0 -849.27499440 0 5746.25977276 0 273.54399911 0 -25932.71340425 0 238
0.01650000 0.01653350 71003.94025753 0 -413.67423478 0 5733.57088851 0 -11646.31413724 0 -25734.85095974 0 315
0.01750000 0.01747870 72977.80360295 0 2316.56287088 0 14138.69445392 0 -6753.73060801 0 -32689.26745508 0 297
0.01850000 0.01844180 73058.63157412 0 4370.02515942 0 29770.93480263 0 -16560.43333826 0 -15202.41269925 0 388
0.01950000 0.01947590 67960.04744163 0 2573.41866202 0 28051.40275830 0 3563.84918938 0 299.51745867 0 399
0.02050000 0.02045430 71527.77194470 0 -2133.00587004 0 39148.19741479 0 7705.88410846 0 -3113.74811317 0 462
0.02150000 0.02154770 74967.27892636 0 901.10233241 0 40653.14780414 0 15604.67025991 0 4154.82345425 0 571
0.02250000 0.02255340 70952.67539362 0 3051.54379234 0 32435.60049349 0 12525.34600460 0 -6312.25487284 0 510
0.02350000 0.02348930 71056.75524691 0 2174.81496855 0 26110.64566408 0 9498.37170103 0 -2159.80089610 0 555
0.02450000 0.02439640 66747.73859724 0 354.82372114 0 19429.71559176 0 5394.15984352 0 -3241.13521021 0 592
0.02550000 0.02547300 68170.31088994 0 2373.52998207 0 13060.13929334 0 1543.82532179 0 -11391.98283616 0 837
0.02650000 0.02652900 64188.03854566 0 534.39357781 0 9025.93774566 0 1090.46233869 0 -1062.78484835 0 723
0.02750000 0.02749970 66165.44503503 0 2671.06549460 0 7978.65083037 0 -2022.70337020 0 -9445.16918027 0 826
0.02850000 0.02848090 64058.60306853 0 472.40516732 0 6573.05241161 0 144.01662168 0 3434.30298900 0 831
0.02950000 0.02946900 62056.17312508 0 299.83634162 0 11642.21737706 0 2906.34132467 0 -498.74622806 0 996
0.03050000 0.03053250 63424.15885643 0 1206.65088641 0 22518.34059992 0 -1634.49658973 0 3608.61459862 0 1041
0.03150000 0.03150510 62884.16157502 0 4640.24524662 0 24938.19718904 0 -1636.71105469 0 1709.01333576 0 1036
0.03250000 0.03246190 57620.26763299 0 3704.86631827 0 20767.36315310 0 -3468.48325571 0 6055.93055328 0 1059
0.03350000 0.03345080 55065.43940433 0 3835.74119762 0 32402.60496553 0 3017.05350053 0 9830.20927584 0 1302
0.03450000 0.03451200 53420.09193628 0 1165.81615248 0 24037.46356504 0 8375.85941091 0 8720.43015927 0 1339
0.03550000 0.03553350 50553.79921048 0 -1438.40571719 0 18974.31087197 0 13172.19122050 0 2272.83826017 0 1365
0.03650000 0.03647120 52018.55706074 0 -1252.16921374 0 11097.56971923 0 7628.06780963 0 72.69789523 0 1308
0.03750000 0.03744890 52431.77622297 0 -917.22142288 0 13862.43994970 0 37.77478624 0 -843.69786439 0 1579
0.03850000 0.03847530 52707.36638771 0 1266.86218878 0 10469.21528577 0 -660.45199587 0 -295.36201516 0 1662
0.03950000 0.03950240 49126.90871110 0 3155.55721169 0 13216.36979653 0 -3871.25014332 0 4224.20264156 0 1683
0.04050000 0.04050350 48873.79536575 0 5205.12204190 0 15808.62248307 0 -3455.36255080 0 3312.70671784 0 1822
0.04150000 0.04152450 45317.47535724 0 2419.40262380 0 17524.27921372 0 -3966.37248583 0 3802.14776412 0 1887
0.04250000 0.04250150 42949.10507854 0 2992.57259036 0 20078.33237964 0 -208.90265959 0 221.36123947 0 1920
0.04350000 0.04349210 39726.17277032 0 1097.99262680 0 18881.96768298 0 1433.82177472 0 3006.95554030 0 2005
0.04450000 0.04448520 40828.42270602 0 -1593.06395026 0 18488.56798218 0 10088.83663895 0 -33.01822623 0 2151
0.04550000 0.04548030 41446.59060065 0 -2226.75524428 0 12619.57148880 0 6545.75913094 0 2068.67566284 0 2274
0.04650000 0.04648670 43238.09275630 0 -153.75030243 0 10991.54113677 0 6750.58606776 0 465.72966268 0 2311
0.04750000 0.04749250 41876.86114310 0 2521.13514423 0 10354.39527741 0 -1077.14233194 0 5065.59967686 0 2568
0.04850000 0.04851840 39995.45170991 0 3438.92014845 0 11452.32700642 0 -2067.12553737 0 6722.97168966 0 2493
0.04950000 0.04949480 37910.97583956 0 1668.27825275 0 14897.92376674 0 -2683.74330652 0 8838.72687763 0 2644
0.05050000 0.05050630 36426.17708138 0 1519.23368837 0 16856.17513416 0 -2287.21013779 0 6775.97490857 0 2829
0.05150000 0.05149060 36480.54219623 0 745.33797410 0 17444.55847503 0 1244.50716497 0 4499.12846681 0 2784
0.05250000 0.05249300 36406.80051294 0 -1559.83590348 0 15317.12198437 0 4500.97754505 0 9238.23850174 0 3055
0.05350000 0.05348950 37601.39363763 0 -1305.80355516 0 14633.51665007 0 1413.43762472 0 4192.43614166 0 3009
0.05450000 0.05448610 38010.73748617 0 -138.32212503 0 13572.01286970 0 2920.42532184 0 2429.73310285 0 3336
0.05550000 0.05550870 38661.45801576 0 672.10229605 0 13101.88195790 0 -197.31436443 0 4314.10991909 0 3349
0.05650000 0.05647670 38419.85988822 0 455.44347293 0 12827.50974890 0 -498.32437249 0 3870.17612781 0 3324
0.05750000 0.05747970 37699.49443552 0 413.95215013 0 13644.31515077 0 -348.84909467 0 1629.91264725 0 3639
0.05850000 0.05849280 36951.55889402 0 1687.10120494 0 13971.61307241 0 -824.89816408 0 -460.73493696 0 3846
0.05950000 0.05951020 35824.39622748 0 1284.03536457 0 14252.18578331 0 -556.13187313 0 -242.10856172 0 3787
0.06050000 0.06049470 35051.21578540 0 545.07615680 0 13424.97239611 0 1220.55772638 0 -2030.70866104 0 3930
0.06150000 0.06148310 34264.63783028 0 454.34177661 0 12397.79282269 0 879.06840602 0 -3295.10172138 0 4083
0.06250000 0.06249100 33911.43066856 0 -81.70091326 0 11390.87560368 0 1832.66905933 0 -5114.77187138 0 4303
0.06350000 0.06350600 32967.73642427 0 1412.43004317 0 11907.73172621 0 799.08968216 0 -2037.61779173 0 4470
0.06450000 0.06451750 32984.34491150 0 1223.94585778 0 11301.41121914 0 178.69846471 0 -507.36714016 0 4479
0.06550000 0.06550280 31241.89315479 0 517.16614763 0 12349.84965622 0 643.70289012 0 665.04701067 0 4636
0.06650000 0.06648880 30955.00921874 0 1033.79196581 0 11895.44144566 0 124.86482144 0 719.10099321 0 4653
0.06750000 0.06749660 30578.88234465 0 422.09030888 0 15002.44651302 0 843.29372454 0 2111.97952521 0 5220
0.06850000 0.06852730 29677.59510441 0 216.65771589 0 13015.62854757 0 1903.02261123 0 2530.61305428 0 5029
0.06950000 0.06949320 29749.78666223 0 771.71225182 0 12774.80548276 0 1789.77487299 0 1844.30607272 0 5040
0.07050000 0.07048030 29215.21481998 0 342.66852295 0 9877.51024747 0 1224.24481055 0 157.15836401 0 5475
0.07150000 0.07148790 28150.27861893 0 103.68113888 0 9273.26026514 0 298.21646050 0 -157.42299257 0 5509
0.07250000 0.07249820 28038.55886151 0 566.74469647 0 7270.71959844 0 1063.36503817 0 -1998.18924305 0 5916
0.07350000 0.07351270 27927.72489007 0 -14.49489114 0 6415.41572317 0 197.21692797 0 -1412.88400848 0 5721
0.07450000 0.07449140 27377.87323958 0 167.16110225 0 6493.43132384 0 40.93250256 0 -4265.28096664 0 6028
0.07550000 0.07549160 27338.67720972 0 939.66170359 0 7420.81603368 0 657.93193475 0 -3802.73459734 0 6183
0.07650000 0.07648840 26924.90443125 0 1077.79449187 0 8061.68219418 0 -961.63805389 0 -3281.30560466 0 6330
0.07750000 0.07749960 25795.41657650 0 927.77002674 0 8530.51764398 0 -624.28313962 0 -1617.52271578 0 6583
0.07850000 0.07848650 25892.96375815 0 453.95978140 0 9124.91325722 0 628.22378003 0 -625.11024229 0 6549
0.07950000 0.07947320 25171.93396596 0 413.09515219 0 9896.94217752 0 801.62856624 0 -885.84245435 0 6828
0.08050000 0.08048110 25029.43314554 0 82.27169161 0 9352.38309829 0 -54.35581411 0 -1039.53518069 0 7147
0.08150000 0.08149960 24628.06137087 0 407.30211185 0 9091.23124512 0 397.96482033 0 -2250.95934633 0 7386
0.08250000 0.08250610 24050.52890833 0 997.57439133 0 8932.84163859 0 -39.91052698 0 -1510.22081596 0 7227
0.08350000 0.08350160 23353.30461450 0 222.15512516 0 8847.10862752 0 -0.25686022 0 -1882.73811216 0 7798
0.08450000 0.08449610 23289.74947004 0 166.47683258 0 7883.84958527 0 586.74574402 0 -2663.66918162 0 7371
0.08550000 0.08548940 22863.35424127 0 379.23598290 0 8509.80132424 0 393.59125203 0 -1581.42693687 0 8256
0.08650000 0.08650700 22666.48830600 0 660.89821057 0 8736.80612767 0 -161.32487984 0 -1785.45666631 0 8037
0.08750000 0.08749060 22168.23368916 0 601.39110806 0 8623.66911268 0 221.09882537 0 -858.49381205 0 8155
0.08850000 0.08849210 21888.76821073 0 506.97517987 0 8619.89344991 0 376.75467491 0 -2378.65646846 0 8718
0.08950000 0.08949900 21211.91699457 0 642.07636561 0 9021.81884083 0 721.52361788 0 -1397.83671905 0 8571
0.09050000 0.09049190 20939.31635753 0 611.66401103 0 8428.44188148 0 914.51645393 0 -1715.33563323 0 8932
0.09150000 0.09150830 20304.09708269 0 0.85644100 0 7241.34472069 0 1145.00018182 0 -438.22600783 0 9285
0.09250000 0.09250820 20124.39325088 0 358.56395246 0 7601.37243450 0 1449.37839109 0 169.63798131 0 9204
0.09350000 0.09350330 19968.16274769 0 -160.75797681 0 6523.18266063 0 1313.67597811 0 -977.72060569 0 9349
0.09450000 0.09448040 19672.19950529 0 224.87005921 0 6377.45979369 0 1337.75828459 0 -147.29181537 0 9564
0.09550000 0.09549270 19580.85282554 0 200.90511937 0 4761.84151778 0 449.79326557 0 -328.12280984 0 10155
0.09650000 0.09649430 19193.32145688 0 390.28616307 0 5203.36154225 0 138.36419986 0 -597.37960478 0 9913
0.09750000 0.09749140 18482.47820353 0 775.80458307 0 4944.88919168 0 -764.67689663 0 -960.86299116 0 10476
0.09850000 0.09850240 18331.89458599 0 712.26826156 0 4885.91798970 0 -393.29783542 0 -668.40524679 0 10575
0.09950000 0.09950330 17207.27855416 0 276.33976113 0 4365.65159112 0 69.41362224 0 -468.19879112 0 10882
0.10050000 0.10051200 17867.74272959 0 -22.87409440 0 4760.36889858 0 437.63696015 0 -1336.77284768 0 10875
0.10150000 0.10150300 17598.57451325 0 161.29719903 0 4591.83704252 0 165.68626859 0 -1564.68558175 0 11118
0.10250000 0.10250800 17045.51188856 0 653.44099980 0 4831.65252576 0 -113.57215736 0 -1249.27933696 0 11575
0.10350000 0.10349800 16801.81001930 0 403.78886318 0 5204.86737842 0 174.04365936 0 18.25294891 0 11364
0.10450000 0.10450100 16406.74946977 0 185.64745577 0 5603.29391470 0 89.00078629 0 723.21989804 0 12093
0.10550000 0.10551000 16827.82998263 0 46.69952294 0 5440.86290961 0 554.13996190 0 752.26703497 0 12067
0.10650000 0.10649700 16603.61540505 0 52.89592808 0 5435.21602395 0 582.10754716 0 907.28179689 0 12054
0.10750000 0.10749900 16426.12603821 0 204.56895165 0 4860.57343819 0 -72.95200509 0 361.78267729 0 12807
0.10850000 0.10850100 16175.55932756 0 447.75152888 0 5727.33716964 0 -133.58427724 0 167.97934706 0 12736
0.10950000 0.10950300 15608.43485035 0 731.63486490 0 5649.15548410 0 -37.25715506 0 561.59606543 0 12933
0.11050000 0.11050200 14959.92878572 0 467.23439163 0 4967.99713358 0 337.32612623 0 547.03817276 0 13428
0.11150000 0.11150900 14753.98354409 0 159.39940255 0 5397.69191514 0 174.21860209 0 -240.48092997 0 13453
0.11250000 0.11250000 14861.27437159 0 104.52307846 0 5248.20445776 0 307.14850493 0 687.20051817 0 13668
0.11350000 0.11349100 14614.80442112 0 -29.32272709 0 5391.38068999 0 -52.82672605 0 773.58568917 0 13791
0.11450000 0.11448600 14928.92627623 0 -186.49448862 0 4940.32739386 0 450.31366484 0 822.01160900 0 14205
0.11550000 0.11549300 14977.20161244 0 -90.39534561 0 5250.54071830 0 477.66562884 0 966.54087932 0 14776
0.11650000 0.11649800 14846.54817958 0 455.70477979 0 4911.69436188 0 -115.68032801 0 506.34627182 0 14553
0.11750000 0.11747300 14681.45981653 0 330.46017761 0 5203.26189133 0 9.58856686 0 1331.51349339 0 14568
0.11850000 0.11849100 14302.89703098 0 200.83425649 0 5257.44984899 0 38.30315758 0 767.29882314 0 16015
0.11950000 0.11950300 14211.77179773 0 -14.90722452 0 5022.77192446 0 696.99177501 0 975.69437025 0 15270
0.12050000 0.12050700 14213.32192320 0 218.88546764 0 5301.34054457 0 741.06516395 0 1101.12388026 0 15999
0.12150000 0.12150000 14185.64111115 0 256.36860885 0 4499.03988821 0 188.20516280 0 1155.17564833 0 15670
0.12250000 0.12250700 13675.76055325 0 192.50233206 0 4804.55854693 0 536.96900057 0 1105.11545336 0 16887
0.12350000 0.12352200 13876.50180222 0 264.18899187 0 4784.67265156 0 81.47758447 0 1698.07387884 0 16407
0.12450000 0.12449800 13443.57390181 0 217.04524726 0 4980.29848645 0 -131.58461538 0 1612.09727662 0 16306
0.12550000 0.12549900 13472.80483933 0 215.41872274 0 4627.29062658 0 -72.02436571 0 1911.86939876 0 17523
0.12650000 0.12650100 13232.31394427 0 -154.81213838 0 4955.46326188 0 506.77366355 0 1482.40713602 0 17154
0.12750000 0.12750600 13626.71015431 0 -26.41004133 0 5014.98808011 0 240.81309971 0 1371.27421181 0 18007
0.12850000 0.12850300 13496.27816794 0 85.04254090 0 4648.28375444 0 41.16446776 0 1248.94716722 0 17496
0.12950000 0.12949900 13093.79916079 0 550.41080290 0 4741.47951244 0 131.94668040 0 1471.52304072 0 18405
0.13050000 0.13049000 12847.99354981 0 398.43428690 0 4237.02439370 0 28.61819507 0 1828.99304749 0 18100
0.13150000 0.13148800 12618.79642607 0 86.82097771 0 4514.20897321 0 309.92876570 0 1524.85842937 0 19059
0.13250000 0.13249300 12422.37338378 0 139.42271412 0 4281.55728412 0 316.62752221 0 1424.31064770 0 18957
0.13350000 0.13349100 12480.83525883 0 -7.85250383 0 4184.82945451 0 366.72425585 0 1570.13316556 0 19468
0.13450000 0.13450700 12409.52948699 0 -108.21481300 0 3730.96378787 0 582.26920310 0 1233.51234642 0 19953
0.13550000 0.13551000 12486.14997474 0 37.73791540 0 3569.37427946 0 558.77372983 0 1092.90046462 0 19956
0.13650000 0.13649900 12341.76685910 0 38.19398446 0 3272.82420384 0 611.59314815 0 1125.49074549 0 19723
0.13750000 0.13749600 12197.38374347 0 440.81471738 0 3242.67426336 0 -10.72883916 0 1042.91334699 0 20946
0.13850000 0.13851100 11873.07534953 0 483.93588638 0 3178.96410636 0 -323.13694197 0 950.24573889 0 20955
0.13950000 0.13949800 11331.08504966 0 550.31336644 0 3579.72690317 0 -119.05074368 0 1708.33792394 0 20506
0.14050000 0.14048300 11252.13937370 0 104.85768411 0 3356.82993224 0 -46.57706303 0 1296.53601929 0 21447
0.14150000 0.14148400 11177.29045793 0 -89.91912491 0 3694.48047759 0 67.67604231 0 690.55875429 0 21771
0.14250000 0.14249400 11223.57277567 0 142.16090004 0 3861.68365467 0 -275.16720193 0 -18.88540010 0 22470
0.14350000 0.14350900 10908.67585783 0 312.05908099 0 3732.29246684 0 -655.57795849 0 -233.26509588 0 22519
0.14450000 0.14449900 10749.10151254 0 357.42350301 0 3929.02553422 0 -440.88779472 0 137.22707210 0 22218
0.14550000 0.14550500 10659.55962173 0 59.37943860 0 4334.48299676 0 -81.73977712 0 52.13990974 0 23559
0.14650000 0.14650700 10555.24724962 0 132.82693022 0 3876.93024595 0 586.33053184 0 210.73845104 0 23044
0.14750000 0.14750500 10546.47796836 0 5.91473627 0 3956.63991232 0 666.98356029 0 -0.86295042 0 23649
0.14850000 0.14849900 10545.65861632 0 -52.66972048 0 3464.34220623 0 587.56177436 0 209.92574240 0 23640
0.14950000 0.14949500 10447.31422728 0 282.03647225 0 3649.70399602 0 273.65804406 0 318.78330385 0 24457
0.15050000 0.15050000 10186.90421987 0 401.53010892 0 3448.49770942 0 120.95296909 0 708.10728189 0 24591
0.15150000 0.15149900 9911.74587581 0 158.83139229 0 3396.98925436 0 56.12738608 0 699.44318772 0 25020
0.15250000 0.15250500 9642.19012810 0 156.78079773 0 3544.53905489 0 17.25909703 0 901.82756969 0 25297
0.15350000 0.15350100 9735.48553702 0 193.64499599 0 3534.03141864 0 133.69167879 0 752.83504523 0 25452
0.15450000 0.15450400 9644.74783513 0 -31.40963888 0 3300.21713545 0 312.67027332 0 909.89043662 0 26061
0.15550000 0.15549900 9492.94626186 0 -88.42989723 0 3215.56921221 0 107.75287561 0 809.41019613 0 26128
0.15650000 0.15649500 9600.58033143 0 137.02887749 0 3108.07908287 0 78.51374457 0 546.94073630 0 26331
0.15750000 0.15749700 9527.70228947 0 171.12831623 0 3296.41932803 0 -102.81716537 0 667.56042841 0 27345
0.15850000 0.15849900 9300.21030375 0 165.73277235 0 3164.48150549 0 -156.53056319 0 457.45863604 0 26980
0.15950000 0.15949700 9378.19268744 0 -8.49827503 0 3187.55623042 0 -20.86479961 0 479.78265734 0 27777
0.16050000 0.16050000 9411.75290397 0 -83.57169327 0 3281.89243787 0 41.91982176 0 -173.42693087 0 28224
0.16150000 0.16150500 9461.65587193 0 -7.36113620 0 3063.47975850 0 217.66308298 0 82.83892681 0 28075
0.16250000 0.16249700 9401.99818580 0 60.27596474 0 2785.61976717 0 101.24146283 0 -85.06966809 0 28590
0.16350000 0.16349900 9340.73501258 0 177.76838943 0 2854.42319360 0 186.82001497 0 181.62155847 0 29163
0.16450000 0.16449100 9201.76626378 0 264.09930604 0 2786.36161294 0 222.55926502 0 437.86837174 0 28996
0.16550000 0.16550500 8908.61539189 0 279.95376795 0 2716.39559241 0 280.94474102 0 316.52344236 0 30777
0.16650000 0.16650700 8733.93839555 0 153.04278088 0 2749.97795358 0 299.35248103 0 938.80470565 0 29211
0.16750000 0.16749900 8509.98955376 0 150.82499421 0 2575.04629377 0 240.31595233 0 733.84932987 0 30922
0.16850000 0.16850800 8565.81621550 0 40.57364851 0 2527.81175610 0 194.92827843 0 847.31630014 0 30867
0.16950000 0.16949900 8487.81168715 0 -6.24191239 0 2414.06576324 0 253.48869717 0 631.11587127 0 30852
0.17050000 0.17049200 8513.92022908 0 56.18939110 0 2311.51389076 0 45.05583632 0 744.95487166 0 31257
0.17150000 0.17149500 8346.00842320 0 185.04733576 0 2152.49316172 0 201.48752365 0 868.83093450 0 32608
0.17250000 0.17250900 8313.86546425 0 91.64629686 0 1814.57688058 0 287.24710831 0 754.72619831 0 32361
0.17350000 0.17350400 8118.48322050 0 -1.67214249 0 1659.74149032 0 337.92071007 0 670.85998120 0 32508
0.17450000 0.17449800 8212.43189659 0 14.57494405 0 1687.09013262 0 219.53319864 0 217.73837479 0 32791
0.17550000 0.17549800 7985.46031013 0 285.18101249 0 1646.13360311 0 -206.42578052 0 336.94966718 0 33633
0.17650000 0.17650100 7904.79842383 0 239.38144811 0 1865.31027290 0 -495.75891482 0 498.52699603 0 33984
0.17750000 0.17750300 7719.51414031 0 116.21512130 0 1970.49735868 0 -293.57937087 0 554.40126876 0 34069
0.17850000 0.17849800 7747.11744608 0 104.89134398 0 2210.76680724 0 -117.92800995 0 224.72169005 0 34536
