### header ###
fiducial parameters:
Omega_m = 0.31
Omega_nu = 0
Omega_de = 0.69
Omega_k = 0
H_0 = 100
w_de = -1
zeff = 0
beta = 0
fgrowth = 0
b_1 = 2
gamma = 0.55
Lx = 3500 Ly = 3500 Lz = 3500
nx = 700 ny = 700 nz = 700
xoffset = -685.467585 yoffset = -31.7331281 zoffset = 572.489161
bins = 400 dk = 0.001
kx_ny = 0.628318531 ky_ny = 0.628318531 kz_ny = 0.628318531
############################
A(data) = 7.96829807 (not used)
A(ran) = 7.96133261 (used)
Ngal = 473393
weighted Ngal = 0
Nran = 23820508
weighted Nran = 0
SN(data) = 3495.3475
SN(ran) = 69.3460944
SN(data+ran) = 3564.6936
############################
13 columns: k_central k_mean P_0(k) sigma^{lin}_{P_0(k)} P^img_1(k) sigma^{lin}_{P_1(k)} P_2(k) sigma^{lin}_{P_2(k)} P^img_3(k) sigma^{lin}_{P_3(k)} P_4(k) sigma^{lin}_{P_4(k)} N_modes
### header ###
0.00050000 0 0 0 0 0 0 0 0 0 0 0 0
0.00150000 0.00179520 20945.51685943 0 -34986.66413170 0 -28344.15502650 0 41545.57718452 0 31302.90166454 0 3
0.00250000 0.00253879 37125.50511692 0 -37930.68457773 0 -9723.16203949 0 -48390.04549442 0 10421.22783001 0 6
0.00350000 0.00331552 55460.27850737 0 -29438.21144183 0 -33603.06642237 0 -10116.03026871 0 -26221.81180526 0 7
0.00450000 0.00420575 73009.58117518 0 -15432.05271599 0 -15676.97254098 0 -28176.29858225 0 19934.83504999 0 24
0.00550000 0.00557378 66181.61062926 0 4711.13027011 0 -16182.31344570 0 -8934.89001868 0 21276.35792501 0 45
0.00650000 0.00659388 72963.52030393 0 12565.09565070 0 13102.65702064 0 -4823.42578842 0 11413.68459281 0 40
0.00750000 0.00754703 61741.38693049 0 5630.77542490 0 -596.29451695 0 2697.74979741 0 8168.85122610 0 57
0.00850000 0.00846663 66054.94323334 0 -3606.61050783 0 11186.81265727 0 -2606.38097301 0 4579.13708595 0 75
0.00950000 0.00948925 71497.54449794 0 -8808.15618881 0 13152.59320557 0 16300.34442827 0 12288.73042322 0 112
0.01050000 0.01054430 81520.65581677 0 -7613.66271505 0 19866.74025235 0 3667.61901758 0 14809.01299844 0 105
0.01150000 0.01145670 81458.87224428 0 4398.77998698 0 15525.94603045 0 3289.79807779 0 8675.01148286 0 144
0.01250000 0.01249090 87247.48365947 0 7000.68774076 0 16029.84753295 0 -5011.53351477 0 7615.24605749 0 169
0.01350000 0.01339930 63310.88897353 0 13996.19363351 0 17468.03180364 0 -10979.60517061 0 -5812.32833495 0 180
0.01450000 0.01448870 64955.23993235 0 14945.86693320 0 30447.89674204 0 -24075.33091592 0 -18748.10327592 0 267
0.01550000 0.01550050 52185.63844225 0 6954.95903926 0 33738.25950840 0 -8834.51939420 0 -13287.67556836 0 238
0.01650000 0.01653350 49096.45981785 0 -5496.22453370 0 33904.45510393 0 -3293.69553613 0 -36231.96850406 0 315
0.01750000 0.01747870 57449.97527728 0 -10772.77414300 0 27379.31264180 0 1963.66573426 0 -50309.54372498 0 297
0.01850000 0.01844180 70481.99086558 0 -9449.70883345 0 32292.43533358 0 4447.25462503 0 -53961.63934316 0 388
0.01950000 0.01947590 72786.47383008 0 3273.70998983 0 24729.37314296 0 6381.00293764 0 -28871.52985761 0 399
0.02050000 0.02045430 66877.94913711 0 1128.80137061 0 14841.01201717 0 8282.94046103 0 -14038.48991431 0 462
0.02150000 0.02154770 70404.92748484 0 -1708.43757487 0 17672.42691979 0 25957.62613509 0 -3752.67661683 0 571
0.02250000 0.02255340 68319.23365875 0 -2562.26883093 0 9627.65216561 0 11152.59917358 0 8834.68547907 0 510
0.02350000 0.02348930 71263.14338153 0 46.88863825 0 18022.75527706 0 12144.90092383 0 3454.73142829 0 555
0.02450000 0.02439640 73143.44558223 0 964.24115746 0 3714.79819363 0 -7956.27366191 0 11862.99953395 0 592
0.02550000 0.02547300 72259.98478495 0 3809.43335386 0 15090.58221858 0 -9010.14861047 0 18558.32362853 0 837
0.02650000 0.02652900 68895.88033530 0 674.64228736 0 17419.42429769 0 -16356.37039185 0 23260.62925576 0 723
0.02750000 0.02749970 67666.07721770 0 2869.83586974 0 22689.74018811 0 8998.75518823 0 -394.17697801 0 826
0.02850000 0.02848090 64470.93644478 0 4796.52003911 0 21077.60969452 0 5367.78556581 0 18.77467686 0 831
0.02950000 0.02946900 56284.17019712 0 4816.67167028 0 19507.99692823 0 439.82928047 0 -6117.43731765 0 996
0.03050000 0.03053250 53054.81594051 0 6619.47866958 0 16202.13290713 0 1675.40882993 0 -2116.18700864 0 1041
0.03150000 0.03150510 48452.05051340 0 3571.99842044 0 18110.22664312 0 1642.91155659 0 -300.45085565 0 1036
0.03250000 0.03246190 45164.45582825 0 810.25169281 0 17391.07914615 0 970.03087611 0 3008.77140157 0 1059
0.03350000 0.03345080 47835.87563725 0 -148.88290844 0 19454.62832260 0 4437.28953270 0 1191.04998074 0 1302
0.03450000 0.03451200 47341.27488760 0 -70.65217250 0 19016.93932252 0 3399.02656213 0 -1547.24667016 0 1339
0.03550000 0.03553350 48796.73198501 0 -872.40840265 0 18137.24311568 0 1106.07431669 0 1785.24629213 0 1365
0.03650000 0.03647120 48885.64275330 0 -1311.87118916 0 18952.94128507 0 2100.22071625 0 4949.15203674 0 1308
0.03750000 0.03744890 50324.60208673 0 -1464.66927166 0 17483.09016539 0 5803.18259465 0 -964.33416499 0 1579
0.03850000 0.03847530 50021.88472619 0 707.07423399 0 11378.25315339 0 3506.72706564 0 -5284.63240642 0 1662
0.03950000 0.03950240 47646.20671310 0 2645.31126707 0 10401.51909183 0 2136.40507376 0 -4391.79335002 0 1683
0.04050000 0.04050350 46554.36476274 0 3671.00714897 0 12436.65668280 0 -2697.52835092 0 -920.91957937 0 1822
0.04150000 0.04152450 45032.69516291 0 590.77053409 0 9182.38969535 0 -2402.16301405 0 -3349.75471668 0 1887
0.04250000 0.04250150 42287.64439387 0 1229.24950137 0 13330.74691191 0 921.76329052 0 5523.93856272 0 1920
0.04350000 0.04349210 43845.63121910 0 724.68587385 0 9427.12129082 0 660.76312820 0 -7055.51789326 0 2005
0.04450000 0.04448520 44336.57810156 0 -862.69908101 0 11191.57375694 0 2465.85102641 0 -1900.40954257 0 2151
0.04550000 0.04548030 43194.13562677 0 603.02649044 0 11939.84146819 0 -2019.95743364 0 -5346.46026821 0 2274
0.04650000 0.04648670 41429.76066692 0 2545.75999463 0 12409.86165674 0 122.03584245 0 -3611.93629607 0 2311
0.04750000 0.04749250 39652.76325678 0 3137.13286319 0 13505.46819754 0 -1836.19005863 0 -3329.60308551 0 2568
0.04850000 0.04851840 37119.19389177 0 3192.52770426 0 14093.51936866 0 -1861.06957249 0 -5535.42056356 0 2493
0.04950000 0.04949480 35103.69860504 0 2142.26233359 0 16779.77609291 0 -821.19779313 0 -2557.64059916 0 2644
0.05050000 0.05050630 33092.74297147 0 2528.88577160 0 15035.44204098 0 1649.76532565 0 -687.41532127 0 2829
0.05150000 0.05149060 32609.87888613 0 642.49822118 0 14169.80768666 0 3565.32180858 0 2394.68919480 0 2784
0.05250000 0.05249300 32952.89950901 0 -2559.58932833 0 14316.07309752 0 4565.62884967 0 315.37413504 0 3055
0.05350000 0.05348950 35180.09764628 0 -2729.41664639 0 12479.17441010 0 5605.40872874 0 -431.30359036 0 3009
0.05450000 0.05448610 35814.20968865 0 -948.57271061 0 11409.03421638 0 2559.10214603 0 -2295.00505446 0 3336
0.05550000 0.05550870 36882.13541741 0 620.24063383 0 9907.31694588 0 -1539.67319998 0 -514.17551270 0 3349
0.05650000 0.05647670 36094.33950656 0 698.21637413 0 11290.89251057 0 -3431.35775060 0 1286.44913138 0 3324
0.05750000 0.05747970 35872.00722420 0 1139.84047846 0 11919.80056027 0 -851.34330468 0 1843.95175832 0 3639
0.05850000 0.05849280 34878.81968797 0 1392.63272639 0 12558.34153256 0 -122.74447124 0 2747.48668050 0 3846
0.05950000 0.05951020 33214.53854448 0 1826.78965485 0 12710.25382907 0 2332.03090865 0 657.89982500 0 3787
0.06050000 0.06049470 32424.63889192 0 727.44952612 0 11192.79171267 0 1511.53842262 0 1037.91419234 0 3930
0.06150000 0.06148310 31714.79214779 0 203.43514559 0 10392.55050873 0 2496.46600454 0 -21.22930054 0 4083
0.06250000 0.06249100 31684.12180805 0 72.90838013 0 12542.50810807 0 26.76723453 0 -882.68573454 0 4303
0.06350000 0.06350600 31183.87417274 0 684.00283076 0 10875.73569149 0 -289.11833120 0 1030.98070254 0 4470
0.06450000 0.06451750 31093.08110923 0 689.65968151 0 12052.66845809 0 -203.22477142 0 2669.03925916 0 4479
0.06550000 0.06550280 31108.36091748 0 11.57976947 0 11126.46848701 0 -291.48005808 0 396.15781692 0 4636
0.06650000 0.06648880 29732.73528201 0 693.98010266 0 11431.73248226 0 1168.29635324 0 752.73982324 0 4653
0.06750000 0.06749660 29300.13955134 0 1213.91433149 0 10036.16558979 0 2153.07999493 0 -1309.10310796 0 5220
0.06850000 0.06852730 28781.95474983 0 63.59135096 0 9428.15101703 0 1501.78370445 0 -1130.27398981 0 5029
0.06950000 0.06949320 28221.25222101 0 -342.12376457 0 7960.70259184 0 684.70370893 0 -2682.94609913 0 5040
0.07050000 0.07048030 28221.91656050 0 1047.49507500 0 7444.13434975 0 865.86687314 0 -2582.68619790 0 5475
0.07150000 0.07148790 27431.35256845 0 933.67046863 0 6096.48847910 0 -216.96109759 0 -3135.53844842 0 5509
0.07250000 0.07249820 26906.52437205 0 -225.44803456 0 6637.06152139 0 680.29470918 0 -3272.17093668 0 5916
0.07350000 0.07351270 26793.91882864 0 313.38997443 0 6653.02781378 0 296.63865422 0 -4103.21534827 0 5721
0.07450000 0.07449140 26561.40000745 0 1126.64226727 0 8196.25523003 0 -1304.09841714 0 -700.89366228 0 6028
0.07550000 0.07549160 25956.74034910 0 572.40486892 0 8901.18586193 0 147.91629448 0 545.66409725 0 6183
0.07650000 0.07648840 26431.63236058 0 -92.58921604 0 10110.73769745 0 1254.25081081 0 4099.82721687 0 6330
0.07750000 0.07749960 26165.89656493 0 66.02172626 0 8991.73533430 0 2537.05714732 0 4522.34713195 0 6583
0.07850000 0.07848650 25936.36727144 0 408.04506484 0 9953.77642082 0 2297.88385891 0 5369.31354663 0 6549
0.07950000 0.07947320 25771.05746190 0 1057.35719472 0 9479.34944699 0 994.22279860 0 5561.97199848 0 6828
0.08050000 0.08048110 24601.04489831 0 731.92385258 0 8836.91101636 0 436.75228140 0 6259.97135504 0 7147
0.08150000 0.08149960 24135.45363969 0 441.17456793 0 8963.14659162 0 216.26686282 0 5623.84414956 0 7386
0.08250000 0.08250610 23670.30527405 0 212.03944921 0 7611.65862425 0 -228.94467474 0 4429.61641160 0 7227
0.08350000 0.08350160 23525.14709568 0 -49.18946735 0 7350.16352901 0 -49.19699653 0 854.37158552 0 7798
0.08450000 0.08449610 23469.56402509 0 549.67781499 0 6999.12654296 0 -1460.27355871 0 1537.68018151 0 7371
0.08550000 0.08548940 22484.57000923 0 820.79033157 0 6914.48969205 0 46.92905223 0 -427.32087512 0 8256
0.08650000 0.08650700 22283.05369753 0 650.03515269 0 6995.04085510 0 43.85803222 0 71.53496896 0 8037
0.08750000 0.08749060 21656.02794305 0 499.59436814 0 6919.17328545 0 816.17870829 0 -419.98545993 0 8155
0.08850000 0.08849210 21318.32203608 0 183.19161412 0 6780.54777872 0 929.24486040 0 -86.53497956 0 8718
0.08950000 0.08949900 21044.83561306 0 223.14277654 0 6278.00817217 0 1018.42690066 0 -210.45832122 0 8571
0.09050000 0.09049190 20812.42751511 0 283.46480215 0 5894.00887514 0 -377.66039108 0 -237.66080884 0 8932
0.09150000 0.09150830 20647.44987532 0 435.72144796 0 6001.63187237 0 489.28603374 0 145.06627808 0 9285
0.09250000 0.09250820 19943.02857035 0 666.65914117 0 5412.88314479 0 -1065.76108926 0 -452.08191511 0 9204
0.09350000 0.09350330 19655.48029481 0 460.59874736 0 5851.42471388 0 75.03515228 0 -1458.30268489 0 9349
0.09450000 0.09448040 19355.64173872 0 323.39935607 0 5964.59494586 0 -297.18894876 0 -1425.38466320 0 9564
0.09550000 0.09549270 18652.65983599 0 787.38291313 0 6039.91997160 0 -340.79065666 0 -1658.41281134 0 10155
0.09650000 0.09649430 18818.41253852 0 385.88048502 0 6290.20987412 0 257.20678384 0 -1557.52178759 0 9913
0.09750000 0.09749140 17824.67138605 0 212.29300545 0 6650.92407206 0 179.65622081 0 -802.77676633 0 10476
0.09850000 0.09850240 17852.79509109 0 353.75413456 0 6666.63570098 0 759.56923319 0 -307.69104885 0 10575
0.09950000 0.09950330 17933.06944602 0 258.66722348 0 6804.30898778 0 906.73482405 0 137.42194502 0 10882
0.10050000 0.10051200 17426.62130882 0 275.32332171 0 6614.77293153 0 585.62854645 0 522.03797055 0 10875
0.10150000 0.10150300 17176.49749117 0 363.67604483 0 6784.97670864 0 9.57884536 0 1205.37756906 0 11118
0.10250000 0.10250800 17079.17175601 0 419.69757948 0 7300.16091013 0 315.30437940 0 1654.69251020 0 11575
0.10350000 0.10349800 16530.31661475 0 181.02365293 0 7145.11514570 0 746.53157071 0 2788.69787347 0 11364
0.10450000 0.10450100 16541.16749307 0 6.12377069 0 6861.97365543 0 760.25350286 0 1760.25605502 0 12093
0.10550000 0.10551000 16722.31072711 0 -96.54203601 0 6792.50588952 0 184.35088653 0 1626.25878006 0 12067
0.10650000 0.10649700 16568.18396563 0 269.47381251 0 6791.27686147 0 -152.26993260 0 625.59078118 0 12054
0.10750000 0.10749900 16258.26959396 0 665.58180396 0 6398.10967948 0 -1038.07695551 0 1034.20164183 0 12807
0.10850000 0.10850100 15780.83094778 0 457.69890549 0 5892.50303896 0 -253.38018838 0 434.53228028 0 12736
0.10950000 0.10950300 15578.65029659 0 55.98876057 0 5848.21373969 0 628.71871294 0 226.18323693 0 12933
0.11050000 0.11050200 15454.30808887 0 40.40723147 0 5472.16437187 0 1048.17713021 0 -910.29346925 0 13428
0.11150000 0.11150900 15177.38924516 0 128.38471350 0 4716.28997348 0 834.64402439 0 -930.37313030 0 13453
0.11250000 0.11250000 15189.79024896 0 238.31296877 0 4708.43969518 0 1169.09356063 0 -703.58977337 0 13668
0.11350000 0.11349100 15007.53978244 0 -95.16441735 0 4557.42425698 0 528.80648271 0 182.79965383 0 13791
0.11450000 0.11448600 15154.69097928 0 -48.63574038 0 4618.08952466 0 588.82291216 0 299.94042148 0 14205
0.11550000 0.11549300 15060.57621832 0 219.07148270 0 4393.44312641 0 16.68422193 0 791.45199250 0 14776
0.11650000 0.11649800 15123.13485355 0 20.08840820 0 4834.06629257 0 -50.22495116 0 1529.96277112 0 14553
0.11750000 0.11747300 14662.19397135 0 323.78356574 0 4855.77912154 0 314.17389503 0 1570.78643272 0 14568
0.11850000 0.11849100 14797.49778063 0 171.91888023 0 4083.34052522 0 508.85636785 0 1196.88509592 0 16015
0.11950000 0.11950300 14573.72609605 0 -0.49436380 0 4671.62421516 0 115.77665723 0 1363.25784865 0 15270
0.12050000 0.12050700 14488.35847170 0 96.26179546 0 3727.36528230 0 157.61897272 0 722.28317936 0 15999
0.12150000 0.12150000 14622.00143226 0 234.13759508 0 4170.82296361 0 -209.08535295 0 723.73808284 0 15670
0.12250000 0.12250700 14100.49493330 0 288.70754795 0 3676.77583020 0 -478.95444745 0 48.95550912 0 16887
0.12350000 0.12352200 14102.26650527 0 113.91429220 0 3742.11361896 0 -112.93660592 0 524.09742297 0 16407
0.12450000 0.12449800 13956.22254091 0 140.77243051 0 3843.46968035 0 174.45665708 0 9.46000610 0 16306
0.12550000 0.12549900 13711.52416242 0 149.40552217 0 3686.63019929 0 382.41041842 0 -231.51234687 0 17523
0.12650000 0.12650100 13697.90520289 0 205.33404930 0 3176.06315725 0 440.20684674 0 -401.74601925 0 17154
0.12750000 0.12750600 13381.79032932 0 468.99932020 0 3330.79889659 0 216.19489271 0 -399.93680138 0 18007
0.12850000 0.12850300 12895.27237679 0 295.82594557 0 3145.97965072 0 -2.30360825 0 155.79425359 0 17496
0.12950000 0.12949900 12889.73621438 0 -44.58625903 0 3342.05945094 0 345.74995095 0 281.04439194 0 18405
0.13050000 0.13049000 12799.05387411 0 210.91560824 0 3352.68888276 0 -8.35150030 0 -173.33945950 0 18100
0.13150000 0.13148800 12708.48225710 0 186.33726161 0 3626.26388438 0 180.47114392 0 311.73023294 0 19059
0.13250000 0.13249300 12550.81235168 0 249.49380237 0 3503.68217631 0 -232.10028731 0 634.15522443 0 18957
0.13350000 0.13349100 12332.79827600 0 409.75352456 0 3727.32099300 0 -234.10991427 0 822.15333476 0 19468
0.13450000 0.13450700 12235.02964785 0 206.35602488 0 3901.13434800 0 97.86207857 0 1025.12344271 0 19953
0.13550000 0.13551000 11922.01502523 0 340.13738950 0 4047.02329981 0 -80.70462548 0 555.00249600 0 19956
0.13650000 0.13649900 11906.40304723 0 225.06603936 0 4324.49575977 0 27.89406502 0 1069.81023844 0 19723
0.13750000 0.13749600 11696.58249192 0 3.91786463 0 4145.15731468 0 -88.16726168 0 904.52035908 0 20946
0.13850000 0.13851100 11800.77306847 0 75.25471648 0 4295.37554550 0 288.55253540 0 522.08447431 0 20955
0.13950000 0.13949800 11763.90222682 0 -35.19172359 0 4172.42845071 0 87.89012139 0 512.31093320 0 20506
0.14050000 0.14048300 11621.06923666 0 150.48064491 0 4172.77169278 0 115.57846262 0 362.81129626 0 21447
0.14150000 0.14148400 11575.45125841 0 157.25137154 0 3982.57129704 0 51.09678602 0 416.87745835 0 21771
0.14250000 0.14249400 11295.98577998 0 177.34431939 0 3830.40433706 0 171.53577779 0 163.17727978 0 22470
0.14350000 0.14350900 11130.89741694 0 97.72832489 0 3455.38469545 0 410.28610339 0 256.40182583 0 22519
0.14450000 0.14449900 11088.93330587 0 -18.60427378 0 3683.81782879 0 329.76372838 0 -230.68192250 0 22218
0.14550000 0.14550500 11082.17918773 0 134.51656699 0 3361.35851309 0 -1.04821921 0 -315.76388088 0 23559
0.14650000 0.14650700 10930.34439750 0 294.60134645 0 3431.32453362 0 220.76001223 0 -19.59967578 0 23044
0.14750000 0.14750500 10525.72843165 0 323.05832847 0 3102.07788282 0 -127.42585018 0 328.11284475 0 23649
0.14850000 0.14849900 10620.77326789 0 153.56982354 0 3456.73551908 0 111.61346310 0 553.48890920 0 23640
0.14950000 0.14949500 10461.36500748 0 94.45036312 0 3530.02323706 0 60.03691325 0 287.89926824 0 24457
0.15050000 0.15050000 10504.35884475 0 76.34611554 0 3430.73770041 0 -38.94457736 0 311.38034748 0 24591
0.15150000 0.15149900 10400.35649773 0 7.29595343 0 3500.21653864 0 -48.32582601 0 239.43127358 0 25020
0.15250000 0.15250500 10335.38409569 0 88.60904744 0 3462.05023500 0 262.03653193 0 350.37486103 0 25297
0.15350000 0.15350100 10349.32415264 0 131.53700438 0 3673.07767371 0 51.99619096 0 14.44096892 0 25452
0.15450000 0.15450400 10048.12370060 0 314.47395503 0 3316.70382710 0 167.65382071 0 149.76205103 0 26061
0.15550000 0.15549900 9749.19307514 0 343.76025418 0 3276.00196107 0 364.66369620 0 300.56268613 0 26128
0.15650000 0.15649500 9577.12914746 0 195.11650795 0 3033.87236193 0 560.70695775 0 400.61885659 0 26331
0.15750000 0.15749700 9395.22192302 0 26.44381192 0 2870.40055831 0 454.46357218 0 490.65457308 0 27345
0.15850000 0.15849900 9317.40562419 0 139.74491877 0 2529.49474947 0 145.59110627 0 222.53047697 0 26980
0.15950000 0.15949700 9203.84786085 0 233.59837286 0 2537.63290821 0 100.80410600 0 483.33465915 0 27777
0.16050000 0.16050000 9073.91412910 0 209.88256033 0 2527.59030960 0 -127.46681778 0 452.29118205 0 28224
0.16150000 0.16150500 8903.69927967 0 41.93609808 0 2224.43005607 0 43.76347457 0 521.09682294 0 28075
0.16250000 0.16249700 8943.07246672 0 -101.09630465 0 2408.44102223 0 275.64552636 0 675.63104597 0 28590
0.16350000 0.16349900 8907.70746125 0 -56.57625813 0 2281.44145656 0 204.84465254 0 52.02652913 0 29163
0.16450000 0.16449100 8958.36334730 0 174.01044238 0 2162.39182011 0 222.85932502 0 -453.76601572 0 28996
0.16550000 0.16550500 8771.46250436 0 203.92786404 0 2170.64070210 0 -309.35189757 0 -429.65381396 0 30777
0.16650000 0.16650700 8520.63005792 0 237.69402581 0 2235.10377719 0 -380.60230778 0 -37.95349357 0 29211
0.16750000 0.16749900 8508.18476482 0 112.36416672 0 2268.07716050 0 -142.71340905 0 -492.35749664 0 30922
0.16850000 0.16850800 8324.89349977 0 115.44780919 0 2129.15270100 0 94.87465461 0 -316.66959705 0 30867
0.16950000 0.16949900 8274.20439675 0 178.97084390 0 2168.10513971 0 369.86768887 0 -810.92156846 0 30852
0.17050000 0.17049200 8100.82286242 0 -4.00512562 0 1866.80503675 0 293.36013884 0 -424.91596617 0 31257
0.17150000 0.17149500 8179.25921143 0 -16.68200746 0 2041.72562423 0 184.08625797 0 -386.43853019 0 32608
0.17250000 0.17250900 8285.38744482 0 -30.62616117 0 1919.87468960 0 1.82804083 0 -287.37554727 0 32361
0.17350000 0.17350400 8239.18263335 0 136.29921129 0 2184.19322768 0 -206.94285809 0 21.08037778 0 32508
0.17450000 0.17449800 8268.15890740 0 197.97759669 0 2338.36427845 0 -346.32903354 0 194.18200374 0 32791
0.17550000 0.17549800 8173.29122835 0 99.60984504 0 2476.74619403 0 -25.69432625 0 199.44246526 0 33633
0.17650000 0.17650100 8112.33808023 0 14.21409699 0 2569.15581697 0 217.03638940 0 267.81296378 0 33984
0.17750000 0.17750300 8069.27780901 0 -4.62975976 0 2353.82124390 0 308.65323388 0 84.11766960 0 34069
0.17850000 0.17849800 8073.73995591 0 117.94572567 0 2395.14316012 0 384.81311291 0 135.55293659 0 34536
