### header ###
fiducial parameters:
Omega_m = 0.31
Omega_nu = 0
Omega_de = 0.69
Omega_k = 0
H_0 = 100
w_de = -1
zeff = 0
beta = 0
fgrowth = 0
b_1 = 2
gamma = 0.55
Lx = 3500 Ly = 3500 Lz = 3500
nx = 700 ny = 700 nz = 700
xoffset = -685.467585 yoffset = -31.7331281 zoffset = 572.489161
bins = 400 dk = 0.001
kx_ny = 0.628318531 ky_ny = 0.628318531 kz_ny = 0.628318531
############################
A(data) = 8.00687674 (not used)
A(ran) = 7.99776636 (used)
Ngal = 475039
weighted Ngal = 0
Nran = 23820508
weighted Nran = 0
SN(data) = 3497.82212
SN(ran) = 69.6634455
SN(data+ran) = 3567.48557
############################
13 columns: k_central k_mean P_0(k) sigma^{lin}_{P_0(k)} P^img_1(k) sigma^{lin}_{P_1(k)} P_2(k) sigma^{lin}_{P_2(k)} P^img_3(k) sigma^{lin}_{P_3(k)} P_4(k) sigma^{lin}_{P_4(k)} N_modes
### header ###
0.00050000 0 0 0 0 0 0 0 0 0 0 0 0
0.00150000 0.00179520 16879.42701628 0 -24801.67542402 0 -13033.23354403 0 -25693.21901842 0 -47831.88960031 0 3
0.00250000 0.00253879 35797.49047817 0 -35466.31724285 0 -19754.68832519 0 -27800.28243141 0 -14667.28724076 0 6
0.00350000 0.00331552 55985.66032001 0 -31414.17852897 0 -46195.84288511 0 -5857.40376929 0 -19446.43480224 0 7
0.00450000 0.00420575 70359.53095308 0 -9094.39793002 0 -35950.39928392 0 -26374.27771802 0 15415.44422876 0 24
0.00550000 0.00557378 69166.82012362 0 -13731.78651684 0 -33774.35528731 0 -19263.63071948 0 8045.04048998 0 45
0.00650000 0.00659388 87820.69791533 0 -18579.58249218 0 -26071.22818773 0 -32218.69365029 0 27690.00207622 0 40
0.00750000 0.00754703 93558.15518986 0 -11390.76488043 0 -4550.81407906 0 -14730.39949223 0 -14426.02128297 0 57
0.00850000 0.00846663 99933.04620420 0 -5545.76211494 0 12767.49774838 0 -11004.92757748 0 53089.58304045 0 75
0.00950000 0.00948925 102274.28928710 0 12598.75551814 0 16615.68423910 0 -21464.91961668 0 15004.10736175 0 112
0.01050000 0.01054430 86596.76312988 0 19608.09074459 0 42414.53323629 0 -12361.58632053 0 23655.68980529 0 105
0.01150000 0.01145670 83622.62596034 0 8050.43271217 0 44552.59915877 0 -1531.14750987 0 22642.90425413 0 144
0.01250000 0.01249090 78550.39396092 0 1173.06852524 0 45441.15322547 0 4834.57561951 0 -13701.78051658 0 169
0.01350000 0.01339930 86169.92500812 0 -6762.03485162 0 37021.42526363 0 5107.23161817 0 -26063.58828360 0 180
0.01450000 0.01448870 91556.05741615 0 -8323.81948426 0 15382.44870080 0 3448.76344521 0 -27499.44736609 0 267
0.01550000 0.01550050 82161.41125403 0 268.71314379 0 2188.77717015 0 -7760.59246539 0 -17607.76454285 0 238
0.01650000 0.01653350 94523.10829781 0 3364.18195592 0 -8077.06165336 0 9057.33885885 0 -27043.04613706 0 315
0.01750000 0.01747870 79727.38208914 0 2362.83411630 0 -3698.11220013 0 11668.56951013 0 -20786.07538204 0 297
0.01850000 0.01844180 81509.69421520 0 7517.94246699 0 -20499.08072275 0 8687.85537965 0 -21127.65660270 0 388
0.01950000 0.01947590 69446.83921828 0 3559.38704248 0 -12995.91980939 0 -1974.42803399 0 -1339.12018054 0 399
0.02050000 0.02045430 73260.48005557 0 -3939.87641254 0 -11484.65819489 0 3515.51849154 0 -21212.69205731 0 462
0.02150000 0.02154770 75462.43329225 0 -3795.72581573 0 -2304.51618148 0 -10846.90335766 0 -8168.15366964 0 571
0.02250000 0.02255340 81375.60836165 0 2956.56539005 0 5588.80024151 0 -17101.87002189 0 -13284.24314767 0 510
0.02350000 0.02348930 72982.89687236 0 6980.45860332 0 -0.69861276 0 -9274.91004154 0 -4422.53012371 0 555
0.02450000 0.02439640 72332.28706602 0 7709.65977122 0 4496.90292952 0 -13631.24980748 0 -199.88203656 0 592
0.02550000 0.02547300 68266.30794612 0 852.23905576 0 8009.76406311 0 -1274.93391357 0 -17183.47305580 0 837
0.02650000 0.02652900 65436.00027597 0 1134.69184741 0 8140.58358084 0 4475.35618542 0 -18139.90047364 0 723
0.02750000 0.02749970 58388.68697540 0 5624.60813997 0 7847.06732222 0 1182.57965226 0 -19643.85435375 0 826
0.02850000 0.02848090 57461.04760210 0 2784.16929262 0 1962.56957411 0 4255.78091194 0 -11659.60092703 0 831
0.02950000 0.02946900 57354.97473033 0 -2162.64648358 0 10342.26000940 0 489.30264222 0 -11573.23679344 0 996
0.03050000 0.03053250 59577.52249118 0 -5026.60294884 0 9491.26326849 0 -6102.21287103 0 -13864.21152167 0 1041
0.03150000 0.03150510 67303.23713339 0 1242.63594207 0 18355.70008435 0 -8722.91036003 0 -8029.62781383 0 1036
0.03250000 0.03246190 63765.96152358 0 6990.34618938 0 23116.79975637 0 -11788.48278792 0 -1563.54513229 0 1059
0.03350000 0.03345080 59295.73182454 0 6026.27886742 0 24816.95523227 0 -2209.57099616 0 12838.24990397 0 1302
0.03450000 0.03451200 57887.11066112 0 622.75072987 0 29018.12743821 0 11437.26864467 0 3892.59758557 0 1339
0.03550000 0.03553350 55458.72838189 0 -578.30973974 0 23654.13967982 0 15377.24470814 0 2444.49251184 0 1365
0.03650000 0.03647120 56879.08620963 0 1875.09820804 0 25745.92328456 0 9238.74782868 0 762.03725439 0 1308
0.03750000 0.03744890 53055.81244975 0 2509.08845483 0 20595.52067192 0 -2571.74674098 0 7811.28156841 0 1579
0.03850000 0.03847530 50311.42602020 0 2498.21543186 0 18709.35013906 0 1249.25719231 0 7941.29280643 0 1662
0.03950000 0.03950240 48875.89910746 0 1401.32450137 0 16557.22236406 0 -3026.17709618 0 4167.66735104 0 1683
0.04050000 0.04050350 48339.11280025 0 2930.61186067 0 20975.52285969 0 -600.37134694 0 997.62643125 0 1822
0.04150000 0.04152450 46680.03564943 0 1587.81566829 0 19083.26254819 0 2098.36056568 0 -575.78635692 0 1887
0.04250000 0.04250150 43742.88004479 0 2078.39716403 0 20938.09840180 0 989.33879613 0 -20.07135682 0 1920
0.04350000 0.04349210 43330.65739179 0 873.29640310 0 19578.97053032 0 1897.17642373 0 631.00404079 0 2005
0.04450000 0.04448520 43096.14555213 0 -485.89236618 0 21401.14302572 0 3110.52606665 0 1615.59613126 0 2151
0.04550000 0.04548030 43309.28780489 0 550.50934659 0 20821.17465172 0 -516.64021220 0 3741.72608759 0 2274
0.04650000 0.04648670 42923.30656171 0 207.29606525 0 20551.12064939 0 3408.58197845 0 1805.09897053 0 2311
0.04750000 0.04749250 43680.32140956 0 1208.27851816 0 23313.00135216 0 -934.80095300 0 3685.23508636 0 2568
0.04850000 0.04851840 39975.18935550 0 2360.75251923 0 22109.99326061 0 516.63578327 0 3176.53926722 0 2493
0.04950000 0.04949480 40330.50025893 0 2157.95181785 0 21992.18372454 0 1881.69731363 0 5188.42497607 0 2644
0.05050000 0.05050630 35699.05751053 0 1890.30051001 0 18197.14439295 0 3494.10461535 0 1544.62252918 0 2829
0.05150000 0.05149060 35108.45970471 0 2495.52485693 0 17670.10173158 0 3635.57570955 0 2592.83951976 0 2784
0.05250000 0.05249300 32726.02757348 0 1997.91243493 0 14293.81772463 0 3600.64252475 0 1290.70090411 0 3055
0.05350000 0.05348950 31172.35895493 0 -352.32580466 0 11199.87800056 0 4152.97437600 0 2927.37874183 0 3009
0.05450000 0.05448610 32196.54900065 0 -2427.07574490 0 9893.78656495 0 1435.36082787 0 -583.63109905 0 3336
0.05550000 0.05550870 34257.21937265 0 -1452.48971436 0 11272.95534436 0 -544.26787709 0 -2239.63235804 0 3349
0.05650000 0.05647670 35387.48229014 0 410.86961491 0 9694.50686286 0 79.86047143 0 1337.24895765 0 3324
0.05750000 0.05747970 35111.44923241 0 23.71747338 0 11769.54911248 0 -148.14549161 0 3680.15288927 0 3639
0.05850000 0.05849280 36099.98639222 0 30.66524648 0 12680.91216830 0 328.35532866 0 3976.84690511 0 3846
0.05950000 0.05951020 35519.46440198 0 1342.53045659 0 13751.71670151 0 1782.97646555 0 3856.93362733 0 3787
0.06050000 0.06049470 34205.17944600 0 2398.55343616 0 13634.35005843 0 1709.29014388 0 8046.84527893 0 3930
0.06150000 0.06148310 32717.28043687 0 887.74910868 0 12880.54618478 0 1823.83334413 0 9991.67698867 0 4083
0.06250000 0.06249100 31888.95981719 0 470.86943587 0 13401.83123724 0 2631.85839242 0 13234.41768598 0 4303
0.06350000 0.06350600 32037.77186275 0 -226.47886800 0 12617.68919358 0 3214.46197973 0 8762.52713823 0 4470
0.06450000 0.06451750 32764.00564761 0 -1252.03634584 0 11826.01796905 0 2159.77875145 0 10144.92903649 0 4479
0.06550000 0.06550280 32293.09967307 0 131.38752800 0 10181.25733422 0 722.46697995 0 6129.87153842 0 4636
0.06650000 0.06648880 32290.33159187 0 1784.32728917 0 11130.12235420 0 -1717.32865170 0 5748.10885100 0 4653
0.06750000 0.06749660 30475.24538435 0 2283.05801598 0 11982.46991874 0 -2884.50670013 0 5603.54857817 0 5220
0.06850000 0.06852730 28282.15000752 0 1392.34484594 0 11146.28794843 0 -134.22204315 0 4679.93953110 0 5029
0.06950000 0.06949320 28918.69796134 0 -437.36568820 0 12806.58305499 0 1252.85569788 0 4264.57233785 0 5040
0.07050000 0.07048030 28611.88384062 0 -643.64531403 0 11841.29777730 0 2151.02054252 0 542.89933774 0 5475
0.07150000 0.07148790 29374.21340438 0 285.99372114 0 11719.83437404 0 548.91493181 0 1675.96244617 0 5509
0.07250000 0.07249820 28519.42992838 0 828.55646020 0 11511.78539070 0 -680.02232999 0 1223.06007179 0 5916
0.07350000 0.07351270 28477.57654057 0 704.20871633 0 12377.30902177 0 469.43114087 0 3690.76017645 0 5721
0.07450000 0.07449140 28091.15240439 0 0.73146435 0 11710.09072820 0 197.19146163 0 1204.74644654 0 6028
0.07550000 0.07549160 27518.15959503 0 -80.99173086 0 10762.38830232 0 906.31961187 0 -75.84509284 0 6183
0.07650000 0.07648840 27836.59965681 0 39.28571569 0 11035.07751796 0 1037.54548392 0 -184.48375443 0 6330
0.07750000 0.07749960 27181.89309029 0 764.69129065 0 10513.60423597 0 -8.58999817 0 -1712.31288855 0 6583
0.07850000 0.07848650 26870.31786989 0 958.64631173 0 10756.33174065 0 -471.44962569 0 -730.46341294 0 6549
0.07950000 0.07947320 26053.40174477 0 804.50737070 0 9417.43300660 0 710.75467476 0 -902.50298150 0 6828
0.08050000 0.08048110 25422.27923011 0 455.13123337 0 10086.24571495 0 698.97372115 0 487.92967395 0 7147
0.08150000 0.08149960 24742.54920949 0 1012.28286761 0 9939.64813435 0 1434.37539096 0 964.91878374 0 7386
0.08250000 0.08250610 24763.25445690 0 494.18110854 0 10154.82769487 0 1461.02647679 0 2560.60798221 0 7227
0.08350000 0.08350160 23864.51385137 0 224.58882216 0 9322.21101316 0 826.99526240 0 2636.11016515 0 7798
0.08450000 0.08449610 23699.20404183 0 70.58850663 0 9429.98902295 0 663.22450601 0 1914.91428809 0 7371
0.08550000 0.08548940 23163.41424386 0 116.89717651 0 9569.13492894 0 1088.98196887 0 3897.61334871 0 8256
0.08650000 0.08650700 23217.00429598 0 559.72262807 0 8251.30682903 0 1076.00188248 0 2122.95219910 0 8037
0.08750000 0.08749060 22344.61582352 0 842.43008320 0 7743.44143425 0 117.85825430 0 3349.52219786 0 8155
0.08850000 0.08849210 21621.59301286 0 1274.47994825 0 8197.50640273 0 169.17847983 0 2347.49894643 0 8718
0.08950000 0.08949900 20789.83997248 0 526.80682085 0 7961.37800365 0 642.51150797 0 4508.44029198 0 8571
0.09050000 0.09049190 20620.21195626 0 16.22261671 0 7624.35858082 0 1278.93102283 0 4105.54053648 0 8932
0.09150000 0.09150830 20440.50812445 0 283.70617883 0 7940.38487579 0 799.66876475 0 2687.78470508 0 9285
0.09250000 0.09250820 20169.01471990 0 676.25441786 0 7714.11084580 0 817.15860903 0 2645.02338663 0 9204
0.09350000 0.09350330 19303.49108883 0 522.55726258 0 6568.31345659 0 -446.53578761 0 2438.31415459 0 9349
0.09450000 0.09448040 18855.72627316 0 265.74465351 0 6172.62178455 0 724.46774905 0 1920.30651027 0 9564
0.09550000 0.09549270 19002.65602351 0 -158.65644956 0 6287.19820177 0 -91.06267462 0 -68.13211137 0 10155
0.09650000 0.09649430 19075.17975107 0 170.42300914 0 6093.53216837 0 468.25525998 0 -647.17960011 0 9913
0.09750000 0.09749140 18652.32766624 0 508.67588896 0 5287.89874224 0 -1335.00127571 0 -1586.14374725 0 10476
0.09850000 0.09850240 17922.99363044 0 540.22426406 0 5458.03608540 0 -86.16704620 0 -967.71122406 0 10575
0.09950000 0.09950330 18294.02723511 0 210.40738853 0 5916.75143031 0 -382.00406410 0 -1828.21798476 0 10882
0.10050000 0.10051200 17543.54505890 0 128.02929188 0 5499.70124370 0 380.31110564 0 -1474.97760607 0 10875
0.10150000 0.10150300 17854.45593981 0 -50.20734617 0 5791.49021964 0 1093.47068935 0 -1282.16414167 0 11118
0.10250000 0.10250800 17674.86283125 0 -258.22765219 0 5239.53482743 0 671.57082446 0 -1848.92323217 0 11575
0.10350000 0.10349800 17892.21256744 0 397.36691479 0 5698.20588304 0 302.09066696 0 -866.59764658 0 11364
0.10450000 0.10450100 17433.59687346 0 647.44644314 0 5275.42023217 0 92.51303845 0 -1234.60850658 0 12093
0.10550000 0.10551000 17017.60963002 0 609.27238887 0 5273.34970743 0 -472.90785086 0 -723.25643671 0 12067
0.10650000 0.10649700 16828.49432212 0 325.21853904 0 5172.95693830 0 -480.51896694 0 -366.75525836 0 12054
0.10750000 0.10749900 16373.75394181 0 6.77717072 0 5537.07033996 0 906.83336774 0 -97.40235564 0 12807
0.10850000 0.10850100 16620.33461553 0 -6.88163810 0 4904.25375960 0 1114.20804650 0 23.28421331 0 12736
0.10950000 0.10950300 16205.78677432 0 35.73404606 0 4377.43254473 0 949.09975327 0 -732.00135885 0 12933
0.11050000 0.11050200 16113.66503182 0 693.49734930 0 4337.56110306 0 132.98083554 0 -1238.92671326 0 13428
0.11150000 0.11150900 15313.57884043 0 840.32080532 0 4565.52919875 0 -877.48284911 0 -25.29107218 0 13453
0.11250000 0.11250000 14707.81194960 0 482.79211523 0 4270.81712905 0 -435.84656523 0 339.34903997 0 13668
0.11350000 0.11349100 14664.40843631 0 -1.93442372 0 5058.13692993 0 354.31882313 0 228.88599142 0 13791
0.11450000 0.11448600 14904.34571513 0 -142.53846632 0 4438.93930909 0 681.09302380 0 -164.66982917 0 14205
0.11550000 0.11549300 14898.58810623 0 -55.25422254 0 4625.79586273 0 935.54390599 0 28.04055188 0 14776
0.11650000 0.11649800 14725.74911581 0 96.67457173 0 4477.02810647 0 526.70606269 0 813.76937041 0 14553
0.11750000 0.11747300 14597.64231766 0 198.46477898 0 3885.53344233 0 457.05560342 0 354.31771589 0 14568
0.11850000 0.11849100 14661.52963186 0 364.15215480 0 4261.75996735 0 -120.79352761 0 805.04327122 0 16015
0.11950000 0.11950300 14123.74681542 0 339.18959849 0 4316.29116708 0 -40.35674167 0 1041.06759045 0 15270
0.12050000 0.12050700 14103.92735399 0 225.76581028 0 4452.40325607 0 -648.93456360 0 98.80355835 0 15999
0.12150000 0.12150000 13730.90073085 0 160.87866515 0 4200.24213065 0 -231.30307993 0 600.35916739 0 15670
0.12250000 0.12250700 13541.89614620 0 555.02685511 0 5202.96293856 0 -292.08903595 0 27.26870012 0 16887
0.12350000 0.12352200 13250.25111047 0 133.96405798 0 4832.73761359 0 28.41191765 0 335.81918282 0 16407
0.12450000 0.12449800 13353.55590103 0 -104.38611380 0 4981.35035731 0 364.21415982 0 -150.36770720 0 16306
0.12550000 0.12549900 13338.38681603 0 61.73795451 0 4724.79351894 0 119.24008044 0 242.10191832 0 17523
0.12650000 0.12650100 13389.98384969 0 197.18260377 0 5259.47608443 0 270.95639680 0 564.27113911 0 17154
0.12750000 0.12750600 13101.54978816 0 205.22886221 0 4869.77454011 0 416.64383230 0 484.02225052 0 18007
0.12850000 0.12850300 13108.74679929 0 177.24577570 0 4827.35646373 0 264.11259283 0 630.05735702 0 17496
0.12950000 0.12949900 12771.59450856 0 199.49893412 0 4286.67269819 0 260.55062593 0 61.43036533 0 18405
0.13050000 0.13049000 12776.35560824 0 95.03398536 0 3993.07893330 0 585.53775338 0 281.02999792 0 18100
0.13150000 0.13148800 12421.15542805 0 15.86232326 0 3507.87858742 0 327.84821618 0 -609.57134164 0 19059
0.13250000 0.13249300 12526.56396033 0 -71.14455878 0 3380.28111621 0 182.22610740 0 -610.65753670 0 18957
0.13350000 0.13349100 12322.94390691 0 167.33272329 0 3244.36832906 0 198.76594621 0 -1020.15086163 0 19468
0.13450000 0.13450700 12361.69704378 0 343.85658341 0 3296.19788154 0 39.86723419 0 -894.74460350 0 19953
0.13550000 0.13551000 11994.31730629 0 237.98301349 0 3048.32174582 0 -338.84082026 0 -284.10146082 0 19956
0.13650000 0.13649900 11987.56318816 0 115.27618815 0 3469.11437823 0 239.19100413 0 -64.50847163 0 19723
0.13750000 0.13749600 12076.69540295 0 -72.55661237 0 3796.67803566 0 -156.86051847 0 -151.82371791 0 20946
0.13850000 0.13851100 12087.98917426 0 169.52393637 0 4119.30343623 0 -206.40474311 0 209.58139310 0 20955
0.13950000 0.13949800 11856.46686230 0 327.48061500 0 4190.39883389 0 -166.48236874 0 -81.37837644 0 20506
0.14050000 0.14048300 11732.01393134 0 242.63671161 0 4431.21082637 0 -230.21909933 0 -259.40464032 0 21447
0.14150000 0.14148400 11503.37042384 0 145.38294657 0 4255.95806914 0 212.39597807 0 17.08758672 0 21771
0.14250000 0.14249400 11245.71742531 0 237.90772168 0 4062.75707338 0 323.20448315 0 -146.06389454 0 22470
0.14350000 0.14350900 11273.50896060 0 0.43176752 0 3625.72134046 0 720.76405639 0 -175.88387974 0 22519
0.14450000 0.14449900 11206.29994895 0 -114.43801316 0 3707.37973600 0 627.41992924 0 -241.09765846 0 22218
0.14550000 0.14550500 11204.30693048 0 118.95219999 0 3106.62860832 0 306.77315312 0 -27.25663128 0 23559
0.14650000 0.14650700 11022.94224996 0 302.63099641 0 3261.67437275 0 57.89895805 0 641.03556707 0 23044
0.14750000 0.14750500 10780.62442130 0 313.96905702 0 3343.53207014 0 -84.95905557 0 655.73407827 0 23649
0.14850000 0.14849900 10540.08923694 0 271.03943924 0 3454.87536851 0 358.43662073 0 1208.61068790 0 23640
0.14950000 0.14949500 10289.13499492 0 230.69631653 0 3356.29846065 0 75.13402814 0 977.10830613 0 24457
0.15050000 0.15050000 10235.57815978 0 -32.17318640 0 3333.03550621 0 360.96664695 0 686.31694665 0 24591
0.15150000 0.15149900 10167.19548170 0 3.05087945 0 3128.02033987 0 375.77034523 0 664.01396277 0 25020
0.15250000 0.15250500 10169.39887434 0 83.45211216 0 2800.56740568 0 171.71847115 0 202.35670115 0 25297
0.15350000 0.15350100 10085.83603893 0 104.59360917 0 2704.94680855 0 -298.42129851 0 298.71582235 0 25452
0.15450000 0.15450400 10046.48499652 0 199.47346777 0 2800.81099683 0 -135.18533541 0 190.87470032 0 26061
0.15550000 0.15549900 9878.79463715 0 166.00515154 0 2788.42106535 0 -76.30880180 0 374.46602537 0 26128
0.15650000 0.15649500 9856.74963843 0 131.01106895 0 2841.32463334 0 35.33643887 0 -121.38811145 0 26331
0.15750000 0.15749700 9686.25798087 0 288.87916898 0 3214.53948600 0 28.10875740 0 -4.68100247 0 27345
0.15850000 0.15849900 9453.68379806 0 248.22380671 0 3197.01199581 0 -140.18338283 0 21.27979035 0 26980
0.15950000 0.15949700 9283.53538257 0 266.08789558 0 3363.38474854 0 179.55767712 0 576.96334504 0 27777
0.16050000 0.16050000 9200.26042761 0 126.25771991 0 3038.62238928 0 270.79916979 0 619.14779537 0 28224
0.16150000 0.16150500 9084.28889746 0 -45.85968710 0 3009.00392039 0 402.98611963 0 414.32196578 0 28075
0.16250000 0.16249700 9119.59854131 0 -10.41628957 0 2681.38490133 0 444.19731261 0 128.22970096 0 28590
0.16350000 0.16349900 9074.32380512 0 -8.22673734 0 2474.21063165 0 -5.31601137 0 230.36303955 0 29163
0.16450000 0.16449100 9109.34556852 0 33.10558687 0 2126.79429582 0 8.62993605 0 165.85346069 0 28996
0.16550000 0.16550500 9080.11463100 0 63.09520009 0 2260.59226892 0 -95.32042641 0 -172.60868606 0 30777
0.16650000 0.16650700 9132.87425876 0 86.92970794 0 2153.97685324 0 -100.64056776 0 -249.55912909 0 29211
0.16750000 0.16749900 8900.26685897 0 141.81876521 0 2231.60492255 0 -168.58057429 0 -216.93009508 0 30922
0.16850000 0.16850800 8838.30612929 0 126.97852825 0 2178.95601804 0 -99.26848527 0 -445.30454509 0 30867
0.16950000 0.16949900 8711.35085292 0 204.27996397 0 2367.03052741 0 217.81477383 0 -295.44505760 0 30852
0.17050000 0.17049200 8576.37921338 0 112.89231662 0 2121.00346994 0 307.55596649 0 -139.77924298 0 31257
0.17150000 0.17149500 8528.04851554 0 26.48533314 0 2288.38380422 0 405.97343287 0 -95.97568659 0 32608
0.17250000 0.17250900 8518.68132875 0 113.32192282 0 2163.23331679 0 93.25222686 0 -157.71862365 0 32361
0.17350000 0.17350400 8364.45491635 0 217.03528217 0 2370.44080345 0 -22.08629849 0 507.29959898 0 32508
0.17450000 0.17449800 8235.48447686 0 194.59389422 0 2269.26189926 0 47.07996802 0 562.48406588 0 32791
0.17550000 0.17549800 8135.49031142 0 55.32586048 0 2405.31862663 0 54.91795604 0 913.23870765 0 33633
0.17650000 0.17650100 8140.71644874 0 47.00910514 0 2500.98351306 0 156.22385980 0 599.94506244 0 33984
0.17750000 0.17750300 8103.81239012 0 142.98468101 0 2513.91598845 0 98.23211567 0 825.34770047 0 34069
0.17850000 0.17849800 7908.25298917 0 95.99993498 0 2451.82239087 0 79.43795152 0 769.66276449 0 34536
