### header ###
fiducial parameters:
Omega_m = 0.31
Omega_nu = 0
Omega_de = 0.69
Omega_k = 0
H_0 = 100
w_de = -1
zeff = 0
beta = 0
fgrowth = 0
b_1 = 2
gamma = 0.55
Lx = 3500 Ly = 3500 Lz = 3500
nx = 700 ny = 700 nz = 700
xoffset = -685.467585 yoffset = -31.7331281 zoffset = 572.489161
bins = 400 dk = 0.001
kx_ny = 0.628318531 ky_ny = 0.628318531 kz_ny = 0.628318531
############################
A(data) = 7.99623943 (not used)
A(ran) = 7.98989998 (used)
Ngal = 475199
weighted Ngal = 0
Nran = 23820508
weighted Nran = 0
SN(data) = 3487.65313
SN(ran) = 69.5949265
SN(data+ran) = 3557.24806
############################
13 columns: k_central k_mean P_0(k) sigma^{lin}_{P_0(k)} P^img_1(k) sigma^{lin}_{P_1(k)} P_2(k) sigma^{lin}_{P_2(k)} P^img_3(k) sigma^{lin}_{P_3(k)} P_4(k) sigma^{lin}_{P_4(k)} N_modes
### header ###
0.00050000 0 0 0 0 0 0 0 0 0 0 0 0
0.00150000 0.00179520 14859.17062987 0 -23973.02263460 0 -1723.67309382 0 -28886.92038911 0 -26331.42782097 0 3
0.00250000 0.00253879 19979.12434926 0 -13527.61284718 0 -9804.41075901 0 12934.80057639 0 32013.52347140 0 6
0.00350000 0.00331552 28959.66556317 0 -8510.12242166 0 -6376.68473096 0 -12518.25971671 0 -13653.28373387 0 7
0.00450000 0.00420575 23609.96110379 0 2688.47118922 0 -8355.18738048 0 -12616.02834486 0 3303.35060337 0 24
0.00550000 0.00557378 28421.66130023 0 -6122.85168449 0 -14030.96073344 0 -2717.13743817 0 5881.67430529 0 45
0.00650000 0.00659388 25775.15422208 0 -15786.47783343 0 -21135.07506033 0 9474.12330967 0 13283.80025467 0 40
0.00750000 0.00754703 46003.95949600 0 -5440.42001662 0 2074.61042894 0 -5588.01410645 0 -3984.14356717 0 57
0.00850000 0.00846663 49198.98954567 0 -4695.81724489 0 -2081.17631756 0 -15071.98071289 0 -1258.29220937 0 75
0.00950000 0.00948925 45870.09508894 0 9152.49441834 0 12166.04906423 0 -10897.48173744 0 8526.78627051 0 112
0.01050000 0.01054430 55923.54457778 0 -6162.47953501 0 5746.19333881 0 -8458.79112380 0 -10427.50583818 0 105
0.01150000 0.01145670 55725.79285652 0 -9036.98792583 0 16167.03363745 0 9128.37889489 0 -6475.82632738 0 144
0.01250000 0.01249090 70321.88504870 0 -4349.04310389 0 34250.02236152 0 -25335.36148028 0 -39738.24160438 0 169
0.01350000 0.01339930 79169.33691828 0 -2536.64747130 0 38933.83720630 0 -12001.40359418 0 -13416.55742925 0 180
0.01450000 0.01448870 66487.98185699 0 6495.38005301 0 35280.85580213 0 -6475.56059159 0 -5326.97297652 0 267
0.01550000 0.01550050 71806.68380688 0 938.50353842 0 31407.86730382 0 12195.05855526 0 18728.61598424 0 238
0.01650000 0.01653350 75687.97654881 0 260.61373819 0 48475.41311877 0 21846.80409967 0 7071.28488380 0 315
0.01750000 0.01747870 64182.17021351 0 3629.16483348 0 35231.47323344 0 20460.43830913 0 22892.91734854 0 297
0.01850000 0.01844180 65470.10303641 0 9733.71396505 0 39370.52969715 0 19949.22907225 0 25903.48246673 0 388
0.01950000 0.01947590 58767.58193070 0 -671.96057029 0 30384.23087434 0 10207.96378168 0 35027.18884054 0 399
0.02050000 0.02045430 61023.56811249 0 2943.28967259 0 36399.49277856 0 14411.51653745 0 29833.05054486 0 462
0.02150000 0.02154770 63380.42317339 0 -5928.70954112 0 18409.51158297 0 2019.23773253 0 20502.07025045 0 571
0.02250000 0.02255340 64931.98805023 0 -5508.70304377 0 22639.02894045 0 3002.39374247 0 22676.23195184 0 510
0.02350000 0.02348930 75080.10591626 0 -2068.67566284 0 11352.45463656 0 -3512.27430037 0 -4797.97051366 0 555
0.02450000 0.02439640 69003.83550229 0 -6578.16782568 0 14271.23018200 0 466.92658100 0 -6762.90956528 0 592
0.02550000 0.02547300 71707.58649975 0 6826.14361232 0 12672.05430844 0 -6329.15124051 0 -16638.60395148 0 837
0.02650000 0.02652900 68856.24141245 0 3463.57821582 0 9179.62161415 0 -981.18956506 0 -11122.48245007 0 723
0.02750000 0.02749970 64275.84208148 0 3180.61388275 0 18251.62023106 0 4615.05570766 0 -11378.80676963 0 826
0.02850000 0.02848090 61827.19744783 0 2491.18450560 0 15948.35522228 0 -588.43316632 0 -8319.92202593 0 831
0.02950000 0.02946900 60387.57377491 0 4112.87041551 0 23331.71358110 0 1127.57234256 0 -11963.64696655 0 996
0.03050000 0.03053250 56348.83257406 0 5621.31965950 0 20921.26846808 0 3421.82447893 0 -4697.00198364 0 1041
0.03150000 0.03150510 53143.17309257 0 2330.13754111 0 23466.79594389 0 -523.59473942 0 706.18955524 0 1036
0.03250000 0.03246190 53149.48431771 0 1186.44389362 0 25340.89764269 0 3907.42342850 0 1434.46396955 0 1059
0.03350000 0.03345080 50193.06286789 0 985.61738775 0 22683.87185596 0 6070.08098440 0 2531.76457606 0 1302
0.03450000 0.03451200 48761.96488508 0 2084.91876335 0 21373.13004393 0 6182.57580456 0 1611.94226407 0 1339
0.03550000 0.03553350 48638.95135634 0 1653.60742237 0 16201.69001413 0 5298.78283754 0 5921.63432556 0 1365
0.03650000 0.03647120 46067.73608696 0 72.36793995 0 17649.72865391 0 4678.97623884 0 7540.48572032 0 1308
0.03750000 0.03744890 46244.45039106 0 529.01132072 0 16420.47915255 0 1701.51737186 0 2865.31836122 0 1579
0.03850000 0.03847530 46813.01427050 0 292.79655750 0 17191.33440642 0 -1395.78833896 0 6614.02001344 0 1662
0.03950000 0.03950240 45506.36921865 0 3099.77483925 0 17861.09933470 0 -2057.31545758 0 3210.55344906 0 1683
0.04050000 0.04050350 43691.83662737 0 2013.69049779 0 19955.76174389 0 -3352.30135139 0 7876.08788557 0 1822
0.04150000 0.04152450 42232.06132328 0 1902.26969314 0 20732.92822292 0 2017.83154727 0 1885.05222805 0 1887
0.04250000 0.04250150 41090.94752747 0 175.91266779 0 21305.47813929 0 3188.29807618 0 6968.71086668 0 1920
0.04350000 0.04349210 42068.85525545 0 -44.35385093 0 19912.80112360 0 2883.74270972 0 1373.35580888 0 2005
0.04450000 0.04448520 41380.15665173 0 -95.34633565 0 19284.88958313 0 3032.63226155 0 6939.91174983 0 2151
0.04550000 0.04548030 42378.32673414 0 -141.50209672 0 18889.05397087 0 3825.46608019 0 3281.09523048 0 2274
0.04650000 0.04648670 41441.60805448 0 344.55303264 0 18735.03793264 0 -106.80032350 0 3947.75990781 0 2311
0.04750000 0.04749250 40697.21565692 0 1847.43954064 0 16674.69973038 0 2478.15237929 0 5363.57808237 0 2568
0.04850000 0.04851840 40049.59537828 0 1505.99118788 0 15414.66916602 0 2654.08054833 0 1724.75818165 0 2493
0.04950000 0.04949480 37850.63166929 0 748.77814542 0 13579.20988084 0 99.41762948 0 3509.89375054 0 2644
0.05050000 0.05050630 38549.51681185 0 1011.83665292 0 13403.04919297 0 -106.64132492 0 -2265.85162321 0 2829
0.05150000 0.05149060 36294.85930903 0 49.88868466 0 15187.57578399 0 -1419.21737828 0 110.38144552 0 2784
0.05250000 0.05249300 37334.66133275 0 1317.35198995 0 15461.28365351 0 -837.21169651 0 -1241.60621586 0 3055
0.05350000 0.05348950 35234.68420764 0 808.28635516 0 15178.71792414 0 37.75684908 0 905.91436478 0 3009
0.05450000 0.05448610 36019.26914429 0 365.19627503 0 16413.94648091 0 3705.81853820 0 -709.21229991 0 3336
0.05550000 0.05550870 35294.14259192 0 1185.92349435 0 18098.04708582 0 1488.04294935 0 430.02362961 0 3349
0.05650000 0.05647670 34216.14104757 0 1070.85768037 0 14492.01233889 0 3071.91687001 0 1328.08107270 0 3324
0.05750000 0.05747970 33540.39706389 0 854.16674751 0 15589.94406790 0 2901.46950175 0 1920.35079957 0 3639
0.05850000 0.05849280 32877.71842350 0 15.42308413 0 12369.33694790 0 1366.13665310 0 3213.74227861 0 3846
0.05950000 0.05951020 32796.22611283 0 -191.45931907 0 12815.55163809 0 1511.20625287 0 -1139.92905705 0 3787
0.06050000 0.06049470 32585.85194128 0 -20.59817803 0 9426.33515576 0 1590.19621813 0 1471.95486139 0 3930
0.06150000 0.06148310 33232.80788043 0 -147.97719227 0 10907.11466003 0 -309.58773809 0 74.81160204 0 4083
0.06250000 0.06249100 32803.53384721 0 344.17878806 0 10014.55241175 0 567.78328054 0 -68.27040471 0 4303
0.06350000 0.06350600 32120.26068265 0 1396.13158103 0 11615.42235100 0 -400.30883149 0 -427.59436154 0 4470
0.06450000 0.06451750 30752.49639780 0 1417.70046978 0 12347.63519126 0 -858.64328843 0 1675.38668528 0 4479
0.06550000 0.06550280 30342.48820977 0 1234.57528960 0 11211.61466486 0 306.59156700 0 1275.99685675 0 4636
0.06650000 0.06648880 29630.09483094 0 651.51330805 0 12996.58414888 0 933.89523683 0 1757.76478193 0 4653
0.06750000 0.06749660 29067.62073015 0 371.13879176 0 11665.91215217 0 1863.20653118 0 1622.71563612 0 5220
0.06850000 0.06852730 28587.85689576 0 -61.32252088 0 10226.66493830 0 2216.04830618 0 1616.53727887 0 5029
0.06950000 0.06949320 28536.03841561 0 301.10633728 0 10711.66598233 0 625.37044192 0 1686.65831195 0 5040
0.07050000 0.07048030 28320.90314438 0 799.98100431 0 10371.93383992 0 709.76813062 0 -516.63135434 0 5475
0.07150000 0.07148790 27168.05268426 0 665.11565909 0 9660.21587290 0 -179.33290893 0 -680.85053989 0 5509
0.07250000 0.07249820 26438.60792521 0 321.89130543 0 9517.13929159 0 -531.69414502 0 -1063.07715772 0 5916
0.07350000 0.07351270 26360.21586550 0 161.24848080 0 9234.44069432 0 -209.93017133 0 -771.79529425 0 5721
0.07450000 0.07449140 26269.53352523 0 194.00263208 0 8536.16452964 0 1253.04392740 0 -1730.78152635 0 6028
0.07550000 0.07549160 25912.89394282 0 293.20069736 0 7088.84559097 0 1869.69491353 0 -2553.72099617 0 6183
0.07650000 0.07648840 25352.96647674 0 567.58176423 0 5883.91091490 0 1823.73369320 0 -2422.63574264 0 6330
0.07750000 0.07749960 24903.76225885 0 589.26801962 0 4917.25266894 0 735.90767505 0 -1626.20341844 0 6583
0.07850000 0.07848650 23952.31738718 0 848.43792665 0 5411.70947836 0 228.82177193 0 -1021.74416917 0 6549
0.07950000 0.07947320 23861.96721666 0 528.00041746 0 6477.28787426 0 -498.56132024 0 -1812.43992189 0 6828
0.08050000 0.08048110 23200.72797850 0 696.28093176 0 7154.85879154 0 -642.16715867 0 790.25728865 0 7147
0.08150000 0.08149960 23226.96938832 0 362.34847309 0 8513.49948073 0 -1027.21943380 0 1451.11674608 0 7386
0.08250000 0.08250610 23183.89804477 0 -99.48384199 0 9300.59783512 0 -765.61250807 0 1940.64637096 0 7227
0.08350000 0.08350160 23247.67463573 0 100.75704862 0 9931.72034978 0 267.31028024 0 2221.30766047 0 7798
0.08450000 0.08449610 23597.00648375 0 108.99862287 0 9743.02579022 0 518.30216816 0 1703.84256007 0 7371
0.08550000 0.08548940 23523.92913995 0 -101.50443054 0 9640.03102476 0 754.61658230 0 562.93028057 0 8256
0.08650000 0.08650700 23206.15341766 0 311.78448734 0 8433.59051252 0 446.33648576 0 -255.53818449 0 8037
0.08750000 0.08749060 23010.61616136 0 680.32681892 0 8891.27613122 0 -666.83076220 0 -1159.67101221 0 8155
0.08850000 0.08849210 22098.69948930 0 1055.46382718 0 8425.14232868 0 -643.49251595 0 -1935.20985948 0 8718
0.08950000 0.08949900 20971.64754601 0 1193.97307449 0 7863.87511130 0 182.11095522 0 -449.65043258 0 8571
0.09050000 0.09049190 20379.83178445 0 680.10094350 0 7326.08122253 0 1042.25122197 0 -644.20003751 0 8932
0.09150000 0.09150830 20077.11442391 0 29.56022846 0 7267.58613051 0 1403.70505121 0 -580.22525194 0 9285
0.09250000 0.09250820 19938.15674743 0 -21.57652865 0 7043.98053080 0 1697.43168400 0 -453.00313254 0 9204
0.09350000 0.09350330 19440.78791658 0 499.63755021 0 6781.09032263 0 1000.81193910 0 368.96418716 0 9349
0.09450000 0.09448040 19136.29898407 0 390.98150507 0 6760.21899035 0 115.44559472 0 920.92733000 0 9564
0.09550000 0.09549270 18750.64991063 0 305.52973105 0 6945.19324877 0 347.10631074 0 826.82031967 0 10155
0.09650000 0.09649430 18637.38002774 0 190.85366290 0 7054.91998772 0 54.13193170 0 162.87389808 0 9913
0.09750000 0.09749140 18401.31806260 0 525.94096505 0 6792.37302162 0 -409.36710043 0 462.83646421 0 10476
0.09850000 0.09850240 18189.06159583 0 522.99351218 0 6545.62626304 0 -113.50793788 0 1302.50400237 0 10575
0.09950000 0.09950330 17689.92119301 0 132.50140387 0 6145.52780572 0 558.52903145 0 751.14540846 0 10882
0.10050000 0.10051200 17384.87864425 0 239.49881476 0 6413.11267961 0 1257.70537615 0 -400.95213357 0 10875
0.10150000 0.10150300 17269.83718939 0 367.03649541 0 5973.05420202 0 327.65223603 0 -493.46030019 0 11118
0.10250000 0.10250800 16758.40650601 0 422.08698718 0 6073.23659698 0 6.98700235 0 -262.17161429 0 11575
0.10350000 0.10349800 16626.20294768 0 447.11265573 0 5792.28742703 0 -220.76554840 0 473.13483352 0 11364
0.10450000 0.10450100 16087.86651500 0 333.93356590 0 6291.51640845 0 -186.27525659 0 414.23781612 0 12093
0.10550000 0.10551000 15884.02501509 0 649.92996560 0 6085.07291221 0 166.54880269 0 38.56579313 0 12067
0.10650000 0.10649700 15358.42175594 0 430.30486666 0 6509.90694317 0 375.53118301 0 -313.22167510 0 12054
0.10750000 0.10749900 15039.98169416 0 27.90214782 0 5829.57901702 0 680.77081915 0 -230.29992730 0 12807
0.10850000 0.10850100 15153.58374680 0 6.12327243 0 5874.75410228 0 519.77921629 0 -388.85118977 0 12736
0.10950000 0.10950300 15265.08205772 0 -5.12514664 0 5321.16000599 0 357.31277976 0 -459.51365953 0 12933
0.11050000 0.11050200 14882.09034225 0 160.81223120 0 5654.92416533 0 42.87337038 0 -419.62671660 0 13428
0.11150000 0.11150900 15033.89191551 0 179.56321328 0 4779.67903306 0 -30.03246311 0 59.42848900 0 13453
0.11250000 0.11250000 14593.10266448 0 153.06935446 0 5364.55244696 0 283.58106156 0 437.82740414 0 13668
0.11350000 0.11349100 14915.75020969 0 214.60712133 0 5134.80170697 0 663.22893494 0 -41.80090499 0 13791
0.11450000 0.11448600 14297.91448481 0 200.05365759 0 5529.72938860 0 161.39795718 0 1232.06187187 0 14205
0.11550000 0.11549300 14518.91808819 0 284.30851330 0 4920.07611176 0 757.76998040 0 1536.10791139 0 14776
0.11650000 0.11649800 14004.27643062 0 141.85419665 0 5236.82210785 0 439.67426792 0 1744.05724381 0 14553
0.11750000 0.11747300 14184.75532517 0 109.46222111 0 5213.90239548 0 686.58821861 0 2758.64758392 0 14568
0.11850000 0.11849100 14003.05847489 0 -60.31737524 0 5133.74983611 0 567.26398850 0 2669.69252632 0 16015
0.11950000 0.11950300 14230.59474992 0 -187.36920228 0 4830.01382169 0 784.98686204 0 2980.22694819 0 15270
0.12050000 0.12050700 14383.83572541 0 -21.47067723 0 4595.64592225 0 -227.16424491 0 2720.78023304 0 15999
0.12150000 0.12150000 14429.67515016 0 183.49056689 0 4709.90124206 0 -104.49174378 0 2620.73070598 0 15670
0.12250000 0.12250700 14003.50136789 0 385.59703351 0 4746.74993905 0 59.63997040 0 2502.86580828 0 16887
0.12350000 0.12352200 13795.34166130 0 291.98938503 0 4527.66184787 0 110.66500776 0 2157.78573298 0 16407
0.12450000 0.12449800 13541.78542295 0 214.30152517 0 4396.49908806 0 194.57617850 0 1531.21394382 0 16306
0.12550000 0.12549900 13431.94796075 0 186.68825430 0 4138.39212422 0 381.91991443 0 405.90589169 0 17523
0.12650000 0.12650100 13070.32583217 0 206.08143122 0 3628.06867333 0 -268.32229073 0 -113.71056142 0 17154
0.12750000 0.12750600 12804.59003652 0 248.55154753 0 3489.93034889 0 -183.53042726 0 -399.90358440 0 18007
0.12850000 0.12850300 12653.12063300 0 87.75182805 0 3412.98876372 0 -122.54516940 0 -776.20318676 0 17496
0.12950000 0.12949900 12581.92558442 0 259.59508430 0 3379.19602838 0 -43.54402109 0 -691.62723363 0 18405
0.13050000 0.13049000 12413.84769367 0 532.35405558 0 3939.83212324 0 -78.26273496 0 -391.98022876 0 18100
0.13150000 0.13148800 12098.39715959 0 354.09848386 0 4034.75516391 0 252.62948476 0 427.67408228 0 19059
0.13250000 0.13249300 11901.42050107 0 168.56507304 0 4697.02412829 0 90.69894875 0 1247.06487200 0 18957
0.13350000 0.13349100 11762.57354784 0 31.81333584 0 4443.00285230 0 526.70274100 0 1248.29390005 0 19468
0.13450000 0.13450700 11832.10774770 0 2.41396611 0 4930.26265060 0 409.52986360 0 1726.36366875 0 19953
0.13550000 0.13551000 11817.82444869 0 213.33934014 0 4553.83682374 0 436.71020657 0 1600.42704626 0 19956
0.13650000 0.13649900 11490.96942004 0 -49.27549931 0 4248.40674362 0 -7.17368174 0 1640.85210417 0 19723
0.13750000 0.13749600 11601.58194498 0 -58.23068490 0 3709.63849026 0 455.22202643 0 1070.69048827 0 20946
0.13850000 0.13851100 11590.62034341 0 -33.82429147 0 3654.42080639 0 -70.32343517 0 428.18894539 0 20955
0.13950000 0.13949800 11527.50809194 0 90.58423947 0 3252.99367009 0 -157.42299257 0 -435.31066471 0 20506
0.14050000 0.14048300 11389.65764795 0 259.57626135 0 3441.05710714 0 -462.49543660 0 -438.00677580 0 21447
0.14150000 0.14148400 11249.48201574 0 375.64190626 0 3487.64944998 0 -326.54721802 0 -345.50525257 0 21771
0.14250000 0.14249400 10960.64935053 0 284.86988017 0 3516.48178380 0 324.57191527 0 -166.63295236 0 22470
0.14350000 0.14350900 10743.13352946 0 176.99775562 0 3575.87373413 0 661.20823566 0 231.06723941 0 22519
0.14450000 0.14449900 10760.39528386 0 -59.81458097 0 3487.10690606 0 777.26280825 0 -219.84986713 0 22218
0.14550000 0.14550500 10672.33708457 0 90.52765989 0 3158.59102869 0 390.19204831 0 74.45828415 0 23559
0.14650000 0.14650700 10568.03578478 0 244.04289686 0 3005.15075135 0 -75.81752275 0 113.70502526 0 23044
0.14750000 0.14750500 10431.13756072 0 251.56432711 0 3230.19575329 0 -497.37879595 0 599.39587513 0 23649
0.14850000 0.14849900 10247.59163220 0 189.66117352 0 3511.78711808 0 -659.74890325 0 517.91685125 0 23640
0.14950000 0.14949500 10211.19690053 0 216.91459382 0 3679.47747746 0 -164.12507079 0 404.06234961 0 24457
0.15050000 0.15050000 10170.81613191 0 15.25046659 0 3688.04745687 0 114.76021782 0 604.64637156 0 24591
0.15150000 0.15149900 10211.77266142 0 -187.39245416 0 3473.49901886 0 377.40462037 0 555.25826670 0 25020
0.15250000 0.15250500 10264.36620430 0 -44.83040379 0 3580.83413565 0 619.73573582 0 186.08370537 0 25297
0.15350000 0.15350100 10445.15512394 0 210.45278506 0 3455.78329915 0 210.12725871 0 196.19495239 0 25452
0.15450000 0.15450400 9864.33418093 0 392.57370538 0 3164.71402432 0 -103.26171921 0 270.27877052 0 26061
0.15550000 0.15549900 9855.94135872 0 411.47748554 0 3120.34721877 0 13.03555873 0 648.45070300 0 26128
0.15650000 0.15649500 9395.11119977 0 137.28354096 0 3078.95886859 0 318.69693972 0 721.32210157 0 26331
0.15750000 0.15749700 9314.02856512 0 201.95920469 0 2993.10406195 0 453.09503283 0 484.73862993 0 27345
0.15850000 0.15849900 9050.31900491 0 171.11945837 0 2847.83516033 0 180.83099447 0 138.65318754 0 26980
0.15950000 0.15949700 8812.09793644 0 230.15709431 0 2905.80985308 0 -13.90595419 0 296.32309296 0 27777
0.16050000 0.16050000 8835.34981856 0 82.00086254 0 2759.89875662 0 -21.62591122 0 206.78784555 0 28224
0.16150000 0.16150500 8705.29429124 0 -1.76780738 0 2869.72514650 0 -31.07204369 0 444.83840022 0 28075
0.16250000 0.16249700 8787.56166464 0 -42.85366164 0 2545.59390976 0 150.76963259 0 303.62529118 0 28590
0.16350000 0.16349900 8856.08828295 0 -72.27781123 0 2570.49556827 0 197.27893299 0 52.48470194 0 29163
0.16450000 0.16449100 9021.23200762 0 -51.31978264 0 2411.07623553 0 326.12204074 0 -58.00868479 0 28996
0.16550000 0.16550500 8800.51628468 0 5.23051088 0 2233.62008567 0 62.45588405 0 -120.46467956 0 30777
0.16650000 0.16650700 8899.34785601 0 114.73918040 0 2186.57377751 0 127.62293756 0 -74.38719983 0 29211
0.16750000 0.16749900 8779.45672288 0 44.87004271 0 1969.58942804 0 254.18071747 0 -252.67488129 0 30922
0.16850000 0.16850800 8671.67871309 0 106.08582638 0 1711.27209002 0 287.36668941 0 -419.67875653 0 30867
0.16950000 0.16949900 8589.87637733 0 168.49310293 0 1647.47335442 0 140.30960733 0 -646.10004845 0 30852
0.17050000 0.17049200 8348.04573097 0 284.70933146 0 1491.88504606 0 -211.93979828 0 -332.34579452 0 31257
0.17150000 0.17149500 8156.45022231 0 236.65322728 0 1707.83966933 0 -272.03816293 0 -215.11755551 0 32608
0.17250000 0.17250900 8024.67848464 0 170.65331350 0 1864.76772898 0 -212.09923976 0 -190.05534828 0 32361
0.17350000 0.17350400 8051.83889742 0 148.01594541 0 2106.11119305 0 24.50593363 0 -187.90067387 0 32508
0.17450000 0.17449800 7887.30415061 0 84.02388701 0 2272.80504320 0 5.77400702 0 -151.87354337 0 32791
0.17550000 0.17549800 8011.69064763 0 96.30154511 0 2499.89842523 0 -21.43436000 0 155.38347034 0 33633
0.17650000 0.17650100 7867.57326779 0 -2.63854608 0 2472.27297481 0 89.27892309 0 -2.82022078 0 33984
0.17750000 0.17750300 7900.05946880 0 6.83152476 0 2521.83270069 0 -32.56891128 0 368.29098982 0 34069
0.17850000 0.17849800 7994.57283346 0 104.73511348 0 2656.69361699 0 308.78388731 0 287.03009074 0 34536
