### header ###
fiducial parameters:
Omega_m = 0.31
Omega_nu = 0
Omega_de = 0.69
Omega_k = 0
H_0 = 100
w_de = -1
zeff = 0
beta = 0
fgrowth = 0
b_1 = 2
gamma = 0.55
Lx = 3500 Ly = 3500 Lz = 3500
nx = 700 ny = 700 nz = 700
xoffset = -685.467585 yoffset = -31.7331281 zoffset = 572.489161
bins = 400 dk = 0.001
kx_ny = 0.628318531 ky_ny = 0.628318531 kz_ny = 0.628318531
############################
A(data) = 7.97028184 (not used)
A(ran) = 7.96145862 (used)
Ngal = 473345
weighted Ngal = 0
Nran = 23820508
weighted Nran = 0
SN(data) = 3494.99899
SN(ran) = 69.3471919
SN(data+ran) = 3564.34618
############################
13 columns: k_central k_mean P_0(k) sigma^{lin}_{P_0(k)} P^img_1(k) sigma^{lin}_{P_1(k)} P_2(k) sigma^{lin}_{P_2(k)} P^img_3(k) sigma^{lin}_{P_3(k)} P_4(k) sigma^{lin}_{P_4(k)} N_modes
### header ###
0.00050000 0 0 0 0 0 0 0 0 0 0 0 0
0.00150000 0.00179520 33810.89395921 0 -37677.01761614 0 -17049.83009524 0 21490.27524051 0 -121311.71241053 0 3
0.00250000 0.00253879 66470.48758378 0 -45984.80437406 0 -4317.19909771 0 -47055.83035377 0 77210.19976487 0 6
0.00350000 0.00331552 73266.68055746 0 -10966.05264504 0 2997.93159557 0 -69654.55603188 0 18758.62198450 0 7
0.00450000 0.00420575 73052.76324197 0 24198.67661440 0 13216.81268952 0 -63721.11860806 0 48498.22210790 0 24
0.00550000 0.00557378 48989.39043685 0 5996.90398968 0 9309.02387430 0 -9657.73567214 0 23099.08403666 0 45
0.00650000 0.00659388 38507.88487053 0 -9210.63519596 0 7630.65873364 0 -1958.41745230 0 -7910.91034713 0 40
0.00750000 0.00754703 77271.31899787 0 -32012.85913191 0 15771.08730194 0 9098.04072488 0 -52484.48048911 0 57
0.00850000 0.00846663 80448.41188133 0 -16098.93883982 0 17241.38131460 0 -20629.95560210 0 -45256.90974049 0 75
0.00950000 0.00948925 92808.11590665 0 10209.63570273 0 11697.02538491 0 -26165.89656493 0 -27128.19231492 0 112
0.01050000 0.01054430 76547.41040123 0 3244.72264345 0 8401.99009748 0 -14364.01626398 0 5000.22867113 0 105
0.01150000 0.01145670 90516.91973192 0 -560.18212955 0 11138.75876756 0 -2759.11262156 0 -10875.44781105 0 144
0.01250000 0.01249090 85629.26338723 0 1270.56034526 0 13463.72553298 0 2760.10913079 0 -13759.35660564 0 169
0.01350000 0.01339930 83449.23335368 0 8042.11739623 0 10219.13575742 0 17012.07346761 0 -18002.05002964 0 180
0.01450000 0.01448870 78108.27603091 0 7179.50578658 0 14685.55657672 0 12121.09542547 0 5787.10557901 0 267
0.01550000 0.01550050 75697.72019465 0 5891.61725298 0 17102.97725437 0 28522.64090258 0 35494.77311763 0 238
0.01650000 0.01653350 72546.20438152 0 -8564.47646420 0 13045.63454783 0 11279.37729276 0 26363.75900944 0 315
0.01750000 0.01747870 75188.39325299 0 2578.22405100 0 11134.44056088 0 16919.95172512 0 22366.31758016 0 297
0.01850000 0.01844180 82126.53343085 0 -1404.53547557 0 9330.18308703 0 1228.81768070 0 32508.89928379 0 388
0.01950000 0.01947590 77209.31397889 0 -1964.87261767 0 16173.56630909 0 -891.23246207 0 38570.33278251 0 399
0.02050000 0.02045430 79016.53883579 0 1521.10491126 0 29792.19366628 0 -1261.94607656 0 24025.83762398 0 462
0.02150000 0.02154770 79087.51243788 0 1131.44765624 0 28583.31724258 0 -377.79990237 0 12073.04153576 0 571
0.02250000 0.02255340 74453.41233153 0 4443.74469807 0 33985.61524485 0 -9216.07170745 0 6098.58114849 0 510
0.02350000 0.02348930 75944.07942186 0 6462.96028594 0 36355.31420254 0 -10703.64961916 0 -3002.30516388 0 555
0.02450000 0.02439640 71467.09560469 0 6041.69154357 0 36146.60087970 0 -10949.13413271 0 -5435.09422838 0 592
0.02550000 0.02547300 66737.10916541 0 838.81718361 0 38452.08035344 0 -6962.84253453 0 -15711.62891766 0 837
0.02650000 0.02652900 66814.39399265 0 4538.01447157 0 35568.29335443 0 -1275.05570914 0 -30214.93502786 0 723
0.02750000 0.02749970 61618.04123201 0 4755.76281146 0 29698.30035182 0 10014.03201248 0 -22270.32052398 0 826
0.02850000 0.02848090 57519.95237013 0 3016.80990939 0 29319.07322678 0 2720.61414816 0 -23314.88364738 0 831
0.02950000 0.02946900 55811.27120412 0 1415.43064319 0 21025.12687488 0 7750.84881955 0 -21439.89616259 0 996
0.03050000 0.03053250 53537.45857936 0 39.44227836 0 22575.36307274 0 16372.75743258 0 -18995.45901237 0 1041
0.03150000 0.03150510 55544.87106898 0 773.47385869 0 14125.62911064 0 7471.79301714 0 -5044.40724715 0 1036
0.03250000 0.03246190 57882.23883820 0 -3712.41764379 0 19788.79108563 0 2536.40388016 0 -10429.05596366 0 1059
0.03350000 0.03345080 57854.89019589 0 -758.36013532 0 12331.02670403 0 1564.34233968 0 -3288.90121948 0 1302
0.03450000 0.03451200 57913.90568718 0 5647.43927375 0 19917.11933028 0 -6374.56991692 0 -634.03675056 0 1339
0.03550000 0.03553350 52761.39933282 0 3737.83970158 0 13187.69247525 0 -1749.59340622 0 599.28183018 0 1365
0.03650000 0.03647120 53045.95808066 0 -416.74791215 0 24616.76759955 0 -1146.82711542 0 567.92943523 0 1308
0.03750000 0.03744890 50399.11883276 0 329.43266586 0 18376.07316202 0 3947.79312479 0 -2992.62795198 0 1579
0.03850000 0.03847530 49902.96795764 0 1069.54560988 0 16674.47828389 0 8576.62280452 0 -4839.05991107 0 1662
0.03950000 0.03950240 49525.29095807 0 294.80175553 0 13907.28286521 0 4231.61002687 0 26.97085458 0 1683
0.04050000 0.04050350 47563.16427696 0 2533.32577386 0 16422.47217102 0 1154.05734352 0 1907.51797511 0 1822
0.04150000 0.04152450 45787.71699229 0 2849.87246810 0 16789.85190850 0 928.98133907 0 6738.43972743 0 1887
0.04250000 0.04250150 43689.40071591 0 2909.55229887 0 16365.22825170 0 2017.59902845 0 11499.93800314 0 1920
0.04350000 0.04349210 43375.83247705 0 -731.63597213 0 15122.24906756 0 2134.61135714 0 5918.66694251 0 2005
0.04450000 0.04448520 44596.33484181 0 -318.96488998 0 15272.94340834 0 281.66444213 0 3885.35628514 0 2151
0.04550000 0.04548030 43182.28823922 0 2123.16257327 0 17000.55824980 0 -1358.43031503 0 320.79514527 0 2274
0.04650000 0.04648670 41975.73700373 0 1495.57213023 0 14554.57097411 0 -4286.32945612 0 -2232.80073363 0 2311
0.04750000 0.04749250 39875.75987862 0 3233.79425886 0 17774.84592437 0 -1480.89022752 0 521.85638442 0 2568
0.04850000 0.04851840 37429.32970994 0 1986.22005992 0 16581.69220191 0 732.54058107 0 -1822.38286958 0 2493
0.04950000 0.04949480 36906.05163902 0 -343.68496237 0 16489.90262916 0 4264.66091645 0 -3235.73191570 0 2644
0.05050000 0.05050630 36520.18111909 0 -512.37404545 0 14754.75860683 0 3192.25089614 0 -3503.38322354 0 2829
0.05150000 0.05149060 36868.40573463 0 343.23764045 0 15777.50925033 0 2177.66055603 0 -5863.01743797 0 2784
0.05250000 0.05249300 35445.27982569 0 1788.00330101 0 14883.41902122 0 -692.88726420 0 -3671.54969289 0 3055
0.05350000 0.05348950 35492.89082241 0 388.38947383 0 13747.61994133 0 -1806.64909601 0 -1041.65995982 0 3009
0.05450000 0.05448610 34836.96630016 0 -775.85551576 0 13506.46470678 0 -69.32393641 0 -4351.95512532 0 3336
0.05550000 0.05550870 37082.43377338 0 56.69406766 0 14426.24272946 0 -986.89956297 0 -5690.11201360 0 3349
0.05650000 0.05647670 35659.97220393 0 690.14575657 0 13738.31918848 0 856.82410546 0 -5611.98568968 0 3324
0.05750000 0.05747970 34994.30403583 0 -11.48388313 0 12311.98230534 0 1376.25675798 0 -6650.65833627 0 3639
0.05850000 0.05849280 35775.78872153 0 -102.06059342 0 11914.15367461 0 3169.66335351 0 -5056.84146792 0 3846
0.05950000 0.05951020 34964.85165181 0 380.78832284 0 10018.13984499 0 2294.17463010 0 -6639.74102400 0 3787
0.06050000 0.06049470 34705.42708131 0 153.57978863 0 10189.05225089 0 1370.53236605 0 -4073.47508381 0 3930
0.06150000 0.06148310 34595.25744936 0 789.27960237 0 9163.88784058 0 414.88443988 0 -6899.58634284 0 4083
0.06250000 0.06249100 33252.73806510 0 1884.66469668 0 10061.77587710 0 -1832.13758774 0 -2401.50974689 0 4303
0.06350000 0.06350600 31108.47164072 0 2483.33422730 0 10676.26775988 0 -1449.56662061 0 -1928.69933248 0 4470
0.06450000 0.06451750 30241.61933067 0 1343.71519534 0 11421.87811317 0 258.61850525 0 -537.26352441 0 4479
0.06550000 0.06550280 29322.72709397 0 -359.41762871 0 10516.81521017 0 2916.07389819 0 -547.49324531 0 4636
0.06650000 0.06648880 29420.16355238 0 -470.39000420 0 9836.26583752 0 2367.82773479 0 -1777.90534078 0 4653
0.06750000 0.06749660 30113.84470227 0 -377.24185720 0 9442.03571235 0 2054.10448338 0 -2507.64905260 0 5220
0.06850000 0.06852730 29886.64059699 0 -304.34388506 0 8798.08037322 0 -532.85673913 0 -2641.42488106 0 5029
0.06950000 0.06949320 29846.00516490 0 993.98806532 0 9663.92510171 0 -1325.72266751 0 -1820.82167178 0 5040
0.07050000 0.07048030 29771.82058862 0 853.50794418 0 10997.17695010 0 -1827.22147552 0 -3220.08672073 0 5475
0.07150000 0.07148790 28923.23761452 0 1179.98872825 0 10972.18671299 0 -1755.49495535 0 -1695.15078509 0 5509
0.07250000 0.07249820 27863.83757587 0 1472.01022301 0 12539.18641062 0 -402.75913698 0 45.58022163 0 5916
0.07350000 0.07351270 27421.49819936 0 807.77038482 0 13393.08410063 0 792.76959916 0 519.66295688 0 5721
0.07450000 0.07449140 26974.61916968 0 927.78220630 0 13098.67098371 0 2042.75535044 0 1729.96217431 0 6028
0.07550000 0.07549160 25808.70336628 0 225.81231405 0 12386.27760488 0 1626.50237121 0 142.23508462 0 6183
0.07650000 0.07648840 25873.03357348 0 173.54983367 0 12299.02768530 0 1774.25147359 0 1422.40620783 0 6330
0.07750000 0.07749960 25661.44144619 0 278.55644056 0 10540.48784063 0 760.82704929 0 452.42847888 0 6583
0.07850000 0.07848650 24780.85945336 0 460.20567983 0 10485.25908444 0 1770.14364108 0 1141.44596555 0 6549
0.07950000 0.07947320 24793.26045716 0 66.51975943 0 8901.44052540 0 669.77046444 0 821.69604774 0 6828
0.08050000 0.08048110 24412.48320665 0 1.67166638 0 8375.70439836 0 2256.79446151 0 576.65442718 0 7147
0.08150000 0.08149960 23788.44697987 0 607.05460220 0 6934.08770698 0 1576.04578701 0 -166.77135642 0 7386
0.08250000 0.08250610 23306.24723402 0 915.63365151 0 7195.11776458 0 885.73948173 0 -463.75435994 0 7227
0.08350000 0.08350160 22251.94046479 0 896.76751725 0 6853.70262879 0 -279.03365775 0 460.36955024 0 7798
0.08450000 0.08449610 21700.87085856 0 978.97510010 0 6846.57205161 0 135.87403401 0 2142.55021403 0 7371
0.08550000 0.08548940 21081.59573145 0 164.49377920 0 8256.92049771 0 -1066.53172306 0 1676.78179821 0 8256
0.08650000 0.08650700 21148.14040361 0 549.14745064 0 8581.09602375 0 -114.17670630 0 1488.49691467 0 8037
0.08750000 0.08749060 20878.41857103 0 669.51137204 0 9527.62478320 0 -640.57938729 0 1144.90053090 0 8155
0.08850000 0.08849210 20109.22416588 0 467.38497524 0 8956.37032883 0 550.65993021 0 1975.19202440 0 8718
0.08950000 0.08949900 20237.44168728 0 155.63370488 0 8736.98328487 0 1115.19348341 0 1886.14838821 0 8571
0.09050000 0.09049190 20153.51346516 0 -500.85439871 0 8355.72992439 0 1200.27322732 0 2176.14364753 0 8932
0.09150000 0.09150830 20498.85927625 0 -59.72334501 0 7982.37113151 0 738.94038482 0 914.07023924 0 9285
0.09250000 0.09250820 20012.78421671 0 639.11119702 0 7352.46657257 0 349.16576316 0 1006.18644557 0 9204
0.09350000 0.09350330 19771.73970541 0 583.32993182 0 7719.52521264 0 -196.81832428 0 357.22530839 0 9349
0.09450000 0.09448040 19089.35232684 0 -30.42475558 0 6495.72329508 0 870.02231665 0 1905.71318616 0 9564
0.09550000 0.09549270 19223.21673389 0 -56.79670811 0 6342.11693287 0 780.13275484 0 157.41302748 0 10155
0.09650000 0.09649430 19172.17331648 0 196.67992022 0 6300.28568971 0 720.24365713 0 210.17154801 0 9913
0.09750000 0.09749140 18564.19196069 0 426.23800175 0 5943.50216708 0 552.68173672 0 -83.84905500 0 10476
0.09850000 0.09850240 17877.70782193 0 1225.67314045 0 5668.35489533 0 -247.26715785 0 798.65564703 0 10575
0.09950000 0.09950330 17168.41469405 0 913.52326639 0 5800.14877765 0 -336.97624076 0 773.10847197 0 10882
0.10050000 0.10051200 16373.08960233 0 621.71436026 0 5867.22492140 0 -304.65391015 0 554.16985717 0 10875
0.10150000 0.10150300 16365.00680521 0 283.93648318 0 5880.48956653 0 -83.16755341 0 243.71183435 0 11118
0.10250000 0.10250800 16081.44456660 0 14.84599456 0 5880.72208535 0 531.62660384 0 170.24806641 0 11575
0.10350000 0.10349800 15762.11871883 0 -91.30704083 0 5400.36034542 0 206.92624961 0 554.75336869 0 11364
0.10450000 0.10450100 15949.35173152 0 70.80740649 0 5259.18820398 0 412.26140614 0 -948.93034670 0 12093
0.10550000 0.10551000 15899.63699308 0 240.94818208 0 5298.24029362 0 571.03079341 0 47.87894698 0 12067
0.10650000 0.10649700 15348.01377061 0 381.77154528 0 4561.33278764 0 489.38125573 0 -87.82291238 0 12054
0.10750000 0.10749900 15199.42317155 0 293.34020865 0 4725.30284588 0 705.97807383 0 609.38754104 0 12807
0.10850000 0.10850100 15235.07605746 0 -60.86623038 0 4649.39098692 0 438.84162909 0 10.53942490 0 12736
0.10950000 0.10950300 15099.32935519 0 160.23647031 0 4746.21846746 0 470.36121616 0 503.63576670 0 12933
0.11050000 0.11050200 14946.19910295 0 -36.37159052 0 4020.87046859 0 259.94054084 0 951.01083653 0 13428
0.11150000 0.11150900 15276.15438254 0 23.83284700 0 4153.25118412 0 301.37871647 0 1089.50126090 0 13453
0.11250000 0.11250000 15201.96980626 0 -158.94211554 0 4168.73029422 0 14.92981206 0 1433.50067730 0 13668
0.11350000 0.11349100 15149.81915636 0 249.03872982 0 4238.88454427 0 -91.12866568 0 846.36629467 0 13791
0.11450000 0.11448600 15022.81959069 0 517.45734977 0 4351.18006258 0 -380.18045221 0 1351.20008692 0 14205
0.11550000 0.11549300 14700.83638496 0 455.35489433 0 5225.04115424 0 -145.28993904 0 1220.80131753 0 14776
0.11650000 0.11649800 14319.83768796 0 354.68199538 0 5280.50242926 0 -60.93919700 0 2168.13835669 0 14553
0.11750000 0.11747300 13949.80059252 0 324.64388538 0 5715.48978209 0 -34.97481674 0 1527.72616150 0 14568
0.11850000 0.11849100 14066.61361935 0 79.02395729 0 5401.01361259 0 231.37947897 0 2014.28840333 0 16015
0.11950000 0.11950300 13918.02302029 0 -166.78796491 0 5518.61277449 0 317.56756259 0 1497.38799150 0 15270
0.12050000 0.12050700 14097.72685209 0 -76.41487467 0 5308.08359038 0 -89.27084030 0 1242.24841070 0 15999
0.12150000 0.12150000 14041.47944201 0 227.49420019 0 5427.74220470 0 108.72247909 0 767.99970130 0 15670
0.12250000 0.12250700 13985.67492493 0 264.87436878 0 5083.16038402 0 -95.84868703 0 290.56991298 0 16887
0.12350000 0.12352200 13725.36456844 0 264.18345571 0 4737.03951019 0 -163.41090584 0 488.88743004 0 16407
0.12450000 0.12449800 13421.31852892 0 244.31306159 0 4905.07311163 0 468.90409821 0 -388.45701501 0 16306
0.12550000 0.12549900 13380.35092709 0 158.45936218 0 4620.84653354 0 124.06429236 0 -124.55258188 0 17523
0.12650000 0.12650100 13068.33281370 0 436.55076509 0 4635.47307463 0 220.58396227 0 -98.70169296 0 17154
0.12750000 0.12750600 12787.98154930 0 94.95138582 0 4274.02810325 0 209.28686926 0 127.19554582 0 18007
0.12850000 0.12850300 12741.25633856 0 64.04697713 0 4285.96406940 0 430.43994902 0 -116.55393444 0 17496
0.12950000 0.12949900 12784.32768211 0 -59.32562710 0 4246.28085725 0 214.87728606 0 117.18616418 0 18405
0.13050000 0.13049000 12495.34000434 0 321.42848225 0 4139.57686297 0 339.69006758 0 126.37287209 0 18100
0.13150000 0.13148800 12365.57235746 0 164.16936009 0 3543.11072499 0 364.87849931 0 116.35131089 0 19059
0.13250000 0.13249300 12355.60726513 0 -61.00507733 0 3594.96242212 0 743.53539962 0 402.20662797 0 18957
0.13350000 0.13349100 12271.45759651 0 95.32485534 0 3470.78629928 0 283.85344075 0 216.84594541 0 19468
0.13450000 0.13450700 12141.57922638 0 194.64593415 0 3375.40929329 0 300.78966879 0 51.95234456 0 19953
0.13550000 0.13551000 12063.07644342 0 148.69578615 0 3138.18473405 0 134.27961924 0 201.42994757 0 19956
0.13650000 0.13649900 11900.97760807 0 233.05915064 0 3381.20011917 0 -216.62006998 0 196.03108198 0 19723
0.13750000 0.13749600 11665.46925918 0 212.25978847 0 3284.47228955 0 84.01170745 0 737.23524679 0 20946
0.13850000 0.13851100 11642.66027005 0 130.55488917 0 3643.73601294 0 -154.85532045 0 511.17159097 0 20955
0.13950000 0.13949800 11477.46118376 0 178.25667895 0 3537.31989911 0 -68.26896530 0 458.47839716 0 20506
0.14050000 0.14048300 11534.37293333 0 88.16715096 0 3688.65643473 0 416.25076477 0 422.62953110 0 21447
0.14150000 0.14148400 11286.57430389 0 88.98008105 0 3445.08743337 0 -47.70234340 0 736.49340103 0 21771
0.14250000 0.14249400 11310.82269524 0 213.31276656 0 3517.43400374 0 31.52080502 0 333.14078745 0 22470
0.14350000 0.14350900 11124.91836153 0 192.44143428 0 3483.01014588 0 317.21878436 0 635.70977884 0 22519
0.14450000 0.14449900 10854.69827434 0 303.59428867 0 3087.07488269 0 73.13436628 0 749.13799597 0 22218
0.14550000 0.14550500 10721.15496470 0 55.55727207 0 3156.67551650 0 238.34286405 0 631.63516330 0 23559
0.14650000 0.14650700 10626.27621333 0 -48.91011259 0 3126.03839372 0 300.62136945 0 651.15899365 0 23044
0.14750000 0.14750500 10616.93117118 0 208.95248505 0 2993.65767819 0 285.53754135 0 153.00956390 0 23649
0.14850000 0.14849900 10551.78161195 0 162.62809247 0 3131.81814728 0 -254.14750049 0 672.13440579 0 23640
0.14950000 0.14949500 10314.71206526 0 150.62790683 0 3026.99644822 0 -160.77569253 0 878.97982743 0 24457
0.15050000 0.15050000 10299.27724446 0 130.36223072 0 3158.64639031 0 19.66721696 0 652.08353278 0 24591
0.15150000 0.15149900 10156.62141149 0 75.18883615 0 3171.41278083 0 465.02103390 0 346.63795140 0 25020
0.15250000 0.15250500 10025.44757937 0 331.45115068 0 3009.11464364 0 253.33922078 0 424.06007546 0 25297
0.15350000 0.15350100 9734.42259383 0 410.34700117 0 2843.14049461 0 160.54870987 0 396.03048518 0 25452
0.15450000 0.15450400 9439.32299277 0 183.62675649 0 2677.17741790 0 -31.15752204 0 517.33666143 0 26061
0.15550000 0.15549900 9316.19874078 0 159.06391111 0 2660.48035207 0 87.48144188 0 456.21964290 0 26128
0.15650000 0.15649500 9255.33417126 0 -38.23650219 0 2697.84944834 0 234.50630350 0 330.94514543 0 26331
0.15750000 0.15749700 9220.24597391 0 -149.47527782 0 2391.23462946 0 100.49618464 0 112.14161300 0 27345
0.15850000 0.15849900 9561.17392740 0 -177.14280308 0 2299.31218881 0 208.40661943 0 236.65876344 0 26980
0.15950000 0.15949700 9660.27123452 0 -147.76460363 0 2263.86967707 0 166.55544608 0 50.25340704 0 27777
0.16050000 0.16050000 9794.84427037 0 255.39645873 0 2399.59423470 0 -82.44453060 0 46.04370914 0 28224
0.16150000 0.16150500 9407.81115633 0 420.42724569 0 2324.25813663 0 -171.18810679 0 323.76252832 0 28075
0.16250000 0.16249700 9092.90316617 0 423.52749664 0 2425.99065706 0 -193.31061178 0 358.24285504 0 28590
0.16350000 0.16349900 8805.75349432 0 278.76460026 0 2394.51203761 0 160.45680957 0 357.01271975 0 29163
0.16450000 0.16449100 8560.62329516 0 8.28941777 0 2415.10656177 0 410.42340022 0 426.57460043 0 28996
0.16550000 0.16550500 8674.11462455 0 -18.32381179 0 2148.16388272 0 400.73290153 0 184.78713613 0 30777
0.16650000 0.16650700 8535.37839457 0 20.23500578 0 2035.66906256 0 397.25065538 0 488.26737985 0 29211
0.16750000 0.16749900 8550.24852681 0 51.40802907 0 1829.15913237 0 65.58890908 0 353.04329131 0 30922
0.16850000 0.16850800 8494.00111673 0 194.33258736 0 1922.01164829 0 147.43797005 0 716.63850817 0 30867
0.16950000 0.16949900 8373.72245222 0 161.02260537 0 1926.87239889 0 -132.63537900 0 723.47788321 0 30852
0.17050000 0.17049200 8148.90996910 0 85.45476355 0 1885.09651735 0 -59.49071546 0 425.23042020 0 31257
0.17150000 0.17149500 8137.43904059 0 188.45871904 0 2078.50788728 0 -32.02703171 0 420.09396871 0 32608
0.17250000 0.17250900 7969.49401774 0 108.51166203 0 1941.52108462 0 7.80657583 0 358.89501497 0 32361
0.17350000 0.17350400 8044.26542724 0 -59.69931806 0 1800.02784577 0 70.43670506 0 313.22056786 0 32508
0.17450000 0.17449800 8038.97285598 0 -79.26976290 0 1687.59945956 0 126.33301172 0 154.09133004 0 32791
0.17550000 0.17549800 8151.29051894 0 67.23359221 0 1660.79336117 0 146.50568030 0 174.91062239 0 33633
0.17650000 0.17650100 8020.09454216 0 90.93434638 0 1449.79913943 0 113.06061596 0 273.53957018 0 33984
0.17750000 0.17750300 7995.75757221 0 71.70515059 0 1437.82995630 0 157.43849383 0 426.82926390 0 34069
0.17850000 0.17849800 7972.95965541 0 116.51407407 0 1338.73264917 0 301.69981389 0 220.06688470 0 34536
