### header ###
fiducial parameters:
Omega_m = 0.31
Omega_nu = 0
Omega_de = 0.69
Omega_k = 0
H_0 = 100
w_de = -1
zeff = 0
beta = 0
fgrowth = 0
b_1 = 2
gamma = 0.55
Lx = 3500 Ly = 3500 Lz = 3500
nx = 700 ny = 700 nz = 700
xoffset = -685.467585 yoffset = -31.7331281 zoffset = 572.489161
bins = 400 dk = 0.001
kx_ny = 0.628318531 ky_ny = 0.628318531 kz_ny = 0.628318531
############################
A(data) = 8.02428697 (not used)
A(ran) = 8.01972742 (used)
Ngal = 476755
weighted Ngal = 0
Nran = 23820508
weighted Nran = 0
SN(data) = 3493.16408
SN(ran) = 69.8547343
SN(data+ran) = 3563.01881
############################
13 columns: k_central k_mean P_0(k) sigma^{lin}_{P_0(k)} P^img_1(k) sigma^{lin}_{P_1(k)} P_2(k) sigma^{lin}_{P_2(k)} P^img_3(k) sigma^{lin}_{P_3(k)} P_4(k) sigma^{lin}_{P_4(k)} N_modes
### header ###
0.00050000 0 0 0 0 0 0 0 0 0 0 0 0
0.00150000 0.00179520 48087.99247337 0 -57318.32533518 0 47577.33685273 0 -159254.35509907 0 75063.38670579 0 3
0.00250000 0.00253879 64255.69045031 0 -29624.44794528 0 -20539.49470833 0 -13455.08911962 0 -8651.16169520 0 6
0.00350000 0.00331552 79462.08918649 0 1441.14058142 0 36063.22627382 0 -50730.29206809 0 25357.83829966 0 7
0.00450000 0.00420575 66629.04327518 0 26404.17299503 0 21144.92942942 0 -5151.58735140 0 60869.99496726 0 24
0.00550000 0.00557378 65284.30942596 0 -7141.90417150 0 67320.84212985 0 44574.85453166 0 24223.58934524 0 45
0.00650000 0.00659388 59682.15596072 0 -10172.67628248 0 23927.84754934 0 25713.37064959 0 -42717.13987359 0 40
0.00750000 0.00754703 78753.57112134 0 15073.75228486 0 78326.73299959 0 46628.43861577 0 4987.83873965 0 57
0.00850000 0.00846663 67192.84605495 0 17050.49443473 0 46583.59570026 0 9973.97234129 0 23725.88834464 0 75
0.00950000 0.00948925 63581.27514560 0 3342.81236902 0 64733.57198948 0 23271.03724109 0 52418.04654019 0 112
0.01050000 0.01054430 64835.32665456 0 -3085.09293654 0 54153.74417877 0 42786.34190370 0 23371.13105745 0 105
0.01150000 0.01145670 66896.21847306 0 -6296.60967787 0 61036.63345578 0 32028.47110991 0 24583.55062510 0 144
0.01250000 0.01249090 76504.00688794 0 -9820.52099162 0 42218.33164051 0 45293.66985888 0 25276.67815874 0 169
0.01350000 0.01339930 85137.43071878 0 -10607.67470763 0 28324.55701157 0 22739.34420330 0 20269.55142925 0 180
0.01450000 0.01448870 81433.40589720 0 -551.95982114 0 13671.99596282 0 16385.49060612 0 12024.54475305 0 267
0.01550000 0.01550050 88729.51433645 0 1606.70505443 0 21917.66697851 0 12859.73021412 0 17478.99340521 0 238
0.01650000 0.01653350 77771.89880292 0 6347.58666133 0 8243.93266070 0 -5627.39836583 0 13646.75106223 0 315
0.01750000 0.01747870 77626.62990130 0 11604.35002618 0 13740.64437669 0 -12016.90484893 0 8970.97472526 0 297
0.01850000 0.01844180 68031.13176697 0 5915.88778898 0 10829.04369773 0 -402.02061291 0 8822.97095941 0 388
0.01950000 0.01947590 68582.97643593 0 4909.84528363 0 12196.27651099 0 5856.75050212 0 5669.06352412 0 399
0.02050000 0.02045430 62797.57599494 0 -2236.11135875 0 11185.37325504 0 6356.96492045 0 5898.64817924 0 462
0.02150000 0.02154770 70490.18438594 0 -2754.09685842 0 11892.45191796 0 9329.14228850 0 -509.20846778 0 571
0.02250000 0.02255340 69635.95452618 0 297.79239046 0 10370.46122072 0 -2096.25682397 0 2643.53969510 0 510
0.02350000 0.02348930 70693.80443936 0 4111.79640000 0 21246.46264800 0 -10706.82737638 0 2969.22105732 0 555
0.02450000 0.02439640 66964.97761018 0 5042.01562499 0 22463.75403857 0 -3501.52307297 0 11993.21007381 0 592
0.02550000 0.02547300 62947.71671948 0 4327.87281884 0 25515.28675858 0 -2933.85605185 0 9999.70442416 0 837
0.02650000 0.02652900 63837.04584891 0 2209.65957476 0 35247.63882768 0 -989.90016299 0 8691.92999518 0 723
0.02750000 0.02749970 60758.93954933 0 3514.43340371 0 41439.39358951 0 3070.87607148 0 1476.05162157 0 826
0.02850000 0.02848090 56742.45372136 0 6946.02367313 0 40817.79327420 0 1783.00968252 0 13978.69936029 0 831
0.02950000 0.02946900 52117.32219812 0 3197.54346740 0 35441.51523525 0 3016.01270200 0 16471.63329321 0 996
0.03050000 0.03053250 53579.20124393 0 -1863.40583303 0 35540.94471212 0 13814.49678323 0 24023.62315902 0 1041
0.03150000 0.03150510 54733.15893653 0 -3312.86173039 0 35886.40124647 0 11570.69015873 0 15533.25376483 0 1036
0.03250000 0.03246190 62089.16865304 0 -3607.59594474 0 34957.10102444 0 7816.00945111 0 17831.31478094 0 1059
0.03350000 0.03345080 57549.18330765 0 -629.21475310 0 25370.23930346 0 2865.87197746 0 16790.84841773 0 1302
0.03450000 0.03451200 59841.70816135 0 3086.47697715 0 28557.62944900 0 2194.18046466 0 14429.78587340 0 1339
0.03550000 0.03553350 56730.38488731 0 1445.70237925 0 26529.40098872 0 -399.45515525 0 18459.66921440 0 1365
0.03650000 0.03647120 58594.85366352 0 1994.75682235 0 26860.90639380 0 9474.80979381 0 7909.71453605 0 1308
0.03750000 0.03744890 53881.14354173 0 1038.06034703 0 22616.88429081 0 3184.11273740 0 11779.95709781 0 1579
0.03850000 0.03847530 51704.87809863 0 3501.32377113 0 21419.41236167 0 10803.80986947 0 2382.09996148 0 1662
0.03950000 0.03950240 50130.17206292 0 2608.38506380 0 17161.43912941 0 3259.80314986 0 8173.59018112 0 1683
0.04050000 0.04050350 47035.78944585 0 1427.07872890 0 17792.11875108 0 2939.10433381 0 10876.94257490 0 1822
0.04150000 0.04152450 45944.05821873 0 1034.00898337 0 14582.91612565 0 2149.59221262 0 7325.93728231 0 1887
0.04250000 0.04250150 46935.03129000 0 126.59985474 0 17287.33146260 0 1904.71667693 0 13578.21337160 0 1920
0.04350000 0.04349210 46609.94783333 0 -80.40932657 0 20953.15676356 0 -2891.17223967 0 9283.34715305 0 2005
0.04450000 0.04448520 46056.88520863 0 3041.65620628 0 19683.82544635 0 619.65712231 0 9502.78955863 0 2151
0.04550000 0.04548030 42945.89410434 0 1899.67876914 0 18509.49467608 0 1257.19604921 0 7625.04506496 0 2274
0.04650000 0.04648670 42794.64614732 0 542.49630512 0 18637.82292073 0 2259.73969991 0 6425.83478083 0 2311
0.04750000 0.04749250 41735.46755516 0 310.39933950 0 16744.89826974 0 3149.31242049 0 2961.71402109 0 2568
0.04850000 0.04851840 40143.93158573 0 1613.08271353 0 15116.93435165 0 1644.39524812 0 5671.25584444 0 2493
0.04950000 0.04949480 38015.38786260 0 1753.10333319 0 11622.95153188 0 1528.96626188 0 2936.96737512 0 2644
0.05050000 0.05050630 38790.89349289 0 -1097.23195809 0 10937.56355328 0 3382.11912213 0 1951.06542862 0 2829
0.05150000 0.05149060 38607.53579390 0 -195.06778972 0 9512.36711960 0 730.48998652 0 2029.31354811 0 2784
0.05250000 0.05249300 37639.59315825 0 112.98643138 0 9418.26343096 0 1582.33486751 0 -1695.67118435 0 3055
0.05350000 0.05348950 38065.43477078 0 703.91862142 0 7711.39812622 0 2330.24826436 0 4091.63369651 0 3009
0.05450000 0.05448610 37588.77118733 0 984.02850914 0 5763.76511830 0 2482.32664574 0 1137.12775887 0 3336
0.05550000 0.05550870 36220.01039325 0 134.44791858 0 6200.29152427 0 2277.66579379 0 2810.67643824 0 3349
0.05650000 0.05647670 37194.04280755 0 -267.67123803 0 4467.01872483 0 -1037.21442141 0 1354.59929064 0 3324
0.05750000 0.05747970 37244.97550171 0 595.48623723 0 7203.83168421 0 -1129.37713150 0 5498.53864959 0 3639
0.05850000 0.05849280 37093.28465170 0 273.37237807 0 7635.87379863 0 -1851.32592665 0 3509.42871289 0 3846
0.05950000 0.05951020 37209.54406229 0 569.31458306 0 9980.52715758 0 -1479.07436625 0 2671.60803852 0 3787
0.06050000 0.06049470 36055.91853944 0 1623.00351657 0 11803.20897993 0 -1790.19562133 0 4977.09858458 0 3930
0.06150000 0.06148310 34476.45140406 0 2990.55742724 0 12900.36564620 0 906.48126781 0 6029.06909327 0 4083
0.06250000 0.06249100 32017.62023158 0 1474.56793005 0 12035.17418488 0 1569.50204304 0 4796.80791956 0 4303
0.06350000 0.06350600 30753.82507678 0 821.53439180 0 11664.14058020 0 1900.42061490 0 3458.51816338 0 4470
0.06450000 0.06451750 30683.84798393 0 553.24421082 0 11523.74350150 0 1588.23641664 0 4417.78009637 0 4479
0.06550000 0.06550280 30424.53413668 0 -486.65967829 0 11528.61532442 0 1513.85253850 0 3335.27211582 0 4636
0.06650000 0.06648880 30688.16619061 0 -103.42691830 0 9517.25001484 0 -546.45576847 0 4279.20995126 0 4653
0.06750000 0.06749660 30478.23491205 0 2.20751154 0 10953.92844936 0 -109.27853124 0 4278.18022505 0 5220
0.06850000 0.06852730 31034.50851094 0 244.68619893 0 11401.94792850 0 749.37937266 0 4002.97759169 0 5029
0.06950000 0.06949320 30650.74173272 0 729.90204607 0 11257.89698261 0 1320.08685418 0 4183.52292018 0 5040
0.07050000 0.07048030 29823.08545253 0 1100.81828410 0 11356.88356649 0 2139.67140958 0 4656.90909547 0 5475
0.07150000 0.07148790 28973.83813894 0 497.89476628 0 9783.10760606 0 1651.73619947 0 4711.52887380 0 5509
0.07250000 0.07249820 28577.55963368 0 411.09991926 0 9400.87988100 0 1.43289170 0 2024.84032889 0 5916
0.07350000 0.07351270 28047.97033760 0 607.52517601 0 8908.85898303 0 -924.58451889 0 2336.85844227 0 5721
0.07450000 0.07449140 27887.31090448 0 837.89818065 0 9581.74630691 0 -1068.38633747 0 954.70124240 0 6028
0.07550000 0.07549160 26678.98809702 0 837.38110308 0 8350.30448523 0 -1369.15939777 0 -283.27325093 0 6183
0.07650000 0.07648840 26654.07536618 0 442.02602971 0 8831.48557720 0 196.05101217 0 -476.13432632 0 6330
0.07750000 0.07749960 26594.17408891 0 -476.18193731 0 8839.05904737 0 469.98254265 0 -2413.86646139 0 6583
0.07850000 0.07848650 26226.57290493 0 321.37201340 0 9182.64435882 0 182.89819752 0 -3792.33768434 0 6549
0.07950000 0.07947320 25700.19458306 0 1303.24584813 0 7958.34418665 0 -262.52039252 0 -2841.91146655 0 6828
0.08050000 0.08048110 24579.89675791 0 1220.65737731 0 9215.61774213 0 -50.71778034 0 12.33822372 0 7147
0.08150000 0.08149960 24113.30899005 0 527.76679141 0 9988.88676282 0 -125.15380912 0 168.82416544 0 7386
0.08250000 0.08250610 23765.41654425 0 476.00810181 0 10423.48658427 0 989.87026772 0 1292.21781261 0 7227
0.08350000 0.08350160 23120.23217706 0 535.59713952 0 10583.08307421 0 1028.23365875 0 1252.57888976 0 7798
0.08450000 0.08449610 22887.04901638 0 225.63294239 0 10079.60232006 0 2194.84480415 0 1795.76500071 0 7371
0.08550000 0.08548940 22650.76560475 0 -122.73118445 0 9445.56778397 0 1275.98578443 0 2833.58507829 0 8256
0.08650000 0.08650700 22620.64888125 0 14.94774923 0 8597.81523423 0 1206.41836759 0 1267.92513196 0 8037
0.08750000 0.08749060 21881.57119960 0 622.51710381 0 7724.96172412 0 1144.10332351 0 2343.71221134 0 8155
0.08850000 0.08849210 21463.03732146 0 888.38798182 0 7085.05885588 0 -171.78379786 0 -107.35227890 0 8718
0.08950000 0.08949900 20243.75291243 0 1075.69960801 0 6528.92919721 0 175.09220852 0 1290.19157717 0 8571
0.09050000 0.09049190 20110.88501460 0 645.46338977 0 7444.46651949 0 -970.60663700 0 -42.88997886 0 8932
0.09150000 0.09150830 19588.49272966 0 177.29449393 0 8048.34004278 0 -1272.23226631 0 -853.73714130 0 9285
0.09250000 0.09250820 19365.27466132 0 796.53751129 0 8710.35434368 0 -523.59031049 0 -1784.55980800 0 9204
0.09350000 0.09350330 19013.50690183 0 540.76791521 0 8839.87839941 0 -661.77181699 0 -558.02856237 0 9349
0.09450000 0.09448040 18896.36170525 0 -327.47286437 0 8544.41341163 0 1098.83965965 0 225.98504232 0 9564
0.09550000 0.09549270 19000.99517478 0 -314.02552588 0 8391.07278521 0 2686.40066447 0 853.12373451 0 10155
0.09650000 0.09649430 19171.17680725 0 -60.64434099 0 7035.01194770 0 2870.04624392 0 739.24598098 0 9913
0.09750000 0.09749140 18802.57911403 0 353.82278297 0 6102.32359428 0 1357.20128697 0 1533.61663831 0 10476
0.09850000 0.09850240 18327.90854906 0 574.62044111 0 5414.16753447 0 862.90613349 0 2923.86881486 0 10575
0.09950000 0.09950330 18009.68993377 0 542.15859921 0 5569.85549375 0 -171.24679011 0 2957.18544024 0 10882
0.10050000 0.10051200 17514.53556788 0 124.18940963 0 5380.52981167 0 -233.12226289 0 2881.86041450 0 10875
0.10150000 0.10150300 17648.39997494 0 -64.09979212 0 5118.35930462 0 410.07130029 0 2355.90284096 0 11118
0.10250000 0.10250800 17600.67825497 0 133.60642189 0 4958.67423608 0 -240.84520946 0 948.99235172 0 11575
0.10350000 0.10349800 16937.77816808 0 901.23852201 0 4966.59094833 0 -332.49969984 0 1284.72184871 0 11364
0.10450000 0.10450100 16561.42984749 0 747.65762615 0 4943.91482710 0 -382.52003444 0 902.26381929 0 12093
0.10550000 0.10551000 15977.91832955 0 379.88039220 0 4439.09432164 0 -271.94404817 0 1162.26193621 0 12067
0.10650000 0.10649700 15658.03886554 0 259.66483995 0 4737.74813898 0 749.88869960 0 432.07533140 0 12054
0.10750000 0.10749900 15457.62978632 0 175.09553022 0 4675.27808235 0 661.62787677 0 235.12524645 0 12807
0.10850000 0.10850100 15219.68552597 0 40.39161949 0 4591.53808975 0 518.97536550 0 317.59081447 0 12736
0.10950000 0.10950300 15365.84021357 0 -288.92567275 0 4038.63047760 0 832.31883617 0 -65.61050012 0 12933
0.11050000 0.11050200 15409.46517336 0 -36.35564637 0 4242.36125426 0 327.57805146 0 440.86232837 0 13428
0.11150000 0.11150900 15447.22180099 0 315.71294818 0 3812.46717086 0 -224.64750548 0 519.35514625 0 13453
0.11250000 0.11250000 15100.32586442 0 427.43713453 0 4135.51331976 0 198.37730761 0 1527.11718364 0 13668
0.11350000 0.11349100 14944.31680773 0 107.81355195 0 3849.72554387 0 280.83844670 0 1123.22091890 0 13791
0.11450000 0.11448600 14948.63501441 0 130.95127840 0 4346.05357619 0 558.11935544 0 1685.50679017 0 14205
0.11550000 0.11549300 14838.79755221 0 105.37542602 0 4070.35268821 0 192.79796314 0 1066.76645635 0 14776
0.11650000 0.11649800 14772.36360329 0 401.81023874 0 4624.54469003 0 -410.63598885 0 2145.92727310 0 14553
0.11750000 0.11747300 14516.37145349 0 352.98682245 0 5351.55353762 0 -341.02206825 0 1951.37545371 0 14568
0.11850000 0.11849100 14467.76394753 0 131.22144312 0 5541.41069129 0 -589.83381541 0 2336.11659651 0 16015
0.11950000 0.11950300 14434.21480333 0 71.73936407 0 5851.49114783 0 53.48110045 0 2326.35080602 0 15270
0.12050000 0.12050700 14505.85274491 0 66.95069431 0 6045.77723143 0 -255.97886302 0 2168.64768363 0 15999
0.12150000 0.12150000 14517.14651622 0 81.32301482 0 6340.60002437 0 -154.56079661 0 2025.63753627 0 15670
0.12250000 0.12250700 14331.46362901 0 215.55823403 0 6120.90295532 0 156.96570556 0 1651.06078766 0 16887
0.12350000 0.12352200 14103.48446100 0 385.45641498 0 6356.15664074 0 58.10545691 0 1854.00542926 0 16407
0.12450000 0.12449800 13798.33118900 0 202.76084101 0 6307.78165361 0 402.46572037 0 1178.79291717 0 16306
0.12550000 0.12549900 13566.47670729 0 206.76127197 0 6332.88261397 0 393.99207018 0 1511.19518055 0 17523
0.12650000 0.12650100 13445.89909002 0 259.07579227 0 6131.23343438 0 692.80200730 0 1384.60529090 0 17154
0.12750000 0.12750600 13119.26550787 0 167.23639406 0 5443.65313546 0 273.91049306 0 1535.17783611 0 18007
0.12850000 0.12850300 12949.85893814 0 75.97319964 0 4855.71268759 0 645.86642239 0 988.82061132 0 17496
0.12950000 0.12949900 13062.02158856 0 -283.00972960 0 4035.39735875 0 530.70649365 0 670.54995611 0 18405
0.13050000 0.13049000 13052.83155896 0 -66.88448181 0 3879.58760391 0 545.92429688 0 271.17562883 0 18100
0.13150000 0.13148800 13002.23103454 0 242.18385353 0 3456.42549399 0 -205.01295188 0 -1225.07523491 0 19059
0.13250000 0.13249300 12658.54607217 0 498.31219293 0 3237.61421092 0 -682.60550337 0 -1121.99189085 0 18957
0.13350000 0.13349100 12246.21269592 0 504.82714885 0 3738.00578645 0 -656.60879193 0 -998.69158890 0 19468
0.13450000 0.13450700 11956.33923217 0 452.69753637 0 3878.50251607 0 -304.24644860 0 -935.07443942 0 19953
0.13550000 0.13551000 11431.28958927 0 360.36541971 0 4098.00028328 0 339.09548373 0 -1030.55441803 0 19956
0.13650000 0.13649900 11490.85869679 0 95.80240471 0 3892.36506675 0 869.39451583 0 -725.97358522 0 19723
0.13750000 0.13749600 11473.69659332 0 -275.12401986 0 3955.05656987 0 463.66578134 0 -338.53522410 0 20946
0.13850000 0.13851100 11531.16195913 0 -88.75486996 0 3739.98773259 0 543.44409612 0 -477.17291038 0 20955
0.13950000 0.13949800 11754.04785773 0 161.75448604 0 4100.72407518 0 177.39082315 0 322.98968005 0 20506
0.14050000 0.14048300 11372.60626773 0 295.21918217 0 3608.01669308 0 0.69303896 0 834.67834859 0 21447
0.14150000 0.14148400 11322.89152929 0 170.32667992 0 3780.36850121 0 463.70896340 0 1414.33448303 0 21771
0.14250000 0.14249400 11234.86654698 0 -9.52631825 0 3629.88453460 0 289.06739851 0 837.14194087 0 22470
0.14350000 0.14350900 11225.89796388 0 32.41854911 0 3536.66663195 0 515.72895987 0 730.35379692 0 22519
0.14450000 0.14449900 11130.45452394 0 108.31955719 0 3229.66428170 0 124.49389856 0 340.66221770 0 22218
0.14550000 0.14550500 10995.48288440 0 177.38085806 0 2660.54678602 0 -71.06195924 0 428.54879594 0 23559
0.14650000 0.14650700 10865.19483826 0 74.12533935 0 2685.91348218 0 -210.05750306 0 25.82752632 0 23044
0.14750000 0.14750500 10877.30796162 0 89.43493215 0 2814.81748772 0 -263.40064234 0 -407.91441141 0 23649
0.14850000 0.14849900 10615.21496083 0 276.29879352 0 2839.55306137 0 -179.55767712 0 -586.36485605 0 23640
0.14950000 0.14949500 10545.09392776 0 221.94696545 0 2733.65734680 0 -401.15032818 0 -895.47205524 0 24457
0.15050000 0.15050000 10349.05841684 0 216.92012999 0 2878.77123587 0 -39.54071133 0 -622.35101894 0 24591
0.15150000 0.15149900 10278.79344354 0 216.27461345 0 3668.72625006 0 14.43642927 0 -885.67858394 0 25020
0.15250000 0.15250500 9976.64077157 0 305.67810020 0 3434.35835062 0 63.64350161 0 36.06809810 0 25297
0.15350000 0.15350100 9902.52262923 0 247.01581608 0 3602.63554322 0 212.54545445 0 -21.19918382 0 25452
0.15450000 0.15450400 9633.65336566 0 77.92735424 0 3380.72400920 0 625.17889070 0 445.65775225 0 26061
0.15550000 0.15549900 9697.44102894 0 81.37893006 0 3636.62758041 0 290.54444664 0 261.38769369 0 26128
0.15650000 0.15649500 9651.84519534 0 9.90415026 0 3076.57831876 0 296.25333731 0 424.96468440 0 26331
0.15750000 0.15749700 9585.64376525 0 28.32278544 0 3074.30849217 0 294.68660335 0 615.52050176 0 27345
0.15850000 0.15849900 9439.56658391 0 169.38331784 0 2722.72896220 0 47.07897151 0 374.97424508 0 26980
0.15950000 0.15949700 9398.75399463 0 117.15959060 0 2894.31677992 0 191.38956342 0 392.67778523 0 27777
0.16050000 0.16050000 9142.27466253 0 60.07013022 0 2367.59521597 0 407.36633133 0 169.75424072 0 28224
0.16150000 0.16150500 9228.21804778 0 67.68910765 0 2377.09527067 0 360.50382377 0 344.41573581 0 28075
0.16250000 0.16249700 9066.01956151 0 40.73619024 0 2023.01339529 0 265.28515203 0 127.60632907 0 28590
0.16350000 0.16349900 9000.21673511 0 151.85029149 0 2147.43310928 0 73.25904065 0 359.14967844 0 29163
0.16450000 0.16449100 8925.01350494 0 10.18979410 0 1716.71967383 0 183.11410785 0 724.39577894 0 28996
0.16550000 0.16550500 8923.41909017 0 2.85105721 0 2003.04999364 0 -83.65362847 0 355.83905332 0 30777
0.16650000 0.16650700 9016.20517215 0 175.75433354 0 2015.62815464 0 -145.55346037 0 143.48404286 0 29211
0.16750000 0.16749900 8722.95464933 0 287.90258993 0 2194.93338275 0 -120.93303890 0 254.06335082 0 30922
0.16850000 0.16850800 8491.05587832 0 333.94353100 0 2059.23096977 0 -358.90165837 0 395.67727802 0 30867
0.16950000 0.16949900 8446.30154141 0 65.27733386 0 2296.94271130 0 -49.06036404 0 205.82787498 0 30852
0.17050000 0.17049200 8357.21361592 0 12.89062200 0 2336.65914043 0 203.06422271 0 -3.02335365 0 31257
0.17150000 0.17149500 8356.22817901 0 84.69143748 0 2033.93070756 0 133.11370343 0 -226.79332203 0 32608
0.17250000 0.17250900 8271.81277459 0 -26.87120366 0 1867.93441388 0 88.35305529 0 -430.85848290 0 32361
0.17350000 0.17350400 8424.59978476 0 -18.60239148 0 1990.48290497 0 -85.75604151 0 -207.32042437 0 32508
0.17450000 0.17449800 8227.86671739 0 105.66839974 0 1930.96915907 0 -72.30637783 0 -471.05655815 0 32791
0.17550000 0.17549800 8241.91749758 0 161.34370279 0 1956.36907221 0 159.39054469 0 -226.59069848 0 33633
0.17650000 0.17650100 8118.92611350 0 110.99119845 0 1934.32407349 0 130.64014607 0 -29.02543517 0 33984
0.17750000 0.17750300 8017.83578790 0 134.81884146 0 2072.13022819 0 171.90891513 0 -63.02699457 0 34069
0.17850000 0.17849800 7984.56345182 0 194.11778426 0 1987.90305329 0 285.30059360 0 260.24724423 0 34536
