### header ###
fiducial parameters:
Omega_m = 0.31
Omega_nu = 0
Omega_de = 0.69
Omega_k = 0
H_0 = 100
w_de = -1
zeff = 0
beta = 0
fgrowth = 0
b_1 = 2
gamma = 0.55
Lx = 3500 Ly = 3500 Lz = 3500
nx = 700 ny = 700 nz = 700
xoffset = -685.467585 yoffset = -31.7331281 zoffset = 572.489161
bins = 400 dk = 0.001
kx_ny = 0.628318531 ky_ny = 0.628318531 kz_ny = 0.628318531
############################
A(data) = 8.06290874 (not used)
A(ran) = 8.06346952 (used)
Ngal = 479745
weighted Ngal = 0
Nran = 23820508
weighted Nran = 0
SN(data) = 3482.48712
SN(ran) = 70.2357439
SN(data+ran) = 3552.72287
############################
13 columns: k_central k_mean P_0(k) sigma^{lin}_{P_0(k)} P^img_1(k) sigma^{lin}_{P_1(k)} P_2(k) sigma^{lin}_{P_2(k)} P^img_3(k) sigma^{lin}_{P_3(k)} P_4(k) sigma^{lin}_{P_4(k)} N_modes
### header ###
0.00050000 0 0 0 0 0 0 0 0 0 0 0 0
0.00150000 0.00179520 116587.15141042 0 -30178.50707921 0 97098.64177387 0 15404.92552018 0 -213086.89113485 0 3
0.00250000 0.00253879 177890.18500134 0 16312.52398557 0 65876.34663401 0 11285.13490166 0 168966.99842999 0 6
0.00350000 0.00331552 142787.59362878 0 40092.44527533 0 56113.10277867 0 -55348.00513370 0 110542.76929192 0 7
0.00450000 0.00420575 95591.69836605 0 37741.90143958 0 61536.21675160 0 -4081.31428978 0 83373.94154492 0 24
0.00550000 0.00557378 88402.88075430 0 12584.58294238 0 105891.61780535 0 73271.33093389 0 -34318.56005215 0 45
0.00650000 0.00659388 78157.65859961 0 10952.21223901 0 78020.14032536 0 92949.95238757 0 14728.40647376 0 40
0.00750000 0.00754703 62880.95060082 0 -7438.76427221 0 30952.79475377 0 48832.93848716 0 -12955.50582380 0 57
0.00850000 0.00846663 71597.52759105 0 -9339.05201921 0 169.02678898 0 37193.82136105 0 7722.64760824 0 75
0.00950000 0.00948925 86691.43150708 0 -16153.19323143 0 -5942.19563275 0 15748.16758956 0 -26430.74657459 0 112
0.01050000 0.01054430 82086.00872201 0 -565.59428192 0 -25781.13327748 0 -26663.37611903 0 -8776.75507562 0 105
0.01150000 0.01145670 94393.45137418 0 7523.64471427 0 -9951.50659423 0 -41510.36719160 0 4946.31752158 0 144
0.01250000 0.01249090 84716.01803619 0 4546.39622146 0 10258.63074005 0 -41953.81380059 0 6721.58764906 0 169
0.01350000 0.01339930 90814.76526954 0 -2657.74548784 0 30569.80303830 0 -3287.31787703 0 -13726.25035443 0 180
0.01450000 0.01448870 94115.86819098 0 1917.10660840 0 61149.79261543 0 -110.06300546 0 -2495.62450785 0 267
0.01550000 0.01550050 84696.42002126 0 8168.07616337 0 44977.55498531 0 24803.00410300 0 5574.12941113 0 238
0.01650000 0.01653350 92726.18070299 0 -3022.13569763 0 47160.46382331 0 19280.68209970 0 -5318.80160081 0 315
0.01750000 0.01747870 81698.92024635 0 6004.59925543 0 19954.43306492 0 18551.68023364 0 -16903.56468439 0 297
0.01850000 0.01844180 95144.37644338 0 -7754.70198859 0 31083.44818663 0 16956.82256676 0 -22884.28093518 0 388
0.01950000 0.01947590 81670.68581807 0 2796.88032151 0 10300.46198321 0 -339.89822728 0 -11875.06836800 0 399
0.02050000 0.02045430 84201.04420887 0 9213.25933695 0 12376.09106604 0 -3056.85850826 0 -36625.81109786 0 462
0.02150000 0.02154770 74024.02757506 0 8074.40429540 0 8598.88924973 0 -5653.18581033 0 -23457.27374454 0 571
0.02250000 0.02255340 68590.50561681 0 8729.95235861 0 15308.04267802 0 -4655.49183790 0 -11775.86033762 0 510
0.02350000 0.02348930 61097.08834929 0 6053.49464182 0 14708.91918208 0 5458.15788098 0 -9282.92640470 0 555
0.02450000 0.02439640 62471.60675228 0 -456.17646083 0 12721.43687714 0 10927.83097976 0 7011.32824491 0 592
0.02550000 0.02547300 63482.28856172 0 -4360.92370842 0 12456.91903722 0 11800.66234522 0 -6613.78749462 0 837
0.02650000 0.02652900 64721.50315543 0 -294.41865309 0 13743.41245790 0 7033.99329382 0 8797.98072230 0 723
0.02750000 0.02749970 66147.95076181 0 3114.77783938 0 11406.15541193 0 -1272.71944860 0 -3339.26922508 0 826
0.02850000 0.02848090 62557.74943937 0 2808.28481608 0 14490.79438316 0 -3409.02487144 0 10740.43188221 0 831
0.02950000 0.02946900 62098.35868264 0 1288.22070335 0 14504.30261943 0 -2556.75481317 0 4893.21465175 0 996
0.03050000 0.03053250 60846.30019215 0 -113.90321987 0 19645.51520248 0 -435.61847534 0 5074.84506808 0 1041
0.03150000 0.03150510 63149.89737067 0 2121.47957990 0 21857.76570124 0 3755.97616963 0 2906.08666120 0 1036
0.03250000 0.03246190 62921.91820265 0 -1875.64075195 0 24208.86315323 0 3791.79514042 0 5445.75687718 0 1059
0.03350000 0.03345080 62530.62224356 0 1421.44291557 0 17170.18626602 0 2882.43617539 0 8254.28528440 0 1302
0.03450000 0.03451200 62376.49548208 0 3963.28330721 0 22577.79898420 0 1030.25657249 0 4683.46053039 0 1339
0.03550000 0.03553350 58050.09528245 0 2847.09331457 0 18657.19948916 0 1767.27590895 0 7600.08804482 0 1365
0.03650000 0.03647120 55535.12742314 0 3396.91174809 0 21319.87216155 0 1820.34556181 0 6298.86843213 0 1308
0.03750000 0.03744890 53617.62221105 0 2161.88249317 0 18631.62241883 0 44.49136920 0 -2726.81465006 0 1579
0.03850000 0.03847530 51393.96721772 0 863.21394412 0 19434.14452169 0 474.98834070 0 -5545.65139169 0 1662
0.03950000 0.03950240 50868.25323533 0 1283.23815718 0 16049.11337813 0 -296.72723281 0 -6304.59282406 0 1683
0.04050000 0.04050350 48975.21786108 0 -121.10465994 0 17228.09452482 0 1103.02832013 0 -2739.52567895 0 1822
0.04150000 0.04152450 50364.13028634 0 1389.43282452 0 16963.46596166 0 2752.07062297 0 -12946.75868719 0 1887
0.04250000 0.04250150 49686.28256094 0 683.23662589 0 16448.15996460 0 770.56737343 0 -2975.07831715 0 1920
0.04350000 0.04349210 48399.45697051 0 2034.52861310 0 15900.52277907 0 213.48992376 0 -4886.46053361 0 2005
0.04450000 0.04448520 46168.93713580 0 2565.85626417 0 19125.55882899 0 -2649.80663095 0 -1942.14113481 0 2151
0.04550000 0.04548030 45466.61957255 0 2520.53723869 0 22585.66033482 0 -1890.62160743 0 -1827.50935597 0 2274
0.04650000 0.04648670 42782.79875976 0 2859.62718626 0 24553.87679458 0 1244.54038194 0 4230.11526301 0 2311
0.04750000 0.04749250 41334.76011998 0 743.64723010 0 21300.05270013 0 4083.30730824 0 1492.54938555 0 2568
0.04850000 0.04851840 41814.85612411 0 -548.66580451 0 23166.62521805 0 5092.09575015 0 -620.25834955 0 2493
0.04950000 0.04949480 40236.16405147 0 1248.53749120 0 19533.90616830 0 881.31276626 0 -5811.16574084 0 2644
0.05050000 0.05050630 39036.47765737 0 1971.38314466 0 18837.12476747 0 -375.71166191 0 -5520.78295015 0 2829
0.05150000 0.05149060 37753.08448764 0 2115.79947727 0 19865.63301987 0 -4125.03890049 0 -4642.69223041 0 2784
0.05250000 0.05249300 36748.16028710 0 284.33508688 0 19961.74079930 0 -1132.21164666 0 -6329.59413350 0 3055
0.05350000 0.05348950 35564.97165698 0 1515.24765143 0 21113.92691992 0 -586.41468151 0 -5214.43386707 0 3009
0.05450000 0.05448610 35947.85264921 0 378.59378806 0 19375.46120015 0 3659.70230533 0 -7233.15120033 0 3336
0.05550000 0.05550870 34239.83582269 0 -529.32909644 0 18607.15258098 0 3871.70410864 0 -5408.31027464 0 3349
0.05650000 0.05647670 34631.24250502 0 652.69915404 0 17014.95227206 0 5062.56585986 0 -5554.30994970 0 3324
0.05750000 0.05747970 34202.30064155 0 -199.76245545 0 16438.41631876 0 2569.76479483 0 -4526.08957774 0 3639
0.05850000 0.05849280 34014.62473587 0 238.59199135 0 14345.52548153 0 1291.73063032 0 -1103.07150220 0 3846
0.05950000 0.05951020 34034.55492055 0 20.10125209 0 13281.36434321 0 188.08226000 0 -2554.11959987 0 3787
0.06050000 0.06049470 34472.24392063 0 198.29980134 0 11778.62841883 0 1075.70957311 0 -1583.04349630 0 3930
0.06150000 0.06148310 33620.11780259 0 9.89276791 0 12391.70304404 0 -553.81886448 0 -3612.41240603 0 4083
0.06250000 0.06249100 33952.50899364 0 473.41607057 0 13086.38070316 0 1413.61478192 0 -2608.79473982 0 4303
0.06350000 0.06350600 33098.83275012 0 984.49133232 0 12196.83012723 0 247.93592627 0 -2203.65837471 0 4470
0.06450000 0.06451750 33207.67370309 0 28.63148186 0 11709.64783521 0 3675.44715122 0 288.75294448 0 4479
0.06550000 0.06550280 31871.24409748 0 -508.73125058 0 10348.75946407 0 2930.56757138 0 -253.13106107 0 4636
0.06650000 0.06648880 32579.65143938 0 1002.01992974 0 10752.13532954 0 1918.59029993 0 1606.53896956 0 4653
0.06750000 0.06749660 32464.27781477 0 1038.79222770 0 11355.66561076 0 -345.04685832 0 1238.24022912 0 5220
0.06850000 0.06852730 30945.92991239 0 940.21421260 0 9747.23327365 0 -774.92211878 0 3111.51150356 0 5029
0.06950000 0.06949320 29971.67605159 0 344.00495256 0 10574.87848152 0 1369.83480959 0 3611.36053517 0 5040
0.07050000 0.07048030 30238.29763323 0 -261.13303022 0 9805.93873984 0 2223.18995569 0 1511.74879679 0 5475
0.07150000 0.07148790 30193.23327121 0 37.22969569 0 8931.91156330 0 1991.92230720 0 937.16489435 0 5509
0.07250000 0.07249820 29496.11970063 0 690.38713325 0 7500.21567495 0 880.23985799 0 -152.95863121 0 5916
0.07350000 0.07351270 29064.63120245 0 1228.12012423 0 8009.28795314 0 212.51777364 0 700.22267939 0 5721
0.07450000 0.07449140 27348.64230206 0 1472.65241785 0 6623.80794858 0 -424.37895842 0 3178.65408126 0 6028
0.07550000 0.07549160 26389.55752627 0 1359.38253496 0 6689.52219638 0 -532.72608570 0 1461.23685097 0 6183
0.07650000 0.07648840 25942.23560359 0 457.80409258 0 8449.46822631 0 659.88509284 0 3172.45357936 0 6330
0.07750000 0.07749960 25163.62972234 0 265.24639889 0 7859.25795185 0 789.96719374 0 2382.77537330 0 6583
0.07850000 0.07848650 25364.59241780 0 483.78308830 0 8431.96288077 0 -233.88514607 0 2013.05937528 0 6549
0.07950000 0.07947320 25257.41231356 0 -282.50483159 0 7419.33234215 0 1099.91035346 0 2154.67440971 0 6828
0.08050000 0.08048110 25189.20679268 0 -225.42921161 0 7837.03579594 0 252.50104579 0 2794.11224031 0 7147
0.08150000 0.08149960 25372.01087543 0 328.51587737 0 8155.34298982 0 1048.19816763 0 573.53646051 0 7386
0.08250000 0.08250610 25316.53852809 0 670.61417559 0 8426.99140692 0 -1161.80797090 0 936.03994615 0 7227
0.08350000 0.08350160 24196.24070294 0 1149.01943573 0 8476.62863909 0 -512.75050449 0 1877.91057854 0 7798
0.08450000 0.08449610 23636.64540661 0 859.94207213 0 9054.82544112 0 -652.23522363 0 1352.06372825 0 7371
0.08550000 0.08548940 23155.55289324 0 190.28343817 0 8585.73532785 0 -472.59339684 0 -249.68535359 0 8256
0.08650000 0.08650700 22979.17075887 0 746.44188488 0 8991.39209223 0 502.70236972 0 -209.58803649 0 8037
0.08750000 0.08749060 21939.03656541 0 729.29306820 0 7830.63599219 0 270.02853598 0 -80.87004601 0 8155
0.08850000 0.08849210 21544.52963212 0 515.21409676 0 8335.02467698 0 1431.68481603 0 194.59943039 0 8718
0.08950000 0.08949900 21216.78881749 0 156.32572518 0 7430.57075184 0 1076.75701503 0 113.70391803 0 8571
0.09050000 0.09049190 20654.20399345 0 538.20356478 0 6515.21058676 0 987.51961316 0 -268.25474954 0 8932
0.09150000 0.09150830 20402.97294332 0 726.75086242 0 7242.93913547 0 -7.75412623 0 -70.36384916 0 9285
0.09250000 0.09250820 19733.98307778 0 698.10675812 0 6764.55934168 0 -449.62053731 0 610.20689308 0 9204
0.09350000 0.09350330 19265.51301470 0 582.48289897 0 6873.43351162 0 -250.78926437 0 564.83472044 0 9349
0.09450000 0.09448040 18555.22337758 0 663.10935383 0 6895.48958266 0 115.07910077 0 744.81757483 0 9564
0.09550000 0.09549270 18294.02723511 0 224.83241330 0 6896.79611699 0 1016.30212152 0 250.99188792 0 10155
0.09650000 0.09649430 17821.46041185 0 -32.45265187 0 5979.45400576 0 1233.91095011 0 -150.13851008 0 9913
0.09750000 0.09749140 17958.20362336 0 52.18641350 0 4898.14183630 0 1639.05838755 0 -290.01408228 0 10476
0.09850000 0.09850240 17704.86883151 0 -35.97021875 0 4367.48959704 0 503.55604596 0 359.06220708 0 10575
0.09950000 0.09950330 17617.39746544 0 337.39588187 0 4077.53862701 0 135.05468198 0 -402.47457823 0 10882
0.10050000 0.10051200 17806.40205010 0 48.99824830 0 4555.08799644 0 -477.87489578 0 724.86413827 0 10875
0.10150000 0.10150300 17170.51843576 0 592.63843529 0 4842.92415243 0 -468.88084633 0 1126.03328941 0 11118
0.10250000 0.10250800 17253.67159515 0 490.80847840 0 5395.37779925 0 -387.79821168 0 458.41639214 0 11575
0.10350000 0.10349800 16731.50075670 0 78.12665609 0 5876.54781890 0 530.59466317 0 1859.49730237 0 11364
0.10450000 0.10450100 16808.34269095 0 44.80825914 0 6013.20245181 0 564.06408663 0 1001.31351542 0 12093
0.10550000 0.10551000 16602.72961906 0 156.69664807 0 5550.31284044 0 478.32221770 0 1088.66751484 0 12067
0.10650000 0.10649700 16373.08960233 0 244.55111657 0 5553.92241833 0 643.57002222 0 554.43448574 0 12054
0.10750000 0.10749900 16015.34278743 0 461.75137638 0 5176.65509479 0 380.94997878 0 1415.82924689 0 12807
0.10850000 0.10850100 15622.71814937 0 313.59038351 0 4692.07479910 0 224.52017374 0 1544.03569596 0 12736
0.10950000 0.10950300 15403.92901095 0 281.62015283 0 4606.58537917 0 593.99479508 0 1552.77176024 0 12933
0.11050000 0.11050200 15134.09645512 0 314.02663311 0 4566.32640613 0 174.10898608 0 543.62346778 0 13428
0.11150000 0.11150900 14967.01507361 0 251.14579323 0 3843.71327149 0 97.38774017 0 706.84392963 0 13453
0.11250000 0.11250000 14794.17608319 0 -76.86585046 0 4323.70962471 0 -54.54991196 0 1086.86604759 0 13668
0.11350000 0.11349100 14925.60457878 0 -11.98922404 0 3819.46488014 0 21.24945218 0 214.76434834 0 13791
0.11450000 0.11448600 15162.55232990 0 -48.46367645 0 4423.96952594 0 233.17430282 0 556.84160915 0 14205
0.11550000 0.11549300 15051.49691197 0 81.83145597 0 3970.70176484 0 85.89367050 0 465.27791183 0 14776
0.11650000 0.11649800 14974.54425448 0 222.43857668 0 4260.35378209 0 -188.73774163 0 835.85090779 0 14553
0.11750000 0.11747300 14852.97012797 0 383.63944648 0 4676.45174878 0 39.71709346 0 274.42424893 0 14568
0.11850000 0.11849100 14353.16538566 0 547.30612302 0 4712.51431071 0 -151.88350847 0 617.68514126 0 16015
0.11950000 0.11950300 14024.87095479 0 299.23289992 0 4957.30126780 0 -132.36299981 0 1187.61756005 0 15270
0.12050000 0.12050700 14050.00513212 0 91.52483346 0 4643.62230569 0 178.11163150 0 533.46239530 0 15999
0.12150000 0.12150000 13894.54969167 0 -186.64064331 0 4780.81948252 0 172.21672576 0 405.00017552 0 15670
0.12250000 0.12250700 13973.05247464 0 172.52453639 0 4570.45638329 0 -198.89881411 0 -847.79683904 0 16887
0.12350000 0.12352200 13750.27729928 0 334.84371100 0 4858.04894813 0 -265.48777557 0 -515.24288481 0 16407
0.12450000 0.12449800 13452.87465466 0 293.92372017 0 4335.77845876 0 94.19503531 0 -563.97882973 0 16306
0.12550000 0.12549900 13229.43513981 0 152.85122966 0 4236.29362026 0 600.01481808 0 -46.44054126 0 17523
0.12650000 0.12650100 13404.93148819 0 -188.26938229 0 4058.48315600 0 934.25065846 0 -156.62246349 0 17154
0.12750000 0.12750600 13440.80582060 0 -138.44281337 0 3599.67923249 0 972.04493199 0 -406.46282963 0 18007
0.12850000 0.12850300 13575.88818339 0 25.03596582 0 3338.23949887 0 315.46160641 0 -92.25449967 0 17496
0.12950000 0.12949900 13413.01428531 0 321.28786373 0 3334.37525751 0 -620.91604565 0 376.78346295 0 18405
0.13050000 0.13049000 13226.99922835 0 512.43383600 0 3959.74016327 0 -545.61870072 0 685.89509108 0 18100
0.13150000 0.13148800 12775.24837575 0 159.50237518 0 4111.99570185 0 90.49953618 0 951.46369462 0 19059
0.13250000 0.13249300 12584.14004938 0 165.90882232 0 3990.01189932 0 344.50209994 0 946.20434033 0 18957
0.13350000 0.13349100 12805.14365276 0 52.73161478 0 4337.77147723 0 765.22054777 0 797.26828473 0 19468
0.13450000 0.13450700 12330.69453429 0 279.14991717 0 3804.14078259 0 420.93989433 0 682.95317437 0 19953
0.13550000 0.13551000 12036.50286385 0 447.80356880 0 3751.28150391 0 412.36770045 0 1225.89458695 0 19956
0.13650000 0.13649900 11802.43391719 0 204.98969999 0 3435.57630635 0 231.95191816 0 1404.55762022 0 19723
0.13750000 0.13749600 11608.11461662 0 281.86485121 0 3568.99782042 0 187.90510280 0 1419.71563290 0 20946
0.13850000 0.13851100 11284.24911568 0 259.82095973 0 3142.80189350 0 -63.72178295 0 1045.59506406 0 20955
0.13950000 0.13949800 11265.97977972 0 24.90243358 0 3171.20240666 0 281.22597807 0 1478.75326883 0 20506
0.14050000 0.14048300 11070.99613967 0 24.37395152 0 3142.73545955 0 100.08894454 0 847.62853970 0 21447
0.14150000 0.14148400 11106.42757909 0 88.06816438 0 2834.49300892 0 204.94208900 0 1092.36124240 0 21771
0.14250000 0.14249400 11209.06803016 0 48.56177725 0 2841.53500751 0 308.32881476 0 758.14976114 0 22470
0.14350000 0.14350900 10980.26951010 0 58.68044273 0 2812.45908253 0 -24.93155379 0 1397.89208068 0 22519
0.14450000 0.14449900 11194.00966840 0 175.66575495 0 2918.74232847 0 -2.82959904 0 1101.51805503 0 22218
0.14550000 0.14550500 10962.68665829 0 211.93094042 0 3086.83129154 0 -387.36085485 0 1321.43767781 0 23559
0.14650000 0.14650700 10656.19363499 0 429.80218311 0 3570.62545217 0 -37.36765686 0 1246.66626831 0 23044
0.14750000 0.14750500 10365.10221550 0 331.56851732 0 3493.88316885 0 -55.16962998 0 1275.27715564 0 23649
0.14850000 0.14849900 10167.74909794 0 367.21697431 0 3857.67547309 0 129.03133727 0 1089.28313610 0 23640
0.14950000 0.14949500 9969.15587999 0 154.93171949 0 3686.39768047 0 313.72103695 0 1244.93898563 0 24457
0.15050000 0.15050000 9760.98510107 0 67.47164719 0 3394.60870452 0 236.38195532 0 1182.62394155 0 24591
0.15150000 0.15149900 9825.60318872 0 -2.24984104 0 3389.02825282 0 4.12492818 0 1107.49821766 0 25020
0.15250000 0.15250500 9913.80532822 0 9.72910788 0 3289.84236709 0 -132.41393251 0 743.80445711 0 25297
0.15350000 0.15350100 9685.64900301 0 190.29008157 0 2969.16569569 0 2.93870573 0 810.50082012 0 25452
0.15450000 0.15450400 9618.75001645 0 244.69062786 0 3006.71194915 0 15.75171073 0 351.77551012 0 26061
0.15550000 0.15549900 9402.39678950 0 32.97792296 0 2891.02829945 0 235.08538608 0 331.54747990 0 26128
0.15650000 0.15649500 9278.50854710 0 138.94881861 0 2683.73223419 0 316.36621535 0 75.45113952 0 26331
0.15750000 0.15749700 9247.73855643 0 142.70455119 0 2550.53216662 0 355.46148705 0 129.80529278 0 27345
0.15850000 0.15849900 9010.39220162 0 129.34246960 0 2442.83166311 0 249.78832621 0 207.29163632 0 26980
0.15950000 0.15949700 9053.07601379 0 -18.95593081 0 2185.48868968 0 563.82160272 0 220.02480987 0 27777
0.16050000 0.16050000 8923.88412781 0 -39.95249109 0 1893.89901558 0 345.23840954 0 417.14651585 0 28224
0.16150000 0.16150500 9012.96098098 0 19.24879380 0 1731.84446953 0 175.69454299 0 437.61370827 0 28075
0.16250000 0.16249700 8998.74411591 0 2.05772513 0 1714.74880001 0 142.79645149 0 620.40561147 0 28590
0.16350000 0.16349900 8882.46256066 0 173.25198813 0 1547.84457570 0 47.53958023 0 598.16795431 0 29163
0.16450000 0.16449100 8823.62422658 0 273.00034796 0 1644.01878907 0 -23.97678723 0 733.23592307 0 28996
0.16550000 0.16550500 8632.41624928 0 132.23013191 0 1645.33639573 0 -28.87828398 0 965.25759688 0 30777
0.16650000 0.16650700 8459.24508912 0 133.52891562 0 2033.15564482 0 59.28742758 0 1210.22724733 0 29211
0.16750000 0.16749900 8470.26205232 0 64.26111589 0 1824.40910502 0 131.65326379 0 883.41872245 0 30922
0.16850000 0.16850800 8453.45426324 0 17.42064225 0 2017.10077384 0 -11.69126778 0 997.91209723 0 30867
0.16950000 0.16949900 8469.74165305 0 73.70005135 0 2091.54001359 0 -117.46629400 0 850.93362866 0 30852
0.17050000 0.17049200 8478.68809150 0 57.49780772 0 2205.18635553 0 -365.58269916 0 884.11627891 0 31257
0.17150000 0.17149500 8482.33088637 0 99.14779693 0 2186.75093471 0 -184.65316100 0 732.11097487 0 32608
0.17250000 0.17250900 8377.48704266 0 47.73389953 0 2224.09788632 0 -67.55391457 0 288.50049547 0 32361
0.17350000 0.17350400 8336.19834341 0 84.76606494 0 2236.65390267 0 102.39663848 0 186.08481260 0 32508
0.17450000 0.17449800 8259.24568592 0 83.87418918 0 1965.78054830 0 273.63811387 0 150.38099399 0 32791
0.17550000 0.17549800 8232.89355285 0 73.13702363 0 1987.78125772 0 182.29697028 0 241.45086562 0 33633
0.17650000 0.17650100 8107.61019753 0 11.76833116 0 1798.47772029 0 233.75670711 0 266.50089329 0 33984
0.17750000 0.17750300 8215.34391802 0 -121.28181713 0 1960.97515933 0 177.06197510 0 297.22327297 0 34069
0.17850000 0.17849800 8238.95011453 0 127.61075800 0 1877.45661322 0 44.55426001 0 350.24199313 0 34536
