### header ###
fiducial parameters:
Omega_m = 0.31
Omega_nu = 0
Omega_de = 0.69
Omega_k = 0
H_0 = 100
w_de = -1
zeff = 0
beta = 0
fgrowth = 0
b_1 = 2
gamma = 0.55
Lx = 3500 Ly = 3500 Lz = 3500
nx = 700 ny = 700 nz = 700
xoffset = -685.467585 yoffset = -31.7331281 zoffset = 572.489161
bins = 400 dk = 0.001
kx_ny = 0.628318531 ky_ny = 0.628318531 kz_ny = 0.628318531
############################
A(data) = 8.08921985 (not used)
A(ran) = 8.08712266 (used)
Ngal = 480896
weighted Ngal = 0
Nran = 23820508
weighted Nran = 0
SN(data) = 3489.21972
SN(ran) = 70.4417713
SN(data+ran) = 3559.66149
############################
13 columns: k_central k_mean P_0(k) sigma^{lin}_{P_0(k)} P^img_1(k) sigma^{lin}_{P_1(k)} P_2(k) sigma^{lin}_{P_2(k)} P^img_3(k) sigma^{lin}_{P_3(k)} P_4(k) sigma^{lin}_{P_4(k)} N_modes
### header ###
0.00050000 0 0 0 0 0 0 0 0 0 0 0 0
0.00150000 0.00179520 53972.93311448 0 -28043.31996118 0 18209.76684324 0 64144.63503237 0 -79669.58455359 0 3
0.00250000 0.00253879 86664.30431127 0 -14251.52144382 0 23088.34388159 0 -7325.50546164 0 69743.46680017 0 6
0.00350000 0.00331552 72801.64291508 0 15021.60163496 0 23259.96491627 0 -62110.98113293 0 55030.34013466 0 7
0.00450000 0.00420575 55313.90237326 0 25403.67772441 0 26695.15369126 0 -18919.05997112 0 38735.31042230 0 24
0.00550000 0.00557378 45850.16490427 0 8070.79471751 0 44251.98553995 0 24446.25379734 0 10247.13766689 0 45
0.00650000 0.00659388 51540.89696806 0 -2346.49136487 0 50665.07607491 0 56017.43789224 0 41742.44311980 0 40
0.00750000 0.00754703 44511.18866395 0 -5687.41036635 0 24466.84832151 0 41897.34494401 0 17274.59828906 0 57
0.00850000 0.00846663 61761.20639191 0 -14152.64558319 0 17428.61432729 0 26625.95166114 0 1508.70390746 0 75
0.00950000 0.00948925 70961.64397672 0 -3287.08535821 0 26213.06466866 0 5996.57181993 0 -10254.82186031 0 112
0.01050000 0.01054430 66270.74284405 0 1234.67494053 0 26746.86144816 0 -921.90058735 0 12282.19775158 0 105
0.01150000 0.01145670 65328.48800198 0 -426.26346810 0 21952.87697143 0 -19186.12444575 0 7913.81129623 0 144
0.01250000 0.01249090 67117.33279968 0 3609.35644438 0 30427.74511087 0 -5197.57071637 0 -759.81836049 0 169
0.01350000 0.01339930 78522.71314888 0 -2039.71046112 0 33006.60028438 0 -8866.52948525 0 -14147.66303703 0 180
0.01450000 0.01448870 79077.65806879 0 -12163.83459927 0 32208.06421846 0 -3168.37896383 0 -8659.51022812 0 267
0.01550000 0.01550050 78533.12113421 0 -127.21436877 0 34208.16897370 0 -4473.30780533 0 -4968.51753285 0 238
0.01650000 0.01653350 85466.72165889 0 11628.37697104 0 38198.08122210 0 8679.80579951 0 -14621.33709277 0 315
0.01750000 0.01747870 72738.64138686 0 13444.79185754 0 33363.46131329 0 962.12634342 0 -5202.11036954 0 297
0.01850000 0.01844180 66633.80437485 0 -507.80338976 0 26226.24073519 0 12680.80144505 0 2517.54771099 0 388
0.01950000 0.01947590 65883.43292189 0 -5704.87142258 0 29084.00777088 0 22515.90468846 0 -4153.52799224 0 399
0.02050000 0.02045430 76597.56803266 0 -4538.80060663 0 33004.93943566 0 10242.40978419 0 -4064.58400698 0 462
0.02150000 0.02154770 73086.20166292 0 268.15066969 0 21336.92354177 0 8987.47248924 0 11428.52150806 0 571
0.02250000 0.02255340 73013.23504237 0 6756.75335268 0 27401.90018443 0 2379.96300279 0 14214.53987893 0 510
0.02350000 0.02348930 65152.32731412 0 11415.45616478 0 29935.24810294 0 959.97499071 0 11773.53514941 0 555
0.02450000 0.02439640 62315.26552584 0 10551.41622523 0 38451.85890695 0 -3753.36310097 0 22184.39928339 0 592
0.02550000 0.02547300 54028.29473857 0 2753.67611007 0 32149.15945043 0 6204.45471840 0 13218.58426149 0 837
0.02650000 0.02652900 54229.92177352 0 -4042.19576619 0 40926.41278067 0 4349.02095924 0 6864.98532778 0 723
0.02750000 0.02749970 63448.62869427 0 -5334.53537438 0 36235.17947825 0 -1006.74006181 0 5611.18848229 0 826
0.02850000 0.02848090 60464.19426266 0 -1548.59749379 0 33885.18925874 0 4462.85553070 0 10056.22864236 0 831
0.02950000 0.02946900 67137.48443085 0 1217.26924591 0 28161.46166699 0 3604.34068124 0 2076.18269907 0 996
0.03050000 0.03053250 63025.55516295 0 1163.26951777 0 24867.22358695 0 1275.84184420 0 6056.62810975 0 1041
0.03150000 0.03150510 60300.54530184 0 5514.19491688 0 32468.26385170 0 6278.04138915 0 2835.96562812 0 1036
0.03250000 0.03246190 58069.02895789 0 3980.66685718 0 25422.61139985 0 -2391.91004127 0 -696.24660755 0 1059
0.03350000 0.03345080 54647.90203542 0 2936.79021792 0 29829.61812417 0 5783.60672437 0 4805.71006871 0 1302
0.03450000 0.03451200 51481.66003028 0 -2.81786238 0 22688.85440213 0 923.96225423 0 7056.75799364 0 1339
0.03550000 0.03553350 54722.19733495 0 -1173.77715402 0 24909.63059100 0 4600.38487728 0 -1051.56747607 0 1365
0.03650000 0.03647120 53913.91762319 0 -979.43238711 0 23053.24461191 0 5235.29412703 0 -4996.43086371 0 1308
0.03750000 0.03744890 54287.49786257 0 2836.54138902 0 26780.07842262 0 -1020.19182923 0 -575.49294031 0 1579
0.03850000 0.03847530 52162.49728338 0 3181.38894549 0 21664.66435640 0 721.87239611 0 -1027.05334892 0 1662
0.03950000 0.03950240 49518.09394694 0 1646.37719426 0 20857.82404687 0 359.56378339 0 -1375.11630853 0 1683
0.04050000 0.04050350 47400.29037888 0 1487.85471983 0 19218.67708072 0 3615.57909093 0 -2293.02310832 0 1822
0.04150000 0.04152450 46729.30749487 0 735.32527076 0 17385.10009075 0 5322.66584217 0 -7827.11499290 0 1887
0.04250000 0.04250150 43526.96971082 0 1879.06210032 0 12502.86918522 0 3836.61591129 0 -4243.84494579 0 1920
0.04350000 0.04349210 43418.35020435 0 3475.99029194 0 13308.93443201 0 807.61980120 0 -3187.63373669 0 2005
0.04450000 0.04448520 39215.96004268 0 2108.46959824 0 11498.16643117 0 2419.19224963 0 -2121.99997917 0 2151
0.04550000 0.04548030 38505.55968232 0 785.39985976 0 9170.11048713 0 3126.95739668 0 -371.88285199 0 2274
0.04650000 0.04648670 38262.18998280 0 -1408.96440550 0 9041.49436203 0 2258.80962463 0 -2395.43104057 0 2311
0.04750000 0.04749250 38996.72801127 0 -636.44498120 0 11502.81680760 0 1317.89453386 0 -1833.41090510 0 2568
0.04850000 0.04851840 39944.74046224 0 -811.02786278 0 11325.88105699 0 -1006.57065524 0 -4125.16069606 0 2493
0.04950000 0.04949480 39966.44221889 0 28.15160730 0 12676.48323837 0 -764.38901618 0 -1336.68426908 0 2644
0.05050000 0.05050630 40347.88380889 0 1626.28092471 0 13690.04385227 0 -538.14931039 0 -631.02618544 0 2829
0.05150000 0.05149060 38799.86207600 0 2637.16203601 0 13589.95003591 0 -900.98275131 0 2441.70228598 0 2784
0.05250000 0.05249300 37295.35457964 0 1923.73893097 0 14414.94895815 0 1588.46893546 0 -142.30373303 0 3055
0.05350000 0.05348950 35189.06622939 0 579.59634389 0 13691.15108475 0 880.11584795 0 2452.37600711 0 3009
0.05450000 0.05448610 35510.05292588 0 933.90298746 0 15731.00548609 0 -123.32466106 0 -257.28761181 0 3336
0.05550000 0.05550870 34910.48653695 0 -309.19909949 0 15194.99424162 0 1117.85084137 0 64.51323273 0 3349
0.05650000 0.05647670 34894.54238921 0 933.06038354 0 15638.99446685 0 81.60569127 0 -2223.28960661 0 3324
0.05750000 0.05747970 34564.47638637 0 232.21986842 0 15495.94003019 0 -415.35501369 0 -1553.03749604 0 3639
0.05850000 0.05849280 35244.20640698 0 133.54995303 0 16471.30112347 0 -1298.58439938 0 -3991.65060340 0 3846
0.05950000 0.05951020 34973.04517218 0 884.83155109 0 16117.42962226 0 -173.28520511 0 -2914.88915943 0 3787
0.06050000 0.06049470 33525.22797889 0 1329.15508820 0 16201.13639789 0 -818.09532771 0 -1033.51737215 0 3930
0.06150000 0.06148310 32110.51703681 0 1982.82085620 0 15435.48513668 0 2676.39128284 0 -1688.85063226 0 4083
0.06250000 0.06249100 31663.30583739 0 608.50618399 0 14819.53170702 0 4403.86218407 0 1366.66812469 0 4303
0.06350000 0.06350600 30860.89445778 0 -424.20290845 0 13206.51542744 0 4019.46428334 0 25.89894281 0 4470
0.06450000 0.06451750 30484.98903019 0 160.54317371 0 11383.78931579 0 3365.90923859 0 2528.07749189 0 4479
0.06550000 0.06550280 30841.96078234 0 182.72768371 0 11885.58707658 0 2210.71144562 0 2747.54204212 0 4636
0.06650000 0.06648880 30059.81175715 0 -172.83456149 0 11442.69408383 0 -206.17997491 0 4834.89671693 0 4653
0.06750000 0.06749660 30789.81013244 0 447.44593271 0 12366.34742020 0 -278.86092949 0 4191.99324866 0 5220
0.06850000 0.06852730 30788.03856047 0 -207.89950696 0 11405.93396543 0 283.01194406 0 3911.46482706 0 5029
0.06950000 0.06949320 30519.97757661 0 978.69275581 0 12744.24586626 0 -1145.36556854 0 5502.15929981 0 5040
0.07050000 0.07048030 30468.93415920 0 1188.64728626 0 12909.00205956 0 -190.68204186 0 4268.15977109 0 5475
0.07150000 0.07148790 29110.13845745 0 1320.95049551 0 13017.28939629 0 422.10359567 0 2036.43305297 0 5509
0.07250000 0.07249820 27479.51718141 0 1221.70924816 0 11570.69015873 0 1077.25859135 0 1433.88820866 0 5916
0.07350000 0.07351270 26786.38964777 0 191.21129899 0 11151.82411084 0 1180.87451423 0 35.89758429 0 5721
0.07450000 0.07449140 26274.62679465 0 118.22364102 0 9307.51803813 0 2447.72563068 0 -538.14155977 0 6028
0.07550000 0.07549160 25665.20603663 0 -187.99811033 0 7591.85023515 0 618.42366533 0 -2200.38096656 0 6183
0.07650000 0.07648840 25876.35527092 0 460.67514640 0 6996.33631711 0 730.23310858 0 -2406.24870191 0 6330
0.07750000 0.07749960 24991.56579466 0 386.49167735 0 6528.80740164 0 -717.09468795 0 -2884.82779755 0 6583
0.07850000 0.07848650 25077.48703526 0 203.95997379 0 6201.57591395 0 32.52761151 0 -4546.89447608 0 6549
0.07950000 0.07947320 25009.17079112 0 569.30240350 0 8170.37920693 0 -1035.45724346 0 -4298.65295364 0 6828
0.08050000 0.08048110 24722.28685507 0 1231.47503865 0 8764.94090504 0 -1413.63692657 0 -4127.39730567 0 7147
0.08150000 0.08149960 23496.80194415 0 943.25356577 0 9133.50538128 0 -891.40519034 0 -1398.55642017 0 7386
0.08250000 0.08250610 22216.95191836 0 1197.69337563 0 10331.85202407 0 340.48395327 0 -2126.99359766 0 7227
0.08350000 0.08350160 22355.24525534 0 841.28963374 0 9495.74756004 0 845.01879274 0 -1973.59760962 0 7798
0.08450000 0.08449610 21107.94786452 0 128.70138199 0 9884.71833092 0 1876.68155049 0 -1358.60747222 0 7371
0.08550000 0.08548940 21359.62180765 0 197.97870392 0 8473.42873721 0 1870.52533789 0 -240.42889004 0 8256
0.08650000 0.08650700 21152.68005679 0 -310.00627197 0 8302.98136896 0 1593.60649417 0 211.36735909 0 8037
0.08750000 0.08749060 21083.69947317 0 -202.31905525 0 7421.73503664 0 1446.05669364 0 498.95438777 0 8155
0.08850000 0.08849210 21319.31854531 0 15.37359084 0 6065.86242865 0 1094.40408633 0 1051.45786006 0 8718
0.08950000 0.08949900 21220.44268468 0 116.23172978 0 5818.08594386 0 1133.47389168 0 2544.29844775 0 8571
0.09050000 0.09049190 21211.03120858 0 356.92746285 0 6803.70000991 0 294.92465833 0 2545.35031861 0 8932
0.09150000 0.09150830 20553.66728410 0 605.68495562 0 5948.27433907 0 139.36292356 0 2831.51455355 0 9285
0.09250000 0.09250820 19637.65385185 0 800.59884003 0 6614.76185921 0 539.51342081 0 3164.95761546 0 9204
0.09350000 0.09350330 19385.09412274 0 607.68129579 0 5771.40502242 0 -223.19703093 0 2457.38069793 0 9349
0.09450000 0.09448040 18751.42497337 0 437.97688053 0 6873.74353671 0 -165.09057751 0 2701.93513619 0 9564
0.09550000 0.09549270 18503.40489743 0 532.91874415 0 6082.42662658 0 -202.73537466 0 1458.01480444 0 10155
0.09650000 0.09649430 18360.12901428 0 207.46657906 0 6299.46633767 0 -552.97515333 0 1345.37604406 0 9913
0.09750000 0.09749140 18157.28402360 0 18.96855326 0 6061.02382270 0 -340.17060647 0 1071.18652842 0 10476
0.09850000 0.09850240 18246.52696164 0 -123.90263642 0 5921.08070932 0 209.72865502 0 512.81361674 0 10575
0.09950000 0.09950330 18501.19043247 0 -99.55160461 0 6167.97140812 0 93.49703596 0 -950.70745483 0 10882
0.10050000 0.10051200 18178.87505700 0 126.58103179 0 5823.06849002 0 322.01752993 0 -66.07653427 0 10875
0.10150000 0.10150300 18033.49543213 0 702.84460591 0 5833.68684953 0 815.09140599 0 -278.86646565 0 11118
0.10250000 0.10250800 17366.72003155 0 670.48905832 0 5283.66911416 0 382.87767053 0 23.80140160 0 11575
0.10350000 0.10349800 16772.24691204 0 664.18226211 0 5326.37507098 0 763.02047683 0 503.87825061 0 11364
0.10450000 0.10450100 16254.72645001 0 619.45339154 0 5202.32074372 0 721.68195212 0 1038.33826238 0 12093
0.10550000 0.10551000 15784.92770796 0 325.56621004 0 5048.09433132 0 648.35990994 0 1728.42312117 0 12067
0.10650000 0.10649700 15710.96457817 0 -78.65591322 0 4988.28163265 0 352.98128629 0 383.82767600 0 12054
0.10750000 0.10749900 15528.16049541 0 78.69942745 0 5251.11647919 0 43.65762314 0 1137.99140021 0 12807
0.10850000 0.10850100 15853.24395209 0 279.54409193 0 5496.24667835 0 -821.41923962 0 -5.73172181 0 12736
0.10950000 0.10950300 15206.17728969 0 273.59825350 0 5429.76844014 0 -575.15634163 0 1257.76073777 0 12933
0.11050000 0.11050200 15293.75937900 0 140.26421080 0 5262.68705863 0 -568.83182970 0 371.39899139 0 13428
0.11150000 0.11150900 15170.52440377 0 -12.62112161 0 5653.38511218 0 409.16890581 0 -216.51488290 0 13453
0.11250000 0.11250000 15304.49953408 0 85.68130331 0 5315.45775871 0 462.55190546 0 -686.67458274 0 13668
0.11350000 0.11349100 15019.71933974 0 -7.58293701 0 4804.23744951 0 392.92137637 0 -1386.72010494 0 13791
0.11450000 0.11448600 14940.77366378 0 300.12200760 0 5202.76363671 0 -159.71939274 0 -615.29573357 0 14205
0.11550000 0.11549300 14885.96565593 0 183.00227737 0 4662.98780180 0 42.47343800 0 -1455.11385534 0 14776
0.11650000 0.11649800 14478.83627235 0 81.56804537 0 4639.50340086 0 422.40476290 0 -795.96839380 0 14553
0.11750000 0.11747300 14424.02826450 0 222.65005808 0 4410.01839667 0 232.60518533 0 -477.20502013 0 14568
0.11850000 0.11849100 14465.99237556 0 349.83342434 0 4640.79886286 0 478.70310567 0 -820.08723895 0 16015
0.11950000 0.11950300 13929.87040784 0 344.77115744 0 4189.82307300 0 413.24795028 0 -426.90566294 0 15270
0.12050000 0.12050700 13563.81934934 0 621.63906846 0 4558.60899573 0 138.89456422 0 221.08775305 0 15999
0.12150000 0.12150000 13358.09555421 0 53.56502867 0 4139.52150135 0 -5.93018216 0 784.27601879 0 15670
0.12250000 0.12250700 13581.31362255 0 -273.83963018 0 4463.48665322 0 724.02707052 0 1317.80595527 0 16887
0.12350000 0.12352200 13703.66281180 0 -330.95621776 0 4135.96728508 0 656.61322086 0 981.05337546 0 16407
0.12450000 0.12449800 13969.28788420 0 30.35289620 0 4155.78674651 0 246.32933194 0 864.26360051 0 16306
0.12550000 0.12549900 13803.31373517 0 159.46915820 0 4127.05406360 0 40.25720147 0 1450.08701987 0 17523
0.12650000 0.12650100 13788.03392692 0 384.12441431 0 4465.35787611 0 -371.68797907 0 1167.55450748 0 17154
0.12750000 0.12750600 13436.59833717 0 444.24160191 0 4562.87184079 0 -439.17712054 0 1180.71950169 0 18007
0.12850000 0.12850300 12995.14474665 0 539.74151070 0 4705.61625235 0 -185.21120617 0 961.43432312 0 17496
0.12950000 0.12949900 12790.63890725 0 228.43202610 0 5012.36393913 0 -202.59254167 0 1366.72348631 0 18405
0.13050000 0.13049000 12447.83973087 0 237.47590101 0 4698.03170985 0 269.28336852 0 1117.03148933 0 18100
0.13150000 0.13148800 12563.10263223 0 25.84280613 0 4740.30584601 0 599.20210944 0 233.87850268 0 19059
0.13250000 0.13249300 12395.46763447 0 -72.34789904 0 4264.72735040 0 673.27264078 0 845.08744116 0 18957
0.13350000 0.13349100 12398.45716218 0 -142.61707983 0 4164.56710009 0 655.75843738 0 670.91977176 0 19468
0.13450000 0.13450700 12492.01830689 0 138.97317773 0 4049.14918618 0 227.73446964 0 740.32442542 0 19953
0.13550000 0.13551000 12423.81278601 0 296.97636012 0 3814.19445353 0 820.28432633 0 1324.93653245 0 19956
0.13650000 0.13649900 12064.51584565 0 183.68543981 0 3522.15081411 0 248.47847019 0 1415.67423434 0 19723
0.13750000 0.13749600 11997.41755724 0 285.55525707 0 3583.85688032 0 -109.86525374 0 1404.08151025 0 20946
0.13850000 0.13851100 11761.02342237 0 146.28423381 0 3597.43155055 0 98.72627352 0 1134.76935369 0 20955
0.13950000 0.13949800 11552.75299253 0 66.99730880 0 3615.02547469 0 -196.42304228 0 1226.94645780 0 20506
0.14050000 0.14048300 11605.01436567 0 84.74524897 0 3648.06529195 0 -418.67228221 0 513.74479926 0 21447
0.14150000 0.14148400 11479.45420223 0 160.10581688 0 3444.68882968 0 31.97388455 0 382.99614441 0 21771
0.14250000 0.14249400 11292.44263604 0 185.73492714 0 3455.51756335 0 -55.98289224 0 31.70084102 0 22470
0.14350000 0.14350900 11159.79618471 0 89.50136610 0 2819.87754016 0 430.38790910 0 -499.60876216 0 22519
0.14450000 0.14449900 11076.42157883 0 53.79832255 0 2934.86363340 0 -81.87153779 0 -1162.89305873 0 22218
0.14550000 0.14550500 10998.25096561 0 230.38407697 0 2681.87208362 0 90.77368694 0 -1128.38062227 0 23559
0.14650000 0.14650700 10746.43308226 0 259.99922416 0 2721.53315112 0 54.32060411 0 -709.72051962 0 23044
0.14750000 0.14750500 10568.01364013 0 113.60205264 0 2506.65254337 0 -284.66504216 0 -1050.16904145 0 23649
0.14850000 0.14849900 10651.99722388 0 26.22136891 0 2575.11272772 0 105.34918461 0 -1302.76973816 0 23640
0.14950000 0.14949500 10476.98805780 0 243.50699634 0 2800.21309129 0 -70.44113399 0 -1382.16937944 0 24457
0.15050000 0.15050000 10313.13979513 0 274.45414421 0 2732.95979034 0 -316.39611062 0 -1244.36322474 0 24591
0.15150000 0.15149900 10061.48799665 0 182.35897530 0 2830.65091221 0 158.05854402 0 -1254.41689568 0 25020
0.15250000 0.15250500 10013.57804716 0 154.25741491 0 3160.81656598 0 -129.34468407 0 -1310.15497882 0 25297
0.15350000 0.15350100 9842.33347152 0 189.20499373 0 3232.84203892 0 228.68226064 0 -912.80799421 0 25452
0.15450000 0.15450400 9686.11404065 0 136.54612413 0 3130.44517900 0 320.79182358 0 -672.77327893 0 26061
0.15550000 0.15549900 9740.14698577 0 -86.41019446 0 3152.13586332 0 401.04957002 0 -488.15554937 0 26128
0.15650000 0.15649500 9813.19111259 0 6.00790988 0 3249.30658593 0 322.99964514 0 -248.81728332 0 26331
0.15750000 0.15749700 9789.68456700 0 278.95615148 0 3181.83183848 0 -19.04428796 0 65.89062993 0 27345
0.15850000 0.15849900 9436.82064736 0 360.69537499 0 2925.39679568 0 -139.42382135 0 469.25066198 0 26980
0.15950000 0.15949700 9326.30777334 0 75.75175314 0 3179.69487979 0 180.77784731 0 411.86723137 0 27777
0.16050000 0.16050000 9235.16039544 0 121.47558282 0 2978.22285739 0 31.26326274 0 73.62199146 0 28224
0.16150000 0.16150500 9082.98236313 0 190.65768275 0 3043.15097013 0 105.52257722 0 -399.76739481 0 28075
0.16250000 0.16249700 8822.06302878 0 249.89351330 0 3011.74985695 0 -61.11281105 0 8.44222693 0 28590
0.16350000 0.16349900 8638.70532978 0 147.06372547 0 2789.74974433 0 185.16248794 0 10.00014732 0 29163
0.16450000 0.16449100 8816.71509589 0 -85.83133332 0 2879.43557536 0 285.36702755 0 -204.94873239 0 28996
0.16550000 0.16550500 8659.03411815 0 -24.69759557 0 2693.14371029 0 395.24324289 0 -203.13508559 0 30777
0.16650000 0.16650700 8768.48404898 0 66.87905637 0 2504.52665700 0 20.20046012 0 211.22674057 0 29211
0.16750000 0.16749900 8752.55097357 0 49.92356248 0 2477.85342652 0 107.99336650 0 331.31274662 0 30922
0.16850000 0.16850800 8744.97750339 0 61.92618403 0 2563.34284644 0 -15.71340049 0 482.05802009 0 30867
0.16950000 0.16949900 8681.82096263 0 113.14365839 0 2719.36297546 0 -12.71423987 0 270.61315473 0 30852
0.17050000 0.17049200 8679.61756999 0 71.20545657 0 2493.99687610 0 -60.28161163 0 461.27858811 0 31257
0.17150000 0.17149500 8626.16038576 0 34.35509872 0 2820.55295198 0 23.86174577 0 283.31532576 0 32608
0.17250000 0.17250900 8607.32636125 0 142.06124912 0 2822.15843908 0 -63.99848034 0 29.00406559 0 32361
0.17350000 0.17350400 8410.74830642 0 254.07110145 0 3107.51439430 0 -133.63520993 0 384.83304309 0 32508
0.17450000 0.17449800 8299.74825011 0 292.02038753 0 3155.96688771 0 -235.18946594 0 383.46007482 0 32791
0.17550000 0.17549800 8126.58816227 0 54.15684443 0 3110.16067993 0 215.64127647 0 674.31011762 0 33633
0.17650000 0.17650100 8094.05767195 0 -32.80198372 0 3015.54766436 0 382.47353068 0 316.85339764 0 33984
0.17750000 0.17750300 8091.54425422 0 36.99662326 0 2813.41130247 0 351.64707115 0 305.03922706 0 34069
0.17850000 0.17849800 8063.44269383 0 169.08879400 0 2678.46180758 0 207.82200068 0 218.57544255 0 34536
