### header ###
fiducial parameters:
Omega_m = 0.31
Omega_nu = 0
Omega_de = 0.69
Omega_k = 0
H_0 = 100
w_de = -1
zeff = 0
beta = 0
fgrowth = 0
b_1 = 2
gamma = 0.55
Lx = 3500 Ly = 3500 Lz = 3500
nx = 700 ny = 700 nz = 700
xoffset = -685.467585 yoffset = -31.7331281 zoffset = 572.489161
bins = 400 dk = 0.001
kx_ny = 0.628318531 ky_ny = 0.628318531 kz_ny = 0.628318531
############################
A(data) = 8.06035458 (not used)
A(ran) = 8.07124589 (used)
Ngal = 479452
weighted Ngal = 0
Nran = 23820508
weighted Nran = 0
SN(data) = 3474.25227
SN(ran) = 70.3034789
SN(data+ran) = 3544.55575
############################
13 columns: k_central k_mean P_0(k) sigma^{lin}_{P_0(k)} P^img_1(k) sigma^{lin}_{P_1(k)} P_2(k) sigma^{lin}_{P_2(k)} P^img_3(k) sigma^{lin}_{P_3(k)} P_4(k) sigma^{lin}_{P_4(k)} N_modes
### header ###
0.00050000 0 0 0 0 0 0 0 0 0 0 0 0
0.00150000 0.00179520 75629.29322727 0 -50733.28159579 0 64977.93819823 0 12769.26932035 0 -183390.91597124 0 3
0.00250000 0.00253879 151469.40351908 0 -70282.35684909 0 18854.17614769 0 4265.10380944 0 148376.90319723 0 6
0.00350000 0.00331552 147175.55595441 0 -23038.18625016 0 2489.62330780 0 -65878.56109897 0 140327.32305408 0 7
0.00450000 0.00420575 144680.96117277 0 33490.35015571 0 -9429.97795062 0 -60528.96736285 0 35070.37090733 0 24
0.00550000 0.00557378 122025.87736134 0 7729.83354704 0 26585.53767556 0 -10768.42271935 0 -6838.96536446 0 45
0.00650000 0.00659388 108224.33519814 0 9648.42384697 0 20937.43406232 0 9052.56668685 0 -4146.58564458 0 40
0.00750000 0.00754703 94043.23374017 0 7077.64039825 0 16185.30297340 0 12369.66911765 0 -27746.47093279 0 57
0.00850000 0.00846663 88349.84431842 0 21389.51708466 0 22266.11304055 0 7983.12404959 0 -377.34482982 0 75
0.00950000 0.00948925 94898.57083241 0 -7806.18829899 0 24851.05799271 0 11283.14188319 0 -8894.04421242 0 112
0.01050000 0.01054430 91046.06613501 0 4421.75506098 0 32099.66615849 0 -14349.06862548 0 27399.02137998 0 105
0.01150000 0.01145670 81517.00194958 0 6041.27079522 0 41904.32050865 0 -6148.84950316 0 30905.73737329 0 144
0.01250000 0.01249090 93140.72854420 0 898.83361306 0 56185.40505974 0 10650.05956704 0 46009.38493516 0 169
0.01350000 0.01339930 89048.84018422 0 10689.28881387 0 72488.07467622 0 28385.12262833 0 19451.74951815 0 180
0.01450000 0.01448870 81302.53101785 0 14761.06983198 0 79779.86490879 0 13184.48150105 0 43947.60733068 0 267
0.01550000 0.01550050 75851.95767937 0 10469.70246807 0 83332.53105010 0 35855.17729048 0 50622.33690111 0 238
0.01650000 0.01653350 66053.17166136 0 196.51162088 0 73115.32187719 0 29631.20206342 0 39492.76816315 0 315
0.01750000 0.01747870 68969.73274184 0 1656.41979287 0 66077.97366896 0 40844.25613051 0 31211.55498479 0 297
0.01850000 0.01844180 72316.01074854 0 -6763.83964057 0 44670.51941809 0 10363.81782583 0 17254.11448814 0 388
0.01950000 0.01947590 68104.65200376 0 -2192.98465358 0 31206.79388511 0 18662.73565157 0 27817.33381163 0 399
0.02050000 0.02045430 76534.34505794 0 994.46085359 0 25167.06214304 0 4157.89048822 0 10484.17399660 0 462
0.02150000 0.02154770 72536.90362867 0 -1951.28687511 0 21689.79853374 0 -2426.56641796 0 4723.91880528 0 571
0.02250000 0.02255340 76034.54031563 0 3201.28591319 0 25070.73291712 0 9718.51166307 0 -3919.55869650 0 510
0.02350000 0.02348930 69351.06360860 0 4738.31282754 0 25726.21454638 0 -9717.44871989 0 2207.95443674 0 555
0.02450000 0.02439640 69103.81859540 0 4914.30743053 0 17757.24092790 0 1468.98747834 0 13767.21795626 0 592
0.02550000 0.02547300 69880.32073493 0 -1855.59984403 0 33180.54650729 0 1820.45628506 0 4149.32050881 0 837
0.02650000 0.02652900 68491.74047942 0 -2172.17975525 0 34838.51642563 0 -398.18626683 0 12310.54290312 0 723
0.02750000 0.02749970 65703.95053658 0 5933.89138913 0 38168.29666834 0 7796.77682290 0 -5345.75163942 0 826
0.02850000 0.02848090 68802.87280683 0 1454.50487748 0 34521.40504282 0 196.02665305 0 17093.67650152 0 831
0.02950000 0.02946900 67165.94030564 0 802.10024728 0 33280.30815390 0 9227.86373338 0 13607.55503237 0 996
0.03050000 0.03053250 66232.65404667 0 -366.18171194 0 32852.25207641 0 9020.81125927 0 4789.95415050 0 1041
0.03150000 0.03150510 66333.85509552 0 1180.66414006 0 27061.53691951 0 9368.89193460 0 1598.48938942 0 1036
0.03250000 0.03246190 62476.92146819 0 3640.39217085 0 25928.50592082 0 3738.19401597 0 -2046.66388110 0 1059
0.03350000 0.03345080 56468.19223561 0 6894.11661438 0 17824.33921631 0 4291.71060598 0 3074.14240730 0 1302
0.03450000 0.03451200 52550.47154503 0 3826.05291341 0 14974.54425448 0 1697.39846702 0 3424.43754759 0 1339
0.03550000 0.03553350 49993.53957466 0 740.38089428 0 14665.29422230 0 1167.53236283 0 5692.11610439 0 1365
0.03650000 0.03647120 48079.46678326 0 206.48889278 0 17217.35436975 0 2907.32676158 0 -241.88711522 0 1308
0.03750000 0.03744890 48765.17585927 0 2193.40540192 0 13976.92778832 0 2700.31857677 0 544.17044063 0 1579
0.03850000 0.03847530 48014.25079007 0 -1846.76412883 0 14001.17617967 0 846.09502271 0 4315.35001947 0 1662
0.03950000 0.03950240 49344.14772404 0 -1745.12018699 0 16675.03190013 0 1725.52217206 0 5394.87954464 0 1683
0.04050000 0.04050350 50130.28278617 0 1687.96484628 0 19421.07917840 0 -702.24227144 0 5551.94047219 0 1822
0.04150000 0.04152450 50029.96752331 0 1644.88243041 0 18105.68698995 0 4905.62672788 0 681.93784219 0 1887
0.04250000 0.04250150 47326.10580260 0 1862.54219169 0 17762.77709031 0 -2149.52577867 0 4804.39246206 0 1920
0.04350000 0.04349210 46626.00270431 0 2887.72874665 0 14999.67843182 0 2952.44648522 0 5966.62118130 0 2005
0.04450000 0.04448520 44266.26883896 0 1012.40134149 0 18061.50841392 0 2501.20495956 0 7902.99363488 0 2151
0.04550000 0.04548030 42777.92693684 0 2045.63415489 0 13444.57041104 0 2793.66934732 0 4133.86354337 0 2274
0.04650000 0.04648670 42048.48217779 0 1451.52642210 0 19515.63683235 0 -338.77770801 0 4765.38466172 0 2311
0.04750000 0.04749250 39354.69627266 0 1922.87528963 0 17245.25662829 0 -695.13162444 0 6512.77467530 0 2568
0.04850000 0.04851840 38040.74348643 0 2594.02425851 0 16678.68576732 0 -270.58768838 0 7375.55236982 0 2493
0.04950000 0.04949480 36906.16236226 0 620.50969132 0 18223.82869576 0 571.70509799 0 7824.56835819 0 2644
0.05050000 0.05050630 37062.28214221 0 -851.02110003 0 18198.25162543 0 3818.82268530 0 6045.95438862 0 2829
0.05150000 0.05149060 37684.87896676 0 -481.53762083 0 16795.38807091 0 3299.50850666 0 3385.35224098 0 2784
0.05250000 0.05249300 39083.75648435 0 -317.67496414 0 16180.32042723 0 757.48209996 0 2221.55125161 0 3055
0.05350000 0.05348950 36845.81819200 0 1245.07185353 0 16526.21985457 0 920.76235236 0 2885.69143889 0 3009
0.05450000 0.05448610 37122.95848221 0 1916.18760544 0 15697.12417215 0 -1526.36426555 0 1599.44160935 0 3336
0.05550000 0.05550870 35697.61810831 0 1189.40020434 0 18150.52990546 0 -488.49657698 0 1329.85264467 0 3349
0.05650000 0.05647670 34836.63413041 0 1251.57130820 0 19211.48006959 0 -1448.75834090 0 2056.55146717 0 3324
0.05750000 0.05747970 33908.21969437 0 -0.27765626 0 17429.61083652 0 -168.81973651 0 50.23225890 0 3639
0.05850000 0.05849280 34200.52906958 0 513.81455491 0 19672.53167503 0 831.97116518 0 144.63113571 0 3846
0.05950000 0.05951020 34407.36009719 0 787.73722753 0 16153.63612442 0 2248.74488137 0 -2456.35097172 0 3787
0.06050000 0.06049470 32370.49522355 0 640.24500308 0 15420.20532843 0 2370.06434441 0 116.44542565 0 3930
0.06150000 0.06148310 32910.71395146 0 -57.99694812 0 13325.54291924 0 3076.93263315 0 943.04651329 0 4083
0.06250000 0.06249100 32650.95721121 0 -669.86900813 0 12349.40676323 0 4173.20351345 0 -1227.36720615 0 4303
0.06350000 0.06350600 32132.99385619 0 -303.76369524 0 9874.42106884 0 3051.20055027 0 -853.67070736 0 4470
0.06450000 0.06451750 33194.16546681 0 515.91165323 0 9850.10624354 0 589.22151585 0 414.81136254 0 4479
0.06550000 0.06550280 32142.84822528 0 -51.88657495 0 10567.74790434 0 422.85762099 0 2406.09368937 0 4636
0.06650000 0.06648880 32229.32308212 0 816.81758143 0 11499.49511015 0 -1703.27787150 0 2666.79157722 0 4653
0.06750000 0.06749660 32004.77633479 0 1450.89529959 0 11858.68132727 0 -736.78792487 0 3171.42385316 0 5220
0.06850000 0.06852730 30585.96863253 0 526.57319480 0 12159.18422284 0 -141.09131347 0 3336.58972247 0 5029
0.06950000 0.06949320 30713.18964470 0 588.05117112 0 12554.13404913 0 1717.20685612 0 3811.63674649 0 5040
0.07050000 0.07048030 30080.62772781 0 291.23203801 0 11876.39704698 0 1995.53188509 0 2727.61185745 0 5475
0.07150000 0.07148790 29430.23936796 0 779.86701904 0 12299.24913180 0 1830.12242462 0 3027.04073752 0 5509
0.07250000 0.07249820 28367.73907836 0 1213.26106433 0 10253.05028834 0 2109.57683072 0 2738.20807230 0 5916
0.07350000 0.07351270 26851.49491770 0 1392.41127989 0 9525.18887174 0 1383.14374402 0 5317.41756021 0 5721
0.07450000 0.07449140 26053.95536101 0 1371.22992252 0 9243.56428997 0 1615.29717849 0 4182.08351795 0 6028
0.07550000 0.07549160 25468.00793161 0 58.32070290 0 8176.14788816 0 936.45958726 0 5500.27700459 0 6183
0.07650000 0.07648840 25318.08865356 0 -475.02487937 0 7456.59071517 0 1110.00056307 0 4941.04709497 0 6330
0.07750000 0.07749960 25398.14156200 0 -237.20905798 0 8486.61587607 0 -334.72745159 0 4753.59263579 0 6583
0.07850000 0.07848650 25746.25545430 0 424.73438004 0 8204.08336368 0 -725.59491171 0 3937.57336898 0 6549
0.07950000 0.07947320 25189.31751592 0 708.99528234 0 8396.60894762 0 93.20904479 0 2892.27947215 0 6828
0.08050000 0.08048110 24599.60549608 0 852.00542970 0 8355.34239302 0 10.19866303 0 3207.79644018 0 7147
0.08150000 0.08149960 23757.66591687 0 993.34144155 0 8713.29958208 0 -338.23959302 0 3155.88938143 0 7386
0.08250000 0.08250610 23403.57296917 0 783.88848742 0 8691.71962101 0 847.52445985 0 1897.01033885 0 7227
0.08350000 0.08350160 21899.72981230 0 759.67552750 0 7545.95544878 0 -222.42307542 0 1867.73511203 0 7798
0.08450000 0.08449610 22159.92944554 0 120.82563735 0 8363.83486616 0 428.75031225 0 1070.04829343 0 7371
0.08550000 0.08548940 22262.79134311 0 -41.87719331 0 8309.74655942 0 -633.69793742 0 1640.25419863 0 8256
0.08650000 0.08650700 21898.62257982 0 115.61610852 0 7693.72669581 0 528.32372935 0 320.09205265 0 8037
0.08750000 0.08749060 21930.28942880 0 258.31401632 0 7594.02041082 0 17.46249564 0 469.34145504 0 8155
0.08850000 0.08849210 21470.45577909 0 563.28348773 0 7927.52990668 0 272.15885127 0 462.26734671 0 8718
0.08950000 0.08949900 21418.63729893 0 251.04724954 0 8579.16943923 0 16.41283925 0 -368.07065055 0 8571
0.09050000 0.09049190 20826.71081413 0 470.22059763 0 8467.26145229 0 -51.48564607 0 -145.00205859 0 8932
0.09150000 0.09150830 20495.31613231 0 1063.58759189 0 8738.46697640 0 419.15614280 0 281.90581881 0 9285
0.09250000 0.09250820 19701.76261255 0 595.90034218 0 8189.57861816 0 259.96600718 0 809.16106882 0 9204
0.09350000 0.09350330 19606.09772612 0 -144.75293128 0 8225.05434688 0 1662.78637964 0 109.35592679 0 9349
0.09450000 0.09448040 19492.16350374 0 63.13550335 0 8102.22904767 0 471.86705233 0 1197.58265238 0 9564
0.09550000 0.09549270 19309.47014423 0 366.18724810 0 7399.81183350 0 1353.75779395 0 648.73636898 0 10155
0.09650000 0.09649430 18834.68885601 0 73.33178583 0 6829.38780349 0 655.40080129 0 2098.93632657 0 9913
0.09750000 0.09749140 19135.96681432 0 225.68941124 0 7546.16582295 0 122.17978268 0 1486.22708808 0 10476
0.09850000 0.09850240 18428.33453516 0 255.93125202 0 7224.48157000 0 444.56712826 0 2369.07890750 0 10575
0.09950000 0.09950330 18348.94596621 0 664.54875606 0 7034.10401706 0 340.48948943 0 2534.46622331 0 10882
0.10050000 0.10051200 18035.15628085 0 98.64024156 0 6854.51090850 0 709.97518309 0 2412.27204661 0 10875
0.10150000 0.10150300 17783.70378422 0 188.95033026 0 6706.19711756 0 567.18648223 0 1727.33803333 0 11118
0.10250000 0.10250800 17319.33048133 0 450.35906137 0 5724.30335264 0 80.49879096 0 1244.54038194 0 11575
0.10350000 0.10349800 16917.07292067 0 39.77544462 0 5933.48171312 0 306.26050448 0 1676.63785799 0 11364
0.10450000 0.10450100 17176.27604467 0 202.40874108 0 5844.59308947 0 249.50930363 0 1321.40446083 0 12093
0.10550000 0.10551000 16776.34367222 0 483.60703834 0 6223.02300712 0 -185.28981968 0 1840.25360183 0 12067
0.10650000 0.10649700 16299.01574929 0 625.29736458 0 6046.71837904 0 504.39975711 0 1518.31468541 0 12054
0.10750000 0.10749900 16305.65914418 0 243.00542003 0 6626.16635377 0 -132.14819671 0 2666.73621560 0 12807
0.10850000 0.10850100 16092.51689142 0 4.66378501 0 6413.79916375 0 203.87693135 0 1893.37861631 0 12736
0.10950000 0.10950300 16032.28344441 0 289.71512951 0 6549.26905790 0 110.57277529 0 2115.63339240 0 12933
0.11050000 0.11050200 15652.94559612 0 448.21545929 0 6040.88326386 0 374.79376618 0 1956.14762571 0 13428
0.11150000 0.11150900 15212.59923808 0 486.49248618 0 6249.36406787 0 233.86300142 0 1855.10158942 0 13453
0.11250000 0.11250000 14965.46494813 0 242.01112526 0 5467.52506777 0 679.82413538 0 1309.65672420 0 13668
0.11350000 0.11349100 14744.35062150 0 -112.63876038 0 4761.88580708 0 505.57120908 0 1228.08690726 0 13791
0.11450000 0.11448600 14830.38258534 0 -89.83198572 0 4708.61685238 0 795.53435866 0 1413.28261218 0 14205
0.11550000 0.11549300 14974.98714747 0 15.46128365 0 4625.48583764 0 587.06905591 0 1086.40322442 0 14776
0.11650000 0.11649800 14771.92071030 0 137.34776045 0 4248.80534731 0 357.90736360 0 2013.69049779 0 14553
0.11750000 0.11747300 14686.22091620 0 243.00209833 0 4464.05134178 0 158.88675392 0 1332.86431702 0 14568
0.11850000 0.11849100 14739.14662884 0 163.72757433 0 4658.37064235 0 137.50830916 0 1877.63377042 0 16015
0.11950000 0.11950300 14384.05717190 0 233.73788415 0 4799.49849449 0 -261.63460653 0 1385.81217430 0 15270
0.12050000 0.12050700 14192.50595254 0 575.82732452 0 4914.08598404 0 -178.89998102 0 1549.04038678 0 15999
0.12150000 0.12150000 13709.64186720 0 463.50412540 0 5254.73712941 0 -744.66920568 0 1201.40260445 0 15670
0.12250000 0.12250700 13468.70807915 0 151.58234123 0 5036.41302863 0 -11.78505037 0 992.87751114 0 16887
0.12350000 0.12352200 13554.96148948 0 -95.74527151 0 5210.62498733 0 392.42201453 0 1292.87107977 0 16407
0.12450000 0.12449800 13498.93552590 0 -118.07637910 0 5004.77939663 0 339.08994757 0 824.59921131 0 16306
0.12550000 0.12549900 13782.16559476 0 105.16117654 0 4823.97940466 0 587.87401392 0 1618.61887594 0 17523
0.12650000 0.12650100 13614.08770401 0 68.96785045 0 4697.66632313 0 221.48746397 0 1338.54441965 0 17154
0.12750000 0.12750600 13522.96247076 0 190.19818127 0 4769.14925216 0 319.50743390 0 2107.37343808 0 18007
0.12850000 0.12850300 13510.00785072 0 53.64153843 0 4940.22774293 0 246.03480810 0 1794.87921473 0 17496
0.12950000 0.12949900 13248.03664551 0 307.27030051 0 4483.40576557 0 413.59008511 0 2011.85249187 0 18405
0.13050000 0.13049000 13195.22165613 0 215.65124156 0 4428.39845587 0 212.49784345 0 1741.55489840 0 18100
0.13150000 0.13148800 12775.46982225 0 399.35661156 0 4141.58095377 0 -85.77109987 0 1642.25828943 0 19059
0.13250000 0.13249300 12603.62734107 0 275.31114215 0 4324.31860257 0 353.24591485 0 1046.63807706 0 18957
0.13350000 0.13349100 12345.86361929 0 123.38112992 0 3731.88279083 0 -88.26558393 0 704.15335470 0 19468
0.13450000 0.13450700 12201.70195015 0 51.33904849 0 3607.33020894 0 148.64042453 0 397.59721915 0 19953
0.13550000 0.13551000 12256.95285099 0 11.59095251 0 3727.90782622 0 68.14373731 0 209.92574240 0 19956
0.13650000 0.13649900 11997.08538750 0 145.00205859 0 3489.84177029 0 276.00426968 0 19.74704842 0 19723
0.13750000 0.13749600 11978.48388180 0 344.01602488 0 3599.36920740 0 -119.54789107 0 149.24608070 0 20946
0.13850000 0.13851100 11693.59296422 0 326.37227528 0 3682.48914981 0 -14.46566021 0 1.99559832 0 20955
0.13950000 0.13949800 11194.78473114 0 316.68952723 0 3821.88971928 0 202.34895053 0 190.12510393 0 20506
0.14050000 0.14048300 11123.14678956 0 272.36590375 0 3588.26366560 0 128.73238450 0 -224.68736585 0 21447
0.14150000 0.14148400 11059.21518606 0 4.11780867 0 3638.73132213 0 15.95754525 0 -94.13015149 0 21771
0.14250000 0.14249400 10924.91895834 0 -58.08475166 0 3629.55236485 0 -125.55573451 0 -242.38094091 0 22470
0.14350000 0.14350900 11030.88110685 0 132.05408195 0 3446.64863117 0 -56.22781206 0 -411.11099159 0 22519
0.14450000 0.14449900 10931.36305138 0 169.96350766 0 3070.39996151 0 127.19554582 0 -445.72861513 0 22218
0.14550000 0.14550500 10787.03529737 0 49.07874410 0 3319.95909060 0 259.27177242 0 -793.07408809 0 23559
0.14650000 0.14650700 10750.35268524 0 48.00251413 0 3160.92728923 0 128.76892318 0 -690.00070912 0 23044
0.14750000 0.14750500 10601.03131274 0 179.14135771 0 3394.58655988 0 200.67260055 0 -968.64019211 0 23649
0.14850000 0.14849900 10494.63734356 0 274.00239336 0 3083.25493062 0 70.52749812 0 -256.68970627 0 23640
0.14950000 0.14949500 10331.03267204 0 270.08721930 0 3505.42053131 0 220.45552330 0 194.47984928 0 24457
0.15050000 0.15050000 10149.25831549 0 222.59801815 0 3294.95778116 0 57.40258573 0 811.87932456 0 24591
0.15150000 0.15149900 10053.48270581 0 86.34763582 0 3558.97736646 0 403.49876827 0 765.68890711 0 25020
0.15250000 0.15250500 9994.43399755 0 38.40613021 0 3432.68642958 0 186.78126183 0 740.89132845 0 25297
0.15350000 0.15350100 9838.69067665 0 197.59449425 0 3678.12665383 0 105.85740432 0 806.50703256 0 25452
0.15450000 0.15450400 9620.52158843 0 318.82870039 0 3224.47136136 0 28.89035281 0 988.83168365 0 26061
0.15550000 0.15549900 9457.86913684 0 208.03901825 0 3741.29426692 0 131.25908903 0 1009.57568420 0 26128
0.15650000 0.15649500 9291.86177083 0 127.12357571 0 3318.68577324 0 26.03480024 0 1040.33570978 0 26331
0.15750000 0.15749700 9150.40174895 0 111.04213114 0 3370.72569989 0 269.70300963 0 600.68137204 0 27345
0.15850000 0.15849900 9077.57906862 0 23.82963603 0 2725.17594599 0 541.53744179 0 661.45071957 0 26980
0.15950000 0.15949700 9154.15526706 0 -4.09318382 0 2638.41320871 0 274.36113668 0 662.90562305 0 27777
0.16050000 0.16050000 9217.71041152 0 -68.92145741 0 2529.16257972 0 219.27410624 0 602.21821072 0 28224
0.16150000 0.16150500 9225.35031565 0 43.99931509 0 2315.05703471 0 -124.49722026 0 398.85503524 0 28075
0.16250000 0.16249700 9020.33514931 0 363.91188535 0 2384.64659619 0 -278.15451516 0 448.67053184 0 28590
0.16350000 0.16349900 8873.32789269 0 237.39064411 0 2763.38653894 0 -369.44915499 0 491.11739626 0 29163
0.16450000 0.16449100 8810.94641466 0 -58.85239594 0 2839.51984439 0 66.31735733 0 410.76664228 0 28996
0.16550000 0.16550500 8806.56177403 0 50.09462990 0 2872.14998563 0 15.66136056 0 363.15896726 0 30777
0.16650000 0.16650700 8732.80901842 0 172.75373352 0 2721.21205370 0 401.82241830 0 252.69259701 0 29211
0.16750000 0.16749900 8562.16234831 0 37.20434007 0 2679.59118471 0 263.21905622 0 537.07750935 0 30922
0.16850000 0.16850800 8610.30481662 0 103.55878969 0 2589.13029094 0 329.17357346 0 475.63607170 0 30867
0.16950000 0.16949900 8522.25768966 0 108.59979773 0 2506.59718174 0 32.62239061 0 172.87220739 0 30852
0.17050000 0.17049200 8248.63839875 0 251.03174829 0 2274.63197679 0 73.62165929 0 593.60504925 0 31257
0.17150000 0.17149500 8276.42993404 0 86.28762382 0 2454.05900048 0 -9.36013373 0 668.37645875 0 32608
0.17250000 0.17250900 8223.69245093 0 -81.34028765 0 2441.60263506 0 180.27073484 0 490.73207936 0 32361
0.17350000 0.17350400 8251.22932275 0 61.23947845 0 2455.06658204 0 124.31784860 0 307.61354258 0 32508
0.17450000 0.17449800 8164.95376777 0 149.27265428 0 2339.31649838 0 8.72629849 0 320.49951420 0 32791
0.17550000 0.17549800 8123.85329804 0 121.92069028 0 2394.84420735 0 -58.53462022 0 491.22590504 0 33633
0.17650000 0.17650100 7966.52663469 0 181.33478525 0 2367.98274734 0 -77.72882746 0 241.80850171 0 33984
0.17750000 0.17750300 7911.34216780 0 84.53598203 0 2368.49207428 0 -137.72975565 0 213.64936524 0 34069
0.17850000 0.17849800 7838.91809116 0 -3.52424348 0 2307.53892615 0 -78.86152629 0 24.69471677 0 34536
