### header ###
fiducial parameters:
Omega_m = 0.31
Omega_nu = 0
Omega_de = 0.69
Omega_k = 0
H_0 = 100
w_de = -1
zeff = 0
beta = 0
fgrowth = 0
b_1 = 2
gamma = 0.55
Lx = 3500 Ly = 3500 Lz = 3500
nx = 700 ny = 700 nz = 700
xoffset = -685.467585 yoffset = -31.7331281 zoffset = 572.489161
bins = 400 dk = 0.001
kx_ny = 0.628318531 ky_ny = 0.628318531 kz_ny = 0.628318531
############################
A(data) = 8.04692239 (not used)
A(ran) = 8.04496463 (used)
Ngal = 478454
weighted Ngal = 0
Nran = 23820508
weighted Nran = 0
SN(data) = 3486.95175
SN(ran) = 70.0745596
SN(data+ran) = 3557.02631
############################
13 columns: k_central k_mean P_0(k) sigma^{lin}_{P_0(k)} P^img_1(k) sigma^{lin}_{P_1(k)} P_2(k) sigma^{lin}_{P_2(k)} P^img_3(k) sigma^{lin}_{P_3(k)} P_4(k) sigma^{lin}_{P_4(k)} N_modes
### header ###
0.00050000 0 0 0 0 0 0 0 0 0 0 0 0
0.00150000 0.00179520 13454.64622663 0 -17055.25553440 0 18372.64074132 0 -13142.40666674 0 -6191.61082161 0 3
0.00250000 0.00253879 29956.28552010 0 -16860.93623383 0 9257.48220227 0 -12424.47712550 0 6684.89396461 0 6
0.00350000 0.00331552 33593.43349977 0 -6764.10537636 0 -12384.17386316 0 11088.60113613 0 48817.76940216 0 7
0.00450000 0.00420575 34123.79785859 0 -1971.03990259 0 -26397.86176988 0 -3778.39762739 0 4695.59579839 0 24
0.00550000 0.00557378 34106.96792486 0 -14987.72032102 0 -34735.65452806 0 5948.81688299 0 -8038.46352904 0 45
0.00650000 0.00659388 58550.23219451 0 -29178.89759458 0 -40792.65909686 0 -9390.73763146 0 -7395.92544749 0 40
0.00750000 0.00754703 63142.14674329 0 -11956.89284841 0 -24017.86555011 0 -39395.99604423 0 -23643.95314099 0 57
0.00850000 0.00846663 78082.25606759 0 -5387.83754605 0 -38325.63440401 0 -21725.34069641 0 51823.24125094 0 75
0.00950000 0.00948925 67499.21728268 0 7393.12414931 0 -6804.06539663 0 -29309.55102744 0 21353.31058250 0 112
0.01050000 0.01054430 85840.19117502 0 -13251.35834296 0 10516.27266625 0 -1164.22173771 0 46504.20713131 0 105
0.01150000 0.01145670 88279.09216283 0 -6380.01750073 0 999.37918027 0 12968.68189034 0 23131.08305539 0 144
0.01250000 0.01249090 92836.90395117 0 2337.78851756 0 15285.67658189 0 10977.05853591 0 27293.28067796 0 169
0.01350000 0.01339930 84037.39524805 0 9538.82997591 0 608.48514657 0 12459.57639517 0 14608.82536572 0 180
0.01450000 0.01448870 79903.43205376 0 12551.58741442 0 -1148.39938554 0 7137.48631390 0 41436.95767805 0 267
0.01550000 0.01550050 71758.40847067 0 -1493.90020918 0 -410.18866693 0 10946.82001683 0 33202.13754068 0 238
0.01650000 0.01653350 73761.72420011 0 -8811.48895858 0 -15992.09090532 0 16714.22792999 0 1604.23592600 0 315
0.01750000 0.01747870 78905.92631085 0 -10761.64645656 0 -10889.79754401 0 -1427.65448979 0 -8113.30137249 0 297
0.01850000 0.01844180 81615.98853346 0 1318.63637963 0 -21341.57391820 0 -16276.87109965 0 -14283.18829281 0 388
0.01950000 0.01947590 82515.61492498 0 5166.82287035 0 -6656.30522193 0 -23415.64180323 0 3681.02760293 0 399
0.02050000 0.02045430 72168.52738195 0 14184.20170893 0 5590.70468138 0 -9726.66089414 0 14987.83104426 0 462
0.02150000 0.02154770 70911.70779179 0 2888.99099168 0 9161.45192912 0 2299.76615413 0 14493.56246436 0 571
0.02250000 0.02255340 67968.13023875 0 -4958.64101911 0 20785.07887281 0 13857.01451054 0 12170.58871741 0 510
0.02350000 0.02348930 70044.30186549 0 -441.19117642 0 20091.17627643 0 8599.67538480 0 -1745.12018699 0 555
0.02450000 0.02439640 69684.00841590 0 5725.47701907 0 27854.86899276 0 9008.70920825 0 18348.61379647 0 592
0.02550000 0.02547300 65975.44394114 0 2896.32087071 0 18115.65208228 0 330.79899075 0 16302.78033973 0 837
0.02650000 0.02652900 63496.23969099 0 4429.78249647 0 18361.23624676 0 -1171.18623002 0 22943.18570321 0 723
0.02750000 0.02749970 60900.00096752 0 5270.83628969 0 21024.46253539 0 -1123.09912333 0 12547.49065423 0 826
0.02850000 0.02848090 56348.27895782 0 4410.53879593 0 21870.94176778 0 -3564.26993772 0 13313.91697818 0 831
0.02950000 0.02946900 53881.47571147 0 2839.39804882 0 20339.08562912 0 1217.50176473 0 17219.79028121 0 996
0.03050000 0.03053250 50957.71761986 0 1407.80181139 0 27161.29856612 0 6486.38932526 0 10128.08803044 0 1041
0.03150000 0.03150510 53333.94924919 0 -962.74417914 0 22994.00767413 0 11978.26243531 0 17392.96144137 0 1036
0.03250000 0.03246190 51507.23710061 0 -665.60062692 0 21776.38411382 0 4736.86235299 0 11725.81342944 0 1059
0.03350000 0.03345080 54547.58677256 0 92.32049072 0 19836.06991260 0 8184.07567273 0 19374.57541416 0 1302
0.03450000 0.03451200 56001.71519100 0 -3336.16897413 0 17857.44546751 0 6054.32506619 0 11348.91149262 0 1339
0.03550000 0.03553350 56265.45796818 0 560.67595524 0 14652.56104876 0 -1725.81005251 0 8316.84391963 0 1365
0.03650000 0.03647120 53781.38189511 0 4568.99483641 0 13611.09817631 0 -2295.95727439 0 807.92761183 0 1308
0.03750000 0.03744890 49746.73745445 0 5388.77869366 0 15323.54393277 0 -5303.79860068 0 10819.18932864 0 1579
0.03850000 0.03847530 46516.82958160 0 2560.61905453 0 19756.34917391 0 2087.35467481 0 12418.83023984 0 1662
0.03950000 0.03950240 46297.37610369 0 621.81733289 0 20900.78466717 0 3099.58660973 0 4213.40712486 0 1683
0.04050000 0.04050350 45833.66714029 0 -713.18062113 0 21056.90444711 0 2316.61823251 0 4991.12722013 0 1822
0.04150000 0.04152450 47272.84792022 0 442.36816455 0 22780.31180513 0 -2433.95165861 0 3930.12169438 0 1887
0.04250000 0.04250150 44971.35448341 0 473.85342740 0 23585.15909620 0 -445.23257498 0 9158.72813721 0 1920
0.04350000 0.04349210 45574.13184654 0 5.31299970 0 22137.67407266 0 3316.24986178 0 8916.36601926 0 2005
0.04450000 0.04448520 46043.81986535 0 345.57722268 0 20067.48150131 0 4802.02298455 0 5500.42094481 0 2151
0.04550000 0.04548030 44758.32295390 0 365.80414566 0 15293.75937900 0 8041.08767002 0 1217.21388429 0 2274
0.04650000 0.04648670 43269.98105178 0 2281.58539678 0 14389.26116457 0 78.44908219 0 1522.04605887 0 2311
0.04750000 0.04749250 41765.14138568 0 1442.92322572 0 11853.25588811 0 1173.16817616 0 1006.10893930 0 2568
0.04850000 0.04851840 40656.58022484 0 -716.85995466 0 14247.97829988 0 -3020.88452492 0 141.26625620 0 2493
0.04950000 0.04949480 41183.62288620 0 556.30238693 0 14078.68245341 0 -3640.89042547 0 -4782.89000726 0 2644
0.05050000 0.05050630 41865.34592529 0 1542.65165536 0 19272.59930258 0 -5358.00870299 0 -4055.01751833 0 2829
0.05150000 0.05149060 39561.97019326 0 1688.03128023 0 17282.34891643 0 -2273.05970667 0 -1872.77301983 0 2784
0.05250000 0.05249300 40686.36477860 0 -336.37058460 0 20707.12970609 0 567.16655205 0 -645.86642239 0 3055
0.05350000 0.05348950 41293.79251815 0 -477.69220242 0 20512.36751253 0 2358.72628379 0 -1823.80012715 0 3009
0.05450000 0.05448610 40276.35659056 0 2286.86689572 0 21621.70373611 0 4698.39709657 0 -4407.93679960 0 3336
0.05550000 0.05550870 37444.60951819 0 3657.39926177 0 18279.63321285 0 2082.73751536 0 -275.64441913 0 3349
0.05650000 0.05647670 35230.69817071 0 432.13955088 0 18406.52205527 0 2034.00821383 0 1969.64478966 0 3324
0.05750000 0.05747970 35678.57370962 0 441.62410432 0 17977.35874530 0 4738.51212939 0 1616.17189215 0 3639
0.05850000 0.05849280 34724.69292649 0 -710.32063963 0 14742.46832628 0 2555.22683235 0 600.08678820 0 3846
0.05950000 0.05951020 35167.14302625 0 800.07290461 0 14385.38585088 0 449.36144490 0 -141.64382248 0 3787
0.06050000 0.06049470 34773.74332544 0 615.13297039 0 13448.33500148 0 -560.55526690 0 225.86324674 0 3930
0.06150000 0.06148310 32758.69093170 0 738.75326253 0 11875.95415398 0 749.55099369 0 -882.19633779 0 4083
0.06250000 0.06249100 34194.10712118 0 252.01939966 0 12328.14789958 0 567.20530518 0 -540.15783012 0 4303
0.06350000 0.06350600 33820.41615856 0 -883.95130127 0 11268.85858418 0 740.96108410 0 -4303.90123561 0 4470
0.06450000 0.06451750 33443.73566822 0 1541.41155498 0 11100.33780044 0 -67.80702791 0 -2771.28110653 0 4479
0.06550000 0.06550280 32388.98600600 0 2043.39754528 0 11271.18377239 0 -587.57173945 0 -924.74617483 0 4636
0.06650000 0.06648880 30991.43716739 0 528.49424315 0 11702.00793108 0 638.85542632 0 -1356.16048844 0 4653
0.06750000 0.06749660 30661.59261104 0 -493.29642979 0 12281.86558184 0 1618.22027225 0 -1377.65187091 0 5220
0.06850000 0.06852730 30995.20175783 0 474.53216092 0 13830.55165422 0 2934.05535369 0 -2906.41883095 0 5029
0.06950000 0.06949320 30483.21745822 0 1405.96380547 0 13392.53048439 0 -2081.02130501 0 -2166.14533822 0 5040
0.07050000 0.07048030 29420.60644537 0 781.97961862 0 12648.13808684 0 -522.36128243 0 -627.69452290 0 5475
0.07150000 0.07148790 28409.59246618 0 999.39578876 0 12758.41844203 0 -929.34783303 0 577.23793870 0 5509
0.07250000 0.07249820 28317.58144694 0 391.40225341 0 12997.02704187 0 1546.84806646 0 -283.65635337 0 5916
0.07350000 0.07351270 28128.35541579 0 -256.17262870 0 11987.45246491 0 2754.04149679 0 -172.01188776 0 5721
0.07450000 0.07449140 27281.98690665 0 227.66914292 0 10553.70819647 0 2898.50211870 0 -2289.57961530 0 6028
0.07550000 0.07549160 27874.90990069 0 170.17166737 0 10022.24767750 0 833.88667737 0 -511.17712713 0 6183
0.07650000 0.07648840 27112.24816718 0 646.95261746 0 11236.74884220 0 -710.22984656 0 189.50505374 0 6330
0.07750000 0.07749960 26106.10601091 0 1369.12618080 0 11702.00793108 0 -819.69195695 0 60.01133618 0 6583
0.07850000 0.07848650 26022.95285152 0 1185.13735929 0 12063.85150616 0 -612.33831561 0 2798.80690603 0 6549
0.07950000 0.07947320 25074.60823080 0 287.10095362 0 11561.16795939 0 772.70322489 0 3071.30789215 0 6828
0.08050000 0.08048110 25677.38559393 0 -595.56152904 0 11946.37413983 0 1268.58947145 0 1106.86709515 0 7147
0.08150000 0.08149960 24531.06780546 0 866.66518776 0 11096.79465650 0 2034.29609428 0 1092.77424012 0 7386
0.08250000 0.08250610 24335.53054916 0 1070.71374015 0 11071.00721199 0 825.87806483 0 1243.97569337 0 7227
0.08350000 0.08350160 23224.75492335 0 305.03701259 0 9371.08425491 0 675.36420294 0 1922.65384313 0 7798
0.08450000 0.08449610 23027.44609508 0 104.79922224 0 9273.07203562 0 744.20638250 0 172.96300046 0 7371
0.08550000 0.08548940 22704.13421038 0 648.02109680 0 9268.43273152 0 655.00330483 0 1644.88243041 0 8256
0.08650000 0.08650700 22305.19834716 0 315.59225984 0 8679.06395375 0 -54.21829583 0 682.30101444 0 8037
0.08750000 0.08749060 21776.27339058 0 317.48230569 0 8262.29057525 0 1337.42611484 0 1413.40440775 0 8155
0.08850000 0.08849210 21414.54053875 0 322.50914116 0 7560.85879799 0 911.33758948 0 442.89520721 0 8718
0.08950000 0.08949900 21315.66467812 0 181.56176791 0 6592.67257119 0 1446.99784125 0 -192.64959398 0 8571
0.09050000 0.09049190 21264.51053746 0 155.01365469 0 6551.53888449 0 505.30990221 0 161.36584744 0 8932
0.09150000 0.09150830 20969.10091130 0 151.64213179 0 5683.29146151 0 109.03671167 0 249.91455071 0 9285
0.09250000 0.09250820 20576.36554998 0 634.05889520 0 6372.46617520 0 -242.72529021 0 1242.50307417 0 9204
0.09350000 0.09350330 20281.28809356 0 444.41654464 0 6120.91402765 0 -9.73436723 0 1573.21127186 0 9349
0.09450000 0.09448040 19808.61054705 0 409.43907054 0 6798.08634123 0 876.16302799 0 2266.41631178 0 9564
0.09550000 0.09549270 20046.11191441 0 87.80608245 0 6873.85425996 0 -62.53494045 0 1884.02250184 0 10155
0.09650000 0.09649430 19346.23026263 0 393.07860339 0 7362.26558004 0 861.46340956 0 1519.12296512 0 9913
0.09750000 0.09749140 19698.66236161 0 332.92266265 0 7129.61389095 0 -251.14800770 0 1350.11499909 0 10476
0.09850000 0.09850240 18872.11331389 0 425.64895407 0 6842.47529143 0 154.45228783 0 2259.07536042 0 10575
0.09950000 0.09950330 18717.54365943 0 692.52630641 0 6638.32376642 0 287.68889407 0 1107.79717043 0 10882
0.10050000 0.10051200 18164.14886499 0 450.58272233 0 6073.18123535 0 710.42693394 0 940.29282611 0 10875
0.10150000 0.10150300 17195.87405960 0 469.62712102 0 5778.45809333 0 556.74970886 0 504.15948766 0 11118
0.10250000 0.10250800 16882.74871373 0 798.83944762 0 6009.07247465 0 156.94798984 0 469.74338043 0 11575
0.10350000 0.10349800 16211.87655297 0 454.73484414 0 5591.76762456 0 -88.85728896 0 976.60340812 0 11364
0.10450000 0.10450100 16166.92291420 0 245.82443393 0 5976.18766994 0 493.16577635 0 1063.30192591 0 12093
0.10550000 0.10551000 16035.60514185 0 -102.67853987 0 5716.35342342 0 -58.26755574 0 1741.21165633 0 12067
0.10650000 0.10649700 16340.64769061 0 16.01567496 0 5823.81033579 0 390.35259702 0 654.61688070 0 12054
0.10750000 0.10749900 15912.59161312 0 -84.34243780 0 4941.19103519 0 235.03888232 0 1362.88138960 0 12807
0.10850000 0.10850100 16048.44903864 0 161.89178287 0 4774.74077619 0 838.95890937 0 332.39229829 0 12736
0.10950000 0.10950300 15962.30635155 0 -143.44196803 0 4038.37581413 0 1067.45515495 0 391.67684706 0 12933
0.11050000 0.11050200 15897.42252812 0 89.74263206 0 4038.08793369 0 549.59698702 0 -31.03550502 0 13428
0.11150000 0.11150900 15555.39841447 0 718.11112737 0 3590.87673426 0 311.63501095 0 252.33717538 0 13453
0.11250000 0.11250000 15100.43658767 0 616.99754989 0 4126.56688131 0 -563.84485460 0 1393.10883636 0 13668
0.11350000 0.11349100 14803.36611279 0 312.58058749 0 4398.00492424 0 -134.62950470 0 1577.76199736 0 13791
0.11450000 0.11448600 14651.67526277 0 198.93092385 0 5292.25016589 0 -163.59359920 0 1712.41253948 0 14205
0.11550000 0.11549300 14588.45228806 0 134.82659208 0 5597.73560764 0 -416.78555806 0 1787.36110617 0 14776
0.11650000 0.11649800 14495.66620608 0 88.60627936 0 6197.30199657 0 -80.70994019 0 1572.46942609 0 14553
0.11750000 0.11747300 14452.70558578 0 199.02614585 0 5999.71636018 0 -323.54772522 0 2211.34256813 0 14568
0.11850000 0.11849100 14482.04724655 0 53.93705878 0 6164.07394979 0 -111.58799675 0 1678.53122553 0 16015
0.11950000 0.11950300 14350.28658121 0 245.53655348 0 6120.27183281 0 771.78090023 0 2498.39258905 0 15270
0.12050000 0.12050700 14159.06753159 0 144.69867689 0 5754.40900382 0 610.93988098 0 1320.96156784 0 15999
0.12150000 0.12150000 14033.28592165 0 103.13826279 0 5109.61216801 0 815.25306193 0 1366.33595495 0 15670
0.12250000 0.12250700 13883.36664360 0 65.80891618 0 4903.26832269 0 325.08345668 0 1414.23483211 0 16887
0.12350000 0.12352200 13817.26486444 0 207.93936733 0 4952.24121536 0 25.27601382 0 1088.20912059 0 16407
0.12450000 0.12449800 13808.40700458 0 181.16094975 0 4586.26766313 0 -32.20274950 0 1667.52533466 0 16306
0.12550000 0.12549900 13545.43929014 0 56.44327950 0 4548.25637203 0 447.40496511 0 1849.00073844 0 17523
0.12650000 0.12650100 13421.87214516 0 172.50792791 0 4438.60713935 0 569.17396453 0 1801.23472917 0 17154
0.12750000 0.12750600 13331.07908165 0 245.14570041 0 3939.35601328 0 680.39325287 0 1036.40835616 0 18007
0.12850000 0.12850300 13074.53331560 0 295.95992070 0 4276.36436378 0 -120.58868960 0 1410.74704979 0 17496
0.12950000 0.12949900 12699.62439724 0 472.62329212 0 4372.57179413 0 -434.90098869 0 771.40444119 0 18405
0.13050000 0.13049000 12330.36236454 0 241.08326444 0 4718.57087239 0 -524.76397692 0 1242.61379742 0 18100
0.13150000 0.13148800 12128.07099010 0 312.27942026 0 4711.39600591 0 -196.15177032 0 716.02288691 0 19059
0.13250000 0.13249300 12054.10786032 0 176.84495754 0 4565.80600687 0 230.75278538 0 690.45356720 0 18957
0.13350000 0.13349100 11837.97607986 0 22.21661975 0 4325.80229410 0 746.44742104 0 804.39111128 0 19468
0.13450000 0.13450700 11968.85095921 0 -86.04979028 0 3919.59191348 0 483.80634018 0 666.73221851 0 19953
0.13550000 0.13551000 11907.28883322 0 -122.98031176 0 3372.12081282 0 779.12517328 0 -82.42127872 0 19956
0.13650000 0.13649900 11929.98709910 0 114.88865678 0 3456.82409768 0 272.91619829 0 343.73921676 0 19723
0.13750000 0.13749600 11968.40806622 0 263.62430330 0 3098.00326728 0 -28.10023171 0 1000.59935047 0 20946
0.13850000 0.13851100 11769.65983572 0 118.15720707 0 3004.37568862 0 -99.73618027 0 909.31356850 0 20955
0.13950000 0.13949800 11733.12116382 0 -99.32506485 0 3174.20300668 0 274.84499728 0 1193.85127892 0 20506
0.14050000 0.14048300 11964.97564553 0 -10.92335776 0 3510.79060885 0 198.18243470 0 459.45054728 0 21447
0.14150000 0.14148400 11638.67423312 0 262.43513562 0 3396.72351857 0 -105.11234758 0 550.96884807 0 21771
0.14250000 0.14249400 11607.89317012 0 263.53904640 0 3411.26148105 0 -428.94961410 0 996.41401168 0 22470
0.14350000 0.14350900 11379.91400211 0 242.53263176 0 3487.29513558 0 -230.96648125 0 1057.32176328 0 22519
0.14450000 0.14449900 11244.38874633 0 148.08791552 0 3872.41273742 0 7.90923843 0 908.24730362 0 22218
0.14550000 0.14550500 11238.29896768 0 141.66485989 0 3973.60271394 0 183.29569398 0 898.12719873 0 23559
0.14650000 0.14650700 10995.19500396 0 147.95061869 0 3725.72657823 0 158.11279841 0 567.80985412 0 23044
0.14750000 0.14750500 10807.57445991 0 258.84770238 0 3940.93935573 0 -162.11322937 0 276.78265412 0 23649
0.14850000 0.14849900 10690.98287957 0 403.19538657 0 4272.52226707 0 143.23380832 0 670.33626024 0 23640
0.14950000 0.14949500 10319.08563356 0 245.39482772 0 3943.58564136 0 217.53464401 0 842.23299582 0 24457
0.15050000 0.15050000 10115.03375948 0 86.10360178 0 3729.17007124 0 412.10417912 0 1226.85787921 0 24591
0.15150000 0.15149900 10375.70950268 0 -5.49028977 0 3628.45620469 0 621.01237487 0 943.87915212 0 25020
0.15250000 0.15250500 10158.19368162 0 65.89860201 0 3361.59103192 0 446.09068015 0 1311.39507920 0 25297
0.15350000 0.15350100 10059.09637449 0 73.58401339 0 3317.25744334 0 227.28271878 0 1215.29837209 0 25452
0.15450000 0.15450400 10011.06462943 0 73.18463463 0 3170.23911440 0 119.00202545 0 1326.73024907 0 26061
0.15550000 0.15549900 10008.18582498 0 82.98275631 0 3331.89505675 0 35.26834408 0 1329.87478932 0 26128
0.15650000 0.15649500 9850.92559558 0 146.44588975 0 2929.55998982 0 321.40633760 0 1163.51310892 0 26331
0.15750000 0.15749700 9809.72547493 0 10.67812791 0 2991.42106858 0 53.41688096 0 1375.08309155 0 27345
0.15850000 0.15849900 9680.91004799 0 266.48428481 0 3040.58219077 0 -69.34098779 0 992.80996996 0 26980
0.15950000 0.15949700 9565.28175991 0 245.23095732 0 2937.76458251 0 -163.74750451 0 588.93917157 0 27777
0.16050000 0.16050000 9198.52207261 0 192.87325495 0 2860.09222390 0 -272.89294641 0 471.77072311 0 28224
0.16150000 0.16150500 9199.24177373 0 225.83888763 0 2845.24423632 0 -144.04983866 0 286.28160158 0 28075
0.16250000 0.16249700 9059.68619171 0 -38.04805122 0 2840.71565547 0 200.57959302 0 290.21670582 0 28590
0.16350000 0.16349900 9257.24968345 0 -226.12676807 0 2394.84420735 0 465.18158261 0 -159.20563687 0 29163
0.16450000 0.16449100 9090.66655655 0 98.44968685 0 2259.15286670 0 247.37013047 0 47.49983058 0 28996
0.16550000 0.16550500 9088.62924879 0 315.92996575 0 2147.45525393 0 262.28455200 0 -341.96653756 0 30777
0.16650000 0.16650700 8761.78529247 0 111.87034104 0 2102.57912144 0 146.33516650 0 -26.23609510 0 29211
0.16750000 0.16749900 8598.91139438 0 121.61287965 0 2052.22218816 0 111.70425617 0 -305.55187570 0 30922
0.16850000 0.16850800 8650.19840294 0 68.36175139 0 2055.04563099 0 -61.79265179 0 -266.65479861 0 30867
0.16950000 0.16949900 8646.99850107 0 87.96795984 0 2112.03488683 0 -1.69397712 0 -314.35658839 0 30852
0.17050000 0.17049200 8558.51955344 0 23.64284591 0 1911.38221647 0 -244.50018388 0 113.90764880 0 31257
0.17150000 0.17149500 8516.40042983 0 215.45969034 0 2125.00057919 0 126.91873770 0 106.59626056 0 32608
0.17250000 0.17250900 8307.25528634 0 272.25518050 0 2075.92803560 0 161.69248102 0 168.08896307 0 32361
0.17350000 0.17350400 8054.95022069 0 218.37614070 0 2005.14266303 0 368.42607218 0 138.89567146 0 32508
0.17450000 0.17449800 8007.18421143 0 43.79591648 0 2092.08255751 0 160.25086433 0 311.30616290 0 32791
0.17550000 0.17549800 7917.18835530 0 84.89771489 0 2123.37294745 0 140.01286903 0 354.64545671 0 33633
0.17650000 0.17650100 7931.10626760 0 89.85169446 0 1992.15482602 0 30.11783074 0 493.25989111 0 33984
0.17750000 0.17750300 7908.17548290 0 -82.20492549 0 1875.86219845 0 96.24219745 0 883.81400444 0 34069
0.17850000 0.17849800 7984.03198023 0 -123.44534940 0 1888.20784062 0 165.92764527 0 601.34571153 0 34536
