### header ###
fiducial parameters:
Omega_m = 0.31
Omega_nu = 0
Omega_de = 0.69
Omega_k = 0
H_0 = 100
w_de = -1
zeff = 0
beta = 0
fgrowth = 0
b_1 = 2
gamma = 0.55
Lx = 3500 Ly = 3500 Lz = 3500
nx = 700 ny = 700 nz = 700
xoffset = -685.467585 yoffset = -31.7331281 zoffset = 572.489161
bins = 400 dk = 0.001
kx_ny = 0.628318531 ky_ny = 0.628318531 kz_ny = 0.628318531
############################
A(data) = 8.06522273 (not used)
A(ran) = 8.06429756 (used)
Ngal = 479198
weighted Ngal = 0
Nran = 23820508
weighted Nran = 0
SN(data) = 3489.45609
SN(ran) = 70.2429564
SN(data+ran) = 3559.69905
############################
13 columns: k_central k_mean P_0(k) sigma^{lin}_{P_0(k)} P^img_1(k) sigma^{lin}_{P_1(k)} P_2(k) sigma^{lin}_{P_2(k)} P^img_3(k) sigma^{lin}_{P_3(k)} P_4(k) sigma^{lin}_{P_4(k)} N_modes
### header ###
0.00050000 0 0 0 0 0 0 0 0 0 0 0 0
0.00150000 0.00179520 137495.02236547 0 -77424.33852687 0 127688.26427359 0 -1478.32144816 0 -309875.61853705 0 3
0.00250000 0.00253879 213758.98125134 0 -34446.55612705 0 38019.59534603 0 23286.53849584 0 229759.59784677 0 6
0.00350000 0.00331552 169727.66714503 0 31625.77065625 0 3060.53452010 0 -73389.02974671 0 76704.41596716 0 7
0.00450000 0.00420575 104544.33732142 0 70269.84512205 0 -33220.40687663 0 -13613.53408777 0 66074.54124826 0 24
0.00550000 0.00557378 69512.60882770 0 5237.37572409 0 6881.97027406 0 25540.53165917 0 -10473.34526293 0 45
0.00650000 0.00659388 59793.21137865 0 -1088.70183905 0 13700.23039110 0 17092.12637605 0 35136.80485624 0 40
0.00750000 0.00754703 49649.96533553 0 3912.01844330 0 826.97311775 0 30348.46726517 0 36084.26369098 0 57
0.00850000 0.00846663 56874.43583320 0 8.68632740 0 15814.26936873 0 19538.55654473 0 56448.70494393 0 75
0.00950000 0.00948925 59996.27781582 0 -3312.33025880 0 10339.85731492 0 20836.34373672 0 37381.71871322 0 112
0.01050000 0.01054430 58935.65982144 0 775.21221369 0 19347.44821836 0 8779.34599963 0 48541.07200495 0 105
0.01150000 0.01145670 62027.93869679 0 4443.00285230 0 19589.59996214 0 6047.24985063 0 41170.00392668 0 144
0.01250000 0.01249090 57672.30755963 0 984.29424494 0 15069.21263168 0 2395.98465681 0 38725.34532997 0 169
0.01350000 0.01339930 51203.52323084 0 6376.19754866 0 12202.03411989 0 6634.47059738 0 26453.33411722 0 180
0.01450000 0.01448870 54231.47189899 0 -7054.77604750 0 -3005.43863180 0 11328.20624521 0 13994.42206154 0 267
0.01550000 0.01550050 63340.56280404 0 -9771.89134102 0 -15563.48121159 0 7585.58329931 0 -2465.51885667 0 238
0.01650000 0.01653350 63851.99348742 0 -3511.14492324 0 -4088.33414371 0 -17077.84307703 0 -11543.34151643 0 315
0.01750000 0.01747870 68985.12327334 0 -811.61358876 0 1872.56264565 0 -17905.49935723 0 -4808.75495804 0 297
0.01850000 0.01844180 67598.31458981 0 4706.51311066 0 12190.40817883 0 -13199.42913956 0 5876.58103587 0 388
0.01950000 0.01947590 68582.09064994 0 3995.62556801 0 27894.17574587 0 -10207.14442964 0 23330.49562537 0 399
0.02050000 0.02045430 70817.59303083 0 1732.38701345 0 38843.04414279 0 7628.00137569 0 28644.65792208 0 462
0.02150000 0.02154770 72045.73529971 0 -496.94143912 0 46967.69464822 0 13265.53091872 0 28445.13462885 0 571
0.02250000 0.02255340 75163.70196864 0 53.83796147 0 50089.86880058 0 18884.07142470 0 33721.54029792 0 510
0.02350000 0.02348930 77120.62465709 0 -315.28777091 0 48227.39304283 0 13427.07613783 0 22889.70637434 0 555
0.02450000 0.02439640 75835.12774565 0 4015.32323386 0 50334.23500933 0 3619.25510277 0 25041.39125635 0 592
0.02550000 0.02547300 74849.35866704 0 1882.68275054 0 35854.62367424 0 5897.48558513 0 15156.68399775 0 837
0.02650000 0.02652900 71392.02524242 0 -3314.94332745 0 23227.41228131 0 6634.68097156 0 17815.59207970 0 723
0.02750000 0.02749970 76372.57839234 0 -4172.22914886 0 21091.22865405 0 6844.71190104 0 -15522.51360976 0 826
0.02850000 0.02848090 73613.46577078 0 5698.22802769 0 14012.58067424 0 -2451.98847574 0 -19349.88412982 0 831
0.02950000 0.02946900 66235.31140463 0 12328.03717633 0 18651.77405000 0 -5414.24504075 0 -19611.96605828 0 996
0.03050000 0.03053250 57024.46583450 0 4847.72954140 0 15878.82102242 0 -6018.68325259 0 -9557.03287792 0 1041
0.03150000 0.03150510 56603.38532164 0 -1682.70549199 0 20848.85546377 0 6182.06647762 0 -13083.39117546 0 1036
0.03250000 0.03246190 57039.63491950 0 -1426.48082336 0 21688.58057801 0 6726.33767640 0 -13699.89822136 0 1059
0.03350000 0.03345080 57643.63023835 0 3123.91250736 0 16668.27778199 0 1953.83350982 0 -9759.22460143 0 1302
0.03450000 0.03451200 54027.18750609 0 3067.07826406 0 14636.50617777 0 1345.57534591 0 -10595.16298059 0 1339
0.03550000 0.03553350 49882.15198698 0 1743.23789177 0 12942.88337351 0 -1769.88897761 0 -6234.36106774 0 1365
0.03650000 0.03647120 49737.54742485 0 -217.11943183 0 12380.40927272 0 4199.84352696 0 -14336.11400544 0 1308
0.03750000 0.03744890 48293.16265226 0 -106.81970007 0 13829.99803798 0 2641.94528033 0 -13208.95133890 0 1579
0.03850000 0.03847530 48712.02870015 0 1074.76842550 0 9690.08900526 0 -63.49945067 0 -17043.18670035 0 1662
0.03950000 0.03950240 49516.54382147 0 -1182.21426554 0 9017.12417511 0 812.51819770 0 -11475.46816529 0 1683
0.04050000 0.04050350 49322.55669065 0 -320.82725502 0 12829.83493711 0 2633.23136070 0 -5831.71597571 0 1822
0.04150000 0.04152450 49651.73690750 0 952.13910643 0 11361.09104992 0 2293.70959246 0 -3291.63608371 0 1887
0.04250000 0.04250150 48307.00305828 0 2142.45056311 0 15748.16758956 0 -37.28937552 0 1763.20129342 0 1920
0.04350000 0.04349210 46828.84769499 0 3850.32344941 0 13059.36423060 0 -13.21924860 0 -571.57887349 0 2005
0.04450000 0.04448520 43159.36852684 0 2125.03379617 0 16529.09865902 0 -278.94950809 0 5375.27045738 0 2151
0.04550000 0.04548030 42299.15961168 0 2051.13710033 0 15587.17598670 0 -2428.94696779 0 1382.39082593 0 2274
0.04650000 0.04648670 41603.48544333 0 392.40651327 0 17939.93428741 0 -175.68014897 0 -880.61742427 0 2311
0.04750000 0.04749250 41322.69128593 0 -609.73853374 0 17764.88083203 0 -715.60435303 0 -2500.93922376 0 2568
0.04850000 0.04851840 41560.30337653 0 1167.56557980 0 18485.24628473 0 -1319.01283867 0 -5425.53881206 0 2493
0.04950000 0.04949480 40655.69443885 0 1577.85057596 0 18576.37151799 0 799.63001161 0 -2125.19988104 0 2644
0.05050000 0.05050630 39888.16088242 0 1518.43648098 0 17032.66799177 0 696.95412910 0 -4917.86164680 0 2829
0.05150000 0.05149060 40275.47080458 0 1420.65678051 0 21375.23378564 0 2066.42798090 0 -2021.16431705 0 2784
0.05250000 0.05249300 36674.64005031 0 1482.03067698 0 17759.01249988 0 3853.50120663 0 -3798.26137811 0 3055
0.05350000 0.05348950 36783.25955678 0 1263.64014225 0 16865.91878000 0 3649.21681373 0 1823.32401719 0 3009
0.05450000 0.05448610 35851.74486978 0 -1062.99079359 0 14913.42502148 0 2489.25792108 0 -1253.08821670 0 3336
0.05550000 0.05550870 36012.73647265 0 -386.73305403 0 14696.73962478 0 3271.08584885 0 -306.56277895 0 3349
0.05650000 0.05647670 35608.81806326 0 1784.30514452 0 14077.46449768 0 870.50064108 0 751.82524921 0 3324
0.05750000 0.05747970 34543.54969246 0 1884.01142952 0 15490.84676078 0 -627.99569013 0 1569.03700540 0 3639
0.05850000 0.05849280 33282.19044912 0 816.30050386 0 15006.65399646 0 39.70413884 0 4289.46292404 0 3846
0.05950000 0.05951020 33133.26768031 0 -223.41515573 0 16011.57819700 0 2045.78916744 0 4148.96619442 0 3787
0.06050000 0.06049470 33196.93354802 0 -51.07076606 0 16241.88255322 0 3250.46918004 0 6212.08355020 0 3930
0.06150000 0.06148310 32429.39999159 0 1640.22098166 0 14596.53508517 0 3700.00556767 0 5854.09314417 0 4083
0.06250000 0.06249100 32168.42529561 0 392.16735105 0 12372.43719885 0 2356.93256717 0 7360.93690106 0 4303
0.06350000 0.06350600 30931.64661337 0 -84.11036187 0 11592.61336187 0 1024.08818034 0 5156.00520900 0 4470
0.06450000 0.06451750 30853.69744665 0 -13.73466532 0 10252.83991417 0 77.59850620 0 4450.17771879 0 4479
0.06550000 0.06550280 31088.87362580 0 709.50239482 0 9806.68058560 0 -1013.25169604 0 3813.28652289 0 4636
0.06650000 0.06648880 29990.72045028 0 919.90424719 0 10296.25449978 0 -350.02719003 0 3661.08634594 0 4653
0.06750000 0.06749660 29761.96621953 0 408.90095555 0 10022.73485979 0 255.77845394 0 1461.43615281 0 5220
0.06850000 0.06852730 28809.96773162 0 647.86165532 0 9404.44516959 0 1364.85226342 0 -137.75743646 0 5029
0.06950000 0.06949320 28453.32814921 0 407.06405687 0 8070.90544076 0 164.69197382 0 -1169.71361082 0 5040
0.07050000 0.07048030 28066.35039680 0 452.12620441 0 7919.15922912 0 -374.19475341 0 -465.00885434 0 5475
0.07150000 0.07148790 28261.99837635 0 305.42011503 0 8071.33726142 0 90.03460926 0 2423.05649099 0 5509
0.07250000 0.07249820 27559.12719686 0 734.21139489 0 8473.63911139 0 215.03340584 0 936.49723316 0 5916
0.07350000 0.07351270 26667.02998622 0 442.42906234 0 7687.27153044 0 1045.65042569 0 1712.73363690 0 5721
0.07450000 0.07449140 26498.84137223 0 927.10679448 0 8254.90533459 0 908.00371247 0 547.66043741 0 6028
0.07550000 0.07549160 26004.24062258 0 237.33638972 0 7333.65469271 0 1322.61134424 0 1509.75577832 0 6183
0.07650000 0.07648840 26042.10797346 0 -854.30182987 0 6304.33816059 0 1340.47100417 0 2498.74690345 0 6330
0.07750000 0.07749960 26771.66345576 0 -510.28137606 0 7215.73443339 0 169.88489416 0 887.67049518 0 6583
0.07850000 0.07848650 26950.70294807 0 -98.18450467 0 7247.14661890 0 -164.59564459 0 191.26444615 0 6549
0.07950000 0.07947320 26638.90628118 0 1085.72670537 0 7383.69052856 0 -1243.46636643 0 -367.48603180 0 6828
0.08050000 0.08048110 25571.31272217 0 1445.39235415 0 7656.36867187 0 -447.85228703 0 859.42499456 0 7147
0.08150000 0.08149960 25076.15835628 0 316.29867416 0 8116.61199761 0 -558.49913618 0 -520.25754072 0 7386
0.08250000 0.08250610 24726.71578500 0 58.50350698 0 8160.70199504 0 959.26414745 0 -60.53760378 0 7227
0.08350000 0.08350160 24672.23994689 0 674.43855659 0 8489.51682518 0 -65.97765841 0 -1401.04769325 0 7798
0.08450000 0.08449610 23655.80052854 0 947.89397710 0 6949.58896172 0 315.48817999 0 -1628.44002805 0 7371
0.08550000 0.08548940 23295.72852544 0 728.41614008 0 8815.97325013 0 -922.68450795 0 -458.57804808 0 8256
0.08650000 0.08650700 22574.47728675 0 998.03832174 0 8521.19474648 0 238.90090922 0 -206.35048872 0 8037
0.08750000 0.08749060 22132.80224974 0 212.38379851 0 8500.61129464 0 142.18304469 0 -484.64008624 0 8155
0.08850000 0.08849210 22072.79024922 0 -59.21490385 0 8325.02636767 0 335.63316776 0 -758.31141709 0 8718
0.08950000 0.08949900 22146.53193251 0 267.36010570 0 9062.15532015 0 16.48082332 0 199.65394666 0 8571
0.09050000 0.09049190 21839.38564204 0 668.01992989 0 9451.24788660 0 282.34317564 0 -222.53379867 0 8932
0.09150000 0.09150830 20994.56725838 0 558.96638828 0 8638.68318513 0 455.59627101 0 312.42446771 0 9285
0.09250000 0.09250820 20708.23693857 0 650.06615520 0 9197.03838109 0 841.24312998 0 -234.33800416 0 9204
0.09350000 0.09350330 20088.62964172 0 569.64343111 0 8836.04737502 0 244.33299177 0 536.82948927 0 9349
0.09450000 0.09448040 19589.04634590 0 476.48974794 0 7755.97530594 0 1303.87697064 0 725.57719599 0 9564
0.09550000 0.09549270 19452.63530414 0 -27.69122003 0 7621.64586124 0 286.00257900 0 384.49090826 0 10155
0.09650000 0.09649430 19601.00445671 0 21.08137428 0 8093.08330737 0 659.95595572 0 385.51177661 0 9913
0.09750000 0.09749140 18822.73074520 0 1012.70804489 0 7621.25832987 0 36.41654416 0 139.81467441 0 10476
0.09850000 0.09850240 18229.80775116 0 978.00627167 0 8027.65694001 0 -274.36999454 0 896.25265414 0 10575
0.09950000 0.09950330 17351.10805356 0 589.50053844 0 8221.47798597 0 792.40199797 0 1237.32122616 0 10882
0.10050000 0.10051200 17305.37935206 0 302.34865213 0 8503.05827843 0 1104.51976228 0 1634.90626575 0 10875
0.10150000 0.10150300 16853.29632971 0 172.23776318 0 8243.61156328 0 838.36764722 0 1613.78026999 0 11118
0.10250000 0.10250800 16827.94070588 0 306.76318803 0 7903.84620389 0 1027.04559830 0 1688.88384924 0 11575
0.10350000 0.10349800 16752.09528087 0 -59.77549566 0 7578.93990441 0 -568.77978977 0 1412.56291106 0 11364
0.10450000 0.10450100 16671.82092593 0 -63.20791635 0 7493.33976124 0 80.21356787 0 1413.99124097 0 12093
0.10550000 0.10551000 16708.02742809 0 -208.18295847 0 7251.19908978 0 2.11097194 0 907.11460479 0 12067
0.10650000 0.10649700 16843.77413037 0 41.14077299 0 6910.53687209 0 504.14841534 0 144.67653224 0 12054
0.10750000 0.10749900 16834.14120777 0 263.75717120 0 6658.45325294 0 646.03582896 0 326.91149750 0 12807
0.10850000 0.10850100 16308.09505564 0 462.02597003 0 5891.05256441 0 481.46897241 0 540.23755085 0 12736
0.10950000 0.10950300 15999.39863970 0 303.07499663 0 5722.80858879 0 1246.86557015 0 287.53277429 0 12933
0.11050000 0.11050200 15580.08969881 0 326.31802089 0 5616.55855983 0 375.05064412 0 155.89501175 0 13428
0.11150000 0.11150900 15298.85264842 0 261.10313494 0 5406.82658312 0 430.55842290 0 -448.17781338 0 13453
0.11250000 0.11250000 15055.48294891 0 421.88547087 0 5492.96927021 0 -175.08999405 0 728.06071845 0 13668
0.11350000 0.11349100 14885.19059320 0 26.65285741 0 5017.08074950 0 -326.48632023 0 327.46400651 0 13791
0.11450000 0.11448600 14870.46440119 0 -28.18382776 0 5551.94047219 0 251.33845169 0 -1.55495301 0 14205
0.11550000 0.11549300 15072.09143613 0 121.28846053 0 5136.65078522 0 173.54208305 0 -735.72498169 0 14776
0.11650000 0.11649800 14671.16255445 0 382.32848322 0 4902.16109021 0 160.59521363 0 -325.32483336 0 14553
0.11750000 0.11747300 14576.49417725 0 207.20305773 0 4807.97989530 0 481.32613942 0 -78.49027124 0 14568
0.11850000 0.11849100 14330.24567328 0 -67.88530925 0 4586.28980778 0 714.27235235 0 241.29474584 0 16015
0.11950000 0.11950300 14190.95582707 0 176.20054823 0 4633.51327313 0 608.13858280 0 316.78696369 0 15270
0.12050000 0.12050700 14108.35628392 0 459.44611835 0 4080.90461376 0 536.72208772 0 520.15788980 0 15999
0.12150000 0.12150000 13684.83985961 0 197.69635964 0 4493.43729185 0 289.12165290 0 1081.39410467 0 15670
0.12250000 0.12250700 13702.00196307 0 68.69071016 0 4082.43259458 0 361.34974939 0 1152.65115827 0 16887
0.12350000 0.12352200 13450.21729670 0 33.84931493 0 4409.67515460 0 111.83380237 0 1054.07203595 0 16407
0.12450000 0.12449800 13622.72411737 0 282.27784893 0 3981.54157084 0 -190.05866998 0 691.22420101 0 16306
0.12550000 0.12549900 13516.09762937 0 7.23734761 0 4251.44056062 0 46.29051126 0 1371.08598229 0 17523
0.12650000 0.12650100 13291.88305179 0 -53.15679205 0 3906.58193181 0 480.68173012 0 1520.89453709 0 17154
0.12750000 0.12750600 13543.00337868 0 25.43656253 0 3988.09638713 0 518.88457244 0 534.89736859 0 18007
0.12850000 0.12850300 13531.59888412 0 111.87809167 0 3483.69663002 0 425.35221577 0 697.01281243 0 17496
0.12950000 0.12949900 13348.90552461 0 234.50630350 0 3796.93269914 0 -158.61326749 0 1042.27558108 0 18405
0.13050000 0.13049000 12963.47789767 0 196.32449859 0 3085.14829817 0 -104.23198704 0 1104.96044081 0 18100
0.13150000 0.13148800 13017.62156603 0 213.82098627 0 3663.27866625 0 -213.51206841 0 230.48815682 0 19059
0.13250000 0.13249300 12732.61992520 0 206.24862333 0 3072.99088552 0 -182.02016216 0 596.98764448 0 18957
0.13350000 0.13349100 12675.70817563 0 149.28926276 0 3175.98565098 0 338.62048100 0 53.20628534 0 19468
0.13450000 0.13450700 12364.35440173 0 63.30479919 0 2930.52328208 0 412.52271300 0 4.25213812 0 19953
0.13550000 0.13551000 12464.11604835 0 191.70623191 0 2743.64458379 0 83.37283431 0 -630.72058927 0 19956
0.13650000 0.13649900 12124.30639967 0 485.10180219 0 2868.52933542 0 -197.57567130 0 -418.20613733 0 19723
0.13750000 0.13749600 11809.07731208 0 461.46128147 0 3001.99513878 0 -182.79190320 0 223.62442266 0 20946
0.13850000 0.13851100 11486.09759712 0 124.06097066 0 2918.95270264 0 92.58788737 0 498.33765928 0 20955
0.13950000 0.13949800 11484.87964139 0 25.40810665 0 2726.94751796 0 671.08364217 0 71.04989041 0 20506
0.14050000 0.14048300 11443.80131631 0 -128.33599528 0 2591.67692565 0 325.79762163 0 -257.81354724 0 21447
0.14150000 0.14148400 11530.82978939 0 -178.77707822 0 2456.35097172 0 232.35384355 0 -441.89759074 0 21771
0.14250000 0.14249400 11433.28260773 0 292.18425794 0 2225.62586715 0 104.69791047 0 -188.21623513 0 22470
0.14350000 0.14350900 11352.56535981 0 272.40908582 0 2230.82985981 0 -72.41909409 0 72.13010641 0 22519
0.14450000 0.14449900 11176.18322545 0 112.87681536 0 2238.39225766 0 -192.13694535 0 144.63113571 0 22218
0.14550000 0.14550500 11100.33780044 0 167.81547665 0 2530.46911405 0 -100.05428816 0 -2.57587672 0 23559
0.14650000 0.14650700 10893.16353076 0 178.86233512 0 2980.79163675 0 -1.11327797 0 367.15829099 0 23044
0.14750000 0.14750500 11045.68480513 0 55.12545140 0 3074.66280657 0 -167.44233930 0 -77.73713170 0 23649
0.14850000 0.14849900 10772.47519023 0 157.85259878 0 3093.96186872 0 3.16927582 0 236.96878854 0 23640
0.14950000 0.14949500 10888.01489972 0 92.65254974 0 3156.21047885 0 -58.68531456 0 -127.50335645 0 24457
0.15050000 0.15050000 10601.19739761 0 47.49473731 0 3040.15037011 0 13.76157107 0 -7.44169844 0 24591
0.15150000 0.15149900 10622.48947824 0 380.34321538 0 2836.03206207 0 260.22399235 0 -676.69288192 0 25020
0.15250000 0.15250500 10274.24271804 0 283.52791440 0 2885.85752376 0 25.88831338 0 -349.95632715 0 25297
0.15350000 0.15350100 10026.47730558 0 404.76765670 0 2843.74947247 0 -138.30108761 0 -350.99823291 0 25452
0.15450000 0.15450400 9571.58191273 0 383.15337142 0 2927.67769460 0 -72.57244579 0 246.21196529 0 26061
0.15550000 0.15549900 9575.30221387 0 163.20606783 0 3390.65588456 0 -6.62722930 0 246.35147659 0 26128
0.15650000 0.15649500 9290.85418928 0 139.26216541 0 3300.26142474 0 256.74063896 0 614.81519467 0 26331
0.15750000 0.15749700 9254.80269967 0 119.96863941 0 3449.46100168 0 360.05650185 0 849.50751322 0 27345
0.15850000 0.15849900 9219.79200859 0 49.95390065 0 3266.26938755 0 429.11569897 0 999.80325031 0 26980
0.15950000 0.15949700 9215.50701888 0 -20.80102302 0 3302.61982993 0 372.05890195 0 1026.76436125 0 27777
0.16050000 0.16050000 9227.31011714 0 76.10872489 0 2950.63062395 0 322.78927097 0 1208.43353071 0 28224
0.16150000 0.16150500 9272.69557657 0 30.50536211 0 2685.88026521 0 240.18419166 0 1165.80508016 0 28075
0.16250000 0.16249700 9142.47396438 0 -73.07512934 0 2564.50544055 0 413.06525692 0 1298.87227983 0 28590
0.16350000 0.16349900 9111.83684161 0 -3.96749079 0 2344.78622684 0 293.48968504 0 754.89006872 0 29163
0.16450000 0.16449100 9147.77760797 0 25.54628927 0 2199.47303592 0 64.37073191 0 735.75266250 0 28996
0.16550000 0.16550500 9018.78502383 0 132.81585790 0 2311.63568634 0 -233.87075205 0 555.79084553 0 30777
0.16650000 0.16650700 8969.18100864 0 252.14230247 0 2353.92089482 0 -311.63279649 0 433.97091341 0 29211
0.16750000 0.16749900 8769.70200471 0 274.32791971 0 2567.38424500 0 -453.43495321 0 438.06213743 0 30922
0.16850000 0.16850800 8597.78201725 0 271.51665644 0 2621.73828753 0 -57.27016072 0 421.39164518 0 30867
0.16950000 0.16949900 8411.14691011 0 167.04262838 0 2756.31132338 0 -160.44352278 0 254.10210396 0 30852
0.17050000 0.17049200 8348.24503281 0 149.41880896 0 2739.75819778 0 144.22588862 0 278.71588203 0 31257
0.17150000 0.17149500 8228.28746573 0 35.84045110 0 2655.68603543 0 250.94095522 0 347.71861030 0 32608
0.17250000 0.17250900 8171.09890804 0 17.90738165 0 2721.20098138 0 126.49909659 0 155.40561499 0 32361
0.17350000 0.17350400 8170.15776043 0 -41.09150114 0 2452.66388755 0 417.41889504 0 146.53668281 0 32508
0.17450000 0.17449800 8202.11248986 0 8.32896812 0 2264.77760771 0 399.62566905 0 342.75488709 0 32791
0.17550000 0.17549800 8132.32362653 0 60.27961861 0 1997.03772127 0 233.54190400 0 353.81281788 0 33633
0.17650000 0.17650100 8092.31931696 0 38.01416991 0 1855.74378425 0 353.60797987 0 415.98945790 0 33984
0.17750000 0.17750300 8074.18284890 0 47.12547528 0 1592.72070819 0 333.49953077 0 335.03083329 0 34069
0.17850000 0.17849800 7918.47274498 0 121.95169279 0 1363.72288629 0 60.43883864 0 282.17709077 0 34536
