### header ###
fiducial parameters:
Omega_m = 0.31
Omega_nu = 0
Omega_de = 0.69
Omega_k = 0
H_0 = 100
w_de = -1
zeff = 0
beta = 0
fgrowth = 0
b_1 = 2
gamma = 0.55
Lx = 3500 Ly = 3500 Lz = 3500
nx = 700 ny = 700 nz = 700
xoffset = -685.467585 yoffset = -31.7331281 zoffset = 572.489161
bins = 400 dk = 0.001
kx_ny = 0.628318531 ky_ny = 0.628318531 kz_ny = 0.628318531
############################
A(data) = 7.98293101 (not used)
A(ran) = 7.9798735 (used)
Ngal = 474555
weighted Ngal = 0
Nran = 23820508
weighted Nran = 0
SN(data) = 3489.46363
SN(ran) = 69.5075922
SN(data+ran) = 3558.97122
############################
13 columns: k_central k_mean P_0(k) sigma^{lin}_{P_0(k)} P^img_1(k) sigma^{lin}_{P_1(k)} P_2(k) sigma^{lin}_{P_2(k)} P^img_3(k) sigma^{lin}_{P_3(k)} P_4(k) sigma^{lin}_{P_4(k)} N_modes
### header ###
0.00050000 0 0 0 0 0 0 0 0 0 0 0 0
0.00150000 0.00179520 9502.84492025 0 -14471.52853797 0 -3261.97332552 0 -8911.95923398 0 29964.92193345 0 3
0.00250000 0.00253879 16992.14328294 0 -12566.53505292 0 6112.08938477 0 -25466.78997588 0 6311.12549571 0 6
0.00350000 0.00331552 25493.80644844 0 -5322.46654032 0 14879.21153779 0 -30260.99589910 0 -20673.91273163 0 7
0.00450000 0.00420575 38539.77316601 0 -8279.36410012 0 23956.85704036 0 -8440.33355833 0 38369.48081030 0 24
0.00550000 0.00557378 58932.33812400 0 -17254.55738114 0 35208.44279782 0 4656.13403274 0 14164.27152425 0 45
0.00650000 0.00659388 90127.06317506 0 -11263.43314502 0 57041.73866121 0 9778.14720454 0 13865.09730765 0 40
0.00750000 0.00754703 81150.61872133 0 13023.04700520 0 42018.47617753 0 23008.29097315 0 14783.10375837 0 57
0.00850000 0.00846663 81294.11605098 0 11296.65011947 0 37362.45286804 0 17548.85977482 0 -2608.97189702 0 75
0.00950000 0.00948925 74044.62209922 0 -2306.68635714 0 11579.43729534 0 31288.61836552 0 -3882.44426371 0 112
0.01050000 0.01054430 76177.59475229 0 -11740.42889820 0 18231.02570689 0 27437.55307035 0 -26552.54214760 0 105
0.01150000 0.01145670 79203.66112522 0 -4310.81036629 0 13591.27871489 0 3549.95342173 0 -27503.54412627 0 144
0.01250000 0.01249090 81002.36029201 0 6599.02808564 0 7306.63822015 0 -18311.30006183 0 -24969.53186827 0 169
0.01350000 0.01339930 75594.74757383 0 11417.11701350 0 5853.70561280 0 -6691.57057647 0 -11374.82073269 0 180
0.01450000 0.01448870 71936.23000726 0 2944.39690507 0 13093.13482130 0 -14186.85906688 0 -7408.31537896 0 267
0.01550000 0.01550050 78066.86553609 0 5000.76014272 0 23257.63972806 0 -10912.35186967 0 -2302.79997113 0 238
0.01650000 0.01653350 71967.45396324 0 822.26073631 0 26192.91303749 0 9632.93366455 0 -1472.51954996 0 315
0.01750000 0.01747870 69012.91480864 0 -3251.13351952 0 24396.31761241 0 14877.10779608 0 6519.06375580 0 297
0.01850000 0.01844180 74792.22547098 0 404.01473861 0 26276.17692012 0 14734.27480592 0 -12573.51061756 0 388
0.01950000 0.01947590 81221.70304667 0 -6215.79277902 0 27285.30860409 0 10987.06791754 0 6459.09604458 0 399
0.02050000 0.02045430 72826.66636917 0 3022.49001202 0 20827.92876986 0 2773.72809032 0 638.24312675 0 462
0.02150000 0.02154770 73171.68001052 0 3911.22123591 0 19019.04306424 0 8245.80388359 0 7076.15670672 0 571
0.02250000 0.02255340 76868.06492798 0 -6923.23682865 0 16097.83160733 0 5785.69939376 0 -932.31853777 0 510
0.02350000 0.02348930 77642.35260255 0 3189.44959796 0 16646.90819509 0 -66.95999506 0 -12079.90637714 0 555
0.02450000 0.02439640 68584.52656140 0 9725.71974653 0 19736.86188223 0 -9940.19067826 0 -1597.55931413 0 592
0.02550000 0.02547300 67778.90420760 0 3001.70725834 0 15127.12089048 0 -3673.23268626 0 2679.90120981 0 837
0.02650000 0.02652900 67038.71929347 0 -2744.14283840 0 14653.33611149 0 3440.68064810 0 -72.19554385 0 723
0.02750000 0.02749970 68816.71321285 0 -1796.91652249 0 14443.62627943 0 14642.92812616 0 -5040.86410321 0 826
0.02850000 0.02848090 68905.51325790 0 -1939.00766689 0 13076.85850381 0 6477.74183958 0 -1725.36715952 0 831
0.02950000 0.02946900 69034.94873503 0 1563.88837436 0 5539.47303444 0 6669.08268477 0 -9870.15822379 0 996
0.03050000 0.03053250 65557.79584898 0 4637.52145472 0 13280.03566424 0 3030.28492869 0 2688.22759807 0 1041
0.03150000 0.03150510 61300.59767946 0 7669.46723213 0 13104.53931586 0 -5117.42922933 0 12697.40993228 0 1036
0.03250000 0.03246190 58498.19226786 0 3350.52977942 0 19666.55261963 0 -6248.95439185 0 8389.14620069 0 1059
0.03350000 0.03345080 56512.92442787 0 1835.10497079 0 28271.85274544 0 -4498.97345426 0 11677.75953973 0 1302
0.03450000 0.03451200 55927.97350771 0 3455.76115450 0 29550.81698524 0 -4281.07010183 0 7870.68459106 0 1339
0.03550000 0.03553350 55448.65256631 0 1059.45429304 0 31956.39027534 0 409.86535504 0 7745.98806895 0 1365
0.03650000 0.03647120 54174.22797968 0 79.87198665 0 32925.99375970 0 -3964.61198619 0 4124.34134402 0 1308
0.03750000 0.03744890 53494.71940556 0 2531.41026166 0 31515.26885456 0 3987.03344395 0 -3961.29028874 0 1579
0.03850000 0.03847530 50943.87721384 0 2052.96403392 0 31752.32732893 0 883.38439824 0 -858.32883441 0 1662
0.03950000 0.03950240 48472.53431432 0 2680.42160907 0 26426.31764466 0 2914.10302437 0 -4803.71705024 0 1683
0.04050000 0.04050350 47503.59516944 0 1035.23690420 0 27720.78313921 0 5783.41849485 0 1329.56476422 0 1822
0.04150000 0.04152450 47970.73655354 0 -723.12578328 0 23594.79201879 0 8596.73014639 0 -6473.04717385 0 1887
0.04250000 0.04250150 45490.42507091 0 -379.89589346 0 20691.40700485 0 5721.30275262 0 3082.07019187 0 1920
0.04350000 0.04349210 47586.52688233 0 2609.11583724 0 23342.67518267 0 96.11863030 0 -5321.92399641 0 2005
0.04450000 0.04448520 43485.11632301 0 2285.46071047 0 21315.22178513 0 1706.86530474 0 4110.65595055 0 2151
0.04550000 0.04548030 42124.88121904 0 2631.33799315 0 22809.09984966 0 3229.09959314 0 2826.49879040 0 2274
0.04650000 0.04648670 40320.31372009 0 1178.83720647 0 20821.17465172 0 3327.52148845 0 1892.93572332 0 2311
0.04750000 0.04749250 39007.13599660 0 943.55473300 0 18164.59175798 0 5435.76964019 0 3101.45783263 0 2568
0.04850000 0.04851840 38042.51505840 0 487.72483594 0 13909.38660693 0 4788.29330177 0 1060.39101172 0 2493
0.04950000 0.04949480 38179.70116290 0 -906.42147726 0 10767.09404037 0 4135.65725999 0 4987.24083411 0 2644
0.05050000 0.05050630 36753.80717276 0 -1087.92013292 0 9484.54236733 0 3161.56948407 0 141.25296941 0 2829
0.05150000 0.05149060 38702.42561759 0 421.12258769 0 10598.80577545 0 2704.02780559 0 2497.67288794 0 2784
0.05250000 0.05249300 38157.55651327 0 941.87395409 0 9040.37605723 0 -3451.21042900 0 4204.56033733 0 3055
0.05350000 0.05348950 37222.49868233 0 864.45072280 0 11069.33529095 0 -1403.80470213 0 5586.37540238 0 3009
0.05450000 0.05448610 37293.02939143 0 1327.79319225 0 14547.70613272 0 -1889.21542218 0 6659.60477472 0 3336
0.05550000 0.05550870 36980.12549205 0 106.24482497 0 15383.88810303 0 104.07210267 0 7358.85530399 0 3349
0.05650000 0.05647670 37329.78950983 0 -213.06585372 0 15727.13017241 0 2456.33989939 0 4188.61618959 0 3324
0.05750000 0.05747970 36578.75371738 0 1054.87588673 0 17019.15975549 0 -1089.72381463 0 5073.93713744 0 3639
0.05850000 0.05849280 36222.11413497 0 2532.62821739 0 17074.63210283 0 -777.24398529 0 3284.12904748 0 3846
0.05950000 0.05951020 34098.22078826 0 718.36800530 0 16390.80532203 0 -2002.26385858 0 4493.82482322 0 3787
0.06050000 0.06049470 34434.70873949 0 318.63161300 0 16210.10498099 0 -944.77601043 0 346.16959206 0 3930
0.06150000 0.06148310 33319.06129077 0 1202.69806645 0 17394.84373659 0 717.95279312 0 -557.60006340 0 4083
0.06250000 0.06249100 33705.15325719 0 67.63972508 0 15581.75054754 0 492.09951147 0 -1736.22911016 0 4303
0.06350000 0.06350600 32806.85554466 0 -58.94086381 0 15347.34943113 0 1709.92126639 0 -1552.66103699 0 4470
0.06450000 0.06451750 32787.14680648 0 455.12126828 0 15650.84185440 0 1098.60492637 0 -3540.66374121 0 4479
0.06550000 0.06550280 32370.60594680 0 767.24567598 0 15091.91089756 0 1267.36044339 0 -3215.89030963 0 4636
0.06650000 0.06648880 30519.64540687 0 1180.57556146 0 14229.48751744 0 3773.92440816 0 2387.01607370 0 4653
0.06750000 0.06749660 30627.82202035 0 671.64168734 0 12559.89165803 0 2828.00462658 0 39.74842814 0 5220
0.06850000 0.06852730 29589.90229185 0 278.95725871 0 11671.89120758 0 2650.91386343 0 1503.41133620 0 5029
0.06950000 0.06949320 29952.29948316 0 1081.21916194 0 12139.14331492 0 310.74701050 0 3068.15227957 0 5040
0.07050000 0.07048030 28551.53967035 0 842.68363944 0 12070.93779404 0 -966.99595187 0 4133.76389244 0 5475
0.07150000 0.07148790 28689.27939110 0 -25.52370173 0 12788.75661203 0 654.62241686 0 4595.42447576 0 5509
0.07250000 0.07249820 28784.16921479 0 -7.32973509 0 12158.40916011 0 1731.75589094 0 5072.63060312 0 5916
0.07350000 0.07351270 29119.88210330 0 -258.38155750 0 11546.99538362 0 1751.57535236 0 3046.81590965 0 5721
0.07450000 0.07449140 28954.90446350 0 -567.41125042 0 10781.06731429 0 1818.79543633 0 3160.31831136 0 6028
0.07550000 0.07549160 29100.83770461 0 432.53926181 0 10083.52192304 0 710.03497365 0 300.59258141 0 6183
0.07650000 0.07648840 28716.29586366 0 508.18538497 0 9882.12740692 0 324.83100767 0 528.63375444 0 6330
0.07750000 0.07749960 27470.77004481 0 493.54998602 0 8994.56984945 0 283.46590938 0 1380.27601189 0 6583
0.07850000 0.07848650 27845.78968641 0 1008.67882589 0 8154.11396177 0 1426.58047428 0 1719.41024876 0 6549
0.07950000 0.07947320 26827.13580310 0 317.52659499 0 7204.97213366 0 546.72593320 0 1052.18531180 0 6828
0.08050000 0.08048110 26063.36683711 0 982.43963053 0 7285.67830927 0 937.36862512 0 1203.20739339 0 7147
0.08150000 0.08149960 24835.22456822 0 1122.57872406 0 7539.65529596 0 -92.33410968 0 645.86310069 0 7386
0.08250000 0.08250610 24461.97649859 0 994.69669411 0 8022.95120197 0 -142.94039171 0 1407.65787117 0 7227
0.08350000 0.08350160 23186.66612598 0 1087.47834716 0 8588.39268581 0 -981.63356528 0 1350.12607141 0 7798
0.08450000 0.08449610 22545.02490273 0 779.28240029 0 9165.57083395 0 -198.11932245 0 1706.49991802 0 7371
0.08550000 0.08548940 22385.47270210 0 18.12240620 0 9142.06428836 0 889.20733386 0 1008.28797282 0 8256
0.08650000 0.08650700 21864.29837288 0 148.21303279 0 8461.52598803 0 897.18494389 0 225.21551574 0 8037
0.08750000 0.08749060 22325.01780859 0 382.79019917 0 9337.60154466 0 -151.35868027 0 21.50710517 0 8155
0.08850000 0.08849210 21839.16419555 0 327.84046556 0 9150.52354452 0 160.46677467 0 -111.43519867 0 8718
0.08950000 0.08949900 21187.33643347 0 625.21321491 0 8767.14429768 0 382.44695710 0 1157.97694651 0 8571
0.09050000 0.09049190 21020.03360546 0 516.15081544 0 8805.03379321 0 947.27281967 0 571.36628485 0 8932
0.09150000 0.09150830 20468.41038300 0 361.64427323 0 7705.37478152 0 1154.36736862 0 537.20151939 0 9285
0.09250000 0.09250820 20038.25056379 0 354.14388039 0 7259.43689945 0 1924.71329555 0 538.83911623 0 9204
0.09350000 0.09350330 19804.29234038 0 124.36988853 0 5702.93376574 0 136.63248826 0 214.63590938 0 9349
0.09450000 0.09448040 19202.95437947 0 296.41942218 0 6401.34279833 0 686.11764480 0 1080.71647839 0 9564
0.09550000 0.09549270 19233.29254948 0 442.32276802 0 6056.92706252 0 -573.31501402 0 -100.10411362 0 10155
0.09650000 0.09649430 18570.50318583 0 657.70163039 0 6244.79119772 0 -406.88689967 0 421.50236843 0 9913
0.09750000 0.09749140 18292.69855613 0 546.84994324 0 6427.46241257 0 -588.55939083 0 272.00826766 0 10476
0.09850000 0.09850240 17717.71272830 0 557.77389890 0 7080.81815547 0 337.71255036 0 1142.07708807 0 10575
0.09950000 0.09950330 17707.96908246 0 231.23775321 0 6898.84449708 0 504.32225084 0 118.13174072 0 10882
0.10050000 0.10051200 17203.73541022 0 322.07067709 0 7256.45844407 0 897.47614604 0 127.47235394 0 10875
0.10150000 0.10150300 16860.38261759 0 552.01407553 0 6403.22509355 0 179.45913343 0 -136.62030870 0 11118
0.10250000 0.10250800 16519.35501318 0 313.73210927 0 6261.49933587 0 -10.31649471 0 -180.20651535 0 11575
0.10350000 0.10349800 16212.65161570 0 20.32502378 0 5749.82506135 0 275.36318208 0 584.12271027 0 11364
0.10450000 0.10450100 16069.26500930 0 117.75528168 0 5950.96491400 0 161.01374751 0 -756.02055308 0 12093
0.10550000 0.10551000 15857.78360527 0 136.51844332 0 5424.23227773 0 822.81988871 0 244.35402919 0 12067
0.10650000 0.10649700 15952.89487546 0 131.84038608 0 4795.11385386 0 494.00948750 0 -727.15057335 0 12054
0.10750000 0.10749900 15516.09166136 0 70.67852463 0 5044.88335712 0 355.64528764 0 -320.70767391 0 12807
0.10850000 0.10850100 16161.05458205 0 -80.13473292 0 4890.41335357 0 904.30555598 0 -214.67466251 0 12736
0.10950000 0.10950300 15639.10519010 0 210.66648093 0 4794.71525017 0 -372.72877760 0 -6.26929425 0 12933
0.11050000 0.11050200 15891.77564246 0 121.76789219 0 4435.78369652 0 -84.54096458 0 731.73894475 0 13428
0.11150000 0.11150900 15682.50870339 0 -5.80163247 0 5134.27023538 0 -11.75061544 0 337.49553280 0 13453
0.11250000 0.11250000 15987.44052889 0 -107.75265416 0 4789.15694311 0 41.71985558 0 864.16837852 0 13668
0.11350000 0.11349100 15824.89880055 0 206.61401005 0 4708.19610403 0 47.06922787 0 -327.65666496 0 13791
0.11450000 0.11448600 15690.25933076 0 514.74241573 0 5243.64265994 0 79.68586087 0 263.52575961 0 14205
0.11550000 0.11549300 15143.84010096 0 400.88902131 0 4476.60735813 0 284.54103212 0 -265.68043402 0 14776
0.11650000 0.11649800 14871.35018717 0 204.88672737 0 4502.37265798 0 -31.95893691 0 313.20174491 0 14553
0.11750000 0.11747300 14628.64482715 0 174.95823339 0 4531.84718665 0 115.20532527 0 -972.02943074 0 14568
0.11850000 0.11849100 14706.70471712 0 139.30977640 0 4769.59214515 0 -45.37361204 0 -788.71491381 0 16015
0.11950000 0.11950300 14125.62911064 0 350.96833764 0 4408.92223651 0 -73.45668165 0 -542.56716800 0 15270
0.12050000 0.12050700 14343.20029332 0 291.22539461 0 4400.82836707 0 -219.84543820 0 -237.06511776 0 15999
0.12150000 0.12150000 13813.94316699 0 136.94251336 0 4692.26302862 0 163.50391336 0 34.80474583 0 15670
0.12250000 0.12250700 13942.71430463 0 226.66931199 0 4551.99881782 0 515.67027655 0 -580.46219969 0 16887
0.12350000 0.12352200 13570.90563722 0 159.39497362 0 4332.31282109 0 475.66485974 0 -126.80026382 0 16407
0.12450000 0.12449800 13501.37143736 0 -63.12553826 0 4107.27889148 0 575.00465078 0 -389.49117015 0 16306
0.12550000 0.12549900 13433.05519323 0 40.87658732 0 3717.44447926 0 548.23841277 0 -296.86452964 0 17523
0.12650000 0.12650100 13394.41277961 0 229.72748810 0 3753.86135559 0 199.95400667 0 -852.02757435 0 17154
0.12750000 0.12750600 13159.12587722 0 212.71375379 0 3364.55841497 0 -87.85181115 0 -235.41312690 0 18007
0.12850000 0.12850300 13083.39117546 0 146.16686716 0 3506.62741471 0 81.81971931 0 146.46471270 0 17496
0.12950000 0.12949900 13027.80810487 0 -9.52184503 0 3623.85011757 0 233.43671692 0 224.92320637 0 18405
0.13050000 0.13049000 13024.92930041 0 136.18405911 0 3486.96296584 0 282.96433307 0 -2.90093803 0 18100
0.13150000 0.13148800 13035.55873224 0 206.38813462 0 3669.21343235 0 -216.38644393 0 124.99879658 0 19059
0.13250000 0.13249300 12674.26877341 0 431.18622372 0 3947.49417202 0 -163.12081093 0 622.65329341 0 18957
0.13350000 0.13349100 12567.42083891 0 224.45706149 0 3848.58509441 0 -162.50408243 0 884.58685271 0 19468
0.13450000 0.13450700 12359.70402531 0 147.94508253 0 4075.96635689 0 73.26269452 0 689.03077346 0 19953
0.13550000 0.13551000 12280.75834935 0 132.04633132 0 4126.64438758 0 334.52150635 0 455.37925344 0 19956
0.13650000 0.13649900 12134.93583149 0 198.33634001 0 3941.83621404 0 111.43962760 0 144.10187858 0 19723
0.13750000 0.13749600 11883.26188836 0 281.00453157 0 3836.52733269 0 142.04353340 0 610.71068386 0 20946
0.13850000 0.13851100 11530.16544990 0 184.35863716 0 3551.47033023 0 407.69628661 0 96.05418937 0 20955
0.13950000 0.13949800 11431.62175901 0 -10.31966139 0 3301.23578933 0 138.67533219 0 170.03547777 0 20506
0.14050000 0.14048300 11492.18737577 0 76.87016867 0 3305.62042996 0 287.71325318 0 -49.59128201 0 21447
0.14150000 0.14148400 11431.06814277 0 156.22828873 0 3110.20496923 0 42.84325365 0 -362.73711169 0 21771
0.14250000 0.14249400 11302.07555863 0 242.89691124 0 3208.58257525 0 -216.27682792 0 -690.23101347 0 22470
0.14350000 0.14350900 11078.30387405 0 193.68707082 0 3284.08475818 0 -592.50335293 0 -575.96462135 0 22519
0.14450000 0.14449900 11014.15082405 0 183.44517036 0 3710.84537367 0 -361.07737020 0 -595.55599288 0 22218
0.14550000 0.14550500 10844.64460340 0 149.40330771 0 3699.68447025 0 -101.11623483 0 -615.31123482 0 23559
0.14650000 0.14650700 10846.82585139 0 134.51878145 0 3959.87303117 0 423.88956166 0 -350.61734494 0 23044
0.14750000 0.14750500 10616.23361472 0 136.80521653 0 3433.36184139 0 413.76613508 0 -428.43142930 0 23649
0.14850000 0.14849900 10630.48369676 0 125.25013835 0 3357.06245106 0 638.68380528 0 151.51258559 0 23640
0.14950000 0.14949500 10445.79731878 0 35.13093652 0 3215.48063361 0 567.24959448 0 38.55173128 0 24457
0.15050000 0.15050000 10358.45882061 0 176.26033879 0 3031.00462981 0 412.79398496 0 -66.07155172 0 24591
0.15150000 0.15149900 10234.43771032 0 154.11015299 0 2747.95171814 0 -136.92701210 0 76.78269730 0 25020
0.15250000 0.15250500 9993.59250086 0 255.22373046 0 2641.56882128 0 121.90629625 0 300.85610274 0 25297
0.15350000 0.15350100 10071.07662995 0 56.54758080 0 2777.23801729 0 -80.27047962 0 213.65933033 0 25452
0.15450000 0.15450400 9865.99502965 0 120.66508864 0 2620.34317461 0 154.23084133 0 154.07804325 0 26061
0.15550000 0.15549900 9862.52939199 0 106.77308558 0 2719.77265148 0 18.30808909 0 50.23070877 0 26128
0.15650000 0.15649500 9654.41397470 0 119.44491845 0 2555.93546114 0 167.70032447 0 215.53498215 0 26331
0.15750000 0.15749700 9650.78225215 0 124.35881620 0 2637.44991645 0 124.52379384 0 -152.66300013 0 27345
0.15850000 0.15849900 9486.92291716 0 81.51523038 0 2380.67163158 0 153.38823741 0 188.44211055 0 26980
0.15950000 0.15949700 9467.08131109 0 132.67966830 0 2560.51940361 0 241.20948894 0 288.33330337 0 27777
0.16050000 0.16050000 9370.70779587 0 29.81721712 0 2385.59881613 0 80.22286862 0 345.41113781 0 28224
0.16150000 0.16150500 9351.98449460 0 179.37276929 0 2752.45815434 0 175.84623384 0 489.34250259 0 28075
0.16250000 0.16249700 9108.91374786 0 297.63073452 0 2879.24734584 0 -84.73439810 0 794.90877231 0 28590
0.16350000 0.16349900 8852.64478993 0 300.03232177 0 2686.24565193 0 218.80131797 0 963.19260830 0 29163
0.16450000 0.16449100 8822.78272989 0 -2.12223250 0 2716.16307359 0 -82.59013167 0 976.59676472 0 28996
0.16550000 0.16550500 8694.80879964 0 5.07330601 0 2743.94353656 0 119.87895358 0 502.56285843 0 30777
0.16650000 0.16650700 8952.91576349 0 4.41920843 0 2461.85391715 0 -212.64731984 0 369.79793322 0 29211
0.16750000 0.16749900 8824.11140887 0 115.52863716 0 2686.13492868 0 -233.23520061 0 191.64533412 0 30922
0.16850000 0.16850800 8725.24662056 0 101.24777405 0 2400.96720297 0 -297.35835533 0 9.95555907 0 30867
0.16950000 0.16949900 8529.49899010 0 73.24597531 0 2503.08725478 0 -6.27213984 0 -502.08564123 0 30852
0.17050000 0.17049200 8537.61500419 0 233.84971463 0 2438.36951621 0 166.51447848 0 -704.36705057 0 31257
0.17150000 0.17149500 8340.00722315 0 209.37655509 0 2623.35484696 0 -34.49239555 0 -846.36629467 0 32608
0.17250000 0.17250900 8230.28048420 0 233.68916592 0 2560.45296966 0 -76.81591428 0 -755.33185448 0 32361
0.17350000 0.17350400 8129.37838812 0 117.20498714 0 2649.82877560 0 35.71478021 0 -323.40489223 0 32508
0.17450000 0.17449800 7932.63424842 0 75.90167242 0 2472.42798735 0 224.53013883 0 -71.82816412 0 32791
0.17550000 0.17549800 7992.51338104 0 -10.94044236 0 2451.03625580 0 466.82914454 0 -78.44454254 0 33633
0.17650000 0.17650100 8047.50961841 0 -80.38884277 0 2447.67026906 0 393.39305741 0 -242.83933516 0 33984
0.17750000 0.17750300 7969.30578822 0 62.42377431 0 2357.76299153 0 -41.02296345 0 -119.16921756 0 34069
0.17850000 0.17849800 8044.54223536 0 114.80672158 0 2336.47091091 0 -29.03750401 0 42.56168443 0 34536
