### header ###
fiducial parameters:
Omega_m = 0.31
Omega_nu = 0
Omega_de = 0.69
Omega_k = 0
H_0 = 100
w_de = -1
zeff = 0
beta = 0
fgrowth = 0
b_1 = 2
gamma = 0.55
Lx = 3500 Ly = 3500 Lz = 3500
nx = 700 ny = 700 nz = 700
xoffset = -685.467585 yoffset = -31.7331281 zoffset = 572.489161
bins = 400 dk = 0.001
kx_ny = 0.628318531 ky_ny = 0.628318531 kz_ny = 0.628318531
############################
A(data) = 7.98515998 (not used)
A(ran) = 7.98296965 (used)
Ngal = 474501
weighted Ngal = 0
Nran = 23820508
weighted Nran = 0
SN(data) = 3487.48438
SN(ran) = 69.5345608
SN(data+ran) = 3557.01894
############################
13 columns: k_central k_mean P_0(k) sigma^{lin}_{P_0(k)} P^img_1(k) sigma^{lin}_{P_1(k)} P_2(k) sigma^{lin}_{P_2(k)} P^img_3(k) sigma^{lin}_{P_3(k)} P_4(k) sigma^{lin}_{P_4(k)} N_modes
### header ###
0.00050000 0 0 0 0 0 0 0 0 0 0 0 0
0.00150000 0.00179520 11620.51562042 0 -13782.60848775 0 26901.20965613 0 -58829.69767293 0 49925.66622352 0 3
0.00250000 0.00253879 42903.92999328 0 -40089.78791737 0 -6539.44790579 0 -68287.12391677 0 -53156.45988235 0 6
0.00350000 0.00331552 61973.68430518 0 -35208.66424432 0 -25798.73827394 0 44647.59970572 0 63164.06994644 0 7
0.00450000 0.00420575 96512.47289797 0 -26619.52971275 0 9910.80472820 0 -60493.31447693 0 4954.25637848 0 24
0.00550000 0.00557378 110446.55078925 0 640.16638957 0 18230.91498365 0 -32389.87179199 0 8497.36710347 0 45
0.00650000 0.00659388 122715.68319754 0 1648.21520018 0 11233.75931450 0 -13883.92025985 0 -28998.97231628 0 40
0.00750000 0.00754703 92555.44545428 0 11835.76161489 0 11235.30943998 0 -18299.56339752 0 -11870.08582183 0 57
0.00850000 0.00846663 93510.98708613 0 17586.28423270 0 20492.65877435 0 14573.72609605 0 -21986.75828538 0 75
0.00950000 0.00948925 72741.18802157 0 7839.30562252 0 16713.23142075 0 2261.11266819 0 10271.71822798 0 112
0.01050000 0.01054430 75316.94294413 0 6729.51543363 0 32008.09803224 0 10154.34051258 0 25848.34228913 0 105
0.01150000 0.01145670 70869.30078773 0 -6589.36194607 0 29520.03592224 0 32110.62776006 0 56307.31135599 0 144
0.01250000 0.01249090 84668.84993246 0 -6881.31700689 0 34430.72270256 0 30771.31935000 0 51584.63265109 0 169
0.01350000 0.01339930 91974.92346404 0 -6741.32960421 0 28463.73613454 0 34670.43853488 0 48520.36675753 0 180
0.01450000 0.01448870 99635.64355957 0 385.26929269 0 39559.53428180 0 13771.42543969 0 38293.41393879 0 267
0.01550000 0.01550050 98121.17097087 0 2850.08284227 0 33812.00119169 0 -12534.86820394 0 43498.40311279 0 238
0.01650000 0.01653350 87706.54224645 0 8281.99931342 0 31121.20481427 0 -2045.67844419 0 492.55790572 0 315
0.01750000 0.01747870 86957.61019572 0 169.86607121 0 6105.05845851 0 -2266.88134942 0 -7389.19347400 0 297
0.01850000 0.01844180 82003.63062536 0 6101.93606291 0 18952.38766883 0 2987.75612906 0 -21836.83900733 0 388
0.01950000 0.01947590 73590.43533516 0 4413.68333618 0 3162.48848703 0 4698.48567517 0 -23930.39418404 0 399
0.02050000 0.02045430 69385.05564579 0 4588.98038271 0 4148.99941139 0 7636.80387392 0 -970.15267168 0 462
0.02150000 0.02154770 69314.19276695 0 -1685.90539386 0 4262.61253636 0 6356.47773816 0 -7195.85961034 0 571
0.02250000 0.02255340 69946.86540709 0 -723.11138926 0 14317.51249974 0 5282.21863961 0 2118.65613707 0 510
0.02350000 0.02348930 76314.55941029 0 -2271.65352142 0 21831.96718441 0 -8839.92268871 0 -5490.09046575 0 555
0.02450000 0.02439640 66505.80829995 0 6436.96246727 0 30124.91702708 0 -10199.96956316 0 17304.49356607 0 592
0.02550000 0.02547300 67134.38417991 0 13080.84454075 0 35270.77998655 0 -11168.65404457 0 9047.41805581 0 837
0.02650000 0.02652900 56467.86006586 0 6798.48494492 0 37528.64846357 0 -1331.98960336 0 12409.75093349 0 723
0.02750000 0.02749970 50802.04073291 0 6748.20551792 0 35558.88187833 0 2694.57204019 0 506.37173816 0 826
0.02850000 0.02848090 47590.29147277 0 221.67680073 0 38344.67880270 0 16942.53926775 0 -1838.54846381 0 831
0.02950000 0.02946900 46550.26800255 0 -520.12024389 0 33372.54061964 0 15935.06843250 0 -10244.44709196 0 996
0.03050000 0.03053250 49150.27131647 0 -491.86034926 0 24779.86294413 0 12938.34372033 0 -3974.95353757 0 1041
0.03150000 0.03150510 48613.59573251 0 -4084.24845585 0 22669.36711045 0 6304.45995616 0 260.40004232 0 1036
0.03250000 0.03246190 54163.70927110 0 -4550.68121116 0 15998.84502345 0 4193.54337414 0 2579.18734326 0 1059
0.03350000 0.03345080 54348.06347933 0 -2065.28753145 0 17665.89424815 0 -774.15369944 0 2313.80586200 0 1302
0.03450000 0.03451200 55032.99749261 0 3236.24124264 0 18138.23962491 0 4022.69740219 0 -470.02572471 0 1339
0.03550000 0.03553350 51992.86926716 0 3929.91132021 0 18562.42038872 0 -2646.56243978 0 2594.06854781 0 1365
0.03650000 0.03647120 48972.78194962 0 275.30782045 0 17632.78799694 0 -4039.57162521 0 1191.67003093 0 1308
0.03750000 0.03744890 48921.95997871 0 2910.96955645 0 20630.39849509 0 -1199.86355130 0 -3979.07244240 0 1579
0.03850000 0.03847530 48750.00677427 0 1431.90626252 0 24409.38295570 0 -2416.96671234 0 -605.40261134 0 1662
0.03950000 0.03950240 47735.00675815 0 1183.89725891 0 25268.70608487 0 -1067.45072602 0 1443.88651798 0 1683
0.04050000 0.04050350 47303.40753672 0 1054.79062983 0 26921.91490355 0 338.01593206 0 7271.99291579 0 1822
0.04150000 0.04152450 47919.58241287 0 2134.89923758 0 32013.41274815 0 4581.00830884 0 3596.02536530 0 1887
0.04250000 0.04250150 46497.23156667 0 877.05545737 0 30763.12582963 0 2452.03276504 0 7887.47023549 0 1920
0.04350000 0.04349210 45457.42954295 0 1029.72731537 0 28433.28724129 0 3679.64356233 0 1284.65541476 0 2005
0.04450000 0.04448520 46973.67370362 0 -1167.24448238 0 26048.30847535 0 3540.51980098 0 5671.46621861 0 2151
0.04550000 0.04548030 44354.40454452 0 79.94428893 0 22387.35499732 0 3244.63406486 0 -195.20065762 0 2274
0.04650000 0.04648670 45248.27332713 0 1577.15301949 0 24010.22564599 0 2586.40649904 0 -457.40548889 0 2311
0.04750000 0.04749250 41728.38126728 0 3497.61454231 0 21547.62988307 0 99.18300692 0 -2746.20229082 0 2568
0.04850000 0.04851840 38407.56960767 0 5368.57170087 0 18188.50797959 0 1180.19910242 0 -852.03753944 0 2493
0.04950000 0.04949480 36259.76003935 0 936.43190644 0 19284.44669014 0 2781.72230884 0 3127.01275831 0 2644
0.05050000 0.05050630 36316.33961917 0 -2222.31524203 0 19319.98885281 0 3976.81368814 0 -1346.10681750 0 2829
0.05150000 0.05149060 36682.94429392 0 -412.31344606 0 17410.56643783 0 3714.86462758 0 -813.86348517 0 2784
0.05250000 0.05249300 37522.78013141 0 391.47311629 0 17026.35676663 0 630.34745193 0 1015.27903871 0 3055
0.05350000 0.05348950 37038.91953684 0 427.05735379 0 15920.12079399 0 368.64973314 0 4079.06660784 0 3009
0.05450000 0.05448610 37183.96699196 0 -536.74091068 0 14129.39370107 0 1035.20700892 0 -1148.24437299 0 3336
0.05550000 0.05550870 35786.19670686 0 631.49122308 0 13622.28122438 0 1983.82843776 0 -2717.20387212 0 3349
0.05650000 0.05647670 35829.15732715 0 2294.66181239 0 14017.56322041 0 -1735.79728949 0 -2519.52965713 0 3324
0.05750000 0.05747970 33402.65734315 0 1856.65171489 0 13865.65092389 0 -538.77268228 0 -3238.81002200 0 3639
0.05850000 0.05849280 32523.18258280 0 1183.80868031 0 16352.49507816 0 -1255.12552447 0 -1059.38121570 0 3846
0.05950000 0.05951020 31857.95730770 0 1201.24759190 0 15671.65782506 0 823.61155994 0 -776.63943636 0 3787
0.06050000 0.06049470 30629.48286907 0 773.26680622 0 17669.10522235 0 1245.07185353 0 -677.39154561 0 3930
0.06150000 0.06148310 30439.48177518 0 619.99482822 0 16371.09658386 0 1632.82466868 0 -1189.76559106 0 4083
0.06250000 0.06249100 30905.18375705 0 -506.16468569 0 15731.22693259 0 3459.20464752 0 1142.20995597 0 4303
0.06350000 0.06350600 31035.39429692 0 -805.03552059 0 14188.85208535 0 3267.47627096 0 495.35698943 0 4470
0.06450000 0.06451750 31398.45582772 0 -1482.08603860 0 11547.77044636 0 3329.61415784 0 1800.13856902 0 4479
0.06550000 0.06550280 32189.79488251 0 -1049.13599354 0 8810.70282351 0 5075.38761200 0 773.02875124 0 4636
0.06650000 0.06648880 32607.22152818 0 101.59433782 0 7754.45839744 0 2337.12417807 0 51.38898467 0 4653
0.06750000 0.06749660 32513.21749047 0 1107.16604792 0 6060.55878506 0 596.17936477 0 2107.09662996 0 5220
0.06850000 0.06852730 31559.22598409 0 164.81819832 0 6669.40378219 0 -1242.82417159 0 1334.11548972 0 5029
0.06950000 0.06949320 30972.83566170 0 1075.19028107 0 7039.21943113 0 -1478.78648580 0 4007.74976368 0 5040
0.07050000 0.07048030 30438.04237296 0 2052.01181399 0 8301.84091950 0 -1158.99560039 0 2049.56483021 0 5475
0.07150000 0.07148790 29035.40026493 0 579.44133134 0 7674.10653623 0 982.35105193 0 3496.16406776 0 5509
0.07250000 0.07249820 28358.10615577 0 29.10548808 0 7909.59274047 0 1440.86377330 0 2249.98498175 0 5916
0.07350000 0.07351270 28802.21710425 0 -53.62293693 0 7756.19675244 0 1192.16828555 0 727.38752110 0 5721
0.07450000 0.07449140 27860.62660167 0 496.69341904 0 6007.41162593 0 1096.05164826 0 474.13244999 0 6028
0.07550000 0.07549160 26865.00315398 0 1509.94400784 0 5688.10792281 0 -208.58820556 0 -654.17952387 0 6183
0.07650000 0.07648840 26245.06368738 0 1071.39579536 0 5746.04939859 0 -567.32488629 0 -1189.26733645 0 6330
0.07750000 0.07749960 24647.77010904 0 715.46152004 0 4909.18094414 0 -1206.60659711 0 -1087.39973365 0 6583
0.07850000 0.07848650 24800.34674504 0 126.31418876 0 5882.42722338 0 -222.13298051 0 -1983.78414846 0 6549
0.07950000 0.07947320 25068.29700566 0 -631.67723814 0 5563.09030328 0 31.80469943 0 -574.31041602 0 6828
0.08050000 0.08048110 25465.79346665 0 123.11760859 0 6320.00550021 0 1437.47564191 0 -231.08938406 0 7147
0.08150000 0.08149960 25561.67979958 0 119.64089860 0 6197.73381724 0 1549.15111003 0 1102.24993570 0 7386
0.08250000 0.08250610 24979.38623736 0 194.05245754 0 6089.55720376 0 1787.85936079 0 1260.75026548 0 7227
0.08350000 0.08350160 24714.31478120 0 785.53162042 0 7324.97399005 0 163.42419263 0 2175.92220104 0 7798
0.08450000 0.08449610 24571.92468404 0 845.97765607 0 6111.46933458 0 -460.63196434 0 2657.59047530 0 7371
0.08550000 0.08548940 23151.12396331 0 1208.88749602 0 7857.70782637 0 -76.49448469 0 3619.75335739 0 8256
0.08650000 0.08650700 22780.86542137 0 699.43432986 0 5960.15494360 0 -471.65778539 0 3263.27985985 0 8037
0.08750000 0.08749060 22379.60436994 0 -146.03399927 0 6815.50310817 0 799.66433582 0 2770.35103125 0 8155
0.08850000 0.08849210 22195.47160821 0 59.64893899 0 6367.84901575 0 869.70786262 0 1086.64127940 0 8718
0.08950000 0.08949900 21685.48032706 0 1184.56159840 0 5881.30891857 0 -126.02630832 0 -77.43120337 0 8571
0.09050000 0.09049190 20564.85033217 0 1205.78724508 0 6038.01553173 0 -143.79406795 0 91.87316880 0 8932
0.09150000 0.09150830 19797.87039198 0 671.16889907 0 6540.87623569 0 -437.02023166 0 1072.82633972 0 9285
0.09250000 0.09250820 19077.61566253 0 679.58718763 0 6672.09435712 0 256.05747652 0 2003.60360988 0 9204
0.09350000 0.09350330 19217.90201798 0 145.81476723 0 7059.21604975 0 -99.34909179 0 1164.65355837 0 9349
0.09450000 0.09448040 19089.79521983 0 -66.90009379 0 7284.95860815 0 444.89154738 0 2287.28764406 0 9564
0.09550000 0.09549270 19012.95328559 0 294.72314202 0 6797.21162757 0 61.72599640 0 1285.99516606 0 10155
0.09650000 0.09649430 18489.12159842 0 506.85670599 0 7573.78020105 0 -280.75761873 0 1532.67549070 0 9913
0.09750000 0.09749140 18477.71710385 0 543.25033044 0 7741.74736855 0 -616.24573904 0 651.00730280 0 10476
0.09850000 0.09850240 17882.24747511 0 495.33484478 0 7994.09672349 0 -394.41503299 0 618.08595942 0 10575
0.09950000 0.09950330 17569.78646872 0 87.86598372 0 7746.33131102 0 165.83353051 0 -345.10554165 0 10882
0.10050000 0.10051200 17944.69538708 0 -214.16976450 0 7801.61542884 0 589.99214966 0 -410.31599866 0 10875
0.10150000 0.10150300 17554.50666047 0 -28.33629368 0 7384.83097802 0 488.77892126 0 -779.66550273 0 11118
0.10250000 0.10250800 17464.37793645 0 484.07650491 0 6558.89090817 0 1310.53143786 0 -1221.24421052 0 11575
0.10350000 0.10349800 16924.82354804 0 536.22494034 0 5692.58114204 0 741.41947834 0 -282.62109100 0 11364
0.10450000 0.10450100 16669.27429122 0 -82.63264940 0 5379.83225521 0 810.12103938 0 -1164.35460560 0 12093
0.10550000 0.10551000 16395.56642171 0 128.35703269 0 4769.62536213 0 325.09342177 0 -780.85799212 0 12067
0.10650000 0.10649700 16142.01018336 0 700.82944279 0 5060.48426279 0 -116.76098691 0 -1514.05184035 0 12054
0.10750000 0.10749900 15921.00657998 0 409.63505069 0 5118.61396809 0 -441.96845362 0 -977.83132894 0 12807
0.10850000 0.10850100 15675.31169225 0 227.60160174 0 5148.74176392 0 -144.19045718 0 -59.49835537 0 12736
0.10950000 0.10950300 15734.65935328 0 36.43005240 0 5259.69753093 0 347.48276978 0 -413.68752157 0 12933
0.11050000 0.11050200 15526.27820019 0 78.87326295 0 5752.99174625 0 282.38303601 0 -285.33602504 0 13428
0.11150000 0.11150900 15589.61189816 0 493.12702322 0 5696.67790222 0 257.15806561 0 -594.80528926 0 13453
0.11250000 0.11250000 14757.41596479 0 759.64009607 0 5784.58108895 0 -124.14622756 0 68.84395113 0 13668
0.11350000 0.11349100 14443.62627943 0 568.19184932 0 5743.82386130 0 -509.30147531 0 -391.05679687 0 13791
0.11450000 0.11448600 14133.49046126 0 37.69262959 0 5825.10579779 0 117.92579548 0 -186.37269304 0 14205
0.11550000 0.11549300 13996.30435675 0 -234.16416866 0 5875.96098568 0 -105.51172634 0 -1714.64914909 0 14776
0.11650000 0.11649800 14054.43406205 0 12.25817081 0 5615.32953178 0 -212.72371888 0 -1842.52342842 0 14553
0.11750000 0.11747300 14242.44213747 0 227.62706809 0 5856.46262168 0 -171.76497491 0 -1421.08860117 0 14568
0.11850000 0.11849100 14016.12381818 0 294.59581029 0 5551.04361388 0 71.98793776 0 -1480.67985335 0 16015
0.11950000 0.11950300 13920.23748525 0 -108.82866269 0 5356.20391405 0 932.99727129 0 -1216.54954480 0 15270
0.12050000 0.12050700 13647.08323197 0 152.14924426 0 5082.36317663 0 448.98609309 0 -1417.09149191 0 15999
0.12150000 0.12150000 13804.97458389 0 208.16413552 0 5229.35936092 0 583.35982709 0 -1653.09809542 0 15670
0.12250000 0.12250700 13429.17987954 0 198.66850976 0 4779.26935705 0 361.94986939 0 -831.28468104 0 16887
0.12350000 0.12352200 13355.88108924 0 66.99166191 0 5068.86601268 0 248.58587174 0 -349.22112478 0 16407
0.12450000 0.12449800 13329.52895618 0 -20.07844310 0 4795.26886641 0 375.34627519 0 -453.51910287 0 16306
0.12550000 0.12549900 13302.51248362 0 -86.59089480 0 4382.59224809 0 737.02265816 0 -510.21494211 0 17523
0.12650000 0.12650100 13403.60280921 0 82.13860226 0 3917.80926918 0 514.89299934 0 -234.68346069 0 17154
0.12750000 0.12750600 13290.22220307 0 112.48374783 0 4131.01795589 0 -45.29798807 0 -233.18094622 0 18007
0.12850000 0.12850300 13242.72192960 0 306.97577667 0 4200.00961183 0 29.17989410 0 250.43162828 0 17496
0.12950000 0.12949900 12812.45138714 0 325.50974118 0 4128.83670790 0 -230.59777284 0 -168.03138698 0 18405
0.13050000 0.13049000 12709.47876633 0 319.85399766 0 4516.19091935 0 -308.93336369 0 443.86735733 0 18100
0.13150000 0.13148800 12577.49665449 0 205.63853823 0 4453.75407970 0 -93.38708777 0 20.89613429 0 19059
0.13250000 0.13249300 12411.07961247 0 93.08680632 0 4550.71442814 0 389.99274646 0 381.89223362 0 18957
0.13350000 0.13349100 12276.66158917 0 118.85033460 0 4447.64215640 0 381.67853775 0 177.26902758 0 19468
0.13450000 0.13450700 12205.24509409 0 309.80918459 0 3863.17841852 0 582.12526288 0 33.40620049 0 19953
0.13550000 0.13551000 11909.72474468 0 223.91894650 0 3658.42898798 0 338.78435141 0 -56.24729936 0 19956
0.13650000 0.13649900 11641.22086783 0 267.32910319 0 3356.94065549 0 95.68182709 0 -204.30100139 0 19723
0.13750000 0.13749600 11396.30104284 0 224.37069736 0 3081.43906935 0 129.53069912 0 -215.48737116 0 20946
0.13850000 0.13851100 11188.47350599 0 99.78622718 0 3008.09598976 0 9.71399415 0 -905.28324226 0 20955
0.13950000 0.13949800 11118.38568989 0 26.70412227 0 3097.08426432 0 -75.33443722 0 -538.89115616 0 20506
0.14050000 0.14048300 11171.64357227 0 22.47239045 0 3236.60662936 0 -261.23268114 0 -1278.74279331 0 21447
0.14150000 0.14148400 11168.87549106 0 152.24003733 0 3622.93111461 0 18.81254421 0 -913.07373001 0 21771
0.14250000 0.14249400 11079.96472277 0 141.13449553 0 3595.61568928 0 -309.54455602 0 -853.68953031 0 22470
0.14350000 0.14350900 11020.88279754 0 160.14014108 0 4077.61613329 0 -71.95604947 0 -461.60632892 0 22519
0.14450000 0.14449900 11010.34194431 0 166.00182984 0 3890.89244755 0 59.19718813 0 -594.96362350 0 22218
0.14550000 0.14550500 10845.39752149 0 236.83592064 0 4142.44459510 0 434.54445983 0 -80.42859242 0 23559
0.14650000 0.14650700 10669.87902846 0 127.85656361 0 3536.36767918 0 570.56907746 0 -44.91045670 0 23044
0.14750000 0.14750500 10450.82415425 0 70.99873626 0 3552.17895902 0 446.29773263 0 86.18708711 0 23649
0.14850000 0.14849900 10394.84247997 0 253.75000403 0 3255.91676385 0 554.64043098 0 162.60484059 0 23640
0.14950000 0.14949500 10115.01161483 0 197.65649927 0 2939.34792496 0 489.37904126 0 319.55393766 0 24457
0.15050000 0.15050000 9901.33789048 0 68.81372369 0 2550.17785223 0 372.03454284 0 436.21195195 0 24591
0.15150000 0.15149900 9973.08655530 0 -6.21988954 0 2548.73845000 0 9.71335196 0 118.35207999 0 25020
0.15250000 0.15250500 10008.65086262 0 13.86055765 0 2496.62101708 0 -202.79295075 0 218.21559199 0 25297
0.15350000 0.15350100 9996.12806325 0 7.51966975 0 2477.88664349 0 -231.57213742 0 305.22856381 0 25452
0.15450000 0.15450400 9977.74800405 0 253.65699650 0 2678.08534854 0 -302.13384902 0 109.78066117 0 26061
0.15550000 0.15549900 9710.93819289 0 340.27579356 0 3059.82589131 0 -240.66140886 0 193.14784860 0 26128
0.15650000 0.15649500 9542.88244680 0 153.66726000 0 3162.10095566 0 131.46835597 0 181.78542887 0 26331
0.15750000 0.15749700 9385.56685577 0 175.88941591 0 3160.67262576 0 265.51102745 0 434.97517327 0 27345
0.15850000 0.15849900 9327.08283608 0 113.26545396 0 3140.12239089 0 521.32934176 0 192.06940416 0 26980
0.15950000 0.15949700 9263.07372631 0 65.55347764 0 3097.95897798 0 44.36835567 0 473.63419537 0 27777
0.16050000 0.16050000 9101.97140019 0 107.03992861 0 2808.80521534 0 194.34144522 0 401.79030855 0 28224
0.16150000 0.16150500 9087.25628051 0 68.90407386 0 2784.65647492 0 111.04213114 0 510.56372034 0 28075
0.16250000 0.16249700 8954.33302106 0 58.42633288 0 2728.39799251 0 106.87107566 0 657.07936574 0 28590
0.16350000 0.16349900 8867.71422401 0 74.68294163 0 2464.88773415 0 473.30977626 0 622.47170728 0 29163
0.16450000 0.16449100 8997.61473878 0 -8.66596539 0 2519.88397153 0 429.70253219 0 823.36796879 0 28996
0.16550000 0.16550500 8843.97515959 0 52.55335035 0 2319.25344581 0 146.63079757 0 468.75130013 0 30777
0.16650000 0.16650700 8872.10993696 0 179.19339763 0 2384.53587294 0 114.83108069 0 807.76374142 0 29211
0.16750000 0.16749900 8690.03662764 0 113.06393765 0 2265.06548815 0 -57.16131977 0 874.23422901 0 30922
0.16850000 0.16850800 8538.41221157 0 194.05799370 0 2171.33825856 0 -86.56720002 0 819.03758255 0 30867
0.16950000 0.16949900 8536.71814588 0 70.43626216 0 2239.47734549 0 -90.45613267 0 420.12497122 0 30852
0.17050000 0.17049200 8283.88160864 0 168.05353163 0 2191.04699674 0 -62.88759400 0 -4.07357473 0 31257
0.17150000 0.17149500 8138.82308119 0 290.22224198 0 2144.47679855 0 -226.32717715 0 222.99219292 0 32608
0.17250000 0.17250900 8053.07899780 0 62.92036808 0 2100.15428230 0 -108.98500391 0 -269.55574771 0 32361
0.17350000 0.17350400 8000.72904606 0 -31.35859546 0 2206.75862566 0 167.27514720 0 47.67942369 0 32508
0.17450000 0.17449800 8061.82613441 0 10.41163920 0 1971.37207234 0 178.92101844 0 -398.30363347 0 32791
0.17550000 0.17549800 7996.49941798 0 126.63750065 0 1984.11631820 0 180.41356783 0 -306.40001578 0 33633
0.17650000 0.17650100 8000.83976930 0 97.44808435 0 1924.14860698 0 -207.05358134 0 -333.92692251 0 33984
0.17750000 0.17750300 7831.34462098 0 107.47119566 0 2068.07775730 0 -46.22485238 0 -93.08392752 0 34069
0.17850000 0.17849800 7810.60615660 0 53.89941288 0 1938.33225508 0 159.17795606 0 -29.11202075 0 34536
