### header ###
fiducial parameters:
Omega_m = 0.31
Omega_nu = 0
Omega_de = 0.69
Omega_k = 0
H_0 = 100
w_de = -1
zeff = 0
beta = 0
fgrowth = 0
b_1 = 2
gamma = 0.55
Lx = 3500 Ly = 3500 Lz = 3500
nx = 700 ny = 700 nz = 700
xoffset = -685.467585 yoffset = -31.7331281 zoffset = 572.489161
bins = 400 dk = 0.001
kx_ny = 0.628318531 ky_ny = 0.628318531 kz_ny = 0.628318531
############################
A(data) = 8.0396188 (not used)
A(ran) = 8.03272404 (used)
Ngal = 477673
weighted Ngal = 0
Nran = 23820508
weighted Nran = 0
SN(data) = 3497.37347
SN(ran) = 69.9679396
SN(data+ran) = 3567.34141
############################
13 columns: k_central k_mean P_0(k) sigma^{lin}_{P_0(k)} P^img_1(k) sigma^{lin}_{P_1(k)} P_2(k) sigma^{lin}_{P_2(k)} P^img_3(k) sigma^{lin}_{P_3(k)} P_4(k) sigma^{lin}_{P_4(k)} N_modes
### header ###
0.00050000 0 0 0 0 0 0 0 0 0 0 0 0
0.00150000 0.00179520 31954.72942661 0 -37202.67922091 0 -14368.88808690 0 78987.19717502 0 -24583.55062510 0 3
0.00250000 0.00253879 43635.92138704 0 -18007.80763855 0 18210.98479897 0 -17664.89773892 0 46188.75659722 0 6
0.00350000 0.00331552 50404.87644167 0 -185.79582492 0 10011.51859475 0 -63931.60350286 0 -20634.16308553 0 7
0.00450000 0.00420575 45615.21017162 0 10056.19542539 0 -9694.56222449 0 661.13737278 0 31325.04631418 0 24
0.00550000 0.00557378 57234.84000605 0 -28336.95801537 0 -37474.72624170 0 550.44180541 0 964.94314285 0 45
0.00650000 0.00659388 68851.92320577 0 -25828.85499745 0 -13897.64994262 0 -15359.30754193 0 -19023.25054767 0 40
0.00750000 0.00754703 117074.33370244 0 -26136.33345766 0 -18961.46697518 0 -20278.96290535 0 -41699.26105301 0 57
0.00850000 0.00846663 97971.80530907 0 -13499.15697240 0 -13791.46634761 0 -23023.46005815 0 -12224.40021603 0 75
0.00950000 0.00948925 111155.06885439 0 20811.09883613 0 -4846.78839379 0 -41814.08106138 0 -22850.17817474 0 112
0.01050000 0.01054430 89203.85273168 0 5658.45623695 0 21004.42162747 0 -24697.81701722 0 -3898.56556865 0 105
0.01150000 0.01145670 88031.18281014 0 8521.50477158 0 14742.80049603 0 -22160.04016879 0 3527.88627837 0 144
0.01250000 0.01249090 86797.61510209 0 14366.45217544 0 31313.53109637 0 -8411.96626215 0 16295.47260535 0 169
0.01350000 0.01339930 87572.01349991 0 8487.78954250 0 33899.25111126 0 4505.43969196 0 211.99626714 0 180
0.01450000 0.01448870 74514.31011803 0 3348.10494029 0 21116.58427788 0 22714.09930272 0 9969.67627926 0 267
0.01550000 0.01550050 83407.37996587 0 -826.56676343 0 23056.89847910 0 8617.03679011 0 -5086.44886449 0 238
0.01650000 0.01653350 73351.82673532 0 -2766.56429616 0 12933.91479041 0 -772.92688585 0 -23270.26217836 0 315
0.01750000 0.01747870 90158.84074729 0 -3989.03753474 0 26966.97926556 0 -16743.34814426 0 -36932.18232559 0 297
0.01850000 0.01844180 76166.96532046 0 7253.34712080 0 27407.76851659 0 -12794.73566743 0 -28055.05662549 0 388
0.01950000 0.01947590 73353.59830729 0 8236.51420307 0 32622.39061318 0 -10338.56185291 0 -15791.12820986 0 399
0.02050000 0.02045430 65127.19313678 0 3531.37406068 0 25733.19011102 0 6416.10220731 0 -12509.29113361 0 462
0.02150000 0.02154770 69528.66369869 0 -1941.39928905 0 28458.31069538 0 20894.25199552 0 -8096.18355832 0 571
0.02250000 0.02255340 72484.08863928 0 -6516.77178456 0 22601.05086632 0 19813.15020023 0 -14734.05335942 0 510
0.02350000 0.02348930 69756.19997371 0 2774.29277888 0 25869.82259928 0 7372.69571002 0 1419.02914876 0 555
0.02450000 0.02439640 69997.13376177 0 6094.03042299 0 20070.80319876 0 1033.87500824 0 8892.56052090 0 592
0.02550000 0.02547300 63535.43572085 0 6546.54526600 0 24345.93853449 0 -6961.30348138 0 10360.25253723 0 837
0.02650000 0.02652900 60958.24139606 0 2442.11196200 0 25206.59034264 0 -1880.87796159 0 8533.45181006 0 723
0.02750000 0.02749970 59192.64848048 0 1476.22877877 0 27530.78204532 0 2169.77706076 0 2461.02349279 0 826
0.02850000 0.02848090 58453.12790585 0 2024.38636357 0 25649.37261214 0 1882.83776309 0 3082.49094021 0 831
0.02950000 0.02946900 53795.77591738 0 1505.64794581 0 21581.06830402 0 8123.75364712 0 5659.20915503 0 996
0.03050000 0.03053250 56216.29684598 0 -2589.08600164 0 18021.75876782 0 8341.42448073 0 3596.39075202 0 1041
0.03150000 0.03150510 56846.86574440 0 -2724.48946185 0 23578.73714780 0 3243.59326632 0 4688.24377471 0 1036
0.03250000 0.03246190 57614.28857759 0 4769.40391563 0 21270.15742312 0 -2611.25279593 0 -35.47794318 0 1059
0.03350000 0.03345080 55059.34962568 0 3723.35710072 0 20166.91097819 0 -187.43563623 0 15632.68324170 0 1302
0.03450000 0.03451200 51614.52792811 0 1892.00564804 0 17765.32372502 0 4610.83715190 0 10775.32077771 0 1339
0.03550000 0.03553350 52146.77458214 0 351.21967941 0 16932.13128242 0 8113.60032526 0 9101.77209835 0 1365
0.03650000 0.03647120 50703.93993502 0 1566.90004671 0 14365.12349646 0 4784.04152904 0 -4254.98370456 0 1308
0.03750000 0.03744890 47005.45127585 0 3423.92822064 0 9373.46480475 0 3662.37073561 0 -501.01384018 0 1579
0.03850000 0.03847530 42426.93424009 0 2586.59472856 0 7839.51599670 0 -3313.42641895 0 -852.92443266 0 1662
0.03950000 0.03950240 43455.33176924 0 74.41488064 0 7217.87139208 0 -1458.23625094 0 -852.53247236 0 1683
0.04050000 0.04050350 42414.97612928 0 -1884.55397343 0 7200.98609673 0 1904.27378393 0 -2610.38915459 0 1822
0.04150000 0.04152450 44365.03397634 0 -469.19751482 0 7060.05754644 0 1114.76166274 0 -4339.70913407 0 1887
0.04250000 0.04250150 43716.52791172 0 228.27812079 0 6906.30724401 0 2026.04721229 0 -479.48591904 0 1920
0.04350000 0.04349210 43988.35348601 0 1989.98465036 0 7363.77141621 0 511.22916706 0 3056.20524109 0 2005
0.04450000 0.04448520 42858.75490802 0 1256.29919090 0 10268.36331356 0 2525.01045792 0 3648.67426981 0 2151
0.04550000 0.04548030 40785.90497872 0 1111.01921695 0 10969.18611296 0 1758.80558047 0 4729.44389536 0 2274
0.04650000 0.04648670 41240.20246603 0 1691.54120719 0 12666.07525304 0 2277.21182848 0 8336.82946593 0 2311
0.04750000 0.04749250 40196.30368212 0 -68.51975346 0 12295.26309487 0 -1323.45284092 0 8196.36595328 0 2568
0.04850000 0.04851840 39510.26243636 0 2035.46976071 0 13557.39740094 0 -2562.56778370 0 8324.77170420 0 2493
0.04950000 0.04949480 39528.75321881 0 2157.20997209 0 14488.35847170 0 -1962.85745455 0 7600.25412969 0 2644
0.05050000 0.05050630 36133.42481317 0 1704.57333351 0 14469.20334976 0 -2915.77494542 0 7241.22292512 0 2829
0.05150000 0.05149060 36179.15351467 0 -229.61455039 0 14935.45894787 0 1800.55931736 0 3388.08710521 0 2784
0.05250000 0.05249300 36470.35565740 0 -2445.50009340 0 13169.09096955 0 2947.38643277 0 -1209.45218459 0 3055
0.05350000 0.05348950 37365.22094924 0 -343.93408968 0 13224.89548664 0 1386.83082819 0 -2488.44964137 0 3009
0.05450000 0.05448610 37467.52923057 0 1724.45922888 0 10873.90875790 0 -1634.55195135 0 -8356.43855318 0 3336
0.05550000 0.05550870 35876.43615413 0 1294.46549455 0 10630.56120303 0 188.33803070 0 -3141.81645659 0 3349
0.05650000 0.05647670 35332.12066604 0 -109.00128023 0 9949.31427392 0 -769.23426552 0 -3130.81056572 0 3324
0.05750000 0.05747970 36082.82428875 0 -448.75911043 0 13441.35943684 0 -698.61940676 0 -5302.29276450 0 3639
0.05850000 0.05849280 37028.73299801 0 646.80535554 0 13925.55220116 0 232.19329484 0 -3952.42135656 0 3846
0.05950000 0.05951020 35182.64428099 0 2304.64904938 0 15631.90817896 0 -1674.71127347 0 58.75274502 0 3787
0.06050000 0.06049470 34312.24882700 0 2086.83427554 0 17199.97081978 0 -2243.08692339 0 787.77487343 0 3930
0.06150000 0.06148310 33448.38604465 0 1063.08490835 0 19114.81867392 0 1540.81364944 0 819.95437105 0 4083
0.06250000 0.06249100 32610.98611861 0 214.92268259 0 19259.86612904 0 1171.65126766 0 1739.90512200 0 4303
0.06350000 0.06350600 31778.79018524 0 714.38639730 0 16853.07488321 0 2126.45105375 0 -1142.61963199 0 4470
0.06450000 0.06451750 31487.14514952 0 1123.22091890 0 16938.66395406 0 1879.26140217 0 399.83715046 0 4479
0.06550000 0.06550280 29728.30635208 0 1156.82542473 0 14020.77419460 0 3613.85180826 0 -255.28794995 0 4636
0.06650000 0.06648880 28681.08587073 0 425.51719341 0 12037.94226608 0 3547.93825861 0 1438.54965741 0 4653
0.06750000 0.06749660 28416.45730757 0 -66.64299440 0 10323.49241884 0 3782.05149458 0 -809.55302912 0 5220
0.06850000 0.06852730 28502.26782491 0 -32.96928655 0 10209.58034110 0 1485.78419509 0 -167.71028956 0 5029
0.06950000 0.06949320 28374.38247326 0 160.51327843 0 9432.90104437 0 -868.69253044 0 274.51504200 0 5040
0.07050000 0.07048030 29043.92595504 0 -358.35800722 0 9319.73081240 0 -206.57525691 0 1783.14255042 0 5475
0.07150000 0.07148790 29399.01541197 0 -257.24110805 0 10325.86189635 0 336.35951227 0 3318.88507509 0 5509
0.07250000 0.07249820 29395.58299128 0 -138.31215994 0 9269.11921566 0 868.92615649 0 531.42730200 0 5916
0.07350000 0.07351270 29054.33394037 0 1240.54327268 0 8616.77105432 0 1205.20041186 0 1467.18268939 0 5721
0.07450000 0.07449140 28157.36490681 0 787.22457889 0 8248.98164081 0 1242.68023137 0 308.02211136 0 6028
0.07550000 0.07549160 27004.62516994 0 330.84438728 0 7134.70716037 0 1287.24633877 0 880.40040670 0 6183
0.07650000 0.07648840 27159.63771740 0 89.35576503 0 6426.89772401 0 570.37088285 0 1604.16949205 0 6330
0.07750000 0.07749960 26581.66236187 0 781.44925426 0 7373.63685763 0 418.22053135 0 645.40692091 0 6583
0.07850000 0.07848650 26480.01842003 0 488.19983867 0 6717.23622540 0 399.19384838 0 2418.17359574 0 6549
0.07950000 0.07947320 25189.64968567 0 1315.44755008 0 7946.00961680 0 -130.12417573 0 1330.46162253 0 6828
0.08050000 0.08048110 24734.02351938 0 1182.73466480 0 8173.86698925 0 -1001.08321106 0 2604.08900177 0 7147
0.08150000 0.08149960 23935.81962321 0 451.69327651 0 8784.45034137 0 -718.65367128 0 2827.76103543 0 7386
0.08250000 0.08250610 23676.83794570 0 -240.38570798 0 8265.59012804 0 855.49653372 0 2109.38860120 0 7227
0.08350000 0.08350160 23984.20568266 0 -293.63805419 0 8600.46151986 0 1417.72261443 0 247.80305837 0 7798
0.08450000 0.08449610 23833.84351163 0 540.83767086 0 8139.22168489 0 488.90625299 0 689.69843465 0 7371
0.08550000 0.08548940 22715.42798169 0 1212.43063997 0 7608.44765006 0 -15.67055059 0 1113.82051513 0 8256
0.08650000 0.08650700 22174.21274456 0 1214.61188796 0 7386.94579206 0 -205.67729137 0 784.21733547 0 8037
0.08750000 0.08749060 21597.67679125 0 457.96685575 0 8530.96053697 0 501.99263370 0 1300.62170715 0 8155
0.08850000 0.08849210 20627.51969064 0 966.54973718 0 7784.16544493 0 494.06817083 0 1287.02489227 0 8718
0.08950000 0.08949900 20424.23180697 0 662.85026143 0 7460.83141557 0 582.43750244 0 2614.44162548 0 8571
0.09050000 0.09049190 19685.26484857 0 226.71692299 0 7413.04326166 0 1060.82393962 0 2768.59053160 0 8932
0.09150000 0.09150830 19351.32353204 0 200.80657568 0 7626.09693582 0 1270.62677921 0 3183.27124071 0 9285
0.09250000 0.09250820 19417.53603446 0 -33.94619777 0 6873.54423487 0 1061.54142627 0 2831.80243399 0 9204
0.09350000 0.09350330 19302.38385635 0 -285.96936202 0 6856.59250557 0 975.76080420 0 2122.54252308 0 9349
0.09450000 0.09448040 19336.59734004 0 65.43212496 0 6174.92482811 0 641.94792664 0 1922.49883059 0 9564
0.09550000 0.09549270 18986.49042927 0 675.44724538 0 6509.49726716 0 -625.52988340 0 1330.77164763 0 10155
0.09650000 0.09649430 18572.82837405 0 878.28227096 0 6080.65505460 0 -471.53488259 0 1954.53106629 0 9913
0.09750000 0.09749140 17812.04893576 0 566.22318997 0 6369.36592425 0 -321.52813318 0 1090.62510187 0 10476
0.09850000 0.09850240 17202.07456150 0 436.94604709 0 6442.42112340 0 401.02410368 0 1178.39431347 0 10575
0.09950000 0.09950330 17061.89892929 0 150.07650506 0 6297.01935389 0 367.45502929 0 1620.19114606 0 10882
0.10050000 0.10051200 16965.23753363 0 -5.23040016 0 5817.10050695 0 758.03239450 0 1666.10807709 0 10875
0.10150000 0.10150300 16879.31629303 0 30.33894507 0 5763.11185113 0 1226.62536038 0 1364.36508113 0 11118
0.10250000 0.10250800 16775.67933273 0 217.56011036 0 5559.71324421 0 16.69728727 0 1331.43598712 0 11575
0.10350000 0.10349800 16518.24778070 0 379.82613781 0 5915.37846204 0 362.58874253 0 1344.87778945 0 11364
0.10450000 0.10450100 16134.48100248 0 538.09727047 0 5376.24482197 0 -754.54350495 0 800.62541361 0 12093
0.10550000 0.10551000 15941.60110414 0 92.81442713 0 4936.41886320 0 130.23379175 0 724.04367901 0 12067
0.10650000 0.10649700 15783.82047548 0 19.93306348 0 5090.97744534 0 415.66725325 0 463.81082879 0 12054
0.10750000 0.10749900 15688.70920528 0 60.89955807 0 4605.94318433 0 474.59527317 0 19.71283494 0 12807
0.10850000 0.10850100 15699.44936036 0 190.98763803 0 4403.10926598 0 608.59254812 0 -513.50452981 0 12736
0.10950000 0.10950300 15578.87174308 0 259.03593190 0 3951.32519641 0 238.61856493 0 126.52567017 0 12933
0.11050000 0.11050200 15239.17281765 0 483.39223524 0 4200.76252992 0 -130.35558732 0 611.30526770 0 13428
0.11150000 0.11150900 15000.67494105 0 313.21171000 0 4175.80550978 0 -26.61720452 0 1082.98409051 0 13453
0.11250000 0.11250000 14791.07583224 0 165.28877213 0 4661.22730215 0 -270.47032174 0 1291.55347312 0 13668
0.11350000 0.11349100 14930.47640170 0 11.15658521 0 4762.15154288 0 441.57095716 0 924.85579085 0 13791
0.11450000 0.11448600 15041.53181963 0 43.82260078 0 5314.54982808 0 -349.49239674 0 1199.69746643 0 14205
0.11550000 0.11549300 14559.66424353 0 406.88911413 0 4825.49631316 0 -454.78024067 0 8.67112510 0 14776
0.11650000 0.11649800 14813.10975863 0 12.59510165 0 5490.11261040 0 231.65960879 0 419.99210332 0 14553
0.11750000 0.11747300 14339.65714938 0 80.43169267 0 5411.89770788 0 91.00299479 0 428.58422738 0 14568
0.11850000 0.11849100 14379.96041172 0 262.83373931 0 5032.82559539 0 1022.09959080 0 -89.26231461 0 16015
0.11950000 0.11950300 14123.19319918 0 66.68816949 0 4716.48927532 0 630.28876860 0 42.82254841 0 15270
0.12050000 0.12050700 13842.95265802 0 416.74348322 0 4008.02657180 0 524.27900909 0 -68.37227009 0 15999
0.12150000 0.12150000 13623.83134986 0 244.89989480 0 4026.91595794 0 533.35942268 0 588.06445791 0 15670
0.12250000 0.12250700 13330.63618866 0 6.97109142 0 3971.67612942 0 409.31395327 0 552.09822520 0 16887
0.12350000 0.12352200 13445.89909002 0 17.95997520 0 4021.45730181 0 434.74486891 0 425.43636544 0 16407
0.12450000 0.12449800 13400.39183501 0 -44.25475362 0 3717.78772133 0 246.91616515 0 239.72026125 0 16306
0.12550000 0.12549900 13536.91360003 0 101.71724063 0 3488.51309131 0 -321.58681650 0 741.96866565 0 17523
0.12650000 0.12650100 13549.75749682 0 0.00094116 0 3821.42468163 0 -332.78204412 0 521.57404014 0 17154
0.12750000 0.12750600 13278.15336902 0 415.54545768 0 3749.16668987 0 -487.10035682 0 837.18401570 0 18007
0.12850000 0.12850300 13531.82033061 0 31.82263659 0 3919.51440720 0 -69.27145359 0 482.60167124 0 17496
0.12950000 0.12949900 13040.43055516 0 176.74309215 0 3854.70809004 0 74.76376960 0 112.36859565 0 18405
0.13050000 0.13049000 13195.88599561 0 96.52487390 0 3882.94251833 0 297.46243518 0 -337.95835597 0 18100
0.13150000 0.13148800 12753.54661911 0 184.51143524 0 3436.45102001 0 250.82137412 0 -651.26639521 0 19059
0.13250000 0.13249300 12608.16699424 0 380.13284121 0 3631.51216634 0 370.54088622 0 -28.14662475 0 18957
0.13350000 0.13349100 12375.64817305 0 57.67551853 0 2953.01117378 0 123.16079066 0 -626.66922562 0 19468
0.13450000 0.13450700 12235.80471059 0 380.34764431 0 3504.06970768 0 82.35119090 0 -176.47514189 0 19953
0.13550000 0.13551000 11973.50133564 0 334.66544657 0 2840.90388499 0 -200.56298453 0 -560.86086306 0 19956
0.13650000 0.13649900 11672.55554707 0 277.93306867 0 3390.13548530 0 -50.46798869 0 -35.43155014 0 19723
0.13750000 0.13749600 11414.79182529 0 269.30440594 0 3277.91747326 0 -187.54746671 0 -266.95485861 0 20946
0.13850000 0.13851100 11317.46609013 0 248.60912362 0 3266.18080895 0 109.84908814 0 -93.21269866 0 20955
0.13950000 0.13949800 11061.26356615 0 222.31678110 0 3339.65675645 0 365.91708337 0 210.42399702 0 20506
0.14050000 0.14048300 11007.51850148 0 -12.25374188 0 2958.69127641 0 567.62937522 0 154.12676148 0 21447
0.14150000 0.14148400 11019.64269716 0 -190.87912925 0 2926.91370419 0 639.51422964 0 425.81171725 0 21771
0.14250000 0.14249400 11198.99221457 0 -80.04393986 0 2986.74854751 0 416.30280469 0 149.92592144 0 22470
0.14350000 0.14350900 11340.60724900 0 53.41200914 0 2971.88948760 0 -185.20567001 0 512.51466397 0 22519
0.14450000 0.14449900 11303.40423761 0 177.04204492 0 3101.70142377 0 -263.77820862 0 667.91252834 0 22218
0.14550000 0.14550500 11001.38443353 0 266.11779085 0 3467.50889113 0 -470.83954059 0 699.15420005 0 23559
0.14650000 0.14650700 11019.22194882 0 231.25546893 0 3537.92887698 0 -120.98729329 0 886.22002062 0 23044
0.14750000 0.14750500 10787.19030992 0 129.14538222 0 3391.49738125 0 363.59189516 0 731.36912911 0 23649
0.14850000 0.14849900 10644.02515001 0 97.55216420 0 2965.56719013 0 605.50336950 0 546.40483578 0 23640
0.14950000 0.14949500 10487.22995825 0 139.52679397 0 2854.25710873 0 649.10950633 0 164.09406828 0 24457
0.15050000 0.15050000 10348.41622200 0 154.34045734 0 2530.36946313 0 185.80911171 0 402.03722140 0 24591
0.15150000 0.15149900 10147.27636935 0 231.55331447 0 2387.51432832 0 4.74074874 0 406.88800690 0 25020
0.15250000 0.15250500 10009.19340653 0 132.50472557 0 2639.99655116 0 -94.21485477 0 756.03826880 0 25297
0.15350000 0.15350100 9864.36739791 0 63.88819999 0 2688.39368294 0 375.98847003 0 787.87009542 0 25452
0.15450000 0.15450400 9951.41801563 0 145.82030340 0 2527.43529705 0 32.10176990 0 644.32736924 0 26061
0.15550000 0.15549900 9772.07957054 0 107.92704328 0 2538.87300859 0 100.96288314 0 804.13976951 0 26128
0.15650000 0.15649500 9674.54346122 0 180.58629609 0 2540.96567798 0 -127.64729667 0 652.38580724 0 26331
0.15750000 0.15749700 9530.43715370 0 189.45744274 0 2473.83417261 0 -161.95710959 0 735.08721578 0 27345
0.15850000 0.15849900 9449.52060393 0 92.21818244 0 2567.29566640 0 176.44192492 0 842.53084136 0 26980
0.15950000 0.15949700 9349.44893222 0 76.00265202 0 2514.64676189 0 144.67874671 0 801.87990802 0 27777
0.16050000 0.16050000 9356.60165405 0 19.00929942 0 2561.88129956 0 441.04391450 0 378.20736392 0 28224
0.16150000 0.16150500 9294.38626089 0 61.20072531 0 2511.57972791 0 -155.58720112 0 283.20349528 0 28075
0.16250000 0.16249700 9186.82969760 0 120.79574207 0 2477.48803980 0 17.88667641 0 563.71752286 0 28590
0.16350000 0.16349900 9176.90889457 0 118.62003025 0 2250.09570500 0 -126.06949039 0 511.36978559 0 29163
0.16450000 0.16449100 9051.33765880 0 135.73562995 0 2135.05425013 0 -58.58101326 0 207.70795574 0 28996
0.16550000 0.16550500 8958.61801077 0 191.53350364 0 2322.94052998 0 18.83911779 0 123.27705007 0 30777
0.16650000 0.16650700 8686.20560325 0 290.96076605 0 1945.66213411 0 98.14984829 0 -19.32718586 0 29211
0.16750000 0.16749900 8360.03705875 0 280.45645149 0 1903.83089094 0 190.58239094 0 -139.08168651 0 30922
0.16850000 0.16850800 8251.32897368 0 154.74902613 0 1992.33198322 0 158.60773133 0 -154.02268162 0 30867
0.16950000 0.16949900 8141.89011517 0 152.75379320 0 1949.80318359 0 130.53828068 0 -255.84488789 0 30852
0.17050000 0.17049200 8026.53863521 0 109.30233674 0 2003.86934568 0 70.58861735 0 18.46930214 0 31257
0.17150000 0.17149500 8049.24797341 0 61.39548750 0 1868.77591057 0 -79.66260899 0 134.28294094 0 32608
0.17250000 0.17250900 7993.19986518 0 -101.26349675 0 1898.21722226 0 -3.78036850 0 35.59841008 0 32361
0.17350000 0.17350400 8257.60698185 0 -104.30107835 0 2074.93152636 0 -80.87480711 0 72.18281068 0 32508
0.17450000 0.17449800 8194.08505436 0 -47.82026366 0 2084.17691759 0 172.55000274 0 62.14098713 0 32791
0.17550000 0.17549800 8244.96238691 0 51.50269745 0 1982.32260158 0 171.45827151 0 127.27194486 0 33633
0.17650000 0.17650100 8206.44176886 0 133.90426743 0 1837.17549553 0 319.83849641 0 188.27159675 0 33984
0.17750000 0.17750300 8143.22986647 0 97.90138532 0 1750.39061361 0 203.76177917 0 328.61884999 0 34069
0.17850000 0.17849800 8094.25697380 0 -20.50483833 0 1659.76363496 0 15.77363394 0 294.55594992 0 34536
