### header ###
fiducial parameters:
Omega_m = 0.31
Omega_nu = 0
Omega_de = 0.69
Omega_k = 0
H_0 = 100
w_de = -1
zeff = 0
beta = 0
fgrowth = 0
b_1 = 2
gamma = 0.55
Lx = 3500 Ly = 3500 Lz = 3500
nx = 700 ny = 700 nz = 700
xoffset = -685.467585 yoffset = -31.7331281 zoffset = 572.489161
bins = 400 dk = 0.001
kx_ny = 0.628318531 ky_ny = 0.628318531 kz_ny = 0.628318531
############################
A(data) = 8.05346953 (not used)
A(ran) = 8.05725922 (used)
Ngal = 478911
weighted Ngal = 0
Nran = 23820508
weighted Nran = 0
SN(data) = 3478.5562
SN(ran) = 70.1816499
SN(data+ran) = 3548.73785
############################
13 columns: k_central k_mean P_0(k) sigma^{lin}_{P_0(k)} P^img_1(k) sigma^{lin}_{P_1(k)} P_2(k) sigma^{lin}_{P_2(k)} P^img_3(k) sigma^{lin}_{P_3(k)} P_4(k) sigma^{lin}_{P_4(k)} N_modes
### header ###
0.00050000 0 0 0 0 0 0 0 0 0 0 0 0
0.00150000 0.00179520 10159.61093920 0 -25686.35417703 0 -5307.77356529 0 -52764.27813727 0 -19852.89984633 0 3
0.00250000 0.00253879 18601.39497208 0 -28708.65595953 0 -38525.15769725 0 15364.95442759 0 -1271.74508402 0 6
0.00350000 0.00331552 39749.53537569 0 -30054.05414824 0 -15691.25583999 0 -48993.48719704 0 -72216.47054842 0 7
0.00450000 0.00420575 60220.16022365 0 -24959.12388294 0 -32038.10403250 0 -20324.13799061 0 -233.98922593 0 24
0.00550000 0.00557378 74248.90649213 0 -7605.02630169 0 -12735.27728316 0 -41167.12512222 0 3939.07920516 0 45
0.00650000 0.00659388 85420.32861790 0 5847.42760462 0 -33585.68287240 0 -49522.96576986 0 9471.99742331 0 40
0.00750000 0.00754703 66584.64325266 0 5351.07742765 0 -5250.11996996 0 -20431.31809486 0 -12182.43610496 0 57
0.00850000 0.00846663 65819.54560769 0 3626.88393457 0 -3263.02519638 0 -21046.38573853 0 -8176.09252653 0 75
0.00950000 0.00948925 70601.46125037 0 -1382.75621265 0 1995.19971535 0 -11127.24354975 0 -18027.40565348 0 112
0.01050000 0.01054430 52809.34249929 0 6414.80674531 0 -1946.84687286 0 -3808.23754277 0 -14714.56606774 0 105
0.01150000 0.01145670 60427.54486751 0 9104.37409468 0 -7011.42789583 0 -1250.32013550 0 -15497.04726267 0 144
0.01250000 0.01249090 48759.41825037 0 -477.54936943 0 6935.03992691 0 4671.23668379 0 -8203.26401164 0 169
0.01350000 0.01339930 53407.13731624 0 -4510.86513112 0 -7228.48975158 0 6890.51810882 0 -2709.04356873 0 180
0.01450000 0.01448870 59388.62862977 0 -2544.27630310 0 -3913.91181084 0 -857.98116341 0 -18701.82095818 0 267
0.01550000 0.01550050 54213.20256304 0 -8964.26489642 0 -3237.11595630 0 -5832.07029010 0 9919.23076738 0 238
0.01650000 0.01653350 73322.48507455 0 -5669.65035734 0 -7240.43679006 0 -5242.54649978 0 -4343.10833779 0 315
0.01750000 0.01747870 72672.42888445 0 -6889.66553980 0 -1630.63234837 0 -4265.95637845 0 14988.38466051 0 297
0.01850000 0.01844180 80174.81473507 0 -4603.82837029 0 -1166.56907057 0 5717.77068100 0 -3979.82536049 0 388
0.01950000 0.01947590 74617.17201559 0 -3133.33505578 0 930.30780359 0 -827.06280358 0 1976.66464360 0 399
0.02050000 0.02045430 83241.40581684 0 5900.63012538 0 3352.78853368 0 -836.19193540 0 865.38079808 0 462
0.02150000 0.02154770 69503.86169110 0 8041.82951578 0 19021.14680595 0 -10946.25532826 0 4229.21840470 0 571
0.02250000 0.02255340 69107.91535558 0 7551.20373074 0 19554.72213896 0 -10908.50977295 0 13868.08683535 0 510
0.02350000 0.02348930 64129.46594737 0 1023.10052896 0 34950.01473655 0 -11271.62666538 0 5723.38434968 0 555
0.02450000 0.02439640 67394.80525964 0 707.26135628 0 38573.54375670 0 -14155.96728064 0 7630.89125246 0 592
0.02550000 0.02547300 70461.28561816 0 491.98657376 0 46592.67500661 0 -8676.99342900 0 -6880.86304157 0 837
0.02650000 0.02652900 64512.01476986 0 3805.23694275 0 41300.65735954 0 5024.22239901 0 -9442.41217139 0 723
0.02750000 0.02749970 66375.92992983 0 4651.91547698 0 38649.72135146 0 5827.34240740 0 -20732.26388343 0 826
0.02850000 0.02848090 61011.83144819 0 2715.03369646 0 31582.36714296 0 11982.46991874 0 -19371.91805621 0 831
0.02950000 0.02946900 56596.85265000 0 2978.77647364 0 17442.45473331 0 4111.97355720 0 -28336.84729212 0 996
0.03050000 0.03053250 51519.08448817 0 3691.07020154 0 18448.92905932 0 5758.09608799 0 -23210.80379408 0 1041
0.03150000 0.03150510 52564.09050455 0 628.52384003 0 12420.49108856 0 527.58077635 0 -18417.26221034 0 1036
0.03250000 0.03246190 51465.16226630 0 -2267.49032729 0 19251.89405517 0 -9.42657875 0 -13158.57226098 0 1059
0.03350000 0.03345080 55046.39500564 0 -2592.21946957 0 16856.83947365 0 3607.97240378 0 -5075.52047989 0 1302
0.03450000 0.03451200 58272.20611831 0 668.16829904 0 24850.39365323 0 5314.39481553 0 1611.02326111 0 1339
0.03550000 0.03553350 58343.29044364 0 2312.62112325 0 25608.84790330 0 -399.67106558 0 11720.27726703 0 1365
0.03650000 0.03647120 56777.44226779 0 3583.95653125 0 34394.18403066 0 2079.58190279 0 15584.51862874 0 1308
0.03750000 0.03744890 54610.92047053 0 2608.15254498 0 33966.57084616 0 -1196.16539481 0 17457.95598806 0 1579
0.03850000 0.03847530 52264.80556470 0 1633.22327237 0 37161.37944933 0 3701.20137875 0 12406.09706630 0 1662
0.03950000 0.03950240 51804.30757550 0 -161.86631652 0 35155.73853168 0 -212.33175858 0 10569.65234420 0 1683
0.04050000 0.04050350 51153.14415291 0 1039.35359456 0 33908.66258736 0 890.92908037 0 4152.74185718 0 1822
0.04150000 0.04152450 49652.51197024 0 3572.31951786 0 33450.26833987 0 2442.10088968 0 7617.32765456 0 1887
0.04250000 0.04250150 46499.33530839 0 2910.78132692 0 27283.42630887 0 3243.12822868 0 2565.86733650 0 1920
0.04350000 0.04349210 44924.51854943 0 901.18758931 0 25228.18137604 0 5196.87315991 0 2518.01274863 0 2005
0.04450000 0.04448520 43843.08458439 0 1319.46680399 0 22890.48143708 0 6646.36227424 0 -1349.52816587 0 2151
0.04550000 0.04548030 43296.44390810 0 676.49358007 0 22216.95191836 0 5435.24924093 0 1246.11265206 0 2274
0.04650000 0.04648670 41003.69760790 0 -78.05701117 0 19399.82031475 0 2901.82381615 0 5002.06667705 0 2311
0.04750000 0.04749250 42015.81881957 0 331.04479636 0 17542.88071942 0 6644.03708603 0 5350.71204094 0 2568
0.04850000 0.04851840 40755.12391572 0 170.89690465 0 14342.42523059 0 1847.00771997 0 6009.74788647 0 2493
0.04950000 0.04949480 41823.71398397 0 730.36486924 0 13535.47419780 0 3840.67945449 0 5786.66268602 0 2644
0.05050000 0.05050630 40318.20997838 0 -306.76983143 0 9927.80074679 0 2584.87851821 0 8305.08511067 0 2829
0.05150000 0.05149060 40623.91686662 0 44.54949891 0 11902.52773355 0 960.79655721 0 5687.36607705 0 2784
0.05250000 0.05249300 41041.12206579 0 268.22706873 0 12390.70653480 0 -96.42666238 0 1675.05451554 0 3055
0.05350000 0.05348950 39338.41995518 0 2848.27805332 0 13133.77025338 0 -723.29851155 0 1970.58593727 0 3009
0.05450000 0.05448610 36211.92759613 0 2191.89956575 0 10700.79295936 0 -2412.00631082 0 2328.13345032 0 3336
0.05550000 0.05550870 36187.56848153 0 597.04632780 0 11813.72768850 0 319.43657102 0 1051.85314205 0 3349
0.05650000 0.05647670 35344.41094659 0 989.72632749 0 13204.96530197 0 785.89589991 0 -382.99835887 0 3324
0.05750000 0.05747970 35208.22135132 0 -327.78621116 0 11042.08629957 0 1067.03551384 0 -3053.13820712 0 3639
0.05850000 0.05849280 35106.46668624 0 404.64364666 0 9255.48918380 0 2749.21396317 0 -657.32738581 0 3846
0.05950000 0.05951020 34202.63281129 0 -106.64508951 0 8406.18650859 0 165.20130076 0 -2412.09488942 0 3787
0.06050000 0.06049470 34879.26258096 0 -313.73985990 0 5565.98018006 0 5373.23314962 0 -2374.11681529 0 3930
0.06150000 0.06148310 33729.62309504 0 -16.32592150 0 5009.57371327 0 852.14494100 0 -4476.46341790 0 4083
0.06250000 0.06249100 33373.20495913 0 1595.52200637 0 3985.25079965 0 8.78811528 0 -5861.61125272 0 4303
0.06350000 0.06350600 32004.55488830 0 1784.46015707 0 6591.48783244 0 -4279.32067451 0 -5426.54639362 0 4470
0.06450000 0.06451750 30288.45526466 0 2247.51585331 0 6803.06888740 0 -2840.84852337 0 -3880.78341499 0 4479
0.06550000 0.06550280 29812.67746720 0 696.59095685 0 9845.32299922 0 -1920.48366747 0 -2911.29065387 0 4636
0.06650000 0.06648880 29446.18351570 0 386.31562739 0 10247.77986173 0 24.02096580 0 -3454.64284969 0 4653
0.06750000 0.06749660 29430.01792147 0 174.42454733 0 10133.50239727 0 1072.75879854 0 -2794.04580636 0 5220
0.06850000 0.06852730 28959.88700967 0 302.76718600 0 10504.50278497 0 1095.09832110 0 -2522.43060624 0 5029
0.06950000 0.06949320 28607.34418744 0 132.56008719 0 9954.89472562 0 2313.47369226 0 -1619.02855196 0 5040
0.07050000 0.07048030 28869.42611590 0 393.90238435 0 10413.43291334 0 40.44044844 0 -1234.68601285 0 5475
0.07150000 0.07148790 28064.68954808 0 1224.68770354 0 12059.09040648 0 353.19941109 0 665.81321555 0 5509
0.07250000 0.07249820 28180.17389594 0 422.62842386 0 11285.79924115 0 -62.98248382 0 1669.65122103 0 5916
0.07350000 0.07351270 27878.12087488 0 117.78517696 0 12648.47025658 0 1060.81286729 0 4598.34756951 0 5721
0.07450000 0.07449140 27780.24152349 0 326.58375669 0 10886.46477424 0 778.53834007 0 2334.13465037 0 6028
0.07550000 0.07549160 27308.78193271 0 179.35173188 0 12321.72595118 0 1207.62525100 0 2784.75612584 0 6183
0.07650000 0.07648840 26934.53735384 0 430.75883198 0 10342.70290240 0 1079.42544532 0 1545.86262956 0 6330
0.07750000 0.07749960 25991.95034203 0 1217.54605403 0 10385.92925849 0 928.89386771 0 981.12423834 0 6583
0.07850000 0.07848650 25208.14046812 0 672.43003686 0 9723.48313691 0 728.33752657 0 1152.10861435 0 6549
0.07950000 0.07947320 24927.67848046 0 -148.37025980 0 9210.14801367 0 385.86387653 0 673.39443636 0 6828
0.08050000 0.08048110 24954.25206002 0 225.77909707 0 8848.78054857 0 -227.99466927 0 363.14457324 0 7147
0.08150000 0.08149960 24869.10588217 0 166.75364070 0 9498.34955638 0 -781.31749360 0 -1284.77721033 0 7386
0.08250000 0.08250610 24833.12082651 0 394.79481373 0 9568.94669942 0 -828.78897902 0 -1015.84040558 0 7227
0.08350000 0.08350160 24529.73912648 0 759.75746271 0 9719.37530441 0 -414.76928771 0 -895.41447915 0 7798
0.08450000 0.08449610 23516.51068232 0 603.59450070 0 9598.90841038 0 1254.35046173 0 -1669.59585940 0 7371
0.08550000 0.08548940 23581.28378251 0 166.44361560 0 8633.36846922 0 1085.12104920 0 -273.00034796 0 8256
0.08650000 0.08650700 23163.52496710 0 101.98552306 0 8154.43505919 0 1585.84479448 0 -1890.69911371 0 8037
0.08750000 0.08749060 23150.57034707 0 532.19129241 0 7960.47007302 0 649.49260877 0 -1404.92300694 0 8155
0.08850000 0.08849210 22104.45709820 0 874.01499698 0 7421.45822852 0 629.40187539 0 -572.55545253 0 8718
0.08950000 0.08949900 21319.42926856 0 1038.19764385 0 7302.71861716 0 -284.21329130 0 20.08386854 0 8571
0.09050000 0.09049190 21313.00732016 0 835.42683775 0 8067.46194774 0 697.03938601 0 1860.82598135 0 8932
0.09150000 0.09150830 19990.30739733 0 500.34285730 0 7544.30567238 0 1004.16242459 0 2888.48166474 0 9285
0.09250000 0.09250820 19750.70228825 0 297.78796153 0 7606.16675114 0 1043.60758176 0 2081.97352495 0 9204
0.09350000 0.09350330 19929.18816433 0 -96.04422428 0 6459.33963573 0 994.59261425 0 1494.94100771 0 9349
0.09450000 0.09448040 19717.15314405 0 -52.30931631 0 7016.08934458 0 956.05206602 0 2519.61823573 0 9564
0.09550000 0.09549270 19674.63541675 0 -121.65606171 0 6021.92744377 0 323.52890227 0 876.30364652 0 10155
0.09650000 0.09649430 19736.52971249 0 -99.86340128 0 5997.97800518 0 442.73133680 0 414.38729250 0 9913
0.09750000 0.09749140 19432.81584271 0 519.74046315 0 6188.34448579 0 -523.37550739 0 -312.26945516 0 10476
0.09850000 0.09850240 19133.53090286 0 821.10146390 0 6237.71598216 0 -41.66382961 0 -27.13273197 0 10575
0.09950000 0.09950330 18355.70008435 0 653.50743375 0 6747.90656515 0 -945.06389087 0 614.82294530 0 10882
0.10050000 0.10051200 17650.83588640 0 859.54457567 0 5961.53898421 0 547.21200826 0 587.31486152 0 10875
0.10150000 0.10150300 17325.97387622 0 296.62536743 0 6572.76453117 0 557.02319528 0 1411.23423209 0 11118
0.10250000 0.10250800 17037.09692170 0 192.07272586 0 6258.35479562 0 891.57459691 0 548.01143011 0 11575
0.10350000 0.10349800 16854.62500869 0 644.43809249 0 6978.95276714 0 -126.15585452 0 1560.26772414 0 11364
0.10450000 0.10450100 16562.86924972 0 385.78083410 0 5837.24106579 0 -266.58504296 0 715.44269709 0 12093
0.10550000 0.10551000 15884.68935457 0 84.34841685 0 6379.17600404 0 350.50219276 0 1784.50444637 0 12067
0.10650000 0.10649700 16237.89651629 0 -18.01544754 0 6007.12374548 0 167.24193022 0 455.54644555 0 12054
0.10750000 0.10749900 16243.10050895 0 25.94910044 0 6286.38992206 0 680.70549243 0 378.82962858 0 12807
0.10850000 0.10850100 16195.82168198 0 313.13752543 0 5982.59854601 0 301.59351957 0 467.23549886 0 12736
0.10950000 0.10950300 15792.67833533 0 192.94411782 0 5472.83978369 0 -28.24251108 0 400.25900603 0 12933
0.11050000 0.11050200 15818.14468241 0 -0.07975606 0 5523.34065718 0 441.77690240 0 699.53619525 0 13428
0.11150000 0.11150900 15526.61036994 0 262.87027798 0 5543.71373485 0 896.59700344 0 -215.22274259 0 13453
0.11250000 0.11250000 15186.46855151 0 360.21040716 0 4305.89425407 0 797.56170134 0 806.90120732 0 13668
0.11350000 0.11349100 15028.79864609 0 -70.94525694 0 4101.56557187 0 1190.24170103 0 -35.49576963 0 13791
0.11450000 0.11448600 14886.85144192 0 -40.38032572 0 3570.08290825 0 707.02883746 0 465.94557302 0 14205
0.11550000 0.11549300 15033.89191551 0 2.49556915 0 3364.62484892 0 587.50862720 0 -393.03542132 0 14776
0.11650000 0.11649800 14725.52766931 0 116.47199923 0 2872.14998563 0 -3.80830398 0 568.57273730 0 14553
0.11750000 0.11747300 14798.93718286 0 89.78991088 0 2788.87503067 0 -182.86165884 0 -207.13551654 0 14568
0.11850000 0.11849100 14632.29869434 0 184.88900152 0 3561.97796648 0 -193.55309569 0 275.76067854 0 16015
0.11950000 0.11950300 14354.49406464 0 395.75035537 0 3431.86707754 0 -368.98854628 0 69.20501964 0 15270
0.12050000 0.12050700 14116.32835779 0 658.31171549 0 3964.19123785 0 -548.69237809 0 -43.77676136 0 15999
0.12150000 0.12150000 13862.43994970 0 347.25357266 0 4500.43500114 0 -609.08858827 0 300.53057639 0 15670
0.12250000 0.12250700 13604.23333493 0 292.11560953 0 4703.46822134 0 -296.26994580 0 344.67150651 0 16887
0.12350000 0.12352200 13456.41779860 0 190.02213131 0 5381.72562275 0 -520.90195002 0 603.08517376 0 16407
0.12450000 0.12449800 13433.49808622 0 413.01986039 0 5646.06630547 0 308.74513417 0 637.20011376 0 16306
0.12550000 0.12549900 13037.66247396 0 183.11853678 0 5768.58157959 0 -111.44184207 0 673.71774824 0 17523
0.12650000 0.12650100 13013.41408260 0 338.34256565 0 5562.55883169 0 75.12373088 0 524.20925345 0 17154
0.12750000 0.12750600 12793.18554196 0 90.54360403 0 5559.72431654 0 79.78540107 0 913.58194972 0 18007
0.12850000 0.12850300 12710.69672206 0 12.25617779 0 5547.93229061 0 121.03158259 0 571.01529215 0 17496
0.12950000 0.12949900 12837.03194824 0 -167.75679333 0 5299.73505747 0 475.49213148 0 648.68100736 0 18405
0.13050000 0.13049000 12887.63247266 0 -56.11675665 0 5361.77329343 0 409.82106575 0 259.47661043 0 18100
0.13150000 0.13148800 12801.26833908 0 194.72122596 0 4698.93964049 0 288.81494950 0 101.50487344 0 19059
0.13250000 0.13249300 12578.82533347 0 324.99155638 0 4680.60387059 0 564.66088494 0 496.65355867 0 18957
0.13350000 0.13349100 12409.64021024 0 328.52584246 0 4495.33065940 0 72.21558476 0 324.63059859 0 19468
0.13450000 0.13450700 12182.98972120 0 77.98481961 0 4168.66386027 0 685.69578923 0 841.83660659 0 19953
0.13550000 0.13551000 12059.09040648 0 -79.96012236 0 3791.59583857 0 694.46174879 0 716.43256293 0 19956
0.13650000 0.13649900 12058.86895999 0 34.31025581 0 3809.83195755 0 522.49415033 0 576.41083604 0 19723
0.13750000 0.13749600 11959.32875987 0 179.17457468 0 3659.81302858 0 100.67954234 0 861.39697561 0 20946
0.13850000 0.13851100 11953.57115096 0 339.41879562 0 3521.07679860 0 316.26213549 0 1287.25741109 0 20955
0.13950000 0.13949800 11453.43423890 0 207.69688341 0 3277.18669982 0 273.72669247 0 1449.35624644 0 20506
0.14050000 0.14048300 11607.67172363 0 74.03620713 0 3403.86516807 0 164.22361448 0 1323.24246675 0 21447
0.14150000 0.14148400 11435.71851919 0 35.10978838 0 3484.08416138 0 29.13781927 0 1620.61189441 0 21771
0.14250000 0.14249400 11465.72451945 0 31.74081211 0 3736.87640932 0 -310.63407279 0 1005.89967236 0 22470
0.14350000 0.14350900 11265.86905648 0 319.32141884 0 3719.39320843 0 -130.27586658 0 995.12297861 0 22519
0.14450000 0.14449900 11081.07195525 0 296.35741717 0 3818.88911925 0 -324.47004988 0 611.85113332 0 22218
0.14550000 0.14550500 10841.83223290 0 130.38769706 0 3498.72177479 0 119.24008044 0 231.36619218 0 23559
0.14650000 0.14650700 10788.30861472 0 -9.63843661 0 3582.56141832 0 173.80671161 0 -94.56075420 0 23044
0.14750000 0.14750500 10712.49640669 0 90.43420947 0 3170.47163322 0 229.09082943 0 -218.99176196 0 23649
0.14850000 0.14849900 10617.57336602 0 129.82411573 0 3304.34711260 0 125.60002381 0 -260.30039139 0 23640
0.14950000 0.14949500 10507.76912079 0 230.18145342 0 2873.53402623 0 133.04173332 0 -335.83025514 0 24457
0.15050000 0.15050000 10305.07914266 0 333.05995947 0 2886.69902044 0 175.27933081 0 -144.60124043 0 24591
0.15150000 0.15149900 9918.35605372 0 412.58471802 0 2912.04357195 0 -155.09226820 0 99.34466286 0 25020
0.15250000 0.15250500 9604.57744069 0 391.27602891 0 3012.79065548 0 -277.02513803 0 -32.95367457 0 25297
0.15350000 0.15350100 9390.77084844 0 153.35944937 0 3266.53512335 0 43.57889891 0 10.39713445 0 25452
0.15450000 0.15450400 9246.60917930 0 -18.04445703 0 2945.09446154 0 140.17673944 0 -42.80693643 0 26061
0.15550000 0.15549900 9306.85369864 0 -111.28461505 0 3014.68402302 0 526.77803280 0 -121.13123352 0 26128
0.15650000 0.15649500 9468.03353102 0 -35.50839208 0 2809.87923085 0 509.35462247 0 -190.98542356 0 26331
0.15750000 0.15749700 9427.91849821 0 190.29451050 0 2653.95875276 0 100.06347819 0 -222.98222783 0 27345
0.15850000 0.15849900 9087.94276465 0 149.44981147 0 2660.66858160 0 38.68758870 0 126.09052780 0 26980
0.15950000 0.15949700 9230.78682713 0 191.49917944 0 2659.30668564 0 -168.95592611 0 184.55793901 0 27777
0.16050000 0.16050000 9117.31764239 0 5.29983471 0 2885.70251121 0 103.62190194 0 133.55438196 0 28224
0.16150000 0.16150500 9154.42100286 0 153.59086095 0 2813.75454454 0 -186.74361593 0 -62.10666293 0 28075
0.16250000 0.16249700 9055.60050385 0 157.48721206 0 2972.73098428 0 -34.08825570 0 -128.61391063 0 28590
0.16350000 0.16349900 8848.72518694 0 143.53054662 0 2778.28988814 0 17.09489446 0 61.88233763 0 29163
0.16450000 0.16449100 8822.51699410 0 120.97954267 0 2970.53866397 0 132.19359324 0 210.64101458 0 28996
0.16550000 0.16550500 8624.54382634 0 61.22630238 0 2717.59140349 0 246.15328197 0 353.97558106 0 30777
0.16650000 0.16650700 8663.19731228 0 8.38180525 0 3082.18091512 0 560.24524180 0 569.14849819 0 29211
0.16750000 0.16749900 8608.74361882 0 75.86834472 0 2701.30401368 0 107.00361139 0 609.47169071 0 30922
0.16850000 0.16850800 8643.16747668 0 150.44078454 0 2880.24385507 0 236.14611480 0 830.46311454 0 30867
0.16950000 0.16949900 8481.23472621 0 22.19458582 0 2604.87513683 0 159.98180684 0 1300.48883925 0 30852
0.17050000 0.17049200 8503.08042308 0 36.43071673 0 2443.92782327 0 224.70618880 0 1045.77332849 0 31257
0.17150000 0.17149500 8415.74192491 0 -42.64450542 0 2226.67773800 0 418.65345925 0 864.09640840 0 32608
0.17250000 0.17250900 8430.10273020 0 15.99629839 0 2119.05474077 0 179.65400634 0 453.43938214 0 32361
0.17350000 0.17350400 8274.56978347 0 219.81111400 0 1654.63714857 0 118.01548131 0 528.59057238 0 32508
0.17450000 0.17449800 8165.23057589 0 230.33203704 0 1904.56166438 0 -119.51135240 0 157.21594010 0 32791
0.17550000 0.17549800 8016.44067497 0 95.87326759 0 1976.05566573 0 -377.92280517 0 488.71802347 0 33633
0.17650000 0.17650100 7934.72691781 0 109.57825908 0 2326.35080602 0 -251.70494564 0 426.07080965 0 33984
0.17750000 0.17750300 7989.11417732 0 11.82048181 0 2350.24488298 0 -31.82141864 0 834.02397420 0 34069
0.17850000 0.17849800 8130.39704201 0 31.51327584 0 2621.07394804 0 -36.38299501 0 721.67641596 0 34536
