### header ###
fiducial parameters:
Omega_m = 0.31
Omega_nu = 0
Omega_de = 0.69
Omega_k = 0
H_0 = 100
w_de = -1
zeff = 0
beta = 0
fgrowth = 0
b_1 = 2
gamma = 0.55
Lx = 3500 Ly = 3500 Lz = 3500
nx = 700 ny = 700 nz = 700
xoffset = -685.467585 yoffset = -31.7331281 zoffset = 572.489161
bins = 400 dk = 0.001
kx_ny = 0.628318531 ky_ny = 0.628318531 kz_ny = 0.628318531
############################
A(data) = 8.04536641 (not used)
A(ran) = 8.04284053 (used)
Ngal = 478574
weighted Ngal = 0
Nran = 23820508
weighted Nran = 0
SN(data) = 3488.40518
SN(ran) = 70.0560579
SN(data+ran) = 3558.46124
############################
13 columns: k_central k_mean P_0(k) sigma^{lin}_{P_0(k)} P^img_1(k) sigma^{lin}_{P_1(k)} P_2(k) sigma^{lin}_{P_2(k)} P^img_3(k) sigma^{lin}_{P_3(k)} P_4(k) sigma^{lin}_{P_4(k)} N_modes
### header ###
0.00050000 0 0 0 0 0 0 0 0 0 0 0 0
0.00150000 0.00179520 24958.34882021 0 -8485.53078824 0 29644.93174620 0 5982.12243604 0 -52894.93157013 0 3
0.00250000 0.00253879 40026.01132641 0 335.30431972 0 16892.93525256 0 9059.07721385 0 29669.62303054 0 6
0.00350000 0.00331552 31125.63374419 0 9162.75846345 0 15091.02511157 0 -15337.38433879 0 28491.08477684 0 7
0.00450000 0.00420575 28079.85863308 0 -2495.40306135 0 -7750.88203652 0 24344.60985551 0 8993.93872694 0 24
0.00550000 0.00557378 48789.64569712 0 -27927.28199708 0 7289.17716391 0 9110.76282610 0 -25922.52686541 0 45
0.00650000 0.00659388 66896.88281255 0 -7248.99569714 0 -22473.38696116 0 -2307.23997338 0 -39229.80044870 0 40
0.00750000 0.00754703 66040.88138082 0 11636.01687516 0 6358.03893596 0 -38179.36899316 0 12801.93267857 0 57
0.00850000 0.00846663 59485.29002544 0 7813.96107102 0 -12160.84507157 0 -24001.69995588 0 -2470.95536815 0 75
0.00950000 0.00948925 55421.85754025 0 6060.93524410 0 13184.92439404 0 -11332.74589838 0 1804.60071592 0 112
0.01050000 0.01054430 57405.79670125 0 -5811.89651428 0 17779.27485429 0 -13482.10559218 0 -25745.14822182 0 105
0.01150000 0.01145670 59187.22304132 0 3463.50070955 0 17093.34433178 0 5761.28491754 0 -13810.51074630 0 144
0.01250000 0.01249090 59022.79901777 0 5485.06363029 0 21407.01135787 0 -3616.01091160 0 -13887.79557353 0 169
0.01350000 0.01339930 58475.82617172 0 -9527.56942157 0 24416.57996683 0 3288.32545859 0 -19567.23386601 0 180
0.01450000 0.01448870 69490.90707106 0 -7216.89702749 0 10568.97693239 0 2011.35423726 0 -20989.69543546 0 267
0.01550000 0.01550050 75829.59158324 0 -6498.33636374 0 18605.27028576 0 11263.65459151 0 -7223.33004821 0 238
0.01650000 0.01653350 82359.71659153 0 -5742.70555649 0 9702.33499651 0 -9604.34492187 0 -30546.55115618 0 315
0.01750000 0.01747870 86738.37816431 0 -5876.28208310 0 15461.50510001 0 -6259.19629231 0 -26486.21892193 0 297
0.01850000 0.01844180 83070.44912164 0 12305.11746395 0 26620.85839173 0 -17808.39506857 0 -43721.62118113 0 388
0.01950000 0.01947590 77450.69065993 0 9136.42847503 0 32558.94619197 0 -11047.05777341 0 -17252.12146968 0 399
0.02050000 0.02045430 74022.36672634 0 1706.49991802 0 40205.05081873 0 3346.45516389 0 -26152.72049839 0 462
0.02150000 0.02154770 74292.42072866 0 -1062.37406509 0 40928.51652238 0 7265.07271278 0 -30236.52606126 0 571
0.02250000 0.02255340 75875.32028474 0 2784.34644982 0 48333.68736109 0 3896.72756273 0 -26382.91413137 0 510
0.02350000 0.02348930 71286.83815664 0 8149.62967022 0 38330.72767343 0 10728.11945701 0 -13848.37809718 0 555
0.02450000 0.02439640 64686.95750199 0 7113.14934394 0 31862.71840737 0 2844.91206658 0 -4152.03322839 0 592
0.02550000 0.02547300 59830.19294354 0 3669.54560210 0 31756.31336586 0 6794.66499286 0 -4587.71813768 0 837
0.02650000 0.02652900 59507.54539833 0 -1476.05162157 0 31440.41993879 0 8839.70124221 0 -4990.07534927 0 723
0.02750000 0.02749970 56004.70471870 0 753.42741461 0 23771.83849264 0 6605.04035802 0 -17863.09235317 0 826
0.02850000 0.02848090 60551.22273573 0 -2624.16312667 0 25795.19513000 0 -2083.83367552 0 -7920.60970367 0 831
0.02950000 0.02946900 60731.14801403 0 -1325.55658264 0 24697.70629398 0 2432.93300473 0 -11329.75637068 0 996
0.03050000 0.03053250 64561.39733855 0 -1058.53086115 0 28387.00492355 0 269.79823162 0 -2983.83652608 0 1041
0.03150000 0.03150510 62517.88907002 0 -122.76883036 0 26962.88250537 0 6791.14399357 0 -3405.53708912 0 1036
0.03250000 0.03246190 62377.04909833 0 4058.80425342 0 19562.36204309 0 4012.10118734 0 -7054.89784307 0 1059
0.03350000 0.03345080 61644.06119533 0 3970.94535598 0 27846.01113291 0 -614.58931924 0 1306.56754557 0 1302
0.03450000 0.03451200 53643.42072787 0 6372.05649918 0 21664.66435640 0 3809.45549850 0 2976.18554963 0 1339
0.03550000 0.03553350 51237.51526803 0 2396.66006862 0 23720.57362873 0 6122.84061216 0 1077.95725504 0 1365
0.03650000 0.03647120 48932.36796404 0 -136.10101667 0 15766.43692551 0 578.45589443 0 -6731.18735467 0 1308
0.03750000 0.03744890 48200.81946327 0 1781.63671424 0 16252.40126180 0 1865.02239245 0 -15506.12656903 0 1579
0.03850000 0.03847530 46423.15771363 0 1437.92960722 0 11797.11920127 0 -2816.27903460 0 -16137.02763719 0 1662
0.03950000 0.03950240 45602.69844457 0 -1055.27781212 0 10297.20671972 0 -653.73995257 0 -13699.56605161 0 1683
0.04050000 0.04050350 46580.60617256 0 -1033.19406027 0 9064.36978511 0 230.61327409 0 -13764.33915180 0 1822
0.04150000 0.04152450 47363.86243023 0 -635.79392850 0 11195.89196362 0 5092.05146085 0 -12409.86165674 0 1887
0.04250000 0.04250150 49872.40834114 0 -1170.97585585 0 9003.66022813 0 5246.01213745 0 -8008.21393763 0 1920
0.04350000 0.04349210 48241.45489535 0 1629.76870703 0 10338.86080568 0 18.95880962 0 -6448.37803416 0 2005
0.04450000 0.04448520 44779.02820131 0 4902.36039205 0 11840.96560756 0 2453.82648166 0 -790.90059073 0 2151
0.04550000 0.04548030 42883.77836211 0 3848.08683980 0 11988.55969739 0 -1269.30917256 0 2712.02202410 0 2274
0.04650000 0.04648670 39546.57966177 0 1210.41547685 0 11674.21639579 0 105.38085146 0 1813.58037135 0 2311
0.04750000 0.04749250 37904.11099817 0 1043.44703305 0 13021.82904947 0 524.35540813 0 456.26946836 0 2568
0.04850000 0.04851840 37464.42897962 0 1856.44134072 0 13550.86472930 0 2998.78416458 0 -742.28754861 0 2493
0.04950000 0.04949480 35108.23825821 0 1216.98136547 0 8040.55619843 0 1652.41161129 0 274.36335115 0 2644
0.05050000 0.05050630 35389.58603185 0 -81.81861208 0 7408.80256125 0 2561.29446635 0 -460.51459769 0 2829
0.05150000 0.05149060 34199.97545334 0 -1312.25872053 0 5751.99523701 0 3082.76774833 0 -675.69083652 0 2784
0.05250000 0.05249300 35180.20836953 0 -549.24267263 0 5008.95366308 0 1682.16294807 0 -2120.46092602 0 3055
0.05350000 0.05348950 36221.44979548 0 106.21160799 0 6600.88823621 0 -3798.67105413 0 818.08757709 0 3009
0.05450000 0.05448610 35124.51457570 0 1559.68089093 0 10169.94141825 0 -2454.20294070 0 1101.23681798 0 3336
0.05550000 0.05550870 34720.70688956 0 1403.60540029 0 11191.13086395 0 -1481.39955446 0 4997.88133826 0 3349
0.05650000 0.05647670 33670.27543401 0 63.87635260 0 12543.06172431 0 916.48179159 0 5479.42781695 0 3324
0.05750000 0.05747970 34579.64547137 0 190.61339345 0 12802.37557156 0 2701.03827788 0 6551.57210147 0 3639
0.05850000 0.05849280 34754.47748026 0 -515.78432149 0 12531.54650650 0 1898.44974108 0 6587.52394015 0 3846
0.05950000 0.05951020 34717.82808511 0 479.45380930 0 12285.96234202 0 690.35391628 0 4903.12438247 0 3787
0.06050000 0.06049470 34712.95626219 0 83.34138891 0 10977.03639126 0 -1137.85853231 0 2841.66787541 0 3930
0.06150000 0.06148310 34437.36609745 0 -232.45903064 0 11665.91215217 0 -1274.13670618 0 3980.65578485 0 4083
0.06250000 0.06249100 35004.15840492 0 1400.81517443 0 12769.93365984 0 -874.98161093 0 3732.38104544 0 4303
0.06350000 0.06350600 33305.99594748 0 1197.48300146 0 13172.74483674 0 -696.13588430 0 935.62362673 0 4470
0.06450000 0.06451750 33316.18248631 0 792.09750904 0 13094.13133053 0 -126.88219903 0 729.19895344 0 4479
0.06550000 0.06550280 32145.61630649 0 238.87765733 0 12963.14572793 0 1018.85872132 0 3555.57816274 0 4636
0.06650000 0.06648880 32933.96583357 0 509.60928594 0 13611.43034606 0 3339.56817785 0 -981.14749022 0 4653
0.06750000 0.06749660 31483.71272883 0 452.48162604 0 12147.33683529 0 1264.70308544 0 721.38521382 0 5220
0.06850000 0.06852730 31189.18888865 0 800.16037597 0 10913.58089772 0 1879.42748704 0 -1080.17061278 0 5029
0.06950000 0.06949320 29739.48940015 0 1099.82841826 0 11505.14199581 0 4.04458739 0 1850.38477904 0 5040
0.07050000 0.07048030 29943.44162331 0 -180.21869491 0 11298.86458444 0 310.16792791 0 1125.53503479 0 5475
0.07150000 0.07148790 30638.11928243 0 -396.17110371 0 10786.86921250 0 -4.01459246 0 150.92021621 0 5509
0.07250000 0.07249820 30394.52813642 0 916.19944730 0 12131.17124105 0 -2180.29576934 0 -998.03500004 0 5916
0.07350000 0.07351270 29767.17021219 0 899.19124915 0 12961.26343271 0 -530.34110693 0 1965.43730623 0 5721
0.07450000 0.07449140 29188.97341016 0 747.04975551 0 13147.72138265 0 131.32663021 0 2037.52921313 0 6028
0.07550000 0.07549160 28448.45632629 0 835.32275790 0 13068.55426020 0 2044.87016448 0 1993.45028802 0 6183
0.07650000 0.07648840 28064.24665509 0 927.77556290 0 13368.28209304 0 1891.60704434 0 1572.69087259 0 6330
0.07750000 0.07749960 27528.01396412 0 480.34845314 0 12210.78125650 0 1180.23231939 0 1116.74360888 0 6583
0.07850000 0.07848650 26368.96300210 0 967.81198221 0 12187.75082088 0 1219.93767619 0 764.66582430 0 6549
0.07950000 0.07947320 25554.37206519 0 673.28592757 0 10835.86424982 0 870.99335953 0 1664.29221582 0 6828
0.08050000 0.08048110 25123.76935300 0 468.20764898 0 10464.08879938 0 1969.35690922 0 2019.72491482 0 7147
0.08150000 0.08149960 24334.42331668 0 -66.53470707 0 9591.22421696 0 1763.06842552 0 1783.87332386 0 7386
0.08250000 0.08250610 24680.76563700 0 181.43775787 0 8431.25425198 0 1338.78801080 0 2384.67981317 0 7227
0.08350000 0.08350160 23975.79071580 0 664.60190322 0 7799.20166203 0 1322.63348889 0 1987.80340237 0 7798
0.08450000 0.08449610 23563.01444656 0 284.97396002 0 7181.26628623 0 522.17969631 0 1265.93211349 0 7371
0.08550000 0.08548940 23368.47369950 0 217.25672866 0 7043.17225109 0 -630.99961186 0 1544.37893803 0 8256
0.08650000 0.08650700 22474.71564014 0 616.83146502 0 6875.05007104 0 510.24373015 0 167.47112735 0 8037
0.08750000 0.08749060 22964.33384362 0 452.07305725 0 6774.50228937 0 -211.12376794 0 403.46333683 0 8155
0.08850000 0.08849210 21858.09787099 0 187.19204508 0 5705.86793182 0 822.68812805 0 22.97773136 0 8718
0.08950000 0.08949900 21758.00405463 0 314.16392994 0 5320.60638975 0 1159.63779523 0 188.35574642 0 8571
0.09050000 0.09049190 21366.15447929 0 625.18442686 0 4580.03394426 0 558.39062739 0 -344.70804518 0 8932
0.09150000 0.09150830 20640.03141769 0 660.07442960 0 4297.77823998 0 -296.26440964 0 -707.09970034 0 9285
0.09250000 0.09250820 20046.77625390 0 740.81825111 0 4641.82858907 0 -739.48957213 0 -692.41669039 0 9204
0.09350000 0.09350330 19616.17354171 0 605.49451164 0 5105.57076945 0 -1139.39758546 0 -1602.55293263 0 9349
0.09450000 0.09448040 19426.39389431 0 124.09086594 0 6066.11709212 0 -1668.63256714 0 -1163.29166242 0 9564
0.09550000 0.09549270 19225.76336860 0 324.60956117 0 6463.97893983 0 -593.62830113 0 -2043.54148550 0 10155
0.09650000 0.09649430 19182.80274830 0 -12.96082054 0 6329.69378443 0 -34.18646722 0 -1115.19348341 0 9913
0.09750000 0.09749140 19361.84224062 0 -213.56853726 0 6232.88844854 0 1197.68230331 0 -2290.96365590 0 10476
0.09850000 0.09850240 19219.89503645 0 450.31255761 0 6022.74679580 0 1587.99282549 0 -1570.89715597 0 10575
0.09950000 0.09950330 18569.72812310 0 807.89550209 0 5245.34779796 0 433.98752189 0 -2460.15985146 0 10882
0.10050000 0.10051200 17856.55968153 0 861.75571894 0 5538.48759754 0 131.88135368 0 -1272.99625672 0 10875
0.10150000 0.10150300 17075.62861207 0 775.97066794 0 5282.50652005 0 -17.89265546 0 49.55972589 0 11118
0.10250000 0.10250800 16702.93415867 0 152.33304485 0 5296.39121538 0 1012.86637913 0 -293.47086209 0 11575
0.10350000 0.10349800 16640.37552345 0 10.96066042 0 4893.21465175 0 1174.97296511 0 574.13215159 0 11364
0.10450000 0.10450100 16619.67027604 0 -261.93909547 0 4640.88744146 0 798.09206570 0 -520.31622404 0 12093
0.10550000 0.10551000 16845.65642558 0 269.47381251 0 4550.54834327 0 230.63431151 0 726.86158567 0 12067
0.10650000 0.10649700 16471.41184671 0 470.56273247 0 4822.87217218 0 -173.99826283 0 750.65933340 0 12054
0.10750000 0.10749900 15811.61201077 0 689.57331738 0 4789.42267890 0 -366.62239047 0 1758.97166534 0 12807
0.10850000 0.10850100 15674.31518302 0 487.43474103 0 5220.02539110 0 531.18703255 0 1752.54971694 0 12736
0.10950000 0.10950300 15267.73941568 0 105.40498913 0 4870.43887960 0 429.53312562 0 1533.71628923 0 12933
0.11050000 0.11050200 15149.92987961 0 -1.53109215 0 4813.69321491 0 356.30076927 0 880.89201792 0 13428
0.11150000 0.11150900 15189.79024896 0 -59.05369080 0 4302.29574851 0 -59.22464750 0 -158.86128757 0 13453
0.11250000 0.11250000 15044.18917759 0 132.56894505 0 4236.18289702 0 -432.94118720 0 232.72255197 0 13668
0.11350000 0.11349100 15201.41619002 0 183.48835243 0 3680.48505902 0 -24.02473039 0 -502.54624994 0 13791
0.11450000 0.11448600 15013.85100759 0 123.21283058 0 4380.46636173 0 -595.39101524 0 -67.60861185 0 14205
0.11550000 0.11549300 14903.23848265 0 282.79492650 0 4190.95245013 0 -71.91873573 0 -1082.63309782 0 14776
0.11650000 0.11649800 14579.59442820 0 289.78267069 0 4259.06939242 0 129.94258961 0 -544.42621133 0 14553
0.11750000 0.11747300 14292.93193865 0 286.94151214 0 4420.03885063 0 634.62469100 0 497.30018244 0 14568
0.11850000 0.11849100 14354.38334139 0 -9.95159517 0 4275.66680732 0 716.03506646 0 -134.86866692 0 16015
0.11950000 0.11950300 14213.43264645 0 32.99796387 0 4527.36289510 0 755.10819352 0 682.05963776 0 15270
0.12050000 0.12050700 14283.07756956 0 160.44795171 0 4348.77736810 0 2.16481666 0 501.98488307 0 15999
0.12150000 0.12150000 13872.95865827 0 207.45772120 0 4269.99777701 0 -297.54326315 0 1350.94542345 0 15670
0.12250000 0.12250700 14301.23618226 0 4.25609094 0 4651.28435447 0 -525.92878549 0 1144.11439584 0 16887
0.12350000 0.12352200 13925.66292441 0 149.25715302 0 4714.02014689 0 131.03210637 0 935.24052429 0 16407
0.12450000 0.12449800 14015.12730895 0 186.21768050 0 4368.44181697 0 239.51431601 0 1068.68529024 0 16306
0.12550000 0.12549900 13640.21839059 0 237.84239496 0 4245.04075687 0 639.02926182 0 1068.63325031 0 17523
0.12650000 0.12650100 13494.50659597 0 219.95062529 0 3828.06807653 0 1029.49036762 0 722.71057110 0 17154
0.12750000 0.12750600 13265.75236522 0 81.30552055 0 3569.11961599 0 575.33349883 0 602.58913361 0 18007
0.12850000 0.12850300 12964.03151391 0 237.31535230 0 3351.08339566 0 38.53257615 0 632.57077475 0 17496
0.12950000 0.12949900 13025.70436315 0 216.72414984 0 3356.57526877 0 -205.55438856 0 26.65219307 0 18405
0.13050000 0.13049000 12746.34960798 0 100.89334894 0 3824.27026911 0 -745.29036310 0 144.60234767 0 18100
0.13150000 0.13148800 12777.13067097 0 325.16096295 0 3962.45288285 0 -655.31222269 0 -38.68327050 0 19059
0.13250000 0.13249300 12707.37502462 0 52.39833780 0 4300.42452561 0 -532.09274872 0 -263.03414839 0 18957
0.13350000 0.13349100 12628.98296490 0 158.39071376 0 4242.04015684 0 -81.69426987 0 -0.57597791 0 19468
0.13450000 0.13450700 12556.68068383 0 61.45250998 0 4678.36726097 0 242.06537965 0 2.66857422 0 19953
0.13550000 0.13551000 12483.71406328 0 -26.25536095 0 4460.64106574 0 799.47167737 0 453.79148206 0 19956
0.13650000 0.13649900 12450.27564233 0 173.02721994 0 4572.33867851 0 777.01810987 0 111.69096938 0 19723
0.13750000 0.13749600 12313.75387731 0 271.04940433 0 3820.84892074 0 527.21206794 0 318.86081013 0 20946
0.13850000 0.13851100 11861.56013172 0 366.50613105 0 3694.45833294 0 61.74869466 0 370.15114038 0 20955
0.13950000 0.13949800 11674.43784228 0 386.61236569 0 3511.69853948 0 62.39753290 0 737.57627440 0 20506
0.14050000 0.14048300 11369.50601678 0 220.83862574 0 3386.73628158 0 217.09285825 0 78.11126556 0 21447
0.14150000 0.14148400 11173.19369774 0 131.52150313 0 3010.48761192 0 193.06037724 0 57.99052617 0 21771
0.14250000 0.14249400 11066.39005254 0 51.82235546 0 2898.40246778 0 285.81988564 0 -223.93776946 0 22470
0.14350000 0.14350900 11065.91394258 0 64.93176660 0 2737.72089001 0 257.57217056 0 -316.56440996 0 22519
0.14450000 0.14449900 10892.93101193 0 -0.41602600 0 2372.24559239 0 289.10615164 0 -520.88755600 0 22218
0.14550000 0.14550500 11036.51692018 0 80.11557780 0 2618.20621592 0 72.00366047 0 -389.77129996 0 23559
0.14650000 0.14650700 10832.63113097 0 287.71657488 0 2572.41108047 0 -94.70292285 0 -416.81545333 0 23044
0.14750000 0.14750500 10537.58689153 0 399.07205281 0 2866.20414720 0 -405.80845523 0 -33.55667338 0 23649
0.14850000 0.14849900 10408.86004319 0 255.99547150 0 2731.76397926 0 -288.47724359 0 200.05033589 0 23640
0.14950000 0.14949500 10239.14344837 0 201.68793273 0 3210.37629187 0 28.64997264 0 1.70230351 0 24457
0.15050000 0.15050000 10210.66542893 0 63.99914468 0 3271.56195882 0 66.98081103 0 -89.96463217 0 24591
0.15150000 0.15149900 10033.49715951 0 177.70416994 0 3096.43099716 0 134.69483142 0 -227.79426019 0 25020
0.15250000 0.15250500 9928.78618370 0 48.02908771 0 3335.30533280 0 96.84641421 0 -30.15104771 0 25297
0.15350000 0.15350100 9958.40465259 0 69.57339589 0 3188.51952268 0 115.28726048 0 214.49418362 0 25452
0.15450000 0.15450400 9836.57586261 0 157.29787530 0 3032.51046598 0 376.29517343 0 59.69389263 0 26061
0.15550000 0.15549900 9670.62385823 0 77.64323839 0 2677.94140831 0 374.28665370 0 293.84953559 0 26128
0.15650000 0.15649500 9758.82599774 0 46.67704612 0 2660.97860669 0 327.51383197 0 256.62548679 0 26331
0.15750000 0.15749700 9534.42319064 0 59.52470750 0 2614.39733618 0 435.53211121 0 496.44650620 0 27345
0.15850000 0.15849900 9523.66089091 0 139.20348208 0 2411.03194623 0 0.58796370 0 219.25085436 0 26980
0.15950000 0.15949700 9362.94609617 0 246.66150168 0 2387.29288182 0 95.08192853 0 444.20617047 0 27777
0.16050000 0.16050000 9233.23381092 0 200.83425649 0 2540.86602706 0 -201.87062609 0 512.20131718 0 28224
0.16150000 0.16150500 9124.32642400 0 67.17468744 0 2513.88277148 0 24.10843717 0 787.46595557 0 28075
0.16250000 0.16249700 9091.07623257 0 112.95099994 0 2647.53680436 0 -48.01247922 0 517.54149944 0 28590
0.16350000 0.16349900 9151.53112608 0 -51.95987374 0 2716.04127801 0 174.37140017 0 342.55890694 0 29163
0.16450000 0.16449100 9036.37894797 0 2.82172662 0 2507.31688286 0 -60.29965952 0 414.24113781 0 28996
0.16550000 0.16550500 9054.92509204 0 256.81703801 0 2738.50702507 0 -171.15710428 0 451.12194455 0 30777
0.16650000 0.16650700 8972.21482564 0 112.37413182 0 2754.86084883 0 83.08849701 0 423.12224955 0 29211
0.16750000 0.16749900 8863.61746382 0 6.11593148 0 2597.86635522 0 243.95210380 0 567.31602843 0 30922
0.16850000 0.16850800 8837.63071747 0 5.60673741 0 2416.08092635 0 261.68111030 0 50.31408338 0 30867
0.16950000 0.16949900 8744.23565763 0 93.66666397 0 2327.75699127 0 81.24384770 0 -511.10515702 0 30852
0.17050000 0.17049200 8678.86465190 0 127.91635416 0 2309.62052322 0 55.02192517 0 -58.25083653 0 31257
0.17150000 0.17149500 8548.64303971 0 35.72230939 0 2104.54999525 0 -17.62824834 0 81.70556364 0 32608
0.17250000 0.17250900 8521.52691623 0 79.01631739 0 2153.95470860 0 129.96251979 0 -543.91245546 0 32361
0.17350000 0.17350400 8590.66251239 0 91.62337715 0 2135.00996083 0 -8.41284098 0 -632.34932825 0 32508
0.17450000 0.17449800 8310.43304356 0 242.69428770 0 2182.98634427 0 -153.40484590 0 -277.50014077 0 32791
0.17550000 0.17549800 8363.22588829 0 176.71873304 0 2172.39012942 0 -91.27614904 0 -50.97897648 0 33633
0.17650000 0.17650100 8181.61761662 0 10.11632922 0 2241.79146138 0 -44.86760680 0 -104.29565291 0 33984
0.17750000 0.17750300 8245.47171385 0 104.28480203 0 2243.82876915 0 228.41873931 0 -150.92907407 0 34069
0.17850000 0.17849800 8052.52538156 0 118.71857394 0 2028.50526840 0 165.51575478 0 -269.63879015 0 34536
