### header ###
fiducial parameters:
Omega_m = 0.31
Omega_nu = 0
Omega_de = 0.69
Omega_k = 0
H_0 = 100
w_de = -1
zeff = 0
beta = 0
fgrowth = 0
b_1 = 2
gamma = 0.55
Lx = 3500 Ly = 3500 Lz = 3500
nx = 700 ny = 700 nz = 700
xoffset = -685.467585 yoffset = -31.7331281 zoffset = 572.489161
bins = 400 dk = 0.001
kx_ny = 0.628318531 ky_ny = 0.628318531 kz_ny = 0.628318531
############################
A(data) = 8.01889141 (not used)
A(ran) = 8.00950293 (used)
Ngal = 476606
weighted Ngal = 0
Nran = 23820508
weighted Nran = 0
SN(data) = 3498.40469
SN(ran) = 69.7656753
SN(data+ran) = 3568.17036
############################
13 columns: k_central k_mean P_0(k) sigma^{lin}_{P_0(k)} P^img_1(k) sigma^{lin}_{P_1(k)} P_2(k) sigma^{lin}_{P_2(k)} P^img_3(k) sigma^{lin}_{P_3(k)} P_4(k) sigma^{lin}_{P_4(k)} N_modes
### header ###
0.00050000 0 0 0 0 0 0 0 0 0 0 0 0
0.00150000 0.00179520 92493.44043530 0 -45786.83120631 0 19236.50352368 0 82739.71877931 0 -226790.00033041 0 3
0.00250000 0.00253879 160354.94418605 0 -34566.69085133 0 24459.98348012 0 3395.57199678 0 197006.55380073 0 6
0.00350000 0.00331552 134067.03060162 0 14586.90216258 0 16671.15658644 0 -76747.93020370 0 117430.86256160 0 7
0.00450000 0.00420575 106815.71403471 0 40831.41223372 0 9873.18096846 0 -18362.23275599 0 65969.90777873 0 24
0.00550000 0.00557378 78088.67801599 0 -999.34264160 0 13775.52219987 0 50744.90753685 0 18246.74840814 0 45
0.00650000 0.00659388 89994.41672373 0 -14486.58689972 0 20501.07374121 0 102321.34666758 0 82073.49699497 0 40
0.00750000 0.00754703 82916.10091367 0 -7468.57097062 0 2297.30809802 0 32180.60485291 0 33320.16852325 0 57
0.00850000 0.00846663 100235.20994850 0 -6613.89821787 0 27686.01603928 0 16903.67540763 0 58268.44152787 0 75
0.00950000 0.00948925 96089.06719691 0 5972.31235625 0 34766.10342132 0 5774.70457522 0 53443.12237190 0 112
0.01050000 0.01054430 91968.16934590 0 16130.38424230 0 30793.68544613 0 -35002.16538645 0 64404.28104937 0 105
0.01150000 0.01145670 90008.47857625 0 13627.92811004 0 74739.85337459 0 -22961.23359267 0 29005.83715766 0 144
0.01250000 0.01249090 72943.92228900 0 11105.98468610 0 50032.73560451 0 -8625.73963742 0 29066.29205117 0 169
0.01350000 0.01339930 86014.02667468 0 -4944.81168541 0 61382.75432961 0 4961.12121987 0 -28732.35073464 0 180
0.01450000 0.01448870 84433.89519981 0 -6628.08186596 0 51352.66744614 0 10924.26569117 0 -46432.79063623 0 267
0.01550000 0.01550050 87018.84015197 0 5621.61861227 0 53887.45476688 0 2870.06838857 0 -35304.99347024 0 238
0.01650000 0.01653350 88574.05889599 0 5567.22028044 0 47860.56692159 0 -6199.00713459 0 -44096.19792975 0 315
0.01750000 0.01747870 81847.06795243 0 64.49440977 0 58623.42026156 0 7828.90870952 0 -734.94327556 0 297
0.01850000 0.01844180 78118.01967675 0 5729.88380435 0 53688.26364339 0 12413.40480068 0 -27670.51478453 0 388
0.01950000 0.01947590 84697.08436075 0 1628.62825757 0 53474.12488140 0 14053.76972256 0 5653.26331661 0 399
0.02050000 0.02045430 81743.43099212 0 4871.13643607 0 53605.44265375 0 11099.45201445 0 6296.27750812 0 462
0.02150000 0.02154770 81012.21466110 0 5261.71269404 0 59864.40642723 0 16132.04509102 0 27662.32126417 0 571
0.02250000 0.02255340 79130.03016518 0 -4184.24262129 0 55689.80780086 0 13955.89037117 0 39957.03074279 0 510
0.02350000 0.02348930 86782.22457059 0 -5385.11375415 0 53491.06553837 0 26366.19492090 0 25484.06280260 0 555
0.02450000 0.02439640 90848.64658349 0 -4817.63496254 0 62585.09808167 0 16622.99197348 0 36963.95989782 0 592
0.02550000 0.02547300 92575.70780870 0 8001.88056784 0 49531.27001348 0 5402.85161851 0 24454.44731771 0 837
0.02650000 0.02652900 83403.83682193 0 4682.29793628 0 48815.99783019 0 -3709.21774192 0 39254.82390279 0 723
0.02750000 0.02749970 77131.36481216 0 6456.48297592 0 53410.34829044 0 6872.03839869 0 15722.81196573 0 826
0.02850000 0.02848090 71044.90785935 0 8141.40293288 0 48725.42621318 0 4525.19271943 0 14188.63063885 0 831
0.02950000 0.02946900 63950.20500856 0 8420.71339875 0 39738.79522062 0 11729.57801988 0 -1147.05963424 0 996
0.03050000 0.03053250 57810.37945012 0 3496.11977846 0 31271.78843180 0 5146.16191224 0 591.15806546 0 1041
0.03150000 0.03150510 53060.68427267 0 -312.80314122 0 23130.64016239 0 6937.79693579 0 3088.90181628 0 1036
0.03250000 0.03246190 58355.35927770 0 -2810.95324636 0 23021.68848618 0 7196.65681773 0 -16964.57319414 0 1059
0.03350000 0.03345080 55519.29399865 0 -2565.85626417 0 18879.75321802 0 4632.42818530 0 -11404.27311671 0 1302
0.03450000 0.03451200 55649.28309202 0 3555.67781366 0 16864.70082427 0 494.76129836 0 -14712.68377252 0 1339
0.03550000 0.03553350 54746.66717280 0 2269.15117601 0 17219.01521847 0 -1304.36415294 0 -9267.71303040 0 1365
0.03650000 0.03647120 52744.68012234 0 1473.61571011 0 16748.10924393 0 1274.36922500 0 -9660.48160870 0 1308
0.03750000 0.03744890 51674.31848213 0 1598.10185805 0 19796.32026651 0 -1445.70237925 0 -6114.74674272 0 1579
0.03850000 0.03847530 48159.63041494 0 4247.08913696 0 18137.02166918 0 3539.94404009 0 -7353.64023900 0 1662
0.03950000 0.03950240 46296.60104096 0 1461.32542956 0 16139.46354865 0 6350.17758534 0 -6082.81415794 0 1683
0.04050000 0.04050350 45011.21485276 0 -1172.33775180 0 13367.72847680 0 6352.51384588 0 -6309.80788905 0 1822
0.04150000 0.04152450 46570.75180347 0 1247.96173031 0 12593.21935574 0 945.95078409 0 -10802.31510562 0 1887
0.04250000 0.04250150 43186.93861564 0 2965.61147943 0 11670.34108210 0 -2122.96327143 0 -6673.57804864 0 1920
0.04350000 0.04349210 41366.64841546 0 2849.08633303 0 12344.42421706 0 -3229.39854591 0 -3436.94927463 0 2005
0.04450000 0.04448520 40034.31557003 0 580.18539157 0 15315.01824266 0 -2727.08038586 0 -2460.59167212 0 2151
0.04550000 0.04548030 40822.55437387 0 594.70785280 0 17911.14624288 0 2662.26299637 0 -4710.80917269 0 2274
0.04650000 0.04648670 39698.71340477 0 843.31919088 0 19743.72672362 0 -1672.27536201 0 3050.66907868 0 2311
0.04750000 0.04749250 40392.17310817 0 265.04488258 0 19191.32843842 0 4977.28681410 0 5528.16819080 0 2568
0.04850000 0.04851840 40404.24194222 0 -93.44488531 0 18454.57594498 0 4885.60796460 0 7936.62028536 0 2493
0.04950000 0.04949480 40276.02442082 0 564.15930862 0 18470.52009272 0 3985.56082475 0 7104.77866638 0 2644
0.05050000 0.05050630 39941.52948805 0 632.54863010 0 16243.87557169 0 2307.09603316 0 6519.46235949 0 2829
0.05150000 0.05149060 38779.15682859 0 -52.26137314 0 14771.58854056 0 -741.68299967 0 6948.50387389 0 2784
0.05250000 0.05249300 38972.59034317 0 1540.29325017 0 18427.89164217 0 -2382.58714378 0 2372.19023077 0 3055
0.05350000 0.05348950 38228.30866886 0 2039.40043602 0 16622.32763399 0 -847.20668413 0 3306.30691410 0 3009
0.05450000 0.05448610 36462.93719977 0 1728.12416840 0 17575.87624737 0 -159.33296861 0 -4.87648437 0 3336
0.05550000 0.05550870 35283.62388334 0 783.31826269 0 16526.33057782 0 617.16363476 0 389.10696047 0 3349
0.05650000 0.05647670 35664.17968736 0 -760.70193202 0 16089.97025671 0 3096.44206948 0 2377.46065738 0 3324
0.05750000 0.05747970 34595.36817261 0 336.29307832 0 15261.76036028 0 2857.78918034 0 -1363.00318518 0 3639
0.05850000 0.05849280 34791.79121490 0 -169.03896854 0 13551.30762229 0 3391.67453845 0 158.66087849 0 3846
0.05950000 0.05951020 34966.18033079 0 716.13914632 0 13282.58229894 0 966.45119349 0 -1350.71290463 0 3787
0.06050000 0.06049470 33597.86242970 0 1397.78135743 0 12485.81780499 0 237.83907327 0 1906.70969539 0 3930
0.06150000 0.06148310 33668.28241555 0 697.78787516 0 12541.62232208 0 -1514.52795032 0 888.24293437 0 4083
0.06250000 0.06249100 33295.92013190 0 432.73413472 0 13283.24663843 0 178.98966686 0 1519.88695553 0 4303
0.06350000 0.06350600 32801.98372174 0 118.61338685 0 11078.85749029 0 1129.62072265 0 1466.42977131 0 4470
0.06450000 0.06451750 32249.69615978 0 648.36433887 0 12359.26113232 0 2344.37655083 0 3115.45325120 0 4479
0.06550000 0.06550280 32346.57900195 0 -162.04458095 0 11240.40270939 0 3281.56026813 0 2147.73206205 0 4636
0.06650000 0.06648880 32253.35002697 0 -684.86757933 0 9476.32670231 0 2701.63618342 0 2263.89182172 0 4653
0.06750000 0.06749660 31755.20613338 0 279.94823178 0 8149.13141560 0 1231.85149770 0 1192.32329810 0 5220
0.06850000 0.06852730 32126.79335430 0 1050.13361001 0 7630.13833438 0 -442.84095282 0 823.08341004 0 5029
0.06950000 0.06949320 30280.92608378 0 1529.02162351 0 6443.06331824 0 -371.62597405 0 3277.38600167 0 5040
0.07050000 0.07048030 29354.61538945 0 946.51436542 0 7104.39113501 0 -209.45738306 0 134.08917525 0 5475
0.07150000 0.07148790 28573.01998050 0 948.43209208 0 5283.62482486 0 1297.44394992 0 -333.86602472 0 5509
0.07250000 0.07249820 27658.66739698 0 651.24757225 0 4920.51900476 0 1963.96468703 0 -2173.26484308 0 5916
0.07350000 0.07351270 26541.69126927 0 529.79745578 0 5471.77684050 0 -674.26029216 0 -1671.47815462 0 5721
0.07450000 0.07449140 26491.97653084 0 334.29009476 0 5575.25878826 0 102.73700174 0 -1464.43675284 0 6028
0.07550000 0.07549160 25718.35319576 0 558.36626828 0 6124.62325646 0 -1084.74459016 0 338.12111915 0 6183
0.07650000 0.07648840 26100.12695551 0 440.62205893 0 7591.56235471 0 -154.94611351 0 1335.16736058 0 6330
0.07750000 0.07749960 25533.00247829 0 217.61990092 0 8781.95906829 0 -416.59843577 0 438.37991315 0 6583
0.07850000 0.07848650 25721.45344671 0 585.77027221 0 9304.86068017 0 -627.95693700 0 1254.69370380 0 6549
0.07950000 0.07947320 24823.37718067 0 1330.98202180 0 9746.11496884 0 946.04379162 0 1894.75158459 0 6828
0.08050000 0.08048110 24340.07020233 0 196.64005985 0 10352.88944123 0 47.85370208 0 3470.22161071 0 7147
0.08150000 0.08149960 24062.26557263 0 122.99802748 0 9361.79457439 0 1417.53438491 0 1763.09057017 0 7386
0.08250000 0.08250610 23893.41261915 0 215.74646356 0 8658.17047681 0 1206.34086132 0 3360.01876179 0 7227
0.08350000 0.08350160 23248.22825197 0 262.73630285 0 7107.10385459 0 1930.11659006 0 2903.51788184 0 7798
0.08450000 0.08449610 23455.39144932 0 -16.56674456 0 6411.71756668 0 1217.83393448 0 1684.86459533 0 7371
0.08550000 0.08548940 22821.16868371 0 -5.50533706 0 6471.92886905 0 998.78238196 0 1471.29052190 0 8256
0.08650000 0.08650700 22462.42535959 0 985.60852989 0 6143.71194445 0 -225.20222895 0 361.39625315 0 8037
0.08750000 0.08749060 21567.33862125 0 1010.65966480 0 5742.56161627 0 -749.39930284 0 2324.35778755 0 8155
0.08850000 0.08849210 21364.05073758 0 287.37111834 0 5697.26473543 0 -119.19357667 0 -538.35857733 0 8718
0.08950000 0.08949900 20736.80353660 0 -74.97093279 0 5211.95366631 0 -68.62305825 0 -755.49904658 0 8571
0.09050000 0.09049190 20852.95222395 0 347.85922883 0 6055.39908169 0 -403.30832429 0 -2449.39755173 0 8932
0.09150000 0.09150830 20531.07974147 0 599.06702708 0 5453.38570898 0 -192.78689081 0 -2222.14915715 0 9285
0.09250000 0.09250820 19900.62156630 0 713.74973862 0 4711.20777639 0 599.46009461 0 -2166.02354265 0 9204
0.09350000 0.09350330 19410.44974658 0 165.11493663 0 4393.02237807 0 181.00482997 0 -2192.98465358 0 9349
0.09450000 0.09448040 19208.82271163 0 379.68330482 0 5321.90185176 0 1211.23482889 0 -1135.53334410 0 9564
0.09550000 0.09549270 18894.59013328 0 712.62589765 0 4973.17898159 0 363.79119701 0 -1397.17237957 0 10155
0.09650000 0.09649430 18201.24115313 0 647.32132587 0 5163.93299357 0 345.38456423 0 291.00948428 0 9913
0.09750000 0.09749140 17801.97312017 0 239.60289461 0 4920.72937893 0 186.77461844 0 538.79814863 0 10476
0.09850000 0.09850240 17612.30419603 0 263.65419858 0 4822.19676037 0 720.58911366 0 1652.44482826 0 10575
0.09950000 0.09950330 17652.49673512 0 126.52567017 0 5016.79286905 0 524.68979234 0 1236.54616342 0 10882
0.10050000 0.10051200 17466.03878517 0 288.79059038 0 4740.30584601 0 551.22351154 0 1297.27786505 0 10875
0.10150000 0.10150300 16961.36221994 0 352.45092193 0 4514.54114296 0 329.02188261 0 1708.01682652 0 11118
0.10250000 0.10250800 16976.75275144 0 216.40637412 0 4810.47116838 0 -685.89841277 0 1183.73117404 0 11575
0.10350000 0.10349800 16686.65784119 0 448.49005294 0 5194.43724845 0 -307.26476434 0 1296.51387464 0 11364
0.10450000 0.10450100 16397.78088667 0 311.13786357 0 5666.94871008 0 -718.34143172 0 1764.25316428 0 12093
0.10550000 0.10551000 16590.88223151 0 -49.17097656 0 5560.36651138 0 347.14506388 0 1978.60230044 0 12067
0.10650000 0.10649700 16642.92215816 0 22.28648612 0 6206.93491916 0 -157.41856364 0 1231.76291910 0 12054
0.10750000 0.10749900 16529.20938227 0 462.00825431 0 6170.49589818 0 240.10336369 0 1223.44760316 0 12807
0.10850000 0.10850100 16085.43060354 0 409.06371873 0 5858.17883202 0 474.48565715 0 1550.32477646 0 12736
0.10950000 0.10950300 15825.34169355 0 -73.80701001 0 5489.43719859 0 655.44398336 0 1544.25714246 0 12933
0.11050000 0.11050200 15865.42350939 0 -189.37772200 0 4944.43522637 0 517.98549967 0 702.41942864 0 13428
0.11150000 0.11150900 15621.38947039 0 592.12800112 0 5148.12171373 0 392.24596456 0 934.73341182 0 13453
0.11250000 0.11250000 15449.10409621 0 466.19027140 0 4383.32302153 0 -7.70802107 0 1043.12482840 0 13668
0.11350000 0.11349100 14913.42502148 0 143.99115534 0 4182.40461537 0 553.83658020 0 1365.82662800 0 13791
0.11450000 0.11448600 14997.46396686 0 85.53835960 0 4207.15126134 0 415.66836048 0 980.09894106 0 14205
0.11550000 0.11549300 14663.96554332 0 510.87706713 0 4208.22527685 0 276.59996076 0 653.23616179 0 14776
0.11650000 0.11649800 14187.19123663 0 484.89807141 0 3987.48740926 0 -409.47007305 0 1070.76799454 0 14553
0.11750000 0.11747300 13993.64699880 0 110.34734276 0 4441.86240285 0 -488.08911542 0 560.41686284 0 14568
0.11850000 0.11849100 14003.94426088 0 -26.25713252 0 4644.03198171 0 36.01052201 0 380.32549966 0 16015
0.11950000 0.11950300 13947.80757405 0 -97.12211510 0 4428.34309424 0 74.10485555 0 -394.30320251 0 15270
0.12050000 0.12050700 14125.18621764 0 69.14434330 0 4583.63244982 0 -420.26891144 0 -490.43534105 0 15999
0.12150000 0.12150000 14113.33883009 0 109.79815545 0 4382.00541488 0 263.79924604 0 -331.52312079 0 15670
0.12250000 0.12250700 13861.88633346 0 323.04393444 0 4668.09214354 0 9.07869737 0 -10.04939702 0 16887
0.12350000 0.12352200 13619.18097343 0 508.25514062 0 4297.51250419 0 1162.31729784 0 420.25119572 0 16407
0.12450000 0.12449800 13317.01722913 0 121.46893942 0 4486.38422094 0 537.53701083 0 264.43258302 0 16306
0.12550000 0.12549900 13212.60520609 0 112.33316422 0 3792.53698618 0 547.25629756 0 446.64872532 0 17523
0.12650000 0.12650100 13071.54378790 0 67.90003544 0 4192.00432099 0 -214.15758494 0 435.21433548 0 17154
0.12750000 0.12750600 13137.64556707 0 191.54679043 0 4099.55040875 0 -348.03084986 0 1175.31620717 0 18007
0.12850000 0.12850300 12697.29920903 0 219.03272956 0 4255.91377984 0 -148.52416512 0 1394.85826368 0 17496
0.12950000 0.12949900 12844.00751288 0 49.42375774 0 3994.37439530 0 185.86890227 0 377.58509927 0 18405
0.13050000 0.13049000 12618.57497957 0 142.38566824 0 4189.52412023 0 596.86252721 0 426.53916899 0 18100
0.13150000 0.13148800 12519.69911894 0 182.07995271 0 3417.07445158 0 446.07185720 0 -87.12159133 0 19059
0.13250000 0.13249300 12365.46163422 0 17.22687657 0 3257.48903397 0 314.29790507 0 -91.00941674 0 18957
0.13350000 0.13349100 12140.02910091 0 127.57975549 0 2991.73109367 0 39.12981736 0 -819.52476485 0 19468
0.13450000 0.13450700 12009.37566805 0 498.27233256 0 3308.64317463 0 -399.40532979 0 -909.40546879 0 19953
0.13550000 0.13551000 11677.53809323 0 348.61214692 0 3251.94179924 0 -426.80711925 0 -443.00039430 0 19956
0.13650000 0.13649900 11553.63877851 0 -54.57128155 0 3150.24249578 0 9.80009255 0 -602.44962231 0 19723
0.13750000 0.13749600 11514.44274865 0 32.08228261 0 3249.66090032 0 447.90211249 0 -526.08269081 0 20946
0.13850000 0.13851100 11754.93364372 0 -137.73307735 0 2994.65418743 0 472.57457389 0 -779.58246030 0 20955
0.13950000 0.13949800 11647.75353947 0 -3.10828946 0 2991.98575714 0 321.00994837 0 -309.57555853 0 20506
0.14050000 0.14048300 11599.47820326 0 320.16291553 0 2967.87023369 0 -112.15489979 0 -862.86295142 0 21447
0.14150000 0.14148400 11316.91247389 0 180.13122354 0 2664.20065321 0 134.55864182 0 -576.11520496 0 21771
0.14250000 0.14249400 11287.46008987 0 210.39742344 0 2839.48662742 0 -28.43350869 0 -480.55439838 0 22470
0.14350000 0.14350900 11122.70389657 0 -69.56653105 0 2696.91937305 0 115.37916077 0 -253.46655252 0 22519
0.14450000 0.14449900 11167.10391909 0 53.71206914 0 2875.46061075 0 143.47407777 0 -328.39740349 0 22218
0.14550000 0.14550500 11013.23182109 0 241.98898061 0 2967.23911117 0 356.42810100 0 -344.95827972 0 23559
0.14650000 0.14650700 10982.89365109 0 200.81321907 0 2686.69961724 0 297.68388168 0 216.67321714 0 23044
0.14750000 0.14750500 10667.38775538 0 114.32728991 0 2739.63640220 0 142.17861576 0 56.55112395 0 23649
0.14850000 0.14849900 10713.69221777 0 204.42722589 0 2689.73343424 0 244.04178963 0 356.87099400 0 23640
0.14950000 0.14949500 10470.98685775 0 151.94329902 0 2669.74788795 0 29.50763492 0 158.33978107 0 24457
0.15050000 0.15050000 10258.20999171 0 257.02409048 0 2375.21297545 0 97.23538499 0 165.57333087 0 24591
0.15150000 0.15149900 10215.14972049 0 266.69355174 0 2456.29561009 0 -206.68155123 0 -29.94620970 0 25020
0.15250000 0.15250500 9997.47888688 0 133.35175842 0 2481.29691953 0 12.07459166 0 232.85209817 0 25297
0.15350000 0.15350100 9957.09811826 0 -14.98174127 0 2427.18646815 0 166.52001465 0 107.40830486 0 25452
0.15450000 0.15450400 9991.36696358 0 -50.82839287 0 2514.56925561 0 32.52772224 0 -124.76627775 0 26061
0.15550000 0.15549900 9959.23507695 0 192.98065650 0 2886.94261159 0 82.60031821 0 115.53417332 0 26128
0.15650000 0.15649500 9908.06986397 0 302.73064733 0 2926.86941489 0 -180.34713388 0 130.82173220 0 26331
0.15750000 0.15749700 9462.33128374 0 367.90567291 0 2841.77859865 0 -210.31438100 0 461.29741106 0 27345
0.15850000 0.15849900 9358.45073229 0 271.40704042 0 3236.88343748 0 -243.73065730 0 82.78976569 0 26980
0.15950000 0.15949700 8996.40785537 0 85.48288725 0 2980.94664930 0 270.11932904 0 292.22522554 0 27777
0.16050000 0.16050000 9100.50985332 0 74.56158895 0 2994.97528485 0 264.77914678 0 -309.75050127 0 28224
0.16150000 0.16150500 8972.41412749 0 -194.34919584 0 2621.48362406 0 -12.18797227 0 -285.14779552 0 28075
0.16250000 0.16249700 9138.88653114 0 82.95872936 0 2895.92226702 0 -6.10254504 0 -769.62954752 0 28590
0.16350000 0.16349900 8991.95678080 0 227.10002543 0 2726.98073493 0 -545.46368817 0 -582.00678900 0 29163
0.16450000 0.16449100 8692.76041955 0 378.83737921 0 2852.49660908 0 -104.19578054 0 -254.78637363 0 28996
0.16550000 0.16550500 8621.27749052 0 82.89318120 0 2768.35801278 0 151.85804212 0 -287.15188631 0 30777
0.16650000 0.16650700 8424.93195451 0 102.77354041 0 2991.08889883 0 543.67661494 0 -228.41873931 0 29211
0.16750000 0.16749900 8494.72081784 0 80.67473020 0 2729.68238219 0 371.74998409 0 -528.46434787 0 30922
0.16850000 0.16850800 8448.30563220 0 106.09667726 0 2628.56991195 0 153.88538479 0 -242.12074127 0 30867
0.16950000 0.16949900 8341.36911910 0 -0.25653912 0 2439.04492803 0 268.61681457 0 97.70916976 0 30852
0.17050000 0.17049200 8347.31495753 0 5.72800151 0 2448.64463364 0 160.86980729 0 404.95699345 0 31257
0.17150000 0.17149500 8382.00455119 0 17.29419630 0 2316.31927974 0 288.24693924 0 611.65183147 0 32608
0.17250000 0.17250900 8441.09754874 0 136.05894184 0 2524.44576935 0 351.43226805 0 640.92484382 0 32361
0.17350000 0.17350400 8266.81915610 0 149.12760682 0 2329.48427395 0 180.60954798 0 848.52871971 0 32508
0.17450000 0.17449800 8176.11467118 0 159.74928802 0 2332.15270423 0 185.47915643 0 1184.72768327 0 32791
0.17550000 0.17549800 8014.33693326 0 150.20051509 0 2419.39155147 0 75.22526409 0 1229.12770579 0 33633
0.17650000 0.17650100 7921.53977895 0 42.75079974 0 2032.51344998 0 256.75946192 0 1374.59590926 0 33984
0.17750000 0.17750300 7860.81914965 0 61.08313722 0 2086.64604602 0 374.27004522 0 1450.45240659 0 34069
0.17850000 0.17849800 7933.01070747 0 -70.95145744 0 1715.01453581 0 353.93572069 0 1063.16462909 0 34536
