### header ###
fiducial parameters:
Omega_m = 0.31
Omega_nu = 0
Omega_de = 0.69
Omega_k = 0
H_0 = 100
w_de = -1
zeff = 0
beta = 0
fgrowth = 0
b_1 = 2
gamma = 0.55
Lx = 3500 Ly = 3500 Lz = 3500
nx = 700 ny = 700 nz = 700
xoffset = -685.467585 yoffset = -31.7331281 zoffset = 572.489161
bins = 400 dk = 0.001
kx_ny = 0.628318531 ky_ny = 0.628318531 kz_ny = 0.628318531
############################
A(data) = 7.96969895 (not used)
A(ran) = 7.96505879 (used)
Ngal = 473681
weighted Ngal = 0
Nran = 23820508
weighted Nran = 0
SN(data) = 3491.85557
SN(ran) = 69.3785507
SN(data+ran) = 3561.23412
############################
13 columns: k_central k_mean P_0(k) sigma^{lin}_{P_0(k)} P^img_1(k) sigma^{lin}_{P_1(k)} P_2(k) sigma^{lin}_{P_2(k)} P^img_3(k) sigma^{lin}_{P_3(k)} P_4(k) sigma^{lin}_{P_4(k)} N_modes
### header ###
0.00050000 0 0 0 0 0 0 0 0 0 0 0 0
0.00150000 0.00179520 12014.57966071 0 -10339.45871122 0 -24447.69319957 0 34492.72772154 0 -16060.62859594 0 3
0.00250000 0.00253879 24588.20100152 0 -12416.83722137 0 104.01928768 0 12053.66496732 0 5956.47893176 0 6
0.00350000 0.00331552 35547.80955351 0 -19177.59875564 0 3614.05111011 0 -46035.73706823 0 50244.65990154 0 7
0.00450000 0.00420575 47798.78334910 0 -15139.41117103 0 12558.12008606 0 -11294.54637776 0 21145.48304566 0 24
0.00550000 0.00557378 59353.75080659 0 -10323.86887788 0 19952.77221619 0 7440.72407370 0 19047.60966227 0 45
0.00650000 0.00659388 76658.68726566 0 -2267.83356936 0 22092.49898740 0 12285.74089552 0 12098.06498985 0 40
0.00750000 0.00754703 72680.73312806 0 5630.87507582 0 14753.65137435 0 17993.63506278 0 5189.16682183 0 57
0.00850000 0.00846663 68171.08595268 0 15996.40911199 0 23778.37116428 0 -681.18270963 0 32273.83382789 0 75
0.00950000 0.00948925 56873.66077047 0 14604.39643579 0 26410.15205043 0 12860.83744660 0 20040.24358226 0 112
0.01050000 0.01054430 52045.57353330 0 -3952.37706726 0 19102.74983987 0 13202.08649751 0 18170.68153663 0 105
0.01150000 0.01145670 55636.32847198 0 -2394.44560366 0 31227.49913252 0 28450.56006801 0 18605.04883927 0 144
0.01250000 0.01249090 63996.48732630 0 -6880.80767995 0 21197.19080256 0 10360.55149000 0 7366.35126790 0 169
0.01350000 0.01339930 68014.41255649 0 -8724.10617111 0 17728.45288338 0 22745.54470520 0 11718.50569506 0 180
0.01450000 0.01448870 75026.51586414 0 -3390.36800412 0 5801.08992526 0 8337.93669841 0 4203.56382810 0 267
0.01550000 0.01550050 83465.84184091 0 -11913.82150486 0 16976.30985844 0 4863.81762936 0 4385.22746140 0 238
0.01650000 0.01653350 79692.94715896 0 3685.46760519 0 13722.15359424 0 -11261.77229629 0 -15061.35128106 0 315
0.01750000 0.01747870 78421.84426978 0 10734.16494636 0 10207.99699865 0 -16410.40333696 0 1142.69713826 0 297
0.01850000 0.01844180 70529.04824605 0 9487.37688248 0 16272.55289297 0 -4412.02248746 0 -8119.78975483 0 388
0.01950000 0.01947590 64964.87285494 0 -1685.63965807 0 15485.08915187 0 192.24323966 0 988.78185819 0 399
0.02050000 0.02045430 66191.24355185 0 2093.94270808 0 17347.12201662 0 13541.34252996 0 -11381.24268109 0 462
0.02150000 0.02154770 63443.09253187 0 2101.25044246 0 14423.14247851 0 -2198.14435695 0 -6188.13411162 0 571
0.02250000 0.02255340 64769.55704514 0 1325.34620847 0 18242.76237120 0 1573.48807998 0 -8227.89993436 0 510
0.02350000 0.02348930 61967.92669628 0 2322.95160230 0 24222.26066626 0 -7626.87199855 0 -4271.54790249 0 555
0.02450000 0.02439640 64440.81972127 0 449.13667671 0 26288.57792392 0 -263.06847260 0 -9511.91315428 0 592
0.02550000 0.02547300 64039.00505360 0 -698.68916240 0 29311.98693890 0 -4358.32171209 0 -5300.75371135 0 837
0.02650000 0.02652900 65566.32153909 0 -12.91819209 0 23538.21243897 0 6136.61458424 0 -1547.91100965 0 723
0.02750000 0.02749970 69320.61471535 0 -2728.16547369 0 29202.03875345 0 7654.01026668 0 -14494.89114334 0 826
0.02850000 0.02848090 65748.90417535 0 480.92199957 0 19043.40217884 0 8235.39589826 0 -13654.50168960 0 831
0.02950000 0.02946900 65120.10684890 0 5573.31005909 0 16975.75624220 0 3863.25592480 0 -18346.95294775 0 996
0.03050000 0.03053250 58603.37935363 0 5931.46655000 0 16993.80413166 0 -759.68217090 0 -12923.17463533 0 1041
0.03150000 0.03150510 57809.49366414 0 1759.55849856 0 17042.96525385 0 -6133.30395912 0 -8043.13605011 0 1036
0.03250000 0.03246190 53810.83427913 0 2434.92602319 0 16391.24821503 0 1424.44351559 0 -13832.87684243 0 1059
0.03350000 0.03345080 53212.70729243 0 3079.61213576 0 21513.30567613 0 -2168.08299506 0 -8323.44302522 0 1302
0.03450000 0.03451200 49811.62127789 0 3259.78100521 0 16395.67714496 0 1848.09280781 0 -153.43252671 0 1339
0.03550000 0.03553350 48823.41628782 0 -1586.57556791 0 16116.87600602 0 6301.65865799 0 -2174.12848441 0 1365
0.03650000 0.03647120 51305.49934242 0 -4860.93882491 0 16874.22302362 0 8288.87522714 0 -7116.71463254 0 1308
0.03750000 0.03744890 53558.27455002 0 -3131.41954359 0 10315.71964681 0 5139.71781919 0 -13941.71779540 0 1579
0.03850000 0.03847530 54118.20201610 0 2431.83684457 0 8794.14969791 0 -1611.61009433 0 -8872.28709416 0 1662
0.03950000 0.03950240 52654.32995182 0 2464.45591348 0 8120.67554082 0 -6134.58834880 0 -5874.03440116 0 1683
0.04050000 0.04050350 48195.50474736 0 3232.48772453 0 8808.58800947 0 -5329.91821493 0 -2678.79397732 0 1822
0.04150000 0.04152450 48282.31177393 0 2030.11075550 0 13396.73796782 0 3518.47480227 0 -5177.86197819 0 1887
0.04250000 0.04250150 46690.77580450 0 -586.37149944 0 13672.10668606 0 1292.98180302 0 -2505.29064742 0 1920
0.04350000 0.04349210 47525.85054232 0 1098.09449219 0 15004.55025474 0 1261.92393191 0 -7478.70214783 0 2005
0.04450000 0.04448520 46348.19807461 0 753.36098066 0 15877.27089695 0 2366.00080120 0 -5382.74427664 0 2151
0.04550000 0.04548030 44350.52923083 0 3116.80407482 0 17140.73388200 0 -1623.53498816 0 -2127.39220136 0 2274
0.04650000 0.04648670 42886.32499681 0 2754.86084883 0 16945.97168844 0 -642.03429077 0 1630.34446792 0 2311
0.04750000 0.04749250 41070.90661955 0 1349.71639539 0 18951.50188284 0 752.62467106 0 5667.22551820 0 2568
0.04850000 0.04851840 39439.95317376 0 1353.53634746 0 18002.38219939 0 1638.39404806 0 4370.88880076 0 2493
0.04950000 0.04949480 40287.31819213 0 103.07625777 0 18356.69659359 0 2888.45952009 0 2846.22967323 0 2644
0.05050000 0.05050630 40187.77799201 0 -985.69378680 0 17792.78309057 0 2798.58545954 0 2298.78071722 0 2829
0.05150000 0.05149060 40216.34459005 0 1076.14250101 0 16513.92957402 0 2959.11202476 0 299.21629143 0 2784
0.05250000 0.05249300 39242.20145250 0 838.86922354 0 14473.74300293 0 -562.99671452 0 -1077.92071637 0 3055
0.05350000 0.05348950 40045.94151109 0 435.92296427 0 17183.69450230 0 -2188.81038712 0 -3653.01462114 0 3009
0.05450000 0.05448610 37849.30299032 0 1134.53683487 0 17208.71795639 0 -1773.43212155 0 -1017.54000744 0 3336
0.05550000 0.05550870 38280.79148850 0 1938.97444992 0 16805.68533299 0 450.46535569 0 -1673.19436497 0 3349
0.05650000 0.05647670 37052.42777312 0 -198.46588621 0 15303.61374809 0 1236.51294645 0 -2644.45869806 0 3324
0.05750000 0.05747970 35834.80421281 0 -508.43672674 0 15129.99969494 0 3189.30565774 0 -3667.81831942 0 3639
0.05850000 0.05849280 36648.06647074 0 919.82120475 0 14096.73034286 0 2018.72840559 0 -5624.24275326 0 3846
0.05950000 0.05951020 35504.73820997 0 642.65655543 0 13577.65975536 0 -1263.98338432 0 -7669.46723213 0 3787
0.06050000 0.06049470 34882.25210866 0 317.31843528 0 13606.00490690 0 -1646.68721935 0 -5984.45869658 0 3930
0.06150000 0.06148310 35367.88427521 0 507.96283124 0 16486.58093172 0 -3260.38998307 0 -7764.47885140 0 4083
0.06250000 0.06249100 34546.64994341 0 926.13353713 0 14711.68726329 0 -515.02033108 0 -6146.02606033 0 4303
0.06350000 0.06350600 33660.86395792 0 855.88960125 0 13665.02039818 0 499.65748039 0 -7314.72101727 0 4470
0.06450000 0.06451750 33077.57388647 0 612.01943265 0 11522.85771552 0 4107.26781915 0 -4884.42322585 0 4479
0.06550000 0.06550280 33508.73021491 0 -434.78805098 0 12889.29332139 0 4555.58625106 0 -3907.93275544 0 4636
0.06650000 0.06648880 31956.39027534 0 1147.05963424 0 9532.96164376 0 4625.80693506 0 -3824.01560564 0 4653
0.06750000 0.06749660 31213.10511026 0 1619.84790399 0 9935.04204722 0 1408.03433021 0 -1865.64244264 0 5220
0.06850000 0.06852730 29666.63350284 0 1023.97856432 0 9550.21232583 0 -1291.54240080 0 -590.53358634 0 5029
0.06950000 0.06949320 29612.04694148 0 50.64459227 0 12281.86558184 0 -799.84702918 0 2456.30668242 0 5040
0.07050000 0.07048030 29480.83989238 0 365.09883857 0 12855.85490043 0 -1187.03072683 0 1872.59586263 0 5475
0.07150000 0.07148790 29968.57580064 0 -69.37276537 0 12920.51727737 0 133.52116499 0 1789.75272834 0 5509
0.07250000 0.07249820 29518.81796651 0 627.84732098 0 12875.12074562 0 1608.33268618 0 182.12977817 0 5916
0.07350000 0.07351270 28404.38847351 0 1094.23246530 0 10584.51140411 0 985.69157233 0 1334.04905577 0 5721
0.07450000 0.07449140 27885.87150226 0 417.31149348 0 11012.17995023 0 2386.93856743 0 111.07424088 0 6028
0.07550000 0.07549160 27075.26660228 0 281.49503556 0 8828.81714692 0 2557.06483827 0 -977.44379757 0 6183
0.07650000 0.07648840 26471.16056018 0 478.10298567 0 7319.29388742 0 2012.51683136 0 184.54797391 0 6330
0.07750000 0.07749960 26344.93605725 0 -35.86890697 0 6192.62947550 0 817.37230490 0 -1240.64292360 0 6583
0.07850000 0.07848650 25711.59907762 0 183.90245738 0 4599.05619830 0 1956.67909730 0 652.84752319 0 6549
0.07950000 0.07947320 26067.79576704 0 203.47943489 0 5317.56150043 0 -1228.76231907 0 -888.98145843 0 6828
0.08050000 0.08048110 25603.86535713 0 428.34063624 0 4590.92911188 0 26.22225470 0 418.50066117 0 7147
0.08150000 0.08149960 25073.16882858 0 939.85768374 0 6046.57443881 0 -379.96343464 0 364.43228462 0 7386
0.08250000 0.08250610 23999.81766066 0 1358.75141245 0 6006.52583994 0 -1252.75604696 0 138.67422496 0 7227
0.08350000 0.08350160 23409.55202457 0 1142.18781132 0 6505.52230255 0 -331.55965946 0 14.78077857 0 7798
0.08450000 0.08449610 22586.87829055 0 424.79749229 0 7039.95020457 0 -96.74609895 0 -465.76066519 0 7371
0.08550000 0.08548940 22498.85330824 0 182.62581833 0 7557.03884592 0 -1050.27312130 0 105.34973823 0 8256
0.08650000 0.08650700 22411.71411192 0 428.12029697 0 7396.13582166 0 -1011.56538097 0 -517.50828247 0 8037
0.08750000 0.08749060 22210.52996996 0 673.67235171 0 8744.95535874 0 -77.90642755 0 606.53198847 0 8155
0.08850000 0.08849210 22001.81664713 0 446.92664068 0 8887.05757546 0 -263.91771991 0 -62.40661221 0 8718
0.08950000 0.08949900 21486.06775708 0 557.69417816 0 9538.33172130 0 754.66308606 0 613.02147805 0 8571
0.09050000 0.09049190 21060.89048404 0 811.64569851 0 9609.88108427 0 547.41463180 0 -79.27618485 0 8932
0.09150000 0.09150830 20356.35845583 0 692.43883504 0 9588.31219553 0 640.64028508 0 1305.34958984 0 9285
0.09250000 0.09250820 19788.23746939 0 508.38136512 0 9573.48635260 0 611.01960172 0 328.40293966 0 9204
0.09350000 0.09350330 19465.03630793 0 203.41189371 0 9609.85893963 0 260.37457597 0 1119.19059267 0 9349
0.09450000 0.09448040 18913.96670171 0 556.75413779 0 8718.57000870 0 480.86553071 0 614.13313946 0 9564
0.09550000 0.09549270 19065.43610523 0 1.38202544 0 9195.27788144 0 794.96634840 0 276.82362172 0 10155
0.09650000 0.09649430 18844.10033210 0 -342.24002398 0 7821.78920466 0 1068.40073149 0 82.04415533 0 9913
0.09750000 0.09749140 19166.96932381 0 -127.58972058 0 7561.61171607 0 876.35015028 0 -177.33989046 0 10476
0.09850000 0.09850240 19052.14931544 0 -81.57856408 0 6975.12174275 0 950.02429239 0 10.88344203 0 10575
0.09950000 0.09950330 19098.98524943 0 113.20898511 0 6674.72957042 0 923.72087755 0 61.56223671 0 10882
0.10050000 0.10051200 18818.74470827 0 791.82070092 0 6231.12794889 0 19.27315292 0 631.86214596 0 10875
0.10150000 0.10150300 17977.02657555 0 915.33469874 0 6690.21975285 0 -109.81819636 0 1190.60708775 0 11118
0.10250000 0.10250800 17425.84624608 0 368.56669070 0 6652.80636728 0 64.13909887 0 686.00692156 0 11575
0.10350000 0.10349800 17225.10499712 0 209.08978188 0 6789.42778322 0 334.35542148 0 480.85667285 0 11364
0.10450000 0.10450100 16993.80413166 0 298.67042582 0 7203.01233217 0 539.52117144 0 338.94711458 0 12093
0.10550000 0.10551000 17102.31291488 0 5.67325994 0 6112.93088145 0 274.98229410 0 -74.55084879 0 12067
0.10650000 0.10649700 16309.31301137 0 134.18329001 0 5481.34332915 0 936.19163700 0 466.72617192 0 12054
0.10750000 0.10749900 16416.60383886 0 362.56770512 0 5337.27023861 0 399.84379385 0 78.75744644 0 12807
0.10850000 0.10850100 15915.35969432 0 366.64342788 0 4613.12912314 0 1169.51430897 0 292.19200857 0 12736
0.10950000 0.10950300 15719.82243802 0 306.57274404 0 4687.91160497 0 208.22946224 0 72.36727561 0 12933
0.11050000 0.11050200 15128.44956946 0 502.04578086 0 3815.51206018 0 97.96615842 0 1715.66780297 0 13428
0.11150000 0.11150900 15209.27754064 0 140.39818593 0 4456.17891884 0 368.15480022 0 895.02584055 0 13453
0.11250000 0.11250000 14831.15764808 0 154.54418812 0 4397.90527332 0 -46.79751302 0 1344.61205365 0 13668
0.11350000 0.11349100 14954.72479306 0 132.08176276 0 4698.14243310 0 -3.17633997 0 350.70592354 0 13791
0.11450000 0.11448600 14618.23684182 0 176.53936137 0 4633.43576686 0 -636.47376925 0 526.90425731 0 14205
0.11550000 0.11549300 14715.00896073 0 433.84247444 0 4640.84315216 0 25.59412171 0 -209.66000660 0 14776
0.11650000 0.11649800 14473.07866345 0 -30.20463777 0 4574.37598628 0 -212.42033718 0 -221.83513497 0 14553
0.11750000 0.11747300 14434.21480333 0 3.51409016 0 4215.54408355 0 348.59110950 0 -320.40982837 0 14568
0.11850000 0.11849100 14297.36086857 0 36.57587491 0 4274.90281691 0 473.15697817 0 -707.48501724 0 16015
0.11950000 0.11950300 14251.29999733 0 249.26349801 0 3752.01227735 0 840.21118931 0 -323.99615438 0 15270
0.12050000 0.12050700 14205.90346557 0 222.46515026 0 3687.11738158 0 360.52486119 0 -137.73861351 0 15999
0.12150000 0.12150000 13971.17017942 0 -41.15295255 0 3853.18010921 0 286.29821007 0 850.58706489 0 15670
0.12250000 0.12250700 14094.07298490 0 -71.12064256 0 3818.81161298 0 278.21209125 0 1063.43479381 0 16887
0.12350000 0.12352200 14101.82361228 0 73.37884321 0 4101.42163165 0 91.58672776 0 1143.99260026 0 16407
0.12450000 0.12449800 13904.40406076 0 335.12937698 0 3782.38366432 0 245.21767053 0 1313.52096556 0 16306
0.12550000 0.12549900 13633.35354920 0 528.35694632 0 3649.19466908 0 -13.89377463 0 1047.20055116 0 17523
0.12650000 0.12650100 13359.09206344 0 205.86441366 0 3390.46765504 0 257.65632023 0 1241.90516863 0 17154
0.12750000 0.12750600 13092.58120506 0 57.04838206 0 3330.05705083 0 19.59491468 0 733.94123016 0 18007
0.12850000 0.12850300 12975.65745497 0 308.24245063 0 3003.50097496 0 332.63146050 0 1053.48741719 0 17496
0.12950000 0.12949900 12769.49076685 0 204.33200390 0 2882.07078867 0 525.14707936 0 874.29401956 0 18405
0.13050000 0.13049000 12628.54007191 0 -108.86387268 0 2362.19192146 0 655.58792358 0 1270.00672902 0 18100
0.13150000 0.13148800 12638.06227125 0 -83.81185199 0 2710.78192373 0 341.16047231 0 498.48381396 0 19059
0.13250000 0.13249300 12681.57650779 0 352.70779987 0 2888.55917101 0 -21.51740244 0 702.79588768 0 18957
0.13350000 0.13349100 12428.35243919 0 507.00507514 0 3215.94567125 0 -579.69045865 0 866.09607027 0 19468
0.13450000 0.13450700 11902.41701030 0 558.49913618 0 3362.83113230 0 -686.13093159 0 1244.54038194 0 19953
0.13550000 0.13551000 11700.34708236 0 390.51203849 0 3773.69188934 0 -395.56876924 0 1508.89213699 0 19956
0.13650000 0.13649900 11492.51954551 0 78.91921310 0 4013.35236004 0 -348.04635112 0 719.56713808 0 19723
0.13750000 0.13749600 11399.29057054 0 129.05126746 0 4262.53503008 0 43.49862456 0 652.93388732 0 20946
0.13850000 0.13851100 11351.23668083 0 89.94215535 0 3851.17601842 0 -268.24256999 0 -36.68250140 0 20955
0.13950000 0.13949800 11496.28413595 0 -96.58211782 0 4234.69920549 0 52.80790310 0 315.45828471 0 20506
0.14050000 0.14048300 11503.48114708 0 -111.70314893 0 3903.89135688 0 169.77859984 0 168.99357201 0 21447
0.14150000 0.14148400 11549.76346483 0 -105.66563166 0 3735.40379012 0 492.20691302 0 111.66107410 0 21771
0.14250000 0.14249400 11533.04425435 0 210.89567805 0 3841.78668698 0 394.86899831 0 -416.30169746 0 22470
0.14350000 0.14350900 11380.91051134 0 300.61140436 0 3535.91371386 0 170.59241571 0 244.48246816 0 22519
0.14450000 0.14449900 11283.36332969 0 137.18942620 0 3265.78220526 0 338.73452594 0 12.62997947 0 22218
0.14550000 0.14550500 11001.97126675 0 58.62973149 0 3249.25122431 0 389.96174395 0 104.28989530 0 23559
0.14650000 0.14650700 10943.46510241 0 -10.35665403 0 2963.57417166 0 18.74201350 0 -225.91860837 0 23044
0.14750000 0.14750500 10825.94344678 0 383.24859341 0 2909.07618890 0 -15.65881393 0 -829.44667512 0 23649
0.14850000 0.14849900 10501.02607498 0 414.12044947 0 2832.41141186 0 -138.93331736 0 -435.99936331 0 23640
0.14950000 0.14949500 10121.25640602 0 217.99968166 0 2766.35392199 0 -80.25331752 0 -474.12469936 0 24457
0.15050000 0.15050000 10013.04657557 0 37.67236724 0 2537.71041448 0 264.13473748 0 -657.60530116 0 24591
0.15150000 0.15149900 10113.60542957 0 68.19522362 0 2905.75449146 0 247.90049483 0 -563.36431570 0 25020
0.15250000 0.15250500 10051.16858992 0 196.48172560 0 2838.25759936 0 -7.28955362 0 -385.00687859 0 25297
0.15350000 0.15350100 9775.60056984 0 252.47004328 0 2869.41512140 0 51.22256763 0 -142.22179783 0 25452
0.15450000 0.15450400 9654.61327654 0 239.32055033 0 2964.81427204 0 48.14778303 0 118.31554131 0 26061
0.15550000 0.15549900 9584.32615859 0 146.78691735 0 3024.43874119 0 174.27949988 0 -16.80479955 0 26128
0.15650000 0.15649500 9240.19830323 0 102.45731482 0 3014.58437210 0 225.21883744 0 230.98530420 0 26331
0.15750000 0.15749700 9329.57410917 0 200.85640114 0 2778.36739442 0 25.88720615 0 62.70113605 0 27345
0.15850000 0.15849900 9138.76473557 0 3.05170988 0 2865.96055606 0 11.86587834 0 142.11993244 0 26980
0.15950000 0.15949700 9129.59685062 0 -49.29631528 0 2737.83161326 0 261.71100558 0 121.84539847 0 27777
0.16050000 0.16050000 9260.58245322 0 -43.09924580 0 2767.46115447 0 123.29919472 0 369.43808267 0 28224
0.16150000 0.16150500 9280.76730137 0 55.13253769 0 2628.41489940 0 308.89350333 0 477.13194278 0 28075
0.16250000 0.16249700 9157.63197706 0 273.14428818 0 2885.06031637 0 19.41277493 0 657.43589459 0 28590
0.16350000 0.16349900 9034.93954574 0 202.36334455 0 2988.16580508 0 -58.81397497 0 859.78927405 0 29163
0.16450000 0.16449100 9037.71869927 0 136.38225372 0 3337.03261547 0 99.38906289 0 1073.97121811 0 28996
0.16550000 0.16550500 8924.14986361 0 22.77001454 0 3135.89276281 0 30.48056010 0 1041.20710174 0 30777
0.16650000 0.16650700 8794.13862559 0 169.96682936 0 3217.21898861 0 70.18359171 0 1057.68161384 0 29211
0.16750000 0.16749900 8762.74858472 0 89.01418381 0 3108.88736258 0 89.77972435 0 1133.36316844 0 30922
0.16850000 0.16850800 8613.08397015 0 103.63751392 0 2796.69209199 0 582.16733771 0 933.01720147 0 30867
0.16950000 0.16949900 8504.15443859 0 17.13287253 0 2301.98061910 0 354.80489819 0 517.38205796 0 30852
0.17050000 0.17049200 8532.72103662 0 93.03853099 0 2190.23871703 0 171.14381749 0 169.09211570 0 31257
0.17150000 0.17149500 8350.62558265 0 115.08020800 0 1855.96523075 0 -145.01866708 0 34.94503219 0 32608
0.17250000 0.17250900 8256.99800398 0 47.84584073 0 1742.26352719 0 -87.41611517 0 -172.82348916 0 32361
0.17350000 0.17350400 8267.02953027 0 26.81584203 0 1682.56155177 0 -26.08639727 0 -157.13621936 0 32508
0.17450000 0.17449800 8191.83737243 0 107.57217527 0 1610.62465742 0 83.10056585 0 -549.67338606 0 32791
0.17550000 0.17549800 8138.70128562 0 153.61300560 0 1826.56820836 0 -117.91029423 0 -625.05820236 0 33633
0.17650000 0.17650100 8012.54321664 0 122.36358327 0 1783.20898437 0 -129.04019513 0 -627.63805404 0 33984
0.17750000 0.17750300 7949.86278584 0 136.78860804 0 1887.04524652 0 -177.54583570 0 -318.43895455 0 34069
0.17850000 0.17849800 7910.10206742 0 86.17645768 0 1929.51868452 0 -79.16291497 0 -413.43396533 0 34536
