### header ###
fiducial parameters:
Omega_m = 0.31
Omega_nu = 0
Omega_de = 0.69
Omega_k = 0
H_0 = 100
w_de = -1
zeff = 0
beta = 0
fgrowth = 0
b_1 = 2
gamma = 0.55
Lx = 3500 Ly = 3500 Lz = 3500
nx = 700 ny = 700 nz = 700
xoffset = -685.467585 yoffset = -31.7331281 zoffset = 572.489161
bins = 400 dk = 0.001
kx_ny = 0.628318531 ky_ny = 0.628318531 kz_ny = 0.628318531
############################
A(data) = 8.07203998 (not used)
A(ran) = 8.07403603 (used)
Ngal = 479786
weighted Ngal = 0
Nran = 23820508
weighted Nran = 0
SN(data) = 3479.5862
SN(ran) = 70.327782
SN(data+ran) = 3549.91398
############################
13 columns: k_central k_mean P_0(k) sigma^{lin}_{P_0(k)} P^img_1(k) sigma^{lin}_{P_1(k)} P_2(k) sigma^{lin}_{P_2(k)} P^img_3(k) sigma^{lin}_{P_3(k)} P_4(k) sigma^{lin}_{P_4(k)} N_modes
### header ###
0.00050000 0 0 0 0 0 0 0 0 0 0 0 0
0.00150000 0.00179520 24758.27191073 0 -52209.55466386 0 -33577.15718229 0 -20328.89909028 0 -3562.33228088 0 3
0.00250000 0.00253879 48403.00011446 0 -65536.64770857 0 -64416.79277642 0 -23928.95478182 0 -42365.70428384 0 6
0.00350000 0.00331552 87706.65296970 0 -56496.75883364 0 -42885.66065733 0 -53601.89950980 0 -52596.64313952 0 7
0.00450000 0.00420575 116791.98941956 0 -30722.49039755 0 -52897.14603510 0 -56032.49625399 0 28934.30993933 0 24
0.00550000 0.00557378 93768.30791492 0 19014.61413431 0 -46596.43959705 0 -52837.46620432 0 27041.60673484 0 45
0.00650000 0.00659388 92430.99252332 0 13464.72204221 0 -88729.51433645 0 -55372.03207856 0 14365.89855920 0 40
0.00750000 0.00754703 86769.04850406 0 -23790.21855184 0 -35949.51349793 0 -8850.88429028 0 -35125.40036168 0 57
0.00850000 0.00846663 97971.25169283 0 -14675.37003788 0 -58291.80413324 0 -47630.15184212 0 -24046.43214814 0 75
0.00950000 0.00948925 94354.14462107 0 20797.03698362 0 -39164.25228578 0 -55598.79329085 0 -26554.53516606 0 112
0.01050000 0.01054430 82655.45838744 0 2440.06358191 0 -35982.06613290 0 -33320.27924650 0 7252.47240714 0 105
0.01150000 0.01145670 88633.07438728 0 -3053.92434218 0 -35253.17499009 0 -25274.57441703 0 -13247.26158277 0 144
0.01250000 0.01249090 88127.29058956 0 -5555.81578588 0 -15044.63207058 0 -1531.45753497 0 -46411.42104933 0 169
0.01350000 0.01339930 87618.07437115 0 5477.93305310 0 -6107.73796111 0 -7054.39958846 0 -32760.35178042 0 180
0.01450000 0.01448870 85023.05360341 0 11111.41012526 0 -8911.23953287 0 -20567.28624363 0 -24603.14864002 0 267
0.01550000 0.01550050 70935.40256690 0 7838.61913839 0 -1636.23494473 0 -8091.01278263 0 640.74215047 0 238
0.01650000 0.01653350 63238.36524597 0 7967.73351810 0 4799.13310777 0 8576.04704363 0 14964.02554590 0 315
0.01750000 0.01747870 65876.67880376 0 -804.98348066 0 3340.57575941 0 18051.32187509 0 36630.12930453 0 297
0.01850000 0.01844180 66960.77012675 0 -9013.28207840 0 2582.13258166 0 15312.25016145 0 7143.03354863 0 388
0.01950000 0.01947590 69824.84838759 0 -540.54203979 0 -3788.92740829 0 6865.15141266 0 3479.22341079 0 399
0.02050000 0.02045430 67886.74865133 0 5649.78660661 0 11714.07676514 0 -14276.54489791 0 7456.53535354 0 462
0.02150000 0.02154770 65515.94246116 0 3955.00120825 0 4426.63795622 0 -19240.48956061 0 11645.98196750 0 571
0.02250000 0.02255340 64376.37879083 0 -2178.98923501 0 19272.37785609 0 -3152.02514007 0 10444.91153280 0 510
0.02350000 0.02348930 68745.07527127 0 -4838.96026014 0 12021.99811834 0 -150.72202159 0 -6938.50556458 0 555
0.02450000 0.02439640 71718.54810132 0 -4269.88705376 0 20150.63466070 0 7889.54076023 0 -4054.18709397 0 592
0.02550000 0.02547300 74025.68842378 0 1834.57349920 0 13129.23060021 0 2994.74276602 0 -10456.53747386 0 837
0.02650000 0.02652900 69057.86844740 0 6425.49153876 0 16736.81547262 0 -403.80214997 0 1294.60943477 0 723
0.02750000 0.02749970 65897.71622091 0 3752.02334967 0 10716.81461337 0 -3198.16351759 0 2493.08894547 0 826
0.02850000 0.02848090 63337.57327634 0 1692.50449945 0 14206.45708181 0 3768.90864502 0 9630.02164312 0 831
0.02950000 0.02946900 61669.19537267 0 -1908.84665408 0 14796.94416439 0 9559.14769196 0 -113.28538415 0 996
0.03050000 0.03053250 62971.52221784 0 1062.74720244 0 14541.72707732 0 6175.88812037 0 993.16539158 0 1041
0.03150000 0.03150510 60250.71984015 0 5582.20113592 0 9645.36788532 0 4360.62475565 0 2407.38915137 0 1036
0.03250000 0.03246190 53427.73184041 0 4298.89654479 0 7473.45386587 0 -111.37540812 0 448.58527494 0 1059
0.03350000 0.03345080 52313.41307066 0 3695.69843332 0 9320.02976517 0 -1648.04911531 0 5948.17468815 0 1302
0.03450000 0.03451200 49595.48949743 0 2209.15024782 0 8516.01289847 0 -5854.90142388 0 -4131.91481420 0 1339
0.03550000 0.03553350 47226.01198623 0 4192.92332395 0 15388.75992595 0 -9636.00069852 0 899.82126443 0 1365
0.03650000 0.03647120 47009.43731278 0 2416.15843263 0 17440.46171484 0 -5127.91472093 0 -4380.98676099 0 1308
0.03750000 0.03744890 42858.97635451 0 91.63666394 0 17659.02940676 0 -552.96740270 0 3689.53114839 0 1579
0.03850000 0.03847530 47212.50374996 0 -2015.92710741 0 18890.49337309 0 2590.01607693 0 -4045.94928431 0 1662
0.03950000 0.03950240 48258.83844532 0 -2489.96654987 0 20263.79382035 0 5943.62396265 0 -7902.34036772 0 1683
0.04050000 0.04050350 48677.70449321 0 -1481.43277144 0 19206.60824666 0 3479.88775028 0 -7251.15480048 0 1822
0.04150000 0.04152450 48647.80921620 0 2869.03866236 0 16937.99961457 0 -179.91863491 0 -4345.93178062 0 1887
0.04250000 0.04250150 46452.05648141 0 3218.78018640 0 18621.43588000 0 -5571.46098085 0 -6255.99639043 0 1920
0.04350000 0.04349210 44304.91125258 0 3139.54663000 0 18932.90037715 0 -1704.35188701 0 -5451.51448608 0 2005
0.04450000 0.04448520 41617.10440285 0 3207.13210070 0 20282.83821904 0 -592.34944761 0 -5085.93953755 0 2151
0.04550000 0.04548030 39398.65340219 0 909.89708002 0 15862.21253519 0 3030.30707334 0 -7241.37793767 0 2274
0.04650000 0.04648670 39143.65776162 0 796.62387542 0 17889.44448624 0 5365.25000342 0 -8265.45726015 0 2311
0.04750000 0.04749250 37923.26612010 0 -153.26644184 0 12002.51082666 0 4562.87184079 0 -10150.50948819 0 2568
0.04850000 0.04851840 36766.98323929 0 472.82591566 0 11211.83611136 0 3345.31471443 0 -6260.12636759 0 2493
0.04950000 0.04949480 37079.88713867 0 1597.71432668 0 11200.43161680 0 -851.67215273 0 -7769.81571196 0 2644
0.05050000 0.05050630 35677.57720039 0 657.68834360 0 9856.00779267 0 185.49687215 0 -6129.26256056 0 2829
0.05150000 0.05149060 35235.23782388 0 1307.54191016 0 12006.16469385 0 -3343.62064873 0 -7235.11100182 0 2784
0.05250000 0.05249300 35200.91361694 0 865.12613461 0 11529.94400340 0 -744.98919587 0 -2984.02475560 0 3055
0.05350000 0.05348950 34964.07658907 0 -741.39290476 0 12880.98907777 0 953.98486298 0 -3202.70317077 0 3009
0.05450000 0.05448610 35359.91220134 0 -1153.20477451 0 12379.74493323 0 2969.12140639 0 -5832.75677424 0 3336
0.05550000 0.05550870 36588.49736322 0 -454.24655461 0 13438.36990914 0 2125.49883381 0 -8334.19425262 0 3349
0.05650000 0.05647670 36092.01431835 0 1057.75247672 0 10437.82524491 0 1645.08173226 0 -5934.44500537 0 3324
0.05750000 0.05747970 35219.18295289 0 746.14625381 0 10995.31679953 0 1087.49163395 0 -4351.19113491 0 3639
0.05850000 0.05849280 34730.89342839 0 -165.45153530 0 9674.74276306 0 773.16383360 0 -4766.43653258 0 3846
0.05950000 0.05951020 34490.73470308 0 322.11385916 0 10625.99940521 0 -256.73067387 0 -5899.84399032 0 3787
0.06050000 0.06049470 34469.14366968 0 1582.92170072 0 11604.35002618 0 -638.04382491 0 -3847.11247521 0 3930
0.06150000 0.06148310 33015.23669774 0 1378.72588642 0 11641.66376082 0 -1285.90658746 0 -3424.65899408 0 4083
0.06250000 0.06249100 31940.99974384 0 874.96057352 0 12818.76261229 0 408.56657134 0 -750.02710366 0 4303
0.06350000 0.06350600 32485.86884816 0 340.32783349 0 12169.81365467 0 1507.88455543 0 -1659.60862242 0 4470
0.06450000 0.06451750 31614.36616169 0 664.45574853 0 12446.95394488 0 1884.83078155 0 -1493.06978482 0 4479
0.06550000 0.06550280 30766.11535733 0 948.15971289 0 10819.06753307 0 275.77064363 0 -2541.76288537 0 4636
0.06650000 0.06648880 30715.18266317 0 -84.20237289 0 11119.49292237 0 759.67109857 0 692.51080515 0 4653
0.06750000 0.06749660 29810.68444873 0 149.38005583 0 11615.20090450 0 639.24406492 0 244.23444808 0 5220
0.06850000 0.06852730 31204.69014340 0 -238.22771187 0 11529.39038716 0 -221.99568368 0 -418.03783799 0 5029
0.06950000 0.06949320 30436.38152423 0 -757.11782047 0 11211.17177187 0 791.74540911 0 530.71535151 0 5040
0.07050000 0.07048030 31745.57321079 0 266.48760650 0 11224.01566866 0 419.46284620 0 1266.38607881 0 5475
0.07150000 0.07148790 31633.18911388 0 1.53276407 0 11626.82684556 0 1504.60714728 0 969.42521994 0 5509
0.07250000 0.07249820 30822.25204416 0 1007.84065090 0 10820.31870577 0 1428.41848020 0 -82.03097927 0 5916
0.07350000 0.07351270 30002.45711459 0 1341.51180270 0 9757.68554828 0 281.42417268 0 -355.42605561 0 5721
0.07450000 0.07449140 28463.84685779 0 1144.24726373 0 10721.47606212 0 82.17846263 0 452.44508737 0 6028
0.07550000 0.07549160 27543.29377237 0 1280.94618594 0 10127.15795515 0 -624.33407232 0 165.59104659 0 6183
0.07650000 0.07648840 26491.31219135 0 548.06679173 0 9889.53479222 0 1116.93183841 0 1496.56863946 0 6330
0.07750000 0.07749960 25953.30792841 0 426.43951807 0 9777.66002225 0 1551.85275728 0 -163.14406281 0 6583
0.07850000 0.07848650 25939.79969213 0 114.94734010 0 8469.17696448 0 1541.44477195 0 689.97413554 0 6549
0.07950000 0.07947320 25549.72168877 0 166.95626424 0 8801.93354226 0 516.21392769 0 -1909.21204080 0 6828
0.08050000 0.08048110 25467.78648511 0 627.24830821 0 8461.18274596 0 73.80058806 0 1166.27011780 0 7147
0.08150000 0.08149960 25167.61575928 0 922.45863252 0 9364.80624674 0 -374.28111754 0 1021.23816393 0 7386
0.08250000 0.08250610 24367.19739814 0 475.53309908 0 8303.70107007 0 677.40040347 0 2266.42738410 0 7227
0.08350000 0.08350160 24244.51603915 0 85.23320633 0 8252.81266520 0 1774.20718429 0 1421.44291557 0 7798
0.08450000 0.08449610 23911.23906211 0 334.39971078 0 7692.05477476 0 648.95338655 0 665.88850736 0 7371
0.08550000 0.08548940 23466.02088115 0 704.48663168 0 7984.88454924 0 21.54397602 0 383.39696257 0 8256
0.08650000 0.08650700 22465.63633379 0 1031.07371006 0 8806.93823308 0 -963.42069819 0 1065.17093434 0 8037
0.08750000 0.08749060 21804.17564912 0 892.34855241 0 7669.54473841 0 484.64340794 0 1600.98066250 0 8155
0.08850000 0.08849210 21079.60271299 0 170.10301896 0 8109.73608390 0 374.02313237 0 779.04988147 0 8718
0.08950000 0.08949900 21210.36686910 0 255.06207452 0 7064.77435681 0 1910.86181720 0 -198.66850976 0 8571
0.09050000 0.09049190 20869.22854143 0 -29.68180259 0 6881.06234342 0 83.33939589 0 102.26653866 0 8932
0.09150000 0.09150830 20879.85797326 0 419.16167896 0 6793.54668805 0 138.03313735 0 290.10376811 0 9285
0.09250000 0.09250820 20621.42991199 0 225.72373545 0 7307.03682384 0 32.60234971 0 686.43209883 0 9204
0.09350000 0.09350330 20313.73000528 0 449.39023295 0 6762.78776971 0 -1107.15497559 0 89.52716462 0 9349
0.09450000 0.09448040 19848.13874666 0 1041.01001436 0 7816.74022454 0 -97.65801562 0 1408.23363206 0 9564
0.09550000 0.09549270 19367.82129602 0 273.36684191 0 8320.50885914 0 -236.47496285 0 388.14698991 0 10155
0.09650000 0.09649430 18861.48388207 0 -53.23064446 0 7884.14853804 0 902.55280696 0 819.48822618 0 9913
0.09750000 0.09749140 19084.70195041 0 271.10365872 0 8054.09765168 0 898.61105933 0 -341.65319077 0 10476
0.09850000 0.09850240 18396.66768618 0 649.12057866 0 7209.04674920 0 1051.62837386 0 321.64549982 0 10575
0.09950000 0.09950330 18235.01174383 0 139.30313301 0 6519.14126207 0 470.74653306 0 -590.97758657 0 10882
0.10050000 0.10051200 17961.30387431 0 226.97490815 0 6127.86744763 0 502.86181120 0 12.15209793 0 10875
0.10150000 0.10150300 17744.50775436 0 404.43659419 0 6621.10630133 0 -357.73131364 0 -309.41058089 0 11118
0.10250000 0.10250800 17554.50666047 0 115.67811354 0 6479.07051855 0 177.56022972 0 501.22199989 0 11575
0.10350000 0.10349800 17621.05133263 0 277.19343737 0 6956.58667101 0 606.86747992 0 952.34505167 0 11364
0.10450000 0.10450100 17265.40825946 0 -21.90460164 0 6019.76834043 0 625.71700569 0 269.93885015 0 12093
0.10550000 0.10551000 17344.46465866 0 16.92050534 0 6553.02257602 0 541.53412009 0 203.62558958 0 12067
0.10650000 0.10649700 16875.21953285 0 696.94859294 0 6379.95106678 0 134.94617319 0 760.88019645 0 12054
0.10750000 0.10749900 16450.59587606 0 557.04423270 0 6376.29719959 0 531.97648931 0 1197.87053283 0 12807
0.10850000 0.10850100 16150.09298048 0 248.15737277 0 5695.33815092 0 461.56757578 0 1676.81501519 0 12736
0.10950000 0.10950300 16039.59117879 0 13.15702214 0 5701.64937606 0 269.70965302 0 923.79838383 0 12933
0.11050000 0.11050200 15836.41401837 0 446.20915403 0 5564.36362064 0 439.91232290 0 364.46550159 0 13428
0.11150000 0.11150900 15667.56106488 0 328.56902453 0 5531.93278124 0 -381.74497170 0 1011.76800451 0 13453
0.11250000 0.11250000 15260.09951155 0 217.93546217 0 5681.57525117 0 160.55756773 0 1319.38929771 0 13668
0.11350000 0.11349100 15297.08107645 0 -23.30026818 0 5843.03189167 0 -4.22042698 0 1010.75156509 0 13791
0.11450000 0.11448600 15163.88100888 0 105.17368826 0 5350.50166676 0 693.83173351 0 245.72810470 0 14205
0.11550000 0.11549300 15289.33044908 0 211.56001754 0 5314.90414247 0 35.18674104 0 580.79436943 0 14776
0.11650000 0.11649800 14962.91831342 0 320.10091051 0 4922.30164905 0 -123.11982305 0 300.10761358 0 14553
0.11750000 0.11747300 14755.09077658 0 247.21511792 0 4771.60730827 0 405.46410593 0 563.19269467 0 14568
0.11850000 0.11849100 14611.92561667 0 205.89098724 0 4599.33300642 0 601.18405559 0 494.48116854 0 16015
0.11950000 0.11950300 14336.66762168 0 244.32745561 0 4397.60632055 0 506.18572311 0 653.03685994 0 15270
0.12050000 0.12050700 13968.95571445 0 317.27414598 0 4042.83796103 0 471.46180524 0 251.18454637 0 15999
0.12150000 0.12150000 13731.56507034 0 299.08453077 0 4134.48359356 0 301.40418282 0 532.36291344 0 15670
0.12250000 0.12250700 13471.47616035 0 101.80327259 0 3996.61100491 0 329.99513997 0 60.98725089 0 16887
0.12350000 0.12352200 13411.46415983 0 51.80574698 0 3917.41066549 0 319.02135884 0 779.59463985 0 16407
0.12450000 0.12449800 13335.61873483 0 -44.52480762 0 3552.23432064 0 195.51954058 0 336.12145729 0 16306
0.12550000 0.12549900 13333.07210012 0 65.50785966 0 3511.82033505 0 -45.48223155 0 639.11673318 0 17523
0.12650000 0.12650100 13292.10449829 0 269.08960284 0 4085.83179830 0 -131.89574770 0 26.73589985 0 17154
0.12750000 0.12750600 12840.79653868 0 431.94357073 0 3446.62648652 0 -97.41807834 0 423.37359132 0 18007
0.12850000 0.12850300 12761.18652323 0 93.61772430 0 3597.07723616 0 42.31942197 0 232.10028731 0 17496
0.12950000 0.12949900 12968.46044384 0 -238.63295896 0 3767.87891881 0 430.26611352 0 210.71077023 0 18405
0.13050000 0.13049000 13056.04253315 0 -210.69194728 0 3522.40547758 0 333.45856317 0 110.67862672 0 18100
0.13150000 0.13148800 13086.93431940 0 322.08174942 0 3815.81101295 0 81.70988185 0 385.96906362 0 19059
0.13250000 0.13249300 12870.24892270 0 448.72810793 0 3805.53589552 0 146.19786967 0 1014.88818564 0 18957
0.13350000 0.13349100 12442.52501495 0 435.80227593 0 4170.76760199 0 -45.73523417 0 660.40217041 0 19468
0.13450000 0.13450700 12116.11287930 0 443.97254442 0 3896.98222620 0 -124.48836240 0 1434.01000424 0 19953
0.13550000 0.13551000 11898.20952687 0 176.33120167 0 4070.07588009 0 164.97653257 0 1240.27753689 0 19956
0.13650000 0.13649900 11857.90626453 0 -181.35803713 0 4032.87286870 0 118.55027460 0 1435.00651347 0 19723
0.13750000 0.13749600 11981.03051651 0 -177.04868832 0 3758.65567224 0 649.31766604 0 1181.52778140 0 20946
0.13850000 0.13851100 11894.22348993 0 255.18829903 0 3217.08612071 0 673.06669554 0 674.52381349 0 20955
0.13950000 0.13949800 11691.48922251 0 285.59290298 0 3026.42068733 0 588.49738581 0 745.88162525 0 20506
0.14050000 0.14048300 11305.72942582 0 322.62318610 0 2827.65031219 0 -79.33099286 0 370.07917027 0 21447
0.14150000 0.14148400 11160.46052420 0 181.30267551 0 2743.01346127 0 -384.22295800 0 235.45741620 0 21771
0.14250000 0.14249400 11031.44579542 0 181.11555322 0 2815.74756301 0 -263.82249792 0 136.02240316 0 22470
0.14350000 0.14350900 10980.34701638 0 224.57885706 0 3153.40918068 0 -419.95777912 0 531.44169602 0 22519
0.14450000 0.14449900 10921.80763506 0 -76.61218350 0 3032.07864531 0 -42.17681042 0 95.18036150 0 22218
0.14550000 0.14550500 11031.37936147 0 -101.60031688 0 3083.25493062 0 315.07407504 0 -276.97531257 0 23559
0.14650000 0.14650700 11180.50143212 0 -26.41945280 0 2894.06211645 0 104.72669851 0 37.69484406 0 23044
0.14750000 0.14750500 10904.82268879 0 264.73375025 0 3023.70796775 0 313.23606912 0 -258.31512355 0 23649
0.14850000 0.14849900 10794.43161035 0 301.86922046 0 2831.79136167 0 100.34305439 0 16.71123840 0 23640
0.14950000 0.14949500 10542.71337792 0 248.78185189 0 2754.94942743 0 117.15737614 0 -150.11747266 0 24457
0.15050000 0.15050000 10275.11743170 0 255.06982515 0 3050.99017610 0 -85.47856905 0 306.58160190 0 24591
0.15150000 0.15149900 10136.44763568 0 183.58468166 0 2936.00408286 0 61.30403010 0 -124.48061177 0 25020
0.15250000 0.15250500 10034.77047687 0 117.44304212 0 3220.81749417 0 15.60101639 0 304.54983030 0 25297
0.15350000 0.15350100 9856.22923916 0 207.06686813 0 3025.19165928 0 -67.38495089 0 271.30074610 0 25452
0.15450000 0.15450400 9864.72171230 0 102.43649885 0 2879.63487721 0 246.77776109 0 501.81658373 0 26061
0.15550000 0.15549900 9627.45286376 0 147.42689773 0 3129.32687419 0 -21.77483399 0 633.18196708 0 26128
0.15650000 0.15649500 9695.65838464 0 268.34554261 0 3243.70398957 0 217.72065907 0 537.99319061 0 26331
0.15750000 0.15749700 9301.40611483 0 163.82943971 0 3127.56637455 0 83.33131309 0 941.12878663 0 27345
0.15850000 0.15849900 9308.30417319 0 134.44570411 0 3123.17066160 0 -53.15623844 0 750.98928868 0 26980
0.15950000 0.15949700 9173.47647387 0 132.48922431 0 3145.25994961 0 236.55579082 0 807.40831980 0 27777
0.16050000 0.16050000 9064.09297699 0 50.02830667 0 3173.69367974 0 88.58612773 0 578.96300691 0 28224
0.16150000 0.16150500 8961.50788754 0 228.22497363 0 3235.12293784 0 61.47299378 0 839.05080966 0 28075
0.16250000 0.16249700 8897.97488774 0 114.30957420 0 2921.76507314 0 202.80513031 0 785.02561518 0 28590
0.16350000 0.16349900 8903.09030180 0 -148.53080851 0 2949.51231914 0 70.04706995 0 789.03711846 0 29163
0.16450000 0.16449100 9113.96272797 0 -186.15124655 0 2763.15402012 0 259.87742859 0 662.67310423 0 28996
0.16550000 0.16550500 9144.43376587 0 -45.59018672 0 2836.02098975 0 -7.00980026 0 216.42519707 0 30777
0.16650000 0.16650700 9117.46158262 0 255.01889246 0 2651.88822801 0 -21.41885875 0 258.12357233 0 29211
0.16750000 0.16749900 8886.18286180 0 286.59162668 0 2674.28754112 0 -108.31025644 0 186.36162072 0 30922
0.16850000 0.16850800 8564.66469372 0 245.60741636 0 2636.25410537 0 -194.69022345 0 -213.37920051 0 30867
0.16950000 0.16949900 8371.56334888 0 260.56059103 0 2725.29774156 0 84.49756107 0 -4.66651987 0 30852
0.17050000 0.17049200 8106.15972298 0 208.65463951 0 2572.18963397 0 320.36000291 0 -205.32186974 0 31257
0.17150000 0.17149500 8004.95867414 0 82.08213341 0 2393.93627671 0 347.56027606 0 -18.73559155 0 32608
0.17250000 0.17250900 7973.90080302 0 -38.24724234 0 2123.78262346 0 350.29181859 0 -238.86769224 0 32361
0.17350000 0.17350400 8007.25064537 0 -79.40573105 0 1887.05631884 0 319.26162829 0 -222.22488081 0 32508
0.17450000 0.17449800 8120.17728620 0 -100.72538177 0 1648.02697066 0 -24.54446532 0 -142.82856123 0 32791
0.17550000 0.17549800 8262.13556270 0 73.92913775 0 2026.40152668 0 -16.02685801 0 -264.64406442 0 33633
0.17650000 0.17650100 8106.64690527 0 132.90443650 0 1600.62634811 0 -235.61796491 0 -183.96556963 0 33984
0.17750000 0.17750300 8034.04567144 0 205.46691719 0 2045.76702279 0 -13.56581237 0 25.42471514 0 34069
0.17850000 0.17849800 7870.10883017 0 129.68460444 0 1813.42535880 0 55.91789769 0 -116.39449296 0 34536
