### header ###
fiducial parameters:
Omega_m = 0.31
Omega_nu = 0
Omega_de = 0.69
Omega_k = 0
H_0 = 100
w_de = -1
zeff = 0
beta = 0
fgrowth = 0
b_1 = 2
gamma = 0.55
Lx = 3500 Ly = 3500 Lz = 3500
nx = 700 ny = 700 nz = 700
xoffset = -685.467585 yoffset = -31.7331281 zoffset = 572.489161
bins = 400 dk = 0.001
kx_ny = 0.628318531 ky_ny = 0.628318531 kz_ny = 0.628318531
############################
A(data) = 7.95257235 (not used)
A(ran) = 7.95175615 (used)
Ngal = 472400
weighted Ngal = 0
Nran = 23820508
weighted Nran = 0
SN(data) = 3488.42825
SN(ran) = 69.2626799
SN(data+ran) = 3557.69093
############################
13 columns: k_central k_mean P_0(k) sigma^{lin}_{P_0(k)} P^img_1(k) sigma^{lin}_{P_1(k)} P_2(k) sigma^{lin}_{P_2(k)} P^img_3(k) sigma^{lin}_{P_3(k)} P_4(k) sigma^{lin}_{P_4(k)} N_modes
### header ###
0.00050000 0 0 0 0 0 0 0 0 0 0 0 0
0.00150000 0.00179520 16691.64038736 0 -8361.88613699 0 28220.14498853 0 -8577.28714401 0 -59123.11428062 0 3
0.00250000 0.00253879 33229.37545974 0 -6686.21157126 0 -96.25404484 0 13142.51738999 0 19649.50123941 0 6
0.00350000 0.00331552 42773.71945341 0 -19110.50046724 0 -21635.54414213 0 15133.87500862 0 58621.87013608 0 7
0.00450000 0.00420575 40616.05551600 0 -14136.14781921 0 -25270.69910334 0 -16287.38980823 0 585.66508512 0 24
0.00550000 0.00557378 60605.92002034 0 1356.12727146 0 -5996.11785461 0 -32178.83328094 0 -18609.92066219 0 45
0.00650000 0.00659388 44221.97953969 0 -9393.80466544 0 -13160.23310970 0 -18316.72550099 0 8279.98415031 0 40
0.00750000 0.00754703 61017.58905709 0 -8768.05222831 0 -18460.77644688 0 6410.78749140 0 6494.07351868 0 57
0.00850000 0.00846663 64905.30374742 0 -16901.35021942 0 -9927.21391358 0 -33502.19754327 0 -17279.91300497 0 75
0.00950000 0.00948925 87862.66202640 0 -4888.15459931 0 2876.43497534 0 -15846.26838745 0 -39218.28523089 0 112
0.01050000 0.01054430 81714.64294760 0 11992.98862732 0 13131.33434192 0 -49971.61637151 0 -14274.77332594 0 105
0.01150000 0.01145670 69719.43985531 0 15070.20914091 0 15243.26957783 0 -16798.93121485 0 -15285.67658189 0 144
0.01250000 0.01249090 64460.74990595 0 2085.07377590 0 38601.99963149 0 -11815.94215347 0 -2069.15177281 0 169
0.01350000 0.01339930 68290.77778396 0 -4855.14799903 0 36523.50281653 0 10633.75003258 0 -32069.43871173 0 180
0.01450000 0.01448870 72825.66985994 0 -2935.60547917 0 36351.43888885 0 11645.87124425 0 -6678.13984647 0 267
0.01550000 0.01550050 80782.35319787 0 -1792.26614607 0 38844.70499151 0 -2529.45046017 0 -15536.57546228 0 238
0.01650000 0.01653350 73510.27170347 0 2184.53646974 0 30357.98946452 0 9099.94516475 0 4595.18088461 0 315
0.01750000 0.01747870 80919.76074886 0 1819.49299280 0 35271.22287954 0 1089.16576946 0 -20084.31143504 0 297
0.01850000 0.01844180 74806.28732350 0 -698.39906749 0 39664.38919784 0 6318.89826773 0 -10450.02694686 0 388
0.01950000 0.01947590 78985.31487980 0 2827.78318008 0 38378.78156314 0 3827.44802634 0 -26695.37513776 0 399
0.02050000 0.02045430 66384.89851293 0 3912.15131120 0 22987.47500249 0 594.82079051 0 -25055.34238562 0 462
0.02150000 0.02154770 66874.84888616 0 4346.44110756 0 25507.09323822 0 -1405.38804458 0 -22829.58365057 0 571
0.02250000 0.02255340 62224.02956933 0 3929.62343976 0 14843.22648213 0 5306.65526048 0 -18634.50122329 0 510
0.02350000 0.02348930 59288.64553666 0 3167.93607084 0 15333.06613211 0 1618.87353941 0 -16242.43616947 0 555
0.02450000 0.02439640 58986.14962262 0 4295.53055804 0 16628.08524290 0 -282.24906088 0 -21824.99161978 0 592
0.02550000 0.02547300 55379.56125944 0 1405.56520178 0 22392.22682024 0 -2212.79304268 0 -17422.41382539 0 837
0.02650000 0.02652900 50704.49355126 0 3818.90019158 0 26409.48771094 0 -4308.69555225 0 -7824.45763494 0 723
0.02750000 0.02749970 54369.98668247 0 2670.05791304 0 28600.36862280 0 -1838.16093244 0 -5356.64680704 0 826
0.02850000 0.02848090 50869.02829807 0 -1453.28692175 0 32579.76216263 0 7092.34444561 0 2121.57923083 0 831
0.02950000 0.02946900 54405.97173813 0 -3074.44136007 0 20947.50987790 0 9162.65881252 0 4290.86910929 0 996
0.03050000 0.03053250 56017.65933874 0 -948.98903002 0 19397.16295679 0 7128.99384076 0 -3402.42576585 0 1041
0.03150000 0.03150510 55136.96662266 0 906.24542729 0 16095.72786562 0 5934.55572862 0 2908.11289664 0 1036
0.03250000 0.03246190 54588.33292790 0 2240.94996470 0 14294.92495711 0 4808.95425988 0 4880.14930847 0 1059
0.03350000 0.03345080 52531.09497659 0 1658.61211318 0 8532.20063735 0 2265.38658557 0 6617.83996551 0 1302
0.03450000 0.03451200 51790.57789272 0 650.51458435 0 13326.65015172 0 -1786.28709067 0 3047.83456353 0 1339
0.03550000 0.03553350 52595.86807678 0 -552.25213051 0 12528.00336255 0 -1184.17406703 0 2150.81016835 0 1365
0.03650000 0.03647120 52107.13565929 0 629.89902277 0 13500.81782112 0 -2116.69633558 0 1150.61385050 0 1308
0.03750000 0.03744890 53399.38668887 0 -296.10828986 0 12706.26779213 0 -557.93444761 0 2848.18947472 0 1579
0.03850000 0.03847530 52838.68416005 0 191.26998231 0 11580.98742081 0 -964.80584602 0 -4814.63436252 0 1662
0.03950000 0.03950240 51458.62959466 0 2854.68892939 0 12131.72485729 0 2215.87114898 0 -3562.54265505 0 1683
0.04050000 0.04050350 48063.52263552 0 2828.65789374 0 8036.78053567 0 644.48459625 0 -3398.49509054 0 1822
0.04150000 0.04152450 48366.79361230 0 1941.33285510 0 9345.68434178 0 1709.14620366 0 -6941.56152623 0 1887
0.04250000 0.04250150 42479.74922947 0 1580.04289627 0 7685.20100570 0 -2015.90496276 0 -1981.82434696 0 1920
0.04350000 0.04349210 42849.23270867 0 3333.34553130 0 11445.46216503 0 3288.09293977 0 -4528.21546411 0 2005
0.04450000 0.04448520 39382.70925445 0 1400.36120911 0 11605.67870516 0 -2466.38249800 0 6.82745015 0 2151
0.04550000 0.04548030 40742.72291192 0 -690.53771687 0 11336.84265856 0 3828.57740347 0 -3710.57963787 0 2274
0.04650000 0.04648670 40634.54629845 0 -1034.29464935 0 12149.77274675 0 2087.08893902 0 -1285.06509078 0 2311
0.04750000 0.04749250 41563.73579723 0 -102.07554106 0 11729.02440364 0 -254.22389953 0 -2994.08949886 0 2568
0.04850000 0.04851840 40823.55088310 0 1537.48087967 0 11031.34614449 0 -302.42062224 0 -2953.67551327 0 2493
0.04950000 0.04949480 39354.36410291 0 3193.36920095 0 13227.66356784 0 -1916.30940101 0 -2956.34394355 0 2644
0.05050000 0.05050630 37201.79343492 0 1671.98748156 0 13449.66368046 0 -395.59202112 0 -2562.37955418 0 2829
0.05150000 0.05149060 35457.12721325 0 551.90003059 0 13122.03358907 0 -924.20584538 0 -2762.84399502 0 2784
0.05250000 0.05249300 35760.50891328 0 34.28024981 0 14326.70252934 0 1516.58740273 0 -4691.98622050 0 3055
0.05350000 0.05348950 35430.77508018 0 76.99107846 0 15119.48098636 0 2297.72884637 0 -2056.15286347 0 3009
0.05450000 0.05448610 36627.25050008 0 611.93085405 0 12753.54661911 0 2323.69344807 0 -3834.04713193 0 3336
0.05550000 0.05550870 34135.86669264 0 551.82363154 0 13822.57958035 0 692.43551335 0 799.15168718 0 3349
0.05650000 0.05647670 33602.06991313 0 1549.45006280 0 11248.37478326 0 1970.15411661 0 676.00971948 0 3324
0.05750000 0.05747970 32582.97313682 0 1310.48714856 0 11324.66310126 0 1363.10283610 0 2688.77014199 0 3639
0.05850000 0.05849280 31996.80426092 0 591.90987632 0 11360.09454068 0 4635.14090488 0 6857.78831665 0 3846
0.05950000 0.05951020 31321.94606323 0 142.55286034 0 9657.33706845 0 2339.79260835 0 7581.98479374 0 3787
0.06050000 0.06049470 32137.86567911 0 -805.37544096 0 9925.17660581 0 1507.20914361 0 7728.74845921 0 3930
0.06150000 0.06148310 32403.71219801 0 119.21793579 0 10098.44741690 0 1252.27993699 0 4460.84036759 0 4083
0.06250000 0.06249100 32707.97968403 0 1593.58434952 0 11808.85586558 0 -2441.84622620 0 8344.62438260 0 4303
0.06350000 0.06350600 30726.47643448 0 1093.03997591 0 12528.11408580 0 -2650.08343907 0 7994.53961648 0 4470
0.06450000 0.06451750 31075.36538952 0 321.20149959 0 13380.79382009 0 -171.22353823 0 10193.78013359 0 4479
0.06550000 0.06550280 30927.77129968 0 -720.43520835 0 14754.42643709 0 1866.92683232 0 6058.17823522 0 4636
0.06650000 0.06648880 31932.69550022 0 -144.15724021 0 13188.68898448 0 2963.52988236 0 4048.75058249 0 4653
0.06750000 0.06749660 30839.85704062 0 627.66905655 0 12336.67358969 0 498.29004828 0 3495.38900502 0 5220
0.06850000 0.06852730 31266.80588563 0 392.62463807 0 10743.67607338 0 442.58296765 0 1642.83405032 0 5029
0.06950000 0.06949320 29828.17872194 0 32.37857802 0 10200.34602220 0 -273.74108649 0 2016.14855390 0 5040
0.07050000 0.07048030 29556.35314765 0 1182.49107366 0 8944.26827780 0 -525.37184755 0 -462.42568096 0 5475
0.07150000 0.07148790 28891.23859579 0 1424.66496209 0 8725.60093496 0 464.41648496 0 -1315.39218846 0 5509
0.07250000 0.07249820 27503.76557277 0 785.05329599 0 7185.46269733 0 856.19851911 0 -1636.21280008 0 5916
0.07350000 0.07351270 27019.24063870 0 1150.61385050 0 8553.11625893 0 287.93580691 0 -3188.87383707 0 5721
0.07450000 0.07449140 25822.10087931 0 875.11669330 0 8457.19670903 0 -992.47890744 0 -2802.00680791 0 6028
0.07550000 0.07549160 25395.70565054 0 653.28377279 0 9125.01290814 0 -18.57382488 0 -3943.24239929 0 6183
0.07650000 0.07648840 25598.55064122 0 -248.42643026 0 8809.88347148 0 -618.18782481 0 -2884.57313408 0 6330
0.07750000 0.07749960 25645.60802170 0 -49.28446789 0 9791.75509175 0 118.89905283 0 -2147.32238603 0 6583
0.07850000 0.07848650 25982.42814268 0 59.18722304 0 9077.66764722 0 518.77827812 0 -2864.83117893 0 6549
0.07950000 0.07947320 25303.25173831 0 637.60314638 0 9973.99448594 0 117.81285777 0 -2612.34895609 0 6828
0.08050000 0.08048110 24215.17437838 0 1527.91439102 0 10446.97098521 0 -41.88516539 0 -1184.62803235 0 7147
0.08150000 0.08149960 23443.76550826 0 1220.26984594 0 11002.79061879 0 1355.85046334 0 -2183.47352656 0 7386
0.08250000 0.08250610 22040.79123049 0 388.28317951 0 9835.65685965 0 1364.13256231 0 -33.43941746 0 7227
0.08350000 0.08350160 21801.73973766 0 531.68639440 0 8905.61479186 0 1557.87610198 0 -1152.77295384 0 7798
0.08450000 0.08449610 21356.52155670 0 -306.81190626 0 9420.67719777 0 903.23596941 0 -411.16303151 0 7371
0.08550000 0.08548940 21726.89082189 0 111.88362783 0 8463.59651277 0 35.60859662 0 203.77838766 0 8256
0.08650000 0.08650700 21337.25571152 0 365.98573179 0 7681.55821083 0 54.63328657 0 -410.89840295 0 8037
0.08750000 0.08749060 21220.66413118 0 678.15775049 0 8372.41591789 0 -317.90637573 0 213.02267165 0 8155
0.08850000 0.08849210 21187.11498698 0 183.76183885 0 8137.49440222 0 -43.88803822 0 -819.85693459 0 8718
0.08950000 0.08949900 20745.43994996 0 101.50066595 0 8293.75812238 0 333.89924170 0 -473.90325287 0 8571
0.09050000 0.09049190 20607.25733622 0 305.70356655 0 8007.72675534 0 1096.07600738 0 -1136.39698544 0 8932
0.09150000 0.09150830 20149.41670497 0 676.26216848 0 8462.38962937 0 283.29982451 0 -28.74441957 0 9285
0.09250000 0.09250820 19883.90235582 0 666.59270722 0 8535.14587575 0 -77.60459597 0 -681.73189694 0 9204
0.09350000 0.09350330 18986.71187577 0 639.46883311 0 8103.64630525 0 413.50261375 0 379.81063656 0 9349
0.09450000 0.09448040 18844.87539484 0 315.71294818 0 7769.12922782 0 708.89563142 0 1613.14914748 0 9564
0.09550000 0.09549270 18490.11810765 0 -156.13971013 0 7413.68545650 0 1103.91299888 0 49.88359139 0 10155
0.09650000 0.09649430 18652.65983599 0 349.37281563 0 7360.32792320 0 1059.70895651 0 807.64416032 0 9913
0.09750000 0.09749140 18025.08046527 0 660.98457470 0 6437.25034771 0 862.35251725 0 -344.16217957 0 10476
0.09850000 0.09850240 17455.07718360 0 629.26236409 0 6109.91920910 0 -70.12092235 0 192.70163391 0 10575
0.09950000 0.09950330 16883.08088347 0 586.22534476 0 6451.22362164 0 -168.46320765 0 256.47047424 0 10882
0.10050000 0.10051200 16541.27821632 0 316.17244966 0 6065.91779027 0 400.73733046 0 4.86669643 0 10875
0.10150000 0.10150300 16193.82866351 0 -38.47754670 0 5941.22126816 0 869.74329406 0 207.18091308 0 11118
0.10250000 0.10250800 16299.79081203 0 -86.37088770 0 4823.63616259 0 1272.63087001 0 -108.65172694 0 11575
0.10350000 0.10349800 16338.98684188 0 -318.04367256 0 4557.50176325 0 1450.80672099 0 -145.61435815 0 11364
0.10450000 0.10450100 16326.03222185 0 -61.43490498 0 3877.53922381 0 385.89487904 0 -269.70854579 0 12093
0.10550000 0.10551000 16432.88015635 0 229.06536308 0 3839.32863087 0 198.09939226 0 441.48570026 0 12067
0.10650000 0.10649700 16275.87459042 0 54.96279895 0 4334.35012886 0 -186.98609984 0 365.65577651 0 12054
0.10750000 0.10749900 16485.80586898 0 195.32245320 0 4318.97066968 0 -944.73947176 0 -107.56841068 0 12807
0.10850000 0.10850100 16328.57885655 0 158.96647465 0 4457.07577715 0 -209.19275450 0 92.82660669 0 12736
0.10950000 0.10950300 16115.87949679 0 113.36731935 0 4787.46287741 0 -184.77052764 0 112.51475034 0 12933
0.11050000 0.11050200 15964.63153977 0 316.10601571 0 4852.42420712 0 76.00929542 0 -581.40002560 0 13428
0.11150000 0.11150900 15672.87578079 0 548.93375477 0 5229.10469745 0 395.05169167 0 -292.10896613 0 13453
0.11250000 0.11250000 15196.65509034 0 636.47487648 0 4861.86890019 0 405.60693892 0 182.43426711 0 13668
0.11350000 0.11349100 14657.87576467 0 453.73279874 0 5265.56586308 0 251.01181810 0 669.57780599 0 13791
0.11450000 0.11448600 14514.37843502 0 165.44157021 0 4706.51311066 0 403.51537676 0 1343.99200346 0 14205
0.11550000 0.11549300 14630.41639912 0 -330.15015251 0 4946.63861900 0 769.66497896 0 1307.88515223 0 14776
0.11650000 0.11649800 14703.16157318 0 -98.62396524 0 4889.16218087 0 220.36362301 0 2035.73549651 0 14553
0.11750000 0.11747300 14590.00241353 0 466.74499487 0 4397.56203125 0 484.73641547 0 1576.12329328 0 14568
0.11850000 0.11849100 14197.15632896 0 396.22092917 0 4335.66773551 0 142.40449119 0 2194.73408090 0 16015
0.11950000 0.11950300 13918.02302029 0 481.88086290 0 3921.89495704 0 614.27818692 0 1746.67031247 0 15270
0.12050000 0.12050700 13552.63630127 0 10.53957991 0 3532.56987177 0 392.30021895 0 1358.99500359 0 15999
0.12150000 0.12150000 13542.00686945 0 -24.75218213 0 3491.22581089 0 -106.95068567 0 1278.36633426 0 15670
0.12250000 0.12250700 13803.42445841 0 -224.76155042 0 3250.83456675 0 -193.23421274 0 860.49236668 0 16887
0.12350000 0.12352200 13785.48729221 0 -35.12850061 0 3171.68958895 0 15.28412646 0 715.51355997 0 16407
0.12450000 0.12449800 13930.20257759 0 108.10641494 0 3427.60423248 0 -369.92083603 0 262.59679156 0 16306
0.12550000 0.12549900 13835.75564688 0 208.76757722 0 3647.05771039 0 -498.50595861 0 -66.20652336 0 17523
0.12650000 0.12650100 13741.86233242 0 256.35421483 0 4017.78128997 0 -165.51686202 0 254.59482241 0 17154
0.12750000 0.12750600 13289.00424734 0 267.83953736 0 3909.21714512 0 -36.98854046 0 265.62175070 0 18007
0.12850000 0.12850300 13297.86210719 0 51.14605787 0 4249.61362702 0 497.04773343 0 -156.56378017 0 17496
0.12950000 0.12949900 13130.55927918 0 145.31761985 0 3841.48773421 0 276.12938695 0 74.89475520 0 18405
0.13050000 0.13049000 12904.46240639 0 300.20837174 0 3640.20394133 0 468.22536470 0 217.75830498 0 18100
0.13150000 0.13148800 12754.87529809 0 231.56549402 0 3167.18315275 0 346.73095893 0 229.96554309 0 19059
0.13250000 0.13249300 12461.79086014 0 189.07434030 0 3575.45298579 0 500.53330129 0 516.39219212 0 18957
0.13350000 0.13349100 12333.90550848 0 360.60236746 0 3200.95374345 0 174.05583892 0 -62.73446374 0 19468
0.13450000 0.13450700 12079.79565389 0 351.43226805 0 3314.36756656 0 -76.28621426 0 -219.08809119 0 19953
0.13550000 0.13551000 11634.68819619 0 375.44924781 0 3165.47801473 0 -311.33162925 0 274.21166030 0 19956
0.13650000 0.13649900 11561.83229888 0 209.37987679 0 3260.66679119 0 49.85790360 0 -469.61272700 0 19723
0.13750000 0.13749600 11337.28555156 0 -9.62350004 0 3123.96786898 0 118.17049386 0 -217.32205538 0 20946
0.13850000 0.13851100 11534.48365658 0 -16.26579877 0 3191.25438691 0 697.29404948 0 -362.54556047 0 20955
0.13950000 0.13949800 11347.58281364 0 -126.40608906 0 2675.62729243 0 531.81483336 0 -279.67363813 0 20506
0.14050000 0.14048300 11526.62230596 0 4.93820151 0 2462.08643597 0 603.46938343 0 -635.10080097 0 21447
0.14150000 0.14148400 11398.62623105 0 69.58247520 0 2567.05207525 0 -228.05335259 0 249.63442090 0 21771
0.14250000 0.14249400 11472.81080734 0 77.87044249 0 2824.94866493 0 -79.77466092 0 -95.80827304 0 22470
0.14350000 0.14350900 11256.78975012 0 91.38255409 0 2651.56713059 0 37.37906136 0 931.79703128 0 22519
0.14450000 0.14449900 11440.81178861 0 163.11970369 0 2888.23807359 0 42.51695224 0 495.50646582 0 22218
0.14550000 0.14550500 11026.66255109 0 312.40232306 0 2702.58840336 0 127.19997475 0 636.27446740 0 23559
0.14650000 0.14650700 10957.58231655 0 365.16305805 0 2331.73195588 0 243.84359502 0 625.93291602 0 23044
0.14750000 0.14750500 10455.39702440 0 210.14940336 0 2096.84365718 0 194.15543016 0 279.42229636 0 23649
0.14850000 0.14849900 10528.79546562 0 116.25830336 0 2266.10628668 0 36.64241959 0 363.51881782 0 23640
0.14950000 0.14949500 10142.50419735 0 81.94815828 0 2085.42809029 0 131.73298453 0 -190.23804164 0 24457
0.15050000 0.15050000 10015.21675124 0 342.96858296 0 2083.70080762 0 29.23281982 0 8.79588805 0 24591
0.15150000 0.15149900 9884.60760767 0 157.23476305 0 2063.20593438 0 -196.12741121 0 -218.91314845 0 25020
0.15250000 0.15250500 9696.20092856 0 252.23863169 0 2348.10792429 0 -79.11618976 0 -113.00746880 0 25297
0.15350000 0.15350100 9574.83717622 0 195.08107651 0 2048.11435565 0 90.94176484 0 -91.77097124 0 25452
0.15450000 0.15450400 9339.10738083 0 116.47089200 0 2090.73173388 0 182.18956873 0 113.10047633 0 26061
0.15550000 0.15549900 9479.34944699 0 156.76751094 0 2202.52899757 0 -266.63043949 0 -121.66381234 0 26128
0.15650000 0.15649500 9207.09205202 0 103.72409950 0 2236.15564805 0 138.08296281 0 -85.27461682 0 26331
0.15750000 0.15749700 9184.73702821 0 176.65229909 0 2261.35625934 0 -253.09784410 0 102.06657247 0 27345
0.15850000 0.15849900 9061.55741461 0 -20.96921163 0 2275.05272514 0 -0.65751008 0 -68.28590596 0 26980
0.15950000 0.15949700 9331.98787598 0 -241.93583345 0 2507.70441423 0 264.91755084 0 -366.96341807 0 27777
0.16050000 0.16050000 9370.50849402 0 -58.79947023 0 2284.82958795 0 65.08611481 0 -263.73724102 0 28224
0.16150000 0.16150500 9395.24406767 0 76.52294056 0 2225.01688928 0 29.19871706 0 -227.48866403 0 28075
0.16250000 0.16249700 9306.12292520 0 176.49950100 0 2140.41325534 0 32.03622174 0 -295.14831930 0 28590
0.16350000 0.16349900 9187.04007178 0 282.37417815 0 2216.03723385 0 -27.47187728 0 -93.66057419 0 29163
0.16450000 0.16449100 8973.26669650 0 337.28626586 0 2218.82745971 0 133.40490558 0 6.66333615 0 28996
0.16550000 0.16550500 8721.92492312 0 204.36632811 0 2178.57955899 0 65.30756131 0 234.39447302 0 30777
0.16650000 0.16650700 8648.86972397 0 60.51556985 0 2410.63334254 0 155.13434303 0 342.31420856 0 29211
0.16750000 0.16749900 8620.14811339 0 -41.58831636 0 2441.74657528 0 59.40080819 0 318.09681971 0 30922
0.16850000 0.16850800 8588.91308507 0 121.50326363 0 2406.78017350 0 62.76779144 0 199.18005116 0 30867
0.16950000 0.16949900 8637.86383310 0 60.73336248 0 2400.60181626 0 -47.75050801 0 92.23700539 0 30852
0.17050000 0.17049200 8415.54262306 0 201.18967812 0 2197.64610233 0 -229.62230102 0 85.18160929 0 31257
0.17150000 0.17149500 8329.67674409 0 151.33653562 0 2154.24258904 0 -78.79664246 0 124.50386366 0 32608
0.17250000 0.17250900 8245.58243710 0 100.89456689 0 2333.53674483 0 136.23388457 0 -482.26950150 0 32361
0.17350000 0.17350400 8053.93156681 0 189.12195130 0 1993.53886662 0 167.89519739 0 -610.28329212 0 32508
0.17450000 0.17449800 7905.56241424 0 201.89941414 0 1884.52075646 0 121.89854563 0 -601.44204075 0 32791
0.17550000 0.17549800 7759.07555689 0 42.09188569 0 1821.47493894 0 353.84271316 0 -297.43364714 0 33633
0.17650000 0.17650100 7938.08183223 0 -48.46611237 0 1810.35832482 0 280.45866596 0 -730.61399655 0 33984
0.17750000 0.17750300 7826.29564086 0 47.18814464 0 1730.27219941 0 45.96221683 0 -609.68206488 0 34069
0.17850000 0.17849800 7793.72086125 0 131.55139840 0 1732.06591603 0 -98.69914633 0 -281.34777364 0 34536
