### header ###
fiducial parameters:
Omega_m = 0.31
Omega_nu = 0
Omega_de = 0.69
Omega_k = 0
H_0 = 100
w_de = -1
zeff = 0
beta = 0
fgrowth = 0
b_1 = 2
gamma = 0.55
Lx = 3500 Ly = 3500 Lz = 3500
nx = 700 ny = 700 nz = 700
xoffset = -685.467585 yoffset = -31.7331281 zoffset = 572.489161
bins = 400 dk = 0.001
kx_ny = 0.628318531 ky_ny = 0.628318531 kz_ny = 0.628318531
############################
A(data) = 7.97375999 (not used)
A(ran) = 7.97011703 (used)
Ngal = 474136
weighted Ngal = 0
Nran = 23820508
weighted Nran = 0
SN(data) = 3489.21309
SN(ran) = 69.4226099
SN(data+ran) = 3558.6357
############################
13 columns: k_central k_mean P_0(k) sigma^{lin}_{P_0(k)} P^img_1(k) sigma^{lin}_{P_1(k)} P_2(k) sigma^{lin}_{P_2(k)} P^img_3(k) sigma^{lin}_{P_3(k)} P_4(k) sigma^{lin}_{P_4(k)} N_modes
### header ###
0.00050000 0 0 0 0 0 0 0 0 0 0 0 0
0.00150000 0.00179520 7602.22500351 0 -15344.91351967 0 -22574.80945650 0 12869.36313671 0 -9246.64239627 0 3
0.00250000 0.00253879 16850.30680201 0 -18663.62143756 0 -1881.64195201 0 9174.98231005 0 14687.32814869 0 6
0.00350000 0.00331552 29105.59880428 0 -16131.93436777 0 10139.16035526 0 -32332.18497968 0 9141.64354002 0 7
0.00450000 0.00420575 43048.09166242 0 -12687.44483994 0 1658.23565414 0 8243.87729907 0 12821.08780050 0 24
0.00550000 0.00557378 47588.40917755 0 -6784.15735661 0 -20710.89429653 0 16771.80401904 0 11713.74459539 0 45
0.00650000 0.00659388 59792.87920890 0 -4982.29150492 0 -23011.28050085 0 -2399.40600518 0 -10283.21130115 0 40
0.00750000 0.00754703 57187.78262557 0 -1301.80644590 0 -19786.35517417 0 -6134.33368533 0 -13373.48608571 0 57
0.00850000 0.00846663 62649.31756562 0 -4122.58084438 0 -38507.99559378 0 -8134.80382728 0 -8345.90877228 0 75
0.00950000 0.00948925 62670.68715252 0 -869.98799244 0 -25445.19894248 0 -46088.10916462 0 -46331.03597114 0 112
0.01050000 0.01054430 65340.99972903 0 -7702.32989219 0 -15515.31659862 0 -28801.22059501 0 -38451.85890695 0 105
0.01150000 0.01145670 72284.23317631 0 -2221.45160069 0 58.26899514 0 -32973.16186343 0 -41108.33107744 0 144
0.01250000 0.01249090 74656.25732220 0 3588.28581025 0 3884.34870358 0 -29375.09919037 0 -42792.54240560 0 169
0.01350000 0.01339930 69153.53333383 0 -458.15508528 0 14074.03207698 0 -8472.10005824 0 -48150.21893885 0 180
0.01450000 0.01448870 73596.74656031 0 2998.88381551 0 19706.08081923 0 528.93602891 0 -28656.83747938 0 267
0.01550000 0.01550050 70591.38543478 0 4458.31587753 0 21675.51523473 0 15099.66152493 0 -7745.75555013 0 238
0.01650000 0.01653350 72303.60974474 0 -6497.17376963 0 8016.75070007 0 15529.04628140 0 -7927.85100410 0 315
0.01750000 0.01747870 72911.25893079 0 -5403.73740449 0 -175.83294705 0 29820.98171081 0 -4881.28975792 0 297
0.01850000 0.01844180 75381.05170483 0 -6352.85708795 0 948.35901474 0 19.19664315 0 -13555.84727547 0 388
0.01950000 0.01947590 81789.49186337 0 -1504.29712219 0 -4275.76645824 0 445.02773697 0 -5980.52802127 0 399
0.02050000 0.02045430 79421.67520090 0 5368.85958131 0 -14444.06917242 0 -13079.62658502 0 -17483.75450488 0 462
0.02150000 0.02154770 75013.11835111 0 6555.21489633 0 77.23046212 0 -16578.03833472 0 -15637.22289488 0 571
0.02250000 0.02255340 64997.42548991 0 9642.96519083 0 -5445.71258788 0 -20329.78487627 0 -19152.24313181 0 510
0.02350000 0.02348930 61542.30653025 0 7703.82465604 0 9738.97331934 0 -9982.29872955 0 -29544.61648334 0 555
0.02450000 0.02439640 54952.83386093 0 2836.26458089 0 7647.00148507 0 -13023.26845169 0 -21157.99477270 0 592
0.02550000 0.02547300 53935.17648685 0 -901.50315057 0 12458.24771620 0 1820.60022528 0 -24617.65338554 0 837
0.02650000 0.02652900 56554.00275295 0 -2680.45482605 0 14899.14172247 0 4478.16855593 0 -27356.17148293 0 723
0.02750000 0.02749970 57492.49300458 0 -1038.57742459 0 18163.81669524 0 2644.23725157 0 -23225.19781634 0 826
0.02850000 0.02848090 56804.45874035 0 3217.27435023 0 13753.37755023 0 1444.96053348 0 -8472.77547005 0 831
0.02950000 0.02946900 58903.77152596 0 -946.11465450 0 15829.65990023 0 2001.03483053 0 -7775.59546552 0 996
0.03050000 0.03053250 59862.19196227 0 -3617.40602453 0 19164.31196586 0 586.02161398 0 -756.64724667 0 1041
0.03150000 0.03150510 62919.81446094 0 2034.80542122 0 22885.83106065 0 2302.39029511 0 -2617.04362181 0 1036
0.03250000 0.03246190 59950.21694457 0 2971.18085881 0 16274.10301845 0 -967.65475520 0 -3795.80332200 0 1059
0.03350000 0.03345080 58042.34465507 0 4907.07720243 0 19541.10317944 0 -1018.52322988 0 5221.13262358 0 1302
0.03450000 0.03451200 54430.77374573 0 2953.96339372 0 19242.92547207 0 194.37466219 0 -952.10699669 0 1339
0.03550000 0.03553350 52014.68174705 0 3319.92587362 0 24176.19979502 0 5992.96224204 0 -6748.64841091 0 1365
0.03650000 0.03647120 48771.48708442 0 2855.99546372 0 22263.56640584 0 -173.75799338 0 -5227.33312548 0 1308
0.03750000 0.03744890 46360.37763191 0 3520.35709749 0 20909.97469677 0 -581.65579630 0 -1218.42076769 0 1579
0.03850000 0.03847530 45671.34685845 0 1260.11914296 0 23925.19019138 0 -516.28700504 0 -2227.13170332 0 1662
0.03950000 0.03950240 44039.50762668 0 431.64018903 0 23551.27778225 0 -623.71070043 0 -3654.45402337 0 1683
0.04050000 0.04050350 45005.01435086 0 558.36405381 0 23512.41392214 0 1028.50382347 0 -2494.84944511 0 1822
0.04150000 0.04152450 44031.75699930 0 1627.65389299 0 22341.29412607 0 2490.07727312 0 -2099.00276052 0 1887
0.04250000 0.04250150 43608.01912849 0 -319.46646629 0 20136.79425468 0 2985.06555413 0 -86.93579772 0 1920
0.04350000 0.04349210 43329.55015931 0 -1745.08697002 0 16701.05186345 0 9451.27003125 0 -2111.40376432 0 2005
0.04450000 0.04448520 44265.71522272 0 255.77291778 0 14581.58744667 0 6476.02562923 0 -1601.02495180 0 2151
0.04550000 0.04548030 43684.97178598 0 -212.06934448 0 10691.34826629 0 6283.10144159 0 -552.79467443 0 2274
0.04650000 0.04648670 43235.76756809 0 1001.14078715 0 8264.41646161 0 3186.74795070 0 -792.67880609 0 2311
0.04750000 0.04749250 43328.22148033 0 -675.65097615 0 10010.59959179 0 -2620.06636649 0 -1486.65890875 0 2568
0.04850000 0.04851840 43485.00559976 0 389.01838188 0 11671.44831458 0 -2485.58190924 0 -1382.01436689 0 2493
0.04950000 0.04949480 43883.27712349 0 1274.52423755 0 13973.49536763 0 -6027.84006522 0 96.03481281 0 2644
0.05050000 0.05050630 42460.70483079 0 302.79929575 0 14124.41115491 0 -3293.97234425 0 -4422.74049788 0 2829
0.05150000 0.05149060 42353.41400329 0 1727.50411821 0 15971.71782765 0 916.01011055 0 -2230.78557051 0 2784
0.05250000 0.05249300 41022.96345308 0 1551.28806872 0 14025.53529428 0 1711.18351142 0 -7009.50131132 0 3055
0.05350000 0.05348950 39954.70555458 0 1574.47351689 0 12836.58905525 0 2673.20245329 0 -5505.28169540 0 3009
0.05450000 0.05448610 37052.31704987 0 2196.47243590 0 12143.90441459 0 579.45461813 0 -8451.28408758 0 3336
0.05550000 0.05550870 35631.18415940 0 2057.85800149 0 12452.93300028 0 1196.53078153 0 -3275.59228505 0 3349
0.05650000 0.05647670 34540.22799502 0 801.10927421 0 12148.44406777 0 1232.25010139 0 -2167.05326886 0 3324
0.05750000 0.05747970 33601.29485039 0 639.77221481 0 12130.39617832 0 2328.79778981 0 -3066.61322642 0 3639
0.05850000 0.05849280 33391.25284858 0 -168.44549193 0 12291.71995092 0 2740.76577933 0 297.89647032 0 3846
0.05950000 0.05951020 33618.78912361 0 358.92601748 0 10976.46063037 0 721.38299935 0 -1501.19687124 0 3787
0.06050000 0.06049470 32700.22905665 0 767.92219503 0 12318.40425374 0 362.49130608 0 2761.11671235 0 3930
0.06150000 0.06148310 32266.52609351 0 729.99173190 0 12114.89492357 0 259.52200696 0 1356.37086261 0 4083
0.06250000 0.06249100 31327.92511863 0 645.44899575 0 10722.48364368 0 760.45059024 0 1660.68263792 0 4303
0.06350000 0.06350600 32010.86611344 0 337.52432084 0 10714.84373955 0 1736.26232714 0 -8.62653684 0 4470
0.06450000 0.06451750 30866.76278993 0 674.93902567 0 9584.60296671 0 1638.70407316 0 -939.32399769 0 4479
0.06550000 0.06550280 30447.78601880 0 752.65124464 0 9702.19105629 0 518.21580402 0 1084.06142772 0 4636
0.06650000 0.06648880 29305.12209751 0 886.33960173 0 9504.84901105 0 633.64700472 0 1572.94553606 0 4653
0.06750000 0.06749660 29471.98203253 0 -153.70601313 0 10639.08689314 0 -461.55096730 0 1490.43457151 0 5220
0.06850000 0.06852730 29062.19529099 0 555.17300980 0 12622.11812351 0 194.00152484 0 1596.70674512 0 5029
0.06950000 0.06949320 29424.48175906 0 767.24346152 0 11103.10588164 0 1205.66544950 0 4232.32972798 0 5040
0.07050000 0.07048030 29052.23019865 0 -138.21361625 0 11432.95043799 0 105.81510804 0 4227.75685783 0 5475
0.07150000 0.07148790 28939.95682499 0 435.93846553 0 12019.00859064 0 667.84277269 0 4820.09301865 0 5509
0.07250000 0.07249820 28994.98627934 0 340.46513031 0 12172.91390562 0 1132.00127248 0 3715.26323127 0 5916
0.07350000 0.07351270 27919.30992321 0 804.88493697 0 11304.84363984 0 12.49367916 0 4021.64553133 0 5721
0.07450000 0.07449140 28140.75641958 0 12.28618379 0 10871.69429293 0 1622.66027450 0 3722.34951916 0 6028
0.07550000 0.07549160 27589.68681336 0 367.61004184 0 10648.16619949 0 1534.07060362 0 1831.77220102 0 6183
0.07650000 0.07648840 26599.26735833 0 962.57255811 0 9233.13416000 0 554.91502463 0 2938.06353528 0 6330
0.07750000 0.07749960 26280.82729655 0 862.65700618 0 9666.83712314 0 875.17759108 0 2352.24897377 0 6583
0.07850000 0.07848650 25552.82193972 0 388.23335405 0 9061.57955926 0 748.81468409 0 3350.80658754 0 6549
0.07950000 0.07947320 25412.20341452 0 -23.68802099 0 8464.50444341 0 1275.49860213 0 1958.21815045 0 6828
0.08050000 0.08048110 24975.40020043 0 20.89989888 0 8535.34517760 0 970.15267168 0 1297.25572040 0 7147
0.08150000 0.08149960 24700.80654493 0 740.41411125 0 8125.38127886 0 -783.91395377 0 1089.28977950 0 7386
0.08250000 0.08250610 23791.21506107 0 959.97166901 0 7491.78963577 0 -98.37993120 0 -202.42534957 0 7227
0.08350000 0.08350160 23441.99393629 0 946.47671952 0 7544.57140818 0 -807.62090843 0 215.04447816 0 7798
0.08450000 0.08449610 22373.62531454 0 794.24996898 0 7395.67078402 0 130.83834068 0 -856.84735735 0 7371
0.08550000 0.08548940 22112.42917207 0 74.53689766 0 7177.11416442 0 1073.21054939 0 -49.37980061 0 8256
0.08650000 0.08650700 22428.32259915 0 -373.49941141 0 6872.59201493 0 630.61650942 0 -2373.38604185 0 8037
0.08750000 0.08749060 21850.79013661 0 546.27196788 0 6695.76698758 0 -267.53615566 0 -1548.94073585 0 8155
0.08850000 0.08849210 21815.58014368 0 1147.29215306 0 7131.40760757 0 -260.58827184 0 -1795.64320514 0 8718
0.08950000 0.08949900 20829.92178833 0 36.08869262 0 7065.77086604 0 -205.78137122 0 374.46159644 0 8571
0.09050000 0.09049190 20882.40460797 0 266.09011004 0 6576.14159024 0 1414.00231329 0 -1332.80895539 0 8932
0.09150000 0.09150830 20538.60892235 0 396.39476467 0 6812.97861811 0 637.88549066 0 -1624.71972691 0 9285
0.09250000 0.09250820 19741.29081216 0 910.91573390 0 6203.76823426 0 789.20873949 0 -559.11143574 0 9204
0.09350000 0.09350330 19141.28153023 0 704.84316054 0 5965.02676652 0 672.95707953 0 -244.84896211 0 9349
0.09450000 0.09448040 18303.43871121 0 212.62185349 0 5816.12614236 0 1397.36060909 0 1731.94412046 0 9564
0.09550000 0.09549270 18481.03880130 0 307.97782206 0 5486.11550114 0 954.41114749 0 1073.13304312 0 10155
0.09650000 0.09649430 18170.01719714 0 -47.22800500 0 5751.09837870 0 174.16102600 0 1726.64047687 0 9913
0.09750000 0.09749140 18104.91192721 0 221.31030678 0 5953.27902989 0 -61.97290924 0 2273.03756202 0 10476
0.09850000 0.09850240 18040.69244326 0 687.99661833 0 5935.59652716 0 -285.13340150 0 2486.25732105 0 10575
0.09950000 0.09950330 17777.61400557 0 251.33734445 0 6493.81885521 0 -433.44054905 0 2689.16874568 0 10882
0.10050000 0.10051200 17435.58989192 0 501.50766587 0 6181.22498093 0 -171.81480037 0 1823.70047623 0 10875
0.10150000 0.10150300 16940.32480278 0 407.13934867 0 6194.68892791 0 -102.78738082 0 1820.30127251 0 11118
0.10250000 0.10250800 16776.56511872 0 243.88788432 0 6157.08731283 0 365.32471400 0 936.98330822 0 11575
0.10350000 0.10349800 16325.58932885 0 115.94052764 0 6017.59816476 0 311.73466187 0 470.37450295 0 11364
0.10450000 0.10450100 16131.04858179 0 497.03223218 0 5416.95776033 0 524.74847567 0 -58.81940041 0 12093
0.10550000 0.10551000 15777.61997358 0 403.98927226 0 5002.56493166 0 672.62933871 0 628.37214918 0 12067
0.10650000 0.10649700 15435.81730643 0 202.30244676 0 4949.53956811 0 372.44754055 0 499.90328600 0 12054
0.10750000 0.10749900 15482.09962417 0 -64.73102535 0 4769.58107283 0 655.92562949 0 1158.68557530 0 12807
0.10850000 0.10850100 15562.48470235 0 39.87000227 0 4922.34593835 0 193.17442218 0 1026.79868545 0 12736
0.10950000 0.10950300 15352.77487029 0 120.69609115 0 4312.80338476 0 727.66765092 0 1753.49086455 0 12933
0.11050000 0.11050200 15386.43473774 0 -21.59358003 0 4631.59776094 0 182.64131958 0 1570.00029766 0 13428
0.11150000 0.11150900 15235.29750396 0 317.29075447 0 4361.87592836 0 311.33052202 0 418.33679076 0 13453
0.11250000 0.11250000 15080.39567975 0 459.22356462 0 4528.48119990 0 287.81844027 0 793.12612801 0 13668
0.11350000 0.11349100 14433.99335684 0 186.39373046 0 3945.10254986 0 67.03063650 0 653.23394733 0 13791
0.11450000 0.11448600 14512.16397006 0 26.00047603 0 3980.58935090 0 -181.38571795 0 681.92234093 0 14205
0.11550000 0.11549300 14673.70918916 0 27.11590203 0 3920.68807363 0 -17.01617023 0 -281.06764382 0 14776
0.11650000 0.11649800 14402.88012410 0 38.11271360 0 4178.13069799 0 -263.28106124 0 8.93905321 0 14553
0.11750000 0.11747300 14544.60588177 0 179.86216605 0 3969.41737516 0 -74.85013373 0 266.22076347 0 14568
0.11850000 0.11849100 14564.86823619 0 -35.45480203 0 4504.11101298 0 218.75259974 0 97.45971029 0 16015
0.11950000 0.11950300 14447.05870012 0 134.44681134 0 4107.24567450 0 133.67728477 0 -434.07167156 0 15270
0.12050000 0.12050700 14354.16189489 0 289.91775305 0 4445.05123239 0 260.00033139 0 -302.48152002 0 15999
0.12150000 0.12150000 13997.41158924 0 343.93187521 0 4217.92463339 0 294.07430379 0 171.63210701 0 15670
0.12250000 0.12250700 13846.27435546 0 459.50701614 0 4475.67728284 0 -184.36306609 0 -34.29464383 0 16887
0.12350000 0.12352200 13220.35583346 0 484.53047023 0 4142.42245045 0 -192.88986343 0 -236.73626971 0 16407
0.12450000 0.12449800 12760.63290699 0 597.44382426 0 4493.43729185 0 -242.76957951 0 -193.96387894 0 16306
0.12550000 0.12549900 12564.43131121 0 154.58404849 0 4042.77152708 0 10.55260096 0 -202.53939451 0 17523
0.12650000 0.12650100 12501.54050624 0 -127.53989512 0 4245.07397384 0 286.50415531 0 -1019.76997366 0 17154
0.12750000 0.12750600 12514.27367978 0 -100.02771458 0 3415.64612168 0 642.68977240 0 -1111.03028928 0 18007
0.12850000 0.12850300 12541.17942909 0 -131.30780726 0 3311.86522115 0 489.06015831 0 -1705.14909440 0 17496
0.12950000 0.12949900 12363.57933900 0 202.01345908 0 2493.66470636 0 523.46187152 0 -1276.12972465 0 18405
0.13050000 0.13049000 12417.72300736 0 7.92799494 0 2327.96736545 0 260.23285021 0 -1547.21345318 0 18100
0.13150000 0.13148800 12152.20865821 0 241.44200776 0 2602.95962464 0 -89.16864274 0 -1082.33746674 0 19059
0.13250000 0.13249300 12279.65111687 0 130.19836031 0 2415.53838244 0 446.39738355 0 -457.65572343 0 18957
0.13350000 0.13349100 12232.26156665 0 6.54716532 0 2905.46661101 0 254.27815393 0 -215.03783477 0 19468
0.13450000 0.13450700 12108.14080543 0 155.47315617 0 3097.68216986 0 -7.56203246 0 336.86441028 0 19953
0.13550000 0.13551000 12199.26603869 0 178.49141224 0 3544.02972795 0 23.04704411 0 502.27608521 0 19956
0.13650000 0.13649900 11845.06236774 0 349.81792309 0 3906.11689417 0 -312.11222815 0 1044.40589638 0 19723
0.13750000 0.13749600 11592.94553162 0 556.31788819 0 4146.86245270 0 -336.19010570 0 746.55703706 0 20946
0.13850000 0.13851100 11272.06955837 0 382.39491717 0 4290.43728863 0 -424.40110307 0 261.79294078 0 20955
0.13950000 0.13949800 10839.63991258 0 125.23685156 0 3931.83790473 0 -377.19424620 0 380.07858682 0 20506
0.14050000 0.14048300 10849.30605215 0 101.73318477 0 4058.56066227 0 8.57090948 0 -51.78725620 0 21447
0.14150000 0.14148400 10940.90739537 0 24.30308864 0 3740.26454071 0 498.20036245 0 -361.57230312 0 21771
0.14250000 0.14249400 10842.91732073 0 121.97826636 0 3581.87493418 0 264.90980022 0 -649.20140663 0 22470
0.14350000 0.14350900 10551.62659940 0 267.52397611 0 3592.38257044 0 -170.76514398 0 -573.39141306 0 22519
0.14450000 0.14449900 10588.10990968 0 194.02034780 0 3534.80648138 0 88.04856636 0 -734.20807319 0 22218
0.14550000 0.14550500 10394.23350210 0 134.80001850 0 3764.34684719 0 313.07441318 0 -272.12784877 0 23559
0.14650000 0.14650700 10194.99808932 0 -120.99725839 0 3239.59615706 0 425.01783156 0 205.99728155 0 23044
0.14750000 0.14750500 10500.25101224 0 -107.33788487 0 3221.12751927 0 613.06023119 0 -304.85653370 0 23649
0.14850000 0.14849900 10439.95113128 0 27.88686801 0 3002.70376757 0 447.52565345 0 488.85642753 0 23640
0.14950000 0.14949500 10518.13281682 0 25.73784049 0 2862.72743721 0 541.34146164 0 207.62159160 0 24457
0.15050000 0.15050000 10377.74681045 0 61.55813995 0 2853.48204599 0 54.05918652 0 681.91680477 0 24591
0.15150000 0.15149900 10330.68942997 0 268.52712873 0 2782.27592508 0 -129.52073403 0 716.10703658 0 25020
0.15250000 0.15250500 10259.23971791 0 98.40661550 0 3204.47474274 0 -260.53733915 0 625.13903033 0 25297
0.15350000 0.15350100 10188.54292395 0 6.83803529 0 3118.37634495 0 -107.16183491 0 990.69737038 0 25452
0.15450000 0.15450400 10165.53463297 0 205.15689210 0 3599.11454393 0 -167.24746639 0 431.17293693 0 26061
0.15550000 0.15549900 9993.35998204 0 377.34704428 0 3409.45669211 0 10.20806343 0 465.84038593 0 26128
0.15650000 0.15649500 9558.92624546 0 436.02593689 0 3244.12473791 0 37.21220142 0 454.00296347 0 26331
0.15750000 0.15749700 9234.19710318 0 212.22989319 0 3161.03801248 0 403.46776576 0 541.93050932 0 27345
0.15850000 0.15849900 9074.17986490 0 144.45951468 0 3127.82103802 0 235.07542099 0 172.38059617 0 26980
0.15950000 0.15949700 9084.79822440 0 108.19466137 0 2593.99104154 0 420.46378436 0 -323.05389954 0 27777
0.16050000 0.16050000 8681.69916705 0 49.48365902 0 2337.14632272 0 349.99175859 0 150.79952787 0 28224
0.16150000 0.16150500 8791.14909788 0 10.09366417 0 2121.96676219 0 204.77932582 0 217.33866387 0 28075
0.16250000 0.16249700 8747.21411300 0 7.93875724 0 1864.71236736 0 185.52566020 0 121.12016119 0 28590
0.16350000 0.16349900 8770.99746671 0 118.27678818 0 1821.69638544 0 87.89344309 0 265.53760103 0 29163
0.16450000 0.16449100 8694.14446015 0 -6.21263717 0 1898.52724735 0 91.14073451 0 326.73876924 0 28996
0.16550000 0.16550500 8767.69791392 0 33.42380548 0 2080.35696553 0 -117.19170035 0 222.47400812 0 30777
0.16650000 0.16650700 8699.21558492 0 91.00963819 0 1957.43201539 0 -82.05456332 0 381.01641273 0 29211
0.16750000 0.16749900 8670.48290201 0 76.74914816 0 2038.20462494 0 1.50900286 0 300.09100509 0 30922
0.16850000 0.16850800 8624.79848981 0 85.30905175 0 2144.84218527 0 -108.92698493 0 287.84833554 0 30867
0.16950000 0.16949900 8561.63087672 0 104.83653597 0 2135.43070917 0 6.92343613 0 -37.82018278 0 30852
0.17050000 0.17049200 8467.84828551 0 170.83379239 0 2297.83956961 0 -58.79814155 0 80.21976837 0 31257
0.17150000 0.17149500 8223.99140370 0 195.92035874 0 2051.43605310 0 -28.87595879 0 -164.72186909 0 32608
0.17250000 0.17250900 8212.97444050 0 133.89983850 0 2024.22027870 0 84.57517806 0 -50.55468500 0 32361
0.17350000 0.17350400 8140.76073804 0 -68.17485054 0 1976.99681334 0 277.95964225 0 -158.52690336 0 32508
0.17450000 0.17449800 8094.71093912 0 -9.99014901 0 1942.44008758 0 10.15487198 0 -353.04329131 0 32791
0.17550000 0.17549800 8201.89104336 0 115.41791391 0 1930.10551774 0 111.64003668 0 -292.71794400 0 33633
0.17650000 0.17650100 8011.19239301 0 191.73169826 0 1996.34016480 0 -65.65346074 0 -324.59184545 0 33984
0.17750000 0.17750300 7880.33965830 0 192.06165354 0 1937.28038422 0 99.23316455 0 -17.84194421 0 34069
0.17850000 0.17849800 7845.46183512 0 100.42377164 0 1964.47401397 0 130.14521315 0 -99.89883272 0 34536
