### header ###
fiducial parameters:
Omega_m = 0.31
Omega_nu = 0
Omega_de = 0.69
Omega_k = 0
H_0 = 100
w_de = -1
zeff = 0
beta = 0
fgrowth = 0
b_1 = 2
gamma = 0.55
Lx = 3500 Ly = 3500 Lz = 3500
nx = 700 ny = 700 nz = 700
xoffset = -685.467585 yoffset = -31.7331281 zoffset = 572.489161
bins = 400 dk = 0.001
kx_ny = 0.628318531 ky_ny = 0.628318531 kz_ny = 0.628318531
############################
A(data) = 8.03143273 (not used)
A(ran) = 8.02996991 (used)
Ngal = 477107
weighted Ngal = 0
Nran = 23820508
weighted Nran = 0
SN(data) = 3488.66194
SN(ran) = 69.9439501
SN(data+ran) = 3558.60589
############################
13 columns: k_central k_mean P_0(k) sigma^{lin}_{P_0(k)} P^img_1(k) sigma^{lin}_{P_1(k)} P_2(k) sigma^{lin}_{P_2(k)} P^img_3(k) sigma^{lin}_{P_3(k)} P_4(k) sigma^{lin}_{P_4(k)} N_modes
### header ###
0.00050000 0 0 0 0 0 0 0 0 0 0 0 0
0.00150000 0.00179520 4570.58925119 0 -11303.07206787 0 -4227.09251834 0 2356.06892583 0 18550.57300116 0 3
0.00250000 0.00253879 13889.78859200 0 -17616.84384920 0 -7674.79302037 0 -20614.78651710 0 528.52192396 0 6
0.00350000 0.00331552 20429.43579964 0 -10071.72989711 0 -9144.43376587 0 7876.48648927 0 20196.14191571 0 7
0.00450000 0.00420575 37610.69439047 0 -16011.68892024 0 -6843.80397041 0 -23247.45318923 0 9766.97522880 0 24
0.00550000 0.00557378 57460.82615560 0 -16854.95717843 0 -6663.38043749 0 -9488.19623452 0 19845.92428169 0 45
0.00650000 0.00659388 75965.67045526 0 -7287.60489379 0 9094.60830419 0 -11562.05374538 0 2035.73549651 0 40
0.00750000 0.00754703 71663.74009347 0 794.63860758 0 12746.34960798 0 -6009.69252484 0 11563.27170111 0 57
0.00850000 0.00846663 79419.46073594 0 16035.05152561 0 44581.38720330 0 -12714.35058925 0 28676.76766405 0 75
0.00950000 0.00948925 70686.27525848 0 5640.93981908 0 54001.72115901 0 6618.51537732 0 4182.79214674 0 112
0.01050000 0.01054430 64250.70790414 0 -2523.22781362 0 45433.40259810 0 11717.39846258 0 -5588.56772269 0 105
0.01150000 0.01145670 81355.89962347 0 -7702.45168777 0 65946.98806635 0 9242.81137189 0 -1366.35809960 0 144
0.01250000 0.01249090 81350.14201457 0 -6295.76818118 0 55583.95637559 0 -3643.81351922 0 -8642.25954605 0 169
0.01350000 0.01339930 94696.94379746 0 3833.36064779 0 58982.27430893 0 18592.20494248 0 1668.12324020 0 180
0.01450000 0.01448870 88970.22667801 0 1491.66359957 0 57910.36254324 0 -7815.28974999 0 -19141.39225348 0 267
0.01550000 0.01550050 78360.83576003 0 6559.45559674 0 58963.34063349 0 1916.14331614 0 -10213.10134039 0 238
0.01650000 0.01653350 77341.84970697 0 9949.66858831 0 44944.44873410 0 11309.27256977 0 -17529.48320638 0 315
0.01750000 0.01747870 70939.61005033 0 1577.40768296 0 39195.36551852 0 17065.22062674 0 -14885.63348619 0 297
0.01850000 0.01844180 78000.09941744 0 -10989.60347993 0 19441.34153282 0 14264.03317087 0 -10881.58187900 0 388
0.01950000 0.01947590 90825.39470137 0 -9413.59090989 0 29114.67811063 0 11735.00345904 0 -18864.25196327 0 399
0.02050000 0.02045430 90111.67264356 0 69.19837625 0 15141.40418950 0 607.07342516 0 -8301.87413647 0 462
0.02150000 0.02154770 87575.44592060 0 9636.23321734 0 22849.07094225 0 1276.72763019 0 -10256.49378136 0 571
0.02250000 0.02255340 79605.14362315 0 5638.53712460 0 24818.28391125 0 -446.91889005 0 -8537.65929349 0 510
0.02350000 0.02348930 71201.13836255 0 9573.16525518 0 18025.96625125 0 3005.51613807 0 -8033.43669357 0 555
0.02450000 0.02439640 67756.20594172 0 7258.63969206 0 26084.73642401 0 7245.53005948 0 -6606.47976024 0 592
0.02550000 0.02547300 61597.22526135 0 4.06263528 0 17479.76846795 0 4229.25162168 0 -5871.17774136 0 837
0.02650000 0.02652900 62661.82929266 0 780.62768776 0 19677.07132821 0 -1315.46969473 0 -16698.94812174 0 723
0.02750000 0.02749970 58923.25881765 0 6330.21418369 0 15694.79898393 0 -5265.85374353 0 -6981.59905277 0 826
0.02850000 0.02848090 56953.27078591 0 2955.57995314 0 19769.19307070 0 -3797.48631538 0 -535.14649590 0 831
0.02950000 0.02946900 53925.54356425 0 -2094.11986528 0 18179.98228948 0 3382.00839888 0 10337.28853556 0 996
0.03050000 0.03053250 61018.58556633 0 -4762.97089491 0 20229.35889016 0 11600.47471250 0 -952.21439824 0 1041
0.03150000 0.03150510 65366.79824586 0 -1401.43522462 0 17857.44546751 0 1186.85356964 0 6176.16492849 0 1036
0.03250000 0.03246190 64484.77685080 0 2948.09506156 0 22010.12089075 0 1835.44821286 0 2022.02795838 0 1059
0.03350000 0.03345080 58642.02176725 0 4766.66905140 0 22706.01650560 0 -5209.45132090 0 13461.06817502 0 1302
0.03450000 0.03451200 56657.52899001 0 3138.72727797 0 26852.49142693 0 734.12503075 0 7726.65578982 0 1339
0.03550000 0.03553350 54176.66389114 0 575.65127455 0 25601.65089217 0 4992.36732050 0 2442.61021662 0 1365
0.03650000 0.03647120 53581.08353915 0 1591.80170523 0 27176.02475813 0 5223.05920810 0 2555.11610910 0 1308
0.03750000 0.03744890 50206.23893442 0 3842.91606411 0 20454.01636073 0 4759.82635466 0 131.80716911 0 1579
0.03850000 0.03847530 46497.45301317 0 2729.83739474 0 19402.69911920 0 3970.41388439 0 3243.56004935 0 1662
0.03950000 0.03950240 45490.31434766 0 2419.66835959 0 14567.96848714 0 4291.98741410 0 1747.05784383 0 1683
0.04050000 0.04050350 43850.61376527 0 594.13873530 0 14400.00131964 0 2104.10710226 0 -1406.68350658 0 1822
0.04150000 0.04152450 44325.83794649 0 332.12877696 0 13256.67305887 0 -2486.12445315 0 -2306.13274090 0 1887
0.04250000 0.04250150 42950.65520401 0 760.43176729 0 13289.33641708 0 -3529.31460827 0 -1103.80227564 0 1920
0.04350000 0.04349210 42186.11117528 0 1463.19665246 0 16045.01661795 0 -3681.48156825 0 -3521.78542739 0 2005
0.04450000 0.04448520 40427.05093135 0 1620.75583463 0 16764.60700791 0 812.64552944 0 -4717.89546058 0 2151
0.04550000 0.04548030 40084.58392470 0 1847.89350596 0 16999.11884757 0 937.02870475 0 -9292.88042472 0 2274
0.04650000 0.04648670 37914.62970675 0 1837.71803945 0 15971.60710440 0 267.07776142 0 -6910.64759534 0 2311
0.04750000 0.04749250 37040.69110881 0 1144.90053090 0 15441.90708508 0 1168.55101671 0 -2889.51139095 0 2568
0.04850000 0.04851840 36974.47860639 0 -659.04359616 0 15448.77192646 0 4580.29968005 0 -4056.13582314 0 2493
0.04950000 0.04949480 37869.89751448 0 -1228.87304232 0 13787.03741768 0 2888.30450754 0 -467.23992779 0 2644
0.05050000 0.05050630 37375.62893457 0 -80.55913513 0 13591.27871489 0 644.56653146 0 1186.49925524 0 2829
0.05150000 0.05149060 38192.76650619 0 980.47540011 0 14691.09273912 0 3363.26295296 0 7854.28647800 0 2784
0.05250000 0.05249300 38215.57549532 0 702.32088494 0 14613.80791189 0 3185.78465845 0 3644.61072660 0 3055
0.05350000 0.05348950 36934.17534405 0 -596.62557946 0 11811.18105379 0 2053.18548042 0 8783.40954284 0 3009
0.05450000 0.05448610 37135.02731627 0 1443.33290173 0 13663.35954946 0 273.06788914 0 4192.45828631 0 3336
0.05550000 0.05550870 36790.34584466 0 1024.94849997 0 14422.03524603 0 -559.16458290 0 5847.50511090 0 3349
0.05650000 0.05647670 35249.41039965 0 247.47310309 0 13746.51270885 0 -738.49970629 0 4883.74781403 0 3324
0.05750000 0.05747970 33883.86057977 0 2058.07944799 0 12583.03281690 0 779.85926842 0 2104.30640411 0 3639
0.05850000 0.05849280 33782.88097742 0 573.61728848 0 12272.45410574 0 145.84355528 0 2629.46677026 0 3846
0.05950000 0.05951020 32513.77110671 0 513.82562723 0 12401.00379688 0 1057.03720453 0 1388.93456990 0 3787
0.06050000 0.06049470 32277.15552533 0 44.17005034 0 11229.44110782 0 1312.30300983 0 1346.69365072 0 3930
0.06150000 0.06148310 32208.61783470 0 375.32080884 0 12448.28262386 0 841.27523972 0 778.37779136 0 4083
0.06250000 0.06249100 32152.37042463 0 135.43889165 0 9991.31160195 0 417.76767327 0 254.97792485 0 4303
0.06350000 0.06350600 31074.92249652 0 837.54275902 0 10448.78684648 0 1902.13682524 0 481.68598998 0 4470
0.06450000 0.06451750 31615.14122443 0 775.42258786 0 10235.29027933 0 351.34590391 0 2156.16917356 0 4479
0.06550000 0.06550280 30292.99491783 0 -215.37775514 0 8042.05096228 0 1629.96800888 0 1549.50542442 0 4636
0.06650000 0.06648880 30810.84754960 0 375.27541231 0 9088.18635579 0 2351.00887339 0 1536.86082948 0 4653
0.06750000 0.06749660 30600.69482454 0 -317.11470450 0 6943.73170189 0 1743.55898919 0 2088.71657076 0 5220
0.06850000 0.06852730 30185.03975085 0 510.73755584 0 7840.75609708 0 -519.69395939 0 619.99039929 0 5029
0.06950000 0.06949320 29550.04192250 0 777.98140213 0 7520.94306701 0 -282.91340037 0 1278.03416452 0 5040
0.07050000 0.07048030 29770.27046314 0 768.41380625 0 8600.64974938 0 -2285.91467578 0 563.18605127 0 5475
0.07150000 0.07148790 29123.86814023 0 225.55543611 0 7792.92365386 0 -87.18326418 0 1523.10900205 0 5509
0.07250000 0.07249820 29080.02173395 0 -954.98358668 0 9006.02970564 0 1972.88898084 0 10.05607363 0 5916
0.07350000 0.07351270 29990.83117353 0 -291.69043225 0 7606.96395853 0 1492.19507116 0 -1105.58381270 0 5721
0.07450000 0.07449140 28993.98977011 0 789.89300917 0 6437.58251746 0 1859.75196584 0 -891.80822296 0 6028
0.07550000 0.07549160 28309.16648007 0 1145.08876042 0 5882.68188685 0 298.16552781 0 -132.84132424 0 6183
0.07650000 0.07648840 27342.22035366 0 1198.81168044 0 5592.29909615 0 -772.70986828 0 1424.58745582 0 6330
0.07750000 0.07749960 26393.21139346 0 1817.85428873 0 6936.12501474 0 167.95055901 0 843.10881671 0 6583
0.07850000 0.07848650 24596.94813813 0 1214.84440678 0 7557.33779869 0 -297.89425585 0 3615.21370421 0 6549
0.07950000 0.07947320 24209.52749272 0 1225.18595816 0 8262.78882986 0 124.00893074 0 2100.73004319 0 6828
0.08050000 0.08048110 23003.19770373 0 115.85859244 0 8655.01486424 0 489.02029794 0 3679.03458447 0 7147
0.08150000 0.08149960 24093.48952862 0 -346.15409081 0 10112.32103990 0 1732.08806068 0 3163.46285161 0 7386
0.08250000 0.08250610 23874.36822046 0 -430.46984430 0 9484.13269131 0 419.52152952 0 3364.79093379 0 7227
0.08350000 0.08350160 23681.93121511 0 1003.32092791 0 8384.24116080 0 572.70382169 0 4696.33764415 0 7798
0.08450000 0.08449610 23159.20676043 0 883.40875735 0 8431.59749405 0 508.10677146 0 4555.51981711 0 7371
0.08550000 0.08548940 21999.71290542 0 552.14583620 0 7607.26291130 0 2101.93692660 0 4833.47945936 0 8256
0.08650000 0.08650700 21985.31888315 0 231.74597292 0 7287.48309821 0 1262.10108910 0 3837.65670982 0 8037
0.08750000 0.08749060 21392.72805886 0 378.49524437 0 6273.31350645 0 501.99041923 0 2797.65538425 0 8155
0.08850000 0.08849210 21089.23563558 0 651.50223572 0 6352.15953148 0 -1103.46456973 0 3321.35420352 0 8718
0.08950000 0.08949900 20464.20289957 0 650.75042487 0 6852.57325166 0 -660.63026030 0 2838.81121560 0 8571
0.09050000 0.09049190 20024.85305076 0 701.76837594 0 7638.52008426 0 -1278.55456378 0 2761.40459280 0 8932
0.09150000 0.09150830 19442.89165829 0 732.15526417 0 8358.47586095 0 -574.56286502 0 2754.71690861 0 9285
0.09250000 0.09250820 19245.58283003 0 477.84167880 0 9352.72634036 0 9.41499710 0 1963.37785382 0 9204
0.09350000 0.09350330 18483.47471276 0 111.93013159 0 8886.78076734 0 534.15884453 0 2492.26959343 0 9349
0.09450000 0.09448040 19070.30792815 0 16.30123021 0 9295.32740850 0 1561.56318615 0 2416.35773447 0 9564
0.09550000 0.09549270 18673.80797639 0 -201.28379288 0 7230.11738333 0 882.05571926 0 2015.04132142 0 10155
0.09650000 0.09649430 19235.61773769 0 70.68760394 0 7895.42016471 0 919.19561840 0 2091.45143499 0 9913
0.09750000 0.09749140 18559.98447726 0 159.65185156 0 6442.66471455 0 159.54998617 0 1146.01883570 0 10476
0.09850000 0.09850240 18700.49227920 0 182.03234172 0 6806.62310366 0 710.51883424 0 2068.64244587 0 10575
0.09950000 0.09950330 18139.01468765 0 179.91199151 0 6022.20425189 0 244.72495207 0 916.52386642 0 10882
0.10050000 0.10051200 18406.74350177 0 328.50812674 0 6190.27107031 0 637.75705169 0 1435.06187510 0 10875
0.10150000 0.10150300 17933.18016927 0 389.34833716 0 7083.01047579 0 -244.64855303 0 1205.80938973 0 11118
0.10250000 0.10250800 17348.22924910 0 613.39793709 0 6454.66711465 0 383.37260345 0 1950.52288470 0 11575
0.10350000 0.10349800 17087.69744612 0 664.37824226 0 6636.72935165 0 419.04320509 0 2353.85446087 0 11364
0.10450000 0.10450100 16723.41795959 0 66.29255532 0 6127.74565206 0 412.49613942 0 2268.35396862 0 12093
0.10550000 0.10551000 16529.98444501 0 312.09229797 0 5996.58289226 0 865.09845380 0 1928.67718784 0 12067
0.10650000 0.10649700 16291.37584516 0 272.15995851 0 5671.46621861 0 243.41731051 0 1250.72981151 0 12054
0.10750000 0.10749900 16094.73135638 0 17.49039790 0 5139.92819336 0 597.97529585 0 1147.02641726 0 12807
0.10850000 0.10850100 15723.36558197 0 58.82670815 0 4999.53111466 0 -121.73246075 0 529.28369991 0 12736
0.10950000 0.10950300 15956.43801940 0 420.50585920 0 4881.20117933 0 162.44982804 0 436.10455040 0 12933
0.11050000 0.11050200 15497.15798592 0 223.31329034 0 4935.07911189 0 -108.93263182 0 656.87120603 0 13428
0.11150000 0.11150900 15294.97733473 0 397.70904963 0 5010.72523505 0 -149.03681376 0 1127.02979864 0 13453
0.11250000 0.11250000 15063.23357628 0 22.99389695 0 5811.63077849 0 67.49589559 0 1457.04043986 0 13668
0.11350000 0.11349100 15098.00067621 0 264.86772538 0 6158.75923388 0 157.86588557 0 1260.67275920 0 13791
0.11450000 0.11448600 14952.39960484 0 128.25627454 0 5917.49327608 0 357.33713887 0 1480.63556405 0 14205
0.11550000 0.11549300 14808.90227519 0 199.33838541 0 5718.59003304 0 406.90350816 0 2072.47347025 0 14776
0.11650000 0.11649800 14849.64843053 0 -49.12646582 0 5836.91996837 0 204.18252752 0 1782.21247513 0 14553
0.11750000 0.11747300 14959.48589273 0 -130.93799161 0 5251.40435964 0 106.91957244 0 1143.91509399 0 14568
0.11850000 0.11849100 14961.47891120 0 -0.02598431 0 5367.91843370 0 185.55776994 0 656.19136528 0 16015
0.11950000 0.11950300 14723.31320435 0 131.15943810 0 4461.74829822 0 -242.07977367 0 462.06583040 0 15270
0.12050000 0.12050700 14742.46832628 0 229.24362751 0 4950.39213712 0 311.81327538 0 305.32932197 0 15999
0.12150000 0.12150000 14517.92157896 0 303.19347051 0 4476.61843045 0 533.63180187 0 -1.88374569 0 15670
0.12250000 0.12250700 14062.18468943 0 430.22293146 0 3754.32639323 0 726.30464773 0 -332.89719630 0 16887
0.12350000 0.12352200 13592.60739387 0 422.98495272 0 3813.35295684 0 366.35111851 0 24.07820972 0 16407
0.12450000 0.12449800 13535.03130481 0 110.64352745 0 3613.94038686 0 557.93112591 0 44.35174719 0 16306
0.12550000 0.12549900 13307.27358329 0 -156.50841854 0 3671.90400728 0 -116.26494676 0 185.40275739 0 17523
0.12650000 0.12650100 13627.26377055 0 220.75669054 0 3564.20350377 0 -437.54505986 0 -684.25749424 0 17154
0.12750000 0.12750600 13432.72302349 0 155.88947559 0 3930.81925084 0 -896.60696854 0 -790.39679995 0 18007
0.12850000 0.12850300 13318.89952435 0 281.27248183 0 4233.34838186 0 -866.22118754 0 -394.92546717 0 17496
0.12950000 0.12949900 13128.78770721 0 182.29143412 0 4618.41062208 0 -314.29126167 0 -358.60270560 0 18405
0.13050000 0.13049000 13246.26507354 0 -117.48511695 0 4612.89660432 0 958.75482051 0 -700.26032530 0 18100
0.13150000 0.13148800 13062.79665129 0 71.59730614 0 4203.48632183 0 1110.67597488 0 -475.12563753 0 19059
0.13250000 0.13249300 13103.98569962 0 281.14736456 0 4002.42397544 0 1037.31517956 0 -619.73352135 0 18957
0.13350000 0.13349100 12625.88271395 0 301.30785359 0 3412.88911280 0 359.50952900 0 -292.95821345 0 19468
0.13450000 0.13450700 12449.16840984 0 275.99319736 0 3403.49978135 0 -201.03798727 0 52.35050536 0 19953
0.13550000 0.13551000 12210.33836351 0 258.12357233 0 3819.58667571 0 -330.25976853 0 -98.89147261 0 19956
0.13650000 0.13649900 12092.41810419 0 253.80093673 0 3433.39505836 0 -394.07954155 0 -228.57928802 0 19723
0.13750000 0.13749600 11778.29624908 0 295.69972107 0 3913.81215992 0 -157.38645390 0 -437.81522458 0 20946
0.13850000 0.13851100 11553.19588552 0 309.33528909 0 3628.67765119 0 -176.39874285 0 -86.49390123 0 20955
0.13950000 0.13949800 11305.17580958 0 192.75367384 0 4073.19827569 0 571.18137702 0 -284.63514688 0 20506
0.14050000 0.14048300 11258.67204534 0 86.52357506 0 3608.08312703 0 686.80855787 0 176.87485282 0 21447
0.14150000 0.14148400 11216.59721103 0 44.75367258 0 3960.82525110 0 543.34333797 0 388.98405767 0 21771
0.14250000 0.14249400 11120.93232460 0 169.97679445 0 3742.09147431 0 268.58691929 0 560.44122195 0 22470
0.14350000 0.14350900 11074.20711387 0 214.67687698 0 3846.63636525 0 -25.73905844 0 1034.01784123 0 22519
0.14450000 0.14449900 10832.13287636 0 198.21675890 0 3445.64104961 0 -73.97320560 0 1082.62202549 0 22218
0.14550000 0.14550500 10685.73459760 0 169.87825076 0 3690.72695947 0 141.45005679 0 1037.85218732 0 23559
0.14650000 0.14650700 10547.38589899 0 287.15299354 0 3548.33686231 0 231.75925971 0 961.39224828 0 23044
0.14750000 0.14750500 10340.44414813 0 121.51987212 0 3680.42969739 0 210.14054550 0 749.31072424 0 23649
0.14850000 0.14849900 10228.68010141 0 149.45534763 0 3417.74986340 0 68.99841006 0 957.06961267 0 23640
0.14950000 0.14949500 10211.67301049 0 47.52795428 0 3621.64672493 0 145.92549048 0 1048.24577863 0 24457
0.15050000 0.15050000 10226.72029992 0 -40.77726857 0 3213.68691699 0 83.10278031 0 1066.55608218 0 24591
0.15150000 0.15149900 10206.19220971 0 47.38855371 0 3565.43253183 0 342.51683210 0 873.12035313 0 25020
0.15250000 0.15250500 10224.58334123 0 -16.73083642 0 3453.03736259 0 -345.55839973 0 849.35139344 0 25297
0.15350000 0.15350100 10285.31504286 0 206.99821972 0 3786.22576104 0 -261.13524469 0 825.70201486 0 25452
0.15450000 0.15450400 10113.22897053 0 207.54629980 0 3862.20405394 0 -211.07283525 0 628.44854822 0 26061
0.15550000 0.15549900 9895.93459596 0 221.18297504 0 3601.26257494 0 -66.12458816 0 678.49324193 0 26128
0.15650000 0.15649500 9649.75252595 0 281.78845217 0 3852.33861253 0 186.88091275 0 35.53629434 0 26331
0.15750000 0.15749700 9489.71314302 0 238.05719807 0 3627.79186521 0 154.09686620 0 339.52398270 0 27345
0.15850000 0.15849900 9104.48481793 0 232.69487116 0 3255.15277343 0 396.16888924 0 146.22112156 0 26980
0.15950000 0.15949700 9108.26048069 0 104.35167887 0 2949.26872799 0 693.95020738 0 378.19850606 0 27777
0.16050000 0.16050000 8994.06052251 0 -52.24421104 0 2802.08431418 0 454.24766185 0 253.85851281 0 28224
0.16150000 0.16150500 9032.01645199 0 91.78724756 0 2613.81050296 0 68.14263008 0 398.84285569 0 28075
0.16250000 0.16249700 8832.96926872 0 235.28911686 0 2692.90011914 0 -105.50962260 0 338.76220676 0 28590
0.16350000 0.16349900 8744.47924877 0 138.71519256 0 2665.02000525 0 -72.21204162 0 472.65540186 0 29163
0.16450000 0.16449100 8667.48230199 0 -25.10760376 0 2658.40982733 0 379.83278121 0 543.92684948 0 28996
0.16550000 0.16550500 8747.85630784 0 -125.33982418 0 2500.88386214 0 403.30057366 0 476.78316455 0 30777
0.16650000 0.16650700 8685.48590214 0 3.20910297 0 2163.67620979 0 172.98403787 0 247.67904833 0 29211
0.16750000 0.16749900 8714.48432084 0 218.81239030 0 2278.19726539 0 251.79795317 0 176.12304196 0 30922
0.16850000 0.16850800 8495.42944663 0 163.37990333 0 1862.95186771 0 59.73463878 0 425.14516329 0 30867
0.16950000 0.16949900 8457.48458947 0 151.96765814 0 1932.13175318 0 128.99479860 0 513.60196627 0 30852
0.17050000 0.17049200 8245.56029245 0 48.74469206 0 1840.68542250 0 262.39416802 0 537.09854677 0 31257
0.17150000 0.17149500 8238.14183482 0 94.86933989 0 1722.35548716 0 241.59591308 0 631.39932278 0 32608
0.17250000 0.17250900 8236.64707097 0 104.53359717 0 1715.21383766 0 -61.27922809 0 654.49397789 0 32361
0.17350000 0.17350400 8162.20783121 0 97.17227273 0 1928.24536717 0 94.47350428 0 620.94261922 0 32508
0.17450000 0.17449800 8003.00994497 0 194.01924056 0 2004.27902170 0 -268.86372741 0 736.35831867 0 32791
0.17550000 0.17549800 7966.28304355 0 137.45184030 0 2065.35396540 0 -192.89872129 0 884.15503205 0 33633
0.17650000 0.17650100 7857.17635478 0 78.67794714 0 2275.05272514 0 -9.92413581 0 640.16528234 0 33984
0.17750000 0.17750300 7874.39381988 0 72.32785814 0 2266.10628668 0 -35.74688995 0 801.46469584 0 34069
0.17850000 0.17849800 7890.49298016 0 -0.86317298 0 2361.26184617 0 16.11709745 0 613.70685496 0 34536
