### header ###
fiducial parameters:
Omega_m = 0.31
Omega_nu = 0
Omega_de = 0.69
Omega_k = 0
H_0 = 100
w_de = -1
zeff = 0
beta = 0
fgrowth = 0
b_1 = 2
gamma = 0.55
Lx = 3500 Ly = 3500 Lz = 3500
nx = 700 ny = 700 nz = 700
xoffset = -685.467585 yoffset = -31.7331281 zoffset = 572.489161
bins = 400 dk = 0.001
kx_ny = 0.628318531 ky_ny = 0.628318531 kz_ny = 0.628318531
############################
A(data) = 8.07988161 (not used)
A(ran) = 8.07331599 (used)
Ngal = 480314
weighted Ngal = 0
Nran = 23820508
weighted Nran = 0
SN(data) = 3491.09717
SN(ran) = 70.3215102
SN(data+ran) = 3561.41868
############################
13 columns: k_central k_mean P_0(k) sigma^{lin}_{P_0(k)} P^img_1(k) sigma^{lin}_{P_1(k)} P_2(k) sigma^{lin}_{P_2(k)} P^img_3(k) sigma^{lin}_{P_3(k)} P_4(k) sigma^{lin}_{P_4(k)} N_modes
### header ###
0.00050000 0 0 0 0 0 0 0 0 0 0 0 0
0.00150000 0.00179520 69025.64798218 0 -82867.16123797 0 -30619.84994648 0 115338.19317087 0 -75220.72444146 0 3
0.00250000 0.00253879 108816.26168295 0 -64387.22966915 0 21859.98016621 0 -54729.39434609 0 44188.20894899 0 6
0.00350000 0.00331552 125096.23303355 0 -15955.55223341 0 13258.11246110 0 -93821.67652054 0 61802.17399374 0 7
0.00450000 0.00420575 124644.48218095 0 27467.22690086 0 23165.51798557 0 -72890.11079038 0 61506.65364433 0 24
0.00550000 0.00557378 81113.30498669 0 40928.73796888 0 25708.72027317 0 -36296.29871125 0 45009.55400404 0 45
0.00650000 0.00659388 75182.63564408 0 33019.22273468 0 68104.43055727 0 8295.61827295 0 35338.09972145 0 40
0.00750000 0.00754703 49383.45447715 0 9140.64703079 0 52843.99887597 0 14880.76166327 0 -12814.77657536 0 57
0.00850000 0.00846663 53667.11550299 0 -1224.82057144 0 54650.78083987 0 39223.71067005 0 -19295.62973821 0 75
0.00950000 0.00948925 56202.01354697 0 -5718.84469651 0 39603.71285783 0 27094.86461721 0 -33880.64960557 0 112
0.01050000 0.01054430 57568.89204583 0 -8220.51469371 0 26622.85141019 0 27356.83582242 0 -22352.36645089 0 105
0.01150000 0.01145670 68732.00992799 0 -9301.47254878 0 10916.98010144 0 20201.12446188 0 -17038.53632393 0 144
0.01250000 0.01249090 69895.71126643 0 -5827.61921552 0 -290.81239690 0 14667.73013376 0 -19171.73042349 0 169
0.01350000 0.01339930 70985.00658209 0 5028.79526916 0 -3613.98467616 0 5224.93043100 0 -9631.89286601 0 180
0.01450000 0.01448870 66408.92545779 0 2598.54176704 0 -1470.53760381 0 5909.56549151 0 4505.22931778 0 267
0.01550000 0.01550050 62456.65911377 0 9728.54318936 0 -12465.55545058 0 2120.50521532 0 9974.47059590 0 238
0.01650000 0.01653350 56551.89901124 0 4181.39703381 0 -1411.36709998 0 13242.72192960 0 10075.94845287 0 315
0.01750000 0.01747870 53599.46359834 0 -2548.09625516 0 4277.64875346 0 -4721.93685913 0 11786.60049270 0 297
0.01850000 0.01844180 58429.54385398 0 -3116.01793976 0 4003.83016070 0 12267.69300607 0 9241.92558590 0 388
0.01950000 0.01947590 55994.18601012 0 -2974.24789278 0 -3465.22799222 0 -912.28648771 0 9921.72204047 0 399
0.02050000 0.02045430 62077.98560497 0 -1979.82025617 0 1089.38721595 0 -104.11550618 0 10084.91703597 0 462
0.02150000 0.02154770 63712.70364120 0 -3110.90252570 0 -1298.18579569 0 -12760.07929075 0 9301.38397018 0 571
0.02250000 0.02255340 69976.87140735 0 413.59451404 0 4582.18197527 0 3588.34117188 0 -889.10879017 0 510
0.02350000 0.02348930 67346.08703044 0 -1969.01366715 0 6485.33745440 0 -15734.32718354 0 11813.28479551 0 555
0.02450000 0.02439640 67308.21967956 0 4529.10125009 0 10341.11955995 0 807.70727257 0 -10452.11961625 0 592
0.02550000 0.02547300 71280.85910124 0 -334.19598000 0 17477.44327974 0 -12106.36923346 0 -15702.32816481 0 837
0.02650000 0.02652900 68168.20714822 0 -1933.27220263 0 20978.29094090 0 -7967.48992695 0 -8853.34234639 0 723
0.02750000 0.02749970 72456.85072023 0 718.71456907 0 18197.25511620 0 -5518.02594127 0 -16562.75852647 0 826
0.02850000 0.02848090 73266.12694122 0 -2041.78098586 0 25923.52337465 0 2827.86068636 0 -14207.34286780 0 831
0.02950000 0.02946900 74779.93519043 0 -986.79659035 0 12528.44625555 0 9720.29430737 0 -19425.17593858 0 996
0.03050000 0.03053250 70916.46889146 0 3258.35267531 0 13665.68473767 0 4594.35046025 0 -18843.32526937 0 1041
0.03150000 0.03150510 71245.20621532 0 4193.25549369 0 8663.78414550 0 2727.93295487 0 -18002.93581563 0 1036
0.03250000 0.03246190 61744.59790468 0 6552.21429631 0 12197.82663646 0 -2000.10475524 0 -12154.53384642 0 1059
0.03350000 0.03345080 59805.72310569 0 3598.26197491 0 10235.38993025 0 -1826.65678696 0 -10692.43335412 0 1302
0.03450000 0.03451200 56753.52604618 0 1698.94859250 0 6224.05273333 0 -1862.39825147 0 -9578.33603087 0 1339
0.03550000 0.03553350 56549.68454627 0 556.21159387 0 9343.44773216 0 -3449.07347031 0 -14885.30131644 0 1365
0.03650000 0.03647120 55684.38236170 0 -66.30838875 0 9906.42008757 0 -1791.86754238 0 -18174.22468057 0 1308
0.03750000 0.03744890 55754.35945455 0 3316.57095920 0 12642.93409417 0 -7477.97137439 0 -18312.29657106 0 1579
0.03850000 0.03847530 52233.91377846 0 5280.91210528 0 13452.98537790 0 -2973.66105957 0 -11653.84331812 0 1662
0.03950000 0.03950240 47838.86516495 0 2261.53341653 0 12688.10917943 0 5611.52065204 0 -14243.99226295 0 1683
0.04050000 0.04050350 47769.99530457 0 40.68204657 0 9414.44347890 0 3032.02328369 0 -16835.46988675 0 1822
0.04150000 0.04152450 45428.53077518 0 404.59271397 0 9221.60786986 0 5854.58032646 0 -19772.62549139 0 1887
0.04250000 0.04250150 45866.10905201 0 1453.02118595 0 5360.32281888 0 -35.25594307 0 -13024.37568417 0 1920
0.04350000 0.04349210 43682.53587452 0 1421.59792812 0 6539.96830506 0 -2906.69563907 0 -11784.49675098 0 2005
0.04450000 0.04448520 44549.49890782 0 697.59521671 0 9520.99246063 0 -3194.66466295 0 -12015.24400020 0 2151
0.04550000 0.04548030 41712.65856604 0 1994.19213379 0 11804.98055190 0 -4181.87314378 0 -13009.53876892 0 2274
0.04650000 0.04648670 41307.96509392 0 2638.19176221 0 17631.34859472 0 -5445.79009415 0 -9660.63662124 0 2311
0.04750000 0.04749250 40378.22197889 0 1573.44379068 0 19312.90256492 0 -461.36827394 0 -9470.49158713 0 2568
0.04850000 0.04851840 39095.93604165 0 335.72063913 0 22484.23783948 0 2209.30526036 0 -5453.88396360 0 2493
0.04950000 0.04949480 39337.31272269 0 -921.25617805 0 19684.60050909 0 2228.53788857 0 -6374.59206157 0 2644
0.05050000 0.05050630 40474.66192807 0 974.48416515 0 19355.86318522 0 3251.74249739 0 -5685.25126301 0 2829
0.05150000 0.05149060 38559.03901119 0 215.18731115 0 17428.17143429 0 3100.68276989 0 -3570.14934220 0 2784
0.05250000 0.05249300 37933.34193569 0 429.67374414 0 14224.17280152 0 3865.71398091 0 -5583.55195955 0 3055
0.05350000 0.05348950 37432.54068414 0 -230.44165306 0 14359.25516431 0 729.11480377 0 -4300.19200679 0 3009
0.05450000 0.05448610 36848.69699645 0 2211.47543603 0 12053.00062783 0 915.29151667 0 -7809.42141784 0 3336
0.05550000 0.05550870 36059.35096013 0 1241.86087933 0 11050.78914687 0 -41.04134351 0 -3706.36108212 0 3349
0.05650000 0.05647670 34443.23442960 0 67.11168591 0 11047.68889592 0 1321.76984755 0 -1696.81163381 0 3324
0.05750000 0.05747970 35344.63239309 0 649.65315748 0 11844.95164449 0 1517.74999684 0 -1846.64233325 0 3639
0.05850000 0.05849280 33851.30794480 0 129.35907809 0 11607.22883064 0 2700.31857677 0 -1749.39410437 0 3846
0.05950000 0.05951020 32980.58032106 0 1331.85673546 0 8989.22191657 0 1229.22735672 0 -2118.30182268 0 3787
0.06050000 0.06049470 32844.28000254 0 1015.52373709 0 10368.26890040 0 1790.43921247 0 341.85913601 0 3930
0.06150000 0.06148310 30917.14186786 0 1032.76556130 0 9981.03648452 0 -609.86254378 0 -665.81985895 0 4083
0.06250000 0.06249100 30458.96906686 0 878.67644573 0 8517.81768741 0 1769.30214440 0 627.31474216 0 4303
0.06350000 0.06350600 29964.70048696 0 671.89856527 0 10065.18615314 0 -1033.26049422 0 924.95987070 0 4470
0.06450000 0.06451750 30197.10858490 0 -523.32789639 0 8201.52565664 0 1675.49740853 0 783.45555952 0 4479
0.06550000 0.06550280 30665.57864798 0 -345.11107781 0 8413.18421788 0 1367.07780071 0 1695.57153343 0 4636
0.06650000 0.06648880 31436.21245536 0 -321.29672159 0 8575.67058459 0 70.22267702 0 2878.97053772 0 4653
0.06750000 0.06749660 31014.91049601 0 638.58415436 0 10661.16510883 0 -422.20103212 0 2385.68739472 0 5220
0.06850000 0.06852730 30675.54374032 0 1898.67118758 0 11057.94186871 0 -952.30740577 0 3716.51440398 0 5029
0.06950000 0.06949320 29549.48830626 0 763.62613300 0 12181.77176547 0 -1374.78413878 0 4551.94345619 0 5040
0.07050000 0.07048030 28220.92005127 0 725.80307142 0 11705.99396802 0 352.95692717 0 3185.46356103 0 5475
0.07150000 0.07148790 28779.51883837 0 86.14833397 0 13157.68647499 0 605.47901038 0 4034.42299417 0 5509
0.07250000 0.07249820 28812.62508958 0 -523.27585646 0 12310.87507286 0 1964.85047302 0 3566.20759456 0 5916
0.07350000 0.07351270 28742.98016647 0 284.83001980 0 13068.99715319 0 1225.17488583 0 4058.68245785 0 5721
0.07450000 0.07449140 28327.76798577 0 707.39754587 0 11039.10784419 0 1757.67620334 0 2059.46348859 0 6028
0.07550000 0.07549160 27105.27260254 0 1488.19796190 0 12021.44450210 0 -177.98319253 0 1870.91286926 0 6183
0.07650000 0.07648840 26252.92503800 0 1330.22910371 0 10927.07806168 0 -490.06884710 0 2557.62952683 0 6330
0.07750000 0.07749960 25039.28751463 0 1093.38543245 0 11162.56426592 0 452.26017954 0 2912.60826052 0 6583
0.07850000 0.07848650 24158.04118232 0 151.42068529 0 10264.22226408 0 341.49485652 0 1103.40588641 0 6549
0.07950000 0.07947320 24394.54604044 0 -280.21286035 0 9713.93879292 0 1723.63987684 0 802.71697577 0 6828
0.08050000 0.08048110 24624.73967342 0 -109.04545881 0 8871.39023585 0 1036.73609698 0 -743.85760427 0 7147
0.08150000 0.08149960 24113.19826680 0 302.28664711 0 8347.64712727 0 1157.71121071 0 86.40377251 0 7386
0.08250000 0.08250610 23822.10684732 0 484.81392174 0 7353.99455340 0 786.59788530 0 374.75501304 0 7227
0.08350000 0.08350160 23472.11065980 0 123.90042195 0 7028.65643325 0 1103.22762198 0 4.59143844 0 7798
0.08450000 0.08449610 23144.36984517 0 354.46054888 0 7031.40236981 0 736.89975535 0 220.57510441 0 7371
0.08550000 0.08548940 23023.57078140 0 470.08662250 0 7242.86162919 0 169.45971688 0 1511.35019310 0 8256
0.08650000 0.08650700 22652.86934647 0 300.54718488 0 6805.36085863 0 562.21168669 0 738.62703802 0 8037
0.08750000 0.08749060 22348.93403020 0 502.42334713 0 7317.54446010 0 -266.89617529 0 1564.79630500 0 8155
0.08850000 0.08849210 22002.14881688 0 455.69924363 0 6550.05519297 0 269.65096970 0 843.83516122 0 8718
0.08950000 0.08949900 21643.40549275 0 422.78897257 0 6952.39025990 0 -418.32904014 0 563.09082928 0 8571
0.09050000 0.09049190 21110.60522248 0 548.93486200 0 6764.48183540 0 171.96981292 0 -430.20632297 0 8932
0.09150000 0.09150830 20838.11530869 0 829.19201165 0 7826.61673828 0 -714.41075641 0 -754.07403838 0 9285
0.09250000 0.09250820 19959.08344134 0 979.05814253 0 7937.88253039 0 111.59021122 0 323.27091710 0 9204
0.09350000 0.09350330 19571.88424243 0 342.91765026 0 7084.73775846 0 1137.02810795 0 939.03943894 0 9349
0.09450000 0.09448040 19297.17986368 0 -337.03824578 0 7104.23612246 0 1715.22490998 0 1426.72441451 0 9564
0.09550000 0.09549270 19300.72300762 0 -302.47930556 0 6636.77364095 0 1730.93653890 0 581.91045977 0 10155
0.09650000 0.09649430 19896.63552936 0 244.38503170 0 6234.53822493 0 -349.32852633 0 245.83882795 0 9913
0.09750000 0.09749140 19004.98121172 0 629.49931184 0 6263.96846430 0 -883.94797957 0 -20.91551086 0 10476
0.09850000 0.09850240 18546.80841072 0 649.01539157 0 6370.16313164 0 -873.59757033 0 611.67619058 0 10575
0.09950000 0.09950330 18224.71448175 0 232.72587367 0 6469.75869338 0 -311.77120055 0 -134.33940979 0 10882
0.10050000 0.10051200 17974.92283384 0 74.58218347 0 6202.93780990 0 968.74095027 0 -374.00209496 0 10875
0.10150000 0.10150300 18262.02821639 0 194.00706101 0 5989.41909810 0 830.47086516 0 -1394.76968508 0 11118
0.10250000 0.10250800 17251.90002318 0 341.96321586 0 5042.61353053 0 1131.56945182 0 -781.30088511 0 11575
0.10350000 0.10349800 17510.54953094 0 656.79923592 0 4729.14494259 0 750.64272492 0 3.55331941 0 11364
0.10450000 0.10450100 16854.73573194 0 149.92702867 0 4576.22506452 0 603.76944343 0 515.78210703 0 12093
0.10550000 0.10551000 16578.92412070 0 137.20824915 0 4706.21415789 0 650.06947689 0 -58.85915006 0 12067
0.10650000 0.10649700 16423.02578726 0 376.30292405 0 5103.83241445 0 -379.40096054 0 502.09449909 0 12054
0.10750000 0.10749900 16315.84568301 0 216.24250371 0 5486.17086277 0 0.66760250 0 1316.75408441 0 12807
0.10850000 0.10850100 16291.92946140 0 333.94463823 0 5369.16960641 0 -271.20109518 0 1702.72425526 0 12736
0.10950000 0.10950300 15798.65739073 0 484.18058476 0 5594.54677809 0 293.29259766 0 2355.31600775 0 12933
0.11050000 0.11050200 15950.45896400 0 4.60028523 0 5815.12963313 0 287.34233030 0 1783.00968252 0 13428
0.11150000 0.11150900 15638.55157386 0 171.62103469 0 5414.92045256 0 220.54853083 0 1781.68100354 0 13453
0.11250000 0.11250000 15634.45481367 0 501.77118720 0 5532.09886611 0 -440.46704638 0 1820.79952713 0 13668
0.11350000 0.11349100 15072.75577562 0 247.24501320 0 5432.60295529 0 113.91872113 0 2319.20915651 0 13791
0.11450000 0.11448600 15129.99969494 0 -32.62892328 0 5304.47401249 0 204.28992907 0 2094.75098779 0 14205
0.11550000 0.11549300 14857.62050440 0 81.34360934 0 5272.84038049 0 598.99727143 0 1846.39874211 0 14776
0.11650000 0.11649800 14972.10834302 0 262.44731518 0 5351.58675460 0 190.58792710 0 1125.65683036 0 14553
0.11750000 0.11747300 14585.24131386 0 291.32947447 0 5388.20293277 0 844.41977997 0 1247.90636869 0 14568
0.11850000 0.11849100 14245.21021868 0 299.76658598 0 4639.97951083 0 -2.87021233 0 1334.63588899 0 16015
0.11950000 0.11950300 14014.90586245 0 144.20595844 0 4600.65061307 0 485.06637075 0 1195.27960882 0 15270
0.12050000 0.12050700 14072.81412125 0 4.64357802 0 4342.69866177 0 55.14947835 0 1183.95262053 0 15999
0.12150000 0.12150000 13693.58699621 0 367.32216139 0 4156.18535020 0 -152.27103984 0 611.23551206 0 15670
0.12250000 0.12250700 13769.21097472 0 228.09985636 0 4159.54026462 0 -462.07690273 0 40.39040154 0 16887
0.12350000 0.12352200 13383.56190129 0 211.49579806 0 4089.99499243 0 -190.86584246 0 -119.87563188 0 16407
0.12450000 0.12449800 13286.78978238 0 173.97611818 0 4274.18311579 0 78.67739353 0 -413.89789574 0 16306
0.12550000 0.12549900 13126.46251900 0 173.10361898 0 4461.83687682 0 293.17080208 0 -1171.97236508 0 17523
0.12650000 0.12650100 13188.24609149 0 130.75972718 0 4253.34500048 0 383.71473829 0 -69.95251229 0 17154
0.12750000 0.12750600 12935.68636238 0 56.15584195 0 3581.44311351 0 857.04333749 0 -179.40266457 0 18007
0.12850000 0.12850300 12899.59058347 0 -72.07374828 0 3302.65304691 0 711.09791683 0 525.51246608 0 17496
0.12950000 0.12949900 13015.96071731 0 80.64084889 0 3403.78766180 0 225.35724150 0 -443.79870892 0 18405
0.13050000 0.13049000 12778.23790346 0 199.86210637 0 3297.54870516 0 -166.36389487 0 699.87722286 0 18100
0.13150000 0.13148800 12650.02038206 0 365.15309296 0 3487.36156953 0 -462.42457373 0 702.69402229 0 19059
0.13250000 0.13249300 12640.60890596 0 -27.77060860 0 3727.54243950 0 -62.02672074 0 1155.03170811 0 18957
0.13350000 0.13349100 12823.30226547 0 -215.13527123 0 4055.44933900 0 277.36395117 0 681.05205620 0 19468
0.13450000 0.13450700 12807.57956422 0 44.98696646 0 3897.15938339 0 241.72545928 0 850.91812741 0 19953
0.13550000 0.13551000 12814.66585211 0 182.38776334 0 3931.17356524 0 486.56999246 0 1094.89459032 0 19956
0.13650000 0.13649900 12478.51007061 0 145.52245786 0 3737.71790600 0 563.34770722 0 1374.80628343 0 19723
0.13750000 0.13749600 12554.24477237 0 118.65989062 0 3554.39342398 0 527.35711539 0 1314.51747479 0 20946
0.13850000 0.13851100 12284.96583278 0 172.01520945 0 2989.78236451 0 317.95952289 0 1181.78244487 0 20955
0.13950000 0.13949800 12170.81016390 0 201.56502993 0 3245.86309291 0 -87.61287038 0 1227.47792940 0 20506
0.14050000 0.14048300 11888.57660428 0 294.26253331 0 3018.45968579 0 -687.99994002 0 824.22275227 0 21447
0.14150000 0.14148400 11592.17046888 0 431.50621390 0 3291.40356489 0 -16.84012026 0 1085.41889474 0 21771
0.14250000 0.14249400 11309.27256977 0 370.48109566 0 3367.62544894 0 -560.00718682 0 510.99664824 0 22470
0.14350000 0.14350900 11152.26700384 0 236.08300255 0 3476.64355911 0 144.61674169 0 805.18278251 0 22519
0.14450000 0.14449900 10959.82999849 0 135.46657246 0 3567.06016358 0 -108.57410994 0 404.72779633 0 22218
0.14550000 0.14550500 10869.57947889 0 266.20969115 0 3373.61557667 0 305.57955651 0 628.31678755 0 23559
0.14650000 0.14650700 10548.07238313 0 127.42142125 0 3613.16532412 0 208.09991604 0 519.41382957 0 23044
0.14750000 0.14750500 10397.21195748 0 178.48144715 0 3318.53076070 0 239.47113395 0 175.61814395 0 23649
0.14850000 0.14849900 10329.69292073 0 27.09187509 0 3294.54810514 0 198.50131765 0 358.11441607 0 23640
0.14950000 0.14949500 10300.90487621 0 86.43333562 0 3149.67780721 0 316.73381653 0 131.68315907 0 24457
0.15050000 0.15050000 10211.58443189 0 -30.43837454 0 2984.15762350 0 -76.26550901 0 212.48677113 0 24591
0.15150000 0.15149900 10345.24953711 0 145.91663262 0 3006.05868199 0 -28.77342906 0 140.73478461 0 25020
0.15250000 0.15250500 10118.52154179 0 252.98047746 0 2996.25967452 0 -75.31506065 0 306.73882892 0 25297
0.15350000 0.15350100 10026.30014838 0 109.78896542 0 3041.61191698 0 98.02196294 0 483.49631509 0 25452
0.15450000 0.15450400 10013.97665086 0 -13.31159179 0 2887.04226251 0 399.35218263 0 520.58971046 0 26061
0.15550000 0.15549900 9904.57100932 0 93.67651834 0 3210.85240183 0 334.73188052 0 532.05399558 0 26128
0.15650000 0.15649500 9870.87792490 0 192.33513996 0 2917.49115576 0 195.78749084 0 326.25712311 0 26331
0.15750000 0.15749700 9582.98640729 0 231.25436170 0 3041.88872510 0 25.88731687 0 849.54626636 0 27345
0.15850000 0.15849900 9418.91669813 0 227.40672882 0 2704.14960116 0 230.94765830 0 535.38565812 0 26980
0.15950000 0.15949700 9255.54454543 0 116.73109163 0 2643.63934602 0 294.24260313 0 791.41988276 0 27777
0.16050000 0.16050000 9293.52261956 0 1.97922235 0 2568.22574169 0 343.75028909 0 561.84297827 0 28224
0.16150000 0.16150500 9110.89569400 0 91.25234355 0 2489.19148713 0 164.51481662 0 575.02568820 0 28075
0.16250000 0.16249700 9152.82658809 0 110.71649407 0 2250.42787474 0 163.50944953 0 635.75517537 0 28590
0.16350000 0.16349900 9026.59101283 0 118.44398028 0 2096.63328301 0 146.63744097 0 765.69997944 0 29163
0.16450000 0.16449100 8985.24695196 0 67.12929091 0 2110.28545951 0 40.13750964 0 690.46242506 0 28996
0.16550000 0.16550500 8889.72600575 0 7.93983126 0 1869.00842939 0 320.63016763 0 404.53956681 0 30777
0.16650000 0.16650700 9018.31998619 0 78.52836003 0 1965.60339111 0 -305.76889326 0 346.96237052 0 29211
0.16750000 0.16749900 8762.40534266 0 165.39285198 0 1971.33885536 0 -46.77448258 0 141.74015170 0 30922
0.16850000 0.16850800 8753.92394184 0 147.32835404 0 2002.52959438 0 -181.48204717 0 -5.94466476 0 30867
0.16950000 0.16949900 8595.49004601 0 280.34683548 0 2085.27307775 0 -257.06505808 0 38.64617821 0 30852
0.17050000 0.17049200 8440.87610225 0 126.28650795 0 2127.61364785 0 -113.11265588 0 -136.31581977 0 31257
0.17150000 0.17149500 8315.16092626 0 155.74553536 0 2160.83062231 0 -106.54687799 0 -103.98352407 0 32608
0.17250000 0.17250900 8241.14243484 0 124.55258188 0 2090.12275602 0 76.62879199 0 -180.71584230 0 32361
0.17350000 0.17350400 8190.55298275 0 85.02659675 0 2242.97620014 0 198.55667928 0 24.95469495 0 32508
0.17450000 0.17449800 8089.63981435 0 114.98941494 0 1947.92088837 0 274.53718665 0 -50.90733854 0 32791
0.17550000 0.17549800 7976.55816098 0 67.32128502 0 1925.53264759 0 235.09535118 0 48.99880191 0 33633
0.17650000 0.17650100 8012.46571036 0 17.53103333 0 1932.36427200 0 51.71971501 0 189.54823580 0 33984
0.17750000 0.17750300 7950.63784858 0 123.73101538 0 1982.46654180 0 -135.04914581 0 309.14816680 0 34069
0.17850000 0.17849800 7865.13735633 0 110.20783147 0 2059.76244136 0 -165.68294689 0 52.96391215 0 34536
