### header ###
fiducial parameters:
Omega_m = 0.31
Omega_nu = 0
Omega_de = 0.69
Omega_k = 0
H_0 = 100
w_de = -1
zeff = 0
beta = 0
fgrowth = 0
b_1 = 2
gamma = 0.55
Lx = 3500 Ly = 3500 Lz = 3500
nx = 700 ny = 700 nz = 700
xoffset = -685.467585 yoffset = -31.7331281 zoffset = 572.489161
bins = 400 dk = 0.001
kx_ny = 0.628318531 ky_ny = 0.628318531 kz_ny = 0.628318531
############################
A(data) = 8.03674233 (not used)
A(ran) = 8.03474014 (used)
Ngal = 476987
weighted Ngal = 0
Nran = 23820508
weighted Nran = 0
SN(data) = 3491.61759
SN(ran) = 69.9855006
SN(data+ran) = 3561.60309
############################
13 columns: k_central k_mean P_0(k) sigma^{lin}_{P_0(k)} P^img_1(k) sigma^{lin}_{P_1(k)} P_2(k) sigma^{lin}_{P_2(k)} P^img_3(k) sigma^{lin}_{P_3(k)} P_4(k) sigma^{lin}_{P_4(k)} N_modes
### header ###
0.00050000 0 0 0 0 0 0 0 0 0 0 0 0
0.00150000 0.00179520 8151.91056913 0 -13795.78455429 0 7029.34291739 0 223.70303617 0 4741.87811613 0 3
0.00250000 0.00253879 23246.01378700 0 -23405.56598764 0 -3125.58442841 0 -22546.46430496 0 -12124.41712291 0 6
0.00350000 0.00331552 26348.03630820 0 -13775.41147662 0 -10936.73312892 0 10711.33381258 0 20352.81531189 0 7
0.00450000 0.00420575 39744.55282952 0 -11037.48021244 0 -8481.15721994 0 -22404.73854728 0 -2863.83466969 0 24
0.00550000 0.00557378 54626.31100203 0 -18105.68698995 0 -16140.57078113 0 -21090.12142156 0 -9020.42372790 0 45
0.00650000 0.00659388 50206.79255066 0 5901.12838000 0 7672.66713400 0 -26825.36423113 0 -6677.57515790 0 40
0.00750000 0.00754703 69187.08247803 0 -3672.25832168 0 -20891.59463757 0 -9762.61273282 0 -249.10184207 0 57
0.00850000 0.00846663 63046.37113361 0 -16.15607204 0 1657.83705045 0 -7542.24621997 0 215.99448363 0 75
0.00950000 0.00948925 74401.59385138 0 566.30733964 0 -26473.70719489 0 8516.97619073 0 1329.43189633 0 112
0.01050000 0.01054430 72426.84471997 0 -18456.90113319 0 -31253.85126559 0 13200.31492554 0 -32167.76095612 0 105
0.01150000 0.01145670 92933.56534684 0 -10321.74299152 0 -19551.84333451 0 -14566.19691517 0 -37053.31355910 0 144
0.01250000 0.01249090 91424.40747406 0 -2198.41009274 0 -15619.28572867 0 -30755.15375576 0 -50961.92510329 0 169
0.01350000 0.01339930 90756.74628749 0 12150.43708624 0 13570.13057448 0 -63259.07049338 0 -32082.94694801 0 180
0.01450000 0.01448870 84706.82800659 0 11436.93647492 0 26044.21171517 0 -35610.81108173 0 -38376.34565168 0 267
0.01550000 0.01550050 75249.95537898 0 3819.79704989 0 54406.85752412 0 -17888.66942350 0 -16600.18298436 0 238
0.01650000 0.01653350 80557.36355755 0 -731.11114394 0 53618.28655054 0 8449.81146838 0 -56357.80115717 0 315
0.01750000 0.01747870 83776.97416832 0 -3883.16396482 0 58084.30876614 0 8713.76461973 0 -46150.55707660 0 297
0.01850000 0.01844180 83465.73111766 0 -791.80962859 0 62000.03643825 0 3449.70459282 0 -43218.60546462 0 388
0.01950000 0.01947590 84670.51078118 0 1921.54661065 0 52246.75767525 0 11502.04174486 0 -24779.08788139 0 399
0.02050000 0.02045430 85744.41556534 0 3892.64187487 0 51042.31018148 0 18621.98949624 0 -20286.93497922 0 462
0.02150000 0.02154770 79240.97485986 0 5705.73506392 0 44988.73803338 0 6182.33221341 0 -8825.00826718 0 571
0.02250000 0.02255340 79657.18354979 0 10475.60401720 0 53311.36170656 0 3216.44392587 0 11233.31642151 0 510
0.02350000 0.02348930 68079.84999617 0 9782.26610938 0 47311.49033383 0 1743.40397664 0 914.03148610 0 555
0.02450000 0.02439640 64510.90753738 0 4370.53448636 0 50835.14698412 0 15077.18470555 0 21710.06088816 0 592
0.02550000 0.02547300 63952.08730378 0 -6411.14180579 0 37510.82202061 0 18153.51943316 0 -2603.25857741 0 837
0.02650000 0.02652900 68625.38343998 0 -3597.53120148 0 31397.68076499 0 12829.61349061 0 -10371.72346575 0 723
0.02750000 0.02749970 68125.57869767 0 2866.97920994 0 29282.64527813 0 2984.91054159 0 -8695.79423655 0 826
0.02850000 0.02848090 62373.72740088 0 4614.28064492 0 18008.13980829 0 -4198.95774098 0 1727.13873149 0 831
0.02950000 0.02946900 66205.96974386 0 737.50430429 0 25484.06280260 0 4189.85628997 0 -10924.29890815 0 996
0.03050000 0.03053250 63558.90904947 0 -768.82791120 0 18781.20952713 0 8594.44924748 0 -13926.99160339 0 1041
0.03150000 0.03150510 61325.84258004 0 5297.59809878 0 25599.99004345 0 -869.91380786 0 -15610.42786882 0 1036
0.03250000 0.03246190 58022.52519365 0 4667.92605867 0 18399.21432089 0 -8497.86535809 0 -13032.34775804 0 1059
0.03350000 0.03345080 54795.27467876 0 628.03665774 0 27218.43176219 0 6353.22247467 0 -2410.86586136 0 1302
0.03450000 0.03451200 55184.35617289 0 1081.98204512 0 24035.24910008 0 2190.22764470 0 -3061.13242564 0 1339
0.03550000 0.03553350 54321.48989977 0 -245.97833924 0 21398.15349802 0 5237.57502594 0 -3366.38534856 0 1365
0.03650000 0.03647120 54715.55394006 0 -1508.85892001 0 21750.69632025 0 2673.47926141 0 -8835.09515509 0 1308
0.03750000 0.03744890 53098.99451654 0 3356.06594183 0 17155.57079726 0 98.33088080 0 -8457.11920276 0 1579
0.03850000 0.03847530 50735.16389101 0 2568.55791143 0 20486.90116544 0 -2743.95460888 0 -9987.33663734 0 1662
0.03950000 0.03950240 49062.57850390 0 2335.15330425 0 16657.53762692 0 -2645.63236449 0 -9367.48574934 0 1683
0.04050000 0.04050350 46856.74995353 0 1151.31140697 0 17972.26547588 0 1324.92546012 0 -14222.84412254 0 1822
0.04150000 0.04152450 46306.78757979 0 461.62847357 0 15287.00526086 0 4193.84232691 0 -15501.80836235 0 1887
0.04250000 0.04250150 45229.45037494 0 424.35017037 0 14599.52461287 0 1949.94712381 0 -15870.51677881 0 1920
0.04350000 0.04349210 44303.91474335 0 2729.20627222 0 13458.85371006 0 1454.79275792 0 -11846.94466296 0 2005
0.04450000 0.04448520 42245.79100606 0 2334.11250572 0 15485.53204486 0 1633.59973142 0 -7989.78958914 0 2151
0.04550000 0.04548030 40716.81367185 0 1910.92825115 0 16170.90895114 0 3153.42025300 0 -1177.18743007 0 2274
0.04650000 0.04648670 39085.30660982 0 1719.65383991 0 15768.87283697 0 2480.78759259 0 2173.61915747 0 2311
0.04750000 0.04749250 39140.11461767 0 -432.63559103 0 16232.91397012 0 5625.23926249 0 4745.19981358 0 2568
0.04850000 0.04851840 38747.82214935 0 -487.83998811 0 15911.81655038 0 3717.53305786 0 5972.65559832 0 2493
0.04950000 0.04949480 39770.24062310 0 446.54021654 0 14509.28516560 0 3389.65937533 0 7876.38683834 0 2644
0.05050000 0.05050630 38696.22511569 0 -250.81030179 0 13105.97871809 0 -445.20378694 0 5791.85560636 0 2829
0.05150000 0.05149060 38664.33682022 0 1169.79111709 0 13090.25601684 0 -2476.55796451 0 3012.42526876 0 2784
0.05250000 0.05249300 37289.92914048 0 2301.30520728 0 14215.20421842 0 -2976.70594889 0 1373.11221773 0 3055
0.05350000 0.05348950 35564.30731749 0 2295.76904487 0 13709.86331370 0 -2130.25993348 0 4126.82154478 0 3009
0.05450000 0.05448610 34666.78466769 0 159.97737791 0 13349.12697110 0 1426.13758129 0 -1374.49625834 0 3336
0.05550000 0.05550870 34832.53737023 0 -380.66874173 0 14948.63501441 0 1493.90020918 0 -2300.74051872 0 3349
0.05650000 0.05647670 34931.30250761 0 -242.16281611 0 15154.58025603 0 -749.68496882 0 -4956.79194086 0 3324
0.05750000 0.05747970 35298.01790560 0 1102.05395555 0 14347.18633026 0 31.66297367 0 -1446.02347667 0 3639
0.05850000 0.05849280 34342.47627375 0 59.93526931 0 14043.14029074 0 1667.70249186 0 3581.04450982 0 3846
0.05950000 0.05951020 34862.32192399 0 -480.32852296 0 13917.13723430 0 3952.08918682 0 1275.97471210 0 3787
0.06050000 0.06049470 34711.51685996 0 -3.90078003 0 14176.78325130 0 2607.44391619 0 3301.51259745 0 3930
0.06150000 0.06148310 33766.27249019 0 1536.24077929 0 11855.69179957 0 2417.93000460 0 804.92147564 0 4083
0.06250000 0.06249100 32658.81856183 0 990.66747510 0 11926.11178541 0 259.72020157 0 3051.82060046 0 4303
0.06350000 0.06350600 32644.97815581 0 -513.44695372 0 10643.17258100 0 1333.06361887 0 314.35437393 0 4470
0.06450000 0.06451750 32280.47722278 0 -281.20272619 0 10001.78602123 0 -1285.58549004 0 -1621.51982504 0 4479
0.06550000 0.06550280 32471.80699564 0 560.56966092 0 8733.09689886 0 -519.30421355 0 -1174.78473558 0 4636
0.06650000 0.06648880 32399.94760757 0 1207.12699638 0 9290.44451326 0 -1400.18405192 0 -1582.27950588 0 4653
0.06750000 0.06749660 31459.68578397 0 526.83893059 0 9279.25039287 0 546.63624737 0 -3284.30620468 0 5220
0.06850000 0.06852730 30736.66297331 0 712.09331883 0 8922.16791746 0 -307.49396147 0 -4636.28135434 0 5029
0.06950000 0.06949320 30136.32152165 0 1616.10545820 0 9900.58497239 0 -1094.70636080 0 -4884.21285168 0 5040
0.07050000 0.07048030 28686.95420289 0 1253.34288017 0 9890.85239887 0 231.32301011 0 -4801.93440595 0 5475
0.07150000 0.07148790 27644.38409796 0 874.67933647 0 9097.18815587 0 111.36655026 0 -3242.82927591 0 5509
0.07250000 0.07249820 27051.79327367 0 -130.12417573 0 8870.20549709 0 1770.05506248 0 -3738.62583664 0 5916
0.07350000 0.07351270 27569.64590544 0 -834.01068741 0 8349.07545718 0 2678.37322898 0 -3215.22597014 0 5721
0.07450000 0.07449140 28034.68354782 0 -46.94034601 0 7825.37663790 0 1630.11194910 0 -4479.04326959 0 6028
0.07550000 0.07549160 27347.64579282 0 1052.89172612 0 7429.57424261 0 631.42036020 0 -2723.99120723 0 6183
0.07650000 0.07648840 27291.50910599 0 878.49264513 0 6613.32245698 0 -670.45584135 0 -1828.86017960 0 6330
0.07750000 0.07749960 25863.84354388 0 522.48750694 0 7268.51620580 0 -811.28252625 0 -923.45403452 0 6583
0.07850000 0.07848650 26137.32996690 0 744.03476147 0 7140.36511835 0 435.79341807 0 -796.95272347 0 6549
0.07950000 0.07947320 25095.97781770 0 245.49780034 0 7060.04647411 0 682.75608699 0 -1429.37070014 0 6828
0.08050000 0.08048110 24688.95915737 0 53.84338691 0 6627.68326227 0 1088.19140487 0 -1478.86399208 0 7147
0.08150000 0.08149960 24531.06780546 0 547.53421291 0 6039.32206606 0 1667.70249186 0 -478.78504088 0 7386
0.08250000 0.08250610 24118.40225946 0 474.54766217 0 5946.82386452 0 1067.87368883 0 -1269.09879839 0 7227
0.08350000 0.08350160 23807.15920881 0 249.35761278 0 5437.64086309 0 -21.75922201 0 437.14645616 0 7798
0.08450000 0.08449610 23958.07499609 0 -115.99367480 0 6288.27221728 0 -307.13411091 0 -915.28044434 0 7371
0.08550000 0.08548940 23390.95051888 0 780.27448060 0 6427.77243767 0 -785.04222366 0 2709.77434217 0 8256
0.08650000 0.08650700 23355.18690972 0 782.12466607 0 6745.39314742 0 -32.98080177 0 1111.25173577 0 8037
0.08750000 0.08749060 22660.95214359 0 290.35068095 0 6682.35840222 0 323.99504715 0 2774.79103350 0 8155
0.08850000 0.08849210 22574.36656350 0 420.57007868 0 6244.24865380 0 843.42216350 0 -149.53396114 0 8718
0.08950000 0.08949900 21856.32629902 0 91.47799753 0 5941.34306374 0 695.33203352 0 -63.33491592 0 8571
0.09050000 0.09049190 21346.44574112 0 556.71095572 0 5552.72660725 0 793.74507097 0 -1272.34298956 0 8932
0.09150000 0.09150830 21023.24457966 0 505.88677034 0 5152.89388573 0 221.06339393 0 -892.34412348 0 9285
0.09250000 0.09250820 20312.06915656 0 711.32379225 0 4576.72331914 0 109.62354489 0 -441.40819399 0 9204
0.09350000 0.09350330 20107.78476365 0 480.15468746 0 5172.68013018 0 -1315.59149030 0 -895.20189052 0 9349
0.09450000 0.09448040 19588.49272966 0 566.85984865 0 6220.42101079 0 -215.83061322 0 936.90469471 0 9564
0.09550000 0.09549270 19365.38538456 0 578.20787435 0 6601.67437127 0 -467.53555886 0 245.71481791 0 10155
0.09650000 0.09649430 19290.42574554 0 75.52277746 0 7564.41301425 0 638.23537613 0 1600.40490161 0 9913
0.09750000 0.09749140 19272.82074908 0 -9.50646557 0 7490.19522099 0 489.16313093 0 274.21498199 0 10476
0.09850000 0.09850240 19280.90354620 0 386.36323838 0 7348.14836589 0 -61.26571986 0 578.15915613 0 10575
0.09950000 0.09950330 18823.83797768 0 537.95775917 0 7786.77851359 0 -550.64221449 0 465.66433597 0 10882
0.10050000 0.10051200 18714.00051548 0 252.86200358 0 7525.64880506 0 -92.83889697 0 444.23052958 0 10875
0.10150000 0.10150300 18171.45659937 0 208.63913826 0 7261.71779836 0 259.82538866 0 722.89437169 0 11118
0.10250000 0.10250800 18033.16326238 0 493.81793628 0 7063.60069038 0 983.73509253 0 -242.82383390 0 11575
0.10350000 0.10349800 17714.61247735 0 465.33548792 0 6220.70889124 0 755.42043308 0 -206.32502237 0 11364
0.10450000 0.10450100 16848.53523004 0 651.65835550 0 6220.01133477 0 476.14982757 0 -330.36384838 0 12093
0.10550000 0.10551000 16341.75492309 0 629.05863332 0 5837.76146506 0 391.38453769 0 54.69440580 0 12067
0.10650000 0.10649700 16210.54787399 0 -55.38232934 0 5668.06701489 0 355.75047473 0 -607.42331062 0 12054
0.10750000 0.10749900 16021.76473583 0 193.61731517 0 5759.33618837 0 341.93774951 0 -120.48239528 0 12807
0.10850000 0.10850100 16068.04705357 0 -175.69675745 0 5474.43419846 0 303.07056770 0 -418.01569334 0 12736
0.10950000 0.10950300 15729.34463737 0 123.73212262 0 5214.45601172 0 574.21851572 0 261.78186845 0 12933
0.11050000 0.11050200 15770.97657869 0 392.55266796 0 5630.04465146 0 218.87328809 0 571.54454928 0 13428
0.11150000 0.11150900 15336.27710631 0 730.21650009 0 5511.47112498 0 195.87274774 0 453.87563173 0 13453
0.11250000 0.11250000 14881.97961900 0 599.35822922 0 5907.02992912 0 -94.10468514 0 1363.45715049 0 13668
0.11350000 0.11349100 14499.43079651 0 232.89528024 0 5903.15461544 0 93.79454932 0 1434.99544115 0 13791
0.11450000 0.11448600 14352.27959967 0 15.64763088 0 5832.38031520 0 370.63610821 0 1832.21509402 0 14205
0.11550000 0.11549300 14583.80191163 0 -140.85768741 0 5775.30248076 0 355.22786099 0 699.17191577 0 14776
0.11650000 0.11649800 14568.18993364 0 205.53999454 0 5745.25219120 0 -28.87429794 0 783.83534026 0 14553
0.11750000 0.11747300 14243.43864671 0 406.82710911 0 5429.33661947 0 -54.43055230 0 99.70329546 0 14568
0.11850000 0.11849100 13907.61503496 0 96.64622658 0 5024.51027945 0 92.34086380 0 493.78804101 0 16015
0.11950000 0.11950300 13831.88033320 0 -109.46354979 0 4743.24001209 0 148.98920276 0 316.47583136 0 15270
0.12050000 0.12050700 14231.70198240 0 -110.98455505 0 4684.88886029 0 953.76120202 0 -654.53494549 0 15999
0.12150000 0.12150000 13976.81706507 0 7.22929803 0 4251.67307944 0 -137.19274790 0 -926.24868931 0 15670
0.12250000 0.12250700 13998.29737522 0 320.88926003 0 4413.87156571 0 -100.29909726 0 -842.98369944 0 16887
0.12350000 0.12352200 14018.67045289 0 -12.82673469 0 4495.52996124 0 -32.76112684 0 -408.25211732 0 16407
0.12450000 0.12449800 13866.75815638 0 64.84208077 0 4513.46712745 0 5.16569349 0 -723.25532948 0 16306
0.12550000 0.12549900 13910.16166967 0 -15.02104802 0 4826.03885708 0 500.89647354 0 -607.36462730 0 17523
0.12650000 0.12650100 13904.07189102 0 209.35662490 0 3675.20356008 0 856.18523232 0 -754.84467219 0 17154
0.12750000 0.12750600 13448.55644798 0 217.07957146 0 3920.21196367 0 572.62520818 0 25.24722577 0 18007
0.12850000 0.12850300 13393.30554713 0 295.13281804 0 3079.82250993 0 424.56497347 0 -124.59133502 0 17496
0.12950000 0.12949900 13205.07602521 0 169.64905364 0 3643.13810740 0 558.43713116 0 -207.88954186 0 18405
0.13050000 0.13049000 12820.75563076 0 273.34691173 0 2746.75590706 0 -157.87363619 0 72.95344449 0 18100
0.13150000 0.13148800 12747.12467071 0 174.34371936 0 2976.97168469 0 146.32520141 0 135.76331076 0 19059
0.13250000 0.13249300 12705.60345264 0 19.20992994 0 3090.29692921 0 -126.20567998 0 351.69578938 0 18957
0.13350000 0.13349100 12720.32964465 0 115.11231774 0 3442.05361637 0 -119.63757690 0 -54.89547922 0 19468
0.13450000 0.13450700 12521.69213741 0 399.76739481 0 3558.33517162 0 -295.07967088 0 -82.13051947 0 19953
0.13550000 0.13551000 12265.03564811 0 342.55669247 0 3779.34984732 0 -291.99270672 0 400.97981438 0 19956
0.13650000 0.13649900 12075.69889371 0 152.07395245 0 3508.79759038 0 -6.63829055 0 90.14821132 0 19723
0.13750000 0.13749600 11924.89382968 0 81.62517856 0 3594.66346935 0 245.82221946 0 -86.66031827 0 20946
0.13850000 0.13851100 11914.48584435 0 236.74180588 0 3598.21768561 0 -233.73456246 0 -1022.88240416 0 20955
0.13950000 0.13949800 11578.10861636 0 416.94278507 0 3891.46820844 0 -18.60084136 0 -206.31284281 0 20506
0.14050000 0.14048300 11331.63866590 0 352.21065248 0 3651.12125360 0 -358.59495497 0 -536.71987326 0 21447
0.14150000 0.14148400 11081.51484825 0 125.35200374 0 3764.00360512 0 254.68118655 0 -570.79827459 0 21771
0.14250000 0.14249400 11185.15180855 0 -203.83374928 0 3645.23077679 0 321.04427258 0 -817.01577604 0 22470
0.14350000 0.14350900 11193.34532891 0 -3.42509081 0 3763.97038815 0 415.93409628 0 -717.25745112 0 22519
0.14450000 0.14449900 11262.99025202 0 -18.64258402 0 3378.76420771 0 300.75202289 0 -448.02501530 0 22218
0.14550000 0.14550500 11013.14324249 0 283.32307639 0 3836.62698361 0 172.60757883 0 -284.76580031 0 23559
0.14650000 0.14650700 10926.57980706 0 476.70565828 0 3449.81531607 0 -101.47320659 0 60.13634272 0 23044
0.14750000 0.14750500 10465.14067024 0 365.55169666 0 3443.49301860 0 -50.42812832 0 482.33593545 0 23649
0.14850000 0.14849900 10260.39123969 0 154.47221801 0 3484.63777763 0 369.07269595 0 620.58055420 0 23640
0.14950000 0.14949500 10340.94240275 0 -178.49473394 0 3454.00065485 0 279.94269562 0 66.58984725 0 24457
0.15050000 0.15050000 10396.32617149 0 -41.30110025 0 3102.31040164 0 290.98844686 0 -302.46048261 0 24591
0.15150000 0.15149900 10233.39691179 0 123.78859147 0 3210.26556862 0 -221.05675054 0 -212.71928995 0 25020
0.15250000 0.15250500 10149.02579667 0 182.06445146 0 2926.73654699 0 -227.88948218 0 -284.05495706 0 25297
0.15350000 0.15350100 10074.50905064 0 167.95055901 0 3287.31787703 0 -82.18809556 0 -450.02578439 0 25452
0.15450000 0.15450400 9729.15216722 0 360.14397321 0 2966.72978423 0 -51.20097660 0 -761.23118914 0 26061
0.15550000 0.15549900 9706.63105854 0 268.20935301 0 3284.83767627 0 112.51253588 0 -686.22283189 0 26128
0.15650000 0.15649500 9329.58518149 0 134.81441253 0 3055.67376950 0 122.12663552 0 -524.11070976 0 26331
0.15750000 0.15749700 9415.75001323 0 90.09296041 0 3160.76120435 0 438.04663617 0 -246.66925231 0 27345
0.15850000 0.15849900 9267.39193298 0 -30.63014721 0 2814.42995635 0 309.41279536 0 -447.73713485 0 26980
0.15950000 0.15949700 9307.54018278 0 31.66651681 0 2702.92057310 0 353.27027397 0 -313.43204927 0 27777
0.16050000 0.16050000 9202.49703722 0 27.64039806 0 2621.58327499 0 14.62177999 0 -243.49370955 0 28224
0.16150000 0.16150500 9160.04574387 0 308.04204155 0 2467.14648842 0 0.01338146 0 -414.08944696 0 28075
0.16250000 0.16249700 8971.32903966 0 282.44282657 0 2539.07231044 0 -360.63890613 0 -65.52635045 0 28590
0.16350000 0.16349900 8813.09444568 0 145.27997395 0 2705.88795616 0 -101.52823604 0 -244.55554550 0 29163
0.16450000 0.16449100 8757.24563929 0 -15.20008751 0 2709.02142408 0 401.67958531 0 292.18536517 0 28996
0.16550000 0.16550500 8833.48966799 0 -193.04598321 0 2690.38670141 0 402.70266812 0 -233.07243743 0 30777
0.16650000 0.16650700 8945.63017375 0 -18.00304654 0 2779.60749480 0 350.80668169 0 57.51973092 0 29211
0.16750000 0.16749900 8812.51868478 0 294.58473796 0 2584.47991452 0 179.61525321 0 -248.91139809 0 30922
0.16850000 0.16850800 8608.96506532 0 271.86432743 0 2455.77521083 0 -75.13867851 0 264.43369025 0 30867
0.16950000 0.16949900 8291.21148767 0 248.24262967 0 2351.81715310 0 -218.64851989 0 292.14661204 0 30852
0.17050000 0.17049200 8342.80852133 0 111.36433579 0 2506.22072270 0 -93.42550874 0 244.67069768 0 31257
0.17150000 0.17149500 8328.19305257 0 -20.08087901 0 2532.16317975 0 138.61997057 0 -47.44712631 0 32608
0.17250000 0.17250900 8220.37075348 0 3.66843837 0 2535.86133624 0 58.21108689 0 -103.17336206 0 32361
0.17350000 0.17350400 8356.58249340 0 44.46103103 0 2469.51596593 0 120.69941285 0 -36.86641272 0 32508
0.17450000 0.17449800 8284.99991345 0 -73.47096495 0 2370.86155179 0 194.92717120 0 121.22424104 0 32791
0.17550000 0.17549800 8345.54338556 0 200.39247073 0 2428.88053384 0 205.80240864 0 -109.55522864 0 33633
0.17650000 0.17650100 8189.78899233 0 102.63679720 0 2234.67195652 0 180.79777750 0 -89.06544867 0 33984
0.17750000 0.17750300 8089.50694645 0 135.57508124 0 2283.81093407 0 137.39094251 0 74.18811943 0 34069
