### header ###
fiducial parameters:
Omega_m = 0.31
Omega_nu = 0
Omega_de = 0.69
Omega_k = 0
H_0 = 100
w_de = -1
zeff = 0
beta = 0
fgrowth = 0
b_1 = 2
gamma = 0.55
Lx = 3500 Ly = 3500 Lz = 3500
nx = 700 ny = 700 nz = 700
xoffset = -685.467585 yoffset = -31.7331281 zoffset = 572.489161
bins = 400 dk = 0.001
kx_ny = 0.628318531 ky_ny = 0.628318531 kz_ny = 0.628318531
############################
A(data) = 8.04417355 (not used)
A(ran) = 8.04129245 (used)
Ngal = 477922
weighted Ngal = 0
Nran = 23820508
weighted Nran = 0
SN(data) = 3493.77046
SN(ran) = 70.0425736
SN(data+ran) = 3563.81304
############################
13 columns: k_central k_mean P_0(k) sigma^{lin}_{P_0(k)} P^img_1(k) sigma^{lin}_{P_1(k)} P_2(k) sigma^{lin}_{P_2(k)} P^img_3(k) sigma^{lin}_{P_3(k)} P_4(k) sigma^{lin}_{P_4(k)} N_modes
### header ###
0.00050000 0 0 0 0 0 0 0 0 0 0 0 0
0.00150000 0.00179520 43571.70190309 0 -28212.72653090 0 60851.83635456 0 -78056.01465777 0 -82268.25918853 0 3
0.00250000 0.00253879 68889.34766366 0 -9281.15483273 0 7373.32683253 0 35128.05771964 0 102034.24128503 0 6
0.00350000 0.00331552 72874.94170538 0 852.42174912 0 18352.37838691 0 14342.75740033 0 51689.15539738 0 7
0.00450000 0.00420575 64827.13313420 0 10783.62502132 0 12066.61958736 0 -11975.71580060 0 28001.79874311 0 24
0.00550000 0.00557378 79896.78865887 0 -7148.92402543 0 37237.00342784 0 17615.18300048 0 -14467.43177779 0 45
0.00650000 0.00659388 73313.84866119 0 -8082.84140691 0 57741.50958975 0 -7809.64286434 0 6044.82501149 0 40
0.00750000 0.00754703 69379.96237638 0 20418.80636781 0 53722.58785033 0 33575.05344057 0 5175.07175234 0 57
0.00850000 0.00846663 63447.63218504 0 11942.83099589 0 47897.65920973 0 25725.99309988 0 15717.94014281 0 75
0.00950000 0.00948925 51082.39199732 0 2356.92149485 0 44052.90513971 0 33642.81606846 0 19649.94413240 0 112
0.01050000 0.01054430 56356.36175494 0 1908.14909762 0 27690.99858545 0 39311.29275937 0 630.07175104 0 105
0.01150000 0.01145670 52239.56066412 0 -4923.91820848 0 20144.87705180 0 26415.02387335 0 23029.21766705 0 144
0.01250000 0.01249090 59953.20647228 0 -9996.81454739 0 -4601.07136141 0 19719.92122526 0 11972.50482640 0 169
0.01350000 0.01339930 59517.84266041 0 -9648.55671487 0 -12616.36051461 0 12973.77515975 0 14711.90870978 0 180
0.01450000 0.01448870 72953.66593484 0 -10074.65299086 0 -12926.16416303 0 1579.09067634 0 11913.37861187 0 267
0.01550000 0.01550050 80499.78746849 0 -10523.00463974 0 -15564.80989056 0 -4288.79858455 0 23663.77260241 0 238
0.01650000 0.01653350 83906.85253844 0 -732.15637140 0 -12673.93660366 0 -5751.14266800 0 17077.95380028 0 315
0.01750000 0.01747870 90360.79995198 0 -1762.57017091 0 5723.48400061 0 -14638.16702649 0 30901.86205961 0 297
0.01850000 0.01844180 88722.64949506 0 3006.37977941 0 6248.04646121 0 -6262.86123182 0 31118.99034930 0 388
0.01950000 0.01947590 89727.57369560 0 9461.13547266 0 10624.43820741 0 11272.73389786 0 39421.01949832 0 399
0.02050000 0.02045430 82766.62452861 0 -574.29380753 0 22881.95574697 0 9139.48443668 0 34455.85687990 0 462
0.02150000 0.02154770 82694.65441729 0 4060.62011469 0 20832.80059278 0 8599.08855158 0 28073.99030093 0 571
0.02250000 0.02255340 79810.75669503 0 10242.02225282 0 29879.88647885 0 -4222.88503491 0 31840.90592748 0 510
0.02350000 0.02348930 71462.33450502 0 23.17647959 0 26180.84420343 0 -2208.51912530 0 27355.28569695 0 555
0.02450000 0.02439640 78946.78318943 0 -3211.66068155 0 24441.82486742 0 2809.85708620 0 23782.91081746 0 592
0.02550000 0.02547300 76503.34254845 0 -860.99947915 0 20279.40579834 0 -307.24151246 0 -2411.40840528 0 837
0.02650000 0.02652900 76796.75915615 0 3382.22984538 0 18626.86131916 0 -8538.64473040 0 -3330.88747519 0 723
0.02750000 0.02749970 72982.34325612 0 2116.71848023 0 13367.61775355 0 -6594.84274686 0 -19761.77461307 0 826
0.02850000 0.02848090 66805.64685604 0 7573.19336783 0 12763.40098820 0 274.79960074 0 -14911.76417276 0 831
0.02950000 0.02946900 62893.57305112 0 2602.88211837 0 12977.76119669 0 3476.96465653 0 -20067.70294781 0 996
0.03050000 0.03053250 57593.91549992 0 5889.21455849 0 8487.13627534 0 6747.14257474 0 -19447.20986497 0 1041
0.03150000 0.03150510 54420.69793014 0 3803.91933610 0 6132.28530523 0 3354.81476913 0 -9975.16815237 0 1036
0.03250000 0.03246190 49122.25833468 0 74.78181749 0 8254.25206743 0 6620.23158767 0 -10351.06250763 0 1059
0.03350000 0.03345080 52506.51441550 0 393.86252398 0 8842.53575737 0 1389.97536843 0 2807.11114965 0 1302
0.03450000 0.03451200 53535.57628414 0 -952.69161544 0 10077.07783000 0 -2807.26616219 0 3083.90819779 0 1339
0.03550000 0.03553350 54796.60335774 0 1770.87441452 0 15007.42905919 0 -2024.77389494 0 8922.98726950 0 1365
0.03650000 0.03647120 53042.52565997 0 2628.92422634 0 20293.79982061 0 -3789.10456549 0 13355.54891950 0 1308
0.03750000 0.03744890 50812.44871824 0 2388.72121173 0 19842.15969126 0 1834.91674127 0 13443.90607155 0 1579
0.03850000 0.03847530 49297.20106681 0 1231.90685932 0 20140.78029161 0 1932.10960853 0 9456.64010878 0 1662
0.03950000 0.03950240 48738.71300296 0 1981.66933442 0 19014.39268781 0 6561.88043587 0 5898.42673274 0 1683
0.04050000 0.04050350 47772.43121604 0 399.78732499 0 16017.11435941 0 3450.03676257 0 7777.87636443 0 1822
0.04150000 0.04152450 45622.96079899 0 465.38974231 0 12414.73347966 0 3657.56534664 0 3474.87198714 0 1887
0.04250000 0.04250150 46850.32800514 0 5.57045340 0 11497.83426143 0 3302.96307200 0 2973.70534887 0 1920
0.04350000 0.04349210 46910.89362190 0 -515.14323388 0 10821.04947921 0 403.83868865 0 3146.63291789 0 2005
0.04450000 0.04448520 45953.02680184 0 1258.83475328 0 13596.59343080 0 -807.85342726 0 -1636.46746355 0 2151
0.04550000 0.04548030 45259.78854494 0 3400.90885735 0 13725.91818468 0 -2459.41800569 0 5407.55735655 0 2274
0.04650000 0.04648670 41916.50006595 0 2816.24581762 0 15510.88766870 0 527.15117015 0 9519.17659936 0 2311
0.04750000 0.04749250 40521.94075504 0 2113.58501231 0 16028.51885397 0 4915.37037372 0 8521.50477158 0 2568
0.04850000 0.04851840 38510.54222849 0 -30.44944687 0 17580.85879354 0 3404.85060498 0 7727.57479278 0 2493
0.04950000 0.04949480 37878.09103484 0 1472.54169461 0 14318.39828573 0 1338.97624032 0 5710.46294662 0 2644
0.05050000 0.05050630 36469.91276441 0 2371.62554221 0 15016.61908879 0 -214.66801912 0 4112.29465462 0 2829
0.05150000 0.05149060 36976.69307136 0 -344.24965094 0 15628.36503502 0 -5306.64418816 0 4557.87822230 0 2784
0.05250000 0.05249300 35828.71443416 0 -888.27947304 0 16645.57951611 0 -2411.45269458 0 1512.47957023 0 3055
0.05350000 0.05348950 37285.50021055 0 -119.72394103 0 16865.80805675 0 -2610.62167342 0 946.87975214 0 3009
0.05450000 0.05448610 36572.77466197 0 941.37569948 0 19293.63671974 0 1894.29761927 0 687.94347117 0 3336
0.05550000 0.05550870 38522.27889279 0 -653.92375316 0 18777.99855294 0 3133.56757460 0 320.47404785 0 3349
0.05650000 0.05647670 35369.10223094 0 1380.20957794 0 15145.27950319 0 3580.65697845 0 1011.00733580 0 3324
0.05750000 0.05747970 35541.60905161 0 1236.39115087 0 13075.19765509 0 2838.64513073 0 -2265.19835605 0 3639
0.05850000 0.05849280 34938.94241173 0 -540.91517713 0 11541.01632822 0 1651.47046368 0 -2271.74210002 0 3846
0.05950000 0.05951020 34260.20890035 0 484.88921355 0 11254.46456191 0 219.62177724 0 -3608.12741633 0 3787
0.06050000 0.06049470 34136.30958563 0 706.34456778 0 8512.41439290 0 -373.93233931 0 -1361.84059107 0 3930
0.06150000 0.06148310 33715.33979603 0 -193.41690609 0 10516.38338950 0 -249.22142318 0 -3036.87296196 0 4083
0.06250000 0.06249100 32995.19578982 0 1047.92911014 0 10552.15807099 0 567.79878179 0 -2543.10263667 0 4303
0.06350000 0.06350600 31909.44361811 0 1919.27678406 0 8879.35123739 0 2211.25398953 0 -2432.52332871 0 4470
0.06450000 0.06451750 31235.69265289 0 473.58104821 0 8180.49931181 0 1783.54115411 0 -539.96960059 0 4479
0.06550000 0.06550280 30513.44490497 0 684.91740479 0 8326.16681713 0 522.53733240 0 736.68938118 0 4636
0.06650000 0.06648880 30994.31597184 0 -432.37871310 0 7731.00721347 0 1734.15858542 0 -1510.67478128 0 4653
0.06750000 0.06749660 30232.31857782 0 245.98719710 0 6411.13073347 0 469.53300626 0 528.84855755 0 5220
0.06850000 0.06852730 30625.71827863 0 280.11985282 0 7008.64874231 0 -1133.77284445 0 -1900.01093888 0 5029
0.06950000 0.06949320 29897.49147531 0 327.73306400 0 6411.81721761 0 500.27863782 0 -1187.45147518 0 5040
0.07050000 0.07048030 29698.18962857 0 1169.15999458 0 7917.86376711 0 -857.47847986 0 -2296.82091573 0 5475
0.07150000 0.07148790 28594.72173715 0 803.00707068 0 8133.50836528 0 -960.93053234 0 196.87922207 0 5509
0.07250000 0.07249820 28452.22091673 0 423.04695774 0 8827.95350558 0 -332.19521091 0 -1170.28937171 0 5916
0.07350000 0.07351270 27614.71026745 0 473.31088349 0 10372.27708199 0 -101.53421510 0 -339.55830691 0 5721
0.07450000 0.07449140 27915.32388627 0 363.94731679 0 10068.61857384 0 416.47885466 0 -810.24172772 0 6028
0.07550000 0.07549160 27741.70983312 0 -269.67532882 0 10708.24463396 0 1251.96991189 0 -109.50783909 0 6183
0.07650000 0.07648840 27568.42794971 0 480.07607395 0 9345.97222222 0 298.10241556 0 -1541.33404870 0 6330
0.07750000 0.07749960 27547.72270230 0 1249.20183069 0 11661.81539199 0 -772.28690547 0 -1822.63753305 0 6583
0.07850000 0.07848650 26121.05364941 0 1761.19720263 0 9676.33717784 0 -660.12646953 0 207.35364134 0 6549
0.07950000 0.07947320 25149.34642333 0 478.74075158 0 9719.28672581 0 -255.58579549 0 -590.69413505 0 6828
0.08050000 0.08048110 24848.06846501 0 -298.20317371 0 10321.90907639 0 1679.66060266 0 -578.92646824 0 7147
0.08150000 0.08149960 25285.64674185 0 -420.38517085 0 8799.94052379 0 1713.22081919 0 -1286.02838304 0 7386
0.08250000 0.08250610 24900.21911491 0 232.67604820 0 9242.60099772 0 1489.77023202 0 -1408.49936786 0 7227
0.08350000 0.08350160 24847.18267903 0 321.79386897 0 7313.74665268 0 1107.12950924 0 -489.86068739 0 7798
0.08450000 0.08449610 24526.30670578 0 432.26577538 0 7595.43766839 0 1004.10152681 0 392.97784523 0 7371
0.08550000 0.08548940 24001.25706288 0 473.53565168 0 6682.76807824 0 621.82176182 0 347.16831576 0 8256
0.08650000 0.08650700 23760.54472133 0 681.97880979 0 6839.85115045 0 531.90784089 0 -278.35603148 0 8037
0.08750000 0.08749060 22973.74531971 0 726.58809925 0 6875.43760241 0 92.48646487 0 -559.94407457 0 8155
0.08850000 0.08849210 21860.09088945 0 778.36671903 0 5552.31693123 0 96.56052679 0 225.87210460 0 8718
0.08950000 0.08949900 21706.84991396 0 859.29212667 0 6172.66607385 0 -348.28883503 0 -1346.11788983 0 8571
0.09050000 0.09049190 20778.65692442 0 502.98139230 0 5933.33777289 0 392.94462826 0 -732.37338897 0 8932
0.09150000 0.09150830 20446.81934960 0 554.94934884 0 6293.43192064 0 369.91529987 0 -680.28917302 0 9285
0.09250000 0.09250820 19494.71013845 0 748.00751161 0 6007.48913220 0 781.50240142 0 638.29184498 0 9204
0.09350000 0.09350330 19106.73587680 0 621.19396100 0 6466.51450221 0 1430.53329424 0 361.47597389 0 9349
0.09450000 0.09448040 18618.44635230 0 -43.88493797 0 6014.01073152 0 1681.95257390 0 1994.04819356 0 9564
0.09550000 0.09549270 18795.04993316 0 199.00400120 0 6202.66100178 0 514.52207646 0 1445.24841393 0 10155
0.09650000 0.09649430 18616.67478033 0 392.53052331 0 5907.56140072 0 -572.43697866 0 2820.30936083 0 9913
0.09750000 0.09749140 18376.84822476 0 441.15131605 0 7077.15321596 0 -1143.35040542 0 2806.20321901 0 10476
0.09850000 0.09850240 18161.82367678 0 160.64171740 0 6421.39477857 0 -549.15963019 0 2803.97768172 0 10575
0.09950000 0.09950330 17993.41361629 0 330.75359422 0 7208.44884366 0 309.46704975 0 1870.56962719 0 10882
0.10050000 0.10051200 18012.67946147 0 306.70229024 0 6598.90629007 0 113.62198282 0 98.71176878 0 10875
0.10150000 0.10150300 17347.67563286 0 309.64420695 0 6823.72984551 0 -6.07726692 0 184.90893170 0 11118
0.10250000 0.10250800 16903.67540763 0 787.75494324 0 6582.70747886 0 -517.55921516 0 -173.60740976 0 11575
0.10350000 0.10349800 16281.30002958 0 573.16443040 0 5897.30842793 0 254.81073275 0 -71.26203615 0 11364
0.10450000 0.10450100 16265.24515859 0 -86.91332090 0 5951.33030072 0 682.10614152 0 -265.35601491 0 12093
0.10550000 0.10551000 16022.53979857 0 -259.61612172 0 5433.10120991 0 441.40155059 0 -917.02765720 0 12067
0.10650000 0.10649700 16401.10258412 0 104.98545874 0 5357.47723140 0 914.01044869 0 -1301.05352782 0 12054
0.10750000 0.10749900 16322.37835466 0 11.13632286 0 5038.45033640 0 -301.69427773 0 -708.53135193 0 12807
0.10850000 0.10850100 16069.81862554 0 244.95414920 0 5001.25839733 0 18.13336780 0 -1067.61681090 0 12736
0.10950000 0.10950300 16181.31693647 0 409.62287113 0 5794.20293922 0 -384.17866870 0 93.47865590 0 12933
0.11050000 0.11050200 15602.67724144 0 403.29282303 0 5698.48269116 0 478.68760442 0 218.61308845 0 13428
0.11150000 0.11150900 15401.82526923 0 344.73351153 0 5633.16704706 0 609.37203979 0 634.38774325 0 13453
0.11250000 0.11250000 15018.50138401 0 215.85940127 0 5501.82713006 0 965.55544242 0 501.17328166 0 13668
0.11350000 0.11349100 14882.86540498 0 441.00626860 0 5223.21422065 0 690.72262470 0 614.11653097 0 13791
0.11450000 0.11448600 14519.25025794 0 241.03897514 0 5095.52817084 0 232.04714015 0 1241.15225055 0 14205
0.11550000 0.11549300 14577.49068649 0 -56.46343114 0 5153.58036986 0 177.88243437 0 992.93287276 0 14776
0.11650000 0.11649800 14481.82580005 0 -86.38572462 0 4835.37282690 0 -227.20853421 0 876.45423013 0 14553
0.11750000 0.11747300 14605.06077528 0 274.14190465 0 5110.23221820 0 25.56289776 0 354.24796025 0 14568
0.11850000 0.11849100 14310.64765836 0 348.76605223 0 5196.14238647 0 -451.88704220 0 246.06581061 0 16015
0.11950000 0.11950300 13780.39402279 0 408.33405252 0 5196.80672596 0 376.23759734 0 529.46085711 0 15270
0.12050000 0.12050700 13861.33271722 0 135.78656265 0 4848.72605063 0 62.45876286 0 477.92139954 0 15999
0.12150000 0.12150000 13622.17050113 0 15.36207562 0 5019.30628679 0 315.84360161 0 11.74009673 0 15670
0.12250000 0.12250700 13626.48870781 0 71.28229850 0 5187.02986314 0 515.81753847 0 183.44959929 0 16887
0.12350000 0.12352200 13360.08857268 0 287.72211104 0 4556.56061564 0 39.49752926 0 366.51720338 0 16407
0.12450000 0.12449800 13161.67251192 0 214.76545558 0 4305.34063783 0 21.10174736 0 373.63227931 0 16306
0.12550000 0.12549900 13145.06402470 0 95.09277941 0 4274.32705602 0 357.44011149 0 351.31933033 0 17523
0.12650000 0.12650100 13070.43655542 0 -158.99526270 0 4026.24054613 0 552.94636528 0 -136.14973490 0 17154
0.12750000 0.12750600 13080.84454075 0 -154.52315070 0 3335.84787671 0 504.10191158 0 -404.96142238 0 18007
0.12850000 0.12850300 13053.60662169 0 79.79126940 0 3357.54963336 0 153.44138457 0 -394.21905284 0 17496
0.12950000 0.12949900 13107.08595057 0 395.00961684 0 3325.30702348 0 -100.19335656 0 -960.89842260 0 18405
0.13050000 0.13049000 12816.10525433 0 177.31663858 0 3466.21342913 0 -43.72605011 0 236.41074337 0 18100
0.13150000 0.13148800 12730.73762998 0 210.44835613 0 3544.63870582 0 -282.97319093 0 -94.78042913 0 19059
0.13250000 0.13249300 12593.10863249 0 -19.42617245 0 3786.61329240 0 410.21634774 0 246.77886833 0 18957
0.13350000 0.13349100 12837.91773423 0 -31.03140826 0 4019.67465751 0 266.28276849 0 -29.25784327 0 19468
0.13450000 0.13450700 12653.00990976 0 147.53651374 0 3525.80468130 0 208.93476933 0 477.57151408 0 19953
0.13550000 0.13551000 12714.01841951 0 179.15464450 0 3693.61683625 0 238.66949763 0 467.37943908 0 19956
0.13650000 0.13649900 12266.03215734 0 135.64815859 0 3377.39123943 0 -6.80401004 0 167.46116225 0 19723
0.13750000 0.13749600 12417.16939112 0 250.65861094 0 3269.18140898 0 359.25375830 0 103.30921949 0 20946
0.13850000 0.13851100 11922.67936472 0 139.49025530 0 3172.69717051 0 379.04110998 0 -14.07635727 0 20955
0.13950000 0.13949800 12022.99462758 0 116.75212905 0 2829.57689670 0 154.57851233 0 317.98609647 0 20506
0.14050000 0.14048300 11889.46239026 0 -1.17489546 0 2762.25716181 0 352.82405928 0 -218.88103871 0 21447
0.14150000 0.14148400 11944.93473760 0 99.75134935 0 2677.76425112 0 212.80676132 0 263.26998891 0 21771
0.14250000 0.14249400 11573.45823994 0 298.84426132 0 2548.32877399 0 -173.73917043 0 645.97382394 0 22470
0.14350000 0.14350900 11442.25119084 0 392.27143091 0 2679.11507474 0 292.05360451 0 190.04316872 0 22519
0.14450000 0.14449900 10980.64596915 0 342.02964981 0 2718.58791272 0 41.97806219 0 1079.56717107 0 22218
0.14550000 0.14550500 10901.72243784 0 141.80104949 0 2750.34334030 0 135.46767969 0 286.83189612 0 23559
0.14650000 0.14650700 10781.80916005 0 109.75541627 0 2626.11185584 0 -170.22702899 0 435.91078472 0 23044
0.14750000 0.14750500 10704.00393355 0 232.91853212 0 2934.63111458 0 -519.79139584 0 113.17023197 0 23649
0.14850000 0.14849900 10392.11868806 0 186.47898736 0 3090.97234102 0 -450.35241798 0 403.35039912 0 23640
0.14950000 0.14949500 10434.58105374 0 191.20022667 0 3287.17393681 0 -505.94877536 0 -444.79853985 0 24457
0.15050000 0.15050000 10315.24353685 0 -12.54494402 0 3392.29458864 0 96.99245818 0 -485.01986698 0 24591
0.15150000 0.15149900 10432.44409505 0 193.89633776 0 3621.34777216 0 -383.32609969 0 -890.96451181 0 25020
0.15250000 0.15250500 10117.45859861 0 226.51319221 0 3376.90405714 0 91.13398039 0 -627.63583958 0 25297
0.15350000 0.15350100 10168.30271418 0 93.97203869 0 3799.01429620 0 101.60109194 0 -719.15967653 0 25452
0.15450000 0.15450400 9982.37623582 0 149.73658468 0 3315.98412599 0 282.09737003 0 -28.17364122 0 26061
0.15550000 0.15549900 9959.55617437 0 101.81478781 0 3666.09103675 0 686.95249810 0 -290.44147402 0 26128
0.15650000 0.15649500 10003.54652088 0 -56.19470581 0 2876.99966390 0 632.07473460 0 146.79245352 0 26331
0.15750000 0.15749700 9792.84017958 0 1.95281486 0 2844.92313890 0 584.06956311 0 -50.60185310 0 27345
0.15850000 0.15849900 9894.37339816 0 104.17629324 0 2485.61512621 0 272.38804840 0 28.00822069 0 26980
0.15950000 0.15949700 9633.70872728 0 150.59911879 0 2271.38778562 0 108.86509064 0 29.90457776 0 27777
0.16050000 0.16050000 9488.76092308 0 264.99727158 0 2256.37371317 0 -263.52908131 0 -71.28462369 0 28224
0.16150000 0.16150500 9299.72312145 0 182.94027235 0 2299.62221391 0 -80.58282990 0 -93.36627180 0 28075
0.16250000 0.16249700 9150.21351943 0 231.28204251 0 2511.98940393 0 -223.59452739 0 -244.94196964 0 28590
0.16350000 0.16349900 8947.56783060 0 220.83198235 0 2368.64708683 0 -155.31592916 0 -300.77306030 0 29163
0.16450000 0.16449100 8725.30198219 0 246.74232965 0 2588.26664961 0 323.08933098 0 20.33255296 0 28996
0.16550000 0.16550500 8764.97412201 0 134.07921016 0 2333.32637066 0 266.56843447 0 102.49152830 0 30777
0.16650000 0.16650700 8591.50400908 0 76.40402379 0 2219.80182429 0 470.69560037 0 133.25875089 0 29211
0.16750000 0.16749900 8539.54158871 0 -65.39171098 0 2133.80307743 0 275.79832444 0 101.51749589 0 30922
0.16850000 0.16850800 8605.00117303 0 -29.93347653 0 1876.55975491 0 267.28370666 0 122.91055611 0 30867
0.16950000 0.16949900 8541.55675182 0 -60.69538440 0 1786.07671650 0 60.25393081 0 -304.23537627 0 30852
0.17050000 0.17049200 8518.71454572 0 68.48686866 0 1638.52691596 0 8.50303613 0 -490.84833877 0 31257
0.17150000 0.17149500 8493.56929606 0 268.51162748 0 1556.68029090 0 -181.01700953 0 -125.92665739 0 32608
0.17250000 0.17250900 8191.49413036 0 219.30510875 0 1541.64407380 0 -49.27804594 0 -364.40349657 0 32361
0.17350000 0.17350400 8204.05014670 0 52.28794672 0 1527.81474010 0 52.44772037 0 78.78125193 0 32508
0.17450000 0.17449800 8199.95338652 0 18.57149970 0 1857.83645365 0 210.69637621 0 -136.17963018 0 32791
0.17550000 0.17549800 8187.82919084 0 65.04946542 0 1686.70260125 0 132.86346889 0 171.48705956 0 33633
0.17650000 0.17650100 8213.55020140 0 -41.99356345 0 1885.81621846 0 134.31837237 0 243.90449280 0 33984
0.17750000 0.17750300 8182.72484910 0 74.01860214 0 1865.13311570 0 4.31161865 0 613.81314927 0 34069
0.17850000 0.17849800 8200.24126696 0 152.18246124 0 2141.09973948 0 96.01034297 0 823.44658230 0 34536
