### header ###
fiducial parameters:
Omega_m = 0.31
Omega_nu = 0
Omega_de = 0.69
Omega_k = 0
H_0 = 100
w_de = -1
zeff = 0
beta = 0
fgrowth = 0
b_1 = 2
gamma = 0.55
Lx = 3500 Ly = 3500 Lz = 3500
nx = 700 ny = 700 nz = 700
xoffset = -685.467585 yoffset = -31.7331281 zoffset = 572.489161
bins = 400 dk = 0.001
kx_ny = 0.628318531 ky_ny = 0.628318531 kz_ny = 0.628318531
############################
A(data) = 8.03932088 (not used)
A(ran) = 8.0379803 (used)
Ngal = 477493
weighted Ngal = 0
Nran = 23820508
weighted Nran = 0
SN(data) = 3487.50622
SN(ran) = 70.0137235
SN(data+ran) = 3557.51994
############################
13 columns: k_central k_mean P_0(k) sigma^{lin}_{P_0(k)} P^img_1(k) sigma^{lin}_{P_1(k)} P_2(k) sigma^{lin}_{P_2(k)} P^img_3(k) sigma^{lin}_{P_3(k)} P_4(k) sigma^{lin}_{P_4(k)} N_modes
### header ###
0.00050000 0 0 0 0 0 0 0 0 0 0 0 0
0.00150000 0.00179520 5032.92524632 0 -1215.36480604 0 10316.64972210 0 -7932.03634288 0 8202.99827584 0 3
0.00250000 0.00253879 17378.56741911 0 -2821.52731656 0 23271.70158058 0 -37916.84417171 0 13142.62811324 0 6
0.00350000 0.00331552 36307.81392906 0 -18814.75867133 0 -12846.11125459 0 -2077.32314853 0 -62316.70492806 0 7
0.00450000 0.00420575 58730.04674956 0 -38705.96876153 0 1646.07824149 0 -13856.46089429 0 32514.54616944 0 24
0.00550000 0.00557378 94285.60693045 0 -10858.72860057 0 44000.86521306 0 -34827.99771705 0 -17508.44578923 0 45
0.00650000 0.00659388 117898.11466895 0 -7087.79372011 0 71261.37180956 0 34528.49133071 0 85450.66678790 0 40
0.00750000 0.00754703 117476.25909336 0 9143.53690756 0 53898.96998469 0 8533.45181006 0 23550.05982652 0 57
0.00850000 0.00846663 109354.59811563 0 7080.50813038 0 52751.98785672 0 -2287.63088613 0 14044.91186271 0 75
0.00950000 0.00948925 121487.76237515 0 12581.15052168 0 71551.68816630 0 22990.90742318 0 -1743.27110875 0 112
0.01050000 0.01054430 94107.56394736 0 19661.34862697 0 51725.91551578 0 7979.80235215 0 12173.35679861 0 105
0.01150000 0.01145670 90778.66949064 0 12503.86569445 0 70989.76768176 0 17752.47982823 0 -9195.78720838 0 144
0.01250000 0.01249090 78056.90044376 0 7926.20122770 0 56774.56346334 0 -5224.15536826 0 -8407.95808056 0 169
0.01350000 0.01339930 78400.69612937 0 3803.12212871 0 52997.01840496 0 20049.21216536 0 -22687.63644640 0 180
0.01450000 0.01448870 68739.31766237 0 4483.37254859 0 42495.69337721 0 10072.49388752 0 -9494.77319546 0 267
0.01550000 0.01550050 69483.15644368 0 1482.32962975 0 27242.01581405 0 36387.20249801 0 3656.13701674 0 238
0.01650000 0.01653350 72668.66429401 0 -10644.80021275 0 17556.16750920 0 17976.03006632 0 -21913.34877183 0 315
0.01750000 0.01747870 66131.12082809 0 2535.03091188 0 9672.76081692 0 -1929.07579153 0 -2604.74226894 0 297
0.01850000 0.01844180 70162.55429456 0 14479.38988859 0 21649.82744115 0 2084.24335154 0 -7650.76607551 0 388
0.01950000 0.01947590 57807.61136892 0 6961.49171090 0 12449.94347258 0 1834.07524458 0 23261.07214876 0 399
0.02050000 0.02045430 58364.99220029 0 -4633.20324804 0 9231.66154079 0 2791.86455837 0 7117.77757572 0 462
0.02150000 0.02154770 64716.07771626 0 -9089.80291522 0 16079.00865514 0 -1300.73243040 0 -17021.15277396 0 571
0.02250000 0.02255340 71416.82725001 0 3553.15332360 0 11293.43914527 0 -8672.71951162 0 -28556.63293977 0 510
0.02350000 0.02348930 60360.88947210 0 5876.32637240 0 23668.75514858 0 -20901.44900666 0 -17292.64617851 0 555
0.02450000 0.02439640 61655.68713639 0 6416.62260658 0 20729.27435573 0 -7026.98451220 0 -13123.36226805 0 592
0.02550000 0.02547300 54081.44189770 0 4278.78920292 0 21006.74681568 0 -866.67072392 0 -15630.91166973 0 837
0.02650000 0.02652900 52186.85639798 0 2872.05033471 0 17168.96831029 0 10446.52809222 0 -15896.75818863 0 723
0.02750000 0.02749970 50415.28442700 0 321.31111561 0 20874.54325735 0 10084.35234740 0 -15974.48590885 0 826
0.02850000 0.02848090 51427.95925491 0 -3378.80849701 0 10826.90673904 0 2248.22448210 0 -11403.05516098 0 831
0.02950000 0.02946900 52033.94759224 0 -1638.41619271 0 20844.20508734 0 559.33841840 0 -10163.58590381 0 996
0.03050000 0.03053250 55467.91841149 0 -836.37130706 0 17515.53207711 0 -2277.59935985 0 -7636.15060675 0 1041
0.03150000 0.03150510 53897.53058246 0 1031.35162542 0 20925.03305852 0 6.66487520 0 -8657.39541408 0 1036
0.03250000 0.03246190 53638.43818171 0 2799.52660715 0 21511.20193442 0 -2923.97953811 0 -8849.38952643 0 1059
0.03350000 0.03345080 54855.95101876 0 954.40782579 0 29960.71445002 0 4389.29100461 0 573.92177742 0 1302
0.03450000 0.03451200 49563.26903220 0 3133.36827275 0 24097.03267256 0 3381.99732656 0 -118.54473844 0 1339
0.03550000 0.03553350 51676.09005410 0 3658.97153189 0 25595.78256002 0 6448.06800906 0 8776.00215753 0 1365
0.03650000 0.03647120 48561.77725236 0 -459.35532529 0 20896.68790698 0 8601.71269256 0 7763.96952446 0 1308
0.03750000 0.03744890 48114.67677618 0 -64.64045374 0 20208.43219626 0 6631.28176784 0 8267.78244836 0 1579
0.03850000 0.03847530 47697.80374676 0 427.09610693 0 16532.53107971 0 553.26192654 0 7329.07075023 0 1662
0.03950000 0.03950240 46810.79980554 0 1565.79281423 0 18421.24824728 0 1350.15928839 0 8142.35515281 0 1683
0.04050000 0.04050350 43661.71990386 0 2425.33738990 0 13578.32409485 0 3263.05841335 0 8510.29957886 0 1822
0.04150000 0.04152450 43989.46071850 0 -1453.20941547 0 13010.97817114 0 -401.02742537 0 663.47584778 0 1887
0.04250000 0.04250150 42202.94110901 0 1688.87277691 0 11189.69146172 0 2937.49884671 0 2415.31693594 0 1920
0.04350000 0.04349210 41510.69936135 0 1500.62111035 0 9481.61927358 0 1453.14298152 0 -2991.66465972 0 2005
0.04450000 0.04448520 39698.71340477 0 1192.01327300 0 10318.04483503 0 149.06006564 0 5.80671467 0 2151
0.04550000 0.04548030 39734.25556744 0 1021.79510187 0 9634.09625865 0 -379.53825737 0 -4508.07490526 0 2274
0.04650000 0.04648670 38530.80458290 0 1464.44782516 0 11341.82520473 0 -566.86427758 0 1939.53913848 0 2311
0.04750000 0.04749250 36848.91844295 0 1135.94302012 0 10150.69771772 0 -632.81658036 0 1211.02445471 0 2568
0.04850000 0.04851840 37453.91027104 0 -1046.03242089 0 12258.28152997 0 2054.07126641 0 1883.70140442 0 2493
0.04950000 0.04949480 40066.42531200 0 -1448.92442577 0 13159.56877021 0 4076.35388826 0 6715.63073830 0 2644
0.05050000 0.05050630 39989.80482426 0 -1163.72348309 0 12434.33149459 0 1398.47891389 0 4976.83284878 0 2829
0.05150000 0.05149060 39763.70795146 0 1139.25364524 0 8877.77896727 0 4086.83937986 0 2746.42373732 0 2784
0.05250000 0.05249300 39036.14548763 0 2924.46672040 0 12297.92045282 0 193.67156957 0 4530.35242280 0 3055
0.05350000 0.05348950 36214.47423084 0 2923.24876467 0 8456.03411492 0 55.71505270 0 5290.50073857 0 3009
0.05450000 0.05448610 33817.64807735 0 978.76694039 0 7676.66424326 0 706.93029377 0 4761.03323807 0 3336
0.05550000 0.05550870 33205.79140787 0 -552.73266941 0 8371.27546844 0 -230.87125926 0 -1012.15442865 0 3349
0.05650000 0.05647670 33715.33979603 0 1126.93014772 0 6865.41714845 0 1097.70474636 0 -3058.25362118 0 3324
0.05750000 0.05747970 32947.58479310 0 498.83369943 0 8981.86989289 0 -2858.47566448 0 -1484.03476777 0 3639
0.05850000 0.05849280 33235.90813138 0 640.37565651 0 5975.76692160 0 -277.34623545 0 -1023.80694329 0 3846
0.05950000 0.05951020 33368.77602920 0 -1681.35466836 0 9423.43420665 0 47.79767612 0 -1992.32091089 0 3787
0.06050000 0.06049470 34474.34766234 0 -122.67139390 0 10707.46957122 0 -1176.09126991 0 -2814.93928329 0 3930
0.06150000 0.06148310 34061.46066986 0 1042.61771592 0 12791.96758623 0 -1816.75812857 0 -1957.32129214 0 4083
0.06250000 0.06249100 33583.57913068 0 985.56645506 0 13397.51303056 0 -638.09586483 0 -669.90333234 0 4303
0.06350000 0.06350600 32849.70544170 0 775.62631864 0 14345.19331179 0 221.34352375 0 2441.50298414 0 4470
0.06450000 0.06451750 33101.49010808 0 1071.19538628 0 15238.61920141 0 611.18347213 0 315.64540700 0 4479
0.06550000 0.06550280 31444.29525247 0 484.04660963 0 13298.52644668 0 1302.95796768 0 1051.13565540 0 4636
0.06650000 0.06648880 31381.95806374 0 722.35625670 0 15499.37245089 0 722.42601235 0 146.43592466 0 4653
0.06750000 0.06749660 30231.54351509 0 902.42990416 0 12561.10961376 0 151.35425134 0 -112.10285986 0 5220
0.06850000 0.06852730 29861.28497315 0 1008.12520965 0 13641.43634632 0 692.42665549 0 -977.18359794 0 5029
0.06950000 0.06949320 29046.02969675 0 64.21926250 0 12083.67096758 0 -589.22815925 0 -1160.68966609 0 5040
0.07050000 0.07048030 29442.30820201 0 97.63874978 0 12697.40993228 0 547.31387365 0 -1708.68116601 0 5475
0.07150000 0.07148790 29286.07769882 0 216.29565087 0 14709.36207508 0 -943.38975536 0 -997.05620652 0 5509
0.07250000 0.07249820 28483.00197973 0 1275.18857704 0 13192.34285167 0 1563.43440904 0 273.54289188 0 5916
0.07350000 0.07351270 28010.43515647 0 587.63595894 0 13319.23169409 0 2421.47314854 0 1625.15154758 0 5721
0.07450000 0.07449140 27356.83582242 0 -38.39727235 0 11123.03606632 0 3771.93138969 0 1543.57065832 0 6028
0.07550000 0.07549160 27134.17137032 0 -66.52651355 0 11160.34980095 0 3604.47354914 0 349.78802781 0 6183
0.07650000 0.07648840 26783.95373631 0 558.31976452 0 9337.84513581 0 1401.08091023 0 495.59836612 0 6330
0.07750000 0.07749960 25344.10861689 0 1397.19452422 0 9022.20637220 0 -258.49449522 0 17.53745528 0 6583
0.07850000 0.07848650 24589.97257349 0 1235.97040253 0 8572.39317644 0 -1980.82783773 0 701.88352811 0 6549
0.07950000 0.07947320 23430.25727199 0 663.13814188 0 8549.61740429 0 -906.21110308 0 -188.09111786 0 6828
0.08050000 0.08048110 23618.81896365 0 81.70412424 0 8514.25239882 0 296.36627503 0 291.60406812 0 7147
0.08150000 0.08149960 23840.26546002 0 -668.00553587 0 8227.05843767 0 1221.37707842 0 -1041.26135613 0 7386
0.08250000 0.08250610 24625.73618265 0 -493.92201614 0 7859.10293930 0 2455.05550971 0 -875.98254910 0 7227
0.08350000 0.08350160 24325.34401033 0 410.74781933 0 7645.70602307 0 786.26017939 0 -577.20029280 0 7798
0.08450000 0.08449610 24359.88966376 0 829.14107895 0 7681.46963224 0 -58.57569854 0 -951.57109617 0 7371
0.08550000 0.08548940 23248.67114496 0 974.26825481 0 7277.08618521 0 -356.51003621 0 1192.50045529 0 8256
0.08650000 0.08650700 22622.30972997 0 890.00121955 0 8252.07081944 0 -1118.98021850 0 980.57172933 0 8037
0.08750000 0.08749060 22283.16442077 0 703.81121986 0 8910.19873433 0 -530.70760088 0 1163.57954287 0 8155
0.08850000 0.08849210 21457.16898930 0 391.72777976 0 8616.17314878 0 168.38237968 0 79.05750644 0 8718
0.08950000 0.08949900 21220.22123818 0 161.11561290 0 8926.94008946 0 1323.81822764 0 -227.40340713 0 8571
0.09050000 0.09049190 21008.73983415 0 343.22988982 0 7308.97448069 0 1303.83268134 0 -1202.41018601 0 8932
0.09150000 0.09150830 20377.39587299 0 380.93558476 0 6884.41725784 0 1178.13965000 0 -810.79312950 0 9285
0.09250000 0.09250820 20009.35179602 0 567.20198348 0 5377.75065814 0 639.15327185 0 348.16261053 0 9204
0.09350000 0.09350330 19641.30771904 0 315.32320235 0 6407.63187882 0 1217.20281196 0 823.70456747 0 9349
0.09450000 0.09448040 19221.00226893 0 533.69712858 0 5404.37959933 0 580.22303747 0 1189.68808479 0 9564
0.09550000 0.09549270 18743.45289950 0 436.81982258 0 6107.58294856 0 777.94486346 0 1358.31959178 0 10155
0.09650000 0.09649430 18373.96942030 0 294.70210461 0 5762.94576626 0 695.85686172 0 1904.04126511 0 9913
0.09750000 0.09749140 18067.48746932 0 411.33133085 0 6206.69132802 0 120.71712857 0 2442.36662547 0 10476
0.09850000 0.09850240 17671.76258030 0 695.00318547 0 5660.82571446 0 298.40358279 0 3103.06331972 0 10575
0.09950000 0.09950330 17466.14950842 0 210.64212181 0 6107.89297366 0 129.94701854 0 2063.65989970 0 10882
0.10050000 0.10051200 17094.34084101 0 131.71083988 0 5910.14125240 0 -923.02996448 0 2662.83875726 0 10875
0.10150000 0.10150300 16883.30232997 0 485.71631621 0 6861.61934104 0 -477.92915017 0 2403.03772772 0 11118
0.10250000 0.10250800 16365.11752846 0 694.42963905 0 6627.30680323 0 -303.96742601 0 2095.96894352 0 11575
0.10350000 0.10349800 16026.30438901 0 479.62100140 0 6839.25324490 0 -433.27557141 0 1860.07306326 0 11364
0.10450000 0.10450100 15810.06188530 0 112.45938872 0 7806.29902224 0 348.43498972 0 1906.46610425 0 12093
0.10550000 0.10551000 15952.34125922 0 24.98248649 0 6950.19793959 0 382.21333104 0 1839.25709260 0 12067
0.10650000 0.10649700 15625.04333758 0 32.46859602 0 7014.07418147 0 751.49972286 0 1116.61074099 0 12054
0.10750000 0.10749900 15635.67276940 0 88.94110646 0 5992.35326418 0 670.41819544 0 1038.01495049 0 12807
0.10850000 0.10850100 15390.19932817 0 159.59870440 0 5747.48880081 0 1074.33439036 0 996.96098453 0 12736
0.10950000 0.10950300 15323.65465601 0 108.96573807 0 5239.34659791 0 993.32151136 0 773.21365906 0 12933
0.11050000 0.11050200 15170.74585027 0 -60.83102038 0 4679.44127648 0 685.67918074 0 787.02527704 0 13428
0.11150000 0.11150900 15309.81424999 0 -211.74049644 0 4487.14821135 0 -30.30373507 0 121.21427595 0 13453
0.11250000 0.11250000 15314.02173342 0 211.14259090 0 5089.06193315 0 -6.04917644 0 1230.77748219 0 13668
0.11350000 0.11349100 15217.58178425 0 650.64413055 0 4858.04894813 0 -550.11627906 0 1312.35837145 0 13791
0.11450000 0.11448600 14884.08336071 0 723.57642690 0 5872.14103362 0 -835.36704720 0 1205.70973880 0 14205
0.11550000 0.11549300 14302.56486124 0 532.20125750 0 6034.83777451 0 -627.08333057 0 1386.01147615 0 14776
0.11650000 0.11649800 14076.35726519 0 277.49460460 0 6189.19705480 0 235.69547118 0 1342.03220197 0 14553
0.11750000 0.11747300 13855.46438506 0 -233.20198363 0 5867.42422325 0 897.12183164 0 1077.41360390 0 14568
0.11850000 0.11849100 14151.75979721 0 -397.49646099 0 5470.61424640 0 1153.53694426 0 647.35011392 0 16015
0.11950000 0.11950300 14275.65911193 0 -152.57663600 0 4626.89202289 0 863.60811888 0 -143.02675584 0 15270
0.12050000 0.12050700 14285.07058802 0 203.61673172 0 4461.84794914 0 -170.64224118 0 43.79292695 0 15999
0.12150000 0.12150000 14033.06447515 0 358.93930427 0 4620.00503685 0 -421.72602939 0 446.43392222 0 15670
0.12250000 0.12250700 13752.27031775 0 435.41474456 0 5051.75927083 0 -796.86082318 0 233.57069205 0 16887
0.12350000 0.12352200 13490.96345203 0 309.26221174 0 5236.34599788 0 -177.20591533 0 320.27585324 0 16407
0.12450000 0.12449800 13359.64567968 0 199.51443537 0 5541.75393336 0 492.54572616 0 494.39037548 0 16306
0.12550000 0.12549900 13078.29790604 0 165.27991427 0 5055.13632990 0 467.88322986 0 891.91451728 0 17523
0.12650000 0.12650100 13138.75279955 0 -77.11409199 0 4505.11859454 0 1191.58145233 0 482.34479331 0 17154
0.12750000 0.12750600 13022.38266571 0 144.84926051 0 4272.99837704 0 633.43109439 0 627.67127102 0 18007
0.12850000 0.12850300 12870.02747620 0 162.74435188 0 3780.87782815 0 533.34835035 0 919.93414246 0 17496
0.12950000 0.12949900 12786.32070057 0 89.91458526 0 3685.88835353 0 49.39995224 0 742.57432182 0 18405
0.13050000 0.13049000 12662.97500209 0 -27.21389211 0 3834.68932677 0 -99.41165043 0 599.08142110 0 18100
0.13150000 0.13148800 12673.60443392 0 184.49814845 0 3612.51205696 0 -247.31587608 0 352.15307639 0 19059
0.13250000 0.13249300 12536.30760617 0 172.11375314 0 3586.35922573 0 -221.23833667 0 777.11333186 0 18957
0.13350000 0.13349100 12627.76500917 0 52.23114570 0 3974.45528295 0 403.36036421 0 724.82427791 0 19468
0.13450000 0.13450700 12474.30258718 0 -60.06935516 0 3509.68337636 0 28.79468792 0 758.69673399 0 19953
0.13550000 0.13551000 12534.20386445 0 233.50204364 0 4068.60326089 0 276.29547183 0 -157.00224423 0 19956
0.13650000 0.13649900 12284.74438629 0 338.44885996 0 3773.06076683 0 -243.81259251 0 249.56245078 0 19723
0.13750000 0.13749600 12074.37021473 0 264.83340117 0 4159.10844395 0 -443.60272877 0 430.58942541 0 20946
0.13850000 0.13851100 11907.17810997 0 198.25219034 0 3988.05209783 0 -296.41831495 0 15.93340758 0 20955
0.13950000 0.13949800 11943.38461213 0 56.23235172 0 4077.80436281 0 9.99928368 0 -51.70067062 0 20506
0.14050000 0.14048300 11580.10163483 0 255.42413954 0 4091.68905813 0 329.73161863 0 -367.90013675 0 21447
0.14150000 0.14148400 11510.78888146 0 97.48041553 0 3915.47300864 0 381.20353502 0 -229.33220611 0 21771
0.14250000 0.14249400 11334.96036334 0 292.09789381 0 3740.61885511 0 611.09489353 0 -441.13692203 0 22470
0.14350000 0.14350900 11036.37297996 0 239.43902420 0 3395.43912889 0 314.79948138 0 -593.75895456 0 22519
0.14450000 0.14449900 10735.18360024 0 281.66444213 0 3294.37094794 0 232.19329484 0 -452.58127696 0 22218
0.14550000 0.14550500 10419.30124549 0 349.51897032 0 3030.68353239 0 -2.06986040 0 -74.70076807 0 23559
0.14650000 0.14650700 10397.14552353 0 -32.99364566 0 3188.02126806 0 158.21023487 0 -88.45414562 0 23044
0.14750000 0.14750500 10259.95941903 0 -47.18648379 0 2887.23049204 0 484.71648528 0 -211.71945902 0 23649
0.14850000 0.14849900 10266.94605599 0 189.39322326 0 2835.42308421 0 -15.52926773 0 173.31067146 0 23640
0.14950000 0.14949500 10215.71440905 0 178.48809054 0 2805.00740793 0 20.11819275 0 -258.84991684 0 24457
0.15050000 0.15050000 10061.16689923 0 131.61451065 0 2970.38365142 0 427.70729926 0 546.37051157 0 24591
0.15150000 0.15149900 10075.56092150 0 -30.91282366 0 3065.98210391 0 277.39273922 0 174.70135545 0 25020
0.15250000 0.15250500 9946.97801338 0 101.35871875 0 2887.10869646 0 -19.41820037 0 111.94231115 0 25297
0.15350000 0.15350100 9993.67000714 0 234.31585951 0 2977.44779466 0 -191.47149862 0 290.44811741 0 25452
0.15450000 0.15450400 9824.91670458 0 102.81306861 0 3047.26987496 0 -139.51682888 0 576.45733980 0 26061
0.15550000 0.15549900 9807.00168302 0 -37.56729088 0 2855.10967774 0 108.01872213 0 481.56973057 0 26128
0.15650000 0.15649500 9750.43317552 0 191.36188261 0 2909.58551584 0 220.61164308 0 176.22933628 0 26331
0.15750000 0.15749700 9657.85746771 0 301.14619765 0 2859.79327113 0 -0.27182225 0 202.32348418 0 27345
0.15850000 0.15849900 9309.59963519 0 181.49865566 0 2946.91032281 0 -22.03746953 0 372.99119170 0 26980
0.15950000 0.15949700 9211.19988453 0 164.12839248 0 2978.97577548 0 -140.38600638 0 266.57729233 0 27777
0.16050000 0.16050000 9146.67037549 0 70.22001966 0 2906.98351951 0 106.99896101 0 -31.79639518 0 28224
0.16150000 0.16150500 9010.69115439 0 200.10791198 0 3162.94245234 0 91.47711174 0 -103.28840352 0 28075
0.16250000 0.16249700 8924.21629756 0 88.94941071 0 2632.02447729 0 86.07293144 0 211.57884049 0 28590
0.16350000 0.16349900 8954.95307125 0 -71.82683544 0 2470.77821096 0 587.62045768 0 -218.18901841 0 29163
0.16450000 0.16449100 8890.54535778 0 10.62908858 0 2274.03407125 0 168.14432470 0 51.05792216 0 28996
0.16550000 0.16550500 8764.60873529 0 183.99325044 0 2142.98203470 0 163.65560421 0 -132.70845635 0 30777
0.16650000 0.16650700 8599.55358922 0 198.12375137 0 2048.72333352 0 194.70461747 0 183.24697575 0 29211
0.16750000 0.16749900 8478.73238080 0 124.10193826 0 1852.36672519 0 5.08905086 0 -44.36591976 0 30922
0.16850000 0.16850800 8396.79717714 0 118.29339666 0 2076.88025553 0 -52.95804382 0 172.53893042 0 30867
0.16950000 0.16949900 8357.46827939 0 62.24728145 0 2171.33825856 0 59.75933006 0 30.11672351 0 30852
0.17050000 0.17049200 8329.61031014 0 29.15265618 0 2027.79663961 0 -6.23037503 0 -38.97989808 0 31257
0.17150000 0.17149500 8250.78642976 0 51.85900486 0 1972.75611294 0 109.80192004 0 50.28429882 0 32608
0.17250000 0.17250900 8312.86895502 0 117.18837865 0 2001.77667629 0 -14.58258396 0 -86.75332580 0 32361
0.17350000 0.17350400 8212.19937777 0 77.29368509 0 2043.56363015 0 138.33098289 0 -178.64310309 0 32508
0.17450000 0.17449800 8114.54147287 0 189.52719839 0 1940.79031119 0 117.98780050 0 -245.68160094 0 32791
0.17550000 0.17549800 7880.64968340 0 172.41049145 0 1963.97575936 0 85.55319652 0 -10.28866996 0 33633
0.17650000 0.17650100 7806.21044364 0 108.15646185 0 1970.25376753 0 -49.29188635 0 -205.65182502 0 33984
0.17750000 0.17750300 7690.94754228 0 97.06476046 0 2073.22638834 0 197.89566148 0 28.19091405 0 34069
0.17850000 0.17849800 7730.90756255 0 16.13160220 0 1936.99250377 0 165.29984445 0 196.15066309 0 34536
