### header ###
fiducial parameters:
Omega_m = 0.31
Omega_nu = 0
Omega_de = 0.69
Omega_k = 0
H_0 = 100
w_de = -1
zeff = 0
beta = 0
fgrowth = 0
b_1 = 2
gamma = 0.55
Lx = 3500 Ly = 3500 Lz = 3500
nx = 700 ny = 700 nz = 700
xoffset = -685.467585 yoffset = -31.7331281 zoffset = 572.489161
bins = 400 dk = 0.001
kx_ny = 0.628318531 ky_ny = 0.628318531 kz_ny = 0.628318531
############################
A(data) = 8.08351198 (not used)
A(ran) = 8.0818484 (used)
Ngal = 480557
weighted Ngal = 0
Nran = 23820508
weighted Nran = 0
SN(data) = 3487.68897
SN(ran) = 70.3958306
SN(data+ran) = 3558.0848
############################
13 columns: k_central k_mean P_0(k) sigma^{lin}_{P_0(k)} P^img_1(k) sigma^{lin}_{P_1(k)} P_2(k) sigma^{lin}_{P_2(k)} P^img_3(k) sigma^{lin}_{P_3(k)} P_4(k) sigma^{lin}_{P_4(k)} N_modes
### header ###
0.00050000 0 0 0 0 0 0 0 0 0 0 0 0
0.00150000 0.00179520 132767.13966791 0 -47813.28809462 0 45451.22904105 0 152464.80552028 0 -374374.12507062 0 3
0.00250000 0.00253879 207242.91809557 0 8045.31729810 0 101664.20418959 0 59686.58489064 0 374687.47186299 0 6
0.00350000 0.00331552 172398.31189129 0 47675.99126686 0 126472.52300851 0 -219319.50277526 0 145029.73940456 0 7
0.00450000 0.00420575 113734.92053713 0 75175.54935620 0 89088.70055357 0 41075.99988897 0 127658.36899658 0 24
0.00550000 0.00557378 95517.51378977 0 -9903.27554732 0 117044.43842543 0 120347.31291883 0 -63990.84044064 0 45
0.00650000 0.00659388 114818.90113688 0 -8694.91952289 0 140845.50785559 0 83710.98311240 0 -37128.16247488 0 40
0.00750000 0.00754703 101911.11703305 0 34030.34743712 0 87246.15498049 0 15514.09864289 0 -57686.59085865 0 57
0.00850000 0.00846663 78073.17676124 0 33604.17365485 0 72291.20874094 0 6096.30024957 0 -3344.81645982 0 75
0.00950000 0.00948925 66735.11614695 0 -5959.00342182 0 62548.33796327 0 15939.27591593 0 -21695.55614265 0 112
0.01050000 0.01054430 62276.51238897 0 -5467.25933198 0 63495.46462826 0 18562.86328171 0 -42873.48110002 0 105
0.01150000 0.01145670 66069.89087184 0 963.53695760 0 52681.90004062 0 11424.97836412 0 -60911.84835507 0 144
0.01250000 0.01249090 60390.34185612 0 9448.15870797 0 30543.67235172 0 1020.94474732 0 -42168.94907181 0 169
0.01350000 0.01339930 48769.05117296 0 8249.69026960 0 6429.61044359 0 -1118.82520595 0 -31059.53196503 0 180
0.01450000 0.01448870 53912.81039071 0 -2482.95776826 0 22728.16115524 0 -4319.88967264 0 -22350.48415567 0 267
0.01550000 0.01550050 60108.99408247 0 -7759.46308826 0 26751.62254783 0 8274.28190303 0 -7382.97082745 0 238
0.01650000 0.01653350 67980.08834955 0 -8410.68187247 0 26724.27390553 0 3303.28416942 0 -32336.06029337 0 315
0.01750000 0.01747870 70536.79887343 0 -122.84522940 0 20181.74789344 0 3119.05175676 0 1809.22894769 0 297
0.01850000 0.01844180 76975.02358573 0 260.69899509 0 42119.01288688 0 3057.11317173 0 -11974.71929137 0 388
0.01950000 0.01947590 75263.68506176 0 -2476.92335123 0 28522.86234907 0 1004.49680880 0 1739.58402458 0 399
0.02050000 0.02045430 78804.83598526 0 5039.82330468 0 25526.80197640 0 7761.88792739 0 -6426.12266127 0 462
0.02150000 0.02154770 75203.11944500 0 4795.45709593 0 29413.96305048 0 -1290.91127828 0 -7830.52526894 0 571
0.02250000 0.02255340 69390.81325470 0 4264.47268693 0 21135.96084631 0 3096.10989974 0 -13332.96137687 0 510
0.02350000 0.02348930 69908.11227022 0 1744.93195747 0 32821.13884367 0 342.45150539 0 -18315.50754526 0 555
0.02450000 0.02439640 67033.62602406 0 -1105.22285491 0 26477.58250857 0 4583.65459447 0 -10863.92152091 0 592
0.02550000 0.02547300 68830.11072588 0 1695.26150833 0 27964.59573172 0 -4300.42452561 0 -13923.22701295 0 837
0.02650000 0.02652900 69537.74300504 0 407.84133407 0 30261.43879210 0 -2114.63688316 0 -13699.78749811 0 723
0.02750000 0.02749970 69975.09983538 0 1459.02238600 0 34379.23639215 0 4274.40456229 0 -11682.74208590 0 826
0.02850000 0.02848090 67550.48214659 0 4859.36655478 0 30750.61410259 0 906.13913297 0 -5499.94483484 0 831
0.02950000 0.02946900 63130.63152548 0 2195.76380711 0 29627.54819623 0 -274.61358569 0 -12710.03238257 0 996
0.03050000 0.03053250 61793.98047338 0 3671.58290986 0 29070.16736486 0 6750.50856148 0 -12854.41549821 0 1041
0.03150000 0.03150510 56762.05173629 0 6910.28220862 0 29820.87098756 0 -1194.64848631 0 -11516.32504387 0 1036
0.03250000 0.03246190 51572.12092405 0 4263.75298581 0 29109.14194822 0 3532.83560756 0 -10789.40477488 0 1059
0.03350000 0.03345080 50316.96218261 0 1822.34965260 0 27429.13810349 0 1687.31157911 0 -6759.03425159 0 1302
0.03450000 0.03451200 48257.95265933 0 518.33427790 0 27304.13155629 0 4723.29875509 0 -10013.38981764 0 1339
0.03550000 0.03553350 50088.98301459 0 -930.42074130 0 31354.49869819 0 3098.64546212 0 -3800.28761356 0 1365
0.03650000 0.03647120 49486.31637471 0 434.87330788 0 28351.01986789 0 3661.17492453 0 3899.40706533 0 1308
0.03750000 0.03744890 50305.33624155 0 321.22475148 0 28493.96358130 0 5629.12564850 0 8142.03405539 0 1579
0.03850000 0.03847530 50697.85015637 0 -1756.98971920 0 33906.00522940 0 2613.06865720 0 6014.75257728 0 1662
0.03950000 0.03950240 50164.27482336 0 2345.48378331 0 29592.33820331 0 3834.60074817 0 10076.66815398 0 1683
0.04050000 0.04050350 49401.61308985 0 3755.51113199 0 32080.95392955 0 410.83529070 0 12049.45748389 0 1822
0.04150000 0.04152450 45688.73040841 0 835.00608941 0 26277.17342936 0 4076.02171851 0 10995.37216116 0 1887
0.04250000 0.04250150 47137.76555743 0 565.94527462 0 29800.27646340 0 1738.18891166 0 9961.22809542 0 1920
0.04350000 0.04349210 43793.92346220 0 1732.05484371 0 23949.99219897 0 4331.34952883 0 317.42583683 0 2005
0.04450000 0.04448520 43471.71880998 0 1442.71285154 0 21161.09502365 0 2694.38381067 0 1356.45944121 0 2151
0.04550000 0.04548030 41919.71104015 0 1497.15547268 0 18576.26079474 0 2488.38320742 0 -500.66949088 0 2274
0.04650000 0.04648670 41325.90226012 0 128.40907262 0 19263.74144273 0 4403.17569993 0 -5860.99120253 0 2311
0.04750000 0.04749250 40449.85992047 0 649.14383054 0 18141.67204561 0 50.23325541 0 -7341.89250237 0 2568
0.04850000 0.04851840 39088.51758402 0 1841.56013616 0 14743.79700526 0 900.70040702 0 -9465.46475167 0 2493
0.04950000 0.04949480 37654.87296650 0 158.31431472 0 16345.63023677 0 -338.98254602 0 -7164.24812298 0 2644
0.05050000 0.05050630 38323.97355529 0 -1095.58661062 0 15693.24885846 0 -784.92042809 0 -8202.32286403 0 2829
0.05150000 0.05149060 39437.62798555 0 32.96131448 0 16096.50292836 0 712.88609729 0 -7678.88978055 0 2784
0.05250000 0.05249300 40060.11408686 0 -426.73293467 0 17553.17798150 0 -153.95292598 0 -5552.40550983 0 3055
0.05350000 0.05348950 39466.08386033 0 1703.28894383 0 17871.39659678 0 -295.07413472 0 -947.86186735 0 3009
0.05450000 0.05448610 38943.02723590 0 547.54528523 0 19508.66126772 0 1966.33416454 0 -173.28963404 0 3336
0.05550000 0.05550870 37573.38065584 0 561.74886351 0 20236.88807104 0 -564.06187217 0 445.61235572 0 3349
0.05650000 0.05647670 38541.43401473 0 1927.25993026 0 21009.07200389 0 1727.85843260 0 1833.41090510 0 3324
0.05750000 0.05747970 36224.77149292 0 1880.65651510 0 21806.16866759 0 1910.79538325 0 4192.21469516 0 3639
0.05850000 0.05849280 34546.76066666 0 1740.27050872 0 19111.38625322 0 1349.47280425 0 5003.29570510 0 3846
0.05950000 0.05951020 33973.98930379 0 -349.17572825 0 18495.10065382 0 2334.63290499 0 2197.04819679 0 3787
0.06050000 0.06049470 35049.00132043 0 -654.73203287 0 17002.99416126 0 2136.47150771 0 708.24457872 0 3930
0.06150000 0.06148310 34355.54161704 0 542.18185109 0 14681.90270953 0 743.75463165 0 -376.24313350 0 4083
0.06250000 0.06249100 34692.14029153 0 -334.23362591 0 14025.42457103 0 37.62464552 0 -843.58824838 0 4303
0.06350000 0.06350600 34765.77125157 0 96.43264144 0 14097.39468235 0 464.06549226 0 -4124.90603259 0 4470
0.06450000 0.06451750 33786.20267487 0 874.71144621 0 14803.58755928 0 1221.46565702 0 -2750.76408865 0 4479
0.06550000 0.06550280 33392.58152756 0 1598.25687060 0 12377.75191476 0 1316.54371024 0 -1947.50014003 0 4636
0.06650000 0.06648880 31897.59623055 0 451.81064315 0 11997.19611075 0 4116.13675133 0 -370.98156475 0 4653
0.06750000 0.06749660 32402.27279578 0 -672.64483997 0 10298.00392710 0 3627.14967037 0 -416.20315377 0 5220
0.06850000 0.06852730 32208.06421846 0 -204.71289187 0 9347.51127537 0 3062.38359834 0 -1424.01169493 0 5029
0.06950000 0.06949320 31226.83479304 0 528.15875171 0 8190.26510230 0 1686.13791268 0 1349.45065960 0 5040
0.07050000 0.07048030 30545.22247720 0 1856.89530604 0 7019.12316158 0 509.54063753 0 -285.61172593 0 5475
0.07150000 0.07148790 29471.53913954 0 1835.16033242 0 6755.91185599 0 -479.99746045 0 1691.87337694 0 5509
0.07250000 0.07249820 27929.27501555 0 960.87295625 0 7801.92545394 0 -772.26254636 0 1509.77792297 0 5916
0.07350000 0.07351270 27260.28515000 0 930.00110019 0 7127.31084739 0 533.68162733 0 1894.19796835 0 5721
0.07450000 0.07449140 26267.31906027 0 75.48867470 0 7077.05356503 0 564.05301431 0 2326.04078093 0 6028
0.07550000 0.07549160 26593.95264242 0 17.04473683 0 8148.82139051 0 -58.01278155 0 -660.42763676 0 6183
0.07650000 0.07648840 26592.84540994 0 233.03257706 0 9087.06805099 0 174.08684143 0 -1016.93878020 0 6330
0.07750000 0.07749960 26121.60726565 0 517.21818756 0 8420.89055595 0 -1330.59449043 0 -1853.14178792 0 6583
0.07850000 0.07848650 25766.96070171 0 584.13267536 0 9295.94745869 0 -1390.05287471 0 -1352.17445150 0 6549
0.07950000 0.07947320 25439.66278007 0 760.59453046 0 9731.01231779 0 -974.10216994 0 -1850.42906834 0 6828
0.08050000 0.08048110 24523.31717808 0 981.41544049 0 9118.96741879 0 166.72595989 0 -1383.39840749 0 7147
0.08150000 0.08149960 24764.02951964 0 294.82390018 0 9537.09162092 0 -114.49780372 0 -1521.42600868 0 7386
0.08250000 0.08250610 24040.34236949 0 199.79235073 0 9439.43371602 0 1609.49528029 0 -2157.99610715 0 7227
0.08350000 0.08350160 23950.21364547 0 495.95378774 0 9074.96599996 0 1183.93047588 0 -2089.24804236 0 7798
0.08450000 0.08449610 23103.07007359 0 502.43663392 0 8166.00563862 0 1322.83279073 0 -1204.35891517 0 7371
0.08550000 0.08548940 22876.19813806 0 440.50912121 0 8082.44280322 0 1137.90282161 0 -2178.54634202 0 8256
0.08650000 0.08650700 22057.28899447 0 789.85204157 0 6526.68151527 0 775.54106174 0 -2484.00963911 0 8037
0.08750000 0.08749060 21614.17455523 0 537.57797843 0 7299.51871529 0 561.72228993 0 -1646.90866585 0 8155
0.08850000 0.08849210 20913.18567096 0 248.77520849 0 6238.73463604 0 631.17234012 0 -438.75194326 0 8718
0.08950000 0.08949900 20996.33883035 0 200.32271508 0 6250.96955497 0 1194.11701472 0 252.57412314 0 8571
0.09050000 0.09049190 20940.75575976 0 77.17222169 0 6618.01712270 0 1294.29940968 0 370.52317050 0 8932
0.09150000 0.09150830 20688.52820039 0 439.55911574 0 6890.92778483 0 -395.59645005 0 705.34584408 0 9285
0.09250000 0.09250820 19963.62309452 0 856.35242443 0 7333.90935618 0 -788.68391130 0 2308.80117118 0 9204
0.09350000 0.09350330 19585.72464846 0 743.97386368 0 8423.28217811 0 -450.11214853 0 1927.95748672 0 9349
0.09450000 0.09448040 19120.90845257 0 530.82275306 0 8480.34894023 0 -16.43996644 0 1300.25632043 0 9564
0.09550000 0.09549270 18838.67489294 0 213.18432759 0 8307.85319188 0 -361.28331544 0 466.05297457 0 10155
0.09650000 0.09649430 18519.79193816 0 211.41497009 0 8402.58800302 0 -318.99257079 0 -535.47423672 0 9913
0.09750000 0.09749140 18289.26613544 0 358.98248634 0 8231.09983623 0 -629.85362624 0 -576.05762887 0 10476
0.09850000 0.09850240 17951.78167497 0 626.61497123 0 8059.42343992 0 93.31068873 0 -1847.33988972 0 10575
0.09950000 0.09950330 17447.10510973 0 491.37205973 0 7969.07326940 0 -143.48515009 0 -953.32716689 0 10882
0.10050000 0.10051200 17004.65500998 0 298.45783718 0 7834.30093171 0 492.34642432 0 -1231.48611098 0 10875
0.10150000 0.10150300 17116.48549065 0 73.59696801 0 8102.06296280 0 963.19150107 0 -2369.36678794 0 11118
0.10250000 0.10250800 16673.81394440 0 -23.37987819 0 7095.43362423 0 762.80345927 0 -1743.99080986 0 11575
0.10350000 0.10349800 16885.18462519 0 189.11641513 0 6729.83653105 0 1286.00623839 0 -1477.82319354 0 11364
0.10450000 0.10450100 16646.68674859 0 -102.58165702 0 5439.81103875 0 1271.93331354 0 -691.45229090 0 12093
0.10550000 0.10551000 16814.87536259 0 -293.19073227 0 5249.99817439 0 1082.96637479 0 -643.99630673 0 12067
0.10650000 0.10649700 16688.31868991 0 -113.64855640 0 4257.41961602 0 1087.53038708 0 -57.81082234 0 12054
0.10750000 0.10749900 16807.23545846 0 375.73159209 0 4277.16157117 0 1126.17722963 0 668.70309233 0 12807
0.10850000 0.10850100 16351.49856893 0 321.21921531 0 3992.15993034 0 563.71752286 0 834.00958017 0 12736
0.10950000 0.10950300 15882.80705936 0 398.35124447 0 3874.78221493 0 805.36326140 0 993.43223461 0 12933
0.11050000 0.11050200 15887.45743578 0 365.44208064 0 4045.70569316 0 -184.43171450 0 1036.89886015 0 13428
0.11150000 0.11150900 15312.02871495 0 229.77399187 0 3969.80490653 0 -443.88728751 0 971.70611885 0 13453
0.11250000 0.11250000 15340.37386649 0 346.09983641 0 4610.89251353 0 -98.68209495 0 1279.32962652 0 13668
0.11350000 0.11349100 15122.58123731 0 42.23936906 0 4163.12769786 0 -334.55583056 0 438.64564895 0 13791
0.11450000 0.11448600 15045.07496358 0 125.17927547 0 4105.97235715 0 -101.64228099 0 434.69172175 0 14205
0.11550000 0.11549300 14908.22102882 0 352.69008415 0 4288.93145245 0 -115.82094653 0 19.17682369 0 14776
0.11650000 0.11649800 14816.87434906 0 273.39120103 0 4189.40232466 0 -144.51266184 0 417.95479556 0 14553
0.11750000 0.11747300 14551.69216966 0 66.36507905 0 4827.09072794 0 389.13574852 0 640.33358168 0 14568
0.11850000 0.11849100 14676.80944011 0 31.53586338 0 4558.37647691 0 104.37924896 0 736.40482243 0 16015
0.11950000 0.11950300 14590.22386003 0 480.95632377 0 4843.63278122 0 408.05060101 0 638.08922144 0 15270
0.12050000 0.12050700 14098.50191483 0 431.71437361 0 4614.32493422 0 -302.65424829 0 801.34179303 0 15999
0.12150000 0.12150000 13785.81946195 0 375.55775659 0 4816.77132121 0 279.20306432 0 1491.59716562 0 15670
0.12250000 0.12250700 13562.04777737 0 258.92077972 0 4594.47225582 0 303.11596424 0 919.32073567 0 16887
0.12350000 0.12352200 13311.59178997 0 176.98114713 0 4753.50405719 0 456.33479508 0 1146.26242685 0 16407
0.12450000 0.12449800 13085.71636367 0 196.41529166 0 4324.47361512 0 442.62061356 0 850.80297523 0 16306
0.12550000 0.12549900 13150.37874061 0 -31.19693952 0 4002.06966105 0 331.88297135 0 1147.55788885 0 17523
0.12650000 0.12650100 13188.46753799 0 -102.48477418 0 4319.24747781 0 -94.50406390 0 657.31299179 0 17154
0.12750000 0.12750600 13289.44714033 0 -133.94966396 0 4470.57294110 0 -553.87533333 0 466.00979250 0 18007
0.12850000 0.12850300 13478.56244823 0 146.68726643 0 4849.36824547 0 -562.88377681 0 207.79210541 0 17496
0.12950000 0.12949900 13191.34634244 0 242.30786356 0 4625.17581254 0 -98.22248274 0 495.89399719 0 18405
0.13050000 0.13049000 13131.22361867 0 189.80622097 0 4741.61238034 0 36.00631452 0 98.90387361 0 18100
0.13150000 0.13148800 13147.49993616 0 71.57737596 0 4847.08734656 0 482.79543693 0 -187.23522715 0 19059
0.13250000 0.13249300 12785.32419134 0 348.08842595 0 4565.32989690 0 188.36681874 0 -122.74668571 0 18957
0.13350000 0.13349100 12493.12553938 0 291.83658694 0 4093.67100427 0 469.67141032 0 -121.91958304 0 19468
0.13450000 0.13450700 12299.24913180 0 179.54106863 0 3789.33708431 0 462.92725727 0 44.23183391 0 19953
0.13550000 0.13551000 12301.57432001 0 -30.91603464 0 3954.83512337 0 55.42750443 0 33.80148248 0 19956
0.13650000 0.13649900 12193.50842978 0 92.41371970 0 3671.27288477 0 400.19589378 0 -1.41006057 0 19723
0.13750000 0.13749600 12199.26603869 0 -17.25898631 0 3750.07462050 0 32.06146664 0 382.28751562 0 20946
0.13850000 0.13851100 12208.01317529 0 119.98746236 0 3489.70890239 0 68.24925657 0 -426.86912427 0 20955
0.13950000 0.13949800 12013.91532122 0 371.63704638 0 3893.19549111 0 -252.77785391 0 -174.37804357 0 20506
0.14050000 0.14048300 11706.10469127 0 425.86597164 0 4017.15016745 0 -38.91645366 0 29.52867234 0 21447
0.14150000 0.14148400 11342.26809772 0 217.93324771 0 4200.00961183 0 -221.62476080 0 149.38337752 0 21771
0.14250000 0.14249400 11212.38972760 0 284.34837367 0 4074.28336352 0 274.35006436 0 -27.23836195 0 22470
0.14350000 0.14350900 11169.09693756 0 151.15605673 0 4321.53944904 0 139.43489367 0 -27.86195528 0 22519
0.14450000 0.14449900 10928.97142922 0 233.84639294 0 4179.86905299 0 -122.20303456 0 -32.74540414 0 22218
0.14550000 0.14550500 10778.65354748 0 175.21400409 0 4318.89316341 0 157.82159627 0 248.92468488 0 23559
0.14650000 0.14650700 10689.80921314 0 39.42511626 0 4286.32945612 0 108.37979064 0 418.04115969 0 23044
0.14750000 0.14750500 10672.29279527 0 153.62518516 0 3955.05656987 0 457.17739899 0 471.40644362 0 23649
0.14850000 0.14849900 10571.67857965 0 170.47726354 0 3914.72009056 0 352.18961506 0 156.78965559 0 23640
0.14950000 0.14949500 10224.25117149 0 287.78190159 0 3769.78335868 0 311.54311065 0 680.64348741 0 24457
0.15050000 0.15050000 10015.59321028 0 278.37706889 0 3632.85191765 0 328.98423671 0 884.41855338 0 24591
0.15150000 0.15149900 9975.19029702 0 85.51322542 0 3351.27162518 0 268.32118349 0 627.99679737 0 25020
0.15250000 0.15250500 9877.39952422 0 -86.37465229 0 3367.89118474 0 160.32504891 0 774.84904144 0 25297
0.15350000 0.15350100 9735.97271931 0 131.30448556 0 3322.93754597 0 18.20744166 0 604.59876056 0 25452
0.15450000 0.15450400 9805.86123356 0 232.27523005 0 3243.90329142 0 110.62016484 0 721.38078489 0 26061
0.15550000 0.15549900 9459.95073391 0 65.82873564 0 2956.41037750 0 460.49356028 0 740.18048520 0 26128
0.15650000 0.15649500 9435.77984883 0 237.99519305 0 3017.73998467 0 172.62972348 0 407.59220676 0 26331
0.15750000 0.15749700 9199.08676118 0 153.79791343 0 2686.03527776 0 126.34408404 0 642.41296428 0 27345
0.15850000 0.15849900 9089.69219197 0 210.91339377 0 2815.08322352 0 186.33393991 0 449.85527059 0 26980
0.15950000 0.15949700 8934.26996849 0 -41.02296345 0 2595.49687771 0 6.02230390 0 775.86769532 0 27777
0.16050000 0.16050000 9061.57955926 0 -94.78308648 0 2482.75846641 0 331.38360950 0 483.67568675 0 28224
0.16150000 0.16150500 9090.73299050 0 54.39611737 0 2390.04989070 0 -12.12242410 0 451.39764544 0 28075
0.16250000 0.16249700 9014.46681715 0 172.33077071 0 2506.46431385 0 -74.42318488 0 444.72103357 0 28590
0.16350000 0.16349900 8887.15722639 0 207.14548164 0 2733.59091285 0 -224.05956503 0 681.95555791 0 29163
0.16450000 0.16449100 8711.24012967 0 172.21340407 0 2706.86232074 0 74.92221456 0 712.56832156 0 28996
0.16550000 0.16550500 8741.55615502 0 -22.66493818 0 2778.81028741 0 165.06400393 0 578.88550063 0 30777
0.16650000 0.16650700 8660.69496687 0 -9.59281863 0 2689.27946893 0 227.80533252 0 473.50464917 0 29211
0.16750000 0.16749900 8735.93141401 0 124.34220771 0 2894.29463527 0 -147.94729699 0 302.70850268 0 30922
0.16850000 0.16850800 8515.50357152 0 298.32164759 0 2835.60024141 0 37.15318593 0 387.82589249 0 30867
0.16950000 0.16949900 8470.62743903 0 233.08461699 0 2716.19629056 0 -212.17010264 0 628.12745080 0 30852
0.17050000 0.17049200 8180.92006015 0 215.11755551 0 2925.16427686 0 -107.39778615 0 595.14188793 0 31257
0.17150000 0.17149500 8160.77950131 0 37.77511841 0 2943.27860027 0 25.58282794 0 388.88219228 0 32608
0.17250000 0.17250900 8120.57588989 0 -29.44241893 0 3044.31356424 0 320.11530453 0 300.30027203 0 32361
0.17350000 0.17350400 8139.16632326 0 -33.30688173 0 2910.38272323 0 205.51342096 0 253.04912587 0 32508
0.17450000 0.17449800 8161.58778102 0 74.36616241 0 2652.35326566 0 264.16463276 0 328.26121390 0 32791
0.17550000 0.17549800 8276.03133035 0 -44.82198882 0 2593.99104154 0 150.73641562 0 329.56331930 0 33633
0.17650000 0.17650100 8081.85597000 0 61.38585458 0 2452.49780268 0 83.12758232 0 81.55985185 0 33984
0.17750000 0.17750300 8129.73270252 0 181.68245625 0 2595.08720170 0 -100.45366692 0 60.41791194 0 34069
0.17850000 0.17849800 7945.96532750 0 186.18446352 0 2384.01547368 0 -6.71694834 0 165.06068223 0 34536
