### header ###
fiducial parameters:
Omega_m = 0.31
Omega_nu = 0
Omega_de = 0.69
Omega_k = 0
H_0 = 100
w_de = -1
zeff = 0
beta = 0
fgrowth = 0
b_1 = 2
gamma = 0.55
Lx = 3500 Ly = 3500 Lz = 3500
nx = 700 ny = 700 nz = 700
xoffset = -685.467585 yoffset = -31.7331281 zoffset = 572.489161
bins = 400 dk = 0.001
kx_ny = 0.628318531 ky_ny = 0.628318531 kz_ny = 0.628318531
############################
A(data) = 8.04024232 (not used)
A(ran) = 8.03691824 (used)
Ngal = 477454
weighted Ngal = 0
Nran = 23820508
weighted Nran = 0
SN(data) = 3487.22952
SN(ran) = 70.0044726
SN(data+ran) = 3557.23399
############################
13 columns: k_central k_mean P_0(k) sigma^{lin}_{P_0(k)} P^img_1(k) sigma^{lin}_{P_1(k)} P_2(k) sigma^{lin}_{P_2(k)} P^img_3(k) sigma^{lin}_{P_3(k)} P_4(k) sigma^{lin}_{P_4(k)} N_modes
### header ###
0.00050000 0 0 0 0 0 0 0 0 0 0 0 0
0.00150000 0.00179520 1648.99026292 0 -6675.20568039 0 -227.42112285 0 -4217.53710202 0 20025.40666700 0 3
0.00250000 0.00253879 8115.94765812 0 -11795.45835255 0 -8240.19021491 0 1240.15574131 0 -21265.28560020 0 6
0.00350000 0.00331552 17417.65272572 0 -14018.78117614 0 -8674.62395149 0 22689.51874162 0 15914.69535483 0 7
0.00450000 0.00420575 34833.42315621 0 -20044.78323544 0 -16303.22323272 0 1990.50504962 0 -12444.96092641 0 24
0.00550000 0.00557378 47573.90443204 0 -11984.35221396 0 -18503.62634393 0 1229.89169621 0 125.38079178 0 45
0.00650000 0.00659388 72187.57178064 0 -10914.87635973 0 -55992.30371490 0 9797.12516928 0 9579.06680430 0 40
0.00750000 0.00754703 60918.93464296 0 -4163.52630156 0 -41095.37645740 0 -10775.14362051 0 -11785.71470671 0 57
0.00850000 0.00846663 67704.83035456 0 -3132.52677607 0 -27233.37940069 0 -27112.24816718 0 -14212.21469072 0 75
0.00950000 0.00948925 61417.85359929 0 3597.55334613 0 -15215.92093553 0 -30283.47271849 0 -20026.51389949 0 112
0.01050000 0.01054430 61573.75193273 0 5611.18848229 0 -4267.46221463 0 -39724.84409135 0 2970.08469865 0 105
0.01150000 0.01145670 57369.47947584 0 4584.69539301 0 22292.68662012 0 -15131.10692742 0 -892.88556017 0 144
0.01250000 0.01249090 65768.94508327 0 -6001.49900448 0 18237.00476230 0 2646.62887373 0 -4494.12377599 0 169
0.01350000 0.01339930 70579.42732398 0 -8871.68918862 0 35174.11859088 0 -5635.43687365 0 -12723.98351184 0 180
0.01450000 0.01448870 82289.62877543 0 -2095.84714795 0 42109.37996429 0 354.29224955 0 -10882.02477199 0 267
0.01550000 0.01550050 83981.92290071 0 3579.26186553 0 48386.50235048 0 6947.89489603 0 9954.68435145 0 238
0.01650000 0.01653350 77778.32075132 0 6068.64158218 0 44318.97310510 0 13764.67132155 0 12216.09597241 0 315
0.01750000 0.01747870 81095.81071348 0 -523.18063447 0 42255.97754489 0 17763.44142980 0 2530.62412660 0 297
0.01850000 0.01844180 78475.21287540 0 -433.66974617 0 46330.92524790 0 17366.27713856 0 -2624.25170527 0 388
0.01950000 0.01947590 74651.27477604 0 6889.89805863 0 33524.56363940 0 9701.80352492 0 7699.41787077 0 399
0.02050000 0.02045430 70352.00177220 0 4488.48796266 0 34784.15131077 0 -2352.03859960 0 16791.51275722 0 462
0.02150000 0.02154770 67920.85141177 0 3287.50610655 0 28259.89463463 0 8285.50924039 0 11849.60202092 0 571
0.02250000 0.02255340 65318.08001665 0 -1070.26752546 0 33935.90050641 0 7639.94841417 0 17393.40433436 0 510
0.02350000 0.02348930 66351.68153848 0 3418.02667152 0 22864.57219700 0 9767.04166275 0 4712.12677935 0 555
0.02450000 0.02439640 63073.27688292 0 7383.05940605 0 30422.20894846 0 -4030.47017421 0 5249.40026885 0 592
0.02550000 0.02547300 58061.83194675 0 4509.91291118 0 22717.53172341 0 -5451.38161819 0 -2608.60651030 0 837
0.02650000 0.02652900 55426.72936317 0 -837.57154707 0 31279.42833592 0 -5535.65308238 0 -1585.59013100 0 723
0.02750000 0.02749970 59119.57113668 0 -543.23815088 0 32123.02876386 0 -4671.29204541 0 -6678.59381179 0 826
0.02850000 0.02848090 59059.44841291 0 -894.25188505 0 33997.90552540 0 1534.72387079 0 -2305.30231654 0 831
0.02950000 0.02946900 58332.43956532 0 2506.68576034 0 31265.69865315 0 8313.16790779 0 126.02298662 0 996
0.03050000 0.03053250 58997.88628692 0 2042.10208328 0 32729.79216392 0 12560.33455102 0 936.78179191 0 1041
0.03150000 0.03150510 53413.00564840 0 -167.92952159 0 29321.17696850 0 14326.25963635 0 11120.04653861 0 1036
0.03250000 0.03246190 55511.65409452 0 1025.20537791 0 26397.52960013 0 12987.39411928 0 10263.89009434 0 1059
0.03350000 0.03345080 54590.10449987 0 436.47104435 0 27716.68637903 0 4577.21050143 0 16017.11435941 0 1302
0.03450000 0.03451200 52618.67706591 0 2313.26331809 0 23452.62336812 0 1161.56437975 0 15904.61953925 0 1339
0.03550000 0.03553350 51946.58694942 0 3005.85938014 0 24356.67868956 0 -3343.35491294 0 21254.10255213 0 1365
0.03650000 0.03647120 48850.98637662 0 2279.17162997 0 22779.09384940 0 129.37790104 0 18009.02559428 0 1308
0.03750000 0.03744890 48908.89463542 0 641.79180686 0 21783.80257145 0 7005.68135925 0 15442.46070132 0 1579
0.03850000 0.03847530 47402.28339735 0 -2311.87927748 0 17569.67574548 0 6998.46220347 0 2978.11213415 0 1662
0.03950000 0.03950240 48722.54740872 0 -12.56830662 0 15206.95235243 0 6367.42826741 0 2310.14092249 0 1683
0.04050000 0.04050350 46864.83275065 0 2857.62309547 0 15780.83094778 0 -317.31843528 0 1183.18863012 0 1822
0.04150000 0.04152450 45893.67914081 0 1749.62662319 0 11744.74710488 0 -3832.18698136 0 2435.54607338 0 1887
0.04250000 0.04250150 44259.40399757 0 477.32681570 0 14863.71028305 0 -1350.45824116 0 5159.22725552 0 1920
0.04350000 0.04349210 45082.18845485 0 586.78671162 0 13275.82818081 0 -1802.95093952 0 4669.86371551 0 2005
0.04450000 0.04448520 44049.47271901 0 1546.85913879 0 18705.36410212 0 1528.94411723 0 4644.66310423 0 2151
0.04550000 0.04548030 43243.73964196 0 2252.91914782 0 20822.72477719 0 128.10015476 0 2067.09232039 0 2274
0.04650000 0.04648670 40379.32921138 0 2467.32364561 0 19488.50963655 0 1091.30494261 0 4668.26930074 0 2311
0.04750000 0.04749250 39036.80982712 0 1876.94728628 0 20837.34024596 0 1288.01032918 0 3577.85568027 0 2568
0.04850000 0.04851840 38281.56655124 0 538.53130560 0 18104.02614122 0 4082.90870455 0 6212.72574504 0 2493
0.04950000 0.04949480 37817.52541809 0 -301.45179382 0 17891.10533496 0 2985.01019251 0 6438.84476249 0 2644
0.05050000 0.05050630 38680.17024471 0 -1154.51130884 0 15519.19191231 0 2867.12315016 0 7462.52548127 0 2829
0.05150000 0.05149060 38598.56721079 0 -325.75222509 0 14590.44530652 0 4604.65879466 0 4021.18049369 0 2784
0.05250000 0.05249300 37744.00518129 0 1640.08811376 0 12720.10819816 0 736.52661801 0 4686.12896067 0 3055
0.05350000 0.05348950 35668.27644754 0 2037.50706848 0 15205.40222695 0 328.95434143 0 4961.73019773 0 3009
0.05450000 0.05448610 35319.38749250 0 1007.49630160 0 15074.19517785 0 445.66993181 0 4771.82875477 0 3336
0.05550000 0.05550870 34334.94709288 0 846.87119268 0 16708.02742809 0 -705.10889633 0 6289.23550954 0 3349
0.05650000 0.05647670 34508.78259253 0 1112.99009077 0 16937.55672158 0 844.76966543 0 6118.58883943 0 3324
0.05750000 0.05747970 32848.26603948 0 1381.26144880 0 17655.37553957 0 415.57535295 0 8841.31780164 0 3639
0.05850000 0.05849280 32314.80142972 0 787.66415018 0 15371.48709923 0 2957.99371995 0 6895.14634059 0 3846
0.05950000 0.05951020 32271.50863967 0 -1067.56366374 0 15175.50694994 0 1424.52102187 0 5803.04972675 0 3787
0.06050000 0.06049470 32687.05299012 0 260.25720933 0 15807.84742033 0 -574.52079019 0 5686.30313386 0 3930
0.06150000 0.06148310 32139.30508134 0 513.79905365 0 14197.26705221 0 -490.61914164 0 4048.96095666 0 4083
0.06250000 0.06249100 31957.27606132 0 472.03313720 0 15057.69741387 0 -152.90216235 0 6384.10318858 0 4303
0.06350000 0.06350600 32141.85171605 0 -520.62846360 0 13236.18925795 0 525.69515944 0 3080.67507894 0 4470
0.06450000 0.06451750 33259.49218324 0 -789.12016089 0 15657.37452605 0 2179.94145494 0 2637.94817107 0 4479
0.06550000 0.06550280 33308.87475193 0 -328.73843110 0 13352.78083829 0 685.75225809 0 643.32643108 0 4636
0.06650000 0.06648880 33183.86820473 0 175.54728107 0 12242.78027523 0 1595.56629567 0 2822.63454904 0 4653
0.06750000 0.06749660 33960.03817452 0 288.31558765 0 13657.60194055 0 -1176.48987361 0 1695.84834155 0 5220
0.06850000 0.06852730 32592.16316642 0 1499.34779299 0 11998.41406648 0 1326.56416420 0 2170.29746003 0 5029
0.06950000 0.06949320 32377.58151144 0 1074.17605612 0 12511.06270558 0 1897.05462815 0 3146.01286770 0 5040
0.07050000 0.07048030 30067.67310777 0 1186.29995339 0 11800.44089872 0 1446.47744198 0 3398.56152448 0 5475
0.07150000 0.07148790 29778.24253701 0 1159.19490224 0 12429.57039492 0 2252.96343712 0 3441.86538685 0 5509
0.07250000 0.07249820 28419.11466552 0 1013.05017972 0 11331.97083564 0 1761.05326241 0 4919.24568740 0 5916
0.07350000 0.07351270 27610.72423051 0 873.53888701 0 11013.33147201 0 869.19521398 0 5125.25736298 0 5721
0.07450000 0.07449140 27460.02988973 0 453.13710767 0 11032.69696812 0 1557.92039128 0 4195.19315054 0 6028
0.07550000 0.07549160 26969.30445377 0 569.36330129 0 11742.75408642 0 -402.65948605 0 4951.08969358 0 6183
0.07650000 0.07648840 26355.89765882 0 811.67337932 0 11279.82018575 0 274.18840841 0 5597.59166742 0 6330
0.07750000 0.07749960 26272.52305293 0 104.67631943 0 10542.38120818 0 478.45951453 0 5993.91446198 0 6583
0.07850000 0.07848650 26007.89448977 0 184.69855753 0 11458.97040131 0 2314.97952843 0 5824.09821623 0 6549
0.07950000 0.07947320 25558.02593238 0 751.97915452 0 10746.54380551 0 1874.61102575 0 4532.97656378 0 6828
0.08050000 0.08048110 24886.82160188 0 626.64265204 0 10269.99094531 0 1263.88373340 0 6203.82359589 0 7147
0.08150000 0.08149960 24201.22324911 0 -222.75635240 0 8909.41259927 0 952.71265286 0 4891.86382813 0 7386
0.08250000 0.08250610 24805.99363070 0 -254.12535584 0 8608.89863137 0 860.84003768 0 5867.66781439 0 7227
0.08350000 0.08350160 24509.80894180 0 285.61283316 0 7576.96903060 0 778.05115777 0 4662.45633021 0 7798
0.08450000 0.08449610 23746.37214556 0 379.17951404 0 6234.90361165 0 148.39904785 0 3598.62736163 0 7371
0.08550000 0.08548940 24092.05012640 0 484.31566712 0 6234.34999541 0 180.10907889 0 3646.00583953 0 8256
0.08650000 0.08650700 22743.44096349 0 961.56276209 0 5870.53554652 0 -448.47787338 0 831.56481085 0 8037
0.08750000 0.08749060 22032.15481714 0 1214.93298538 0 6230.24216290 0 -1399.70794195 0 341.33762951 0 8155
0.08850000 0.08849210 20817.74223103 0 1632.32641406 0 6570.16253484 0 -1347.43549648 0 844.54379001 0 8718
0.08950000 0.08949900 19786.79806716 0 816.02812467 0 7551.42517724 0 -1237.40980476 0 424.59708322 0 8571
0.09050000 0.09049190 19546.41789535 0 243.94324594 0 7966.78129816 0 107.34098512 0 -501.56967089 0 8932
0.09150000 0.09150830 19297.17986368 0 60.11408735 0 8269.53187568 0 732.41324934 0 540.41027912 0 9285
0.09250000 0.09250820 19074.62613483 0 221.58379320 0 8043.41285823 0 609.15280776 0 471.86815956 0 9204
0.09350000 0.09350330 19348.22328110 0 -129.73000097 0 8416.89344669 0 993.83637447 0 1264.83595333 0 9349
0.09450000 0.09448040 19012.84256234 0 -2.90139200 0 7686.88399907 0 1467.86917353 0 733.65999311 0 9564
0.09550000 0.09549270 18901.89786766 0 428.43253653 0 7028.76715650 0 912.98847311 0 1339.88417095 0 10155
0.09650000 0.09649430 18667.82892099 0 274.95129159 0 7020.93902285 0 471.07538111 0 1090.84876283 0 9913
0.09750000 0.09749140 18181.08952196 0 415.12581657 0 6476.25814805 0 323.81678272 0 1486.03885856 0 10476
0.09850000 0.09850240 18044.45703370 0 508.09348467 0 6341.26436386 0 140.64399154 0 1412.09787342 0 10575
0.09950000 0.09950330 17478.99340521 0 7.90530775 0 6037.37333689 0 606.87301608 0 2171.29396926 0 10882
0.10050000 0.10051200 17468.25325014 0 332.39561999 0 6303.71811040 0 421.90097212 0 1783.17576739 0 10875
0.10150000 0.10150300 17547.75254234 0 547.95163956 0 7013.29911873 0 -163.01894554 0 2181.69088227 0 11118
0.10250000 0.10250800 16656.09822469 0 688.59784556 0 7319.30495974 0 -340.96559940 0 2883.23338278 0 11575
0.10350000 0.10349800 16465.65423781 0 759.15623547 0 8320.42028054 0 -43.74753042 0 4089.25314667 0 11364
0.10450000 0.10450100 16064.94680262 0 173.10915514 0 8536.23096359 0 106.53336975 0 3801.32841209 0 12093
0.10550000 0.10551000 16034.71935587 0 149.38891369 0 8655.67920373 0 126.95749084 0 3645.02040262 0 12067
0.10650000 0.10649700 16121.19421270 0 -65.54240532 0 8881.62106398 0 191.67633663 0 3226.79654957 0 12054
0.10750000 0.10749900 16108.90393215 0 -4.27678511 0 8041.36447814 0 780.65093964 0 3035.05710069 0 12807
0.10850000 0.10850100 15986.99763590 0 71.35006113 0 7188.55187596 0 487.50781837 0 1972.57895574 0 12736
0.10950000 0.10950300 15779.05937580 0 29.19340234 0 6735.00730674 0 215.30467780 0 1219.01867323 0 12933
0.11050000 0.11050200 15881.58910363 0 153.44027734 0 6826.97403668 0 -130.14964208 0 658.35046862 0 13428
0.11150000 0.11150900 15649.51317543 0 188.19076878 0 6731.29807792 0 -292.81538046 0 328.03423124 0 13453
0.11250000 0.11250000 15651.83836364 0 34.78071889 0 6346.04760818 0 -61.64040733 0 765.52835840 0 13668
0.11350000 0.11349100 15761.67582584 0 -96.80622168 0 6264.54422519 0 111.47063011 0 470.64466767 0 13791
0.11450000 0.11448600 15686.49474032 0 111.52709897 0 6474.51979305 0 201.47977303 0 1046.10881994 0 14205
0.11550000 0.11549300 16018.66448488 0 58.22348789 0 6424.47288487 0 311.97603856 0 352.55057285 0 14776
0.11650000 0.11649800 15506.23729227 0 310.19893042 0 6246.47419109 0 731.70129885 0 937.87905930 0 14553
0.11750000 0.11747300 15464.82679745 0 537.34767408 0 5863.23888447 0 333.72319173 0 353.47954091 0 14568
0.11850000 0.11849100 14636.17400802 0 440.83132586 0 5444.32854728 0 987.99683036 0 911.33094608 0 16015
0.11950000 0.11950300 14309.09753288 0 191.47371309 0 5255.96615746 0 936.60906364 0 1087.98656686 0 15270
0.12050000 0.12050700 14142.68049086 0 157.70201516 0 4430.60184851 0 1414.79952068 0 752.16184788 0 15999
0.12150000 0.12150000 13882.37013437 0 190.69865035 0 4129.70034923 0 534.59398689 0 1029.22352459 0 15670
0.12250000 0.12250700 13640.43983708 0 194.67250773 0 3842.74997923 0 332.25500146 0 1209.96151153 0 16887
0.12350000 0.12352200 13457.74647758 0 251.54661139 0 4024.67934833 0 -379.13522474 0 1350.86791717 0 16407
0.12450000 0.12449800 13178.28099915 0 306.58824530 0 3726.13625424 0 234.45094187 0 1153.92447562 0 16306
0.12550000 0.12549900 13290.88654256 0 -104.42088090 0 3804.60582023 0 394.19358650 0 1389.08958245 0 17523
0.12650000 0.12650100 13347.35539913 0 -207.83196578 0 3831.55585884 0 -177.97876360 0 845.58348131 0 17154
0.12750000 0.12750600 13398.28809330 0 -21.91445600 0 3717.28946671 0 246.92391578 0 905.43604035 0 18007
0.12850000 0.12850300 13403.60280921 0 143.26591806 0 3846.82459477 0 -74.40225819 0 1152.24148225 0 17496
0.12950000 0.12949900 13589.39641967 0 168.65032994 0 3370.23851760 0 -255.38870810 0 1112.77971660 0 18405
0.13050000 0.13049000 13418.99334071 0 153.59750435 0 4210.36223554 0 -394.15704782 0 443.86514286 0 18100
0.13150000 0.13148800 13008.32081319 0 546.98945453 0 4112.49395647 0 -310.81012275 0 650.95637011 0 19059
0.13250000 0.13249300 12729.40895100 0 413.96986585 0 4257.02101232 0 -95.72024806 0 101.75488653 0 18957
0.13350000 0.13349100 12323.60824640 0 428.24319978 0 4094.53464561 0 -92.29646378 0 347.64996189 0 19468
0.13450000 0.13450700 12223.95732303 0 205.68725646 0 4624.53361770 0 33.19106522 0 -446.81702466 0 19953
0.13550000 0.13551000 11736.22141477 0 203.28456197 0 4054.37532349 0 297.07822551 0 -322.55564492 0 19956
0.13650000 0.13649900 11530.94051263 0 222.77406812 0 3751.22614228 0 550.18935640 0 -521.37916722 0 19723
0.13750000 0.13749600 11473.80731657 0 -58.97474513 0 3285.19199067 0 716.25319126 0 -356.66061983 0 20946
0.13850000 0.13851100 11502.92753084 0 -76.49946723 0 3263.06948568 0 595.57703030 0 -626.83198880 0 20955
0.13950000 0.13949800 11523.96494800 0 180.17883454 0 3055.57411858 0 51.42253382 0 -573.88634598 0 20506
0.14050000 0.14048300 11231.76629603 0 361.27002865 0 3217.36292883 0 -363.32505213 0 -266.28166126 0 21447
0.14150000 0.14148400 11085.16871544 0 372.44311162 0 3459.49252796 0 -275.42186540 0 437.02133889 0 21771
0.14250000 0.14249400 10932.73601966 0 123.17629191 0 3759.85148332 0 24.50216904 0 594.30592741 0 22470
0.14350000 0.14350900 10970.21583917 0 -56.71189410 0 3945.32399635 0 259.46664534 0 514.20430074 0 22519
0.14450000 0.14449900 11026.70684039 0 -62.44104714 0 3931.42822871 0 293.48857781 0 769.75687925 0 22218
0.14550000 0.14550500 10966.30730851 0 165.29652275 0 3780.56780305 0 196.54815955 0 629.14056852 0 23559
0.14650000 0.14650700 10927.65382257 0 72.09246051 0 3721.10941878 0 -285.21312224 0 419.21150442 0 23044
0.14750000 0.14750500 10653.33697518 0 275.33993020 0 3736.51102260 0 -77.76270877 0 350.99048229 0 23649
0.14850000 0.14849900 10367.05094467 0 271.19555902 0 3433.37291371 0 105.77746214 0 77.07146353 0 23640
0.14950000 0.14949500 10285.38147681 0 111.30786694 0 3442.46329239 0 448.31400298 0 293.08000902 0 24457
0.15050000 0.15050000 10227.89396635 0 -3.21279006 0 2991.96361249 0 539.85666288 0 13.52063728 0 24591
0.15150000 0.15149900 10067.01308674 0 11.36153394 0 2822.62347672 0 657.98840360 0 284.92745626 0 25020
0.15250000 0.15250500 10017.37585458 0 248.47847019 0 2694.59418484 0 175.15753524 0 100.49607392 0 25297
0.15350000 0.15350100 9789.15309541 0 242.41969404 0 2650.49311509 0 -310.61635707 0 104.94393752 0 25452
0.15450000 0.15450400 9683.41239340 0 316.43929269 0 3092.09064583 0 -334.26905735 0 506.14918443 0 26061
0.15550000 0.15549900 9520.56063996 0 108.12069824 0 3071.75078514 0 -467.40822713 0 843.53177952 0 26128
0.15650000 0.15649500 9482.07323889 0 -9.85478984 0 3058.81830975 0 479.10503107 0 1013.44103279 0 26331
0.15750000 0.15749700 9558.17332737 0 -92.86336681 0 2794.87623072 0 437.37233159 0 780.68194215 0 27345
0.15850000 0.15849900 9544.98618851 0 124.12408291 0 2639.35435632 0 711.66814156 0 251.79684593 0 26980
0.15950000 0.15949700 9194.62461428 0 386.52046540 0 2459.70588614 0 261.58478107 0 379.36885080 0 27777
0.16050000 0.16050000 8965.40534588 0 187.62608021 0 2349.29266305 0 -35.04235793 0 415.95070476 0 28224
0.16150000 0.16150500 8784.60535392 0 130.86159257 0 2194.91123810 0 -128.52090310 0 313.65238853 0 28075
0.16250000 0.16249700 8745.11037129 0 74.43890759 0 2680.06729468 0 -131.54475501 0 371.89281708 0 28590
0.16350000 0.16349900 8821.91908856 0 39.41747635 0 2501.09423631 0 -502.31040942 0 57.88766428 0 29163
0.16450000 0.16449100 8620.02631781 0 260.45208224 0 2880.33243367 0 -187.06249888 0 212.79790346 0 28996
0.16550000 0.16550500 8648.29396307 0 83.32378391 0 2863.14818555 0 -132.77710476 0 319.01139374 0 30777
0.16650000 0.16650700 8511.49538994 0 61.98442446 0 2997.78765535 0 -8.95495307 0 111.26136317 0 29211
0.16750000 0.16749900 8494.95333666 0 121.36707403 0 3102.06681049 0 347.06091421 0 102.53958219 0 30922
0.16850000 0.16850800 8337.53809471 0 112.94767824 0 2674.29861345 0 339.92590809 0 -10.15910161 0 30867
0.16950000 0.16949900 8361.28823145 0 76.55781839 0 2668.70708941 0 163.07541439 0 -142.76323451 0 30852
0.17050000 0.17049200 8359.10698346 0 -21.51064832 0 2436.98547561 0 198.82462954 0 -169.03786131 0 31257
0.17150000 0.17149500 8220.18252396 0 79.60204337 0 2167.44080022 0 245.22985008 0 -109.02862887 0 32608
0.17250000 0.17250900 8208.01403899 0 6.96299755 0 2198.87513038 0 108.35720310 0 -335.31428481 0 32361
0.17350000 0.17350400 8185.07218196 0 104.46982058 0 1990.84829169 0 105.26204542 0 -83.07808903 0 32508
0.17450000 0.17449800 8138.12552473 0 178.52020028 0 2030.60901012 0 226.00275804 0 -7.69839922 0 32791
0.17550000 0.17549800 7874.21666268 0 176.33120167 0 2080.52305040 0 50.42458518 0 182.21171338 0 33633
0.17650000 0.17650100 7864.51730614 0 187.29501770 0 2205.55174225 0 55.77650410 0 448.21767375 0 33984
0.17750000 0.17750300 7712.53857568 0 119.15039461 0 2285.12854072 0 -20.80312676 0 330.56093576 0 34069
0.17850000 0.17849800 7589.61362554 0 110.71405816 0 2406.38156981 0 -126.74933113 0 539.98953078 0 34536
