### header ###
fiducial parameters:
Omega_m = 0.31
Omega_nu = 0
Omega_de = 0.69
Omega_k = 0
H_0 = 100
w_de = -1
zeff = 0
beta = 0
fgrowth = 0
b_1 = 2
gamma = 0.55
Lx = 3500 Ly = 3500 Lz = 3500
nx = 700 ny = 700 nz = 700
xoffset = -685.467585 yoffset = -31.7331281 zoffset = 572.489161
bins = 400 dk = 0.001
kx_ny = 0.628318531 ky_ny = 0.628318531 kz_ny = 0.628318531
############################
A(data) = 8.00726831 (not used)
A(ran) = 8.01015096 (used)
Ngal = 476272
weighted Ngal = 0
Nran = 23820508
weighted Nran = 0
SN(data) = 3483.13362
SN(ran) = 69.7713199
SN(data+ran) = 3552.90494
############################
13 columns: k_central k_mean P_0(k) sigma^{lin}_{P_0(k)} P^img_1(k) sigma^{lin}_{P_1(k)} P_2(k) sigma^{lin}_{P_2(k)} P^img_3(k) sigma^{lin}_{P_3(k)} P_4(k) sigma^{lin}_{P_4(k)} N_modes
### header ###
0.00050000 0 0 0 0 0 0 0 0 0 0 0 0
0.00150000 0.00179520 7856.68917249 0 -21532.46079807 0 -16329.24319604 0 -15858.89083775 0 -20495.98047180 0 3
0.00250000 0.00253879 15153.14085381 0 -21345.55995513 0 3729.35830077 0 5740.61288710 0 23127.65063469 0 6
0.00350000 0.00331552 29132.39383034 0 -7522.92501316 0 25090.10948555 0 -35848.86606533 0 -28769.11085304 0 7
0.00450000 0.00420575 39142.66125238 0 5397.04972030 0 27978.87903073 0 -7588.32923586 0 19767.97511497 0 24
0.00550000 0.00557378 38034.87515428 0 -4682.38651488 0 7840.08068526 0 31767.27496743 0 22087.62716448 0 45
0.00650000 0.00659388 36362.17904392 0 -3110.10531831 0 18756.18607304 0 9298.57159967 0 12411.85467521 0 40
0.00750000 0.00754703 77305.97537455 0 -19857.99311575 0 1404.13687188 0 38187.34106703 0 -64231.66350545 0 57
0.00850000 0.00846663 66120.04850327 0 -5924.39133444 0 13521.41234528 0 -398.58929945 0 806.92113751 0 75
0.00950000 0.00948925 62973.73668280 0 24841.97868636 0 -14864.70679228 0 -22250.16889281 0 -29229.71956550 0 112
0.01050000 0.01054430 57029.66982716 0 -1582.77776050 0 10155.87956573 0 -1387.05227468 0 -3273.61033891 0 105
0.01150000 0.01145670 56711.89410487 0 -10458.80730045 0 3421.02727154 0 -2206.44860056 0 291.40698074 0 144
0.01250000 0.01249090 66724.59743837 0 -11234.97727023 0 573.33383697 0 12908.33772007 0 -19498.69617538 0 169
0.01350000 0.01339930 80971.35778252 0 -7518.17498581 0 -8308.08571070 0 4547.12699490 0 -4109.94732176 0 180
0.01450000 0.01448870 76435.80136706 0 5044.03078811 0 1958.11849953 0 -5421.17631608 0 -2255.20004674 0 267
0.01550000 0.01550050 76255.43319576 0 525.04189227 0 7895.87413002 0 13483.65571765 0 17157.01019949 0 238
0.01650000 0.01653350 78939.36473180 0 -4494.20128226 0 10161.92505508 0 -3426.03196236 0 1536.70581693 0 315
0.01750000 0.01747870 84108.47957339 0 -6841.63379474 0 18134.58575772 0 2932.33914335 0 19.34490158 0 297
0.01850000 0.01844180 84428.24831415 0 1566.97755298 0 14276.43417467 0 -9735.30837982 0 -14170.36130290 0 388
0.01950000 0.01947590 85758.47741786 0 6544.25329476 0 25890.52784669 0 -18293.58434212 0 1721.70222000 0 399
0.02050000 0.02045430 82066.85360008 0 6177.05071448 0 20051.86952332 0 206.29069816 0 -9288.04181877 0 462
0.02150000 0.02154770 81586.53614944 0 -511.65877326 0 29249.64975017 0 -8362.97122482 0 -19238.27509565 0 571
0.02250000 0.02255340 79142.43116898 0 -2238.10437722 0 30180.27865118 0 4958.64101911 0 -28767.11783457 0 510
0.02350000 0.02348930 81003.91041749 0 2673.06958539 0 35457.45938299 0 -9872.99273894 0 -24446.91813683 0 555
0.02450000 0.02439640 77923.25748319 0 7401.26230805 0 38504.67389633 0 -5219.93681250 0 -15297.30252295 0 592
0.02550000 0.02547300 77755.62248544 0 1183.76439101 0 42971.02828168 0 -3469.21402915 0 -11729.57801988 0 837
0.02650000 0.02652900 73381.27911934 0 1417.50116793 0 45772.99080028 0 9762.19198448 0 1326.32057305 0 723
0.02750000 0.02749970 77990.02360185 0 3425.54478007 0 45637.35482126 0 8315.27164950 0 -2012.40610811 0 826
0.02850000 0.02848090 68462.95243489 0 7721.99434107 0 45142.31117861 0 17650.94660965 0 9015.64048358 0 831
0.02950000 0.02946900 67681.13557945 0 5945.36231765 0 41472.38911747 0 10660.35682912 0 10013.47839624 0 996
0.03050000 0.03053250 59155.99908533 0 4085.69893041 0 35453.03045306 0 11483.88313216 0 9646.02115248 0 1041
0.03150000 0.03150510 57578.74641492 0 2111.41483664 0 35937.88755687 0 5115.51371714 0 8246.52358471 0 1036
0.03250000 0.03246190 55465.03960704 0 869.65028653 0 30060.91898963 0 7663.85356345 0 4272.44476080 0 1059
0.03350000 0.03345080 53312.13676930 0 721.51918895 0 25365.36748054 0 6394.61082484 0 4579.63534057 0 1302
0.03450000 0.03451200 52965.57300248 0 382.79462810 0 23855.76671477 0 1287.44564061 0 5028.02020642 0 1339
0.03550000 0.03553350 54956.37700487 0 1150.33704238 0 21246.68409450 0 3761.88879108 0 7290.51691521 0 1365
0.03650000 0.03647120 52078.56906125 0 1171.07550677 0 21005.08596696 0 9509.23365167 0 5557.93059992 0 1308
0.03750000 0.03744890 52002.61291300 0 1526.89573714 0 18988.81561748 0 5806.77002789 0 12348.96387024 0 1579
0.03850000 0.03847530 51190.79005730 0 93.28367226 0 17677.96308220 0 5762.68003046 0 7538.65878672 0 1662
0.03950000 0.03950240 50517.70343157 0 52.46942213 0 21022.80168667 0 -2681.86101130 0 7251.57554883 0 1683
0.04050000 0.04050350 51589.61519726 0 3467.68604833 0 25504.43588026 0 -5629.22529942 0 12512.50210781 0 1822
0.04150000 0.04152450 47884.48314320 0 3014.08611748 0 25749.24498200 0 -3785.83822967 0 8610.45982917 0 1887
0.04250000 0.04250150 48535.97873553 0 479.45713099 0 31681.24300359 0 -1911.73653086 0 12206.46304982 0 1920
0.04350000 0.04349210 47661.04362836 0 -359.25597276 0 28747.07692665 0 2649.90628187 0 5755.50516398 0 2005
0.04450000 0.04448520 48436.65998191 0 -797.79754186 0 26984.69498527 0 7839.26133323 0 2841.73430936 0 2151
0.04550000 0.04548030 48169.26333754 0 -1891.15307902 0 19901.95024528 0 3957.49248133 0 -4393.55384966 0 2274
0.04650000 0.04648670 46950.53254475 0 1189.87631431 0 19146.70696940 0 1022.62109730 0 -9296.22426681 0 2311
0.04750000 0.04749250 45307.39954166 0 3850.60025753 0 15800.98257895 0 -2712.46491710 0 -9776.25383700 0 2568
0.04850000 0.04851840 41709.33686859 0 5254.19458549 0 15302.28506911 0 -3284.66051908 0 -6932.77010032 0 2493
0.04950000 0.04949480 38848.02668896 0 1895.05053736 0 13774.85786038 0 -820.37069046 0 -8171.17641431 0 2644
0.05050000 0.05050630 38024.35644570 0 -419.52042229 0 17162.10346890 0 2874.50839082 0 -8440.04567789 0 2829
0.05150000 0.05149060 38361.73018292 0 -550.25911205 0 16406.19585353 0 3131.28667569 0 -9675.71712765 0 2784
0.05250000 0.05249300 37537.72776992 0 878.70301931 0 14283.85263229 0 2763.94015518 0 -8572.01671740 0 3055
0.05350000 0.05348950 38018.15594380 0 267.15194599 0 16696.84438002 0 1000.05016316 0 -3777.87722812 0 3009
0.05450000 0.05448610 36916.23817785 0 704.61507065 0 14234.35934036 0 1119.67777496 0 -3702.04287544 0 3336
0.05550000 0.05550870 36213.58844486 0 2230.60841331 0 15134.20717837 0 81.79978913 0 -2777.26016194 0 3349
0.05650000 0.05647670 34616.07342002 0 588.24272234 0 11915.15018384 0 3221.59255691 0 -1704.62869513 0 3324
0.05750000 0.05747970 33892.05410013 0 -49.07354011 0 11572.35100746 0 3694.89015361 0 -4143.89506965 0 3639
0.05850000 0.05849280 34001.78083908 0 417.33474537 0 10511.38977101 0 2538.93944254 0 -5285.99430237 0 3846
0.05950000 0.05951020 33471.52720352 0 593.34484961 0 10419.21266689 0 -637.09935560 0 -3513.45903913 0 3787
0.06050000 0.06049470 31860.06104941 0 1111.15208485 0 9356.00374851 0 909.90704511 0 -1524.08336664 0 3930
0.06150000 0.06148310 32624.60507814 0 499.70952032 0 10665.15114577 0 -1186.82035266 0 -2921.96437499 0 4083
0.06250000 0.06249100 31761.51735853 0 598.18899172 0 11414.23820905 0 -49.74153346 0 -1860.71525810 0 4303
0.06350000 0.06350600 31846.22064339 0 891.85029779 0 11216.70793428 0 -966.26185674 0 -3824.15954586 0 4470
0.06450000 0.06451750 30315.47173721 0 259.27287965 0 10788.04287893 0 -287.47630543 0 -2420.18875886 0 4479
0.06550000 0.06550280 29927.38675232 0 1176.53416290 0 10761.54680564 0 1145.27698994 0 -4189.07015491 0 4636
0.06650000 0.06648880 30888.13237683 0 -680.40653966 0 9188.65663120 0 1848.60213475 0 -7044.42342379 0 4653
0.06750000 0.06749660 29918.41816922 0 -934.62822473 0 7248.57494880 0 735.62643800 0 -6840.02830764 0 5220
0.06850000 0.06852730 31200.26121347 0 451.50283252 0 7250.62332889 0 -34.53435966 0 -7683.09726398 0 5029
0.06950000 0.06949320 30175.07465851 0 846.03301770 0 7087.51691199 0 833.93761006 0 -8061.25037351 0 5040
0.07050000 0.07048030 29880.44009509 0 620.34803538 0 7467.47481047 0 -124.20269642 0 -4352.51981389 0 5475
0.07150000 0.07148790 28972.28801346 0 487.32955394 0 6569.44283372 0 523.24485395 0 -3161.09337410 0 5509
0.07250000 0.07249820 29018.12743821 0 657.36835341 0 9095.37229460 0 1902.91188798 0 -2075.85052932 0 5916
0.07350000 0.07351270 27946.88001201 0 784.57386432 0 8549.57311499 0 876.39222512 0 -1471.13550935 0 5721
0.07450000 0.07449140 27136.49655853 0 1498.50629631 0 8813.23838590 0 585.99061147 0 478.64331512 0 6028
0.07550000 0.07549160 26613.43993410 0 799.09964725 0 9543.08174864 0 -672.75002705 0 299.21075527 0 6183
0.07650000 0.07648840 25341.34053568 0 571.97194102 0 9490.45498878 0 -1169.48109200 0 1443.54327591 0 6330
0.07750000 0.07749960 25247.22577473 0 327.23702385 0 9818.84907058 0 1201.57976164 0 711.83090473 0 6583
0.07850000 0.07848650 24999.75931503 0 127.44688759 0 10202.99230784 0 64.01630679 0 935.17962651 0 6549
0.07950000 0.07947320 24295.44873331 0 809.49988196 0 8947.41281805 0 2485.81442806 0 -864.51826398 0 6828
0.08050000 0.08048110 23991.73486354 0 758.08332720 0 8145.43325911 0 744.69245756 0 -51.55141568 0 7147
0.08150000 0.08149960 23423.50315385 0 141.38473007 0 7281.64798303 0 1225.51812790 0 -872.65642272 0 7386
0.08250000 0.08250610 23197.18483455 0 -3.69886512 0 6767.44921846 0 -119.74608568 0 -577.77162476 0 7227
0.08350000 0.08350160 23049.81219122 0 108.78680930 0 7213.13243706 0 401.76262774 0 -1322.58919959 0 7798
0.08450000 0.08449610 23045.82615428 0 293.72995449 0 6865.88218609 0 -281.91135498 0 -2777.24908961 0 7371
0.08550000 0.08548940 22605.47979624 0 840.73933920 0 6790.25820758 0 -807.72941722 0 -1817.05708134 0 8256
0.08650000 0.08650700 21796.09285200 0 587.19749487 0 6616.21233376 0 -440.02193892 0 -3389.02825282 0 8037
0.08750000 0.08749060 22043.78075819 0 441.08931103 0 6994.01112890 0 -763.28842709 0 -3575.78515553 0 8155
0.08850000 0.08849210 21225.86812384 0 316.00747202 0 7271.95969882 0 -563.87142818 0 -3569.44071341 0 8718
0.08950000 0.08949900 21329.94797714 0 400.13499599 0 7531.39534164 0 -192.14026704 0 -2361.21755688 0 8571
0.09050000 0.09049190 20997.99967907 0 361.20138023 0 7841.88547421 0 659.07349144 0 -1351.53225666 0 8932
0.09150000 0.09150830 20819.95669599 0 253.51527075 0 7357.42697409 0 1534.56885824 0 -852.79377923 0 9285
0.09250000 0.09250820 20405.96247102 0 232.29073130 0 7255.20727137 0 850.09213197 0 -1054.43963713 0 9204
0.09350000 0.09350330 20256.92897896 0 683.82124464 0 7578.50808375 0 1483.02718621 0 305.28281820 0 9349
0.09450000 0.09448040 19573.32364466 0 267.80078423 0 7667.98354061 0 -94.24951115 0 104.75581873 0 9564
0.09550000 0.09549270 19752.69530672 0 270.42381798 0 8666.16469533 0 -50.43499317 0 952.96399463 0 10155
0.09650000 0.09649430 19476.33007925 0 261.85494580 0 8159.74977510 0 -159.67731791 0 578.08497155 0 9913
0.09750000 0.09749140 18725.07284030 0 693.11313962 0 8323.13300013 0 -20.81497415 0 1105.58824163 0 10476
0.09850000 0.09850240 18690.41646362 0 176.52718182 0 7233.93733539 0 475.48880978 0 296.88778152 0 10575
0.09950000 0.09950330 18374.30159005 0 31.57085193 0 7831.23389773 0 616.32878147 0 551.62543693 0 10882
0.10050000 0.10051200 18135.25009721 0 316.47250966 0 6874.88398617 0 886.92975665 0 114.26749936 0 10875
0.10150000 0.10150300 18029.06650220 0 322.35191414 0 6522.19722372 0 1079.49630819 0 927.89957294 0 11118
0.10250000 0.10250800 17758.56960688 0 19.64208278 0 5207.97870170 0 834.40818387 0 -81.08042018 0 11575
0.10350000 0.10349800 17447.32655623 0 290.59205763 0 6007.27875803 0 -128.24409498 0 -153.65950937 0 11364
0.10450000 0.10450100 17276.14841453 0 592.54432053 0 5906.83062728 0 -569.32122646 0 -932.59534590 0 12093
0.10550000 0.10551000 16667.17054951 0 506.56439662 0 6479.67949642 0 -414.32528748 0 15.30870702 0 12067
0.10650000 0.10649700 16562.64780322 0 436.55297955 0 6866.22542816 0 -501.25078794 0 433.87679865 0 12054
0.10750000 0.10749900 16375.19334404 0 245.98830433 0 6928.87264199 0 635.00004281 0 490.11424363 0 12807
0.10850000 0.10850100 16008.58866930 0 157.15393508 0 6754.93749141 0 920.80996336 0 467.34954381 0 12736
0.10950000 0.10950300 16249.74390385 0 191.64533412 0 6609.67966212 0 499.29320091 0 885.60107767 0 12933
0.11050000 0.11050200 15415.66567526 0 276.76493840 0 6500.65047963 0 942.27255779 0 844.63679754 0 13428
0.11150000 0.11150900 15666.12166265 0 188.90825543 0 6120.16110956 0 684.81664664 0 607.65915114 0 13453
0.11250000 0.11250000 15270.95038988 0 50.20070277 0 5561.31873131 0 -89.33782786 0 443.62708788 0 13668
0.11350000 0.11349100 15189.12590947 0 155.20963484 0 5598.35565783 0 -324.01608456 0 -188.75102842 0 13791
0.11450000 0.11448600 14850.97710951 0 204.03526560 0 5274.67838641 0 139.35849463 0 149.13314298 0 14205
0.11550000 0.11549300 14847.32324232 0 354.27121213 0 5075.68656477 0 -110.43193532 0 -100.03480087 0 14776
0.11650000 0.11649800 14616.02237685 0 513.36723298 0 5158.19752931 0 529.01907135 0 84.98230745 0 14553
0.11750000 0.11747300 14165.71092648 0 276.19249921 0 5026.47008095 0 348.51581769 0 -32.24017396 0 14568
0.11850000 0.11849100 13821.36162462 0 302.45162475 0 4875.89753574 0 591.27653934 0 302.41176438 0 16015
0.11950000 0.11950300 13599.25078876 0 370.67486135 0 4948.54305887 0 357.41685961 0 581.94921291 0 15270
0.12050000 0.12050700 13360.42074242 0 273.20075704 0 4642.08325254 0 293.64469759 0 455.68484961 0 15999
0.12150000 0.12150000 13151.26452660 0 167.25632425 0 4613.06268919 0 223.67867706 0 703.73482082 0 15670
0.12250000 0.12250700 13304.50550209 0 -347.16610129 0 4283.52815794 0 287.25264447 0 619.90514239 0 16887
0.12350000 0.12352200 13430.50855852 0 -224.17250274 0 4345.20100718 0 110.19022647 0 322.88117127 0 16407
0.12450000 0.12449800 13670.44583734 0 10.06434466 0 3848.97262578 0 192.23770350 0 -229.54922368 0 16306
0.12550000 0.12549900 13680.85382267 0 -48.81633000 0 3647.56703733 0 532.76040990 0 -358.20188744 0 17523
0.12650000 0.12650100 13582.97447127 0 154.89407359 0 3610.65190639 0 -122.34254585 0 -333.70990494 0 17154
0.12750000 0.12750600 13319.56386384 0 495.14661526 0 3646.99127644 0 -184.72734558 0 -664.16454639 0 18007
0.12850000 0.12850300 13089.03806111 0 242.33332991 0 3578.36500721 0 -208.16192106 0 -178.90883888 0 17496
0.12950000 0.12949900 12922.17812610 0 210.64987244 0 4077.47219307 0 -361.16041263 0 -420.35859727 0 18405
0.13050000 0.13049000 12775.02692926 0 15.80430428 0 4233.06050142 0 -106.52395828 0 -355.49359679 0 18100
0.13150000 0.13148800 12798.38953463 0 -30.74264203 0 4688.24377471 0 41.28128079 0 -748.38729235 0 19059
0.13250000 0.13249300 12844.78257562 0 125.15713082 0 4217.49281272 0 85.71241655 0 -137.15067306 0 18957
0.13350000 0.13349100 12831.82795558 0 302.34533043 0 4412.16642768 0 353.37878275 0 -185.22117126 0 19468
0.13450000 0.13450700 12580.92907519 0 94.14598491 0 4077.68256724 0 826.76606528 0 -10.54510500 0 19953
0.13550000 0.13551000 12454.26167926 0 181.50751352 0 3646.91377017 0 468.04599304 0 106.26995914 0 19956
0.13650000 0.13649900 12197.49446672 0 353.04661300 0 3643.39277087 0 199.42917847 0 -213.05921032 0 19723
0.13750000 0.13749600 11953.01753472 0 355.24004055 0 3672.59049142 0 -143.63019755 0 -148.93494837 0 20946
0.13850000 0.13851100 11351.12595758 0 478.65549468 0 3745.72319685 0 -260.71449634 0 -33.18519688 0 20955
0.13950000 0.13949800 11204.19620724 0 393.36205490 0 3713.69096115 0 -231.97738451 0 -166.85107716 0 20506
0.14050000 0.14048300 11109.52783004 0 -201.10442122 0 3530.03430938 0 259.88628645 0 -78.69422346 0 21447
0.14150000 0.14148400 11343.15388371 0 -275.29453366 0 3417.62806782 0 532.56885868 0 -135.97589940 0 21771
0.14250000 0.14249400 11506.47067479 0 -115.95049273 0 3198.29638549 0 608.98118672 0 -40.10152458 0 22470
0.14350000 0.14350900 11559.50711067 0 114.71260682 0 3328.05296004 0 139.10604563 0 -77.81773823 0 22519
0.14450000 0.14449900 11419.11003197 0 265.76790539 0 3100.52775734 0 34.00355241 0 347.22035569 0 22218
0.14550000 0.14550500 11218.92239925 0 80.55016655 0 3203.74396930 0 217.93214048 0 345.09225486 0 23559
0.14650000 0.14650700 11217.92589001 0 95.14570512 0 3371.68899215 0 221.01689017 0 669.94762164 0 23044
0.14750000 0.14750500 10930.13402333 0 341.91781933 0 3195.20720687 0 78.92928892 0 396.68153788 0 23649
0.14850000 0.14849900 10818.90144820 0 219.70703414 0 3112.26442165 0 231.19014221 0 712.24390245 0 23640
0.14950000 0.14949500 10403.66712285 0 402.68052347 0 3024.78198326 0 336.52116821 0 720.14068451 0 24457
0.15050000 0.15050000 10209.87929387 0 239.18989689 0 2725.67420061 0 235.98888779 0 410.98698155 0 24591
0.15150000 0.15149900 9914.90148838 0 186.84658855 0 2728.87410248 0 175.17192926 0 344.60507256 0 25020
0.15250000 0.15250500 9750.68783899 0 223.52920067 0 2815.26038071 0 -110.77971704 0 25.76463551 0 25297
0.15350000 0.15350100 9640.93895539 0 156.82508703 0 2770.14065708 0 -199.72148785 0 113.10047633 0 25452
0.15450000 0.15450400 9522.19934404 0 120.84335307 0 2746.52338824 0 -175.96692218 0 -166.54548099 0 26061
0.15550000 0.15549900 9464.66754428 0 191.38845619 0 3142.07112006 0 -115.61278683 0 131.29784216 0 26128
0.15650000 0.15649500 9396.79419314 0 165.05957500 0 3006.61229823 0 -22.42234354 0 -130.12971190 0 26331
0.15750000 0.15749700 9112.66726597 0 205.35619395 0 3041.51226606 0 171.23793225 0 83.93719071 0 27345
0.15850000 0.15849900 9094.40900234 0 69.79572817 0 2816.37868552 0 243.03420807 0 150.55150779 0 26980
0.15950000 0.15949700 9068.00150765 0 -57.91169122 0 2737.54373281 0 561.65142705 0 31.45758204 0 27777
0.16050000 0.16050000 9139.93840200 0 -16.89061006 0 2606.54705788 0 102.40549634 0 -284.04942090 0 28224
0.16150000 0.16150500 9126.28622550 0 66.10177917 0 2411.27553738 0 -176.46628403 0 -265.39366081 0 28075
0.16250000 0.16249700 9017.97674412 0 174.92280195 0 2616.32392070 0 -218.36396114 0 -229.60237083 0 28590
0.16350000 0.16349900 8944.47865197 0 173.39482112 0 2586.90475365 0 -313.81958064 0 -665.84975422 0 29163
0.16450000 0.16449100 8840.55381123 0 202.84166898 0 2941.94992129 0 -74.65647877 0 -616.74731535 0 28996
0.16550000 0.16550500 8562.09591436 0 306.71446980 0 2738.67310994 0 -7.61800307 0 -346.45636527 0 30777
0.16650000 0.16650700 8444.40817386 0 126.98849335 0 2724.79948695 0 158.40953672 0 -207.40457404 0 29211
0.16750000 0.16749900 8417.52456920 0 -139.21455441 0 2612.89150000 0 420.63651263 0 152.10274050 0 30922
0.16850000 0.16850800 8487.26914324 0 -72.37535841 0 2427.61828881 0 491.08417929 0 -206.72694776 0 30867
0.16950000 0.16949900 8550.95715559 0 -89.51742097 0 2157.46463556 0 321.86251739 0 -563.17940788 0 30852
0.17050000 0.17049200 8484.29068786 0 178.00201548 0 2175.98863498 0 -172.42709994 0 -289.18476515 0 31257
0.17150000 0.17149500 8350.07196641 0 348.21022152 0 2165.32598618 0 -366.77851025 0 -203.22809312 0 32608
0.17250000 0.17250900 8151.37909754 0 180.58297440 0 2388.11223386 0 -26.34471461 0 36.13862881 0 32361
0.17350000 0.17350400 7989.20275592 0 27.19529060 0 2281.78469863 0 194.55292662 0 -90.06793696 0 32508
0.17450000 0.17449800 8052.83540665 0 -6.29335441 0 2455.56483666 0 459.07519547 0 -191.19801220 0 32791
0.17550000 0.17549800 8101.67543143 0 31.37841492 0 2297.23059175 0 274.16626376 0 103.97809863 0 33633
0.17650000 0.17650100 8044.65295861 0 53.97315456 0 2265.39765790 0 92.25793209 0 -69.64680540 0 33984
0.17750000 0.17750300 8049.28119039 0 94.94817485 0 2135.34213058 0 -108.97038844 0 251.30744918 0 34069
0.17850000 0.17849800 7975.18519270 0 165.08393412 0 2376.74095627 0 -155.05462230 0 284.29411928 0 34536
