### header ###
fiducial parameters:
Omega_m = 0.31
Omega_nu = 0
Omega_de = 0.69
Omega_k = 0
H_0 = 100
w_de = -1
zeff = 0
beta = 0
fgrowth = 0
b_1 = 2
gamma = 0.55
Lx = 3500 Ly = 3500 Lz = 3500
nx = 700 ny = 700 nz = 700
xoffset = -685.467585 yoffset = -31.7331281 zoffset = 572.489161
bins = 400 dk = 0.001
kx_ny = 0.628318531 ky_ny = 0.628318531 kz_ny = 0.628318531
############################
A(data) = 8.02230094 (not used)
A(ran) = 8.02024944 (used)
Ngal = 476857
weighted Ngal = 0
Nran = 23820508
weighted Nran = 0
SN(data) = 3488.21709
SN(ran) = 69.8592813
SN(data+ran) = 3558.07637
############################
13 columns: k_central k_mean P_0(k) sigma^{lin}_{P_0(k)} P^img_1(k) sigma^{lin}_{P_1(k)} P_2(k) sigma^{lin}_{P_2(k)} P^img_3(k) sigma^{lin}_{P_3(k)} P_4(k) sigma^{lin}_{P_4(k)} N_modes
### header ###
0.00050000 0 0 0 0 0 0 0 0 0 0 0 0
0.00150000 0.00179520 81873.64153199 0 -85013.86357381 0 4915.78004973 0 131110.71987504 0 -73395.56241835 0 3
0.00250000 0.00253879 128120.08494152 0 -64836.10171730 0 33384.83090019 0 -58076.55813876 0 62397.97579223 0 6
0.00350000 0.00331552 129649.17299898 0 4752.41896936 0 1520.01982343 0 -78326.95444608 0 -3296.88436568 0 7
0.00450000 0.00420575 116125.43546548 0 42984.09362496 0 -2554.78393936 0 -48162.06632640 0 52363.34925559 0 24
0.00550000 0.00557378 58955.25783637 0 30424.42341343 0 -22205.65814704 0 -17320.54843706 0 36370.26184104 0 45
0.00650000 0.00659388 55342.13680155 0 9441.49316843 0 -4854.08505584 0 -6649.17464474 0 -9881.23054861 0 40
0.00750000 0.00754703 69305.44563035 0 -20850.18414274 0 -7800.23138824 0 6565.25749494 0 -24189.04369181 0 57
0.00850000 0.00846663 58781.20089022 0 -794.66850286 0 6276.97844596 0 -39784.30247562 0 -40134.18793989 0 75
0.00950000 0.00948925 65848.55509872 0 10500.37280781 0 -18977.96473916 0 -20468.74255274 0 -16015.45351068 0 112
0.01050000 0.01054430 56709.12602366 0 -9986.66122553 0 -11928.99058986 0 4282.87489078 0 -15140.18623377 0 105
0.01150000 0.01145670 75372.30456823 0 -19861.09336670 0 -14025.53529428 0 4469.70929977 0 -54200.69083600 0 144
0.01250000 0.01249090 73466.53602044 0 -382.53664293 0 -10046.05317586 0 -3881.82421352 0 -40825.98679456 0 169
0.01350000 0.01339930 83367.07670353 0 3211.19564390 0 -12682.35157053 0 -22967.87698756 0 -42784.90250148 0 180
0.01450000 0.01448870 74004.98317637 0 4931.63561887 0 223.26900104 0 -19185.79227601 0 -19134.85958184 0 267
0.01550000 0.01550050 74079.49992240 0 2701.09363951 0 16894.92827103 0 -13584.08170376 0 -13213.04809908 0 238
0.01650000 0.01653350 67714.68472365 0 3344.93825539 0 25392.71612284 0 -5767.72901058 0 -6901.00360042 0 315
0.01750000 0.01747870 75433.97741747 0 3404.69559243 0 35623.10136228 0 4015.98757335 0 7609.51059324 0 297
0.01850000 0.01844180 75141.33587251 0 -5305.32658150 0 30883.14983066 0 12559.55948829 0 6744.87274815 0 388
0.01950000 0.01947590 81325.34000697 0 -4147.06175455 0 29578.60852053 0 12772.70174105 0 10169.13313854 0 399
0.02050000 0.02045430 82367.24577241 0 -3043.77102032 0 27138.48957700 0 2333.17135811 0 -6682.30304060 0 462
0.02150000 0.02154770 87249.03378495 0 -1852.05670009 0 26501.05583719 0 194.95928094 0 363.57750114 0 571
0.02250000 0.02255340 85409.14556983 0 89.54654118 0 23110.15636148 0 5268.78790960 0 733.11191303 0 510
0.02350000 0.02348930 85195.11753109 0 8698.00870151 0 28902.53236711 0 -227.84962182 0 -4246.74589489 0 555
0.02450000 0.02439640 77107.33786731 0 7059.73644902 0 20932.11934640 0 8275.18983366 0 -8498.62934850 0 592
0.02550000 0.02547300 73659.08374904 0 5389.28802060 0 22050.09198334 0 6351.88272336 0 -2048.88941839 0 837
0.02650000 0.02652900 65250.53883526 0 5825.81442658 0 11314.47656243 0 3348.60319490 0 -5464.86770982 0 723
0.02750000 0.02749970 64702.90164973 0 1714.49413654 0 22146.42120926 0 3878.05962308 0 -20199.02072016 0 826
0.02850000 0.02848090 62320.69096500 0 1198.34664280 0 16274.43518819 0 -1063.11812532 0 -6542.55922906 0 831
0.02950000 0.02946900 60080.53820769 0 2147.58812182 0 21653.14913859 0 -7110.11552694 0 -11911.71776315 0 996
0.03050000 0.03053250 58460.43564023 0 2280.92105729 0 20228.47310418 0 -689.35297812 0 -8530.17440191 0 1041
0.03150000 0.03150510 58198.68588151 0 1738.52108140 0 23575.30472711 0 1031.53764047 0 -18047.33583815 0 1036
0.03250000 0.03246190 56598.18132898 0 -1303.51158392 0 21966.16376122 0 -2473.86738958 0 -13972.60958164 0 1059
0.03350000 0.03345080 59505.77382635 0 2651.41211805 0 22344.50510027 0 -376.45018597 0 -10066.63662769 0 1302
0.03450000 0.03451200 55641.75391114 0 2280.02419898 0 25046.26307927 0 -1927.94641440 0 -12830.94216959 0 1339
0.03550000 0.03553350 53696.34644051 0 3571.79911860 0 26988.12740596 0 4111.03240959 0 -6298.08229707 0 1365
0.03650000 0.03647120 53166.20352819 0 1602.85188540 0 24899.77622192 0 1477.42458985 0 -10347.59686997 0 1308
0.03750000 0.03744890 50818.53849689 0 637.22890180 0 23962.50392602 0 8027.20297470 0 -2702.93164543 0 1579
0.03850000 0.03847530 50994.92063125 0 -837.13861917 0 20672.58405265 0 4744.04829180 0 -3706.92577068 0 1662
0.03950000 0.03950240 49203.52919885 0 810.88945872 0 16835.24844026 0 6311.13656803 0 1071.58181041 0 1683
0.04050000 0.04050350 50468.21013963 0 1212.99532853 0 20402.64077358 0 3987.64242181 0 942.82838849 0 1822
0.04150000 0.04152450 48000.41038405 0 1636.88821189 0 13786.48380144 0 5187.77170890 0 499.84681715 0 1887
0.04250000 0.04250150 47235.75563208 0 983.30770080 0 13135.43110210 0 -1804.86645171 0 -189.12638023 0 1920
0.04350000 0.04349210 44224.74762089 0 2103.21024395 0 11145.62360895 0 102.67577179 0 -107.67481572 0 2005
0.04450000 0.04448520 44415.30233102 0 522.55836982 0 13348.79480136 0 293.77535102 0 -335.97862430 0 2151
0.04550000 0.04548030 43781.07956541 0 -627.43210880 0 11254.35383866 0 1169.96827429 0 -4709.07081770 0 2274
0.04650000 0.04648670 42613.06002029 0 1355.75081242 0 9937.59975426 0 883.54494695 0 -6584.03615784 0 2311
0.04750000 0.04749250 40714.70993013 0 1719.85314176 0 7674.02902996 0 803.30602345 0 -7138.44960615 0 2568
0.04850000 0.04851840 39388.02397036 0 1262.11216143 0 6354.60651527 0 -697.18443346 0 -4685.86322488 0 2493
0.04950000 0.04949480 39334.65536474 0 1487.55576706 0 6802.90280253 0 2784.85577676 0 -3558.19123140 0 2644
0.05050000 0.05050630 37981.61727190 0 874.06039351 0 7846.09295764 0 -878.84806676 0 -4913.06733015 0 2829
0.05150000 0.05149060 35924.71149034 0 1941.16677023 0 6579.07575632 0 -3453.74599138 0 -1822.15035075 0 2784
0.05250000 0.05249300 35866.13889205 0 1414.60021883 0 11473.58587007 0 -1694.15427585 0 -2017.57688380 0 3055
0.05350000 0.05348950 35869.79275924 0 -196.41750612 0 13693.14410322 0 -877.47288402 0 1627.15563837 0 3009
0.05450000 0.05448610 36344.46332421 0 -779.35547764 0 14604.83932879 0 -106.46416772 0 -2616.78895834 0 3336
0.05550000 0.05550870 36341.58451976 0 192.10926453 0 15717.71869631 0 2252.73091830 0 24.69316664 0 3349
0.05650000 0.05647670 36245.03384734 0 1574.81675896 0 13914.25842985 0 -168.70458433 0 -513.83227063 0 3324
0.05750000 0.05747970 35143.00535814 0 1292.67177793 0 13944.70732310 0 1789.71951136 0 3079.37961694 0 3639
0.05850000 0.05849280 34852.02466191 0 -527.59517038 0 12138.70042193 0 3199.41469030 0 3896.17394648 0 3846
0.05950000 0.05951020 34515.97960366 0 -666.05348500 0 10814.04069760 0 5358.37408971 0 2857.01411760 0 3787
0.06050000 0.06049470 34878.04462523 0 251.42149412 0 9905.01390232 0 3175.74205983 0 2878.54978938 0 3930
0.06150000 0.06148310 34813.38224829 0 1167.03410821 0 10367.80386276 0 381.39397901 0 2569.75372251 0 4083
0.06250000 0.06249100 33435.87431760 0 1040.22609376 0 10036.49775954 0 -1203.16310409 0 4517.68568320 0 4303
0.06350000 0.06350600 32261.76499383 0 1141.26880836 0 13033.89788352 0 -2426.57749028 0 5106.53406171 0 4470
0.06450000 0.06451750 32150.37740616 0 1549.45006280 0 12727.08376279 0 -1023.29429465 0 7196.29143101 0 4479
0.06550000 0.06550280 31500.09976956 0 414.52569656 0 13574.44878116 0 2007.06924755 0 4898.19719792 0 4636
0.06650000 0.06648880 31268.24528786 0 -236.80381090 0 13078.51935254 0 1704.59547816 0 4315.77076781 0 4653
0.06750000 0.06749660 30856.90842084 0 1023.80140712 0 12324.93692538 0 2430.74068441 0 3407.17579319 0 5220
0.06850000 0.06852730 30475.35610759 0 580.21196515 0 11313.36932995 0 437.60706488 0 910.59795818 0 5029
0.06950000 0.06949320 28764.12830687 0 482.01594526 0 9557.96295320 0 1426.37010011 0 2523.72606824 0 5040
0.07050000 0.07048030 28623.39905843 0 407.62763820 0 10078.41758130 0 196.79396516 0 2455.65341525 0 5475
0.07150000 0.07148790 29424.81392880 0 -443.18419489 0 8629.27170904 0 1671.73281809 0 2809.91244783 0 5509
0.07250000 0.07249820 28811.29641060 0 4.33786006 0 9628.43830067 0 1665.58767782 0 3229.06637616 0 5916
0.07350000 0.07351270 29306.56149974 0 823.13655720 0 8404.82461264 0 173.54208305 0 2165.95710870 0 5721
0.07450000 0.07449140 28259.56246489 0 791.12535892 0 9981.60117309 0 -955.51837997 0 1197.59372471 0 6028
0.07550000 0.07549160 27067.73742141 0 1375.26024875 0 9317.12881607 0 -1424.05598423 0 356.29412587 0 6183
0.07650000 0.07648840 26619.30826625 0 722.03183759 0 9985.55399305 0 -509.94477738 0 -462.85639439 0 6330
0.07750000 0.07749960 25864.72932986 0 6.75854707 0 8216.18541470 0 -168.11664388 0 -2530.45804173 0 6583
0.07850000 0.07848650 25611.61598451 0 -2.22469579 0 7200.45462514 0 1629.65798378 0 -2611.57389335 0 6549
0.07950000 0.07947320 25482.84484687 0 259.76891980 0 6175.35664878 0 1217.53498171 0 -4872.04436670 0 6828
0.08050000 0.08048110 25552.37904673 0 88.21409762 0 5561.54017781 0 1807.67882222 0 -3761.55662134 0 7147
0.08150000 0.08149960 24996.10544784 0 249.45837093 0 4408.08073983 0 1384.88209902 0 -3213.66477234 0 7386
0.08250000 0.08250610 24684.97312043 0 861.38368882 0 5615.18559155 0 -183.13846697 0 -1411.23423209 0 7227
0.08350000 0.08350160 23538.10171572 0 1218.54256327 0 6439.44266803 0 -395.96294400 0 -685.58285152 0 7798
0.08450000 0.08449610 23425.82834206 0 1049.89334056 0 7508.73029274 0 -1831.32930803 0 1078.71349483 0 7371
0.08550000 0.08548940 22191.81774102 0 796.23523682 0 8487.90026575 0 -796.84753639 0 2327.20337503 0 8256
0.08650000 0.08650700 22071.01867725 0 505.66310938 0 8655.95601185 0 -250.61210718 0 526.12144394 0 8037
0.08750000 0.08749060 21540.10070219 0 339.40550883 0 8454.84937617 0 858.38530326 0 1162.69375688 0 8155
0.08850000 0.08849210 21416.09066423 0 -69.67426477 0 7577.88803356 0 892.13928547 0 429.64052717 0 8718
0.08950000 0.08949900 21114.25908967 0 26.02915335 0 6976.42827708 0 1780.99451940 0 436.83753830 0 8571
0.09050000 0.09049190 21314.44672239 0 365.72110322 0 6958.49111088 0 1603.94804555 0 -526.69609760 0 8932
0.09150000 0.09150830 20253.82872801 0 461.42252833 0 6475.06233697 0 574.05243085 0 78.97114230 0 9285
0.09250000 0.09250820 20221.27609305 0 1114.23019115 0 6646.87160118 0 -471.10416915 0 712.37677034 0 9204
0.09350000 0.09350330 19510.21139319 0 210.70301960 0 6214.29801517 0 -764.30265205 0 525.04299951 0 9349
0.09450000 0.09448040 19483.19492063 0 -234.48858778 0 7294.37008425 0 -520.96395504 0 -620.47536712 0 9564
0.09550000 0.09549270 19493.60290596 0 342.08168974 0 7102.50883979 0 -1104.59837579 0 -1551.79739566 0 10155
0.09650000 0.09649430 19063.44308676 0 694.17054665 0 6930.26775491 0 -318.28947817 0 -3004.16531444 0 9913
0.09750000 0.09749140 18270.88607624 0 589.50828906 0 5962.13688975 0 413.82703286 0 -1794.69098520 0 10476
0.09850000 0.09850240 18218.29253335 0 72.39008460 0 5701.80438861 0 925.08720244 0 -3350.98374474 0 10575
0.09950000 0.09950330 18196.36933021 0 114.33614777 0 5412.77242154 0 837.72434515 0 -3028.56871835 0 10882
0.10050000 0.10051200 18005.03955735 0 -24.31405024 0 5476.25005973 0 954.23509752 0 -2914.29125389 0 10875
0.10150000 0.10150300 17504.34902905 0 423.63821989 0 4897.03460382 0 450.03353502 0 -1074.99097923 0 11118
0.10250000 0.10250800 17674.08776852 0 223.38858215 0 5233.64435063 0 408.77915998 0 -1470.29401267 0 11575
0.10350000 0.10349800 17152.91343930 0 375.38392109 0 5110.22114587 0 501.46669827 0 -77.24961724 0 11364
0.10450000 0.10450100 17197.75635482 0 512.68407054 0 5672.56237876 0 -257.24332251 0 172.65629706 0 12093
0.10550000 0.10551000 16811.99655814 0 210.05418137 0 6265.71789162 0 -530.19938117 0 1107.62001323 0 12067
0.10650000 0.10649700 16843.55268387 0 71.21508949 0 6177.91435581 0 290.10266088 0 243.44056239 0 12054
0.10750000 0.10749900 16905.44697961 0 -90.96247008 0 6749.78886037 0 -443.45546685 0 -4.57855025 0 12807
0.10850000 0.10850100 16825.83696416 0 585.74591309 0 7071.61705355 0 -367.52699940 0 34.99773646 0 12736
0.10950000 0.10950300 16271.77783023 0 766.47836387 0 6843.11748627 0 -600.25619477 0 642.43732340 0 12933
0.11050000 0.11050200 15664.90370692 0 -46.03684430 0 6585.69700656 0 883.84832865 0 753.11960398 0 13428
0.11150000 0.11150900 15921.00657998 0 -140.86654527 0 6666.76856888 0 1230.43424012 0 -135.85853276 0 13453
0.11250000 0.11250000 15945.36569458 0 75.17975684 0 5795.25481008 0 1443.84222868 0 -534.92504941 0 13668
0.11350000 0.11349100 15636.22638564 0 334.38199506 0 5390.30667449 0 791.47192269 0 -288.16832573 0 13791
0.11450000 0.11448600 15163.43811589 0 409.84431763 0 4721.83720821 0 237.52572647 0 432.07090247 0 14205
0.11550000 0.11549300 15025.25550215 0 374.05967105 0 4541.54654319 0 421.01186444 0 -331.25406330 0 14776
0.11650000 0.11649800 14526.00437608 0 210.13168764 0 4255.91377984 0 338.24623642 0 344.07249374 0 14553
0.11750000 0.11747300 14356.48708311 0 121.68927869 0 4067.75069187 0 628.87593996 0 127.74584036 0 14568
0.11850000 0.11849100 14265.02968010 0 -225.25094718 0 3567.41447797 0 605.09480071 0 241.88822245 0 16015
0.11950000 0.11950300 14727.52068778 0 -90.43033415 0 3922.37106701 0 735.45592420 0 61.93747780 0 15270
0.12050000 0.12050700 14480.60784432 0 157.63558121 0 3061.16564261 0 195.47857298 0 443.70127246 0 15999
0.12150000 0.12150000 14386.49308336 0 367.09185704 0 3201.66237223 0 -159.90097887 0 933.94838399 0 15670
0.12250000 0.12250700 14192.17378280 0 106.46239615 0 3365.62135815 0 -184.73177451 0 709.99289881 0 16887
0.12350000 0.12352200 14379.18534898 0 30.48421397 0 3848.48544349 0 -184.57565473 0 1215.34266139 0 16407
0.12450000 0.12449800 14057.09142001 0 292.94271219 0 3954.70225548 0 -479.19360966 0 595.17731937 0 16306
0.12550000 0.12549900 14020.66347136 0 325.13106767 0 4096.02940946 0 -395.14248473 0 925.31972126 0 17523
0.12650000 0.12650100 13764.11770531 0 54.48192789 0 4106.62562431 0 -190.45948814 0 520.35497718 0 17154
0.12750000 0.12750600 13679.63586694 0 181.98473072 0 4130.11002525 0 216.54034925 0 283.52127100 0 18007
0.12850000 0.12850300 13642.87574854 0 122.75443633 0 4086.14182340 0 205.62968037 0 -328.66978268 0 17496
0.12950000 0.12949900 13375.03621118 0 378.96360371 0 4231.97541358 0 57.29119814 0 -570.11511214 0 18405
0.13050000 0.13049000 13047.84901279 0 585.16018711 0 4114.54233656 0 -281.63676132 0 -51.75149259 0 18100
0.13150000 0.13148800 12652.01340052 0 471.82608473 0 4630.47945613 0 -275.99762629 0 -294.59027412 0 19059
0.13250000 0.13249300 12268.91096180 0 207.86518275 0 4432.48414373 0 -78.14027505 0 382.22218890 0 18957
0.13350000 0.13349100 12340.10601038 0 23.62358006 0 4756.91433324 0 404.22511278 0 419.92899107 0 19468
0.13450000 0.13450700 12311.09651936 0 -6.10619891 0 4509.37036727 0 416.43345813 0 59.08126089 0 19953
0.13550000 0.13551000 12204.02713836 0 20.99689245 0 4388.09519353 0 528.05577909 0 172.81795300 0 19956
0.13650000 0.13649900 12159.51639259 0 68.25468201 0 3951.80130637 0 482.64153161 0 467.61306514 0 19723
0.13750000 0.13749600 12035.72780112 0 162.48968841 0 4032.08673363 0 522.69677388 0 832.51924525 0 20946
0.13850000 0.13851100 11905.96015424 0 221.78530951 0 3595.10636234 0 480.16465255 0 548.16090649 0 20955
0.13950000 0.13949800 11608.00389337 0 203.97326058 0 3296.44147268 0 526.89207775 0 1157.20188377 0 20506
0.14050000 0.14048300 11379.80327886 0 304.44575045 0 2956.47681145 0 239.12346295 0 990.05739001 0 21447
0.14150000 0.14148400 11179.39419964 0 199.82335323 0 3105.18920609 0 171.70407713 0 1392.06803782 0 21771
0.14250000 0.14249400 10987.78761866 0 138.93774629 0 3125.55121143 0 -29.31818744 0 1444.21868772 0 22470
0.14350000 0.14350900 10947.87188768 0 2.72858622 0 3269.72395290 0 379.51057655 0 1325.97733098 0 22519
0.14450000 0.14449900 11065.62606213 0 -171.29107941 0 2967.53806394 0 105.67260722 0 1299.08265400 0 22218
0.14550000 0.14550500 11236.52739571 0 -143.50286581 0 2924.12347833 0 236.47717731 0 1217.15852266 0 23559
0.14650000 0.14650700 11191.02014070 0 235.87816454 0 3265.09572112 0 -167.45119716 0 1026.57723896 0 23044
0.14750000 0.14750500 11059.80201928 0 430.99135080 0 3071.92794233 0 7.37331576 0 1355.33006408 0 23649
0.14850000 0.14849900 10622.13516384 0 338.32152823 0 3093.53004806 0 82.84534876 0 1448.09400141 0 23640
0.14950000 0.14949500 10388.63090574 0 349.20119460 0 3091.51488494 0 -101.23426582 0 1290.42409599 0 24457
0.15050000 0.15050000 10182.64137482 0 264.14691704 0 3319.83729502 0 411.04898657 0 1026.37240095 0 24591
0.15150000 0.15149900 9998.60826401 0 176.83720691 0 3103.99339501 0 46.41064599 0 984.07833460 0 25020
0.15250000 0.15250500 9688.35065026 0 191.95314475 0 3136.63460858 0 -75.99501212 0 1302.16076030 0 25297
0.15350000 0.15350100 9749.58060651 0 37.48768086 0 3029.52093828 0 120.35063462 0 1027.22496996 0 25452
0.15450000 0.15450400 9645.06893255 0 -92.08099634 0 2977.39243303 0 -98.55343453 0 482.44555146 0 26061
0.15550000 0.15549900 9752.06080727 0 16.82838360 0 3159.58753792 0 -206.93842916 0 477.53718987 0 26128
0.15650000 0.15649500 9710.78318035 0 174.24185397 0 3148.84738285 0 -17.82323198 0 434.71497363 0 26331
0.15750000 0.15749700 9694.49579054 0 51.03610968 0 3286.74211614 0 161.73012693 0 582.95458000 0 27345
0.15850000 0.15849900 9588.35648483 0 95.94457336 0 3089.16755208 0 319.22287515 0 240.04025144 0 26980
0.15950000 0.15949700 9552.89182843 0 106.73776487 0 2921.01215506 0 431.09764512 0 256.03422464 0 27777
0.16050000 0.16050000 9370.40884310 0 321.48162941 0 2857.15805783 0 212.88869652 0 498.99314090 0 28224
0.16150000 0.16150500 9136.79386175 0 105.47806647 0 2438.61310736 0 45.33198010 0 703.13580805 0 28075
0.16250000 0.16249700 9169.12505022 0 97.59711784 0 2726.36068474 0 265.90963115 0 745.36122598 0 28590
0.16350000 0.16349900 9050.70653628 0 -13.65749122 0 2302.33493349 0 147.12573049 0 564.21688471 0 29163
0.16450000 0.16449100 9023.55719583 0 136.39111158 0 2157.61964811 0 225.34949087 0 374.87791585 0 28996
0.16550000 0.16550500 8801.55708321 0 187.22636929 0 1948.59630018 0 -21.42959890 0 269.07963774 0 30777
0.16650000 0.16650700 8574.14260376 0 283.49469742 0 2153.51181560 0 -65.36270149 0 189.98891433 0 29211
0.16750000 0.16749900 8481.45617271 0 176.58918684 0 2100.39787345 0 -177.11290780 0 67.70704482 0 30922
0.16850000 0.16850800 8224.82182806 0 73.20279324 0 2184.64719299 0 118.62003025 0 425.58473459 0 30867
0.16950000 0.16949900 8374.03247732 0 -3.63207685 0 2294.01961755 0 107.35117166 0 550.81272829 0 30852
0.17050000 0.17049200 8464.83661315 0 -15.79123893 0 2470.10279914 0 130.18839522 0 577.46713582 0 31257
0.17150000 0.17149500 8398.35837494 0 34.55484346 0 2253.15166665 0 103.19484237 0 691.52536825 0 32608
0.17250000 0.17250900 8427.87719291 0 0.57175049 0 2392.07612615 0 78.86219063 0 902.20735043 0 32361
0.17350000 0.17350400 8540.87026768 0 -40.82997283 0 2436.91904166 0 86.47895359 0 691.00939791 0 32508
0.17450000 0.17449800 8584.58380607 0 -29.89261965 0 2619.59025652 0 -288.61343319 0 320.46740446 0 32791
0.17550000 0.17549800 8518.86955827 0 115.10124542 0 2437.25121141 0 -33.24753407 0 241.39328953 0 33633
0.17650000 0.17650100 8264.17287047 0 274.79627905 0 2393.77019184 0 -75.16779873 0 218.57212085 0 33984
0.17750000 0.17750300 8220.70292323 0 117.83721688 0 2208.59663158 0 199.49893412 0 -47.30850081 0 34069
0.17850000 0.17849800 8007.36136862 0 72.07662709 0 2167.67331905 0 337.07035552 0 -171.20803697 0 34536
