### header ###
fiducial parameters:
Omega_m = 0.31
Omega_nu = 0
Omega_de = 0.69
Omega_k = 0
H_0 = 100
w_de = -1
zeff = 0
beta = 0
fgrowth = 0
b_1 = 2
gamma = 0.55
Lx = 3500 Ly = 3500 Lz = 3500
nx = 700 ny = 700 nz = 700
xoffset = -685.467585 yoffset = -31.7331281 zoffset = 572.489161
bins = 400 dk = 0.001
kx_ny = 0.628318531 ky_ny = 0.628318531 kz_ny = 0.628318531
############################
A(data) = 8.01720943 (not used)
A(ran) = 8.01763932 (used)
Ngal = 476748
weighted Ngal = 0
Nran = 23820508
weighted Nran = 0
SN(data) = 3484.60045
SN(ran) = 69.8365462
SN(data+ran) = 3554.437
############################
13 columns: k_central k_mean P_0(k) sigma^{lin}_{P_0(k)} P^img_1(k) sigma^{lin}_{P_1(k)} P_2(k) sigma^{lin}_{P_2(k)} P^img_3(k) sigma^{lin}_{P_3(k)} P_4(k) sigma^{lin}_{P_4(k)} N_modes
### header ###
0.00050000 0 0 0 0 0 0 0 0 0 0 0 0
0.00150000 0.00179520 8737.14936974 0 -15621.94308663 0 -9613.67889169 0 -20332.66368072 0 -28180.17389594 0 3
0.00250000 0.00253879 15876.93872720 0 -12447.50756112 0 -6543.88790804 0 7020.70650403 0 25268.59536163 0 6
0.00350000 0.00331552 21855.99412927 0 -7647.98692198 0 3983.19134723 0 -7730.65289908 0 37760.39222202 0 7
0.00450000 0.00420575 27856.19767174 0 -5648.15897486 0 1251.38307868 0 -9831.92548619 0 15531.70363936 0 24
0.00550000 0.00557378 48284.41551565 0 -17540.88770095 0 -1684.74279976 0 -2300.33084270 0 -11631.25577549 0 45
0.00650000 0.00659388 63201.60512757 0 -20661.84389758 0 16927.37018275 0 -34653.16570817 0 -13320.78181957 0 40
0.00750000 0.00754703 68038.77167109 0 13532.59539335 0 2731.63111136 0 -6973.84842540 0 4327.90603581 0 57
0.00850000 0.00846663 66105.32231126 0 3619.10009022 0 25553.48627921 0 -35753.86551839 0 -10216.22373599 0 75
0.00950000 0.00948925 59210.03203045 0 3248.05541323 0 32112.06716229 0 6229.89892084 0 -1199.64210480 0 112
0.01050000 0.01054430 63783.78796653 0 268.49723346 0 46741.37632892 0 7916.75653463 0 -16099.16028631 0 105
0.01150000 0.01145670 67220.74831349 0 -3461.54090805 0 27714.13974432 0 18521.34206364 0 -12688.77351892 0 144
0.01250000 0.01249090 78659.34563714 0 -10575.44317008 0 35887.84064869 0 5691.67321140 0 -21748.37113203 0 169
0.01350000 0.01339930 81573.24935966 0 -1878.30918224 0 47433.39663009 0 1573.55451393 0 -4047.48833746 0 180
0.01450000 0.01448870 90018.99728483 0 1719.78670781 0 43792.15189023 0 5397.48154097 0 17807.84145233 0 267
0.01550000 0.01550050 87866.09444709 0 2348.37366009 0 33283.96202109 0 20387.36096533 0 39800.91096285 0 238
0.01650000 0.01653350 96769.46155701 0 -6719.42854572 0 42050.36447301 0 9871.23223929 0 17831.75767393 0 315
0.01750000 0.01747870 89349.23235655 0 -2103.54241370 0 40837.50201237 0 19895.97118987 0 19243.58981156 0 297
0.01850000 0.01844180 94873.54737832 0 9052.01307061 0 38768.30595026 0 9805.38512360 0 16537.07073289 0 388
0.01950000 0.01947590 81457.98645830 0 8722.45639471 0 34811.61067632 0 5555.76042425 0 26971.74036523 0 399
0.02050000 0.02045430 75890.82153948 0 7071.18523288 0 26457.09870766 0 10447.71283098 0 11756.15159945 0 462
0.02150000 0.02154770 70620.39492581 0 836.03803008 0 25016.25707901 0 1380.13207167 0 -2819.95504644 0 571
0.02250000 0.02255340 69984.51131147 0 407.84354853 0 18971.09989777 0 175.95474262 0 -9072.55223315 0 510
0.02350000 0.02348930 66435.94193035 0 -113.78253153 0 18986.60115252 0 -10286.98696391 0 -14314.63369529 0 555
0.02450000 0.02439640 69583.25026005 0 3041.56762768 0 25789.99113734 0 -7223.09752939 0 -13338.60826253 0 592
0.02550000 0.02547300 70372.92846611 0 2402.97129377 0 28695.70133949 0 -5008.96473541 0 -17263.08307125 0 837
0.02650000 0.02652900 64047.97363671 0 7925.04970592 0 27662.21054092 0 1793.19622135 0 -9953.01243040 0 723
0.02750000 0.02749970 58968.65534940 0 6026.72176041 0 33694.19165562 0 9770.78410854 0 -2191.99921667 0 826
0.02850000 0.02848090 57998.49824879 0 -516.69889552 0 28591.84293269 0 9897.45150446 0 2529.42831552 0 831
0.02950000 0.02946900 57800.30363454 0 -2352.09396123 0 29507.63491844 0 13932.08487281 0 -1381.77077574 0 996
0.03050000 0.03053250 60953.25884990 0 -692.81640132 0 22485.12362547 0 7895.70804515 0 -1643.91913815 0 1041
0.03150000 0.03150510 58809.98893475 0 -1508.10600192 0 17626.25532530 0 5019.78239676 0 9316.26517473 0 1036
0.03250000 0.03246190 61811.14257684 0 2364.64997757 0 18355.58936110 0 5236.95497575 0 -679.98579132 0 1059
0.03350000 0.03345080 55344.79415951 0 2342.05136261 0 11850.93069989 0 -2258.55496116 0 6577.49241387 0 1302
0.03450000 0.03451200 54888.61437698 0 3732.61356426 0 15903.51230677 0 3494.14890464 0 -161.18315408 0 1339
0.03550000 0.03553350 51409.57919571 0 2462.10858062 0 9610.63400236 0 7.85017865 0 8893.52381316 0 1365
0.03650000 0.03647120 52401.65949946 0 -454.84556739 0 13716.61743184 0 3164.35970992 0 3901.18970963 0 1308
0.03750000 0.03744890 52222.39856065 0 -1270.42747737 0 12914.64894522 0 1150.63599515 0 5020.50209787 0 1579
0.03850000 0.03847530 52116.87930513 0 1314.76106594 0 16000.06297918 0 -2775.20070952 0 4891.07769306 0 1662
0.03950000 0.03950240 50435.10388842 0 3699.60696398 0 18718.31872216 0 -759.02115311 0 4899.24906878 0 1683
0.04050000 0.04050350 49685.17532846 0 871.01439695 0 18449.03978257 0 1954.04388399 0 7730.94077952 0 1822
0.04150000 0.04152450 47615.64709660 0 2297.77313566 0 19146.15335316 0 4269.28914822 0 8991.93463615 0 1887
0.04250000 0.04250150 46851.98885386 0 220.43116419 0 17147.26655364 0 3807.55105864 0 5616.52534286 0 1920
0.04350000 0.04349210 47900.42729094 0 -1186.16708550 0 14551.69216966 0 4276.28685751 0 4698.29744565 0 2005
0.04450000 0.04448520 45024.28019605 0 2186.19731847 0 11399.40129379 0 2324.61245103 0 4292.71818754 0 2151
0.04550000 0.04548030 43993.00386244 0 2998.18625904 0 14726.19200880 0 362.89433870 0 4530.62923092 0 2274
0.04650000 0.04648670 42029.88067209 0 89.83220717 0 10224.84907703 0 3382.94954649 0 8763.32434562 0 2311
0.04750000 0.04749250 43024.61833380 0 -1029.41064688 0 11191.90592669 0 766.25691738 0 -1331.26990225 0 2568
0.04850000 0.04851840 42336.69479282 0 434.12592595 0 12098.50788284 0 206.09361078 0 2743.02453360 0 2493
0.04950000 0.04949480 41755.06557009 0 1838.76991031 0 11194.12039165 0 -2135.68537264 0 651.11581159 0 2644
0.05050000 0.05050630 41307.30075443 0 1882.33950847 0 12368.11899217 0 -3798.58247553 0 6045.83259305 0 2829
0.05150000 0.05149060 39794.59973770 0 1211.62236025 0 13370.38583476 0 1883.81212767 0 3862.07118604 0 2784
0.05250000 0.05249300 39061.72255796 0 1398.63392644 0 13999.51533095 0 3074.56315564 0 5889.75710241 0 3055
0.05350000 0.05348950 37440.06986502 0 -1057.20661110 0 11448.56241598 0 3291.92396416 0 2567.81606567 0 3009
0.05450000 0.05448610 38650.05352120 0 160.33058507 0 14071.48544227 0 1151.72108299 0 3868.80315953 0 3336
0.05550000 0.05550870 37693.07248712 0 2062.40872699 0 12413.40480068 0 -353.58029906 0 3360.08519574 0 3349
0.05650000 0.05647670 35834.58276632 0 1592.79821446 0 12325.26909512 0 -235.84273310 0 5073.57175072 0 3324
0.05750000 0.05747970 35468.86387756 0 -53.59470250 0 12335.01274096 0 371.49532062 0 6159.56751359 0 3639
0.05850000 0.05849280 36712.06450819 0 -809.25075465 0 12019.89437663 0 2497.04176543 0 3689.46471445 0 3846
0.05950000 0.05951020 36460.94418131 0 238.80125829 0 13265.53091872 0 356.11032528 0 5070.34970420 0 3787
0.06050000 0.06049470 35433.76460788 0 1748.12078702 0 12474.85620342 0 2449.57470893 0 5021.22179898 0 3930
0.06150000 0.06148310 34591.82502867 0 1207.63632332 0 12054.88292305 0 508.76336032 0 6368.56871686 0 4083
0.06250000 0.06249100 33520.46687922 0 1403.19572427 0 10935.17193112 0 2208.82915040 0 5495.59341119 0 4303
0.06350000 0.06350600 32417.10971104 0 433.15266860 0 10648.57587551 0 1522.67718139 0 2946.77745491 0 4470
0.06450000 0.06451750 30866.54134344 0 821.06824693 0 8685.69627631 0 668.33106222 0 3282.77822386 0 4479
0.06550000 0.06550280 30967.07805279 0 1357.92098808 0 7693.68240651 0 -194.63375459 0 1430.71045144 0 4636
0.06650000 0.06648880 29634.19159112 0 -109.95493957 0 7919.23673539 0 846.85126250 0 1441.32881094 0 4653
0.06750000 0.06749660 29876.45405815 0 -96.42101549 0 6868.98243704 0 1527.71508918 0 3355.87771231 0 5220
0.06850000 0.06852730 30568.47435932 0 -419.10853180 0 8250.69785116 0 -60.01277558 0 331.25517053 0 5029
0.06950000 0.06949320 30068.33744726 0 545.92208242 0 7855.68159093 0 -873.28311631 0 -597.31759976 0 5040
0.07050000 0.07048030 29955.62118061 0 817.97021044 0 10224.79371540 0 -1185.02663604 0 2070.98977873 0 5475
0.07150000 0.07148790 29428.24634949 0 954.12769597 0 10625.72259709 0 -1145.04447112 0 3934.53955198 0 5509
0.07250000 0.07249820 28232.65671558 0 1229.27164602 0 10940.44235773 0 71.76051221 0 2473.08125452 0 5916
0.07350000 0.07351270 27508.52667244 0 738.07785071 0 9818.29545434 0 1795.36639702 0 3090.16406131 0 5721
0.07450000 0.07449140 27033.41321447 0 131.92896468 0 8571.45202883 0 3395.52770748 0 769.34831047 0 6028
0.07550000 0.07549160 26570.81148355 0 -446.91335389 0 6891.39282248 0 1163.00378198 0 423.00156121 0 6183
0.07650000 0.07648840 27386.50965294 0 -324.07808958 0 8396.97433434 0 915.92596088 0 616.28117048 0 6330
0.07750000 0.07749960 26731.91380966 0 768.81240995 0 8717.54028249 0 -890.08979815 0 951.28985912 0 6583
0.07850000 0.07848650 26482.45433149 0 1398.71143272 0 9432.91211670 0 -1472.78528575 0 2873.78868971 0 6549
0.07950000 0.07947320 25456.60343705 0 748.65302815 0 8786.59837238 0 528.23515075 0 3581.65348769 0 6828
0.08050000 0.08048110 25214.45169326 0 275.00886768 0 10161.91398276 0 -119.11496317 0 3748.98953267 0 7147
0.08150000 0.08149960 24867.88792644 0 563.51822102 0 10278.46127380 0 978.41594769 0 2081.80744008 0 7386
0.08250000 0.08250610 24384.24877836 0 914.11674301 0 10061.14475458 0 -223.60781418 0 2029.90038133 0 7227
0.08350000 0.08350160 23376.33505012 0 424.28041473 0 8663.14195066 0 809.31497413 0 1839.96572139 0 7798
0.08450000 0.08449610 23207.14992689 0 175.21954026 0 9120.80542471 0 859.95757339 0 520.86873305 0 7371
0.08550000 0.08548940 23161.86411838 0 66.23453634 0 7665.12688080 0 689.14592564 0 -768.26986603 0 8256
0.08650000 0.08650700 22780.64397488 0 623.21133858 0 7780.10190172 0 -677.69714178 0 -1471.56733002 0 8037
0.08750000 0.08749060 22078.99075112 0 834.41372003 0 7127.26655809 0 -421.28977979 0 -424.72109325 0 8155
0.08850000 0.08849210 21771.73373740 0 316.92647498 0 7023.51887454 0 1.77136160 0 -1815.28550937 0 8718
0.08950000 0.08949900 21243.47312030 0 127.58196996 0 6574.41430757 0 1119.54490706 0 -705.36909597 0 8571
0.09050000 0.09049190 21236.94044866 0 335.50251433 0 6759.94218223 0 1161.37615023 0 -2222.99065384 0 8932
0.09150000 0.09150830 20437.07570376 0 476.01363798 0 5541.95323520 0 1131.12655882 0 -2113.42999976 0 9285
0.09250000 0.09250820 20077.55731690 0 440.75381959 0 6049.81862998 0 109.26668386 0 -1904.83847250 0 9204
0.09350000 0.09350330 19589.71068539 0 610.21132201 0 5316.17745983 0 -168.98028522 0 -1755.47281070 0 9349
0.09450000 0.09448040 19223.10601064 0 414.20349191 0 5696.30144318 0 -346.07769176 0 -164.55246252 0 9564
0.09550000 0.09549270 18957.48093825 0 454.60861964 0 6582.34209214 0 51.95522336 0 -269.20807671 0 10155
0.09650000 0.09649430 19095.66355198 0 -28.56360850 0 6715.50894273 0 -524.87027124 0 -242.73746977 0 9913
0.09750000 0.09749140 18865.24847251 0 413.54247412 0 7139.57898329 0 645.77784379 0 183.67547472 0 10476
0.09850000 0.09850240 18838.89633944 0 237.34303312 0 7218.24785112 0 600.59500791 0 1538.39988263 0 10575
0.09950000 0.09950330 18548.13708970 0 -24.74974622 0 6779.17481044 0 1417.18007051 0 1083.11031501 0 10882
0.10050000 0.10051200 18308.53198062 0 432.22812948 0 6315.47691936 0 494.90634581 0 1704.79478000 0 10875
0.10150000 0.10150300 18031.39169041 0 770.22966752 0 5752.37169606 0 362.26210895 0 1519.62121974 0 11118
0.10250000 0.10250800 17043.96176309 0 575.03011713 0 6266.20507392 0 -129.49637492 0 1929.74013102 0 11575
0.10350000 0.10349800 16852.85343672 0 470.31139069 0 5693.52228965 0 355.28432985 0 2692.77832357 0 11364
0.10450000 0.10450100 16718.32469017 0 -77.27818384 0 6216.78928825 0 306.28486360 0 2023.42307131 0 12093
0.10550000 0.10551000 16588.88921304 0 -78.21113793 0 5772.66726745 0 700.24039511 0 2049.91914460 0 12067
0.10650000 0.10649700 16749.43792291 0 111.91020141 0 5624.64135695 0 -123.39884564 0 906.53662943 0 12054
0.10750000 0.10749900 16476.28366963 0 358.65806722 0 5810.94429435 0 185.50019385 0 1259.73161159 0 12807
0.10850000 0.10850100 15980.13279451 0 205.05834841 0 5645.01443462 0 -25.77526495 0 273.66136575 0 12736
0.10950000 0.10950300 16044.46300171 0 167.55195532 0 5149.74934548 0 36.86862718 0 209.80837576 0 12933
0.11050000 0.11050200 15807.51525059 0 304.49668314 0 5059.58740448 0 117.51944116 0 -572.78575689 0 13428
0.11150000 0.11150900 15565.91712305 0 166.06604933 0 4857.00814960 0 143.02454138 0 -1623.61249443 0 13453
0.11250000 0.11250000 15489.40735855 0 76.88423052 0 4676.20815763 0 -365.43543724 0 -1071.12009447 0 13668
0.11350000 0.11349100 15426.18438383 0 388.09384275 0 5409.88254477 0 -435.10693393 0 -2116.70740791 0 13791
0.11450000 0.11448600 15037.32433620 0 549.28253300 0 5479.35031068 0 -779.99545801 0 -1371.72817713 0 14205
0.11550000 0.11549300 14869.24644546 0 550.18603470 0 6191.33401349 0 -70.91702251 0 -582.65009107 0 14776
0.11650000 0.11649800 14436.42926830 0 95.44797959 0 5865.90731475 0 519.24774470 0 -183.61236247 0 14553
0.11750000 0.11747300 14462.55995487 0 95.57774724 0 5844.15019648 0 1115.59208710 0 -421.34292695 0 14568
0.11850000 0.11849100 14293.04266189 0 120.15133277 0 5621.47467205 0 1242.24841070 0 123.32466106 0 16015
0.11950000 0.11950300 14223.84063178 0 161.97925424 0 4997.53809620 0 955.28586115 0 714.41075641 0 15270
0.12050000 0.12050700 14103.48446100 0 -88.19405671 0 4491.17853759 0 772.37769854 0 589.59243873 0 15999
0.12150000 0.12150000 14006.38017234 0 121.90297456 0 4266.72036887 0 7.28754953 0 886.50347214 0 15670
0.12250000 0.12250700 13841.62397904 0 400.34426293 0 4070.64056865 0 -254.18293193 0 275.16609470 0 16887
0.12350000 0.12352200 13262.98428402 0 620.40671870 0 4153.09617158 0 -295.62996543 0 724.40685126 0 16407
0.12450000 0.12449800 13173.29845298 0 94.96921226 0 3996.71065584 0 -29.56742547 0 890.61905528 0 16306
0.12550000 0.12549900 12948.53025917 0 -267.79192637 0 3869.04675068 0 737.31939646 0 580.90730715 0 17523
0.12650000 0.12650100 13480.11257371 0 -295.34762114 0 3833.77032381 0 943.23142112 0 -290.64963372 0 17154
0.12750000 0.12750600 13127.56975148 0 220.28943843 0 3280.30909542 0 420.03196369 0 -227.42555177 0 18007
0.12850000 0.12850300 13243.71843883 0 421.24106156 0 3180.15991744 0 64.92933069 0 -156.47077264 0 17496
0.12950000 0.12949900 12623.66824899 0 178.09723748 0 3180.74675065 0 -233.30938518 0 261.58256661 0 18405
0.13050000 0.13049000 12806.80450149 0 60.41447952 0 3229.43176288 0 225.19447832 0 383.24748618 0 18100
0.13150000 0.13148800 12658.76751866 0 -35.07214248 0 2891.09473340 0 309.57666577 0 -173.30845699 0 19059
0.13250000 0.13249300 12753.98951210 0 104.11329172 0 2932.47201124 0 -84.10748306 0 -197.92887846 0 18957
0.13350000 0.13349100 12563.21335548 0 244.39831849 0 2996.61398892 0 -346.42536276 0 -229.44625105 0 19468
0.13450000 0.13450700 12370.44418038 0 337.51546298 0 3455.18539361 0 -297.96954766 0 -222.40314524 0 19953
0.13550000 0.13551000 12143.35079835 0 262.36316551 0 3151.16149874 0 9.36357722 0 -129.01362155 0 19956
0.13650000 0.13649900 12007.16120308 0 -84.17923173 0 3512.06392620 0 323.33845828 0 -379.86378372 0 19723
0.13750000 0.13749600 11886.25141607 0 59.69411407 0 3093.72934990 0 520.72922176 0 -237.57887363 0 20946
0.13850000 0.13851100 11928.76914337 0 273.42995416 0 3173.85976462 0 218.48907841 0 -176.26587495 0 20955
0.13950000 0.13949800 11453.65568540 0 282.55022812 0 2690.49742466 0 489.93597920 0 243.13053730 0 20506
0.14050000 0.14048300 11391.20777342 0 283.12931071 0 2633.48602417 0 87.04884615 0 538.79814863 0 21447
0.14150000 0.14148400 11160.01763121 0 185.71056802 0 2544.25415845 0 294.40979523 0 665.52201341 0 21771
0.14250000 0.14249400 10927.37701445 0 298.71582235 0 2734.60956673 0 -111.22482450 0 475.40908904 0 22470
0.14350000 0.14350900 10734.58569470 0 372.35564026 0 2635.75585075 0 -409.40031740 0 683.06611208 0 22519
0.14450000 0.14449900 10550.97333224 0 187.55300287 0 3073.58879106 0 -322.66747540 0 474.80675457 0 22218
0.14550000 0.14550500 10486.24452135 0 53.87427870 0 3183.30445769 0 -33.87865659 0 696.13366984 0 23559
0.14650000 0.14650700 10424.44987653 0 13.38710505 0 2991.31034533 0 47.23619853 0 230.65424169 0 23044
0.14750000 0.14750500 10551.27228501 0 -9.36811687 0 2943.73256558 0 -22.63205338 0 -344.09463839 0 23649
0.14850000 0.14849900 10438.03561909 0 140.56648527 0 2963.39701446 0 253.30489657 0 -68.40139031 0 23640
0.14950000 0.14949500 10402.12806970 0 14.07281412 0 2695.38031990 0 -127.97835918 0 -206.80777573 0 24457
0.15050000 0.15050000 10285.86865910 0 -45.68275135 0 2697.16296420 0 297.26424057 0 -502.17864875 0 24591
0.15150000 0.15149900 10525.42947888 0 -74.71327980 0 2736.64687450 0 242.22149943 0 -742.26983289 0 25020
0.15250000 0.15250500 10405.33904390 0 64.39531247 0 2555.38184490 0 198.51238998 0 -481.81553618 0 25297
0.15350000 0.15350100 10214.34144077 0 346.58480424 0 2718.30003228 0 231.92423735 0 -177.73627969 0 25452
0.15450000 0.15450400 10067.62206460 0 305.91726241 0 2489.51258455 0 -113.51679574 0 -95.89818032 0 26061
0.15550000 0.15549900 9744.77521754 0 263.10279681 0 2487.29811959 0 418.85608280 0 190.87691478 0 26128
0.15650000 0.15649500 9542.45062613 0 210.83145857 0 2513.26272129 0 -16.77357559 0 242.13402806 0 26331
0.15750000 0.15749700 9428.42782515 0 135.00596375 0 2555.75830394 0 87.21061282 0 206.18772554 0 27345
0.15850000 0.15849900 9387.67059749 0 95.82742816 0 2572.48858674 0 -45.66082815 0 16.95715474 0 26980
0.15950000 0.15949700 9093.29069754 0 181.45547359 0 2432.39046081 0 -2.90372826 0 251.77580852 0 27777
0.16050000 0.16050000 9155.81611579 0 112.51142864 0 2381.86744266 0 324.03933645 0 321.58017310 0 28224
0.16150000 0.16150500 9121.49190885 0 -92.83590744 0 2177.19551839 0 229.76291954 0 462.05032915 0 28075
0.16250000 0.16249700 9232.44767586 0 -21.53899347 0 2441.60263506 0 165.99075752 0 207.20084326 0 28590
0.16350000 0.16349900 9189.24346441 0 189.46630060 0 2524.18003356 0 -46.30601252 0 340.22153917 0 29163
0.16450000 0.16449100 9072.97298149 0 181.21077521 0 2347.88647779 0 -332.87837335 0 397.43002704 0 28996
0.16550000 0.16550500 8828.91679784 0 262.67761953 0 2517.38162612 0 46.81201776 0 710.87647033 0 30777
0.16650000 0.16650700 8876.49457759 0 97.32806034 0 2488.21712255 0 271.48786839 0 341.05749969 0 29211
0.16750000 0.16749900 8587.91657584 0 -14.31330502 0 2449.16503291 0 318.97596231 0 149.66682904 0 30922
0.16850000 0.16850800 8495.87233962 0 237.91768677 0 2253.77171684 0 287.25375170 0 265.17885771 0 30867
0.16950000 0.16949900 8345.22228814 0 245.26528152 0 2274.91985724 0 -8.42916158 0 319.46203737 0 30852
0.17050000 0.17049200 8239.69196029 0 164.62553987 0 2003.19393386 0 -3.70850911 0 687.44521655 0 31257
0.17150000 0.17149500 7979.29302521 0 34.81958275 0 2061.57830263 0 175.97799451 0 717.56858345 0 32608
0.17250000 0.17250900 8061.97007463 0 -58.69184723 0 2001.02375820 0 404.72226017 0 526.74703029 0 32361
0.17350000 0.17350400 8253.07840100 0 -75.69727730 0 1906.31109170 0 297.71709865 0 600.98586097 0 32508
0.17450000 0.17449800 8210.87069879 0 37.69982661 0 1855.20124034 0 179.52999631 0 735.19572456 0 32791
0.17550000 0.17549800 8188.17243291 0 125.56791407 0 1742.71749251 0 18.25771001 0 757.70022476 0 33633
0.17650000 0.17650100 8104.88640563 0 44.08711862 0 1773.64249572 0 16.28561824 0 744.32817807 0 33984
0.17750000 0.17750300 8104.55423588 0 118.61892301 0 1579.02424239 0 -175.72886720 0 727.86806000 0 34069
0.17850000 0.17849800 8059.26842737 0 159.76478927 0 1828.05189988 0 -205.28200937 0 558.46813367 0 34536
