### header ###
fiducial parameters:
Omega_m = 0.31
Omega_nu = 0
Omega_de = 0.69
Omega_k = 0
H_0 = 100
w_de = -1
zeff = 0
beta = 0
fgrowth = 0
b_1 = 2
gamma = 0.55
Lx = 3500 Ly = 3500 Lz = 3500
nx = 700 ny = 700 nz = 700
xoffset = -685.467585 yoffset = -31.7331281 zoffset = 572.489161
bins = 400 dk = 0.001
kx_ny = 0.628318531 ky_ny = 0.628318531 kz_ny = 0.628318531
############################
A(data) = 7.97901393 (not used)
A(ran) = 7.9756973 (used)
Ngal = 474092
weighted Ngal = 0
Nran = 23820508
weighted Nran = 0
SN(data) = 3492.46519
SN(ran) = 69.471216
SN(data+ran) = 3561.9364
############################
13 columns: k_central k_mean P_0(k) sigma^{lin}_{P_0(k)} P^img_1(k) sigma^{lin}_{P_1(k)} P_2(k) sigma^{lin}_{P_2(k)} P^img_3(k) sigma^{lin}_{P_3(k)} P_4(k) sigma^{lin}_{P_4(k)} N_modes
### header ###
0.00050000 0 0 0 0 0 0 0 0 0 0 0 0
0.00150000 0.00179520 21619.82144089 0 -28343.60141026 0 1453.55265754 0 -43358.44892708 0 22389.23729254 0 3
0.00250000 0.00253879 23632.65936967 0 -5818.86100659 0 -11790.58652963 0 47189.36259109 0 52108.46433827 0 6
0.00350000 0.00331552 38989.53100014 0 -15307.15689203 0 276.70404061 0 -31145.67465211 0 -36428.17009984 0 7
0.00450000 0.00420575 45074.88072047 0 -19208.93343488 0 -27792.64252728 0 18016.33332866 0 -11019.11122557 0 24
0.00550000 0.00557378 79827.36518226 0 -24866.44852421 0 -27738.83102867 0 -7327.78636055 0 -36261.42088807 0 45
0.00650000 0.00659388 69326.15087776 0 -1435.13938137 0 -15461.39437676 0 -22350.92704866 0 9972.61044533 0 40
0.00750000 0.00754703 85977.26655628 0 19371.36443997 0 20712.77659175 0 -57472.45209666 0 -17788.35416064 0 57
0.00850000 0.00846663 70910.82200580 0 6716.67153684 0 38349.55062562 0 3152.25765889 0 21361.39337962 0 75
0.00950000 0.00948925 68658.82186094 0 -5349.40550661 0 32626.26592686 0 15094.90042526 0 12213.88150745 0 112
0.01050000 0.01054430 87271.62132758 0 -635.01332960 0 51773.96940549 0 26006.89798053 0 9299.46845798 0 105
0.01150000 0.01145670 80692.22447384 0 -3813.44153544 0 35281.74158812 0 38741.73237070 0 11576.22632114 0 144
0.01250000 0.01249090 82874.35824910 0 2595.05398472 0 27107.26562101 0 41949.27414741 0 36341.80596626 0 169
0.01350000 0.01339930 92130.26818125 0 -11792.46882485 0 946.04268439 0 29413.52015749 0 17657.70072778 0 180
0.01450000 0.01448870 86181.55094918 0 -8502.18356477 0 -8003.33104239 0 20613.23639163 0 6263.84666873 0 267
0.01550000 0.01550050 98846.85113949 0 -3097.79289311 0 -16345.40879028 0 -12126.29941813 0 10969.18611296 0 238
0.01650000 0.01653350 91482.09428636 0 9033.75480699 0 -155.14541536 0 -32540.12323978 0 -866.34187588 0 315
0.01750000 0.01747870 92359.24385850 0 9143.83586033 0 3912.46133629 0 -41615.00066114 0 3702.86222748 0 297
0.01850000 0.01844180 82325.28166134 0 7792.48076087 0 29870.25355625 0 -18435.64226954 0 -10025.80189376 0 388
0.01950000 0.01947590 77692.73168047 0 6038.80166679 0 29026.65312832 0 -1070.33838834 0 10689.25559690 0 399
0.02050000 0.02045430 77072.12787439 0 -2085.57203052 0 37602.72231660 0 11428.18933832 0 -10761.04855102 0 462
0.02150000 0.02154770 79302.53698585 0 -1906.31109170 0 31883.09148504 0 12991.04798647 0 -10275.99214536 0 571
0.02250000 0.02255340 76559.70068178 0 8888.23124189 0 15641.09820856 0 3154.32818364 0 -14646.69271660 0 510
0.02350000 0.02348930 74584.50865738 0 8521.81479667 0 28230.77442036 0 -2092.95727117 0 -5477.16906269 0 555
0.02450000 0.02439640 64825.25083898 0 6285.30483423 0 19478.87671396 0 -3988.53928012 0 5999.01880372 0 592
0.02550000 0.02547300 63194.74028618 0 2982.60749802 0 29208.12853210 0 -1193.98414682 0 -2541.81824699 0 837
0.02650000 0.02652900 60536.93943672 0 2052.38827303 0 21922.42807818 0 3170.10624650 0 -5265.88696050 0 723
0.02750000 0.02749970 59858.98098807 0 651.80008126 0 26386.56799856 0 5001.36912058 0 -19406.46370964 0 826
0.02850000 0.02848090 59711.94051448 0 -1830.79783644 0 27499.89025908 0 5813.77880950 0 -9376.64256197 0 831
0.02950000 0.02946900 61400.35932607 0 -2198.05577835 0 25596.11472976 0 8170.89960619 0 -6415.53751874 0 996
0.03050000 0.03053250 64020.62499441 0 -2423.82048140 0 25523.14810921 0 4170.93368686 0 -6369.33270728 0 1041
0.03150000 0.03150510 61229.62407737 0 6225.04924256 0 18327.46565606 0 7175.76334079 0 2226.76631660 0 1036
0.03250000 0.03246190 58356.79867992 0 6424.58360812 0 18641.58751117 0 4808.96533221 0 4906.54573084 0 1059
0.03350000 0.03345080 54327.24750867 0 2211.19862791 0 18523.99942160 0 7505.34216134 0 9513.65150928 0 1302
0.03450000 0.03451200 51944.48320770 0 -238.87876457 0 16033.61212339 0 7589.59148089 0 6583.37181835 0 1339
0.03550000 0.03553350 51817.37291878 0 1664.03755234 0 14657.54359492 0 4158.57697236 0 7910.55603273 0 1365
0.03650000 0.03647120 51018.06179012 0 1283.89142435 0 16289.05065695 0 -3989.22576426 0 14112.67449060 0 1308
0.03750000 0.03744890 48269.57860039 0 1391.53656623 0 18926.47842875 0 -1998.82036556 0 10629.45397055 0 1579
0.03850000 0.03847530 48235.91873294 0 2991.70894902 0 20245.85665414 0 1609.37348472 0 10344.00943673 0 1662
0.03950000 0.03950240 46540.63507996 0 1542.59629373 0 21614.94961797 0 -4133.14384225 0 7606.38819764 0 1683
0.04050000 0.04050350 44898.38786286 0 1234.19883056 0 21412.21535054 0 864.87590007 0 1883.71247675 0 1822
0.04150000 0.04152450 43386.35118562 0 2976.39592380 0 20808.55220143 0 -3300.29464172 0 -4858.74650459 0 1887
0.04250000 0.04250150 40056.68166616 0 2728.65265598 0 19516.30117184 0 -1319.98720325 0 1308.63807032 0 1920
0.04350000 0.04349210 40771.62167970 0 -115.46331044 0 22131.14140101 0 2185.37796643 0 1793.81627154 0 2005
0.04450000 0.04448520 39546.46893852 0 -2104.46141666 0 18387.92054957 0 7665.53655682 0 3587.51074752 0 2151
0.04550000 0.04548030 41170.88971266 0 -570.14722189 0 14879.32226104 0 9412.51689438 0 -3289.76486082 0 2274
0.04650000 0.04648670 40736.19024028 0 717.74020449 0 12840.68581543 0 3424.21610109 0 2386.25208329 0 2311
0.04750000 0.04749250 39267.00346010 0 1230.98785636 0 10792.57145978 0 42.51529139 0 1775.75730976 0 2568
0.04850000 0.04851840 38395.05788063 0 449.89291650 0 12443.41080094 0 -1479.61691017 0 4829.99167704 0 2493
0.04950000 0.04949480 38909.81026145 0 1219.70515737 0 15121.03111183 0 -1600.61527578 0 3584.22226704 0 2644
0.05050000 0.05050630 36660.13530479 0 1254.33938941 0 16455.24625248 0 1002.83374561 0 5729.13088626 0 2829
0.05150000 0.05149060 37360.68129607 0 926.61186156 0 15029.13081584 0 1025.84535829 0 962.49173014 0 2784
0.05250000 0.05249300 34114.82927548 0 1457.17330776 0 15785.25987770 0 -394.88449956 0 1763.47810154 0 3055
0.05350000 0.05348950 34730.56125865 0 2689.50091542 0 16275.87459042 0 1934.08048235 0 1505.69223511 0 3009
0.05450000 0.05448610 33082.44570939 0 91.94070998 0 15018.72283051 0 106.56248997 0 3454.86429619 0 3336
0.05550000 0.05550870 33051.11103016 0 -1299.32624514 0 12368.00826892 0 1780.57377106 0 1888.50679339 0 3349
0.05650000 0.05647670 34935.39926779 0 -395.26870924 0 13314.47059442 0 -1853.15286025 0 -220.76665563 0 3324
0.05750000 0.05747970 35033.72151218 0 -196.26913697 0 12489.13950244 0 36.78602764 0 -532.80912813 0 3639
0.05850000 0.05849280 34165.87269290 0 697.56642867 0 12577.49665449 0 74.29319579 0 -471.94788030 0 3846
0.05950000 0.05951020 33765.38670421 0 983.86463874 0 11428.96440105 0 2248.34627767 0 -1745.02053607 0 3787
0.06050000 0.06049470 33827.61316969 0 -59.36969495 0 11908.83895870 0 2255.10039581 0 -3107.60297290 0 3930
0.06150000 0.06148310 33170.35996845 0 630.76930750 0 9998.09893707 0 999.78553459 0 -4560.43592933 0 4083
0.06250000 0.06249100 33046.01776074 0 759.41089894 0 11601.58194498 0 -941.38234287 0 -3346.73197201 0 4303
0.06350000 0.06350600 32315.90866220 0 222.65448701 0 12223.40370679 0 -1879.88145236 0 -1314.71677664 0 4470
0.06450000 0.06451750 32206.29264649 0 934.72566119 0 12499.21531803 0 787.16035940 0 -2458.07825439 0 4479
0.06550000 0.06550280 32011.53045293 0 107.30256416 0 13458.41081706 0 -94.67214179 0 -796.70913233 0 4636
0.06650000 0.06648880 31309.32361293 0 583.89794208 0 14225.16931076 0 1612.18585522 0 -2338.36427845 0 4653
0.06750000 0.06749660 31478.28728967 0 1523.49653342 0 14446.28363738 0 -367.86802701 0 -925.74379130 0 5220
0.06850000 0.06852730 29987.06658309 0 1418.73019599 0 15458.40484906 0 -1003.52465868 0 -101.94876294 0 5029
0.06950000 0.06949320 29454.48775931 0 194.03695628 0 14615.46876061 0 1015.25689406 0 1231.34217076 0 5040
0.07050000 0.07048030 29222.30110787 0 -363.06042357 0 15701.66382532 0 889.79970324 0 961.68455766 0 5475
0.07150000 0.07148790 28884.15230791 0 587.51969953 0 14989.71333948 0 2548.25126771 0 271.08151407 0 5509
0.07250000 0.07249820 28877.73035951 0 758.28816520 0 14080.89691837 0 1352.63948915 0 887.29514336 0 5916
0.07350000 0.07351270 27668.85393581 0 1504.44106241 0 13166.87650459 0 818.19830033 0 1300.73243040 0 5721
0.07450000 0.07449140 27034.85261670 0 549.37886222 0 11817.93517193 0 1733.04028061 0 3204.14257299 0 6028
0.07550000 0.07549160 26053.62319127 0 371.97696675 0 11242.83862085 0 1984.26025842 0 780.00874480 0 6183
0.07650000 0.07648840 25938.69245965 0 163.86487115 0 10153.60973914 0 2122.65324633 0 2217.32162353 0 6330
0.07750000 0.07749960 25483.95207935 0 -60.29822011 0 9282.63852426 0 382.51892721 0 -60.64367665 0 6583
0.07850000 0.07848650 25443.42737051 0 1047.56040172 0 8558.69671064 0 891.28339476 0 813.11721047 0 6549
0.07950000 0.07947320 24274.52203941 0 1064.24307352 0 8809.90561613 0 -344.62168105 0 -421.81017906 0 6828
0.08050000 0.08048110 23232.83772047 0 1070.25313144 0 7948.14657549 0 539.16242811 0 -837.05889843 0 7147
0.08150000 0.08149960 23223.20479788 0 -90.60439110 0 7615.37892539 0 273.49970981 0 -618.23654304 0 7386
0.08250000 0.08250610 22973.30242672 0 -611.09600076 0 7475.92299430 0 779.47948768 0 -1159.41634873 0 7227
0.08350000 0.08350160 23520.16454951 0 -227.42112285 0 7769.31745735 0 1134.64755812 0 -2334.66612196 0 7798
0.08450000 0.08449610 22674.12821012 0 364.19976579 0 7435.14362199 0 908.92382267 0 -1499.42529927 0 7371
0.08550000 0.08548940 22576.35958197 0 1048.70306564 0 6602.38300006 0 105.03495203 0 -40.12056898 0 8256
0.08650000 0.08650700 21495.14706343 0 621.99006115 0 7078.80299236 0 527.34272137 0 445.01887911 0 8037
0.08750000 0.08749060 21751.80355273 0 611.08492844 0 6985.69581296 0 703.28528444 0 1249.66686833 0 8155
0.08850000 0.08849210 20537.50168987 0 880.54323969 0 7731.31723857 0 166.14355560 0 2010.45737895 0 8718
0.08950000 0.08949900 20236.77734779 0 382.00406410 0 7334.37439382 0 731.74558815 0 2652.03216824 0 8571
0.09050000 0.09049190 19853.78563231 0 338.12886978 0 7028.52356535 0 542.56716800 0 3252.97152544 0 8932
0.09150000 0.09150830 19750.70228825 0 523.43308348 0 6625.85632868 0 645.46781870 0 2009.25049554 0 9285
0.09250000 0.09250820 19247.68657174 0 123.97460653 0 6008.30848424 0 519.27985444 0 2688.39368294 0 9204
0.09350000 0.09350330 18929.13578671 0 330.64840713 0 5666.53903406 0 236.68090809 0 955.00573133 0 9349
0.09450000 0.09448040 18929.80012620 0 85.53315561 0 6397.73322044 0 -48.22551075 0 1745.99490065 0 9564
0.09550000 0.09549270 18602.05931157 0 144.61009829 0 6022.11567329 0 258.64840053 0 144.72857217 0 10155
0.09650000 0.09649430 18608.37053671 0 266.99361175 0 6093.04498608 0 -1248.99145652 0 -122.19417670 0 9913
0.09750000 0.09749140 18241.32296898 0 508.89069206 0 7090.90504338 0 -480.04285698 0 -309.06180266 0 10476
0.09850000 0.09850240 17722.36310473 0 577.26894121 0 7156.34248306 0 -889.35238132 0 224.66522120 0 10575
0.09950000 0.09950330 17878.03999168 0 202.10646661 0 7948.82198731 0 -88.97598429 0 731.50974763 0 10882
0.10050000 0.10051200 17601.78548745 0 -77.49132609 0 7351.52542496 0 320.09315988 0 514.21980200 0 10875
0.10150000 0.10150300 17680.28827041 0 189.66006628 0 7448.82901547 0 1539.45175349 0 519.93865776 0 11118
0.10250000 0.10250800 17411.34150057 0 247.59157697 0 6530.44610571 0 892.68072216 0 -118.17492279 0 11575
0.10350000 0.10349800 16976.30985844 0 305.61609518 0 6596.32643838 0 509.42327088 0 -118.57020479 0 11364
0.10450000 0.10450100 16895.70333377 0 364.86299805 0 6139.47124404 0 -252.93508092 0 -273.67354531 0 12093
0.10550000 0.10551000 16528.87721252 0 545.28985267 0 6441.74571159 0 -845.27456345 0 -456.52966799 0 12067
0.10650000 0.10649700 16141.67801362 0 549.24488709 0 6680.34323911 0 -561.89501820 0 -497.30128967 0 12054
0.10750000 0.10749900 15788.80302165 0 398.73988307 0 6515.48739488 0 -1.12028675 0 -42.71880072 0 12807
0.10850000 0.10850100 15683.17304288 0 -18.73094117 0 6444.69094999 0 805.78733144 0 -143.25263127 0 12736
0.10950000 0.10950300 15884.35718483 0 -449.40794867 0 6062.70681607 0 1205.93118530 0 -730.18992651 0 12933
0.11050000 0.11050200 15693.24885846 0 53.71760530 0 6131.82026759 0 1160.93325724 0 -1114.37413137 0 13428
0.11150000 0.11150900 15444.56444303 0 691.46889939 0 5397.01650333 0 377.89180267 0 -599.63946627 0 13453
0.11250000 0.11250000 14817.20651881 0 740.56137317 0 5040.32155929 0 205.84226901 0 -326.01131750 0 13668
0.11350000 0.11349100 14418.49210209 0 334.68648399 0 5309.29047379 0 -333.33344590 0 330.59083104 0 13791
0.11450000 0.11448600 14373.31701683 0 4.30953705 0 5294.18782274 0 335.99301832 0 311.16775884 0 14205
0.11550000 0.11549300 14395.35094322 0 -52.54427104 0 5512.01366889 0 343.73035890 0 333.78187505 0 14776
0.11650000 0.11649800 14549.25625820 0 -188.50965173 0 5234.54120894 0 252.34049708 0 521.03592515 0 14553
0.11750000 0.11747300 14517.36796272 0 -56.24951382 0 5074.74541716 0 1091.51088785 0 1013.28823471 0 14568
0.11850000 0.11849100 14455.80583673 0 90.49112122 0 4621.43336676 0 792.62565893 0 1394.16070722 0 16015
0.11950000 0.11950300 14250.74638109 0 446.63543853 0 4336.94105287 0 738.15092806 0 1072.02470341 0 15270
0.12050000 0.12050700 13924.00207569 0 602.18388652 0 4031.32274322 0 483.35458933 0 1253.29859087 0 15999
0.12150000 0.12150000 13283.13591519 0 274.99225920 0 3817.88153769 0 -142.61154366 0 1694.60824117 0 15670
0.12250000 0.12250700 13300.40874190 0 229.73856043 0 3744.06234813 0 -133.46580336 0 1777.61746033 0 16887
0.12350000 0.12352200 13330.96835840 0 -275.65106252 0 3663.73263157 0 225.75473796 0 1470.18328942 0 16407
0.12450000 0.12449800 13423.09010089 0 -63.52569208 0 3773.26006867 0 -33.39136357 0 983.69966110 0 16306
0.12550000 0.12549900 13454.20333363 0 288.49274485 0 3814.70378047 0 -320.29135449 0 663.95195775 0 17523
0.12650000 0.12650100 13019.50386125 0 317.20106864 0 3833.34957546 0 -496.19848612 0 44.66531543 0 17154
0.12750000 0.12750600 13068.44353695 0 124.74856203 0 3657.35497247 0 125.64542034 0 686.57936075 0 18007
0.12850000 0.12850300 12921.84595635 0 -143.91143460 0 3984.61967714 0 -186.21103710 0 78.18733243 0 17496
0.12950000 0.12949900 13151.04308010 0 274.11311661 0 4107.62213355 0 -119.96421048 0 -369.84665145 0 18405
0.13050000 0.13049000 12866.70577876 0 287.11756210 0 4182.60391722 0 -455.13344783 0 -540.64944134 0 18100
0.13150000 0.13148800 12613.81387990 0 348.47042116 0 4171.53159240 0 -470.80743085 0 -371.02696128 0 19059
0.13250000 0.13249300 12302.12793625 0 319.92928947 0 4468.36954846 0 -110.96573210 0 -339.01354853 0 18957
0.13350000 0.13349100 12094.52184590 0 145.64203897 0 4423.51556062 0 505.69189742 0 -357.74127873 0 19468
0.13450000 0.13450700 12072.59864276 0 -113.27209736 0 3905.58542258 0 993.24289786 0 -578.30752528 0 19953
0.13550000 0.13551000 11972.72627290 0 8.14696124 0 3532.10483412 0 642.72741831 0 -1011.63845831 0 19956
0.13650000 0.13649900 11923.45442746 0 201.93041665 0 3309.73933479 0 109.24930031 0 -1196.85187895 0 19723
0.13750000 0.13749600 11721.71666926 0 346.80403627 0 3427.73710038 0 -171.64207211 0 -233.04143492 0 20946
0.13850000 0.13851100 11453.87713190 0 97.77593588 0 3226.71904330 0 -131.28676984 0 -419.47945468 0 20955
0.13950000 0.13949800 11381.79629733 0 -3.62651855 0 3553.13117895 0 333.68333136 0 -155.09448266 0 20506
0.14050000 0.14048300 11599.69964976 0 137.90137669 0 3490.73862860 0 379.27252157 0 -367.88020656 0 21447
0.14150000 0.14148400 11327.87407546 0 211.25552861 0 3450.77860833 0 340.35329983 0 -15.68140147 0 21771
0.14250000 0.14249400 11226.00868713 0 67.23049196 0 3379.79393392 0 49.93972808 0 385.90152244 0 22470
0.14350000 0.14350900 11083.06497372 0 222.38985845 0 3443.49301860 0 484.62237052 0 503.71548744 0 22519
0.14450000 0.14449900 10933.97612004 0 285.21976563 0 3508.87509665 0 -55.20196117 0 546.25757386 0 22218
0.14550000 0.14550500 10831.52389849 0 209.68215125 0 3267.34340306 0 287.55270447 0 928.69678033 0 23559
0.14650000 0.14650700 10591.91878941 0 138.24683322 0 3604.48462146 0 -344.95052910 0 873.42262760 0 23044
0.14750000 0.14750500 10515.95156883 0 148.56956165 0 3443.21621048 0 36.77351591 0 1064.54645522 0 23649
0.14850000 0.14849900 10421.75930160 0 179.37276929 0 3499.76257333 0 8.45820429 0 834.96955074 0 23640
0.14950000 0.14949500 10312.75226376 0 183.56364424 0 3403.83195110 0 66.18382509 0 1018.96723011 0 24457
0.15050000 0.15050000 10273.45658298 0 40.06520736 0 3566.79442778 0 -62.27529443 0 569.88037886 0 24591
0.15150000 0.15149900 10006.39210836 0 127.03388988 0 3454.04494415 0 274.08432856 0 176.51610949 0 25020
0.15250000 0.15250500 9999.87050904 0 245.91411976 0 3477.50720044 0 -171.58338878 0 -29.68158114 0 25297
0.15350000 0.15350100 9959.73333157 0 39.15727672 0 3363.48439946 0 13.54721086 0 54.77800185 0 25452
0.15450000 0.15450400 9826.35610680 0 -8.30490795 0 3287.25144308 0 -183.78176904 0 -84.74624548 0 26061
0.15550000 0.15549900 9958.26071237 0 157.28237405 0 3332.74762576 0 -37.18684580 0 -266.56954171 0 26128
0.15650000 0.15649500 9710.92712057 0 272.39247733 0 3540.06583567 0 210.73070041 0 -117.17730632 0 26331
0.15750000 0.15749700 9508.73539706 0 209.61239561 0 3301.42401885 0 301.15616274 0 112.17261551 0 27345
0.15850000 0.15849900 9381.83548231 0 29.53741947 0 3228.39096435 0 611.26319287 0 207.56955168 0 26980
0.15950000 0.15949700 9291.19743134 0 14.01623454 0 2878.51657240 0 556.28910014 0 256.88900812 0 27777
0.16050000 0.16050000 9444.44947916 0 -89.79234680 0 2763.44190056 0 506.74708997 0 452.68314235 0 28224
0.16150000 0.16150500 9283.93398626 0 75.06028645 0 2496.44385989 0 329.60760860 0 552.90429045 0 28075
0.16250000 0.16249700 9325.61021688 0 85.96065807 0 2479.90180661 0 21.09809350 0 771.16306450 0 28590
0.16350000 0.16349900 9077.63443024 0 174.84086675 0 2239.14517575 0 341.15604338 0 785.55597954 0 29163
0.16450000 0.16449100 9125.31186091 0 182.33350895 0 2402.68341332 0 72.28246160 0 1091.11449863 0 28996
0.16550000 0.16550500 8865.97586901 0 95.43690727 0 2324.30242593 0 285.23194519 0 996.84140342 0 30777
0.16650000 0.16650700 8732.56542727 0 177.00882795 0 2186.57377751 0 497.16399284 0 1260.26308318 0 29211
0.16750000 0.16749900 8614.98841002 0 156.79076283 0 2102.65662771 0 209.95785214 0 1106.84052157 0 30922
0.16850000 0.16850800 8549.92742939 0 149.44427531 0 2049.77520438 0 78.05667900 0 1353.27061166 0 30867
0.16950000 0.16949900 8402.16725468 0 124.20823258 0 2140.90043763 0 -19.95100064 0 1391.04938394 0 30852
0.17050000 0.17049200 8277.82504697 0 124.46953945 0 2031.97090607 0 -165.06400393 0 1882.82669076 0 31257
0.17150000 0.17149500 8358.87446464 0 -23.20283172 0 2090.26669624 0 23.83838316 0 1373.21186866 0 32608
0.17250000 0.17250900 8249.52418473 0 96.76348250 0 2120.06232233 0 -48.29172325 0 1104.60944812 0 32361
0.17350000 0.17350400 8165.86169840 0 200.70028136 0 2140.71220811 0 -38.88943718 0 1023.90991591 0 32508
0.17450000 0.17449800 8046.96707450 0 89.06954543 0 1837.13120623 0 -21.22110702 0 1018.14677084 0 32791
0.17550000 0.17549800 7998.90211246 0 31.60805494 0 1884.94150480 0 -10.69937570 0 674.30125976 0 33633
0.17650000 0.17650100 8003.22031914 0 123.11207243 0 1799.85068857 0 211.70727946 0 606.80658213 0 33984
0.17750000 0.17750300 7809.58750271 0 107.00073258 0 1894.84016319 0 -31.37642190 0 611.99618077 0 34069
0.17850000 0.17849800 7756.59535613 0 188.94368687 0 1585.29117823 0 98.12327471 0 526.38053634 0 34536
