### header ###
fiducial parameters:
Omega_m = 0.31
Omega_nu = 0
Omega_de = 0.69
Omega_k = 0
H_0 = 100
w_de = -1
zeff = 0
beta = 0
fgrowth = 0
b_1 = 2
gamma = 0.55
Lx = 3500 Ly = 3500 Lz = 3500
nx = 700 ny = 700 nz = 700
xoffset = -685.467585 yoffset = -31.7331281 zoffset = 572.489161
bins = 400 dk = 0.001
kx_ny = 0.628318531 ky_ny = 0.628318531 kz_ny = 0.628318531
############################
A(data) = 8.04052108 (not used)
A(ran) = 8.0379803 (used)
Ngal = 477767
weighted Ngal = 0
Nran = 23820508
weighted Nran = 0
SN(data) = 3493.48196
SN(ran) = 70.0137235
SN(data+ran) = 3563.49569
############################
13 columns: k_central k_mean P_0(k) sigma^{lin}_{P_0(k)} P^img_1(k) sigma^{lin}_{P_1(k)} P_2(k) sigma^{lin}_{P_2(k)} P^img_3(k) sigma^{lin}_{P_3(k)} P_4(k) sigma^{lin}_{P_4(k)} N_modes
### header ###
0.00050000 0 0 0 0 0 0 0 0 0 0 0 0
0.00150000 0.00179520 8635.94832090 0 -15644.86279900 0 37156.39690317 0 -83996.75981597 0 -66925.00651758 0 3
0.00250000 0.00253879 34207.39391097 0 -43589.41762280 0 -31621.45244957 0 56636.27012635 0 43669.80270098 0 6
0.00350000 0.00331552 48029.97349132 0 -49386.44400485 0 -38574.31881944 0 5645.06979624 0 201.25057590 0 7
0.00450000 0.00420575 72584.73607188 0 -28347.14455420 0 -53107.63092990 0 -5036.41302863 0 -24454.77948746 0 24
0.00550000 0.00557378 105220.19202835 0 -39977.29309721 0 -63679.81883649 0 -35099.82329135 0 -16211.10149023 0 45
0.00650000 0.00659388 95519.72825473 0 -1356.37086261 0 -89778.06349677 0 -44831.28957446 0 12463.11953912 0 40
0.00750000 0.00754703 103762.96335897 0 11764.01295007 0 -34381.00796412 0 -38594.91334360 0 -25685.13622130 0 57
0.00850000 0.00846663 101929.27564575 0 2266.89242175 0 -57903.60842510 0 -25045.37729328 0 8763.25791167 0 75
0.00950000 0.00948925 77040.23957891 0 10511.69979610 0 -52392.13730012 0 -26998.09249830 0 -13250.58328022 0 112
0.01050000 0.01054430 84584.14664760 0 -8004.09503280 0 -60673.90409472 0 -30836.75678967 0 -7780.10190172 0 105
0.01150000 0.01145670 87704.65995123 0 -3699.83948280 0 -40313.11670896 0 -59677.28413780 0 -24108.65861362 0 144
0.01250000 0.01249090 89663.57565815 0 7300.65916475 0 -19159.44014294 0 -58353.25553598 0 2613.33439300 0 169
0.01350000 0.01339930 73025.85749266 0 9072.46365455 0 -8065.94503924 0 -37452.36014557 0 -16187.40671512 0 180
0.01450000 0.01448870 79147.41371514 0 7507.54555398 0 17139.73737277 0 -28856.13932612 0 -17366.05569206 0 267
0.01550000 0.01550050 86097.51200381 0 9603.83559492 0 47324.33423062 0 -8867.37098194 0 -21968.48894943 0 238
0.01650000 0.01653350 69018.00807805 0 9673.05976969 0 37810.54985345 0 6749.70028177 0 -21161.53791665 0 315
0.01750000 0.01747870 67633.19241299 0 3683.80675646 0 40205.27226523 0 4841.63976275 0 -35946.30252374 0 297
0.01850000 0.01844180 65724.10216775 0 294.86708225 0 36804.29697393 0 10670.64301888 0 -24768.79061931 0 388
0.01950000 0.01947590 67809.68527059 0 -827.57877392 0 32347.68623443 0 11060.69887759 0 -20672.80549915 0 399
0.02050000 0.02045430 65766.50917181 0 -5217.15765897 0 23187.88408171 0 11071.21758616 0 -16465.65423781 0 462
0.02150000 0.02154770 76862.19659582 0 -6537.53239360 0 15686.05184733 0 16392.24472426 0 -16235.12843508 0 571
0.02250000 0.02255340 71870.79256758 0 -2755.55840529 0 5795.58697982 0 14984.50934682 0 -2311.91249446 0 510
0.02350000 0.02348930 77888.71182976 0 4970.89808268 0 14656.87925543 0 7205.40395433 0 -16399.55245864 0 555
0.02450000 0.02439640 70555.84327212 0 7369.61760372 0 8653.61975131 0 -2470.47925819 0 11525.62579672 0 592
0.02550000 0.02547300 65663.97944399 0 5220.16933132 0 14767.15961063 0 -636.16042246 0 4174.98615774 0 837
0.02650000 0.02652900 62760.04081380 0 -750.83649060 0 17034.32884049 0 -7967.39027603 0 17182.69799306 0 723
0.02750000 0.02749970 66240.51539730 0 -1534.11489292 0 21745.71377408 0 -3994.92801154 0 -3770.09338377 0 826
0.02850000 0.02848090 66992.99059197 0 4506.41405654 0 27503.43340302 0 -13668.89571187 0 1814.28900013 0 831
0.02950000 0.02946900 66758.25730582 0 4383.77698685 0 33853.85457951 0 -10187.92287376 0 -3095.39019863 0 996
0.03050000 0.03053250 61192.75323572 0 1925.18940552 0 35362.12666630 0 -4475.75478912 0 228.51285407 0 1041
0.03150000 0.03150510 63089.44247716 0 3.14630075 0 35177.99390457 0 4667.19528523 0 -11264.54037750 0 1036
0.03250000 0.03246190 60390.89547236 0 -8.28511064 0 24719.96166686 0 10829.33157818 0 -22981.93884008 0 1059
0.03350000 0.03345080 60812.30815495 0 -118.33436427 0 23478.75405469 0 9445.82244744 0 -15155.35531877 0 1302
0.03450000 0.03451200 55565.68703964 0 2895.82261609 0 16754.19902258 0 7596.95457689 0 -21496.14357266 0 1339
0.03550000 0.03553350 54178.32473986 0 2527.85604540 0 10144.32005862 0 10438.45636743 0 -13604.56550467 0 1365
0.03650000 0.03647120 51756.80730202 0 717.06589991 0 7272.41366414 0 3966.39463048 0 -17300.17535939 0 1308
0.03750000 0.03744890 50138.80847628 0 1422.29548458 0 6330.59064274 0 1602.94046400 0 -11434.61128671 0 1579
0.03850000 0.03847530 49640.44313619 0 4401.02766892 0 7757.18218935 0 -3194.08890206 0 -4477.64815666 0 1662
0.03950000 0.03950240 44387.51079573 0 3016.57739057 0 10500.37280781 0 -2452.27635618 0 4847.75168605 0 1683
0.04050000 0.04050350 43820.60776501 0 -458.04657649 0 9598.38801111 0 3142.96797837 0 5038.01851573 0 1822
0.04150000 0.04152450 44392.05044890 0 384.41229475 0 12768.93715061 0 5026.96833556 0 1023.54010026 0 1887
0.04250000 0.04250150 43202.99348663 0 1545.94013583 0 11024.34843521 0 2633.38637324 0 9586.86172098 0 1920
0.04350000 0.04349210 42535.99663955 0 1371.81675573 0 11607.89317012 0 836.66361643 0 5775.19175751 0 2005
0.04450000 0.04448520 41549.23105171 0 1333.91618788 0 12706.82140837 0 -2089.65771837 0 9594.40197418 0 2151
0.04550000 0.04548030 40584.05649727 0 1858.88832450 0 16969.66646355 0 -3662.24894004 0 3138.17366172 0 2274
0.04650000 0.04648670 38867.73542714 0 1227.95403936 0 16819.52573901 0 -2459.26299314 0 8539.55266103 0 2311
0.04750000 0.04749250 39996.44821915 0 61.33049296 0 17874.71829423 0 427.14482516 0 7813.63997360 0 2568
0.04850000 0.04851840 39447.70380114 0 234.89051317 0 18557.77001229 0 3356.99601712 0 6969.27555525 0 2493
0.04950000 0.04949480 39282.06182185 0 1315.73543052 0 15691.58800974 0 3550.17486823 0 4914.69496190 0 2644
0.05050000 0.05050630 37613.35174843 0 770.09679962 0 14638.05630324 0 2225.18297415 0 5871.74242993 0 2829
0.05150000 0.05149060 37343.07629961 0 990.02417303 0 13402.05268374 0 390.99257739 0 2503.45264150 0 2784
0.05250000 0.05249300 35985.72000009 0 1210.22724733 0 15343.36339419 0 -988.67777833 0 989.13395812 0 3055
0.05350000 0.05348950 35330.34909407 0 1481.51027771 0 14837.69031972 0 -622.76290942 0 2613.09080185 0 3009
0.05450000 0.05448610 34150.26071490 0 1.13916507 0 14554.46025086 0 384.03251401 0 4419.75097018 0 3336
0.05550000 0.05550870 35249.63184615 0 19.10031393 0 16751.87383437 0 2296.06799764 0 607.12103615 0 3349
0.05650000 0.05647670 34800.64907475 0 -860.37167834 0 14205.46057258 0 1198.54594464 0 2755.63591157 0 3324
0.05750000 0.05747970 35895.48055282 0 761.61982774 0 14609.15753547 0 619.45006984 0 1177.57496144 0 3639
0.05850000 0.05849280 34448.43842227 0 991.00739548 0 13571.01636047 0 526.19452129 0 4499.16168378 0 3846
0.05950000 0.05951020 34063.34296508 0 142.21293997 0 12875.34219211 0 74.62935157 0 -0.41227469 0 3787
0.06050000 0.06049470 34141.51357830 0 -1154.74382766 0 10825.33446892 0 3206.63384608 0 -187.56296796 0 3930
0.06150000 0.06148310 33949.51946594 0 -396.33054519 0 10941.72674741 0 -1382.49047686 0 -5121.50384486 0 4083
0.06250000 0.06249100 34583.18861531 0 751.83078537 0 11638.67423312 0 -1271.34648033 0 -5641.16126558 0 4303
0.06350000 0.06350600 34343.80495273 0 898.42393704 0 11591.28468290 0 -1631.76172550 0 -5624.97352669 0 4470
0.06450000 0.06451750 33197.37644101 0 762.85882089 0 11255.23962465 0 -853.02961975 0 -4517.56388763 0 4479
0.06550000 0.06550280 33079.45618169 0 207.43336208 0 11204.63910023 0 166.13580497 0 -3971.10036853 0 4636
0.06650000 0.06648880 33557.22699762 0 860.44918461 0 14054.43406205 0 1818.60720681 0 -4525.97885449 0 4653
0.06750000 0.06749660 32258.66474289 0 1255.71235768 0 11795.01545956 0 683.33074065 0 -2390.74744717 0 5220
0.06850000 0.06852730 30717.84002112 0 1800.32679854 0 10909.49520986 0 2546.23610460 0 -2932.57166217 0 5029
0.06950000 0.06949320 29558.12471962 0 1157.60048746 0 9601.88686576 0 1708.06111582 0 -881.98374915 0 5040
0.07050000 0.07048030 28087.16636746 0 453.84020029 0 8834.24258608 0 875.58726710 0 -1109.45801915 0 5475
0.07150000 0.07148790 28187.37090707 0 461.21990479 0 8145.33360819 0 1446.53280361 0 -24.98946205 0 5509
0.07250000 0.07249820 27452.61143210 0 668.98432938 0 8348.84293835 0 -291.52324015 0 -1155.46352877 0 5916
0.07350000 0.07351270 26969.85807001 0 874.81995499 0 8957.15646389 0 -779.06648996 0 94.76016677 0 5721
0.07450000 0.07449140 26913.16776694 0 -24.86201959 0 10838.95342844 0 -231.20453624 0 1062.83688827 0 6028
0.07550000 0.07549160 26835.77221646 0 143.15519481 0 10610.73066928 0 -151.83036131 0 6.91276241 0 6183
0.07650000 0.07648840 26230.66966512 0 710.86982694 0 12130.39617832 0 581.59932745 0 276.39512275 0 6330
0.07750000 0.07749960 25624.68132779 0 1039.44328039 0 11301.96483539 0 1087.81937476 0 1247.24202920 0 6583
0.07850000 0.07848650 25295.05821794 0 321.85919569 0 10112.22138897 0 1775.96768394 0 838.01111836 0 6549
0.07950000 0.07947320 24984.81167652 0 -712.87613219 0 8169.86987999 0 2266.51596270 0 17.57222238 0 6828
0.08050000 0.08048110 25348.09465382 0 -205.38276753 0 8069.38853226 0 1261.50318356 0 2.22332282 0 7147
0.08150000 0.08149960 25117.79029760 0 712.63254105 0 7243.04985872 0 177.62777090 0 -1729.56357062 0 7386
0.08250000 0.08250610 24177.63919724 0 904.24465820 0 6598.43018010 0 1120.71857349 0 1057.58528461 0 7227
0.08350000 0.08350160 23264.39384620 0 633.34805195 0 6100.35272046 0 -19.20417234 0 1108.66081177 0 7798
0.08450000 0.08449610 23567.11120674 0 353.11304695 0 7145.02656710 0 1823.88870575 0 2069.99326950 0 7371
0.08550000 0.08548940 22823.38314868 0 184.16597871 0 6821.68146542 0 1663.35106821 0 2304.53832613 0 8256
0.08650000 0.08650700 22696.71575275 0 131.86363796 0 7076.82104621 0 95.41443045 0 1905.51388431 0 8037
0.08750000 0.08749060 22799.57765032 0 430.92602408 0 7403.57642394 0 -1339.86202630 0 1888.76145686 0 8155
0.08850000 0.08849210 22766.47139911 0 305.31382071 0 7536.58826198 0 -1961.16338885 0 1115.82460592 0 8718
0.08950000 0.08949900 22362.99588272 0 500.46133118 0 7395.02858918 0 -1336.08636354 0 1161.76368160 0 8571
0.09050000 0.09049190 21951.65901570 0 632.29728833 0 7252.00736949 0 803.42892626 0 -379.62905043 0 8932
0.09150000 0.09150830 20758.28384675 0 698.74895296 0 6180.10667613 0 1187.38504123 0 -956.64664987 0 9285
0.09250000 0.09250820 20182.85512592 0 1002.94114717 0 5667.71270049 0 1624.74187156 0 -2158.79331454 0 9204
0.09350000 0.09350330 18992.91237766 0 774.88447288 0 5089.44946451 0 1610.05996885 0 -621.62135274 0 9349
0.09450000 0.09448040 18308.64270387 0 694.85703078 0 5077.74601718 0 276.19360644 0 -616.68752480 0 9564
0.09550000 0.09549270 18026.74131399 0 -86.26990810 0 5417.19027915 0 -257.20456937 0 -349.07164840 0 10155
0.09650000 0.09649430 18222.05712379 0 118.87358649 0 6381.87765130 0 -1714.94810186 0 -814.57432842 0 9913
0.09750000 0.09749140 18415.15846863 0 306.38672899 0 7222.36675595 0 -1313.88635228 0 -336.41487389 0 10476
0.09850000 0.09850240 18692.07731234 0 -234.19074224 0 8001.34909625 0 -1366.16987007 0 539.62525129 0 10575
0.09950000 0.09950330 18841.00008115 0 -100.35025140 0 7362.37630329 0 1028.45178355 0 -466.43386254 0 10882
0.10050000 0.10051200 18434.97793005 0 342.57772989 0 7732.62377290 0 1438.02925815 0 -595.58699539 0 10875
0.10150000 0.10150300 18041.02461301 0 922.45863252 0 6430.38550633 0 1730.70402008 0 127.88202996 0 11118
0.10250000 0.10250800 17114.04957919 0 607.51631815 0 5544.77667803 0 1975.20309672 0 246.22414485 0 11575
0.10350000 0.10349800 16703.81994466 0 96.99799434 0 4827.82150138 0 1281.98698448 0 275.57244902 0 11364
0.10450000 0.10450100 16283.07160155 0 112.00542340 0 4762.81588236 0 129.80861448 0 -61.28720017 0 12093
0.10550000 0.10551000 16426.34748470 0 384.85297328 0 4753.33797232 0 -247.76098354 0 828.70261489 0 12067
0.10650000 0.10649700 16079.34082489 0 495.83088494 0 4653.00056481 0 -857.79514835 0 750.42792182 0 12054
0.10750000 0.10749900 15737.09526474 0 308.20812642 0 5918.57836391 0 -656.56339540 0 1268.24622938 0 12807
0.10850000 0.10850100 15541.55800844 0 191.11054083 0 5877.92078718 0 18.13469648 0 793.08626765 0 12736
0.10950000 0.10950300 15394.96042785 0 221.26380301 0 6162.20272689 0 97.40700602 0 210.01764270 0 12933
0.11050000 0.11050200 15165.43113436 0 220.96817194 0 6286.62244088 0 403.85529713 0 509.22396904 0 13428
0.11150000 0.11150900 14943.20957525 0 503.16297843 0 6080.27859556 0 223.34650731 0 69.15176176 0 13453
0.11250000 0.11250000 14531.54053849 0 492.84910786 0 5412.78349387 0 150.01560727 0 46.58835680 0 13668
0.11350000 0.11349100 14115.55329505 0 242.32115035 0 5046.51098887 0 29.51361397 0 -446.09510908 0 13791
0.11450000 0.11448600 14116.77125078 0 -8.53053979 0 5159.90266734 0 -60.07588783 0 -473.38617530 0 14205
0.11550000 0.11549300 14364.56988022 0 -380.10073147 0 4809.41929753 0 381.91105657 0 -1306.93293229 0 14776
0.11650000 0.11649800 14564.64678970 0 -217.14046925 0 4867.79259397 0 326.83952739 0 -1477.53531310 0 14553
0.11750000 0.11747300 14474.29661918 0 243.25676180 0 4529.97596375 0 -51.94049717 0 -1151.02352652 0 14568
0.11850000 0.11849100 14616.02237685 0 102.98690411 0 4721.58254474 0 -18.29070554 0 -2095.40425495 0 16015
0.11950000 0.11950300 14221.51544357 0 314.46620441 0 4965.59443909 0 -98.43617861 0 -964.19465369 0 15270
0.12050000 0.12050700 14016.12381818 0 396.92623626 0 4989.64352860 0 -161.86742376 0 -1460.76074100 0 15999
0.12150000 0.12150000 13869.74768408 0 337.03381685 0 5035.70439985 0 590.08626442 0 -855.33044885 0 15670
0.12250000 0.12250700 13670.66728384 0 -165.96750564 0 4169.97039460 0 515.71567308 0 -960.43781388 0 16887
0.12350000 0.12352200 13602.35103971 0 -2.92982573 0 4191.77180217 0 817.11099804 0 -1068.23021769 0 16407
0.12450000 0.12449800 13621.28471515 0 198.75376666 0 3627.92473310 0 572.79461475 0 -1116.83218748 0 16306
0.12550000 0.12549900 13565.81236781 0 160.26082943 0 3525.88218757 0 269.26897450 0 -1599.34195843 0 17523
0.12650000 0.12650100 12905.68036212 0 267.54944245 0 3005.02895578 0 -210.17376248 0 -907.86087948 0 17154
0.12750000 0.12750600 12988.83352151 0 244.10711635 0 3277.40814632 0 -274.11422384 0 -1517.77214149 0 18007
0.12850000 0.12850300 12929.04296749 0 35.11432804 0 3250.67955421 0 -16.30909156 0 -1629.29259706 0 17496
0.12950000 0.12949900 12863.71625106 0 149.38337752 0 3831.56693117 0 -459.67642271 0 -1572.27012425 0 18405
0.13050000 0.13049000 12696.52414629 0 216.31668828 0 3278.28285998 0 -374.64207533 0 -1601.00280715 0 18100
0.13150000 0.13148800 12786.65287032 0 169.13861946 0 4043.02619055 0 -44.77814242 0 -1453.61909149 0 19059
0.13250000 0.13249300 12578.82533347 0 1.03525462 0 3765.08869296 0 431.54718150 0 -869.65803716 0 18957
0.13350000 0.13349100 12811.34415466 0 -179.51560228 0 3758.24599622 0 841.94179367 0 -977.08394702 0 19468
0.13450000 0.13450700 12693.53461859 0 98.96299983 0 3321.30991423 0 622.63447046 0 -568.28042792 0 19953
0.13550000 0.13551000 12598.75551814 0 263.24452256 0 3488.22521087 0 379.22491057 0 -242.36101072 0 19956
0.13650000 0.13649900 12400.22873415 0 224.18025337 0 3450.67895741 0 225.46353582 0 9.09344571 0 19723
0.13750000 0.13749600 12124.74929266 0 271.98501578 0 3312.13095695 0 -259.63715914 0 189.52387669 0 20946
0.13850000 0.13851100 11820.59252989 0 404.11217507 0 3365.56599653 0 -348.17479008 0 -196.30456841 0 20955
0.13950000 0.13949800 11650.63234392 0 345.75880881 0 3779.88131891 0 -0.53817810 0 270.27655606 0 20506
0.14050000 0.14048300 11390.76488043 0 5.01977132 0 3358.97796326 0 528.66254249 0 26.55674963 0 21447
0.14150000 0.14148400 11357.43718273 0 -76.31024120 0 3008.76032924 0 576.03548423 0 220.94270559 0 21771
0.14250000 0.14249400 11514.44274865 0 172.75262629 0 3319.25046181 0 208.98348756 0 -166.80900232 0 22470
0.14350000 0.14350900 11031.81118213 0 315.97979121 0 2807.33259614 0 299.34583763 0 9.78173464 0 22519
0.14450000 0.14449900 11040.10435342 0 157.06092755 0 2685.79168661 0 -304.34388506 0 632.56634582 0 22218
0.14550000 0.14550500 11008.82503581 0 -36.85910498 0 3039.45281364 0 -159.22778152 0 541.04804503 0 23559
0.14650000 0.14650700 10986.96826662 0 -7.64148747 0 2887.59587875 0 155.08341034 0 313.43869266 0 23044
0.14750000 0.14750500 11128.01861248 0 104.89112253 0 3078.63777117 0 24.32977294 0 29.52867234 0 23649
0.14850000 0.14849900 10852.74954517 0 360.72527027 0 2999.01668340 0 -168.60604064 0 262.96328551 0 23640
0.14950000 0.14949500 10682.13609204 0 320.98448203 0 3034.17131470 0 -18.28085117 0 165.23451773 0 24457
0.15050000 0.15050000 10435.48898438 0 158.30656409 0 3073.71058663 0 161.32045091 0 55.94513561 0 24591
0.15150000 0.15149900 10130.90040094 0 277.81348756 0 3114.97714123 0 12.80890824 0 -328.99088010 0 25020
0.15250000 0.15250500 10079.69089865 0 214.44435816 0 3178.83123846 0 -73.78885140 0 -170.41968745 0 25297
0.15350000 0.15350100 9817.58682555 0 169.62801622 0 3051.79845581 0 103.57462311 0 -53.85944179 0 25452
0.15450000 0.15450400 9833.07700797 0 167.44787546 0 3283.13253825 0 65.67704479 0 -325.34144184 0 26061
0.15550000 0.15549900 9559.12554731 0 172.87331463 0 3087.10809966 0 37.05796394 0 259.70027139 0 26128
0.15650000 0.15649500 9507.21848856 0 96.31793215 0 3002.15015133 0 175.57496188 0 -5.85920856 0 26331
0.15750000 0.15749700 9375.78999296 0 116.08114617 0 2896.44266628 0 404.97913810 0 414.47254940 0 27345
0.15850000 0.15849900 9453.42913459 0 74.72700948 0 3156.27691280 0 391.72224360 0 34.39318752 0 26980
0.15950000 0.15949700 9185.32386143 0 140.88758269 0 2592.45198839 0 347.47612639 0 443.86514286 0 27777
0.16050000 0.16050000 9175.52485396 0 137.99327698 0 2518.82102834 0 -18.80202550 0 193.73911075 0 28224
0.16150000 0.16150500 9076.26146196 0 13.75680997 0 2412.13917872 0 294.26364054 0 481.78453367 0 28075
0.16250000 0.16249700 9091.02087095 0 73.99568242 0 2424.51803786 0 83.74885046 0 346.84721834 0 28590
0.16350000 0.16349900 8971.90480055 0 29.91166405 0 2225.89160294 0 227.76436491 0 292.56293145 0 29163
0.16450000 0.16449100 8969.52425071 0 137.12409948 0 2501.08316398 0 82.59456060 0 106.07342538 0 28996
0.16550000 0.16550500 8730.53919183 0 238.61745770 0 2383.56150836 0 61.50698581 0 335.77489352 0 30777
0.16650000 0.16650700 8642.34812465 0 278.90411155 0 2361.23970153 0 167.25853871 0 835.33383022 0 29211
0.16750000 0.16749900 8468.63442057 0 61.72223181 0 2241.10497724 0 193.44237244 0 803.43556965 0 30922
0.16850000 0.16850800 8528.90108456 0 -131.25687456 0 2190.40480190 0 340.71536485 0 911.59668188 0 30867
0.16950000 0.16949900 8473.97128113 0 35.32835608 0 2077.73282454 0 298.73907423 0 618.12249809 0 30852
0.17050000 0.17049200 8529.03395245 0 152.54341903 0 1878.49741176 0 -70.37403570 0 992.26742604 0 31257
0.17150000 0.17149500 8260.40828003 0 157.01331656 0 1779.35581533 0 41.43407887 0 749.40705347 0 32608
0.17250000 0.17250900 8190.87408017 0 157.44181553 0 1990.57148357 0 101.97544724 0 671.67601154 0 32361
0.17350000 0.17350400 8161.22239430 0 22.00757426 0 1738.78681720 0 -134.87752478 0 705.48314091 0 32508
0.17450000 0.17449800 8196.23308538 0 -125.22467200 0 1920.62760769 0 154.96604370 0 463.89054953 0 32791
0.17550000 0.17549800 8265.36868155 0 62.53206165 0 1918.97783129 0 -112.18590230 0 629.35869332 0 33633
0.17650000 0.17650100 8271.18165208 0 197.89123255 0 2105.17004544 0 -162.88497041 0 359.82509026 0 33984
0.17750000 0.17750300 7998.01632648 0 264.37722139 0 2095.47068890 0 -172.23111979 0 799.30227080 0 34069
