### header ###
fiducial parameters:
Omega_m = 0.31
Omega_nu = 0
Omega_de = 0.69
Omega_k = 0
H_0 = 100
w_de = -1
zeff = 0
beta = 0
fgrowth = 0
b_1 = 2
gamma = 0.55
Lx = 3500 Ly = 3500 Lz = 3500
nx = 700 ny = 700 nz = 700
xoffset = -685.467585 yoffset = -31.7331281 zoffset = 572.489161
bins = 400 dk = 0.001
kx_ny = 0.628318531 ky_ny = 0.628318531 kz_ny = 0.628318531
############################
A(data) = 7.99150119 (not used)
A(ran) = 7.98149358 (used)
Ngal = 474726
weighted Ngal = 0
Nran = 23820508
weighted Nran = 0
SN(data) = 3494.65335
SN(ran) = 69.5217037
SN(data+ran) = 3564.17506
############################
13 columns: k_central k_mean P_0(k) sigma^{lin}_{P_0(k)} P^img_1(k) sigma^{lin}_{P_1(k)} P_2(k) sigma^{lin}_{P_2(k)} P^img_3(k) sigma^{lin}_{P_3(k)} P_4(k) sigma^{lin}_{P_4(k)} N_modes
### header ###
0.00050000 0 0 0 0 0 0 0 0 0 0 0 0
0.00150000 0.00179520 159243.28277425 0 -97995.50008418 0 116702.30358853 0 -4227.97830432 0 -204203.56493285 0 3
0.00250000 0.00253879 253239.56985719 0 -58371.52487193 0 68034.01057142 0 -66792.47078951 0 72760.45386676 0 6
0.00350000 0.00331552 215945.76540302 0 53544.87703699 0 68423.31351204 0 -113722.74097983 0 182311.36430142 0 7
0.00450000 0.00420575 157077.53603973 0 111554.77978034 0 66446.90353192 0 -35889.83366716 0 128076.90287473 0 24
0.00550000 0.00557378 99392.60602980 0 15094.90042526 0 125059.69436165 0 60424.77678630 0 -23149.68456108 0 45
0.00650000 0.00659388 98682.20566943 0 -14521.46472290 0 156371.12171630 0 62592.73798579 0 -25629.55315071 0 40
0.00750000 0.00754703 98257.91418238 0 16721.20349462 0 144390.86626252 0 48122.20595706 0 -46705.16982677 0 57
0.00850000 0.00846663 96498.52176870 0 15681.51219415 0 121270.74480871 0 52629.97083722 0 4534.18344718 0 75
0.00950000 0.00948925 79586.65284070 0 107.74080677 0 91619.28039087 0 43550.22159294 0 -3486.14361380 0 112
0.01050000 0.01054430 91741.96174986 0 -3380.52470736 0 89801.31537889 0 16694.51919181 0 -22164.69054521 0 105
0.01150000 0.01145670 97010.61679156 0 -7093.72848621 0 69672.27175159 0 22970.97723851 0 -46194.18203639 0 144
0.01250000 0.01249090 102019.18292328 0 -50.18963045 0 72738.08777062 0 -11617.52609272 0 -28024.71845548 0 169
0.01350000 0.01339930 92541.71577151 0 5453.42999828 0 46416.62504199 0 -22052.19572506 0 -32711.96572096 0 180
0.01450000 0.01448870 98334.75611662 0 11636.34904491 0 86738.93178055 0 -10900.53769909 0 -281.93017793 0 267
0.01550000 0.01550050 92796.82213533 0 7755.80922107 0 71502.85921385 0 2754.50653443 0 5367.88521673 0 238
0.01650000 0.01653350 94558.31829073 0 6632.30042172 0 100881.39082491 0 26419.00991028 0 16096.72437485 0 315
0.01750000 0.01747870 92980.17983433 0 3971.76470802 0 64490.75590621 0 31607.72276680 0 18376.40533176 0 297
0.01850000 0.01844180 93993.07610874 0 266.10118237 0 82323.51008937 0 50959.26774534 0 36418.64790050 0 388
0.01950000 0.01947590 89864.87052335 0 67.51604722 0 65607.73203391 0 34108.96094333 0 40173.16252325 0 399
0.02050000 0.02045430 88895.48848548 0 6716.22864384 0 57814.91910330 0 34211.26922465 0 54374.63705890 0 462
0.02150000 0.02154770 78817.90132854 0 6625.01483199 0 48048.24282727 0 20649.88578678 0 57864.74456498 0 571
0.02250000 0.02255340 66963.42748471 0 7952.11046778 0 33896.70447656 0 25093.54190624 0 45582.21464366 0 510
0.02350000 0.02348930 70459.29259970 0 2391.35642503 0 35848.75534208 0 5493.87720084 0 37535.62402820 0 555
0.02450000 0.02439640 63883.32816665 0 3356.65277505 0 24193.58334498 0 5279.95988534 0 24843.86098158 0 592
0.02550000 0.02547300 62475.26061947 0 2126.79429582 0 31965.58030494 0 -12555.13055836 0 12537.52556190 0 837
0.02650000 0.02652900 57908.36952477 0 3301.39080188 0 22310.40233983 0 -9027.83111321 0 14683.89572799 0 723
0.02750000 0.02749970 61650.59386697 0 3331.03141542 0 38209.26427017 0 -9541.23267040 0 -3153.30952975 0 826
0.02850000 0.02848090 58378.94332956 0 900.41363381 0 36265.29620176 0 -6238.16994747 0 1960.73156819 0 831
0.02950000 0.02946900 60798.46774893 0 63.89572917 0 43189.26380385 0 2942.31530801 0 -8312.91324432 0 996
0.03050000 0.03053250 59090.67236890 0 1735.42083045 0 43749.52343968 0 7430.71469207 0 -6083.58922068 0 1041
0.03150000 0.03150510 54826.83080449 0 5171.49539142 0 38308.02940755 0 8216.62830769 0 -7985.23886363 0 1036
0.03250000 0.03246190 55065.88229733 0 3734.31870229 0 34266.85229524 0 13342.81574596 0 -5671.54372488 0 1059
0.03350000 0.03345080 49921.23729359 0 -1149.80557079 0 30732.56621313 0 8242.37146290 0 978.42369832 0 1302
0.03450000 0.03451200 52367.99963201 0 28.27761035 0 26750.51531535 0 9037.43081883 0 1746.32707040 0 1339
0.03550000 0.03553350 53445.44756012 0 -642.26459513 0 20868.89637169 0 5525.21188008 0 -1611.02326111 0 1365
0.03650000 0.03647120 53553.29200385 0 -601.15637477 0 19833.30183140 0 3008.92641412 0 706.35453288 0 1308
0.03750000 0.03744890 52125.95861148 0 2168.42623713 0 19327.18586394 0 -4466.86371229 0 -3836.57162199 0 1579
0.03850000 0.03847530 49728.46811850 0 3780.02525914 0 22744.88036571 0 1641.29499717 0 1089.89543566 0 1662
0.03950000 0.03950240 47333.52426022 0 1391.09367324 0 20338.19984313 0 2433.43125934 0 1401.05876558 0 1683
0.04050000 0.04050350 45667.47154476 0 -410.05137010 0 18460.55500038 0 7678.39152594 0 970.08402327 0 1822
0.04150000 0.04152450 46812.46065426 0 214.57722606 0 15071.20565015 0 6015.99267766 0 -1510.55298571 0 1887
0.04250000 0.04250150 44903.37040903 0 1233.05838110 0 11672.66627031 0 3379.06316048 0 -2595.45258841 0 1920
0.04350000 0.04349210 43323.34965741 0 2202.03074296 0 8561.81910624 0 3151.09506479 0 -2639.09969285 0 2005
0.04450000 0.04448520 40508.43251876 0 1664.91226601 0 8578.15078535 0 -1505.85831999 0 2612.53718561 0 2151
0.04550000 0.04548030 39482.80307081 0 968.22608716 0 8344.28114053 0 -880.97063143 0 -1634.95055505 0 2274
0.04650000 0.04648670 39775.11244602 0 716.47574499 0 9973.24156785 0 -3175.24380522 0 -269.57346343 0 2311
0.04750000 0.04749250 38538.55521028 0 1320.68475972 0 13587.84629419 0 -2718.06751346 0 864.05876250 0 2568
0.04850000 0.04851840 39504.61555070 0 307.37880929 0 16424.13301974 0 2385.25557406 0 1719.66491223 0 2493
0.04950000 0.04949480 38632.22707824 0 -167.49880816 0 15467.48415541 0 3918.87221236 0 3216.58786609 0 2644
0.05050000 0.05050630 38624.14428112 0 -2.41518407 0 15002.33578978 0 2196.40600195 0 2029.81180273 0 2829
0.05150000 0.05149060 38301.05384292 0 1263.81729945 0 12787.20648656 0 2245.47854555 0 -281.92574900 0 2784
0.05250000 0.05249300 36471.35216664 0 2189.51901591 0 15332.51251587 0 -591.22449941 0 2643.46218883 0 3055
0.05350000 0.05348950 35085.20782259 0 1026.74664553 0 12723.98351184 0 -995.76074452 0 3976.64760327 0 3009
0.05450000 0.05448610 35323.04135969 0 -789.33053507 0 12650.68472154 0 755.75813898 0 -392.65231888 0 3336
0.05550000 0.05550870 35422.24939007 0 -97.54430285 0 11220.58324797 0 2425.08272643 0 -583.08855513 0 3349
0.05650000 0.05647670 36055.03275345 0 -24.14630452 0 10662.19483504 0 1288.43107752 0 -2290.53183523 0 3324
0.05750000 0.05747970 35363.23389879 0 -324.82879320 0 8012.10032364 0 2125.28845964 0 -701.37530840 0 3639
0.05850000 0.05849280 35037.04320963 0 87.04995338 0 7044.67808727 0 2011.16600773 0 -925.46144701 0 3846
0.05950000 0.05951020 34920.89452228 0 1410.43702470 0 6769.27615205 0 -1958.49495857 0 -6490.53037474 0 3787
0.06050000 0.06049470 33141.46120068 0 1413.80301144 0 6507.38245312 0 -1989.10993670 0 -2435.56821803 0 3930
0.06150000 0.06148310 31218.30910293 0 2235.80133365 0 7263.06862199 0 -647.31246801 0 -1562.13894704 0 4083
0.06250000 0.06249100 30821.58770467 0 900.58414761 0 7743.34178332 0 -574.59829646 0 -561.33032963 0 4303
0.06350000 0.06350600 30345.47773747 0 -1182.54643528 0 8308.24072324 0 2162.05965036 0 -2510.15139801 0 4470
0.06450000 0.06451750 31243.00038727 0 -765.47964017 0 8351.76603211 0 1158.14303138 0 -660.72326783 0 4479
0.06550000 0.06550280 32001.67608384 0 63.02167985 0 8442.96877164 0 -31.43455161 0 -1913.70740468 0 4636
0.06650000 0.06648880 31632.52477439 0 311.13454187 0 8484.05816904 0 -1005.90410129 0 -1869.15236961 0 4653
0.06750000 0.06749660 31533.20602077 0 490.05113138 0 8207.25004857 0 -1569.78992349 0 -2637.74886922 0 5220
0.06850000 0.06852730 31070.16139685 0 1424.98605951 0 9835.02573714 0 -921.49534026 0 -4655.38111465 0 5029
0.06950000 0.06949320 28911.94384320 0 1715.36885020 0 8779.98819447 0 89.11671354 0 -4260.34270977 0 5040
0.07050000 0.07048030 28177.29509148 0 1515.61303815 0 8648.71471142 0 1244.20821220 0 -4365.26405975 0 5475
0.07150000 0.07148790 26829.90388430 0 138.96210540 0 7038.37793444 0 1688.68454739 0 -4249.86829049 0 5509
0.07250000 0.07249820 26950.48150158 0 326.39220547 0 7447.11280512 0 1381.04000230 0 -3997.07604256 0 5916
0.07350000 0.07351270 26626.28383089 0 746.71647854 0 6849.26262654 0 88.58014867 0 -2797.71074588 0 5721
0.07450000 0.07449140 26732.02453291 0 -27.99426956 0 6138.57438573 0 -669.77932230 0 -2358.23910150 0 6028
0.07550000 0.07549160 26683.30630370 0 -341.56793387 0 7458.22941924 0 -947.52637591 0 -552.49461443 0 6183
0.07650000 0.07648840 26842.52633460 0 175.30368992 0 7893.92540086 0 343.43915676 0 -2668.81781266 0 6330
0.07750000 0.07749960 26439.82588094 0 975.36330774 0 9153.64594012 0 -310.66175360 0 -2488.56036461 0 6583
0.07850000 0.07848650 26032.58577411 0 731.54628630 0 8339.71934270 0 -400.41401858 0 -1656.68552867 0 6549
0.07950000 0.07947320 25277.34249823 0 548.94704156 0 9107.58506888 0 428.83003299 0 -1296.07098165 0 6828
0.08050000 0.08048110 24947.16577214 0 745.97906170 0 9112.01399880 0 221.86835195 0 -1590.76090669 0 7147
0.08150000 0.08149960 24490.43237337 0 370.17439227 0 9625.96917224 0 612.96279473 0 -1783.05397182 0 7386
0.08250000 0.08250610 23853.22008006 0 321.67096617 0 9068.06794160 0 40.52404450 0 -1437.40920796 0 7227
0.08350000 0.08350160 23557.03539116 0 412.06764045 0 8628.91739464 0 2087.93043570 0 -948.38448109 0 7798
0.08450000 0.08449610 23504.44184827 0 97.78977629 0 8243.44547841 0 1464.64712701 0 511.31442396 0 7371
0.08550000 0.08548940 22923.03407204 0 291.58413794 0 7419.65343957 0 1660.21760028 0 1015.76511377 0 8256
0.08650000 0.08650700 23067.86008067 0 364.20308749 0 7439.71649214 0 600.98586097 0 527.73025274 0 8037
0.08750000 0.08749060 22276.07813289 0 528.84191415 0 8094.77737307 0 118.76064877 0 1779.94264855 0 8155
0.08850000 0.08849210 21435.91012565 0 1419.28381223 0 6977.20333982 0 222.63787852 0 2091.25213315 0 8718
0.08950000 0.08949900 20325.79883933 0 602.44519338 0 7094.19352385 0 155.34028828 0 3073.61093571 0 8571
0.09050000 0.09049190 20763.48783941 0 55.92321241 0 7106.45058743 0 676.15365970 0 1839.38996050 0 8932
0.09150000 0.09150830 20130.26158304 0 62.08861504 0 7528.18436745 0 77.26268258 0 1992.78594854 0 9285
0.09250000 0.09250820 20369.64524562 0 611.65404593 0 7044.99918468 0 271.96397836 0 894.82432424 0 9204
0.09350000 0.09350330 19601.55807295 0 508.14331013 0 6925.78346336 0 -362.40604917 0 1772.31381675 0 9349
0.09450000 0.09448040 19244.69704404 0 745.33465240 0 7558.58897140 0 -278.54426100 0 912.60647790 0 9564
0.09550000 0.09549270 18945.07993445 0 266.45217506 0 7628.92037865 0 -132.35746365 0 1078.93494133 0 10155
0.09650000 0.09649430 18507.16948787 0 246.95270383 0 7690.82574671 0 593.88850076 0 1314.18530505 0 9913
0.09750000 0.09749140 18769.69430932 0 -331.60173430 0 7319.36032137 0 1029.90890149 0 1265.11276145 0 10476
0.09850000 0.09850240 18895.58664251 0 -556.76299565 0 7308.06655005 0 1016.39955798 0 1659.65291172 0 10575
0.09950000 0.09950330 19215.02321353 0 124.28463162 0 6220.38779382 0 668.48386030 0 4.39532542 0 10882
0.10050000 0.10051200 18759.50777049 0 656.41834794 0 6003.95706059 0 -147.71699264 0 688.15827427 0 10875
0.10150000 0.10150300 18106.12988294 0 938.26216174 0 6441.50212044 0 -862.74004861 0 1414.83273765 0 11118
0.10250000 0.10250800 17478.43978897 0 695.42171935 0 6425.38081551 0 -62.25314978 0 840.63304488 0 11575
0.10350000 0.10349800 17113.05306996 0 351.71239786 0 6728.30855022 0 103.87656541 0 682.45713422 0 11364
0.10450000 0.10450100 16769.03593784 0 90.33898747 0 6264.79888866 0 478.19931490 0 -574.44771285 0 12093
0.10550000 0.10551000 16551.13258541 0 428.79127986 0 6126.72699818 0 244.11929590 0 -769.41585165 0 12067
0.10650000 0.10649700 16214.75535742 0 519.11376956 0 5833.56505395 0 51.99176203 0 -854.89973541 0 12054
0.10750000 0.10749900 15741.96708766 0 108.53325306 0 5542.70615329 0 686.30255263 0 -24.87541711 0 12807
0.10850000 0.10850100 15781.38456402 0 175.41994933 0 5809.05092680 0 671.32612608 0 159.47580160 0 12736
0.10950000 0.10950300 15571.89617845 0 213.90292147 0 5209.72812902 0 448.18445678 0 -21.04660719 0 12933
0.11050000 0.11050200 15296.74890670 0 168.31594573 0 5499.63480975 0 933.72361579 0 566.71923012 0 13428
0.11150000 0.11150900 15214.92442629 0 94.91949753 0 4995.05789544 0 67.59222481 0 979.22533464 0 13453
0.11250000 0.11250000 15572.78196443 0 -131.28344814 0 5103.85455910 0 444.23717298 0 1680.56853330 0 13668
0.11350000 0.11349100 15346.90653813 0 84.37797996 0 5176.63295014 0 291.56642222 0 1142.59748734 0 13791
0.11450000 0.11448600 15199.20172505 0 401.81577490 0 5184.54966238 0 30.19223676 0 1341.57823665 0 14205
0.11550000 0.11549300 14848.31975155 0 304.52104225 0 4712.32608119 0 37.04013749 0 811.65787806 0 14776
0.11650000 0.11649800 14652.00743251 0 371.70569479 0 4320.25505936 0 -218.49240011 0 180.86199698 0 14553
0.11750000 0.11747300 14178.66554652 0 412.57918186 0 4930.89377311 0 2.27437731 0 -204.21685172 0 14568
0.11850000 0.11849100 14026.86397325 0 377.64488982 0 4493.17155606 0 -483.77423044 0 -346.34010586 0 16015
0.11950000 0.11950300 13631.80342372 0 49.66502370 0 4791.01709368 0 85.17740181 0 -423.17982564 0 15270
0.12050000 0.12050700 13803.53518166 0 12.21388151 0 4890.75659564 0 11.64044581 0 -252.56858697 0 15999
0.12150000 0.12150000 13926.21654065 0 -25.49203488 0 5016.53820558 0 493.94969695 0 -260.00254586 0 15670
0.12250000 0.12250700 13859.11825225 0 70.42065019 0 5067.48197207 0 334.81381573 0 -25.64018258 0 16887
0.12350000 0.12352200 13591.38943814 0 216.08970563 0 4481.25773455 0 319.33802733 0 -43.45787840 0 16407
0.12450000 0.12449800 13666.79197015 0 105.00627471 0 4903.56727546 0 273.24172464 0 343.90973056 0 16306
0.12550000 0.12549900 13486.42379886 0 -159.91315843 0 4384.19773519 0 599.95059860 0 167.77118735 0 17523
0.12650000 0.12650100 13516.76196886 0 -1.72836776 0 4412.90827345 0 210.33874011 0 40.95686167 0 17154
0.12750000 0.12750600 13551.08617580 0 343.34061307 0 3930.65316597 0 -74.85279109 0 -209.31565730 0 18007
0.12850000 0.12850300 13203.08300675 0 504.57802154 0 4417.53650522 0 -149.21397095 0 136.84175520 0 17496
0.12950000 0.12949900 12834.26386704 0 421.37171500 0 4100.15938662 0 -92.29159195 0 818.40092388 0 18405
0.13050000 0.13049000 12720.88326089 0 19.03077973 0 4596.08881525 0 79.46662884 0 970.62324548 0 18100
0.13150000 0.13148800 12694.30968133 0 -39.04201382 0 4483.97045413 0 419.67654207 0 572.76471947 0 19059
0.13250000 0.13249300 12799.16459736 0 69.39203121 0 4786.73210397 0 448.07816246 0 1226.59214341 0 18957
0.13350000 0.13349100 12653.67424925 0 316.06394088 0 4380.65459125 0 72.00266396 0 1540.62541992 0 19468
0.13450000 0.13450700 12552.47320040 0 95.28300195 0 4446.41312835 0 180.62726370 0 1621.77448851 0 19953
0.13550000 0.13551000 12320.06510246 0 50.94409866 0 4154.25876568 0 491.30341132 0 1244.27464615 0 19956
0.13650000 0.13649900 12340.43818013 0 88.18309511 0 3925.75919840 0 316.38060937 0 1172.50383667 0 19723
0.13750000 0.13749600 12065.62307813 0 309.20020672 0 3910.68976432 0 345.77541730 0 308.33988708 0 20946
0.13850000 0.13851100 11767.66681726 0 519.01633311 0 3675.64645307 0 -236.99646935 0 383.30284780 0 20955
0.13950000 0.13949800 11446.12650452 0 328.87240623 0 3605.00502073 0 20.43264677 0 1184.31800725 0 20506
0.14050000 0.14048300 11321.78429681 0 -53.73875344 0 3247.76753278 0 313.82290233 0 911.78823310 0 21447
0.14150000 0.14148400 11341.93592798 0 -173.21102053 0 3258.44125390 0 766.52929657 0 1008.95563401 0 21771
0.14250000 0.14249400 11286.02068765 0 9.85307363 0 3122.74991325 0 535.12213679 0 916.52940258 0 22470
0.14350000 0.14350900 11191.57375694 0 305.32489304 0 2890.17573044 0 583.00551270 0 1065.47542328 0 22519
0.14450000 0.14449900 10857.65458506 0 327.43743293 0 2518.26741210 0 351.13110081 0 957.33756293 0 22218
0.14550000 0.14550500 10642.78504963 0 235.71207967 0 2499.15657947 0 -72.87029133 0 1110.13343097 0 23559
0.14650000 0.14650700 10429.08918063 0 222.76410303 0 2502.65543411 0 -634.60143912 0 691.95940338 0 23044
0.14750000 0.14750500 10274.53059849 0 342.52347550 0 2663.74668790 0 -422.35604467 0 360.53039735 0 23649
0.14850000 0.14849900 10044.01586809 0 226.39582557 0 2709.04356873 0 -584.31869042 0 501.59070831 0 23640
0.14950000 0.14949500 9974.70311472 0 117.57812448 0 3005.52721040 0 -230.78710959 0 307.07764206 0 24457
0.15050000 0.15050000 10034.46045177 0 -110.78968214 0 3207.94038041 0 134.47559939 0 39.12848868 0 24591
0.15150000 0.15149900 9952.39238021 0 160.48338315 0 3158.25885895 0 324.49994516 0 -91.85943912 0 25020
0.15250000 0.15250500 9879.85758033 0 112.16043595 0 3058.07646399 0 291.50552443 0 -149.79748247 0 25297
0.15350000 0.15350100 9656.32948689 0 90.02497634 0 2999.06097270 0 509.45205893 0 73.72507480 0 25452
0.15450000 0.15450400 9549.57013099 0 165.01196400 0 2601.67523496 0 350.42911542 0 -347.70864521 0 26061
0.15550000 0.15549900 9463.05098485 0 123.81405782 0 2462.27466550 0 299.51745867 0 215.56598466 0 26128
0.15650000 0.15649500 9379.37742620 0 -79.77233573 0 2146.70233584 0 367.65543837 0 195.94139615 0 26331
0.15750000 0.15749700 9580.66121908 0 -89.42430272 0 1761.46293842 0 407.37740366 0 392.07766522 0 27345
0.15850000 0.15849900 9558.43906317 0 11.42387113 0 1963.63251729 0 -191.11829146 0 167.31722203 0 26980
0.15950000 0.15949700 9540.92264530 0 271.54323001 0 2235.21450044 0 -106.37824648 0 364.66480344 0 27777
0.16050000 0.16050000 9347.20125028 0 366.86376715 0 2388.33368036 0 -733.35328971 0 579.47787001 0 28224
0.16150000 0.16150500 9181.92465771 0 212.79015283 0 2700.36286607 0 -320.55044689 0 1126.91907539 0 28075
0.16250000 0.16249700 9073.58195936 0 18.78397761 0 2947.04319071 0 -129.02026495 0 841.35274599 0 28590
0.16350000 0.16349900 9109.88811244 0 1.96683242 0 3038.43415976 0 343.79125669 0 406.48940321 0 29163
0.16450000 0.16449100 9098.59434112 0 93.44510675 0 2994.62097045 0 228.26704846 0 633.76326413 0 28996
0.16550000 0.16550500 8881.00101379 0 270.59765348 0 2789.41757459 0 94.70369792 0 306.09109791 0 30777
0.16650000 0.16650700 8674.18105850 0 248.01232531 0 2720.12696587 0 98.75085408 0 596.30891097 0 29211
0.16750000 0.16749900 8513.08980471 0 121.66159787 0 2767.71581794 0 119.16811033 0 267.78528297 0 30922
0.16850000 0.16850800 8394.07338524 0 64.50636788 0 2551.99371350 0 108.55517626 0 -43.65607302 0 30867
0.16950000 0.16949900 8381.26270542 0 111.64889454 0 2322.58621558 0 161.16211667 0 68.20253136 0 30852
0.17050000 0.17049200 8328.94597066 0 -34.32055307 0 2355.43780332 0 257.76925794 0 235.40094734 0 31257
0.17150000 0.17149500 8257.88378997 0 -35.71035128 0 2044.56013939 0 452.25353615 0 449.84419827 0 32608
0.17250000 0.17250900 8280.96958722 0 3.71789844 0 1992.42056182 0 513.25761697 0 316.93865454 0 32361
0.17350000 0.17350400 8181.73941219 0 59.56069256 0 1625.63872987 0 471.66664325 0 478.95998361 0 32508
0.17450000 0.17449800 8167.55576410 0 63.71447521 0 1531.80077704 0 263.41614360 0 778.57598597 0 32791
0.17550000 0.17549800 8174.58669036 0 88.95151445 0 1431.17548908 0 -16.10779670 0 1070.53658295 0 33633
0.17650000 0.17650100 8207.96974969 0 -7.46516069 0 1733.68247545 0 -75.60814509 0 813.38737520 0 33984
0.17750000 0.17750300 8029.22921014 0 241.27260119 0 1734.59040609 0 -142.17750853 0 911.17371907 0 34069
0.17850000 0.17849800 7953.85989510 0 267.06447463 0 1792.91941323 0 -294.86154608 0 796.93722222 0 34536
