### header ###
fiducial parameters:
Omega_m = 0.31
Omega_nu = 0
Omega_de = 0.69
Omega_k = 0
H_0 = 100
w_de = -1
zeff = 0
beta = 0
fgrowth = 0
b_1 = 2
gamma = 0.55
Lx = 3500 Ly = 3500 Lz = 3500
nx = 700 ny = 700 nz = 700
xoffset = -685.467585 yoffset = -31.7331281 zoffset = 572.489161
bins = 400 dk = 0.001
kx_ny = 0.628318531 ky_ny = 0.628318531 kz_ny = 0.628318531
############################
A(data) = 8.01407517 (not used)
A(ran) = 8.01612724 (used)
Ngal = 476362
weighted Ngal = 0
Nran = 23820508
weighted Nran = 0
SN(data) = 3483.00236
SN(ran) = 69.8233755
SN(data+ran) = 3552.82574
############################
13 columns: k_central k_mean P_0(k) sigma^{lin}_{P_0(k)} P^img_1(k) sigma^{lin}_{P_1(k)} P_2(k) sigma^{lin}_{P_2(k)} P^img_3(k) sigma^{lin}_{P_3(k)} P_4(k) sigma^{lin}_{P_4(k)} N_modes
### header ###
0.00050000 0 0 0 0 0 0 0 0 0 0 0 0
0.00150000 0.00179520 18562.19894222 0 -2598.29817589 0 38962.40380433 0 -12013.14025849 0 -46689.11495578 0 3
0.00250000 0.00253879 26228.45520015 0 8788.01562996 0 16848.09233704 0 5877.96507647 0 32508.45639079 0 6
0.00350000 0.00331552 25695.54420663 0 5374.58397324 0 25342.22632167 0 14320.28058095 0 31427.57604200 0 7
0.00450000 0.00420575 23993.28498901 0 -6337.76550922 0 23576.63340609 0 22186.94591810 0 18834.24596301 0 24
0.00550000 0.00557378 46242.12520285 0 -11173.52586749 0 36151.25125613 0 31820.75429631 0 -11734.67128930 0 45
0.00650000 0.00659388 51250.13771832 0 1292.16245099 0 33447.94315166 0 16836.35567274 0 6404.18838581 0 40
0.00750000 0.00754703 51001.56402615 0 3201.07553902 0 29854.64157826 0 17343.35742618 0 16240.11098125 0 57
0.00850000 0.00846663 43005.02031887 0 11488.86567832 0 23963.05754226 0 11338.39278404 0 21748.59257853 0 75
0.00950000 0.00948925 52229.92774153 0 -5331.70085922 0 14022.54576657 0 13529.93803539 0 3248.84154829 0 112
0.01050000 0.01054430 48609.72041882 0 -8637.94133937 0 26773.10285798 0 14228.71245470 0 15532.03580910 0 105
0.01150000 0.01145670 62818.61341209 0 2167.60688510 0 30792.91038339 0 -12769.93365984 0 18257.04567022 0 144
0.01250000 0.01249090 63721.11860806 0 27.61061351 0 35977.19430998 0 3462.01701802 0 28186.26367459 0 169
0.01350000 0.01339930 66157.69440765 0 -4995.52293308 0 35685.21710451 0 4625.82907971 0 9443.48618690 0 180
0.01450000 0.01448870 75470.40536612 0 -9386.77373918 0 45372.83698134 0 12772.25884805 0 -9538.07705783 0 267
0.01550000 0.01550050 82769.94622606 0 -9357.37671679 0 49794.56989766 0 5365.78147501 0 -21199.29454428 0 238
0.01650000 0.01653350 86984.84811477 0 -1594.44799086 0 32532.70478215 0 632.04926825 0 -22099.80672178 0 315
0.01750000 0.01747870 90728.51185921 0 3917.05635109 0 27689.78062972 0 -2614.43055315 0 -5933.34884522 0 297
0.01850000 0.01844180 86238.24125225 0 2903.81683461 0 18293.47361887 0 2805.23992675 0 -18404.52903680 0 388
0.01950000 0.01947590 80343.44624205 0 4861.70281532 0 24076.43814840 0 -2372.20130310 0 -24013.99023642 0 399
0.02050000 0.02045430 76252.55439131 0 8674.62395149 0 13832.32322619 0 2110.54012298 0 -26760.59113094 0 462
0.02150000 0.02154770 67052.67042274 0 6275.73834558 0 12554.24477237 0 -978.88873596 0 -27226.95745230 0 571
0.02250000 0.02255340 67122.86896209 0 -2689.87737447 0 18177.10348503 0 4990.54038691 0 -12588.67970256 0 510
0.02350000 0.02348930 70896.98159978 0 -7318.96171767 0 8698.45159450 0 4528.33725968 0 -19015.83209004 0 555
0.02450000 0.02439640 71771.47381395 0 476.47756839 0 13468.92952564 0 7601.91497841 0 -1040.64130594 0 592
0.02550000 0.02547300 68249.58873564 0 6348.04062665 0 8865.30045720 0 5789.98438347 0 7443.89075860 0 837
0.02650000 0.02652900 62554.64918842 0 3914.53186103 0 8328.62487324 0 16175.89149730 0 17823.12126057 0 723
0.02750000 0.02749970 60941.63290884 0 2922.30761706 0 12536.52905266 0 9826.30074518 0 18965.89590511 0 826
0.02850000 0.02848090 60166.68089478 0 -4201.40472476 0 5489.01645025 0 8704.64102408 0 19261.41625452 0 831
0.02950000 0.02946900 63115.57316373 0 -2982.33068990 0 15210.16332662 0 -2874.44195687 0 23930.83707704 0 996
0.03050000 0.03053250 65676.93406403 0 2941.87241502 0 16042.02709025 0 -6090.02224140 0 23894.18768189 0 1041
0.03150000 0.03150510 65260.72537409 0 2381.95602126 0 16722.20000386 0 -3728.46144246 0 23938.36625791 0 1036
0.03250000 0.03246190 60595.84420475 0 4951.51044192 0 15115.05205643 0 -3832.43057250 0 17808.61651506 0 1059
0.03350000 0.03345080 58907.42539315 0 5404.74498605 0 22491.10268087 0 -4287.82421997 0 3328.07510469 0 1302
0.03450000 0.03451200 54359.35725065 0 2274.75377237 0 22001.26303089 0 -431.52946578 0 822.01493070 0 1339
0.03550000 0.03553350 52242.66091507 0 2104.02959599 0 18747.88182943 0 -5340.81338255 0 -3108.36696331 0 1365
0.03650000 0.03647120 50074.14609934 0 267.11208562 0 18249.62721259 0 1950.52288470 0 -506.26212215 0 1308
0.03750000 0.03744890 50668.39777235 0 654.56816247 0 20927.69041648 0 4032.55177128 0 -5579.62128424 0 1579
0.03850000 0.03847530 47351.01853344 0 2032.80133043 0 15961.97418181 0 8695.46206680 0 -473.68844976 0 1662
0.03950000 0.03950240 48223.73917564 0 795.81781018 0 12964.58513015 0 10574.69025200 0 -1420.80072073 0 1683
0.04050000 0.04050350 46349.41603034 0 81.88670688 0 11005.02722840 0 7083.02154811 0 7112.21926866 0 1822
0.04150000 0.04152450 47250.14965434 0 803.56400862 0 16358.47413356 0 612.57526336 0 9592.13214759 0 1887
0.04250000 0.04250150 46956.40087690 0 1904.37343486 0 12612.81737066 0 -2610.20092507 0 11802.54464044 0 1920
0.04350000 0.04349210 44058.10913237 0 1772.01486398 0 16304.55191170 0 -4917.57376636 0 9346.99087611 0 2005
0.04450000 0.04448520 45098.35404908 0 1494.15487265 0 19136.85260031 0 -3083.95248709 0 9863.38196100 0 2151
0.04550000 0.04548030 43230.56357543 0 788.35063432 0 22476.93010510 0 3635.78608372 0 11405.15890269 0 2274
0.04650000 0.04648670 42567.44204204 0 400.49263209 0 19336.59734004 0 4903.01365922 0 7773.27027731 0 2311
0.04750000 0.04749250 41779.86757769 0 567.27063190 0 16418.37541083 0 6536.14835299 0 3307.64666540 0 2568
0.04850000 0.04851840 40433.58360299 0 2206.92471053 0 14166.70743571 0 3072.99088552 0 4784.35155414 0 2493
0.04950000 0.04949480 38674.52335905 0 2378.72290241 0 14946.08837970 0 -859.34748829 0 4580.04501658 0 2644
0.05050000 0.05050630 37032.82975819 0 -417.34249599 0 11854.14167409 0 -1306.16894188 0 5598.87605710 0 2829
0.05150000 0.05149060 38546.41656090 0 -675.15050707 0 15194.10845564 0 -2928.58562523 0 3128.57395611 0 2784
0.05250000 0.05249300 39252.49871458 0 301.60127020 0 14210.11094900 0 -1365.10692689 0 2293.79817105 0 3055
0.05350000 0.05348950 39235.66878086 0 689.88112801 0 16246.86509939 0 -661.58801640 0 1334.73553991 0 3009
0.05450000 0.05448610 37824.83315247 0 1243.57708968 0 14706.04037763 0 235.66114698 0 381.96641820 0 3336
0.05550000 0.05550870 37451.69580608 0 -30.52983195 0 15087.03907464 0 2924.01275508 0 682.26779747 0 3349
0.05650000 0.05647670 35801.25506861 0 1632.97968123 0 12985.51182406 0 2089.70200767 0 -2814.58496890 0 3324
0.05750000 0.05747970 34617.62354550 0 1249.99903808 0 12294.26658563 0 1470.63725474 0 -2218.93818296 0 3639
0.05850000 0.05849280 33123.41331122 0 1040.51840313 0 9345.35217203 0 1980.36280009 0 -1233.98845639 0 3846
0.05950000 0.05951020 33071.37338457 0 75.71964340 0 9593.30581402 0 704.84869670 0 -903.48509671 0 3787
0.06050000 0.06049470 32760.90539666 0 -178.39508301 0 8229.20646869 0 29.66131879 0 -865.21582044 0 3930
0.06150000 0.06148310 33727.07646033 0 1005.54867966 0 10527.53322059 0 41.63448795 0 -1035.29669475 0 4083
0.06250000 0.06249100 32209.61434394 0 910.80611788 0 10879.90995795 0 -974.50077364 0 -621.67339266 0 4303
0.06350000 0.06350600 32468.15312845 0 664.95843208 0 12463.00881587 0 -1634.33050486 0 308.34542325 0 4470
0.06450000 0.06451750 32347.24334143 0 83.80310485 0 13936.95669573 0 1443.02287664 0 -64.70389816 0 4479
0.06550000 0.06550280 31445.73465470 0 1296.31457279 0 13908.94371394 0 -942.30466753 0 -219.76461023 0 4636
0.06650000 0.06648880 30640.66591714 0 1698.21781906 0 14123.52536892 0 -217.67526254 0 -379.90696578 0 4653
0.06750000 0.06749660 29520.14664549 0 1099.98453804 0 14597.08870141 0 34.17384477 0 -71.73294212 0 5220
0.06850000 0.06852730 28329.98245073 0 934.03253366 0 12310.21073337 0 1594.20439971 0 -422.57859840 0 5029
0.06950000 0.06949320 27959.50246230 0 -182.89930475 0 12671.38996896 0 2990.94495861 0 1431.91733485 0 5040
0.07050000 0.07048030 28724.93227701 0 -1501.17472659 0 10659.20530734 0 2369.48858352 0 -1350.35859023 0 5475
0.07150000 0.07148790 29184.87664998 0 -388.90322970 0 10242.47621814 0 2278.25262701 0 -262.79720064 0 5509
0.07250000 0.07249820 29879.00069286 0 620.82857428 0 9968.66869770 0 -1080.03553041 0 -1766.16867647 0 5916
0.07350000 0.07351270 28547.55363342 0 742.66732935 0 8980.59657553 0 393.07971062 0 314.52710219 0 5721
0.07450000 0.07449140 28322.89616285 0 571.40171629 0 9173.62041410 0 -571.08504780 0 841.82221257 0 6028
0.07550000 0.07549160 27540.74713766 0 659.95152679 0 9325.39984271 0 1263.73979318 0 -1973.14364431 0 6183
0.07650000 0.07648840 27123.09904550 0 719.16299823 0 10291.57090638 0 -45.59505854 0 -2375.34584334 0 6330
0.07750000 0.07749960 25870.92983176 0 1737.29205334 0 8352.77361366 0 1388.15950716 0 -1896.20205914 0 6583
0.07850000 0.07848650 24930.11439192 0 840.23554842 0 8739.05380961 0 -471.15731631 0 -512.86897837 0 6549
0.07950000 0.07947320 24271.75395820 0 -86.98318727 0 8324.04093076 0 735.11046766 0 -1229.33807996 0 6828
0.08050000 0.08048110 24337.52356763 0 299.47316937 0 8938.95356189 0 1841.90337823 0 172.01299499 0 7147
0.08150000 0.08149960 24278.84024609 0 -41.09349416 0 7619.60855347 0 863.08107622 0 -408.50788802 0 7386
0.08250000 0.08250610 23770.06692067 0 365.49301333 0 8355.82957531 0 1071.49212458 0 1156.17215756 0 7227
0.08350000 0.08350160 23343.89313840 0 1266.28642788 0 6718.77527855 0 908.55179255 0 -182.77972364 0 7798
0.08450000 0.08449610 21516.18448059 0 1246.35624321 0 7754.46946976 0 483.44095346 0 2506.08785480 0 7371
0.08550000 0.08548940 21797.20008448 0 434.26875894 0 7713.88939930 0 141.25629111 0 2524.12467193 0 8256
0.08650000 0.08650700 21032.43460926 0 -297.35171193 0 7561.87745187 0 835.61949620 0 2360.65286831 0 8037
0.08750000 0.08749060 21680.60850414 0 104.67310846 0 7996.02330801 0 72.60843085 0 1196.67472175 0 8155
0.08850000 0.08849210 21334.93052331 0 127.24426405 0 6436.81852705 0 152.75047150 0 698.99808027 0 8718
0.08950000 0.08949900 21165.74540008 0 483.89602601 0 7446.07200659 0 -635.08862141 0 2109.54361375 0 8571
0.09050000 0.09049190 20639.92069444 0 693.31908487 0 7421.31428830 0 -57.00508927 0 1276.69441321 0 8932
0.09150000 0.09150830 19982.99966295 0 771.00251579 0 7686.25287656 0 830.22173785 0 2259.26358995 0 9285
0.09250000 0.09250820 19366.04972405 0 931.51579423 0 8107.25588314 0 -24.14143270 0 2610.98706013 0 9204
0.09350000 0.09350330 19018.26800150 0 249.04648045 0 6803.35676784 0 1273.35057112 0 2485.71477714 0 9349
0.09450000 0.09448040 19098.09946344 0 -342.95640340 0 8337.59345634 0 852.01096586 0 3179.35163773 0 9564
0.09550000 0.09549270 18946.40861343 0 -192.45361384 0 6958.70148505 0 698.27173576 0 2787.95602771 0 10155
0.09650000 0.09649430 19665.66683365 0 101.78544615 0 7956.93800140 0 726.79072279 0 2839.91844808 0 9913
0.09750000 0.09749140 18809.22250892 0 237.92543740 0 6414.21991209 0 792.49057657 0 3307.80167795 0 10476
0.09850000 0.09850240 18718.20799891 0 412.67661832 0 6028.28295821 0 888.40459031 0 2831.75814469 0 10575
0.09950000 0.09950330 18136.02515995 0 647.54055790 0 6264.14562150 0 303.56992955 0 1888.42928712 0 10882
0.10050000 0.10051200 17718.48779104 0 678.23857846 0 5583.10906655 0 287.68889407 0 2611.83962915 0 10875
0.10150000 0.10150300 17233.18779424 0 206.23976547 0 5646.56456009 0 -157.29233914 0 2061.08004802 0 11118
0.10250000 0.10250800 16747.66635094 0 471.94898753 0 5080.12656702 0 -210.29666528 0 2063.17271741 0 11575
0.10350000 0.10349800 16868.68686121 0 -31.59022849 0 5530.28300484 0 -362.04952031 0 552.37946225 0 11364
0.10450000 0.10450100 16810.66787916 0 150.20162233 0 5631.27367952 0 -782.42029715 0 1187.07501613 0 12093
0.10550000 0.10551000 16573.83085129 0 436.64045092 0 6050.52725877 0 24.69770629 0 1479.86050131 0 12067
0.10650000 0.10649700 16288.71848721 0 173.48118526 0 5973.07634667 0 16.27199928 0 389.21104033 0 12054
0.10750000 0.10749900 16185.52441990 0 195.91482257 0 6415.53751874 0 779.78397661 0 1052.52080324 0 12807
0.10850000 0.10850100 15978.80411553 0 240.93046636 0 5885.88178872 0 559.26644829 0 207.14326717 0 12736
0.10950000 0.10950300 15613.63884301 0 326.83177676 0 5873.38113400 0 -27.44342140 0 363.29847855 0 12933
0.11050000 0.11050200 15687.49124955 0 215.31021396 0 5763.01220021 0 -611.89431538 0 163.91801831 0 13428
0.11150000 0.11150900 15401.82526923 0 252.52208321 0 5856.10830728 0 -546.67721497 0 -138.33873352 0 13453
0.11250000 0.11250000 15297.74541594 0 280.49963356 0 5828.87038823 0 -732.81185303 0 -438.40870119 0 13668
0.11350000 0.11349100 14978.86246116 0 181.02476016 0 5664.46850932 0 360.49496591 0 -527.08584343 0 13791
0.11450000 0.11448600 15088.69992336 0 -49.09690271 0 6147.08900352 0 914.65264353 0 -455.66934835 0 14205
0.11550000 0.11549300 15118.37375388 0 -114.62734992 0 5418.97292344 0 964.92321267 0 -952.75362046 0 14776
0.11650000 0.11649800 14845.88384009 0 464.71765220 0 5103.87670375 0 699.52844462 0 -532.74490865 0 14553
0.11750000 0.11747300 14648.90718157 0 369.06051639 0 4778.93718730 0 652.94606688 0 -193.41801333 0 14568
0.11850000 0.11849100 14168.70045418 0 222.19166383 0 4730.34075367 0 618.56982002 0 1223.44760316 0 16015
0.11950000 0.11950300 13989.55023862 0 298.68481984 0 4305.32956551 0 812.97991365 0 875.44554134 0 15270
0.12050000 0.12050700 13825.45838480 0 170.57027106 0 4170.19184110 0 511.56908743 0 985.01726775 0 15999
0.12150000 0.12150000 13536.47070704 0 111.22150280 0 3650.92195175 0 607.06899623 0 1633.13469378 0 15670
0.12250000 0.12250700 13596.59343080 0 -19.37368963 0 3462.61492356 0 425.14294883 0 1357.68846926 0 16887
0.12350000 0.12352200 13515.76545963 0 -21.73430928 0 3340.62004871 0 710.36271446 0 1726.46331967 0 16407
0.12450000 0.12449800 13527.16995419 0 74.23141222 0 3096.98461340 0 242.78175907 0 1489.49342390 0 16306
0.12550000 0.12549900 13233.64262325 0 368.76488532 0 3120.05933832 0 63.46457284 0 1519.06760349 0 17523
0.12650000 0.12650100 13025.26147016 0 348.37741363 0 3436.10777794 0 -349.53004264 0 1573.52129695 0 17154
0.12750000 0.12750600 12982.63301961 0 149.10435494 0 3579.01827438 0 -184.76166978 0 1913.05413752 0 18007
0.12850000 0.12850300 12808.35462696 0 32.20252806 0 3545.03730951 0 -163.07098546 0 1307.43118691 0 17496
0.12950000 0.12949900 12835.92471576 0 142.60711473 0 3810.31913984 0 -19.34135844 0 1272.80802720 0 18405
0.13050000 0.13049000 12730.18401374 0 201.23286018 0 3760.92549882 0 -252.94504602 0 799.06864474 0 18100
0.13150000 0.13148800 12585.69017486 0 171.00098450 0 3725.54942103 0 -308.47607668 0 752.60141918 0 19059
0.13250000 0.13249300 12460.90507415 0 202.54493068 0 3701.35639130 0 -325.22186074 0 733.11523473 0 18957
0.13350000 0.13349100 12444.07514043 0 101.21577503 0 3801.92631763 0 218.48907841 0 150.84603163 0 19468
0.13450000 0.13450700 12348.96387024 0 -116.59933097 0 3879.41044671 0 223.93555499 0 -79.99898622 0 19953
0.13550000 0.13551000 12340.77034987 0 186.79122692 0 3488.12555994 0 -1.03677817 0 -285.03375057 0 19956
0.13650000 0.13649900 12082.56373510 0 350.76239239 0 3733.31112073 0 119.91106332 0 -9.67918277 0 19723
0.13750000 0.13749600 11838.52969610 0 236.77723732 0 3448.13232270 0 165.79809907 0 -4.03648245 0 20946
0.13850000 0.13851100 11718.50569506 0 24.88006748 0 3484.27239091 0 -53.85224477 0 -319.25941382 0 20955
0.13950000 0.13949800 11648.75004871 0 157.09193006 0 3345.00468934 0 27.85254380 0 -415.28636528 0 20506
0.14050000 0.14048300 11424.75691762 0 192.85996816 0 3372.12081282 0 12.37675541 0 -509.29483192 0 21447
0.14150000 0.14148400 11503.92404008 0 15.39318886 0 3077.65233427 0 281.08535954 0 -254.19289702 0 21771
0.14250000 0.14249400 11376.70302791 0 -77.46187371 0 3008.19564068 0 328.99420180 0 -829.20751290 0 22470
0.14350000 0.14350900 11354.89054802 0 238.62410110 0 2754.69476396 0 406.81492956 0 -539.82012421 0 22519
0.14450000 0.14449900 11136.43357935 0 367.68865535 0 2757.68429166 0 69.68256901 0 38.23572713 0 22218
0.14550000 0.14550500 10780.04866041 0 426.64767777 0 2726.77036076 0 228.10317805 0 547.43345475 0 23559
0.14650000 0.14650700 10677.92860861 0 245.82886286 0 3047.97850375 0 365.57716300 0 1074.59901893 0 23044
0.14750000 0.14750500 10216.53376109 0 326.55053971 0 2895.01433638 0 375.11486360 0 985.05380642 0 23649
0.14850000 0.14849900 9951.16335216 0 269.76501465 0 2947.35321580 0 258.82002157 0 1177.07670682 0 23640
0.14950000 0.14949500 9897.51793841 0 155.51080208 0 2829.94228342 0 168.24619008 0 1221.69817584 0 24457
0.15050000 0.15050000 9746.51357254 0 133.65292565 0 3077.63018962 0 -447.11929913 0 994.64908311 0 24591
0.15150000 0.15149900 9705.49060908 0 0.75229472 0 3095.70022372 0 -90.62775370 0 1074.73742299 0 25020
0.15250000 0.15250500 9676.11573134 0 171.21357314 0 3218.95734360 0 -197.17153144 0 1006.98365296 0 25297
0.15350000 0.15350100 9634.63880257 0 14.62421590 0 3136.01455839 0 237.15148190 0 1171.10872374 0 25452
0.15450000 0.15450400 9713.07515158 0 -79.60746881 0 3120.63509921 0 365.70781644 0 965.24541732 0 26061
0.15550000 0.15549900 9654.11502193 0 61.12045095 0 3090.18620596 0 330.65726499 0 837.97900862 0 26128
0.15650000 0.15649500 9503.21030697 0 235.73533155 0 2979.04220943 0 330.83663665 0 871.74295592 0 26331
0.15750000 0.15749700 9386.70730523 0 212.37936958 0 2644.44762574 0 161.76334390 0 1429.11603667 0 27345
0.15850000 0.15849900 9177.94969310 0 24.76236867 0 2592.06445702 0 -35.19858843 0 1064.77565235 0 26980
0.15950000 0.15949700 9269.75033817 0 -20.74831875 0 2815.11644049 0 49.10144236 0 797.72003558 0 27777
0.16050000 0.16050000 9135.09979605 0 189.23267455 0 2690.32026746 0 -173.43800319 0 650.96190627 0 28224
0.16150000 0.16150500 9005.75289752 0 263.29766972 0 2810.82037846 0 -105.14002840 0 587.69464226 0 28075
0.16250000 0.16249700 8893.09199249 0 135.48096648 0 2768.19192791 0 61.27745652 0 799.54586194 0 28590
0.16350000 0.16349900 8901.08621101 0 24.20598435 0 2898.36925080 0 -8.73516742 0 551.31209014 0 29163
0.16450000 0.16449100 8807.40327072 0 79.56362241 0 2746.66732846 0 114.09698556 0 653.95586290 0 28996
0.16550000 0.16550500 8863.06384758 0 69.44097089 0 2735.57285899 0 34.02924020 0 517.34994822 0 30777
0.16650000 0.16650700 8769.24803939 0 42.00386071 0 2604.60940104 0 175.96581495 0 473.01525241 0 29211
0.16750000 0.16749900 8703.50057462 0 53.39905452 0 2687.33073976 0 57.81890514 0 174.43783412 0 30922
0.16850000 0.16850800 8634.48677403 0 136.74321151 0 2312.42182140 0 -44.27080849 0 44.84723372 0 30867
0.16950000 0.16949900 8519.34566824 0 126.66850316 0 2466.32713638 0 245.28078278 0 145.17921579 0 30852
0.17050000 0.17049200 8392.65612766 0 157.84484815 0 2320.44925689 0 91.52627286 0 255.57029423 0 31257
0.17150000 0.17149500 8265.13616273 0 119.58996590 0 2287.58659683 0 273.30372966 0 301.15284104 0 32608
0.17250000 0.17250900 8157.51316549 0 116.48528602 0 2100.39787345 0 143.76306545 0 91.80097724 0 32361
0.17350000 0.17350400 8144.91285984 0 131.04428593 0 2256.39585782 0 176.14629384 0 459.88347518 0 32508
0.17450000 0.17449800 8016.58461520 0 95.34611420 0 2040.59624710 0 76.80794220 0 593.78995707 0 32791
0.17550000 0.17549800 8010.07408820 0 -23.87381460 0 2121.12526551 0 14.55911063 0 444.63688390 0 33633
0.17650000 0.17650100 8050.05625312 0 88.27986723 0 2071.20015290 0 -93.00631052 0 161.42563800 0 33984
0.17750000 0.17750300 8017.28217166 0 197.09291793 0 2162.51361568 0 -118.13284796 0 283.95862783 0 34069
0.17850000 0.17849800 7863.74224340 0 21.14038978 0 2018.34087422 0 -16.91065097 0 509.86948557 0 34536
