### header ###
fiducial parameters:
Omega_m = 0.31
Omega_nu = 0
Omega_de = 0.69
Omega_k = 0
H_0 = 100
w_de = -1
zeff = 0
beta = 0
fgrowth = 0
b_1 = 2
gamma = 0.55
Lx = 3500 Ly = 3500 Lz = 3500
nx = 700 ny = 700 nz = 700
xoffset = -685.467585 yoffset = -31.7331281 zoffset = 572.489161
bins = 400 dk = 0.001
kx_ny = 0.628318531 ky_ny = 0.628318531 kz_ny = 0.628318531
############################
A(data) = 8.02433705 (not used)
A(ran) = 8.02959189 (used)
Ngal = 477120
weighted Ngal = 0
Nran = 23820508
weighted Nran = 0
SN(data) = 3480.34483
SN(ran) = 69.9406575
SN(data+ran) = 3550.28549
############################
13 columns: k_central k_mean P_0(k) sigma^{lin}_{P_0(k)} P^img_1(k) sigma^{lin}_{P_1(k)} P_2(k) sigma^{lin}_{P_2(k)} P^img_3(k) sigma^{lin}_{P_3(k)} P_4(k) sigma^{lin}_{P_4(k)} N_modes
### header ###
0.00050000 0 0 0 0 0 0 0 0 0 0 0 0
0.00150000 0.00179520 -1438.77110391 0 3713.77953975 0 1875.18678664 0 -1446.20063386 0 6244.21543683 0 3
0.00250000 0.00253879 9503.18816232 0 -12545.82980551 0 -1955.87081759 0 -3039.24243947 0 -30988.77980943 0 6
0.00350000 0.00331552 27001.30347250 0 -37931.45964047 0 -6301.10504174 0 14590.66675302 0 24876.85650954 0 7
0.00450000 0.00420575 65622.45822592 0 -68210.06053604 0 -25085.45910913 0 16918.06942990 0 -7102.78564791 0 24
0.00550000 0.00557378 130041.13329756 0 -40542.86744895 0 -33284.40491408 0 -45532.72135172 0 -52598.74688123 0 45
0.00650000 0.00659388 168362.44949489 0 -12026.86994126 0 -284.50338622 0 -113501.29448346 0 -16928.47741523 0 40
0.00750000 0.00754703 147179.98488434 0 39096.26821139 0 19811.04645851 0 -107590.55532552 0 16728.84339875 0 57
0.00850000 0.00846663 117379.92986743 0 52409.18868034 0 35890.16583690 0 -62250.38170240 0 56147.75915536 0 75
0.00950000 0.00948925 84225.84621646 0 17182.69799306 0 57975.57853642 0 -15208.61320115 0 16348.50904123 0 112
0.01050000 0.01054430 85432.95106819 0 5846.90720536 0 73503.07469234 0 57806.28268994 0 -12304.23167797 0 105
0.01150000 0.01145670 85325.66024070 0 -4906.08069319 0 63030.20553938 0 21423.61984510 0 -42155.55155878 0 144
0.01250000 0.01249090 85061.69601702 0 3071.61791724 0 56631.17685694 0 13782.82993425 0 -33980.18980569 0 169
0.01350000 0.01339930 91763.99567625 0 -206.50660850 0 65194.73431818 0 -6632.53294054 0 1567.70832642 0 180
0.01450000 0.01448870 84371.77945757 0 10291.26088129 0 57215.35271437 0 -19766.75715924 0 -29063.96686296 0 267
0.01550000 0.01550050 82963.15829415 0 7510.82296213 0 68359.64764434 0 1332.31070078 0 -4529.90952980 0 238
0.01650000 0.01653350 84781.01258287 0 -5962.93409713 0 57443.88549863 0 4624.23466493 0 -33431.66683417 0 315
0.01750000 0.01747870 81082.52392370 0 -5542.15253705 0 48341.88088146 0 25523.36955570 0 -11538.80186326 0 297
0.01850000 0.01844180 93268.61389585 0 -1132.83169685 0 53845.15848607 0 34630.68888878 0 -37701.93034698 0 388
0.01950000 0.01947590 84402.44979732 0 1409.73946823 0 28536.81347835 0 31527.55913511 0 -11537.47318428 0 399
0.02050000 0.02045430 84864.83008175 0 2360.95182108 0 14482.37941629 0 25618.03793290 0 -14696.29673179 0 462
0.02150000 0.02154770 79250.16488946 0 1182.51321831 0 11486.42976686 0 13024.04351443 0 3592.17219626 0 571
0.02250000 0.02255340 79288.58585658 0 8862.94205201 0 13775.74364637 0 -3003.51204728 0 7694.59033715 0 510
0.02350000 0.02348930 71843.44392528 0 7459.00448198 0 13819.03643641 0 -9829.52279170 0 10920.83327048 0 555
0.02450000 0.02439640 69474.40930708 0 3446.60434187 0 19984.10689543 0 -13091.14180283 0 17071.75329838 0 592
0.02550000 0.02547300 65605.40684570 0 3629.20912278 0 20599.72815535 0 -4996.16512792 0 13199.20769306 0 837
0.02650000 0.02652900 62684.30611204 0 2847.30368874 0 21362.27916561 0 1130.79438908 0 7761.07964768 0 723
0.02750000 0.02749970 62426.09949727 0 -579.09476757 0 13143.29245273 0 7316.08291322 0 -2118.65613707 0 826
0.02850000 0.02848090 62851.38749356 0 -3045.80832809 0 11622.39791564 0 15240.05860363 0 -2921.93115802 0 831
0.02950000 0.02946900 63480.07409676 0 532.06728237 0 8668.24629240 0 8536.93959237 0 1975.71242366 0 996
0.03050000 0.03053250 62921.14313991 0 -90.73903057 0 2785.49797160 0 4744.95622243 0 2117.57104924 0 1041
0.03150000 0.03150510 62083.18959764 0 1037.74257130 0 3719.09425566 0 580.28172079 0 -4163.53737388 0 1036
0.03250000 0.03246190 65191.41262073 0 565.61089041 0 4174.98615774 0 -10807.26443481 0 -2889.30101678 0 1059
0.03350000 0.03345080 59150.57364617 0 3598.94845905 0 10912.88334126 0 -12606.06325253 0 2674.50898762 0 1302
0.03450000 0.03451200 58428.76879124 0 4264.99308619 0 14978.19812167 0 -7831.22282541 0 -7118.10974546 0 1339
0.03550000 0.03553350 54978.52165451 0 912.11154498 0 13976.37417208 0 548.83299661 0 -9567.19727210 0 1365
0.03650000 0.03647120 52963.91215375 0 2982.70714895 0 16699.28029148 0 3318.70791789 0 -15649.40245218 0 1308
0.03750000 0.03744890 52112.67182170 0 1138.21284671 0 12224.84310902 0 -1585.46833543 0 -12588.34753282 0 1579
0.03850000 0.03847530 50541.73037643 0 346.64016586 0 14889.28735338 0 854.01616389 0 -13171.08398802 0 1662
0.03950000 0.03950240 51189.23993182 0 1222.77219135 0 17553.39942799 0 -4568.72910062 0 -10498.71195909 0 1683
0.04050000 0.04050350 50393.47194710 0 2117.70391714 0 23260.62925576 0 -520.25089732 0 -9800.56866230 0 1822
0.04150000 0.04152450 48070.71964665 0 4131.52728283 0 22579.68127942 0 -6695.00299717 0 -5177.17549405 0 1887
0.04250000 0.04250150 47007.66574081 0 3374.26884383 0 27504.31918901 0 1859.01012008 0 2012.40610811 0 1920
0.04350000 0.04349210 46286.63594862 0 -909.17405721 0 25626.56362301 0 6309.83003370 0 -1517.21852525 0 2005
0.04450000 0.04448520 44932.15845356 0 36.75723959 0 23325.29163270 0 9348.35277206 0 -1468.87675509 0 2151
0.04550000 0.04548030 42856.31899656 0 1983.66235288 0 17687.48528155 0 5801.00134666 0 -4502.35051333 0 2274
0.04650000 0.04648670 40590.69989216 0 1784.06155338 0 15746.72818733 0 6250.83668707 0 -506.32523440 0 2311
0.04750000 0.04749250 38096.32655702 0 2193.93687352 0 13969.50933069 0 1843.61958858 0 -1205.27791813 0 2568
0.04850000 0.04851840 36072.74847316 0 2137.39051067 0 13795.23093805 0 1063.34953691 0 -1035.72187202 0 2493
0.04950000 0.04949480 35256.16451779 0 702.44046605 0 10800.66532922 0 1721.63578605 0 -731.29494453 0 2644
0.05050000 0.05050630 34797.77027030 0 -464.55046009 0 10809.87750347 0 1442.81250247 0 -1090.30400445 0 2829
0.05150000 0.05149060 35054.20531310 0 135.01703607 0 12573.95351055 0 -1408.33328298 0 2511.45793234 0 2784
0.05250000 0.05249300 35204.89965388 0 838.34550257 0 11060.01239345 0 573.43680959 0 -656.35523569 0 3055
0.05350000 0.05348950 35136.69413300 0 660.78970178 0 13255.56582639 0 699.96469422 0 2637.29490390 0 3009
0.05450000 0.05448610 33764.61164147 0 745.93145071 0 12122.64555094 0 387.75835131 0 738.99353198 0 3336
0.05550000 0.05550870 32779.17473261 0 1146.83818774 0 11750.17254404 0 432.68873819 0 -1848.61320707 0 3349
0.05650000 0.05647670 32423.53165943 0 1240.60970663 0 11092.91934281 0 -1797.81338080 0 -761.91988775 0 3324
0.05750000 0.05747970 30764.23306211 0 1075.30654048 0 12871.13470868 0 -136.96022908 0 678.03927662 0 3639
0.05850000 0.05849280 30758.69689970 0 163.30239705 0 10188.63150255 0 378.98685559 0 -583.24799661 0 3846
0.05950000 0.05951020 32382.56405761 0 -1128.79029829 0 9768.24854616 0 2119.36476586 0 -1094.01323326 0 3787
0.06050000 0.06049470 33003.27858694 0 -1786.30923532 0 10774.71179985 0 16.51348668 0 -2127.65793715 0 3930
0.06150000 0.06148310 33169.47418247 0 463.75989610 0 9950.23327688 0 -27.41717999 0 -3708.94093380 0 4083
0.06250000 0.06249100 33152.86569524 0 1741.34452423 0 10657.02405935 0 -1058.38470646 0 -1667.54747931 0 4303
0.06350000 0.06350600 31840.68448098 0 743.93732501 0 10442.37597041 0 115.61943022 0 -1385.24748574 0 4470
0.06450000 0.06451750 31549.59306150 0 277.53446497 0 12999.46295333 0 2269.54977970 0 -1429.89109940 0 4479
0.06550000 0.06550280 31188.08165617 0 822.88078650 0 11407.15192116 0 922.01131060 0 -40.28399649 0 4636
0.06650000 0.06648880 30737.32731280 0 280.96134951 0 12538.30062464 0 1821.33099872 0 1346.26183005 0 4653
0.06750000 0.06749660 31357.04533290 0 -280.05009717 0 13242.83265285 0 -969.17387817 0 3479.73273773 0 5220
0.06850000 0.06852730 31699.95523254 0 988.04887028 0 15228.43266257 0 795.81781018 0 3117.32447409 0 5029
0.06950000 0.06949320 30582.42548859 0 869.38233627 0 15506.68018527 0 -1644.40632044 0 3834.41251865 0 5040
0.07050000 0.07048030 29652.23948058 0 1695.13971276 0 16259.48754969 0 -349.22001755 0 4725.59072632 0 5475
0.07150000 0.07148790 29064.52047920 0 1445.66916227 0 16491.67420113 0 931.35413828 0 4187.24322132 0 5509
0.07250000 0.07249820 27522.03490872 0 626.45552975 0 16112.44707609 0 1999.93867037 0 4092.55269947 0 5916
0.07350000 0.07351270 26610.45040640 0 783.03591841 0 14164.71441725 0 1894.28654695 0 5190.52871778 0 5721
0.07450000 0.07449140 25949.54333797 0 806.04531661 0 13589.72858941 0 2893.12096884 0 2712.47598942 0 6028
0.07550000 0.07549160 25359.16697864 0 6.08346743 0 12053.66496732 0 2058.82129375 0 4378.03045027 0 6183
0.07650000 0.07648840 24946.72287915 0 740.67431088 0 10270.11274089 0 2154.96229015 0 3843.64683754 0 6330
0.07750000 0.07749960 24270.97889547 0 -34.28113559 0 9074.01378003 0 898.23349305 0 2957.40688674 0 6583
0.07850000 0.07848650 23885.10837554 0 195.00135578 0 9874.89717881 0 1607.29188765 0 3603.79813732 0 6549
0.07950000 0.07947320 23607.63591558 0 473.54561677 0 8517.65160254 0 167.23860853 0 2006.06166599 0 6828
0.08050000 0.08048110 23152.34191904 0 412.09753573 0 8146.25261115 0 1186.92000358 0 3548.97905715 0 7147
0.08150000 0.08149960 23475.87525024 0 -908.02364266 0 6892.93187563 0 1339.83988165 0 3815.52313251 0 7386
0.08250000 0.08250610 23902.15975576 0 -453.50249439 0 7014.04096449 0 1541.15689151 0 3684.41573433 0 7227
0.08350000 0.08350160 24314.93602500 0 116.90160544 0 6452.38621574 0 -130.16625057 0 2951.53855458 0 7798
0.08450000 0.08449610 24047.42865738 0 910.17388814 0 7104.95582358 0 -1172.60348759 0 2042.94357996 0 7371
0.08550000 0.08548940 22996.99720183 0 1171.54054441 0 7740.33011097 0 -989.08966882 0 3401.61748613 0 8256
0.08650000 0.08650700 22694.16911804 0 461.69490752 0 7809.42141784 0 -1459.52064062 0 1840.54148228 0 8037
0.08750000 0.08749060 22172.77334233 0 287.00573162 0 8536.97280935 0 484.00010587 0 1925.94232360 0 8155
0.08850000 0.08849210 22107.66807240 0 385.94027558 0 8382.02669584 0 215.81400474 0 -867.48896873 0 8718
0.08950000 0.08949900 21408.78292985 0 994.16854421 0 8260.91760697 0 -71.48492205 0 -342.15587431 0 8571
0.09050000 0.09049190 20858.70983286 0 876.97462940 0 8140.52821922 0 -189.39654495 0 -1009.62661689 0 8932
0.09150000 0.09150830 20198.90999691 0 93.41410424 0 7395.29432497 0 658.48112206 0 -519.75153547 0 9285
0.09250000 0.09250820 20106.23463818 0 -158.78821022 0 7276.37755642 0 950.15826752 0 -825.81605981 0 9204
0.09350000 0.09350330 20305.64720816 0 262.54475163 0 7231.24676046 0 510.59804455 0 -1835.43714054 0 9349
0.09450000 0.09448040 19692.24041321 0 801.94302027 0 7081.16139754 0 171.78822679 0 -401.19351025 0 9564
0.09550000 0.09549270 19148.47854137 0 700.63899880 0 7473.40957657 0 600.20636930 0 -502.54624994 0 10155
0.09650000 0.09649430 18354.37140537 0 729.42925780 0 6884.37296854 0 768.10931732 0 1333.52865651 0 9913
0.09750000 0.09749140 18078.22762440 0 340.25586337 0 6954.35006139 0 1177.26493634 0 1331.81244616 0 10476
0.09850000 0.09850240 17714.28030761 0 269.45388232 0 6698.07003114 0 1314.89393384 0 1413.28261218 0 10575
0.09950000 0.09950330 17419.64574418 0 279.68028152 0 6231.72585443 0 527.56306063 0 967.43441594 0 10882
0.10050000 0.10051200 17290.87460654 0 257.00194583 0 5938.13208954 0 131.04096423 0 1643.73090863 0 10875
0.10150000 0.10150300 16890.49934110 0 -119.19246944 0 5475.84038371 0 159.98402130 0 1144.64586743 0 11118
0.10250000 0.10250800 16921.50185059 0 375.69173172 0 5767.70686593 0 -229.96665032 0 335.01754650 0 11575
0.10350000 0.10349800 17027.90689210 0 -60.37539422 0 5290.65575112 0 23.35607270 0 -330.48010779 0 11364
0.10450000 0.10450100 16851.41403449 0 169.64351748 0 5277.61255248 0 -479.53020834 0 -736.93297233 0 12093
0.10550000 0.10551000 16615.79496235 0 412.25586997 0 5273.44935835 0 -280.25936411 0 -469.37467201 0 12067
0.10650000 0.10649700 16320.27461294 0 56.11232772 0 5364.45279604 0 541.74449426 0 -855.06360582 0 12054
0.10750000 0.10749900 16491.23130814 0 88.34131863 0 5054.90381108 0 612.47229074 0 -328.42619154 0 12807
0.10850000 0.10850100 16376.52202302 0 313.12866757 0 5050.51917045 0 544.32434594 0 -1057.32840667 0 12736
0.10950000 0.10950300 15574.22136666 0 574.32923897 0 5047.44106415 0 608.68777012 0 367.24022619 0 12933
0.11050000 0.11050200 15421.75545391 0 445.01555741 0 4724.82673591 0 894.14005457 0 1035.29890922 0 13428
0.11150000 0.11150900 14887.40505816 0 102.95745173 0 4990.34108506 0 416.84645584 0 639.86411511 0 13453
0.11250000 0.11250000 14912.53923550 0 498.20368414 0 5136.42933872 0 -246.35479828 0 254.62582492 0 13668
0.11350000 0.11349100 14495.77692932 0 571.16366130 0 4872.86371874 0 -594.15645102 0 524.19153773 0 13791
0.11450000 0.11448600 14041.70088851 0 364.56183082 0 5654.60306791 0 -878.67644573 0 1035.32659003 0 14205
0.11550000 0.11549300 13876.94469521 0 6.53751025 0 5360.45568678 0 1.82219464 0 782.13906010 0 14776
0.11650000 0.11649800 14118.65354600 0 -163.48066148 0 5172.19294788 0 770.96376266 0 420.71291167 0 14553
0.11750000 0.11747300 14334.23171022 0 -337.22758254 0 4689.69424926 0 968.96239676 0 -16.08720218 0 14568
0.11850000 0.11849100 14523.45774137 0 -215.12309167 0 4129.81107248 0 1026.36575755 0 76.09466304 0 16015
0.11950000 0.11950300 14538.95899612 0 -36.83596382 0 3614.97011307 0 778.43758191 0 492.77935222 0 15270
0.12050000 0.12050700 14490.35149016 0 298.97380752 0 3719.18283426 0 155.91604917 0 850.50180799 0 15999
0.12150000 0.12150000 14326.81325259 0 225.81563575 0 3718.85066451 0 -259.60062047 0 986.21529329 0 15670
0.12250000 0.12250700 13925.22003142 0 169.41985652 0 3949.24359934 0 15.95278415 0 888.87737858 0 16887
0.12350000 0.12352200 13956.55471066 0 349.00853614 0 4446.02559698 0 62.53383322 0 1239.15923208 0 16407
0.12450000 0.12449800 13446.67415276 0 303.10710638 0 4129.67820458 0 193.91848241 0 1104.03479446 0 16306
0.12550000 0.12549900 13426.74396808 0 156.40544592 0 4093.58242568 0 253.72675215 0 1027.56046140 0 17523
0.12650000 0.12650100 13392.30903790 0 165.18801397 0 4003.47584630 0 25.96316230 0 1070.85546591 0 17154
0.12750000 0.12750600 13190.57127970 0 135.00153482 0 3878.95648139 0 140.70156763 0 645.08139456 0 18007
0.12850000 0.12850300 13098.22809071 0 126.16360515 0 3710.73465042 0 328.05859035 0 365.72331769 0 17496
0.12950000 0.12949900 12898.70479748 0 259.28173751 0 3724.14323578 0 41.53815873 0 174.03258703 0 18405
0.13050000 0.13049000 12560.66672077 0 288.51821119 0 3436.91605766 0 -376.85211137 0 -78.58527178 0 18100
0.13150000 0.13148800 12536.63977591 0 176.22490735 0 3661.41851568 0 -29.19583825 0 160.60517873 0 19059
0.13250000 0.13249300 12192.73336705 0 386.70758769 0 3615.16941491 0 140.08483914 0 191.78816711 0 18957
0.13350000 0.13349100 11925.77961567 0 205.07827859 0 3579.62725224 0 215.93137138 0 -19.59768276 0 19468
0.13450000 0.13450700 11968.40806622 0 39.18517898 0 3669.33522792 0 -48.45315775 0 275.96662378 0 19953
0.13550000 0.13551000 11988.33825089 0 17.47788617 0 3537.20917586 0 269.27561789 0 201.74772329 0 19956
0.13650000 0.13649900 12007.49337283 0 -71.32747359 0 4054.90679508 0 229.23144795 0 596.74626780 0 19723
0.13750000 0.13749600 12080.23854689 0 34.28346078 0 3600.57609080 0 243.16153981 0 834.89093723 0 20946
0.13850000 0.13851100 12079.35276090 0 131.15390194 0 3404.29698874 0 485.47272507 0 677.83222414 0 20955
0.13950000 0.13949800 11884.47984409 0 68.88514018 0 3572.89527875 0 76.02933632 0 776.29508706 0 20506
0.14050000 0.14048300 11848.60551168 0 257.31529262 0 3563.19592221 0 399.12187827 0 872.34086146 0 21447
0.14150000 0.14148400 11641.33159108 0 133.91644698 0 3505.01085529 0 22.27353150 0 1037.39379307 0 21771
0.14250000 0.14249400 11283.80622268 0 342.06397402 0 3264.28744141 0 182.85944438 0 847.02841970 0 22470
0.14350000 0.14350900 11236.97028870 0 315.22465866 0 3307.38092960 0 -22.99899022 0 532.32969647 0 22519
0.14450000 0.14449900 10740.01113386 0 106.79035841 0 3146.35610977 0 231.44037675 0 859.05739338 0 22218
0.14550000 0.14550500 10847.85557760 0 153.11585822 0 3054.79905584 0 197.98866901 0 748.69288852 0 23559
0.14650000 0.14650700 10774.20247290 0 223.73514591 0 3102.05573817 0 -50.83337541 0 505.66532384 0 23044
0.14750000 0.14750500 10294.97011010 0 337.44681457 0 2944.26403718 0 10.69052891 0 481.00504200 0 23649
0.14850000 0.14849900 10365.46760222 0 106.86376792 0 3167.52639482 0 -173.25088090 0 471.93570075 0 23640
0.14950000 0.14949500 10018.56059333 0 104.53813682 0 2854.81072497 0 251.10593286 0 95.19840939 0 24457
0.15050000 0.15050000 10057.03692208 0 27.34543133 0 2866.35915975 0 46.25685139 0 -450.09996897 0 24591
0.15150000 0.15149900 10144.84045789 0 -79.57735209 0 2573.09756461 0 190.28454540 0 -582.01675409 0 25020
0.15250000 0.15250500 10051.70006151 0 163.70875137 0 2140.31360442 0 93.99285466 0 -651.97834569 0 25297
0.15350000 0.15350100 10014.68527964 0 170.47394184 0 1929.04257455 0 309.66524437 0 -405.60029552 0 25452
0.15450000 0.15450400 9834.69356739 0 68.72126977 0 1846.24372956 0 408.84116500 0 -152.42051622 0 26061
0.15550000 0.15549900 9700.15374852 0 137.44630414 0 1746.99140989 0 266.96039477 0 -416.67372758 0 26128
0.15650000 0.15649500 9537.71167111 0 134.48667171 0 1772.46882929 0 143.44528972 0 -495.00821120 0 26331
0.15750000 0.15749700 9342.72803105 0 252.36374896 0 2003.19393386 0 -249.45283477 0 -527.17885096 0 27345
0.15850000 0.15849900 9167.24275500 0 298.58184722 0 2005.60770068 0 -360.86699602 0 -392.67114183 0 26980
0.15950000 0.15949700 9070.10524937 0 66.34990997 0 2358.64877752 0 -58.41448549 0 -246.76336707 0 27777
0.16050000 0.16050000 8966.34649349 0 198.03628001 0 2409.50396541 0 -49.78836940 0 -467.41154882 0 28224
0.16150000 0.16150500 8949.63835534 0 161.59283010 0 2272.15177603 0 -93.63322555 0 -785.28692204 0 28075
0.16250000 0.16249700 8737.19365904 0 87.70753876 0 2219.41429292 0 -200.68035118 0 -429.48108569 0 28590
0.16350000 0.16349900 8654.06264431 0 51.55916630 0 1982.33367391 0 328.17706423 0 -504.49830080 0 29163
0.16450000 0.16449100 8749.21820380 0 -69.78133415 0 2109.12286540 0 268.10970209 0 -627.18741042 0 28996
0.16550000 0.16550500 8752.96064959 0 -57.80207521 0 1754.40986751 0 349.28534426 0 -905.05847407 0 30777
0.16650000 0.16650700 8753.65820605 0 125.97980455 0 1687.23407284 0 95.94988807 0 -930.51374883 0 29211
0.16750000 0.16749900 8640.70942057 0 159.25324787 0 1563.05795000 0 -237.70841983 0 -957.99858073 0 30922
0.16850000 0.16850800 8561.18798373 0 133.62413761 0 1746.20527482 0 -466.84575303 0 -1000.98356014 0 30867
0.16950000 0.16949900 8465.58953124 0 227.31482853 0 2001.03483053 0 -97.45528136 0 -859.44271028 0 30852
0.17050000 0.17049200 8308.89399041 0 240.91496510 0 2075.90589095 0 37.99003224 0 -534.70803184 0 31257
0.17150000 0.17149500 8248.80448362 0 75.81796564 0 1891.41881482 0 192.29527959 0 -591.86669425 0 32608
0.17250000 0.17250900 8175.41711472 0 -19.23329255 0 1971.27242141 0 425.96230087 0 -265.27629417 0 32361
0.17350000 0.17350400 8238.71759571 0 -17.45507718 0 1892.68105985 0 287.38883406 0 -293.39557028 0 32508
0.17450000 0.17449800 8120.85269801 0 236.34541665 0 1958.43959695 0 154.47996864 0 -198.58878902 0 32791
0.17550000 0.17549800 7891.53377869 0 261.26257642 0 1979.21127831 0 -15.08692835 0 140.89976225 0 33633
0.17650000 0.17650100 7714.29907532 0 121.40804164 0 1792.01148260 0 129.89940754 0 176.30684255 0 33984
0.17750000 0.17750300 7697.54664787 0 1.63703215 0 1838.52631916 0 137.04770044 0 124.74081141 0 34069
