### header ###
fiducial parameters:
Omega_m = 0.31
Omega_nu = 0
Omega_de = 0.69
Omega_k = 0
H_0 = 100
w_de = -1
zeff = 0
beta = 0
fgrowth = 0
b_1 = 2
gamma = 0.55
Lx = 3500 Ly = 3500 Lz = 3500
nx = 700 ny = 700 nz = 700
xoffset = -685.467585 yoffset = -31.7331281 zoffset = 572.489161
bins = 400 dk = 0.001
kx_ny = 0.628318531 ky_ny = 0.628318531 kz_ny = 0.628318531
############################
A(data) = 7.97810876 (not used)
A(ran) = 7.97233114 (used)
Ngal = 473976
weighted Ngal = 0
Nran = 23820508
weighted Nran = 0
SN(data) = 3493.10873
SN(ran) = 69.4418955
SN(data+ran) = 3562.55062
############################
13 columns: k_central k_mean P_0(k) sigma^{lin}_{P_0(k)} P^img_1(k) sigma^{lin}_{P_1(k)} P_2(k) sigma^{lin}_{P_2(k)} P^img_3(k) sigma^{lin}_{P_3(k)} P_4(k) sigma^{lin}_{P_4(k)} N_modes
### header ###
0.00050000 0 0 0 0 0 0 0 0 0 0 0 0
0.00150000 0.00179520 21844.81108120 0 -36258.76353012 0 12984.84748457 0 -26054.73042375 0 19223.32745714 0 3
0.00250000 0.00253879 39955.03772433 0 -30514.88430720 0 4245.79367496 0 -9369.27946597 0 -4754.35662620 0 6
0.00350000 0.00331552 56574.81872361 0 -25529.45933435 0 -6568.34667357 0 -1600.50455254 0 18683.33017574 0 7
0.00450000 0.00420575 55272.82404819 0 -496.77978317 0 -12511.83776832 0 -17901.51332029 0 1160.52358122 0 24
0.00550000 0.00557378 55081.60499857 0 1672.07606016 0 -18029.17722545 0 -23748.69733377 0 -7706.18306123 0 45
0.00650000 0.00659388 42413.31528056 0 -6807.44245570 0 -24742.32776300 0 -40468.35070292 0 -26342.83231553 0 40
0.00750000 0.00754703 72197.75831947 0 -5112.02593482 0 -18345.29209902 0 -41790.60773276 0 -26094.59079310 0 57
0.00850000 0.00846663 60397.64959050 0 4488.82013240 0 8504.03264301 0 -58810.98544398 0 -19490.28120852 0 75
0.00950000 0.00948925 68265.86505312 0 12005.83252411 0 19332.83274960 0 -41301.54314552 0 -28626.94220237 0 112
0.01050000 0.01054430 57213.13824941 0 -865.55795528 0 28068.34341527 0 -12023.54824382 0 -22605.92268924 0 105
0.01150000 0.01145670 64767.01041043 0 -4124.34134402 0 30649.63450024 0 9955.53692046 0 -40918.88359979 0 144
0.01250000 0.01249090 65622.01533293 0 -6010.52294920 0 32899.30945689 0 21651.37756662 0 -36020.70854652 0 169
0.01350000 0.01339930 72001.88889343 0 1267.11685225 0 30040.54591197 0 5060.77214323 0 -36071.86268718 0 180
0.01450000 0.01448870 69248.64460403 0 7954.77889806 0 11808.96658883 0 4451.71677194 0 -17111.17077474 0 267
0.01550000 0.01550050 57687.47664464 0 6310.14005880 0 25995.27203947 0 813.19360952 0 18953.71634781 0 238
0.01650000 0.01653350 62368.08051522 0 -435.79784700 0 2543.76697616 0 9938.58519117 0 -5549.81458582 0 315
0.01750000 0.01747870 60275.52184775 0 -6019.93442530 0 17169.96481952 0 2793.59184104 0 1262.27824630 0 297
0.01850000 0.01844180 65626.44426285 0 448.58859663 0 12226.06106475 0 682.17589717 0 -21244.80179928 0 388
0.01950000 0.01947590 62097.25145016 0 -1212.60779716 0 6525.06495585 0 -1965.50374018 0 1430.45578797 0 399
0.02050000 0.02045430 64563.16891052 0 1483.59187478 0 12941.77614103 0 -6993.53501893 0 -14632.96303383 0 462
0.02150000 0.02154770 64427.31148499 0 1495.11816491 0 18067.81963907 0 810.24394218 0 -8529.27754360 0 571
0.02250000 0.02255340 61238.37121398 0 675.32212811 0 19536.56352626 0 1682.21830970 0 -9473.27074066 0 510
0.02350000 0.02348930 67663.53058299 0 -2687.35288441 0 18087.08548425 0 4742.76390212 0 -9825.76927359 0 555
0.02450000 0.02439640 67552.80733480 0 -2183.48459889 0 22290.13998541 0 1578.17167338 0 -7562.17640464 0 592
0.02550000 0.02547300 67435.66213822 0 665.69584891 0 17949.89937975 0 5416.09411899 0 -3333.67770105 0 837
0.02650000 0.02652900 68401.27958565 0 1944.25594886 0 18264.46412785 0 5943.63503497 0 -194.43998891 0 723
0.02750000 0.02749970 67090.42705038 0 924.96872856 0 15636.66927864 0 -2295.02719911 0 1915.85543570 0 826
0.02850000 0.02848090 63793.97450537 0 3953.11891303 0 25223.97389261 0 4597.70537467 0 -148.04362622 0 831
0.02950000 0.02946900 61934.37755208 0 4963.94466270 0 23093.88004400 0 -2560.66334383 0 3078.84814535 0 996
0.03050000 0.03053250 58450.47054789 0 2654.93311734 0 27926.17476460 0 -969.32003285 0 2344.85266079 0 1041
0.03150000 0.03150510 58395.44109354 0 3143.18942487 0 28660.49134657 0 -3288.81264088 0 6910.74724626 0 1036
0.03250000 0.03246190 58118.63297307 0 2298.74750025 0 35979.40877494 0 -1949.81425591 0 4805.55505616 0 1059
0.03350000 0.03345080 53307.48639288 0 1159.67101221 0 29749.45449248 0 1571.48398919 0 9236.05725375 0 1302
0.03450000 0.03451200 58018.87132646 0 -2649.28623168 0 31748.45201524 0 5697.71870075 0 -1819.99124742 0 1339
0.03550000 0.03553350 56086.30775261 0 115.05917059 0 28499.05685071 0 9180.60705106 0 -938.17911930 0 1365
0.03650000 0.03647120 57442.99971264 0 2653.39406419 0 27718.12578125 0 1285.76264724 0 -5028.77312451 0 1308
0.03750000 0.03744890 54027.63039908 0 3916.91241087 0 25630.10676695 0 -922.80187459 0 4551.03552556 0 1579
0.03850000 0.03847530 51009.64682326 0 2388.15652316 0 23776.82103881 0 4265.63528103 0 1512.02560491 0 1662
0.03950000 0.03950240 49078.30120515 0 147.81996526 0 25996.26854871 0 4683.08407135 0 2872.55966165 0 1683
0.04050000 0.04050350 47593.83461671 0 1707.09782356 0 21292.30207275 0 3688.11389082 0 105.51383008 0 1822
0.04150000 0.04152450 44901.82028355 0 4277.21693279 0 19642.96856777 0 5718.05856144 0 -68.19201265 0 1887
0.04250000 0.04250150 44078.92510303 0 2209.75922568 0 18023.97323279 0 860.02732903 0 3332.00578000 0 1920
0.04350000 0.04349210 41445.04047517 0 -1332.29962845 0 13007.32430395 0 5320.27422001 0 -33.35238899 0 2005
0.04450000 0.04448520 41780.97481017 0 -554.11892448 0 12693.75606509 0 2147.96458087 0 -114.09698556 0 2151
0.04550000 0.04548030 42176.36752944 0 66.48643173 0 11283.58477619 0 -1025.42793164 0 -9139.16333926 0 2274
0.04650000 0.04648670 40963.06217582 0 681.60345798 0 10057.41338112 0 1696.67876591 0 -4449.36943907 0 2311
0.04750000 0.04749250 40737.51891926 0 1806.02904582 0 9390.77084844 0 -1927.71389558 0 -5645.47947226 0 2568
0.04850000 0.04851840 39775.44461577 0 1678.12154951 0 11064.90636102 0 -1812.58386211 0 -8288.79772086 0 2493
0.04950000 0.04949480 37973.53447478 0 1837.72911177 0 11684.40293462 0 -475.79329871 0 -5006.50667930 0 2644
0.05050000 0.05050630 36917.34541033 0 1651.18258323 0 13309.48804825 0 575.11094510 0 -5456.39738133 0 2829
0.05150000 0.05149060 35448.38007664 0 215.04779986 0 14163.71790801 0 2117.61533854 0 -3499.87329658 0 2784
0.05250000 0.05249300 36115.15547722 0 -651.86872968 0 12649.24531932 0 1565.43849983 0 -5202.08822489 0 3055
0.05350000 0.05348950 35939.32695910 0 590.14384051 0 12253.18826055 0 774.92765494 0 -3417.46198295 0 3009
0.05450000 0.05448610 34604.33675572 0 2185.90943802 0 11223.79422217 0 799.15722334 0 -4891.65345395 0 3336
0.05550000 0.05550870 32547.54169740 0 1541.93195424 0 10471.03114704 0 1893.20145912 0 -222.41421756 0 3349
0.05650000 0.05647670 31895.82465858 0 -179.61303874 0 9125.00183582 0 1447.65110841 0 -2412.38276986 0 3324
0.05750000 0.05747970 32362.74459618 0 -1246.35624321 0 9175.00445470 0 1596.08669493 0 -3458.41851245 0 3639
0.05850000 0.05849280 33627.31481372 0 -681.31336307 0 10895.90946731 0 -1743.73614639 0 -3620.91595149 0 3846
0.05950000 0.05951020 32853.02713915 0 1063.74703337 0 11998.30334323 0 -1547.08058529 0 -5607.31316861 0 3787
0.06050000 0.06049470 32384.00345983 0 1363.94433278 0 9678.71772767 0 -3401.37389499 0 -1714.94810186 0 3930
0.06150000 0.06148310 31983.07457815 0 826.44718232 0 14975.31931722 0 -1427.82057466 0 -4195.18207821 0 4083
0.06250000 0.06249100 31989.71797304 0 1041.17277753 0 14631.63435485 0 -1612.57338659 0 -3508.95260293 0 4303
0.06350000 0.06350600 31628.76018395 0 78.55914110 0 15015.73330281 0 844.67887237 0 -5447.07448383 0 4470
0.06450000 0.06451750 30351.01389988 0 614.52731422 0 13164.99420937 0 1022.47715708 0 -4354.97786999 0 4479
0.06550000 0.06550280 31518.14765901 0 -160.26636559 0 12346.97085177 0 3178.26654989 0 -4507.05625138 0 4636
0.06650000 0.06648880 30282.03331626 0 163.01783830 0 10413.11181592 0 3420.70617412 0 -1765.64827721 0 4653
0.06750000 0.06749660 30620.18211622 0 599.33276288 0 10639.41906289 0 3369.39702091 0 -2859.51646301 0 5220
0.06850000 0.06852730 30141.96840730 0 536.75198300 0 9190.45034782 0 2363.71990228 0 -2307.86002357 0 5029
0.06950000 0.06949320 29061.42022825 0 1511.77094144 0 9384.22710447 0 608.58922642 0 -329.61978815 0 5040
0.07050000 0.07048030 27674.72226797 0 1384.89317134 0 9620.65445632 0 -1508.71497979 0 228.96681939 0 5475
0.07150000 0.07148790 28000.35934088 0 472.23354628 0 11220.91541771 0 241.88932969 0 3339.09206788 0 5509
0.07250000 0.07249820 27229.28264051 0 -618.33065780 0 10284.75035430 0 171.99085034 0 4029.10827826 0 5916
0.07350000 0.07351270 27830.28843167 0 -6.59803158 0 11076.75374857 0 1938.86372667 0 4110.17984058 0 5721
0.07450000 0.07449140 27735.73077772 0 625.91409307 0 10090.24282421 0 2499.47767689 0 1984.41527097 0 6028
0.07550000 0.07549160 26896.11638672 0 902.42215353 0 8170.30170065 0 1566.96648066 0 2575.54454839 0 6183
0.07650000 0.07648840 25430.47275047 0 994.98457455 0 8783.37632586 0 468.26411784 0 2787.23632660 0 6330
0.07750000 0.07749960 24843.86098158 0 849.84300467 0 7223.23039729 0 689.77483369 0 2164.14124743 0 6583
0.07850000 0.07848650 24716.97213916 0 -533.26973685 0 7621.33583615 0 -53.98444833 0 2481.68445090 0 6549
0.07950000 0.07947320 25107.71448201 0 -308.91011181 0 7679.18873332 0 -174.10123545 0 1378.52658457 0 6828
0.08050000 0.08048110 25366.25326653 0 82.12675488 0 8052.79111735 0 -1063.12366148 0 1465.04573070 0 7147
0.08150000 0.08149960 25154.21824625 0 908.26612657 0 8376.21372531 0 -772.43416739 0 -82.94422462 0 7386
0.08250000 0.08250610 24559.63440349 0 418.69996302 0 9164.50789077 0 -886.81239000 0 266.84192090 0 7227
0.08350000 0.08350160 23819.89238235 0 912.21783930 0 9066.32958660 0 451.09094204 0 -560.49658357 0 7798
0.08450000 0.08449610 23550.83488926 0 1059.44875688 0 9099.39154851 0 541.84635965 0 -1118.50410853 0 7371
0.08550000 0.08548940 22582.67080712 0 266.92828503 0 8665.61107909 0 1511.31697612 0 368.20794738 0 8256
0.08650000 0.08650700 22090.61669218 0 478.27460670 0 7897.96679941 0 889.60925925 0 -1555.28517798 0 8037
0.08750000 0.08749060 22128.37331981 0 634.76198783 0 7626.29623766 0 216.24139648 0 -565.36729926 0 8155
0.08850000 0.08849210 21247.90205023 0 275.08194503 0 7738.33709250 0 -382.84113186 0 -1583.78534206 0 8718
0.08950000 0.08949900 20794.49034891 0 935.15858909 0 8441.77296056 0 -1041.28128631 0 -1071.12784510 0 8571
0.09050000 0.09049190 20391.90061850 0 645.06367884 0 8570.75447237 0 -46.85398187 0 -712.57939389 0 8932
0.09150000 0.09150830 20098.26256431 0 -54.53186407 0 8679.18574932 0 827.53005569 0 431.34012903 0 9285
0.09250000 0.09250820 19947.01460729 0 122.84965833 0 8468.80050544 0 1395.99871313 0 -117.53826411 0 9204
0.09350000 0.09350330 20006.47299156 0 274.95904222 0 8178.35128080 0 1029.34864186 0 -484.14072439 0 9349
0.09450000 0.09448040 19809.93922603 0 220.83419681 0 7598.57113632 0 1222.86076995 0 844.37881237 0 9564
0.09550000 0.09549270 19131.87005414 0 622.89356286 0 6956.99634703 0 417.24284507 0 1001.67558044 0 10155
0.09650000 0.09649430 18841.44297415 0 254.93806448 0 6779.20802741 0 353.89807478 0 323.28641836 0 9913
0.09750000 0.09749140 18303.77088095 0 235.07099206 0 6402.62718801 0 931.62541024 0 1081.26788016 0 10476
0.09850000 0.09850240 18225.82171423 0 261.13524469 0 6293.88588596 0 580.96045430 0 645.74241235 0 10575
0.09950000 0.09950330 17588.94159066 0 422.09252334 0 5151.97488277 0 931.04079149 0 986.81319883 0 10882
0.10050000 0.10051200 17613.07925877 0 535.85512469 0 5794.18079457 0 -119.36519771 0 436.27727867 0 10875
0.10150000 0.10150300 16792.50926646 0 442.27958595 0 5836.72066653 0 93.61650634 0 677.47790975 0 11118
0.10250000 0.10250800 16545.15353001 0 477.13747894 0 5902.00309366 0 -483.13757176 0 86.60761401 0 11575
0.10350000 0.10349800 16315.29206677 0 229.77620633 0 6588.80832983 0 -399.77403820 0 393.69422465 0 11364
0.10450000 0.10450100 16168.91593267 0 300.94911027 0 6362.08033452 0 -329.11046121 0 -168.97807075 0 12093
0.10550000 0.10551000 16161.82964479 0 223.79936540 0 6383.46099375 0 -262.79609341 0 -64.76778547 0 12067
0.10650000 0.10649700 15728.01595839 0 275.00111706 0 6208.86150368 0 262.18822278 0 -226.69256387 0 12054
0.10750000 0.10749900 15606.55255513 0 422.38372548 0 5995.43137048 0 755.06501145 0 -154.12676148 0 12807
0.10850000 0.10850100 15141.95780574 0 327.91022120 0 6158.51564273 0 634.94246673 0 -45.41125795 0 12736
0.10950000 0.10950300 15031.34528080 0 341.56129047 0 5848.46840316 0 506.77698525 0 358.67689018 0 12933
0.11050000 0.11050200 14746.78653296 0 127.12689741 0 5785.61081516 0 227.17199554 0 464.52831544 0 13428
0.11150000 0.11150900 14712.68377252 0 -116.71337591 0 5584.60383040 0 435.54429076 0 1191.86933278 0 13453
0.11250000 0.11250000 15019.16572350 0 -241.14637669 0 5960.02207571 0 765.19951036 0 1735.89694042 0 13668
0.11350000 0.11349100 15143.50793121 0 -208.34682888 0 5552.89269212 0 662.09291441 0 1513.29892226 0 13791
0.11450000 0.11448600 15374.91951992 0 33.81166902 0 5336.20729542 0 216.09524179 0 1602.32041381 0 14205
0.11550000 0.11549300 15136.97525957 0 257.85230038 0 5134.58026048 0 254.47634854 0 1480.55805777 0 14776
0.11650000 0.11649800 15021.71235821 0 244.26545059 0 5428.86050951 0 -339.81961378 0 1638.70407316 0 14553
0.11750000 0.11747300 14583.02684889 0 233.33817323 0 5140.57038820 0 74.40989809 0 1435.67085296 0 14568
0.11850000 0.11849100 14486.25472998 0 384.45879852 0 5097.23330886 0 109.44671986 0 1016.72286987 0 16015
0.11950000 0.11950300 14177.55831404 0 373.32003975 0 4875.10032835 0 -213.14889615 0 1019.82201358 0 15270
0.12050000 0.12050700 14022.32432008 0 -33.24609467 0 4565.58456037 0 531.00766089 0 456.62710445 0 15999
0.12150000 0.12150000 13984.01407621 0 -40.97479884 0 4278.04735715 0 618.15460784 0 411.36454782 0 15670
0.12250000 0.12250700 14010.14476278 0 -228.36448492 0 4045.93821198 0 522.79642480 0 -340.75743969 0 16887
0.12350000 0.12352200 13923.44845945 0 348.63650603 0 3786.04860384 0 462.52533188 0 489.33696643 0 16407
0.12450000 0.12449800 13828.11574276 0 222.08758398 0 3085.36974466 0 592.64397145 0 67.18742062 0 16306
0.12550000 0.12549900 13533.92407233 0 23.98697376 0 3141.67251637 0 543.90691930 0 467.66510506 0 17523
0.12650000 0.12650100 13681.40743891 0 134.88859710 0 3133.86652737 0 97.98619933 0 505.94877536 0 17154
0.12750000 0.12750600 13348.46263162 0 300.01903498 0 3539.75581057 0 -153.83666657 0 132.48479539 0 18007
0.12850000 0.12850300 13116.05453367 0 431.89263804 0 3189.08421124 0 -209.32672963 0 874.75573551 0 17496
0.12950000 0.12949900 12834.59603678 0 275.72081817 0 3769.72799706 0 -423.56735701 0 673.33353857 0 18405
0.13050000 0.13049000 12800.27182984 0 154.82985410 0 4071.74780113 0 -61.34267251 0 802.10467621 0 18100
0.13150000 0.13148800 12815.44091485 0 49.79855593 0 4182.64820652 0 96.57934974 0 267.87164711 0 19059
0.13250000 0.13249300 12505.08365018 0 185.64081237 0 4219.91765186 0 -101.80504416 0 400.26454219 0 18957
0.13350000 0.13349100 12549.70511920 0 439.06418282 0 4544.58036019 0 76.53246276 0 364.90285842 0 19468
0.13450000 0.13450700 12191.29396482 0 248.41978686 0 4324.30753025 0 -56.24818514 0 369.95848193 0 19953
0.13550000 0.13551000 11929.54420611 0 155.20409868 0 4788.30437410 0 -36.69146998 0 489.91272732 0 19956
0.13650000 0.13649900 11997.19611075 0 274.38438856 0 4620.34827892 0 109.40973829 0 381.85126602 0 19723
0.13750000 0.13749600 11774.75310514 0 194.59500146 0 4533.39731212 0 -71.04225050 0 405.57040025 0 20946
0.13850000 0.13851100 11626.27322932 0 135.74227335 0 4348.20160721 0 -131.97989737 0 277.59646999 0 20955
0.13950000 0.13949800 11528.39387793 0 295.23246896 0 4483.95938181 0 -82.58204887 0 435.16118832 0 20506
0.14050000 0.14048300 11343.81822320 0 50.85961682 0 4393.13310132 0 171.19917911 0 -25.19441079 0 21447
0.14150000 0.14148400 11378.69604638 0 37.09793503 0 4359.00819623 0 414.65634999 0 48.29349482 0 21771
0.14250000 0.14249400 11123.14678956 0 146.20451307 0 4070.81772585 0 408.31522957 0 -80.38153504 0 22470
0.14350000 0.14350900 11133.77622139 0 117.14519658 0 3863.84275801 0 343.08594960 0 -263.15372950 0 22519
0.14450000 0.14449900 10837.94584689 0 211.93315489 0 3918.97186329 0 394.93653949 0 102.28724391 0 22218
0.14550000 0.14550500 10688.01549652 0 256.64763144 0 3595.78177415 0 471.19606945 0 414.55005568 0 23559
0.14650000 0.14650700 10480.75264824 0 167.48109244 0 3608.84711744 0 287.60252993 0 509.27822343 0 23044
0.14750000 0.14750500 10385.09883413 0 -12.19328698 0 3282.83358548 0 167.06698749 0 663.28540380 0 23649
0.14850000 0.14849900 10400.35649773 0 -10.06387962 0 3253.80194981 0 332.67574980 0 548.12547505 0 23640
0.14950000 0.14949500 10311.17999364 0 62.28094132 0 3214.52841367 0 -19.47500140 0 509.71779472 0 24457
0.15050000 0.15050000 10311.32393386 0 186.60299740 0 3102.80865625 0 266.30602038 0 444.21724279 0 24591
0.15150000 0.15149900 10127.96623486 0 203.83153482 0 3216.78716794 0 -85.77862905 0 364.90507289 0 25020
0.15250000 0.15250500 9929.86019921 0 248.20609099 0 3234.77969577 0 52.95162187 0 425.33228558 0 25297
0.15350000 0.15350100 9722.84094207 0 223.34650731 0 3035.37819811 0 114.16452674 0 545.95419216 0 25452
0.15450000 0.15450400 9584.72476229 0 50.09939100 0 2893.99568250 0 286.95812063 0 420.68855255 0 26061
0.15550000 0.15549900 9426.77804875 0 133.99506049 0 2788.65358417 0 137.96891787 0 468.78562433 0 26128
0.15650000 0.15649500 9428.50533142 0 123.65240188 0 2922.80587168 0 53.09888379 0 372.01350542 0 26331
0.15750000 0.15749700 9395.19977837 0 92.12307117 0 2711.37982927 0 -216.84926711 0 458.90246720 0 27345
0.15850000 0.15849900 9281.15483273 0 132.98637170 0 2998.67344133 0 -301.27463662 0 471.72643381 0 26980
0.15950000 0.15949700 9263.27302815 0 54.34274876 0 3126.19340627 0 -35.58711631 0 391.97358537 0 27777
0.16050000 0.16050000 9222.94762116 0 110.10109425 0 3258.71806203 0 -59.92851519 0 471.15288738 0 28224
0.16150000 0.16150500 9252.95362142 0 163.22489078 0 3320.01445222 0 -34.33184684 0 364.73123739 0 28075
0.16250000 0.16249700 9096.71204590 0 173.74027766 0 3165.31192986 0 274.75641868 0 495.89510442 0 28590
0.16350000 0.16349900 8799.78551124 0 109.26701603 0 2965.42324990 0 247.11768146 0 283.82133101 0 29163
0.16450000 0.16449100 8984.17293645 0 -56.92326479 0 2786.78236128 0 610.11610002 0 596.96992876 0 28996
0.16550000 0.16550500 8874.60121004 0 -131.93117914 0 2483.79926494 0 485.76946337 0 27.31918992 0 30777
0.16650000 0.16650700 8928.19126217 0 144.14395342 0 2146.97914396 0 204.25228316 0 -228.14193119 0 29211
0.16750000 0.16749900 8751.85341710 0 235.26697221 0 2067.71237058 0 -44.41164846 0 -410.61938036 0 30922
0.16850000 0.16850800 8543.27296217 0 182.07773825 0 1913.98421280 0 -263.67855770 0 -201.18414195 0 30867
0.16950000 0.16949900 8437.91979152 0 88.67171680 0 2131.85434826 0 -31.87655881 0 -214.96365019 0 30852
0.17050000 0.17049200 8428.91799144 0 58.89801392 0 2072.05272191 0 119.99964192 0 9.84166913 0 31257
0.17150000 0.17149500 8399.78670484 0 69.21941367 0 2042.50068697 0 431.10871744 0 59.93748377 0 32608
0.17250000 0.17250900 8226.36088121 0 159.53780661 0 1895.89203405 0 363.32173044 0 80.98984856 0 32361
0.17350000 0.17350400 8195.60196286 0 218.97293901 0 1830.70925784 0 288.71308411 0 796.49322199 0 32508
0.17450000 0.17449800 8123.60970689 0 111.12960251 0 1907.94979577 0 45.49142158 0 1040.13197900 0 32791
0.17550000 0.17549800 8053.72119264 0 -23.91433931 0 1859.56373632 0 94.24342137 0 1048.48494084 0 33633
0.17650000 0.17650100 8035.56257994 0 31.03616936 0 2064.24673291 0 -57.24746246 0 890.46847166 0 33984
0.17750000 0.17750300 8008.72326458 0 109.52998374 0 2076.99097878 0 -70.25013638 0 936.60131301 0 34069
0.17850000 0.17849800 7931.37200339 0 182.43315987 0 2226.36771291 0 -163.78515041 0 890.54819240 0 34536
