### header ###
fiducial parameters:
Omega_m = 0.31
Omega_nu = 0
Omega_de = 0.69
Omega_k = 0
H_0 = 100
w_de = -1
zeff = 0
beta = 0
fgrowth = 0
b_1 = 2
gamma = 0.55
Lx = 3500 Ly = 3500 Lz = 3500
nx = 700 ny = 700 nz = 700
xoffset = -685.467585 yoffset = -31.7331281 zoffset = 572.489161
bins = 400 dk = 0.001
kx_ny = 0.628318531 ky_ny = 0.628318531 kz_ny = 0.628318531
############################
A(data) = 8.05932495 (not used)
A(ran) = 8.06143542 (used)
Ngal = 479109
weighted Ngal = 0
Nran = 23820508
weighted Nran = 0
SN(data) = 3482.67136
SN(ran) = 70.2180261
SN(data+ran) = 3552.88938
############################
13 columns: k_central k_mean P_0(k) sigma^{lin}_{P_0(k)} P^img_1(k) sigma^{lin}_{P_1(k)} P_2(k) sigma^{lin}_{P_2(k)} P^img_3(k) sigma^{lin}_{P_3(k)} P_4(k) sigma^{lin}_{P_4(k)} N_modes
### header ###
0.00050000 0 0 0 0 0 0 0 0 0 0 0 0
0.00150000 0.00179520 16645.57951611 0 -26192.47014449 0 -14684.33862099 0 16439.41282799 0 -18940.42955802 0 3
0.00250000 0.00253879 21083.03513368 0 -17069.20666367 0 -12800.60399959 0 504.43851025 0 20297.23224130 0 6
0.00350000 0.00331552 27190.19733390 0 -2156.76707910 0 -8127.15285084 0 -9451.73506889 0 -23787.00757764 0 7
0.00450000 0.00420575 28970.73788799 0 -6361.57100758 0 -17872.72527576 0 -1031.00395442 0 3088.06031960 0 24
0.00550000 0.00557378 39525.32079811 0 -15343.14194769 0 -29017.13092898 0 2694.00735162 0 -623.20137349 0 45
0.00650000 0.00659388 74390.96441955 0 -28055.83168822 0 -61219.54826178 0 -106.84372702 0 10781.66521983 0 40
0.00750000 0.00754703 63036.84893427 0 -1902.25862082 0 -30387.33112529 0 -17275.26262855 0 -14042.14378150 0 57
0.00850000 0.00846663 91452.64190235 0 -8420.91270060 0 -31696.85498159 0 -50136.37256482 0 7676.74174954 0 75
0.00950000 0.00948925 77022.41313595 0 2878.50550008 0 179.87545284 0 -18946.51933667 0 14533.53355696 0 112
0.01050000 0.01054430 76326.96041409 0 7904.67662825 0 11732.12465459 0 -20368.31656664 0 13319.34241734 0 105
0.01150000 0.01145670 77632.94112645 0 10019.57924721 0 39884.39629198 0 9558.88195616 0 21005.63958320 0 144
0.01250000 0.01249090 68400.28307642 0 7046.51609319 0 43270.31322153 0 11539.68764924 0 2433.11016192 0 169
0.01350000 0.01339930 63383.96631733 0 6457.13624309 0 53785.81082504 0 12200.15182467 0 26552.87431734 0 180
0.01450000 0.01448870 65775.58847816 0 1654.59285927 0 46072.49718663 0 21286.54446385 0 21992.18372454 0 267
0.01550000 0.01550050 62943.39851280 0 -5504.45127104 0 43162.46877779 0 4632.48354692 0 31151.98587726 0 238
0.01650000 0.01653350 70366.94941071 0 1596.03133331 0 37703.48047245 0 11802.65536368 0 14041.25799552 0 315
0.01750000 0.01747870 70563.15100650 0 -2859.54967999 0 30225.34301319 0 651.63731809 0 18567.84582788 0 297
0.01850000 0.01844180 69753.98550875 0 4960.76690547 0 34114.27565924 0 -1653.39704819 0 1459.64243619 0 388
0.01950000 0.01947590 71121.30690060 0 -3375.98505418 0 34307.93062032 0 6296.17785720 0 1475.67516253 0 399
0.02050000 0.02045430 70877.49430810 0 -6166.12232988 0 38259.64334810 0 14877.21851933 0 7058.51849329 0 462
0.02150000 0.02154770 76831.41553283 0 -386.67104901 0 17155.34935076 0 23061.65957877 0 -5757.99643706 0 571
0.02250000 0.02255340 76535.89518342 0 -2323.85953294 0 21460.82285649 0 15896.31529563 0 8073.41885849 0 510
0.02350000 0.02348930 75601.94458497 0 4962.09558445 0 6673.94343536 0 8819.12886270 0 2726.32746777 0 555
0.02450000 0.02439640 74334.27411648 0 4665.25762839 0 16823.73322244 0 -1595.46664474 0 15086.48545840 0 592
0.02550000 0.02547300 67445.84867705 0 2339.28328141 0 8096.57108969 0 1513.24356064 0 9019.43829100 0 837
0.02650000 0.02652900 64906.30025665 0 720.39756244 0 14790.74366249 0 -4985.65749166 0 4187.98506708 0 723
0.02750000 0.02749970 68559.50310731 0 -700.06877408 0 13620.17748267 0 -4317.66413536 0 -11798.89077325 0 826
0.02850000 0.02848090 66866.10174955 0 2619.57918419 0 17388.86468119 0 -12897.81901150 0 -8159.38438838 0 831
0.02950000 0.02946900 68685.06327076 0 5952.69219668 0 18673.69725314 0 -13565.03730507 0 -11317.02319714 0 996
0.03050000 0.03053250 63893.73615198 0 1419.91493474 0 21755.56814317 0 -4932.49926021 0 -14104.81313998 0 1041
0.03150000 0.03150510 60577.35342230 0 3449.23955518 0 23747.25793154 0 1778.51431864 0 -14060.41311745 0 1036
0.03250000 0.03246190 58270.43454634 0 2865.81661584 0 26337.18542987 0 5944.53189328 0 -12762.51520221 0 1059
0.03350000 0.03345080 57071.08032198 0 3725.12867269 0 25577.84539381 0 8484.24639856 0 -6939.03703617 0 1302
0.03450000 0.03451200 52585.12792171 0 2938.71680244 0 20253.38583502 0 10539.67956092 0 -2133.94701765 0 1339
0.03550000 0.03553350 50539.40518821 0 1880.12504351 0 22583.99948610 0 6537.79812939 0 -139.00085854 0 1365
0.03650000 0.03647120 48000.41038405 0 2667.19018091 0 19287.98983408 0 4728.43631380 0 3514.48876534 0 1308
0.03750000 0.03744890 47409.36968523 0 623.87457084 0 20540.26977107 0 5879.69235915 0 4817.39137140 0 1579
0.03850000 0.03847530 45177.63189479 0 -217.60329243 0 15102.76177588 0 4100.21474824 0 3767.13707305 0 1662
0.03950000 0.03950240 45853.70804821 0 2072.03057726 0 17546.31314011 0 -1537.96806196 0 1719.63169526 0 1683
0.04050000 0.04050350 43630.05305488 0 2122.17713637 0 15533.14304158 0 -5674.76577140 0 6702.43252712 0 1822
0.04150000 0.04152450 43331.21100803 0 483.56385627 0 18305.54245292 0 -852.54797362 0 6791.69760981 0 1887
0.04250000 0.04250150 42314.43941993 0 793.03976388 0 18449.70412206 0 1259.75375624 0 12239.34785453 0 1920
0.04350000 0.04349210 43064.25725665 0 110.80075446 0 20332.66368072 0 667.79073276 0 3613.40891527 0 2005
0.04450000 0.04448520 41582.00513318 0 636.09177404 0 17327.85617144 0 3664.33053711 0 2232.96681850 0 2151
0.04550000 0.04548030 41841.65115018 0 1571.57256778 0 20628.84836962 0 -936.80282933 0 1697.08844193 0 2274
0.04650000 0.04648670 40839.93792383 0 1363.85575419 0 18495.43282356 0 -2968.31312668 0 1214.76690050 0 2311
0.04750000 0.04749250 39352.37108445 0 2099.22420702 0 22197.57534993 0 1164.36567793 0 412.93681795 0 2568
0.04850000 0.04851840 38107.28815859 0 1481.48813306 0 21661.56410546 0 1077.71034220 0 -418.36004265 0 2493
0.04950000 0.04949480 38492.27289253 0 477.23048647 0 22968.54132705 0 -895.69571620 0 -3355.72269976 0 2644
0.05050000 0.05050630 37561.97616127 0 715.07509590 0 23015.26653778 0 617.17249262 0 -949.07096523 0 2829
0.05150000 0.05149060 38184.46226258 0 -44.60120666 0 24377.05176723 0 5521.94554426 0 4031.27845392 0 2784
0.05250000 0.05249300 37660.85202190 0 -1349.36208100 0 18061.84058366 0 5032.89202934 0 2854.53391685 0 3055
0.05350000 0.05348950 38424.62098789 0 -630.58550691 0 17471.68567083 0 7181.83097479 0 1288.38678822 0 3009
0.05450000 0.05448610 38543.86992619 0 359.44309505 0 15281.46909845 0 3225.23535177 0 -957.51472013 0 3336
0.05550000 0.05550870 37373.41446961 0 1620.74476230 0 11731.46031510 0 1447.55145749 0 3192.88201865 0 3349
0.05650000 0.05647670 35999.33895962 0 1796.80579925 0 10581.30042991 0 -432.79835421 0 586.87861192 0 3324
0.05750000 0.05747970 34936.72794677 0 326.29919794 0 11916.36813957 0 153.96067660 0 1456.80792104 0 3639
0.05850000 0.05849280 35037.92899561 0 -439.45282142 0 12911.32724778 0 370.34379884 0 671.72362254 0 3846
0.05950000 0.05951020 34743.95877168 0 454.38606591 0 13543.44627167 0 -635.47061662 0 131.80163294 0 3787
0.06050000 0.06049470 35165.15000778 0 450.74659274 0 14622.11215550 0 -1556.49206138 0 -908.66473026 0 3930
0.06150000 0.06148310 35203.68169815 0 281.97114553 0 15814.38009198 0 -415.22214579 0 1656.08762312 0 4083
0.06250000 0.06249100 34801.86703048 0 -115.59285664 0 15215.81021228 0 -71.20014185 0 1805.59722515 0 4303
0.06350000 0.06350600 35749.76875820 0 28.66813125 0 15247.69850776 0 589.86260346 0 4.02983905 0 4470
0.06450000 0.06451750 34684.83255715 0 753.75404819 0 15113.94482395 0 2053.59515644 0 -283.46701661 0 4479
0.06550000 0.06550280 33568.85293868 0 2625.89040934 0 12758.97205827 0 1961.57306487 0 -1425.68361597 0 4636
0.06650000 0.06648880 31736.49390444 0 885.25229944 0 12977.31830369 0 309.76046636 0 1339.33055471 0 4653
0.06750000 0.06749660 30325.10465980 0 386.56254023 0 11541.34849796 0 2242.95405549 0 -680.85829052 0 5220
0.06850000 0.06852730 30705.54974057 0 558.14814348 0 13735.99400027 0 1362.30562871 0 -1086.51948383 0 5029
0.06950000 0.06949320 29513.61397385 0 838.43518840 0 11574.12257943 0 329.44263096 0 1184.14085005 0 5040
0.07050000 0.07048030 29366.24133051 0 931.65198382 0 13444.90258079 0 661.01114828 0 3353.38643922 0 5475
0.07150000 0.07148790 28706.22004807 0 1076.32187267 0 13205.18674846 0 1616.05009658 0 3979.39353982 0 5509
0.07250000 0.07249820 27403.22886341 0 640.35240463 0 11615.53307425 0 3120.42472504 0 3697.80217503 0 5916
0.07350000 0.07351270 26730.47440743 0 1078.44997350 0 11835.98306139 0 936.66221080 0 4054.54140837 0 5721
0.07450000 0.07449140 25608.62645681 0 1376.82144655 0 10702.30986786 0 705.43110099 0 4711.52887380 0 6028
0.07550000 0.07549160 24680.21202076 0 443.21187570 0 9449.86384600 0 568.00361980 0 5262.15558704 0 6183
0.07650000 0.07648840 24750.74272986 0 -707.64999488 0 8419.47329837 0 1089.28313610 0 4239.19456937 0 6330
0.07750000 0.07749960 25742.82303361 0 -970.16817293 0 9324.62477997 0 1107.11732969 0 1849.23325726 0 6583
0.07850000 0.07848650 25673.28883375 0 -9.33489990 0 7790.13342801 0 1527.69294453 0 2245.15744813 0 6549
0.07950000 0.07947320 26001.36181812 0 -73.25051496 0 6159.54536894 0 893.62408423 0 315.25566117 0 6828
0.08050000 0.08048110 25667.75267134 0 481.11133632 0 6464.76507489 0 -321.52924041 0 1072.37680334 0 7147
0.08150000 0.08149960 25455.71765106 0 900.70483595 0 6490.61895334 0 -350.30953431 0 -589.11854323 0 7386
0.08250000 0.08250610 24136.67159542 0 1404.13687188 0 6913.39353189 0 -690.31405591 0 914.58953127 0 7227
0.08350000 0.08350160 22753.40605582 0 1112.22610036 0 6401.06599021 0 -372.79410432 0 222.57255181 0 7798
0.08450000 0.08449610 22269.87763099 0 417.20962810 0 7622.91917859 0 -325.39791070 0 -52.61934141 0 7371
0.08550000 0.08548940 22174.32346781 0 276.01312754 0 7533.48801103 0 115.22525546 0 -493.90319319 0 8256
0.08650000 0.08650700 22027.83661046 0 -86.53066135 0 7818.55608581 0 -111.33776221 0 -652.93720902 0 8037
0.08750000 0.08749060 21482.19244339 0 668.92453883 0 7861.35062124 0 -71.43498586 0 -368.25223668 0 8155
0.08850000 0.08849210 21416.31211072 0 665.71024293 0 7930.97339970 0 -473.71945227 0 -730.15670954 0 8718
0.08950000 0.08949900 20790.39358872 0 684.74467653 0 8744.88892479 0 51.24426939 0 -898.42725874 0 8571
0.09050000 0.09049190 20140.22667537 0 633.43884501 0 8147.11625248 0 1386.47651379 0 817.11764143 0 8932
0.09150000 0.09150830 19834.07689414 0 417.72670567 0 8298.91782575 0 1108.59437782 0 1118.27158971 0 9285
0.09250000 0.09250820 19497.03532666 0 -171.17260553 0 7346.77539762 0 1816.02735513 0 1818.76221936 0 9204
0.09350000 0.09350330 19745.83046533 0 -14.86481752 0 7719.87952703 0 479.05299114 0 677.01730104 0 9349
0.09450000 0.09448040 20012.67349346 0 -208.51844991 0 7878.44629076 0 -199.30849013 0 1904.17413301 0 9564
0.09550000 0.09549270 19446.87769523 0 593.90953818 0 7993.69811980 0 -842.07133988 0 697.39037870 0 10155
0.09650000 0.09649430 19393.50908960 0 730.82547796 0 7877.39441990 0 -789.56748282 0 1216.23951970 0 9913
0.09750000 0.09749140 18372.97291107 0 904.08632395 0 7287.41666426 0 334.78059875 0 -43.08108719 0 10476
0.09850000 0.09850240 17930.52281132 0 439.48271670 0 6905.90864031 0 449.14774904 0 -115.26733029 0 10575
0.09950000 0.09950330 17351.32950005 0 -30.46893416 0 6190.45929983 0 1293.56863624 0 -1477.83426587 0 10882
0.10050000 0.10051200 17292.31400877 0 231.22335919 0 5135.78714388 0 531.21028443 0 -2009.13977229 0 10875
0.10150000 0.10150300 16902.12528216 0 132.78264092 0 5015.33132218 0 122.94377309 0 -1439.36900945 0 11118
0.10250000 0.10250800 17134.86554985 0 -126.61646323 0 5314.40588786 0 -192.59755406 0 -2088.90480029 0 11575
0.10350000 0.10349800 16964.35174764 0 314.50274308 0 5694.41914796 0 33.07812750 0 -1483.56973013 0 11364
0.10450000 0.10450100 16522.56598738 0 744.79432295 0 5706.32189714 0 -278.95172255 0 -1455.05849372 0 12093
0.10550000 0.10551000 16023.64703105 0 687.71316681 0 5743.66884875 0 52.59343217 0 -626.36030776 0 12067
0.10650000 0.10649700 15605.00242966 0 224.70951050 0 5836.65423258 0 743.28627231 0 -124.86371421 0 12054
0.10750000 0.10749900 15532.58942534 0 -104.49152233 0 5251.18291314 0 1369.42513357 0 -723.54320992 0 12807
0.10850000 0.10850100 15336.71999930 0 67.09430236 0 4792.36791731 0 985.04384133 0 -1002.10518664 0 12736
0.10950000 0.10950300 15392.63523963 0 239.62171756 0 4212.65420678 0 53.46415979 0 -758.30034476 0 12933
0.11050000 0.11050200 15146.27601242 0 301.74299596 0 3916.38093928 0 149.39444985 0 -985.41697867 0 13428
0.11150000 0.11150900 14907.66741258 0 98.07666023 0 3808.09360255 0 -14.07580365 0 -376.35828568 0 13453
0.11250000 0.11250000 14996.46745762 0 128.07690287 0 4267.92725227 0 117.43086256 0 -492.88564653 0 13668
0.11350000 0.11349100 15081.50291223 0 -71.98594475 0 3954.01577134 0 312.60051767 0 -692.42776272 0 13791
0.11450000 0.11448600 14922.17215809 0 -117.40096728 0 4525.02663456 0 133.91976868 0 -112.23462052 0 14205
0.11550000 0.11549300 14908.55319856 0 583.89572761 0 5065.59967686 0 -138.88792083 0 -423.16875331 0 14776
0.11650000 0.11649800 14526.00437608 0 623.58669039 0 5284.84278059 0 -188.61705329 0 574.35581255 0 14553
0.11750000 0.11747300 13988.88589913 0 477.50065120 0 5407.64593515 0 -122.05134371 0 1659.89650286 0 14568
0.11850000 0.11849100 14081.89342760 0 -53.67508758 0 5509.40060024 0 726.87487246 0 1663.27356193 0 16015
0.11950000 0.11950300 14068.05302158 0 -148.91280372 0 5544.31164039 0 639.54191045 0 2256.99376336 0 15270
0.12050000 0.12050700 14184.31243218 0 2.98479982 0 4979.92202741 0 466.45379273 0 1170.12328683 0 15999
0.12150000 0.12150000 14024.87095479 0 138.93996075 0 4781.49489433 0 91.36096305 0 1755.43959372 0 15670
0.12250000 0.12250700 13644.86876701 0 345.28159161 0 4390.66397289 0 -177.66873850 0 405.48182165 0 16887
0.12350000 0.12352200 13502.92156284 0 381.52684690 0 4303.08188357 0 -456.24953817 0 257.23667912 0 16407
0.12450000 0.12449800 13208.95133890 0 120.30855978 0 4371.40920003 0 -329.87777332 0 -241.98122998 0 16306
0.12550000 0.12549900 13196.66105835 0 223.67092643 0 4171.17727801 0 246.30165113 0 -175.86616402 0 17523
0.12650000 0.12650100 13095.79217925 0 0.63098190 0 4131.88159722 0 255.68212471 0 -595.23489546 0 17154
0.12750000 0.12750600 12963.92079066 0 215.36336112 0 4006.34357843 0 864.22484737 0 -524.02877455 0 18007
0.12850000 0.12850300 12894.82948380 0 21.22775042 0 3691.54631151 0 339.72992795 0 -430.74886688 0 17496
0.12950000 0.12949900 12980.19710815 0 121.49551300 0 3768.64290922 0 335.79371647 0 -164.66318577 0 18405
0.13050000 0.13049000 12630.31164388 0 165.09943537 0 3850.48953428 0 -137.89694776 0 -416.51871503 0 18100
0.13150000 0.13148800 12568.74951789 0 124.75409820 0 3503.69324864 0 -1.34792268 0 265.44902243 0 19059
0.13250000 0.13249300 12370.55490363 0 200.45779745 0 3791.83942972 0 311.82545494 0 183.23701066 0 18957
0.13350000 0.13349100 12182.98972120 0 117.09869282 0 3301.95549044 0 245.98608987 0 -197.79601056 0 19468
0.13450000 0.13450700 12130.83907131 0 195.79302700 0 3253.11546567 0 499.71505648 0 31.79938471 0 19953
0.13550000 0.13551000 11909.94619118 0 231.72161380 0 3434.32513365 0 239.85755808 0 32.54433072 0 19956
0.13650000 0.13649900 11743.97204215 0 191.76602246 0 3368.59981353 0 160.83216139 0 696.01741042 0 19723
0.13750000 0.13749600 11680.52762093 0 48.95130164 0 3361.93427398 0 373.28128661 0 930.23583348 0 20946
0.13850000 0.13851100 11657.71863181 0 35.31717303 0 3246.13990103 0 271.06379835 0 879.14037614 0 20955
0.13950000 0.13949800 11482.88662292 0 195.47857298 0 3227.18408094 0 -87.12081626 0 872.40286648 0 20506
0.14050000 0.14048300 11536.03378205 0 193.04376875 0 3313.32676803 0 -58.31826699 0 831.93684097 0 21447
0.14150000 0.14148400 11185.26253180 0 165.54232836 0 3085.43617861 0 -201.45209222 0 1164.79749860 0 21771
0.14250000 0.14249400 11282.92043670 0 207.62712777 0 3326.91251058 0 -308.33324369 0 460.98406427 0 22470
0.14350000 0.14350900 10913.65840400 0 220.67918426 0 3435.66488495 0 -91.61042253 0 404.93041987 0 22519
0.14450000 0.14449900 10902.40892198 0 235.17396468 0 3440.68064810 0 -100.20287876 0 109.69473993 0 22218
0.14550000 0.14550500 10579.72815979 0 86.72719512 0 3350.12010340 0 180.08029085 0 -148.41897803 0 23559
0.14650000 0.14650700 10678.48222485 0 180.66933853 0 3465.08405200 0 384.38350671 0 167.44123207 0 23044
0.14750000 0.14750500 10386.91469540 0 174.26732032 0 3167.40459925 0 319.81635176 0 -181.16759315 0 23649
0.14850000 0.14849900 10324.61072364 0 59.77173107 0 3029.97490360 0 332.96252302 0 249.67206680 0 23640
0.14950000 0.14949500 10209.49176250 0 203.34767422 0 2900.82730691 0 156.08988467 0 274.09318642 0 24457
0.15050000 0.15050000 10025.83511074 0 227.26943200 0 2887.69552968 0 72.92465644 0 557.61999359 0 24591
0.15150000 0.15149900 9836.71980283 0 173.70041729 0 3070.23387664 0 -23.09808753 0 359.97345941 0 25020
0.15250000 0.15250500 9809.91370445 0 207.39128725 0 3022.31285482 0 -155.54734075 0 458.99326026 0 25297
0.15350000 0.15350100 9543.10389329 0 260.39782785 0 3475.92385799 0 -67.47209009 0 629.14167575 0 25452
0.15450000 0.15450400 9433.02283995 0 95.46669182 0 3086.66520667 0 -8.88339264 0 383.77674331 0 26061
0.15550000 0.15549900 9405.89564414 0 107.84820832 0 3303.30631407 0 233.52197382 0 690.92303378 0 26128
0.15650000 0.15649500 9373.16585198 0 98.19026228 0 3100.80456546 0 217.23236955 0 367.47495948 0 26331
0.15750000 0.15749700 9144.44483820 0 172.81463130 0 2900.60586042 0 313.59591968 0 339.48522957 0 27345
0.15850000 0.15849900 9106.94287404 0 148.96152195 0 2980.33767144 0 251.97289590 0 314.35548116 0 26980
0.15950000 0.15949700 8836.29096617 0 175.70672255 0 2483.63318007 0 78.43313804 0 289.54683017 0 27777
0.16050000 0.16050000 8801.37992602 0 201.58938904 0 2676.47986144 0 71.92847938 0 290.00743888 0 28224
0.16150000 0.16150500 8618.11080562 0 162.75874590 0 2662.63945541 0 -56.07767134 0 587.55291650 0 28075
0.16250000 0.16249700 8553.79167075 0 63.20492683 0 2668.59636617 0 147.21209463 0 806.76501773 0 28590
0.16350000 0.16349900 8670.51611899 0 -193.51323532 0 2702.87628380 0 413.07632924 0 893.77798955 0 29163
0.16450000 0.16449100 8785.84545430 0 -146.05946561 0 2803.35763153 0 124.38760425 0 649.92332220 0 28996
0.16550000 0.16550500 8800.59379096 0 14.91796467 0 2806.24750831 0 142.38566824 0 901.91504106 0 30777
0.16650000 0.16650700 8817.13584423 0 281.00453157 0 2811.23005448 0 -127.89310228 0 1030.95634342 0 29211
0.16750000 0.16749900 8534.49260859 0 192.62191317 0 2650.23845162 0 -19.21613045 0 1161.05505281 0 30922
0.16850000 0.16850800 8512.09329548 0 104.37171978 0 2702.40017384 0 45.46717319 0 1108.74939036 0 30867
0.16950000 0.16949900 8549.24094525 0 -69.27577180 0 2617.46437015 0 416.70140839 0 1133.03099869 0 30852
0.17050000 0.17049200 8443.55560485 0 -7.64880627 0 2491.99278531 0 283.98409418 0 761.05956811 0 31257
0.17150000 0.17149500 8498.70685477 0 114.84104579 0 2502.85473596 0 35.95084218 0 1104.13665985 0 32608
0.17250000 0.17250900 8377.73063381 0 173.92739995 0 2400.25857419 0 31.97089502 0 880.10588286 0 32361
0.17350000 0.17350400 8200.97204040 0 138.76612525 0 2381.46883897 0 -146.23551558 0 1030.81018873 0 32508
0.17450000 0.17449800 8229.10681777 0 58.56529056 0 2431.34966228 0 -45.33795916 0 1184.78304489 0 32791
0.17550000 0.17549800 8182.65841515 0 111.54481469 0 2641.17021759 0 -117.71652854 0 846.50359150 0 33633
0.17650000 0.17650100 8118.70466700 0 113.28649138 0 2534.74303143 0 81.11330499 0 566.27744436 0 33984
0.17750000 0.17750300 7932.67853772 0 62.96022845 0 2509.69743269 0 22.22492399 0 568.38007885 0 34069
0.17850000 0.17849800 8057.33077053 0 60.62108911 0 2332.20806585 0 242.98106091 0 492.75499310 0 34536
