### header ###
fiducial parameters:
Omega_m = 0.31
Omega_nu = 0
Omega_de = 0.69
Omega_k = 0
H_0 = 100
w_de = -1
zeff = 0
beta = 0
fgrowth = 0
b_1 = 2
gamma = 0.55
Lx = 3500 Ly = 3500 Lz = 3500
nx = 700 ny = 700 nz = 700
xoffset = -685.467585 yoffset = -31.7331281 zoffset = 572.489161
bins = 400 dk = 0.001
kx_ny = 0.628318531 ky_ny = 0.628318531 kz_ny = 0.628318531
############################
A(data) = 8.0189674 (not used)
A(ran) = 8.0152632 (used)
Ngal = 476228
weighted Ngal = 0
Nran = 23820508
weighted Nran = 0
SN(data) = 3489.17852
SN(ran) = 69.8158494
SN(data+ran) = 3558.99437
############################
13 columns: k_central k_mean P_0(k) sigma^{lin}_{P_0(k)} P^img_1(k) sigma^{lin}_{P_1(k)} P_2(k) sigma^{lin}_{P_2(k)} P^img_3(k) sigma^{lin}_{P_3(k)} P_4(k) sigma^{lin}_{P_4(k)} N_modes
### header ###
0.00050000 0 0 0 0 0 0 0 0 0 0 0 0
0.00150000 0.00179520 6858.79589821 0 -13657.60194055 0 -5112.11451342 0 -6126.06265869 0 -70061.79613871 0 3
0.00250000 0.00253879 12709.81093608 0 -17094.45156426 0 -25832.28741814 0 42262.39949328 0 41168.67524770 0 6
0.00350000 0.00331552 18363.22926523 0 -15691.03439350 0 5033.75567068 0 -55105.07832718 0 -32910.93539795 0 7
0.00450000 0.00420575 30132.44620796 0 -19830.75519669 0 -29345.42535985 0 7122.95942373 0 13684.72913636 0 24
0.00550000 0.00557378 51450.65752079 0 -20487.89767468 0 -33656.21358149 0 -14272.22669124 0 -7401.30659735 0 45
0.00650000 0.00659388 68332.63117178 0 -10791.02133430 0 -36340.80945702 0 -34988.43570367 0 17153.13488580 0 40
0.00750000 0.00754703 68247.04210093 0 -3835.79655925 0 -18930.02157270 0 -17832.31129017 0 1077.67158906 0 57
0.00850000 0.00846663 68168.87148771 0 3426.61879558 0 -13335.06511858 0 -11890.56962274 0 26474.37153438 0 75
0.00950000 0.00948925 68376.03468507 0 1849.59864398 0 -226.39028940 0 -3323.76797033 0 -844.04996432 0 112
0.01050000 0.01054430 75332.22275238 0 -6917.09168838 0 3036.13111620 0 12448.17190061 0 29506.19551622 0 105
0.01150000 0.01145670 77502.06624709 0 -3631.30179217 0 392.40429881 0 3581.79742791 0 -8815.67429736 0 144
0.01250000 0.01249090 79541.80992518 0 7310.71283568 0 2239.53270712 0 -3487.46122045 0 16271.22421399 0 169
0.01350000 0.01339930 70673.87425468 0 4972.81359488 0 12108.14080543 0 -6476.93355986 0 -23665.10128139 0 180
0.01450000 0.01448870 73282.51398196 0 -2098.21662546 0 12644.59494289 0 -19816.58262092 0 -2121.65673710 0 267
0.01550000 0.01550050 77981.05501875 0 -5051.32745016 0 18017.55128439 0 -15632.90468820 0 -18014.11886370 0 238
0.01650000 0.01653350 73137.24508033 0 4505.67221078 0 16278.31050188 0 -9698.74756327 0 -24036.35633256 0 315
0.01750000 0.01747870 78972.80315275 0 10655.55144015 0 28095.35988783 0 -18116.75931477 0 -31012.14241480 0 297
0.01850000 0.01844180 68373.37732711 0 1814.52151895 0 33272.66824978 0 -14847.10179582 0 -16219.84862683 0 388
0.01950000 0.01947590 66239.40816481 0 6943.20023030 0 30148.94397194 0 -4935.87631928 0 -25398.47373175 0 399
0.02050000 0.02045430 67791.96955088 0 1083.45023539 0 37125.39439367 0 1060.14520611 0 -17673.31270578 0 462
0.02150000 0.02154770 67419.71799048 0 -6339.90246791 0 30794.34978562 0 18669.60049296 0 -5703.13306759 0 571
0.02250000 0.02255340 70264.64112938 0 -4187.09928109 0 21251.99881041 0 20669.59452495 0 -21290.30905429 0 510
0.02350000 0.02348930 75067.04057298 0 1612.13049359 0 17956.43205139 0 12700.28873673 0 -19820.56865786 0 555
0.02450000 0.02439640 69736.60195878 0 5769.21270211 0 22175.76287003 0 1689.47068245 0 -7432.47519171 0 592
0.02550000 0.02547300 63782.12711781 0 8105.98256578 0 10499.15485208 0 -4866.45284267 0 -8605.79838042 0 837
0.02650000 0.02652900 57343.90240551 0 4414.09301220 0 19081.38025297 0 -4597.74966397 0 -4580.66506677 0 723
0.02750000 0.02749970 52998.12563744 0 125.83032817 0 11134.10839113 0 -3314.51150679 0 -22650.10126526 0 826
0.02850000 0.02848090 55527.48751901 0 -188.15201564 0 19863.64000140 0 -1574.31850434 0 -20636.82044349 0 831
0.02950000 0.02946900 52276.43150576 0 2721.65494670 0 14338.99280989 0 -2157.71929903 0 -24078.20972037 0 996
0.03050000 0.03053250 50989.93808509 0 3129.29365722 0 15698.56357437 0 -4328.26035021 0 -19824.00107855 0 1041
0.03150000 0.03150510 48872.24524027 0 41.95492103 0 14619.45479755 0 -4534.28309811 0 -20657.19352116 0 1036
0.03250000 0.03246190 52322.71382351 0 -1691.65193044 0 21677.95114619 0 1466.81730267 0 -18463.21235834 0 1059
0.03350000 0.03345080 51308.71031661 0 -260.04683516 0 18517.13458021 0 -513.97399638 0 -9793.48237442 0 1302
0.03450000 0.03451200 51950.01937011 0 236.92449924 0 20867.67841596 0 3172.09926497 0 -10118.16722740 0 1339
0.03550000 0.03553350 52507.17875498 0 407.53241621 0 18786.96713604 0 2807.47653637 0 -5419.22758691 0 1365
0.03650000 0.03647120 52592.10348634 0 239.68150812 0 19821.01155085 0 1170.10114218 0 -13606.66924639 0 1308
0.03750000 0.03744890 50749.33646678 0 2792.25208974 0 21681.16212038 0 1938.47619530 0 -9380.19677824 0 1579
0.03850000 0.03847530 47928.99388897 0 4433.30349576 0 21925.63905238 0 -1348.33235479 0 -7252.88208315 0 1662
0.03950000 0.03950240 45321.90428717 0 1854.30438203 0 19861.75770618 0 870.74866116 0 -8283.23941380 0 1683
0.04050000 0.04050350 42923.86017795 0 408.01184787 0 16012.02108999 0 3201.02017740 0 -5276.27280118 0 1822
0.04150000 0.04152450 44240.69176863 0 -1327.92606015 0 17288.77086483 0 2795.83952298 0 -9955.38190792 0 1887
0.04250000 0.04250150 46191.19250868 0 -1626.83454095 0 15349.23172634 0 2163.00079797 0 -7228.89942760 0 1920
0.04350000 0.04349210 48201.15163301 0 -704.40358924 0 20095.60520635 0 -2012.99294133 0 -7842.97056204 0 2005
0.04450000 0.04448520 44348.64693561 0 3818.96662552 0 17367.38437104 0 -471.77958097 0 -10797.53186130 0 2151
0.04550000 0.04548030 42494.14325174 0 4699.67041392 0 21027.34133984 0 -205.51895712 0 -1726.16436690 0 2274
0.04650000 0.04648670 40095.87769602 0 2722.56287733 0 19261.85914751 0 373.98437924 0 -237.66080884 0 2311
0.04750000 0.04749250 38664.44754346 0 -318.60836112 0 20085.52939077 0 6110.16280025 0 -2332.62881419 0 2568
0.04850000 0.04851840 38603.21758722 0 427.16918427 0 16337.99033265 0 3599.55743692 0 -3195.09648362 0 2493
0.04950000 0.04949480 39367.31872295 0 -426.44948316 0 15667.67178813 0 1651.72512715 0 -3671.92615193 0 2644
0.05050000 0.05050630 38807.50198012 0 -930.75291105 0 16597.74707290 0 1019.49205830 0 -1802.98415649 0 2829
0.05150000 0.05149060 38827.54288804 0 935.63359183 0 13869.19406784 0 -1683.71307355 0 -2884.30739828 0 2784
0.05250000 0.05249300 39118.19141453 0 785.75528138 0 15295.86312072 0 2535.50702185 0 -2179.95252727 0 3055
0.05350000 0.05348950 39083.20286811 0 -163.49726997 0 12510.28764284 0 1945.77285736 0 -593.52865021 0 3009
0.05450000 0.05448610 38097.65523600 0 1000.73886176 0 13325.87508899 0 2003.00570434 0 -1871.94259546 0 3336
0.05550000 0.05550870 37461.55017517 0 77.76259805 0 11392.64717565 0 719.67896856 0 -4477.98032641 0 3349
0.05650000 0.05647670 36655.37420512 0 1655.34577736 0 11203.53186775 0 -1840.80721807 0 -6319.14185887 0 3324
0.05750000 0.05747970 35463.54916164 0 1690.54469796 0 12874.67785263 0 -995.19273426 0 -3063.21402270 0 3639
0.05850000 0.05849280 34191.44976323 0 1107.65323021 0 13369.38932552 0 -1235.38356932 0 -2932.66024077 0 3846
0.05950000 0.05951020 32819.03510196 0 848.13233048 0 13343.03719245 0 1994.81218398 0 -59.15013075 0 3787
0.06050000 0.06049470 32930.20124314 0 226.36371582 0 14555.01386710 0 2171.01716114 0 750.01603133 0 3930
0.06150000 0.06148310 32872.73587733 0 77.17753641 0 12621.78595377 0 5403.19486058 0 2690.59707558 0 4083
0.06250000 0.06249100 33276.87573321 0 261.99113539 0 12966.68887187 0 2249.42029318 0 1729.04317135 0 4303
0.06350000 0.06350600 32520.74667134 0 466.14376763 0 11324.88454776 0 -522.96804583 0 3219.22307940 0 4470
0.06450000 0.06451750 32390.53613148 0 -665.03150942 0 10838.39981220 0 768.61089363 0 3902.76197975 0 4479
0.06550000 0.06550280 33659.53527894 0 53.80806620 0 10094.08492092 0 322.16589909 0 1621.08800437 0 4636
0.06650000 0.06648880 32126.68263105 0 350.50551446 0 9477.07962040 0 -373.39090263 0 -56.77500636 0 4653
0.06750000 0.06749660 32268.74055847 0 1256.94138574 0 9338.28802880 0 794.60981954 0 -1285.76264724 0 5220
0.06850000 0.06852730 30641.10881013 0 1049.12935015 0 9551.26419668 0 -698.32377568 0 -1752.12896860 0 5029
0.06950000 0.06949320 30308.60689583 0 402.73588509 0 9598.21085392 0 683.39274567 0 -3135.40558052 0 5040
0.07050000 0.07048030 28927.33437470 0 1129.73144590 0 10035.80020307 0 -878.03425089 0 -2367.76130084 0 5475
0.07150000 0.07148790 29131.72949085 0 1456.96293359 0 10453.59223546 0 -996.85579744 0 -2514.69105119 0 5509
0.07250000 0.07249820 28170.54097334 0 294.89033413 0 10771.74441679 0 -804.35789431 0 -1466.13081854 0 5916
0.07350000 0.07351270 27563.55612679 0 396.25414614 0 10771.45653635 0 209.37212616 0 -1543.23848857 0 5721
0.07450000 0.07449140 27716.13276279 0 541.83418009 0 10662.56022176 0 453.62428996 0 -2385.88669657 0 6028
0.07550000 0.07549160 26687.95668013 0 739.61247493 0 10338.72793779 0 1825.72671167 0 -3227.68233556 0 6183
0.07650000 0.07648840 25858.08593497 0 860.78135435 0 10431.42544117 0 1433.75534077 0 -2166.97576258 0 6330
0.07750000 0.07749960 25578.06684031 0 126.93977512 0 9201.71090216 0 2318.61125097 0 -1310.36535299 0 6583
0.07850000 0.07848650 25806.82107106 0 -407.14709930 0 9607.20158167 0 2376.19841236 0 1295.39556983 0 6549
0.07950000 0.07947320 25372.78593817 0 -614.29479540 0 8240.86562672 0 2337.43420317 0 1090.18442334 0 6828
0.08050000 0.08048110 26243.18139216 0 195.73655814 0 8405.47787980 0 1146.74960914 0 2209.09488619 0 7147
0.08150000 0.08149960 25453.17101635 0 1352.25195778 0 7290.76050636 0 91.35841642 0 3407.28651644 0 7386
0.08250000 0.08250610 24074.77729968 0 975.98446516 0 7688.51163082 0 276.03195050 0 3713.13734491 0 7227
0.08350000 0.08350160 23669.86238106 0 680.07879885 0 7759.86169195 0 416.41020624 0 2605.32910215 0 7798
0.08450000 0.08449610 22618.65586278 0 626.97814348 0 6956.97420238 0 -1274.03705526 0 -225.20444342 0 7371
0.08550000 0.08548940 22058.17478046 0 761.20461556 0 7633.11678975 0 -982.20268278 0 666.88723106 0 8256
0.08650000 0.08650700 21522.27425924 0 653.31477530 0 7482.80998034 0 -1151.12317745 0 -876.01908777 0 8037
0.08750000 0.08749060 21111.15883872 0 617.47808879 0 7833.62551989 0 -435.17336788 0 -938.60651104 0 8155
0.08850000 0.08849210 20946.73481516 0 190.78390725 0 6708.05726813 0 1407.95682394 0 -1505.37113769 0 8718
0.08950000 0.08949900 20310.62975433 0 250.33419182 0 6406.59108029 0 976.94222126 0 -338.30824144 0 8571
0.09050000 0.09049190 20340.52503134 0 376.45350767 0 5544.12341087 0 2249.43136551 0 -319.59711973 0 8932
0.09150000 0.09150830 19859.10034823 0 226.30503250 0 5164.44232051 0 1863.83765370 0 -363.82662845 0 9285
0.09250000 0.09250820 19254.44068988 0 615.98553940 0 4442.20564492 0 882.98690178 0 -276.83247958 0 9204
0.09350000 0.09350330 19309.69159073 0 -168.85959688 0 4119.76847387 0 -899.98956377 0 497.16288561 0 9349
0.09450000 0.09448040 18981.72932960 0 324.63059859 0 4958.46386191 0 -336.19674910 0 -45.58907949 0 9564
0.09550000 0.09549270 18892.04349857 0 492.71956166 0 5240.61991526 0 -940.78665180 0 547.22418781 0 10155
0.09650000 0.09649430 18553.23035912 0 699.08333717 0 6223.39946617 0 -876.26932231 0 224.13817854 0 9913
0.09750000 0.09749140 18018.32634713 0 453.14042937 0 6398.59686177 0 -564.95319431 0 1374.80628343 0 10476
0.09850000 0.09850240 17978.35525453 0 199.67609131 0 7577.42299591 0 -109.23767437 0 1260.21879388 0 10575
0.09950000 0.09950330 17710.95861016 0 287.28918314 0 6787.15795663 0 1348.06661900 0 2323.61594179 0 10882
0.10050000 0.10051200 18106.68349918 0 -246.81208530 0 7402.01522614 0 663.68732919 0 988.24706490 0 10875
0.10150000 0.10150300 17732.88181330 0 -110.90040538 0 6353.62107836 0 953.34820430 0 2088.74978774 0 11118
0.10250000 0.10250800 18149.97628922 0 249.11180716 0 6822.96585510 0 264.71714176 0 719.59149720 0 11575
0.10350000 0.10349800 17551.51713277 0 432.06647354 0 5848.30231829 0 -97.95475393 0 1321.90271545 0 11364
0.10450000 0.10450100 17084.26502543 0 514.94836097 0 6482.02682928 0 -201.52738402 0 831.18835181 0 12093
0.10550000 0.10551000 16590.10716877 0 593.31273987 0 5647.87109442 0 9.54976943 0 1119.92136611 0 12067
0.10650000 0.10649700 16534.52409818 0 59.05579455 0 5843.29762747 0 874.03271270 0 189.28471447 0 12054
0.10750000 0.10749900 16052.43507558 0 94.87177581 0 5295.50542939 0 1050.36391436 0 638.95064831 0 12807
0.10850000 0.10850100 16092.51689142 0 193.47780388 0 4649.77851829 0 932.37500663 0 1023.66411030 0 12736
0.10950000 0.10950300 16012.57470623 0 -62.64754599 0 4713.41116902 0 421.30528105 0 1594.45906318 0 12933
0.11050000 0.11050200 15910.82004115 0 524.70197190 0 4464.97034474 0 463.98244983 0 2354.48558339 0 13428
0.11150000 0.11150900 15569.34954374 0 373.72307237 0 4729.67641418 0 -42.58050739 0 1813.96790271 0 13453
0.11250000 0.11250000 15455.74749110 0 264.29860789 0 5476.02861323 0 -344.96824482 0 3181.53288571 0 13668
0.11350000 0.11349100 15109.18372428 0 390.89956986 0 5249.13453305 0 -160.96945821 0 2225.83624132 0 13791
0.11450000 0.11448600 14882.86540498 0 354.50262372 0 5747.58845174 0 -201.32586771 0 3077.32016452 0 14205
0.11550000 0.11549300 14632.18797109 0 55.77949363 0 5052.36824870 0 349.28534426 0 2124.14801018 0 14776
0.11650000 0.11649800 14563.53955721 0 -88.44008377 0 5017.32434065 0 747.09847374 0 2036.06766625 0 14553
0.11750000 0.11747300 14632.85231058 0 -46.12210120 0 4740.42764158 0 852.88789399 0 1375.42633362 0 14568
0.11850000 0.11849100 14628.64482715 0 167.54088299 0 4148.74474792 0 342.73495690 0 394.62762163 0 16015
0.11950000 0.11950300 14237.45959130 0 195.29698685 0 3807.48462469 0 -153.73590841 0 1368.31790109 0 15270
0.12050000 0.12050700 14389.15044132 0 223.16270672 0 3916.36986695 0 -321.77393879 0 630.18579598 0 15999
0.12150000 0.12150000 14131.71888929 0 33.94675138 0 4305.24098691 0 18.60715258 0 903.93241864 0 15670
0.12250000 0.12250700 14259.16134795 0 118.45173091 0 4189.84521765 0 -51.59371196 0 343.94184031 0 16887
0.12350000 0.12352200 13810.62146955 0 287.89926824 0 4029.41830335 0 264.73153579 0 663.69618705 0 16407
0.12450000 0.12449800 13834.64841440 0 402.03279247 0 3838.42070023 0 375.92978671 0 690.17233015 0 16306
0.12550000 0.12549900 13243.05409934 0 328.35200696 0 3831.61122047 0 823.79536053 0 1206.49587386 0 17523
0.12650000 0.12650100 13083.94479170 0 330.45353421 0 3342.34733138 0 788.98064960 0 1071.10127152 0 17154
0.12750000 0.12750600 12745.57454524 0 293.65244821 0 2947.78503647 0 490.01127101 0 1664.48044534 0 18007
0.12850000 0.12850300 12719.88675166 0 -205.87770045 0 2743.44528194 0 793.08073148 0 1869.19665891 0 17496
0.12950000 0.12949900 12830.05638361 0 -173.98940497 0 2825.54657047 0 282.19037756 0 2050.69420734 0 18405
0.13050000 0.13049000 12880.10329179 0 218.16576653 0 2880.73103737 0 -8.27172420 0 1876.68155049 0 18100
0.13150000 0.13148800 12942.99409676 0 256.99308797 0 3334.47490843 0 -436.66591727 0 1870.62498881 0 19059
0.13250000 0.13249300 12426.69159046 0 251.07493036 0 3338.93705534 0 -324.56305741 0 2356.54503580 0 18957
0.13350000 0.13349100 12525.34600460 0 248.16069446 0 3700.90242598 0 -542.99898866 0 1561.92857287 0 19468
0.13450000 0.13450700 12283.96932355 0 97.06930011 0 3783.28052263 0 31.37387527 0 1855.58877171 0 19953
0.13550000 0.13551000 12229.60420869 0 246.22525208 0 3990.38835837 0 84.96470245 0 1487.55576706 0 19956
0.13650000 0.13649900 12111.01960988 0 99.83317383 0 3723.11350957 0 94.24707524 0 1509.67827205 0 19723
0.13750000 0.13749600 12020.33726962 0 26.63680254 0 3815.02487789 0 154.54529535 0 1390.23003190 0 20946
0.13850000 0.13851100 12042.59264250 0 3.37919603 0 3569.85038943 0 13.83542348 0 807.32859906 0 20955
0.13950000 0.13949800 11857.46337154 0 267.98126312 0 3634.88922541 0 159.73710846 0 1049.01641243 0 20506
0.14050000 0.14048300 11743.75059565 0 127.28412442 0 3316.52666990 0 254.62250323 0 1073.99446999 0 21447
0.14150000 0.14148400 11547.65972311 0 193.63835259 0 3385.11972216 0 312.59165982 0 1346.20646843 0 21771
0.14250000 0.14249400 11477.57190701 0 37.49166690 0 2895.94441167 0 423.53856896 0 677.89422916 0 22470
0.14350000 0.14350900 11284.35983892 0 121.10576717 0 2930.42363115 0 145.42945033 0 718.71235461 0 22519
0.14450000 0.14449900 11244.83163932 0 130.73868976 0 2715.39908317 0 325.16539188 0 863.88714147 0 22218
0.14550000 0.14550500 11023.72838502 0 122.83747877 0 2969.01068315 0 -24.01775483 0 649.78823984 0 23559
0.14650000 0.14650700 10946.99717402 0 292.83309618 0 2961.72509341 0 -1.18565776 0 632.84647564 0 23044
0.14750000 0.14750500 10638.68828945 0 343.14463292 0 2966.63013331 0 -215.87822422 0 737.01490753 0 23649
0.14850000 0.14849900 10412.35889783 0 408.59314492 0 3098.32436470 0 -48.16738104 0 1239.13708743 0 23640
0.14950000 0.14949500 10154.15228306 0 249.16163263 0 2959.37776055 0 95.90947409 0 1043.71166161 0 24457
0.15050000 0.15050000 10033.38643626 0 85.39862686 0 2942.73605635 0 444.40768678 0 654.92358409 0 24591
0.15150000 0.15149900 9809.73654725 0 169.59922818 0 2805.40601163 0 185.83236359 0 759.09644492 0 25020
0.15250000 0.15250500 9817.29894510 0 44.57142211 0 2464.98738508 0 148.25953655 0 589.42746109 0 25297
0.15350000 0.15350100 9588.27897855 0 100.92656591 0 2687.96186227 0 -64.40815636 0 447.58212231 0 25452
0.15450000 0.15450400 9601.94222738 0 287.31686395 0 2925.62931451 0 -411.75429366 0 503.74981165 0 26061
0.15550000 0.15549900 9412.06292906 0 177.20370086 0 3113.99170432 0 -329.17246623 0 730.05484415 0 26128
0.15650000 0.15649500 9339.61670778 0 145.07513594 0 3027.12931612 0 -0.23069189 0 655.34101074 0 26331
0.15750000 0.15749700 9351.08763629 0 -153.42588331 0 3189.27244076 0 257.47141240 0 648.18607444 0 27345
0.15850000 0.15849900 9453.89417223 0 -77.53871564 0 3177.05966649 0 325.97699329 0 191.20908453 0 26980
0.15950000 0.15949700 9443.40868063 0 202.76084101 0 2781.16869260 0 235.80840890 0 -48.82142327 0 27777
0.16050000 0.16050000 9245.32478962 0 289.96204235 0 2736.80188705 0 191.10057574 0 283.23339056 0 28224
0.16150000 0.16150500 8954.42159966 0 129.12323757 0 2275.99387275 0 176.76634403 0 210.30884484 0 28075
0.16250000 0.16249700 8925.93250790 0 24.53660397 0 2115.66660937 0 374.62657408 0 423.51310262 0 28590
0.16350000 0.16349900 8916.83105690 0 94.84830248 0 2008.97368742 0 258.27747765 0 -48.07193760 0 29163
0.16450000 0.16449100 8705.88112446 0 201.44766329 0 1904.20734999 0 97.71703111 0 251.73594815 0 28996
0.16550000 0.16550500 8706.61189789 0 111.12960251 0 1904.82740018 0 -258.88866998 0 443.66141209 0 30777
0.16650000 0.16650700 8562.35057783 0 51.34524899 0 2241.31535141 0 -220.21746832 0 539.19675232 0 29211
0.16750000 0.16749900 8611.85494210 0 81.89633980 0 2479.89073428 0 -27.24101930 0 279.79986263 0 30922
0.16850000 0.16850800 8520.39753909 0 63.10826543 0 2318.01334543 0 -40.14027772 0 328.48487486 0 30867
0.16950000 0.16949900 8550.09351426 0 113.89546925 0 2358.46054800 0 177.30888795 0 503.57486891 0 30852
0.17050000 0.17049200 8306.80132102 0 176.56261326 0 2463.39297030 0 211.76153385 0 532.70172658 0 31257
0.17150000 0.17149500 8330.17499871 0 75.14820071 0 2321.39040450 0 251.87103051 0 508.28392866 0 32608
0.17250000 0.17250900 8181.58439964 0 79.55930420 0 2152.11670268 0 173.73474150 0 666.85290685 0 32361
0.17350000 0.17350400 8179.44744095 0 57.39660667 0 2225.94696457 0 13.68218250 0 468.32612285 0 32508
0.17450000 0.17449800 8197.55069203 0 93.02225467 0 2348.97156563 0 -142.49971318 0 502.06128211 0 32791
0.17550000 0.17549800 8082.77497296 0 116.82631363 0 2432.95514938 0 -196.52269321 0 319.63144393 0 33633
0.17650000 0.17650100 8088.06754423 0 95.73120966 0 2472.28404713 0 -122.49866563 0 303.97849834 0 33984
0.17750000 0.17750300 7969.25042660 0 136.34792951 0 2576.82893807 0 -199.37824578 0 330.14904528 0 34069
