### header ###
fiducial parameters:
Omega_m = 0.31
Omega_nu = 0
Omega_de = 0.69
Omega_k = 0
H_0 = 100
w_de = -1
zeff = 0
beta = 0
fgrowth = 0
b_1 = 2
gamma = 0.55
Lx = 3500 Ly = 3500 Lz = 3500
nx = 700 ny = 700 nz = 700
xoffset = -685.467585 yoffset = -31.7331281 zoffset = 572.489161
bins = 400 dk = 0.001
kx_ny = 0.628318531 ky_ny = 0.628318531 kz_ny = 0.628318531
############################
A(data) = 8.02888608 (not used)
A(ran) = 8.02725178 (used)
Ngal = 477763
weighted Ngal = 0
Nran = 23820508
weighted Nran = 0
SN(data) = 3487.14042
SN(ran) = 69.9202742
SN(data+ran) = 3557.06069
############################
13 columns: k_central k_mean P_0(k) sigma^{lin}_{P_0(k)} P^img_1(k) sigma^{lin}_{P_1(k)} P_2(k) sigma^{lin}_{P_2(k)} P^img_3(k) sigma^{lin}_{P_3(k)} P_4(k) sigma^{lin}_{P_4(k)} N_modes
### header ###
0.00050000 0 0 0 0 0 0 0 0 0 0 0 0
0.00150000 0.00179520 11586.85575297 0 -11018.07042703 0 5689.49196341 0 -6904.04848974 0 -33.02918783 0 3
0.00250000 0.00253879 25412.75703076 0 -18781.20952713 0 -1800.59253433 0 -30728.13728320 0 -8754.67685993 0 6
0.00350000 0.00331552 20991.24556093 0 4330.72947864 0 3618.41360608 0 -24737.34521683 0 -7938.39185733 0 7
0.00450000 0.00420575 32862.10644550 0 -2958.56948084 0 1834.10846156 0 -5173.15624014 0 21271.70754859 0 24
0.00550000 0.00557378 45963.10261742 0 -19947.45750028 0 9227.04438135 0 16945.52879545 0 4695.81724489 0 45
0.00650000 0.00659388 89171.30009671 0 -25232.05668972 0 12691.87376987 0 8815.91788850 0 -13318.89952435 0 40
0.00750000 0.00754703 85910.05754463 0 -2906.13095050 0 7580.84434428 0 -2736.44757265 0 -17922.10784445 0 57
0.00850000 0.00846663 88951.95734206 0 -3491.40296809 0 17478.43978897 0 -38495.59458998 0 -22714.76364220 0 75
0.00950000 0.00948925 78621.58900951 0 13213.26954558 0 22387.57644381 0 -24798.24300333 0 10816.05586072 0 112
0.01050000 0.01054430 83137.10451705 0 8328.50307766 0 41738.45708287 0 -5385.84452759 0 2555.97975044 0 105
0.01150000 0.01145670 75949.06196803 0 -12214.54584694 0 27092.87159875 0 6481.12997097 0 -8186.00225725 0 144
0.01250000 0.01249090 85178.61976711 0 345.79091855 0 46529.67347839 0 18346.95294775 0 -3338.81525976 0 169
0.01350000 0.01339930 82660.10876386 0 9611.23190790 0 33907.22318513 0 19484.74504611 0 -1657.93670137 0 180
0.01450000 0.01448870 93062.77937747 0 -13365.95690483 0 16690.42243163 0 16158.72939384 0 -492.51693812 0 267
0.01550000 0.01550050 88965.68702483 0 -13583.63881076 0 21162.64514913 0 -4171.43194148 0 19052.59220844 0 238
0.01650000 0.01653350 103602.52537234 0 902.65688682 0 28677.54272679 0 -2962.56659010 0 -8640.45475710 0 315
0.01750000 0.01747870 102917.48063581 0 13942.16068839 0 22668.25987797 0 -8095.56350813 0 8211.15857923 0 297
0.01850000 0.01844180 96859.92245078 0 6895.36778709 0 21292.85568899 0 -7168.66598058 0 21406.01484864 0 388
0.01950000 0.01947590 90193.71857047 0 3115.37574492 0 26865.11387723 0 1434.17608911 0 27748.02105826 0 399
0.02050000 0.02045430 90275.43232763 0 6560.61819084 0 34384.55110807 0 15468.03777165 0 -5359.41488824 0 462
0.02150000 0.02154770 85916.03660003 0 6135.62914733 0 34058.47114216 0 11711.08723743 0 6408.93841315 0 571
0.02250000 0.02255340 78472.55551745 0 6283.54433458 0 28513.00797999 0 11088.26896639 0 25080.80873270 0 510
0.02350000 0.02348930 77789.61452263 0 1045.85747816 0 23276.57340350 0 12029.74874571 0 14515.26422100 0 555
0.02450000 0.02439640 71792.06833812 0 -699.26270883 0 22663.60950154 0 18573.38199029 0 23099.74837615 0 592
0.02550000 0.02547300 70313.69152833 0 3640.61361735 0 12066.06597112 0 11792.02593186 0 8921.85789237 0 837
0.02650000 0.02652900 62743.43232657 0 6118.02415087 0 9645.30145137 0 6183.77161564 0 14462.33850837 0 723
0.02750000 0.02749970 60062.04742524 0 5673.84676844 0 5675.07579650 0 -1122.30191594 0 8273.39611704 0 826
0.02850000 0.02848090 54395.45302956 0 97.78269000 0 4262.11428174 0 3008.69389530 0 1222.93827622 0 831
0.02950000 0.02946900 56453.02315061 0 -1729.84037874 0 1415.60780039 0 -3975.57358776 0 4247.91956132 0 996
0.03050000 0.03053250 59054.02297375 0 -3302.87449340 0 5667.57983260 0 -1640.79674255 0 -3953.65038462 0 1041
0.03150000 0.03150510 62475.03917297 0 -714.51372903 0 11916.03596983 0 -11488.20133883 0 -3546.96389403 0 1036
0.03250000 0.03246190 61911.79000945 0 4143.07571762 0 14273.44464697 0 -10414.14154213 0 -5484.59859264 0 1059
0.03350000 0.03345080 59854.10916515 0 850.80629692 0 22661.50575983 0 -3783.52411378 0 -1077.43907024 0 1302
0.03450000 0.03451200 57823.77696315 0 3793.45598914 0 22968.65205030 0 -91.51398258 0 -2898.80107147 0 1339
0.03550000 0.03553350 56724.51655516 0 2978.44430389 0 24139.43967662 0 6628.40296338 0 -1014.02232984 0 1365
0.03650000 0.03647120 53757.57639675 0 434.60978655 0 21267.83223490 0 9420.22323246 0 -2285.13961305 0 1308
0.03750000 0.03744890 52864.37195363 0 2154.56368646 0 17726.79203465 0 3373.40520250 0 1733.93713892 0 1579
0.03850000 0.03847530 49561.05456724 0 2510.08496406 0 15829.21700723 0 3583.09288991 0 -1540.84686641 0 1662
0.03950000 0.03950240 46290.51126231 0 3871.37193889 0 16013.79266196 0 -1482.40713602 0 5536.26206025 0 1683
0.04050000 0.04050350 44558.35676768 0 2535.78382997 0 16546.15003924 0 -196.81057365 0 7464.68458461 0 1822
0.04150000 0.04152450 42453.17564991 0 2338.82931609 0 17577.53709610 0 3137.58682851 0 7577.91017821 0 1887
0.04250000 0.04250150 43537.26697290 0 -1406.93817006 0 18521.89567988 0 1487.91008145 0 6649.40716356 0 1920
0.04350000 0.04349210 42488.27491958 0 -992.16556065 0 20910.97120600 0 3218.48123363 0 10513.98069502 0 2005
0.04450000 0.04448520 44293.94965101 0 3942.99880814 0 21311.01430170 0 -1982.59940970 0 6656.86991049 0 2151
0.04550000 0.04548030 41945.17738723 0 655.40855192 0 19276.47461627 0 102.00346022 0 8259.10174570 0 2274
0.04650000 0.04648670 41113.09217711 0 295.78940690 0 16668.05633549 0 3038.58917231 0 8801.36885369 0 2311
0.04750000 0.04749250 40265.50571224 0 882.97582945 0 16937.11382859 0 3482.70012078 0 4998.57889473 0 2568
0.04850000 0.04851840 39225.81441177 0 -181.88175810 0 13796.78106352 0 6289.26872651 0 60.18982205 0 2493
0.04950000 0.04949480 37909.53643733 0 1405.80879292 0 10309.92882093 0 2368.55850823 0 374.87902308 0 2644
0.05050000 0.05050630 36937.27559500 0 949.08425201 0 8617.97793772 0 521.51535682 0 -4552.15383037 0 2829
0.05150000 0.05149060 36567.01705307 0 -680.64680911 0 10502.36582628 0 -1980.39601706 0 -469.34588397 0 2784
0.05250000 0.05249300 37247.18996668 0 1020.20290156 0 11935.85543125 0 -4822.92753381 0 -1849.62078863 0 3055
0.05350000 0.05348950 36909.26261321 0 786.06087755 0 13039.87693892 0 -4129.70034923 0 123.61475597 0 3009
0.05450000 0.05448610 36897.30450241 0 686.42213374 0 14731.17455497 0 698.64708757 0 -1167.38842260 0 3336
0.05550000 0.05550870 37553.11830142 0 97.37578206 0 15615.96403123 0 932.53998427 0 1128.17024810 0 3349
0.05650000 0.05647670 36987.54394968 0 418.31796781 0 13309.59877150 0 4283.84925536 0 -679.88946209 0 3324
0.05750000 0.05747970 35817.19921635 0 -68.03998963 0 14116.21763454 0 2667.55556763 0 -804.67567003 0 3639
0.05850000 0.05849280 35681.56323732 0 368.28988258 0 9521.29141340 0 5508.73626075 0 -170.41415128 0 3846
0.05950000 0.05951020 34966.40177729 0 1041.91019436 0 9994.98761379 0 2706.50800635 0 -1499.46958857 0 3787
0.06050000 0.06049470 33760.51488129 0 1002.14504701 0 6813.91976572 0 2703.91708234 0 -1323.99538484 0 3930
0.06150000 0.06148310 33440.41397078 0 368.96418716 0 5091.54213391 0 821.16236169 0 960.77109086 0 4083
0.06250000 0.06249100 31993.81473322 0 923.17944087 0 7795.32634835 0 -1887.74280298 0 337.36266490 0 4303
0.06350000 0.06350600 32687.82805286 0 968.98232695 0 9106.67713824 0 -3177.10395579 0 -1810.86765176 0 4470
0.06450000 0.06451750 30736.66297331 0 919.57097021 0 10627.01805909 0 -1134.64755812 0 1002.25466303 0 4479
0.06550000 0.06550280 30306.39243086 0 928.87393752 0 9697.75105404 0 1211.02445471 0 1124.17313884 0 4636
0.06650000 0.06648880 30892.56130676 0 -628.70542615 0 9713.24123646 0 1763.87670523 0 393.94556642 0 4653
0.06750000 0.06749660 30709.97867050 0 -54.69805967 0 8919.92023553 0 2585.57607468 0 -1816.16022303 0 5220
0.06850000 0.06852730 30497.94365022 0 750.07914358 0 7749.54228522 0 461.55207453 0 -1328.72326754 0 5029
0.06950000 0.06949320 29423.92814282 0 1643.58696840 0 7164.67994365 0 -1073.06993087 0 -651.50887912 0 5040
0.07050000 0.07048030 27862.84106663 0 1540.32646715 0 7495.16669484 0 -1166.43620267 0 -1003.43497285 0 5475
0.07150000 0.07148790 27638.07287282 0 133.89319510 0 8581.12924072 0 268.13738290 0 156.05002430 0 5509
0.07250000 0.07249820 27534.43591251 0 -475.60949812 0 8094.38984170 0 353.74195500 0 -110.71461177 0 5916
0.07350000 0.07351270 27867.15927331 0 -299.96810229 0 8902.86885530 0 2434.37240695 0 306.07338219 0 5721
0.07450000 0.07449140 28401.62039231 0 329.41495014 0 9257.78115504 0 502.80977127 0 1243.47743876 0 6028
0.07550000 0.07549160 27423.04832484 0 689.36515767 0 9020.44587255 0 927.96711412 0 312.50861738 0 6183
0.07650000 0.07648840 27280.21533468 0 925.11045432 0 9707.91544822 0 659.78101299 0 3419.01210842 0 6330
0.07750000 0.07749960 26236.75944377 0 935.16633972 0 8976.49981535 0 -277.48021058 0 3097.39428942 0 6583
0.07850000 0.07848650 25858.41810471 0 841.04382813 0 10200.05814176 0 229.59019128 0 4380.68780822 0 6549
0.07950000 0.07947320 25316.87069783 0 786.41076301 0 9090.02436171 0 741.37297458 0 2667.26768719 0 6828
0.08050000 0.08048110 24284.04423875 0 745.89934097 0 9263.36160675 0 854.69046847 0 3917.72069058 0 7147
0.08150000 0.08149960 24184.61476188 0 370.56192364 0 9175.25911817 0 1100.83821428 0 2927.89914109 0 7386
0.08250000 0.08250610 23087.56881885 0 478.38754442 0 9929.92663316 0 643.06401698 0 3960.84739575 0 7227
0.08350000 0.08350160 23286.87066558 0 282.21916561 0 9282.74924751 0 858.81158777 0 2830.93879266 0 7798
0.08450000 0.08449610 22605.59051949 0 330.50003798 0 8392.73363394 0 384.85850944 0 5057.60545834 0 7371
0.08550000 0.08548940 22877.08392405 0 169.65901873 0 8703.38985137 0 1792.86405161 0 4283.39529004 0 8256
0.08650000 0.08650700 22184.39928339 0 -375.45367674 0 7010.89642424 0 1275.79755490 0 3216.04532217 0 8037
0.08750000 0.08749060 22275.96740964 0 732.36896004 0 6392.89461449 0 1371.31850111 0 1992.55342971 0 8155
0.08850000 0.08849210 21378.77692959 0 724.94053732 0 4859.36655478 0 275.49162105 0 -1.88803068 0 8718
0.08950000 0.08949900 20556.76753505 0 442.42020448 0 3744.78204924 0 661.76074467 0 -365.19738226 0 8571
0.09050000 0.09049190 20025.51739025 0 669.21020481 0 3003.56740890 0 -441.49677259 0 -213.74569446 0 8932
0.09150000 0.09150830 19718.37109978 0 406.32774726 0 4080.55029936 0 -1000.22510589 0 -2054.75775055 0 9285
0.09250000 0.09250820 19329.51105215 0 237.22566647 0 4638.52903628 0 -338.64041118 0 -1638.72621781 0 9204
0.09350000 0.09350330 19114.92939717 0 306.17081865 0 4890.25834103 0 -721.62105434 0 -756.18885242 0 9349
0.09450000 0.09448040 19156.67206173 0 -96.13346722 0 4837.50978559 0 412.63897241 0 -201.20739384 0 9564
0.09550000 0.09549270 19318.66017383 0 145.75386945 0 5580.30776838 0 515.92494002 0 -360.36209801 0 10155
0.09650000 0.09649430 19119.80122009 0 854.11581481 0 5714.92509352 0 308.96990237 0 -104.02072708 0 9913
0.09750000 0.09749140 18404.19686706 0 828.83991172 0 6268.35310493 0 -337.96942830 0 169.52504360 0 10476
0.09850000 0.09850240 17399.60483626 0 1058.89624787 0 5761.29598986 0 -666.86287194 0 1153.62552285 0 10575
0.09950000 0.09950330 16752.20600412 0 559.91307206 0 6399.30549056 0 -366.57367224 0 323.22330611 0 10882
0.10050000 0.10051200 16617.89870407 0 -174.45997877 0 6815.64704839 0 215.07880237 0 1027.95131447 0 10875
0.10150000 0.10150300 16832.92325204 0 -149.23722284 0 6551.88212656 0 410.58727062 0 -142.73998263 0 11118
0.10250000 0.10250800 16940.43552603 0 -160.68268500 0 6553.07793764 0 313.89708691 0 789.94504909 0 11575
0.10350000 0.10349800 16994.91136414 0 21.94999817 0 6010.00254994 0 391.56944551 0 195.78084744 0 11364
0.10450000 0.10450100 16697.28727302 0 480.83674267 0 6383.13989633 0 607.03799372 0 1192.64439552 0 12093
0.10550000 0.10551000 16631.18549385 0 481.25638378 0 6230.57433265 0 374.81923253 0 1120.50819932 0 12067
0.10650000 0.10649700 16036.71237433 0 312.12772941 0 6043.67348971 0 1066.38889007 0 1285.72943027 0 12054
0.10750000 0.10749900 15807.73669708 0 297.49011599 0 5470.18242573 0 951.15809845 0 1677.34648678 0 12807
0.10850000 0.10850100 15584.74007524 0 -47.74818282 0 4752.19752286 0 868.12452017 0 1044.90193653 0 12736
0.10950000 0.10950300 15669.99697634 0 101.59920964 0 4295.26482225 0 365.46311806 0 750.67483466 0 12933
0.11050000 0.11050200 15106.19419658 0 361.16705603 0 3850.16843686 0 -87.53337109 0 965.22105821 0 13428
0.11150000 0.11150900 15039.20663142 0 319.23837640 0 3995.69200195 0 -98.29257056 0 566.23869123 0 13453
0.11250000 0.11250000 14450.60184406 0 231.47580819 0 3754.01636814 0 257.86115824 0 739.21830017 0 13668
0.11350000 0.11349100 14714.23389800 0 257.58656458 0 3903.38202994 0 37.72318921 0 -962.49505184 0 13791
0.11450000 0.11448600 14295.58929660 0 205.20228863 0 3750.27392235 0 -145.46045284 0 216.75183065 0 14205
0.11550000 0.11549300 14172.24359812 0 603.06413634 0 4022.87455938 0 -821.50117483 0 -416.12675473 0 14776
0.11650000 0.11649800 13911.04745565 0 60.93986134 0 4382.49259717 0 -479.18032287 0 30.27671860 0 14553
0.11750000 0.11747300 13848.82099017 0 -215.59366547 0 4610.02887219 0 368.64862591 0 -541.48429463 0 14568
0.11850000 0.11849100 14252.18578331 0 36.48773921 0 4134.47252123 0 -117.33453334 0 -921.96369960 0 16015
0.11950000 0.11950300 14071.92833527 0 189.31793145 0 4691.35509799 0 371.92714129 0 -1064.18771190 0 15270
0.12050000 0.12050700 13892.99956620 0 194.47874204 0 4022.34308779 0 217.03417493 0 -622.47724344 0 15999
0.12150000 0.12150000 13814.71822973 0 99.78467705 0 4539.83033284 0 22.20687610 0 131.42849560 0 15670
0.12250000 0.12250700 13664.57750519 0 74.79920104 0 4568.95054712 0 605.81893075 0 -97.36072370 0 16887
0.12350000 0.12352200 13891.78161047 0 -8.76920375 0 4727.99342081 0 443.81310294 0 254.85059312 0 16407
0.12450000 0.12449800 13720.71419202 0 109.42036773 0 4405.48981582 0 444.05780132 0 639.86632957 0 16306
0.12550000 0.12549900 13612.42685529 0 257.37951211 0 4323.58782913 0 132.94983303 0 544.87464049 0 17523
0.12650000 0.12650100 13340.93345074 0 284.13246333 0 4175.46226771 0 -110.50091590 0 728.43385580 0 17154
0.12750000 0.12750600 13351.11998957 0 211.78810743 0 3909.59360416 0 455.37150282 0 285.14558105 0 18007
0.12850000 0.12850300 12665.52163680 0 328.77054084 0 3594.43095053 0 -4.83753193 0 179.58535793 0 17496
0.12950000 0.12949900 12723.76206535 0 212.17231710 0 3313.48178058 0 141.06141819 0 -548.71341550 0 18405
0.13050000 0.13049000 12528.33553230 0 -82.55669325 0 3458.78389917 0 42.54917271 0 -493.89876426 0 18100
0.13150000 0.13148800 12469.54148751 0 204.31539541 0 3110.41534340 0 45.38025544 0 -851.43188328 0 19059
0.13250000 0.13249300 12342.65264509 0 94.20854355 0 3247.16962724 0 -25.79918117 0 -727.37091261 0 18957
0.13350000 0.13349100 12241.78376599 0 -88.50862146 0 3018.82507250 0 166.74699730 0 -359.80405284 0 19468
0.13450000 0.13450700 12349.96037947 0 231.98513514 0 3239.62937404 0 219.03826572 0 -1027.63021705 0 19953
0.13550000 0.13551000 12240.01219402 0 96.66283507 0 2674.83008504 0 23.67119106 0 -1048.21477612 0 19956
0.13650000 0.13649900 12019.89437663 0 99.29937705 0 3213.11115610 0 -184.53911605 0 -715.76711620 0 19723
0.13750000 0.13749600 12082.56373510 0 141.35372756 0 2918.90841334 0 274.68777026 0 -425.71095909 0 20946
0.13850000 0.13851100 11798.44788025 0 181.78099994 0 2960.71751186 0 181.97144393 0 -969.68763404 0 20955
0.13950000 0.13949800 11913.48933512 0 194.75222847 0 3032.64333388 0 79.87397967 0 -124.88253716 0 20506
0.14050000 0.14048300 11721.38449952 0 152.47587785 0 3343.93067383 0 -112.51696481 0 -324.99266361 0 21447
0.14150000 0.14148400 11595.27071983 0 376.72367240 0 3708.92986148 0 44.61670792 0 455.28181699 0 21771
0.14250000 0.14249400 11435.16490295 0 102.90718337 0 3762.38704570 0 -157.09414453 0 835.24635886 0 22470
0.14350000 0.14350900 11501.48812862 0 106.19688180 0 3971.55433385 0 180.78670517 0 577.52360468 0 22519
0.14450000 0.14449900 11278.04861378 0 112.97757352 0 4052.54838990 0 61.08402301 0 1462.56552994 0 22218
0.14550000 0.14550500 11228.11242884 0 182.99674121 0 3714.38851761 0 413.87575109 0 1223.41438619 0 23559
0.14650000 0.14650700 11086.38667117 0 21.25930654 0 3574.10216216 0 515.85296991 0 1183.08897920 0 23044
0.14750000 0.14750500 10964.50251956 0 137.90912731 0 3231.21440718 0 639.19645392 0 650.77035505 0 23649
0.14850000 0.14849900 10742.62420252 0 213.77891144 0 2773.55093312 0 262.62336514 0 343.73810953 0 23640
0.14950000 0.14949500 10437.36020727 0 270.24223185 0 2693.08834866 0 119.72394103 0 399.60352440 0 24457
0.15050000 0.15050000 10274.12092247 0 130.66782688 0 2458.98618502 0 -102.55519417 0 -204.71842804 0 24591
0.15150000 0.15149900 10094.41709066 0 160.61292935 0 2465.95067734 0 -226.46890291 0 -194.69908131 0 25020
0.15250000 0.15250500 10156.05672293 0 233.84085677 0 2513.12985339 0 -102.64831242 0 -269.91227657 0 25297
0.15350000 0.15350100 9771.43737570 0 243.75612365 0 2640.63874600 0 -144.63445741 0 -213.32826782 0 25452
0.15450000 0.15450400 9685.67114766 0 281.49503556 0 2732.90442871 0 -95.08835048 0 53.25345345 0 26061
0.15550000 0.15549900 9408.34262793 0 179.24322309 0 2549.87889946 0 358.09891482 0 146.03842820 0 26128
0.15650000 0.15649500 9453.56200249 0 -13.70244486 0 2738.46273577 0 472.01542148 0 355.75490366 0 26331
0.15750000 0.15749700 9403.32686478 0 -51.53713238 0 2498.95727762 0 411.98902694 0 679.41556659 0 27345
0.15850000 0.15849900 9446.19890648 0 61.60508661 0 2578.64479934 0 368.74495513 0 641.77962730 0 26980
0.15950000 0.15949700 9357.05561937 0 156.86051847 0 2216.42476522 0 -37.00902426 0 509.87945067 0 27777
0.16050000 0.16050000 9224.65275918 0 189.60027573 0 2350.41096785 0 -255.36324176 0 490.36226371 0 28224
0.16150000 0.16150500 9144.26768100 0 145.09728059 0 2695.03707783 0 -332.42662250 0 430.18639278 0 28075
0.16250000 0.16249700 8963.47876136 0 93.41056110 0 2544.99600422 0 -228.34898366 0 142.70676566 0 28590
0.16350000 0.16349900 8855.34643718 0 182.44644666 0 2580.06205692 0 32.16244624 0 -81.06923713 0 29163
0.16450000 0.16449100 8888.16480795 0 3.91436578 0 2533.41435246 0 196.14734139 0 -101.12597848 0 28996
0.16550000 0.16550500 8654.01835501 0 116.58493695 0 2364.70533919 0 228.72433548 0 -261.92691591 0 30777
0.16650000 0.16650700 8643.98682872 0 87.25578790 0 2140.22502582 0 226.97047922 0 12.00848988 0 29211
0.16750000 0.16749900 8592.56695226 0 98.41447686 0 2016.42536202 0 328.75946852 0 -273.83963018 0 30922
0.16850000 0.16850800 8484.04709671 0 -20.73148882 0 1914.13922535 0 338.30602697 0 60.88627128 0 30867
0.16950000 0.16949900 8393.97373432 0 105.14833264 0 1746.14991320 0 182.27704009 0 -113.97076106 0 30852
0.17050000 0.17049200 8551.13431279 0 95.28610220 0 1783.02075485 0 66.68517996 0 61.78445827 0 31257
0.17150000 0.17149500 8454.26254295 0 -5.60199845 0 1765.15002259 0 -121.81107426 0 7.04243041 0 32608
0.17250000 0.17250900 8353.09471108 0 238.32514833 0 2046.34278368 0 -207.38796555 0 104.90407715 0 32361
0.17350000 0.17350400 8323.31015732 0 173.52547456 0 2058.02408637 0 -329.81687554 0 -23.08657231 0 32508
0.17450000 0.17449800 8071.10474260 0 146.54332621 0 2180.63901141 0 -162.96801284 0 22.98780717 0 32791
0.17550000 0.17549800 8103.12590598 0 139.40832009 0 2180.15182912 0 -66.00556066 0 -91.81326752 0 33633
0.17650000 0.17650100 8018.30082554 0 -22.05861767 0 2140.10323025 0 294.18724150 0 -231.71607764 0 33984
0.17750000 0.17750300 8059.00269158 0 9.81579311 0 1916.24296706 0 151.79492987 0 -349.63412250 0 34069
0.17850000 0.17849800 7890.10544879 0 116.65801429 0 1858.83296288 0 314.61789526 0 -288.69426116 0 34536
