### header ###
fiducial parameters:
Omega_m = 0.31
Omega_nu = 0
Omega_de = 0.69
Omega_k = 0
H_0 = 100
w_de = -1
zeff = 0
beta = 0
fgrowth = 0
b_1 = 2
gamma = 0.55
Lx = 3500 Ly = 3500 Lz = 3500
nx = 700 ny = 700 nz = 700
xoffset = -685.467585 yoffset = -31.7331281 zoffset = 572.489161
bins = 400 dk = 0.001
kx_ny = 0.628318531 ky_ny = 0.628318531 kz_ny = 0.628318531
############################
A(data) = 8.02153037 (not used)
A(ran) = 8.01875537 (used)
Ngal = 476555
weighted Ngal = 0
Nran = 23820508
weighted Nran = 0
SN(data) = 3487.62507
SN(ran) = 69.8462674
SN(data+ran) = 3557.47134
############################
13 columns: k_central k_mean P_0(k) sigma^{lin}_{P_0(k)} P^img_1(k) sigma^{lin}_{P_1(k)} P_2(k) sigma^{lin}_{P_2(k)} P^img_3(k) sigma^{lin}_{P_3(k)} P_4(k) sigma^{lin}_{P_4(k)} N_modes
### header ###
0.00050000 0 0 0 0 0 0 0 0 0 0 0 0
0.00150000 0.00179520 7586.44694064 0 -13322.33194504 0 -2320.87000524 0 1401.31342905 0 -99.39393471 0 3
0.00250000 0.00253879 14498.98790352 0 -10275.60461400 0 4895.41804439 0 8649.91052250 0 8710.26576508 0 6
0.00350000 0.00331552 21366.81881878 0 -7923.88711181 0 4262.76754891 0 -9116.88582172 0 25246.00781900 0 7
0.00450000 0.00420575 23260.85070226 0 -1099.25597907 0 7917.07763205 0 -10351.14001391 0 -1325.94411401 0 24
0.00550000 0.00557378 35818.86006507 0 -13347.68756888 0 -5007.30388669 0 1774.66114961 0 -2371.58125291 0 45
0.00650000 0.00659388 40733.08998933 0 -11066.71114996 0 2537.47789566 0 -6418.20594903 0 -24517.11667618 0 40
0.00750000 0.00754703 53110.50973435 0 -1378.68159712 0 -14321.71998317 0 -16498.98193551 0 -20335.21031543 0 57
0.00850000 0.00846663 51754.92500681 0 -8366.79117689 0 -20262.46514137 0 -1684.82030603 0 -18842.55020663 0 75
0.00950000 0.00948925 57436.35631775 0 -8271.38095392 0 -24342.83828354 0 -15713.51121288 0 -25208.80480760 0 112
0.01050000 0.01054430 65452.94093295 0 -7849.06034069 0 -20709.67634080 0 -17635.77752464 0 -49163.77955275 0 105
0.01150000 0.01145670 66502.70804900 0 -9962.27996628 0 -18237.77982503 0 -20500.63084822 0 -32491.29428732 0 144
0.01250000 0.01249090 76882.01605725 0 -6952.11345178 0 -30880.49247271 0 -24141.32197184 0 -49291.55418115 0 169
0.01350000 0.01339930 79351.36593830 0 -3459.82469771 0 -14372.20978435 0 -39164.80590202 0 -33431.99900392 0 180
0.01450000 0.01448870 86094.74392260 0 -2257.95705562 0 -18030.39518118 0 -31503.64291350 0 -47624.50495646 0 267
0.01550000 0.01550050 84897.16127022 0 5561.55125013 0 -20520.78247939 0 -22690.40452760 0 -18365.33300694 0 238
0.01650000 0.01653350 88559.44342723 0 -563.48943297 0 -5367.44232374 0 -29417.94908741 0 -64791.59097153 0 315
0.01750000 0.01747870 77017.20914328 0 3857.45402659 0 3115.73005932 0 -6503.40748851 0 -49253.35466053 0 297
0.01850000 0.01844180 80602.20647307 0 7470.55291676 0 5698.36089559 0 -8855.28000323 0 -57719.91855636 0 388
0.01950000 0.01947590 76408.45272476 0 4684.11379755 0 5633.79816957 0 10654.34455674 0 -21395.71758656 0 399
0.02050000 0.02045430 68320.89450747 0 2456.21810382 0 5925.60929017 0 2554.77286703 0 -26048.86209160 0 462
0.02150000 0.02154770 67308.10895631 0 2696.03358707 0 10250.18255621 0 10397.85415232 0 -6240.21832757 0 571
0.02250000 0.02255340 68578.43678275 0 -1259.26657395 0 12308.88205439 0 7548.04811817 0 -8984.06221320 0 510
0.02350000 0.02348930 64261.66950571 0 -1188.51441836 0 9223.75590087 0 4555.60839571 0 14661.08673887 0 555
0.02450000 0.02439640 69893.49680146 0 1439.75654082 0 7915.59394053 0 7544.93679490 0 6567.01799459 0 592
0.02550000 0.02547300 65845.01195477 0 2634.69290757 0 9147.54508915 0 -859.53239611 0 5183.42028525 0 837
0.02650000 0.02652900 60131.13873211 0 6716.04041432 0 2876.42390301 0 -2928.19809386 0 2344.28797223 0 723
0.02750000 0.02749970 56714.99435581 0 5714.57077913 0 9224.13235992 0 -861.88526514 0 11610.99342107 0 826
0.02850000 0.02848090 52920.06574747 0 1436.11374595 0 2825.57978744 0 5467.90152682 0 3601.80511886 0 831
0.02950000 0.02946900 55192.32824675 0 -1442.15923530 0 6741.63962930 0 3034.03844681 0 4539.40958450 0 996
0.03050000 0.03053250 54957.15206761 0 -464.64678932 0 6828.07019684 0 -293.59930105 0 -271.98833747 0 1041
0.03150000 0.03150510 56331.89191709 0 1496.71257969 0 10050.11671906 0 -2203.17119241 0 7597.09851712 0 1036
0.03250000 0.03246190 55081.05138233 0 2909.78481769 0 13446.45270626 0 -2256.28513457 0 9134.03685287 0 1059
0.03350000 0.03345080 51486.53185320 0 1617.95453645 0 10257.76709871 0 -6353.74287393 0 4829.75915822 0 1302
0.03450000 0.03451200 52299.90483438 0 4548.32280598 0 16712.23491152 0 3549.97556638 0 866.86891854 0 1339
0.03550000 0.03553350 46925.73053715 0 2840.06238831 0 14010.03403953 0 -991.62633843 0 1474.31326658 0 1365
0.03650000 0.03647120 45376.49084853 0 830.47529409 0 15904.95170899 0 9712.31116117 0 2102.23587937 0 1308
0.03750000 0.03744890 45141.42539263 0 -1784.15013198 0 9626.68887335 0 2734.93066415 0 607.12767955 0 1579
0.03850000 0.03847530 47546.22361999 0 -1366.45775052 0 9427.71919636 0 8493.34784956 0 1644.49489904 0 1662
0.03950000 0.03950240 48122.64885005 0 -855.11453851 0 5333.27312935 0 2164.94952714 0 6357.86177876 0 1683
0.04050000 0.04050350 47590.40219602 0 739.37995611 0 5252.37872422 0 3314.42292819 0 7818.83289394 0 1822
0.04150000 0.04152450 46039.16948892 0 3473.14470446 0 7501.24540116 0 -1450.46347892 0 5094.60916788 0 1887
0.04250000 0.04250150 45061.48320744 0 3691.35808199 0 11209.95381614 0 -2257.46987332 0 8775.34889037 0 1920
0.04350000 0.04349210 40805.06010065 0 3032.38867041 0 13757.25286392 0 -3028.65729694 0 6696.68599054 0 2005
0.04450000 0.04448520 38124.11809231 0 2278.02010819 0 14126.84706637 0 -1715.52386275 0 9380.22999521 0 2151
0.04550000 0.04548030 37994.23972219 0 830.54504974 0 14783.10375837 0 1271.75615634 0 8919.28911301 0 2274
0.04650000 0.04648670 37049.54896867 0 -1097.08912510 0 12829.50276737 0 5046.52206119 0 9274.48929319 0 2311
0.04750000 0.04749250 37198.80390722 0 -1641.05140602 0 7599.02510164 0 6474.99590302 0 3500.73693791 0 2568
0.04850000 0.04851840 38453.63047892 0 -1317.07518183 0 4184.27583827 0 5324.69207761 0 1152.16397598 0 2493
0.04950000 0.04949480 39223.82139330 0 -538.46154995 0 2859.62718626 0 -1284.22359409 0 1766.89944991 0 2644
0.05050000 0.05050630 38687.58870234 0 950.52697594 0 2754.07471377 0 667.25704671 0 1097.30503543 0 2829
0.05150000 0.05149060 38281.67727448 0 570.45946145 0 1745.02053607 0 -3725.95909705 0 -191.30762822 0 2784
0.05250000 0.05249300 38325.85585051 0 395.92308363 0 4124.07560823 0 -2021.43005284 0 -102.97184575 0 3055
0.05350000 0.05348950 37730.05405202 0 1753.36906898 0 6586.28383977 0 -3940.66254761 0 -2505.78890203 0 3009
0.05450000 0.05448610 36191.99741146 0 2746.16907385 0 9070.59243166 0 -3254.44414465 0 -1369.23690405 0 3336
0.05550000 0.05550870 34384.77255456 0 1937.94472371 0 12051.00760937 0 -2613.32332067 0 1861.19136807 0 3349
0.05650000 0.05647670 33729.95526479 0 750.70583717 0 11726.25632244 0 472.17707743 0 156.32240349 0 3324
0.05750000 0.05747970 33592.76916028 0 593.34374238 0 14497.76994779 0 2256.81660616 0 2098.09482989 0 3639
0.05850000 0.05849280 32834.64707995 0 -507.26748924 0 12415.61926564 0 1868.37730687 0 -1148.21115602 0 3846
0.05950000 0.05951020 33757.63607683 0 -421.81792969 0 13094.68494677 0 2146.79091444 0 -1884.23287601 0 3787
0.06050000 0.06049470 33013.02223278 0 709.31416530 0 11910.05691443 0 -565.34404738 0 -1620.78905160 0 3930
0.06150000 0.06148310 33261.48520171 0 1141.14701278 0 12484.93201901 0 -273.43438309 0 -3693.48396835 0 4083
0.06250000 0.06249100 32478.33966729 0 -82.83460860 0 12144.67947733 0 -436.90618672 0 1651.48153600 0 4303
0.06350000 0.06350600 32490.29777809 0 -8.53106019 0 12478.62079386 0 1119.31238824 0 -1099.99118143 0 4470
0.06450000 0.06451750 32209.61434394 0 236.36202514 0 11542.78790019 0 929.49509495 0 -2938.80538104 0 4479
0.06550000 0.06550280 32009.42671122 0 1277.18159551 0 13020.38964724 0 -1.93364866 0 -2514.33673679 0 4636
0.06650000 0.06648880 31393.36255831 0 798.55378164 0 11340.27507926 0 -1373.84299117 0 -2345.42842168 0 4653
0.06750000 0.06749660 30368.17600335 0 263.26113105 0 12465.11255758 0 817.18739708 0 1856.40812374 0 5220
0.06850000 0.06852730 31369.77850644 0 -121.56526865 0 11897.98808037 0 926.35055470 0 351.09013321 0 5029
0.06950000 0.06949320 31403.43837389 0 -305.22192042 0 12507.07666865 0 1653.20881867 0 -1194.05058077 0 5040
0.07050000 0.07048030 31047.79530072 0 1204.01567310 0 12506.30160591 0 1204.96789304 0 141.08467007 0 5475
0.07150000 0.07148790 29701.95421901 0 2046.82996597 0 12410.52599623 0 0.32415338 0 3245.65271874 0 5509
0.07250000 0.07249820 28313.70613325 0 632.10684434 0 12332.13393651 0 1458.38019116 0 2280.26779013 0 5916
0.07350000 0.07351270 27331.36947534 0 270.44153370 0 11362.53045214 0 3050.84623588 0 4282.11090036 0 5721
0.07450000 0.07449140 27429.91316623 0 483.28151199 0 10366.13194171 0 2399.18455868 0 3356.77457062 0 6028
0.07550000 0.07549160 26706.33673933 0 69.26879624 0 9328.78797410 0 2223.23424499 0 2968.11382484 0 6183
0.07650000 0.07648840 26771.55273251 0 190.41187714 0 8764.55337367 0 43.35789531 0 3073.13482574 0 6330
0.07750000 0.07749960 26637.90977195 0 391.66577474 0 9173.25502738 0 -925.98848968 0 3071.87258071 0 6583
0.07850000 0.07848650 25985.63911688 0 258.20440031 0 8845.89067179 0 188.28045461 0 3190.52361347 0 6549
0.07950000 0.07947320 25803.05648062 0 862.42338012 0 10177.37094820 0 -529.03346537 0 1706.33383315 0 6828
0.08050000 0.08048110 25088.00574383 0 762.84885580 0 9404.05763822 0 561.76215030 0 1614.54426041 0 7147
0.08150000 0.08149960 24691.28434558 0 838.14730796 0 11000.25505640 0 -193.90187392 0 1934.25763954 0 7386
0.08250000 0.08250610 23319.53402380 0 1157.35689632 0 9140.31486104 0 994.96353713 0 2477.75377559 0 7227
0.08350000 0.08350160 23611.84339901 0 -27.62323596 0 10252.37487653 0 382.07160528 0 1638.09509529 0 7798
0.08450000 0.08449610 22995.00418336 0 197.46937698 0 8762.50499358 0 1065.72565782 0 -84.08688854 0 7371
0.08550000 0.08548940 22810.98214488 0 365.83957710 0 8434.42093688 0 -332.91934095 0 -181.81200245 0 8256
0.08650000 0.08650700 22338.30459837 0 717.48443378 0 8211.90042500 0 -451.93354596 0 -1329.09972658 0 8037
0.08750000 0.08749060 21860.75522894 0 362.71939597 0 8184.75108454 0 -489.38457743 0 -1479.72763341 0 8155
0.08850000 0.08849210 21207.59878789 0 402.12469276 0 8117.49778359 0 -116.99350573 0 -2771.55791465 0 8718
0.08950000 0.08949900 21276.24720177 0 256.23795542 0 7440.25903606 0 766.64001982 0 -2410.33438977 0 8571
0.09050000 0.09049190 21269.82525337 0 -308.86471528 0 7025.04685536 0 1527.64865523 0 -2409.81399050 0 8932
0.09150000 0.09150830 21382.76296652 0 -169.02014559 0 6885.92309402 0 990.63425813 0 -1701.96026485 0 9285
0.09250000 0.09250820 21220.77485442 0 713.85160401 0 6436.13204291 0 604.74491525 0 -1604.10305810 0 9204
0.09350000 0.09350330 20200.79229213 0 1054.65776193 0 6388.34388899 0 739.17068917 0 -395.20891868 0 9349
0.09450000 0.09448040 19467.91511238 0 563.25359245 0 5828.62679708 0 845.78831932 0 -6.78414628 0 9564
0.09550000 0.09549270 19032.44057727 0 -193.43572905 0 5673.72497287 0 706.78967524 0 -767.11834425 0 10155
0.09650000 0.09649430 19212.80874856 0 222.49283107 0 4768.27453850 0 1107.03871618 0 431.98896726 0 9913
0.09750000 0.09749140 19043.84507183 0 113.51458127 0 4787.05320139 0 430.27940031 0 -400.73843770 0 10476
0.09850000 0.09850240 18896.80459824 0 57.00973964 0 4947.87871938 0 -315.52693312 0 1043.62861918 0 10575
0.09950000 0.09950330 18779.99157140 0 594.05126394 0 4898.80617579 0 -676.05622324 0 -1270.64892386 0 10882
0.10050000 0.10051200 18343.96342004 0 884.59681781 0 5719.15472160 0 -1553.82363110 0 3.43448015 0 10875
0.10150000 0.10150300 17746.27932633 0 810.77873547 0 6343.76670927 0 -708.35973090 0 532.27987101 0 11118
0.10250000 0.10250800 16973.43105399 0 326.60147241 0 6514.15871590 0 232.81113057 0 12.91487039 0 11575
0.10350000 0.10349800 16981.73529761 0 312.58058749 0 6566.76333112 0 1603.94804555 0 1001.70104679 0 11364
0.10450000 0.10450100 16963.13379191 0 -4.43396784 0 6181.00353444 0 1223.37009689 0 -101.50199463 0 12093
0.10550000 0.10551000 16226.38129848 0 323.99393991 0 5307.36388927 0 1499.34779299 0 732.55608233 0 12067
0.10650000 0.10649700 16128.16977734 0 410.13330530 0 4899.29335808 0 37.65852683 0 200.41018645 0 12054
0.10750000 0.10749900 15696.57055591 0 250.51467072 0 4890.78981262 0 367.03538818 0 1289.33900816 0 12807
0.10850000 0.10850100 15630.24733024 0 62.34217128 0 4568.50765412 0 -95.33504188 0 1123.91847537 0 12736
0.10950000 0.10950300 15495.38641395 0 290.41932937 0 4352.94056223 0 57.72744774 0 1363.98862208 0 12933
0.11050000 0.11050200 15145.39022643 0 277.07828519 0 4213.78358391 0 244.17133583 0 1029.81257227 0 13428
0.11150000 0.11150900 15233.96882498 0 179.42813092 0 4232.16364311 0 477.03450632 0 1003.52687315 0 13453
0.11250000 0.11250000 14797.38705738 0 43.04809166 0 4023.78249002 0 497.42862141 0 1232.91444088 0 13668
0.11350000 0.11349100 15141.18274300 0 50.69762871 0 4178.23034891 0 -334.62337174 0 57.79842134 0 13791
0.11450000 0.11448600 15004.10736175 0 13.96253377 0 4008.89021314 0 308.07304406 0 1228.65159583 0 14205
0.11550000 0.11549300 15099.21863194 0 -12.08987147 0 4126.10184367 0 -290.82346922 0 337.56971737 0 14776
0.11650000 0.11649800 15260.54240455 0 -111.28793675 0 3867.70699938 0 126.56553054 0 635.10855160 0 14553
0.11750000 0.11747300 15241.49800586 0 211.45150876 0 4706.60168926 0 75.65055209 0 -16.66240945 0 14568
0.11850000 0.11849100 14769.92769183 0 494.50331319 0 4313.74453237 0 -90.93545361 0 273.98024871 0 16015
0.11950000 0.11950300 14311.31199784 0 641.33230538 0 4588.06137975 0 -296.11714772 0 381.40062240 0 15270
0.12050000 0.12050700 14028.30337548 0 419.63225277 0 4651.88226001 0 -261.17510505 0 170.08087431 0 15999
0.12150000 0.12150000 13550.75400605 0 300.33348901 0 4526.64319398 0 -13.14916078 0 -254.38666271 0 15670
0.12250000 0.12250700 13438.03773940 0 103.58104506 0 4406.68562690 0 199.22323323 0 -301.80389374 0 16887
0.12350000 0.12352200 13395.74145859 0 -107.01623384 0 3966.71572790 0 100.55907545 0 -886.32742218 0 16407
0.12450000 0.12449800 13359.53495643 0 93.34412715 0 4111.80747233 0 333.13082235 0 -697.42138121 0 16306
0.12550000 0.12549900 13231.53888153 0 33.30942837 0 4133.02204668 0 -149.96688904 0 -781.35846120 0 17523
0.12650000 0.12650100 13230.65309555 0 394.31648930 0 4063.59857007 0 177.12287289 0 -698.26287790 0 17154
0.12750000 0.12750600 13006.43851797 0 166.40375523 0 4117.33256241 0 334.46725196 0 177.59676839 0 18007
0.12850000 0.12850300 12955.83799355 0 -13.41976840 0 4227.35825414 0 359.41430701 0 383.52097260 0 17496
0.12950000 0.12949900 13080.84454075 0 4.92832499 0 4311.23111464 0 425.58805629 0 637.71719132 0 18405
0.13050000 0.13049000 13050.39564750 0 170.15062995 0 4448.56115936 0 358.82525933 0 527.78007820 0 18100
0.13150000 0.13148800 12682.35157053 0 372.06997428 0 4060.27687262 0 259.88185752 0 962.74639361 0 19059
0.13250000 0.13249300 12544.05823354 0 303.56882232 0 3880.92735521 0 257.41826524 0 1213.74824662 0 18957
0.13350000 0.13349100 12337.55937567 0 24.47017002 0 4003.67514815 0 32.86177428 0 933.58853343 0 19468
0.13450000 0.13450700 12332.13393651 0 208.76093383 0 3909.60467649 0 62.46950301 0 831.76189824 0 19953
0.13550000 0.13551000 11985.23799994 0 376.46679446 0 3996.87674071 0 -174.84197398 0 543.04881413 0 19956
0.13650000 0.13649900 11787.59700193 0 320.09980327 0 3803.59823868 0 77.89823403 0 609.55694761 0 19723
0.13750000 0.13749600 11681.96702316 0 197.73622001 0 4105.71769368 0 -31.61945943 0 1119.83278751 0 20946
0.13850000 0.13851100 11359.31947795 0 164.28783396 0 3838.19925373 0 432.32224424 0 619.21422932 0 20955
0.13950000 0.13949800 11352.45463656 0 107.70792197 0 3920.14552972 0 441.81565554 0 798.53828039 0 20506
0.14050000 0.14048300 11116.06050168 0 118.57906265 0 3660.02340275 0 456.24843094 0 652.53196193 0 21447
0.14150000 0.14148400 11051.19882289 0 -7.58836245 0 3383.13777601 0 458.32670631 0 1004.89651973 0 21771
0.14250000 0.14249400 11017.81576356 0 12.93922951 0 3258.08693951 0 167.35708240 0 1020.16747012 0 22470
0.14350000 0.14350900 11069.78925626 0 51.63622968 0 3249.62768335 0 261.10092048 0 734.65207341 0 22519
0.14450000 0.14449900 10985.61744299 0 149.42655959 0 3182.17508055 0 -95.52725744 0 962.58473767 0 22218
0.14550000 0.14550500 10672.62496502 0 356.02949731 0 3124.37754500 0 -22.84486346 0 1146.77175379 0 23559
0.14650000 0.14650700 10582.90591701 0 237.25556175 0 3134.06582922 0 -43.55453980 0 1324.22790366 0 23044
0.14750000 0.14750500 10337.02279976 0 245.75467828 0 3324.50981610 0 119.55232000 0 1064.64610615 0 23649
0.14850000 0.14849900 10264.05617921 0 59.46646707 0 3220.25280561 0 9.37850271 0 1144.75659068 0 23640
0.14950000 0.14949500 10172.42161901 0 149.76980166 0 3447.54548948 0 -86.27090461 0 748.09055405 0 24457
0.15050000 0.15050000 10135.18539065 0 30.96519576 0 3442.52972634 0 -30.20397343 0 1141.97743715 0 24591
0.15150000 0.15149900 10208.73884442 0 -54.95881292 0 3327.78722424 0 199.18890902 0 1317.49593017 0 25020
0.15250000 0.15250500 10137.10090284 0 59.63210905 0 3209.11404684 0 431.14747058 0 1167.44378423 0 25297
0.15350000 0.15350100 10142.17202761 0 42.01249712 0 3128.03141219 0 464.62796636 0 1259.85340716 0 25452
0.15450000 0.15450400 10071.03234065 0 71.46399535 0 2787.39133915 0 487.40263128 0 623.77159822 0 26061
0.15550000 0.15549900 9864.71063998 0 277.08603582 0 2726.80357774 0 96.15904429 0 896.26483370 0 26128
0.15650000 0.15649500 9805.90552286 0 66.26487451 0 2572.04569375 0 -80.21091051 0 503.78192139 0 26331
0.15750000 0.15749700 9623.82114122 0 140.88647546 0 2605.04122171 0 -299.29490494 0 560.42682793 0 27345
0.15850000 0.15849900 9416.49185899 0 327.41528828 0 2778.95422763 0 -463.01694310 0 257.14588605 0 26980
0.15950000 0.15949700 9296.76681073 0 334.29784539 0 3032.39974273 0 -347.37868993 0 190.40966267 0 27777
0.16050000 0.16050000 9046.93087352 0 191.73280549 0 3105.75389466 0 -140.98169745 0 391.96251305 0 28224
0.16150000 0.16150500 9006.10721191 0 119.60214546 0 3205.84771102 0 227.24285842 0 592.19111337 0 28075
0.16250000 0.16249700 8913.19933436 0 -0.07895752 0 3015.86876178 0 591.79804584 0 507.67052186 0 28590
0.16350000 0.16349900 8959.50379675 0 64.58631007 0 2972.83063521 0 274.97343624 0 409.66605320 0 29163
0.16450000 0.16449100 8835.17266136 0 184.27891642 0 2858.24314566 0 117.97562094 0 848.00942768 0 28996
0.16550000 0.16550500 8753.22638538 0 128.81764141 0 2778.38953907 0 317.69932325 0 914.46773570 0 30777
0.16650000 0.16650700 8532.27814362 0 36.37314065 0 2627.24123297 0 65.18908743 0 882.11772428 0 29211
0.16750000 0.16749900 8523.32063285 0 114.99938003 0 2483.77712029 0 52.15651823 0 516.74982822 0 30922
0.16850000 0.16850800 8481.73298083 0 64.78295456 0 2606.27024976 0 67.88752371 0 620.28935206 0 30867
0.16950000 0.16949900 8395.24705167 0 52.55844362 0 2393.40480512 0 -32.68816022 0 490.22275242 0 30852
0.17050000 0.17049200 8437.22223506 0 55.68072849 0 2573.55152992 0 6.16447255 0 322.30430315 0 31257
0.17150000 0.17149500 8349.10867415 0 94.29767576 0 2436.98547561 0 -36.44034966 0 235.51499229 0 32608
0.17250000 0.17250900 8235.92736985 0 182.52838187 0 2528.64218046 0 44.63785606 0 316.09605062 0 32361
0.17350000 0.17350400 8122.08172607 0 187.14664855 0 2467.71117698 0 47.10521292 0 540.91739160 0 32508
0.17450000 0.17449800 7917.12192135 0 127.62625925 0 2308.05932542 0 444.02126264 0 456.91387766 0 32791
0.17550000 0.17549800 8000.77333536 0 16.88075570 0 2193.36111262 0 444.37336257 0 537.59790862 0 33633
0.17650000 0.17650100 7826.47279806 0 -46.69919077 0 1956.42443383 0 231.57767358 0 224.49027847 0 33984
0.17750000 0.17750300 8004.71508299 0 109.24354270 0 1811.44341266 0 -44.52491835 0 105.71102819 0 34069
0.17850000 0.17849800 7777.26738657 0 139.48804083 0 1912.99877589 0 -287.76307864 0 105.34652725 0 34536
