### header ###
fiducial parameters:
Omega_m = 0.31
Omega_nu = 0
Omega_de = 0.69
Omega_k = 0
H_0 = 100
w_de = -1
zeff = 0
beta = 0
fgrowth = 0
b_1 = 2
gamma = 0.55
Lx = 3500 Ly = 3500 Lz = 3500
nx = 700 ny = 700 nz = 700
xoffset = -685.467585 yoffset = -31.7331281 zoffset = 572.489161
bins = 400 dk = 0.001
kx_ny = 0.628318531 ky_ny = 0.628318531 kz_ny = 0.628318531
############################
A(data) = 8.05359458 (not used)
A(ran) = 8.04626069 (used)
Ngal = 478854
weighted Ngal = 0
Nran = 23820508
weighted Nran = 0
SN(data) = 3493.06079
SN(ran) = 70.0858488
SN(data+ran) = 3563.14664
############################
13 columns: k_central k_mean P_0(k) sigma^{lin}_{P_0(k)} P^img_1(k) sigma^{lin}_{P_1(k)} P_2(k) sigma^{lin}_{P_2(k)} P^img_3(k) sigma^{lin}_{P_3(k)} P_4(k) sigma^{lin}_{P_4(k)} N_modes
### header ###
0.00050000 0 0 0 0 0 0 0 0 0 0 0 0
0.00150000 0.00179520 32147.16643196 0 -35186.29814818 0 3978.07593317 0 42628.11838204 0 14341.31799810 0 3
0.00250000 0.00253879 66091.92479823 0 -38273.04086113 0 13250.02966398 0 -19186.01372250 0 41816.40624959 0 6
0.00350000 0.00331552 74611.30368344 0 -12349.18531673 0 21898.29041008 0 -67278.10295605 0 -39037.36344336 0 7
0.00450000 0.00420575 79958.90440110 0 14686.77453245 0 1093.76742765 0 -4097.01484637 0 45649.53437856 0 24
0.00550000 0.00557378 62873.97503619 0 13295.75836548 0 -22111.65410933 0 19413.77144402 0 31066.61825291 0 45
0.00650000 0.00659388 58966.55160769 0 -16322.71052440 0 -13990.21457810 0 37516.80107601 0 -10253.02814369 0 40
0.00750000 0.00754703 70373.37135910 0 -21194.64416785 0 -35211.32160227 0 25643.28283349 0 -22376.28267250 0 57
0.00850000 0.00846663 69170.03109781 0 -6967.01680099 0 -42597.44804230 0 15858.33722151 0 -22694.39056454 0 75
0.00950000 0.00948925 66701.56700274 0 8838.80438390 0 -50097.28725821 0 -26799.78716080 0 -6638.44556199 0 112
0.01050000 0.01054430 57166.74520842 0 13117.16176615 0 -43556.64354134 0 -36073.63425915 0 -1077.20876589 0 105
0.01150000 0.01145670 43372.40005635 0 6902.00010965 0 -33546.92973553 0 -20170.67556862 0 13726.69324742 0 144
0.01250000 0.01249090 48875.01332148 0 -6456.44975895 0 -22102.02118674 0 -15328.08358594 0 5623.57841377 0 169
0.01350000 0.01339930 59005.96908404 0 -16743.34814426 0 -18856.50133590 0 -9541.14409180 0 -11690.82488302 0 180
0.01450000 0.01448870 75202.78727525 0 -13090.47746334 0 -16593.76103596 0 459.01872661 0 -9762.76774537 0 267
0.01550000 0.01550050 93975.13894253 0 -10080.45488907 0 -25452.72812336 0 -23433.46824618 0 -33761.62211377 0 238
0.01650000 0.01653350 95991.29856876 0 -2226.79953358 0 -7941.18208318 0 -13349.45914085 0 -31216.31608446 0 315
0.01750000 0.01747870 95415.20550844 0 1365.42802431 0 1003.26888798 0 -28320.23880489 0 -33569.73872466 0 297
0.01850000 0.01844180 80043.60768597 0 7888.49996169 0 12681.02289155 0 -13210.61218762 0 -19560.25830137 0 388
0.01950000 0.01947590 86724.75920478 0 5526.80629485 0 12915.86690095 0 -8111.36371564 0 -14013.46646022 0 399
0.02050000 0.02045430 82166.72596994 0 5706.93087500 0 16185.08152690 0 2961.44828529 0 -16984.39265556 0 462
0.02150000 0.02154770 75115.42663243 0 8209.48665819 0 19565.35157079 0 -843.17525066 0 -2275.50669045 0 571
0.02250000 0.02255340 69711.13561170 0 7079.02443885 0 24811.97268610 0 2988.56440878 0 -930.36427244 0 510
0.02350000 0.02348930 64559.29359683 0 1085.92379275 0 21839.71781179 0 1772.73456509 0 4935.26734142 0 555
0.02450000 0.02439640 67680.58196321 0 -1850.61729786 0 27632.31526391 0 2273.36973176 0 -4570.82177001 0 592
0.02550000 0.02547300 68725.80942609 0 -1920.20685935 0 23397.59391377 0 700.89698397 0 -6946.65479565 0 837
0.02650000 0.02652900 71709.13662523 0 -2547.91909797 0 22828.91931108 0 685.33372421 0 -485.88461555 0 723
0.02750000 0.02749970 69029.96618886 0 3521.29824510 0 14850.31277002 0 4036.33850636 0 -6781.79895142 0 826
0.02850000 0.02848090 67990.05344189 0 3377.71233685 0 16756.19204105 0 2684.17512719 0 -5629.28066105 0 831
0.02950000 0.02946900 63632.09711652 0 2634.54896735 0 18103.47252498 0 3460.37831395 0 -8917.89400008 0 996
0.03050000 0.03053250 62256.47148105 0 4363.37069221 0 20109.22416588 0 -772.22932938 0 -8597.99239142 0 1041
0.03150000 0.03150510 55189.44944230 0 6791.66439283 0 20103.13438723 0 -4225.71955006 0 -1932.56357385 0 1036
0.03250000 0.03246190 54039.92067963 0 5696.98792731 0 26499.39498847 0 -2268.64184907 0 3282.70071758 0 1059
0.03350000 0.03345080 48777.02324683 0 1834.08631691 0 24821.71633194 0 3725.93695240 0 7998.68066596 0 1302
0.03450000 0.03451200 50168.26086029 0 -1658.76712573 0 25262.50558298 0 9109.09090505 0 5433.43337966 0 1339
0.03550000 0.03553350 49832.32652530 0 -561.48423495 0 22321.36394140 0 10421.85895253 0 1109.94520145 0 1365
0.03650000 0.03647120 50064.95606974 0 1997.17058916 0 19390.63028515 0 5483.36956459 0 677.17452805 0 1308
0.03750000 0.03744890 46529.67347839 0 1815.40730494 0 14301.12545901 0 4176.04910093 0 -1830.26636485 0 1579
0.03850000 0.03847530 46376.43250290 0 -838.44626073 0 10961.64585976 0 -2839.32054254 0 -1584.47182620 0 1662
0.03950000 0.03950240 48000.52110730 0 -172.79691558 0 12984.62603807 0 -1111.86071364 0 -7949.12094008 0 1683
0.04050000 0.04050350 46686.01470483 0 -85.42365032 0 12661.64632311 0 -3664.24195851 0 -2167.17506443 0 1822
0.04150000 0.04152450 46531.99866660 0 2611.66247195 0 11997.41755724 0 -692.71342870 0 1233.86666082 0 1887
0.04250000 0.04250150 46547.38919810 0 1250.94018569 0 14672.15906368 0 4217.17171530 0 6576.40732603 0 1920
0.04350000 0.04349210 44602.64606695 0 690.03724779 0 13785.26584571 0 7408.28216198 0 -74.69799999 0 2005
0.04450000 0.04448520 43125.15504315 0 3245.07695785 0 17783.70378422 0 3973.60271394 0 11312.48354396 0 2151
0.04550000 0.04548030 42516.39862462 0 2412.82566286 0 14858.17412064 0 -845.65102249 0 6596.99077787 0 2274
0.04650000 0.04648670 39714.21465952 0 348.23568787 0 17598.57451325 0 290.69835195 0 12962.25994194 0 2311
0.04750000 0.04749250 40975.68462611 0 -137.12520672 0 19214.80176703 0 -2280.45601965 0 9978.34590959 0 2568
0.04850000 0.04851840 39674.46501342 0 -448.40701051 0 19450.31011592 0 1539.59569371 0 6811.71637308 0 2493
0.04950000 0.04949480 40010.62079492 0 2215.12930322 0 20660.62594185 0 284.67832895 0 4517.87391273 0 2644
0.05050000 0.05050630 37699.82660526 0 1960.20009659 0 17555.17099996 0 1533.46162576 0 2570.20768783 0 2829
0.05150000 0.05149060 35365.44836375 0 708.52913747 0 15490.29314453 0 5017.62329342 0 2712.95209939 0 2784
0.05250000 0.05249300 36466.03745072 0 18.39412105 0 15493.28267224 0 1042.76387061 0 3011.60591672 0 3055
0.05350000 0.05348950 35946.19180049 0 264.43036855 0 15359.86115817 0 2659.39526424 0 4814.37969905 0 3009
0.05450000 0.05448610 35561.64995954 0 -748.89772653 0 14070.82110278 0 2455.25481156 0 4009.76492680 0 3336
0.05550000 0.05550870 36310.58201027 0 -539.67286229 0 13020.50037049 0 4496.47110885 0 3700.71419646 0 3349
0.05650000 0.05647670 36397.72120659 0 -177.72852906 0 11376.48158141 0 1173.11281454 0 547.06142464 0 3324
0.05750000 0.05747970 35266.90467286 0 1441.22916002 0 10547.88415361 0 1261.42567729 0 3281.51597883 0 3639
0.05850000 0.05849280 34725.57871248 0 1472.08772929 0 10378.02361857 0 -944.42612496 0 3527.16657725 0 3846
0.05950000 0.05951020 32518.86437612 0 1419.61598197 0 10028.89107239 0 -1155.20886530 0 4257.84036436 0 3787
0.06050000 0.06049470 32855.46305061 0 1109.32515126 0 11061.88361634 0 -225.47903707 0 2614.39733618 0 3930
0.06150000 0.06148310 32066.22773754 0 -370.18657182 0 10476.98805780 0 9.15868385 0 4111.72996605 0 4083
0.06250000 0.06249100 32710.85848848 0 -1012.01270289 0 10111.98887015 0 1207.45916612 0 1696.42410244 0 4303
0.06350000 0.06350600 33652.89188405 0 -95.70186800 0 11581.43031381 0 2183.38494796 0 2725.76277920 0 4470
0.06450000 0.06451750 33645.91631941 0 1073.63129774 0 11416.00978102 0 -300.30912989 0 2555.44827884 0 4479
0.06550000 0.06550280 31433.00148116 0 1487.47826079 0 13061.35724907 0 434.42598596 0 5500.94134408 0 4636
0.06650000 0.06648880 31789.75178682 0 1550.22512553 0 13573.89516492 0 857.63792134 0 8090.87991473 0 4653
0.06750000 0.06749660 30399.51068259 0 376.49226081 0 13714.95658311 0 2170.71820837 0 9026.24777076 0 5220
0.06850000 0.06852730 30595.49083188 0 -93.95133344 0 13351.34143607 0 1902.23647617 0 7003.98729356 0 5029
0.06950000 0.06949320 30789.25651620 0 -49.22833121 0 12270.35036402 0 -285.95828970 0 6797.36664012 0 5040
0.07050000 0.07048030 30692.26295079 0 495.91503460 0 11920.57562300 0 -662.91337368 0 3944.39392107 0 5475
0.07150000 0.07148790 29400.01192121 0 866.28097809 0 10551.74839497 0 -404.10110274 0 3292.53294202 0 5509
0.07250000 0.07249820 28447.34909381 0 862.82641275 0 9994.48935918 0 1202.54305390 0 -328.84583265 0 5916
0.07350000 0.07351270 28379.25429618 0 776.52871311 0 9512.30068565 0 -941.72004878 0 -323.78356574 0 5721
0.07450000 0.07449140 27200.05170299 0 1088.46267683 0 9381.43687862 0 161.93607217 0 -285.11125685 0 6028
0.07550000 0.07549160 26857.25252660 0 93.90006858 0 9212.39569561 0 355.93648978 0 -1019.48430768 0 6183
0.07650000 0.07648840 27327.49416165 0 -313.63578005 0 9723.52742621 0 -310.12253138 0 -1304.00983854 0 6330
0.07750000 0.07749960 27421.83036911 0 110.45120117 0 9893.48761218 0 -177.33767599 0 -2020.62177313 0 6583
0.07850000 0.07848650 27170.93148872 0 554.46216655 0 10553.61961787 0 -238.45801622 0 -1200.19572104 0 6549
0.07950000 0.07947320 26407.27324598 0 529.27262759 0 9283.73468442 0 952.39709160 0 -1936.94821447 0 6828
0.08050000 0.08048110 25799.62405993 0 694.15283093 0 10061.26655016 0 543.50942284 0 -1913.14271611 0 7147
0.08150000 0.08149960 25023.34336689 0 1157.31260702 0 8226.96985908 0 1329.27688378 0 -1719.41024876 0 7386
0.08250000 0.08250610 23755.89434490 0 1413.70336052 0 8858.53526673 0 1117.24186350 0 -1244.20821220 0 7227
0.08350000 0.08350160 22915.50489117 0 542.51180637 0 7869.76558810 0 683.93196789 0 -938.20790735 0 7798
0.08450000 0.08449610 22472.50117517 0 267.46418555 0 8337.37200984 0 1995.95263343 0 -245.15234381 0 7371
0.08550000 0.08548940 22410.93904918 0 382.69719164 0 7354.83605009 0 881.35594833 0 -279.17870521 0 8256
0.08650000 0.08650700 21436.24229540 0 802.39698559 0 7209.46749754 0 225.75473796 0 -557.82926053 0 8037
0.08750000 0.08749060 21554.27327796 0 496.40443136 0 7650.03530208 0 -548.95700665 0 790.17978238 0 8155
0.08850000 0.08849210 20701.26137393 0 560.32053361 0 7391.00933527 0 -732.51732919 0 1367.11101768 0 8718
0.08950000 0.08949900 20309.74396835 0 453.84020029 0 7151.86926383 0 506.91981824 0 1179.54583526 0 8571
0.09050000 0.09049190 20298.45019703 0 -583.01547779 0 7057.13445269 0 1275.88613350 0 635.78839234 0 8932
0.09150000 0.09150830 20768.13821584 0 -285.06696755 0 6897.42723950 0 751.59715932 0 -89.42131319 0 9285
0.09250000 0.09250820 20663.83691605 0 419.77840745 0 6491.07291866 0 642.01657505 0 -468.71697592 0 9204
0.09350000 0.09350330 19632.11768945 0 1258.61330679 0 6506.31950993 0 -99.45915070 0 -23.42505328 0 9349
0.09450000 0.09448040 19149.91794359 0 1058.86524536 0 6536.52481204 0 -889.37452597 0 -312.93822358 0 9564
0.09550000 0.09549270 18312.18584781 0 643.00865536 0 7191.69641621 0 -646.55069207 0 -233.97483191 0 10155
0.09650000 0.09649430 17817.36365167 0 177.32438920 0 7075.92418790 0 791.19400733 0 388.68621213 0 9913
0.09750000 0.09749140 17845.81952645 0 -334.89021477 0 6130.04869562 0 1201.91193139 0 289.18255068 0 10476
0.09850000 0.09850240 18604.60594628 0 -726.13856286 0 5966.05649273 0 1136.48556404 0 -125.18038270 0 10575
0.09950000 0.09950330 18714.99702472 0 141.32936845 0 6868.73884590 0 126.57771009 0 -80.65291772 0 10882
0.10050000 0.10051200 18541.38297156 0 1001.12971482 0 6667.12288327 0 -431.43645826 0 -0.77898345 0 10875
0.10150000 0.10150300 17570.78297796 0 718.30600028 0 7585.26220189 0 -924.19477306 0 1315.60256263 0 11118
0.10250000 0.10250800 17143.72340970 0 778.06444456 0 7891.32340452 0 -168.19747186 0 1240.16681364 0 11575
0.10350000 0.10349800 16890.27789460 0 415.89645037 0 7976.51387168 0 155.31371470 0 1375.93566056 0 11364
0.10450000 0.10450100 16674.14611414 0 -203.81271187 0 7670.93985133 0 1111.30709740 0 880.01398256 0 12093
0.10550000 0.10551000 16398.77739590 0 -118.95773615 0 6735.22875323 0 1263.05330904 0 1356.63659840 0 12067
0.10650000 0.10649700 16642.70071166 0 323.58647836 0 6141.69678133 0 1603.22834444 0 929.25150380 0 12054
0.10750000 0.10749900 16315.07062028 0 125.57787916 0 5002.35455749 0 1145.89704013 0 887.81664986 0 12807
0.10850000 0.10850100 15810.83694803 0 201.66025192 0 4887.02522218 0 530.50829904 0 1108.04076158 0 12736
0.10950000 0.10950300 15731.11620934 0 209.89806159 0 4304.29983930 0 517.44517021 0 1340.10561745 0 12933
0.11050000 0.11050200 15289.88406532 0 30.00035337 0 4118.48408419 0 236.28119716 0 745.59817373 0 13428
0.11150000 0.11150900 15423.63774913 0 142.20518934 0 4355.46505229 0 -114.97280645 0 935.78085375 0 13453
0.11250000 0.11250000 15202.74486899 0 362.08052282 0 4173.63533411 0 -551.63872372 0 607.11882169 0 13668
0.11350000 0.11349100 14990.37767897 0 453.15703785 0 4271.94650618 0 -232.68269160 0 258.41366724 0 13791
0.11450000 0.11448600 14535.63729867 0 378.58714466 0 4515.89196658 0 -593.33599175 0 344.47441913 0 14205
0.11550000 0.11549300 14476.06819115 0 321.70196868 0 4698.76248329 0 -82.25574746 0 -930.39416772 0 14776
0.11650000 0.11649800 14323.27010865 0 406.14173221 0 5310.48628487 0 -482.40236940 0 -385.04895343 0 14553
0.11750000 0.11747300 14139.80168640 0 91.99075689 0 5260.32865344 0 -139.75156216 0 100.67633137 0 14568
0.11850000 0.11849100 14000.51184019 0 37.25350119 0 5437.51906751 0 590.49261874 0 -170.67324368 0 16015
0.11950000 0.11950300 14121.42162721 0 -2.25801242 0 5239.88914183 0 309.46151359 0 -219.88529857 0 15270
0.12050000 0.12050700 14117.98920651 0 79.83666594 0 5376.94237843 0 714.07305051 0 450.52736071 0 15999
0.12150000 0.12150000 13971.05945617 0 -71.90035567 0 4612.28762646 0 474.02504844 0 652.04035071 0 15670
0.12250000 0.12250700 14241.33490499 0 58.42422914 0 4461.73722590 0 394.61433484 0 147.20434400 0 16887
0.12350000 0.12352200 13975.37766285 0 188.71781144 0 4554.67832042 0 272.83426309 0 815.72474297 0 16407
0.12450000 0.12449800 14000.84400993 0 267.00357684 0 4751.27851990 0 -217.45049435 0 141.45670019 0 16306
0.12550000 0.12549900 13510.11857397 0 430.77433323 0 4420.69211779 0 -307.09314331 0 512.44823002 0 17523
0.12650000 0.12650100 13150.48946386 0 475.56853052 0 4680.71459383 0 -10.47741988 0 639.01929672 0 17154
0.12750000 0.12750600 12880.98907777 0 255.42413954 0 4309.76956776 0 546.35058139 0 -138.57014511 0 18007
0.12850000 0.12850300 12702.72464819 0 -34.24913658 0 4173.80141899 0 371.84852778 0 150.75745303 0 17496
0.12950000 0.12949900 12400.33945739 0 250.32754843 0 3843.22608920 0 636.77161479 0 -380.09519530 0 18405
0.13050000 0.13049000 12356.93594411 0 323.15133599 0 3422.14557635 0 346.77746269 0 -328.30439597 0 18100
0.13150000 0.13148800 12067.28392685 0 37.93710653 0 3578.08819909 0 244.51568513 0 180.04264495 0 19059
0.13250000 0.13249300 11902.52773355 0 346.95461989 0 3258.19766276 0 603.31326365 0 587.16759960 0 18957
0.13350000 0.13349100 11902.19556380 0 -97.86816835 0 3305.91938273 0 592.37269950 0 739.07546718 0 19468
0.13450000 0.13450700 11816.82793945 0 -177.94886832 0 2942.90214122 0 854.73586500 0 1044.66166708 0 19953
0.13550000 0.13551000 12028.53078998 0 -62.16922156 0 2600.41298993 0 525.04078504 0 1004.41265913 0 19956
0.13650000 0.13649900 11978.59460505 0 84.07780923 0 2976.60629797 0 -288.82048566 0 1002.77395506 0 19723
0.13750000 0.13749600 11903.85641253 0 319.24501980 0 2558.82533791 0 -360.47946466 0 927.51979220 0 20946
0.13850000 0.13851100 11645.31762801 0 303.34737582 0 2781.75552581 0 -584.52574290 0 835.92619960 0 20955
0.13950000 0.13949800 11456.42376661 0 51.83254200 0 2680.74270649 0 -68.03024598 0 508.21638748 0 20506
0.14050000 0.14048300 11498.05570792 0 22.23721427 0 2904.62511433 0 111.99767277 0 278.05929317 0 21447
0.14150000 0.14148400 11540.79488172 0 88.28252458 0 2805.63853045 0 150.48728831 0 257.18463919 0 21771
0.14250000 0.14249400 11285.57779465 0 242.02441205 0 2995.53997341 0 175.62257288 0 -106.38876519 0 22470
0.14350000 0.14350900 11186.03759453 0 330.39927982 0 2886.12325955 0 59.56036039 0 564.01536840 0 22519
0.14450000 0.14449900 10993.15769619 0 235.81394506 0 2857.47915525 0 -3.59623574 0 754.61104613 0 22218
0.14550000 0.14550500 10758.82301373 0 245.23427901 0 2874.26479967 0 4.17362426 0 913.95397983 0 23559
0.14650000 0.14650700 10701.13620143 0 -18.42180186 0 3025.31345485 0 84.55868030 0 929.16846136 0 23044
0.14750000 0.14750500 10677.08711192 0 187.19093785 0 3055.76234810 0 251.23880076 0 785.59362544 0 23649
0.14850000 0.14849900 10525.46269585 0 243.59668217 0 3058.01003004 0 217.89338734 0 675.87131542 0 23640
0.14950000 0.14949500 10360.59577930 0 212.86212294 0 2935.64976847 0 130.28693891 0 1165.97116503 0 24457
0.15050000 0.15050000 10153.03397825 0 147.87754135 0 3078.18380586 0 147.79671338 0 1316.35548071 0 24591
0.15150000 0.15149900 10074.12151927 0 73.49266671 0 2722.96148103 0 305.43229459 0 1055.56790703 0 25020
0.15250000 0.15250500 10064.05677601 0 119.28879867 0 2956.16678636 0 174.31050239 0 1390.06394703 0 25297
0.15350000 0.15350100 9789.52955446 0 197.07409498 0 2854.87715891 0 66.32477579 0 1625.29548780 0 25452
0.15450000 0.15450400 9760.60864203 0 174.24185397 0 2788.12211258 0 -0.31615473 0 1118.76984433 0 26061
0.15550000 0.15549900 9484.90775405 0 220.34369282 0 3095.04695656 0 -193.73025289 0 1147.70182908 0 26128
0.15650000 0.15649500 9432.46922371 0 115.45888151 0 2948.00648296 0 -193.92623304 0 843.09995885 0 26331
0.15750000 0.15749700 9446.11032788 0 -127.38598981 0 3140.95281525 0 -26.56450026 0 859.06625124 0 27345
0.15850000 0.15849900 9493.53309508 0 -21.65702445 0 3030.70567704 0 -281.03885578 0 -14.03959715 0 26980
0.15950000 0.15949700 9627.86253978 0 104.87606417 0 3210.58666604 0 -388.40718955 0 -50.77435992 0 27777
0.16050000 0.16050000 9334.44593209 0 365.30699828 0 3233.62817399 0 -475.80547827 0 -174.71353501 0 28224
0.16150000 0.16150500 9161.48514609 0 374.96649445 0 3202.51494125 0 -106.52152236 0 -275.38421949 0 28075
0.16250000 0.16249700 8923.14228205 0 91.99341425 0 3352.15741117 0 118.20703253 0 -224.53899669 0 28590
0.16350000 0.16349900 8765.07377294 0 24.80377917 0 2849.07526071 0 674.09420728 0 -536.59475599 0 29163
0.16450000 0.16449100 8848.23800465 0 -97.31532717 0 2914.55698969 0 579.96726677 0 -318.82759315 0 28996
0.16550000 0.16550500 8819.94821474 0 62.57646167 0 2551.66154376 0 456.91166320 0 -543.61793162 0 30777
0.16650000 0.16650700 8809.79489288 0 126.32969002 0 2597.97707847 0 330.69933982 0 -22.63360350 0 29211
0.16750000 0.16749900 8604.61364166 0 68.70754009 0 2185.95372732 0 154.45118059 0 331.62609341 0 30922
0.16850000 0.16850800 8644.48508334 0 24.12050600 0 2386.22993864 0 178.51798582 0 745.14310118 0 30867
0.16950000 0.16949900 8728.11435269 0 -20.30298985 0 2333.11599649 0 317.97391691 0 701.85695453 0 30852
0.17050000 0.17049200 8682.46315746 0 133.68060647 0 2394.55632690 0 16.68211819 0 753.18050177 0 31257
0.17150000 0.17149500 8567.86459559 0 200.40907922 0 2269.10688671 0 17.41100933 0 700.01673415 0 32608
0.17250000 0.17250900 8349.97231549 0 235.96452868 0 2403.22595724 0 -185.23777975 0 796.29281291 0 32361
0.17350000 0.17350400 8339.77470433 0 168.45656426 0 2592.73986883 0 -69.61923532 0 985.21435513 0 32508
0.17450000 0.17449800 8102.30655394 0 110.59757730 0 2699.52136938 0 -203.29452707 0 539.56213904 0 32791
0.17550000 0.17549800 8134.83704426 0 132.64755856 0 2768.95591832 0 -60.67567567 0 801.39494019 0 33633
0.17650000 0.17650100 8051.80568044 0 95.82942118 0 2814.10885893 0 26.12670054 0 654.75971369 0 33984
0.17750000 0.17750300 8041.60806929 0 122.20857072 0 2851.59975077 0 101.89904820 0 726.02119622 0 34069
