### header ###
fiducial parameters:
Omega_m = 0.31
Omega_nu = 0
Omega_de = 0.69
Omega_k = 0
H_0 = 100
w_de = -1
zeff = 0
beta = 0
fgrowth = 0
b_1 = 2
gamma = 0.55
Lx = 3500 Ly = 3500 Lz = 3500
nx = 700 ny = 700 nz = 700
xoffset = -685.467585 yoffset = -31.7331281 zoffset = 572.489161
bins = 400 dk = 0.001
kx_ny = 0.628318531 ky_ny = 0.628318531 kz_ny = 0.628318531
############################
A(data) = 8.0163782 (not used)
A(ran) = 8.01204105 (used)
Ngal = 476505
weighted Ngal = 0
Nran = 23820508
weighted Nran = 0
SN(data) = 3491.07244
SN(ran) = 69.7877832
SN(data+ran) = 3560.86023
############################
13 columns: k_central k_mean P_0(k) sigma^{lin}_{P_0(k)} P^img_1(k) sigma^{lin}_{P_1(k)} P_2(k) sigma^{lin}_{P_2(k)} P^img_3(k) sigma^{lin}_{P_3(k)} P_4(k) sigma^{lin}_{P_4(k)} N_modes
### header ###
0.00050000 0 0 0 0 0 0 0 0 0 0 0 0
0.00150000 0.00179520 84433.23086032 0 -60786.06674513 0 -13434.49459546 0 72155.79420841 0 -238714.89416009 0 3
0.00250000 0.00253879 143245.98787627 0 -41853.16636799 0 34046.51303135 0 -6862.87051374 0 236194.83303136 0 6
0.00350000 0.00331552 140535.48276067 0 13277.59975278 0 67815.22143300 0 -131104.07648015 0 86172.36091958 0 7
0.00450000 0.00420575 127641.76050935 0 49475.24404989 0 67193.17822469 0 -20847.63750804 0 102136.43884311 0 24
0.00550000 0.00557378 106471.80762585 0 -8799.74122194 0 84340.99839458 0 102830.45216274 0 24553.87679458 0 45
0.00650000 0.00659388 129620.38495445 0 -18086.53186801 0 79323.24223326 0 95819.89898057 0 16273.88157195 0 40
0.00750000 0.00754703 128447.82575615 0 4643.12405108 0 55433.48348130 0 77090.28648709 0 -27771.05149389 0 57
0.00850000 0.00846663 118063.09230874 0 16099.93534905 0 32827.78223856 0 54402.20714770 0 14527.77594805 0 75
0.00950000 0.00948925 107462.33780412 0 9796.15080470 0 9702.86646810 0 29151.43822903 0 46387.39410447 0 112
0.01050000 0.01054430 89425.07778156 0 8336.18727109 0 12028.97368298 0 30577.44294242 0 53045.51518767 0 105
0.01150000 0.01145670 91172.29063794 0 -1298.41831451 0 -1939.42841523 0 -4690.36966108 0 26041.44363397 0 144
0.01250000 0.01249090 88363.02038495 0 2630.15325440 0 3721.68517967 0 -20499.85578548 0 31410.74610827 0 169
0.01350000 0.01339930 93202.62283993 0 8402.92017277 0 -1544.19070851 0 -23919.65402897 0 16178.32740877 0 180
0.01450000 0.01448870 80533.77950569 0 2004.96550584 0 21913.90238807 0 -6872.61415958 0 28048.30250735 0 267
0.01550000 0.01550050 83045.86856054 0 -3377.59054128 0 17462.05274824 0 11717.61990908 0 24813.74425808 0 238
0.01650000 0.01653350 85004.34137446 0 -539.28754538 0 38047.94049756 0 12215.54235617 0 -5100.61036793 0 315
0.01750000 0.01747870 82752.23050635 0 11026.09786253 0 27879.00666087 0 2172.71122684 0 28082.18382129 0 297
0.01850000 0.01844180 76609.30469697 0 7654.56388293 0 27029.64862403 0 7007.97333049 0 16941.65348176 0 388
0.01950000 0.01947590 72980.12879116 0 -1246.99843805 0 30798.00365281 0 -339.11209222 0 17551.07423978 0 399
0.02050000 0.02045430 77153.06656881 0 2684.75088808 0 27381.63783002 0 4872.76406781 0 1552.68318164 0 462
0.02150000 0.02154770 71527.77194470 0 1037.78243167 0 31335.56502275 0 603.64654063 0 889.20401216 0 571
0.02250000 0.02255340 71286.06309391 0 2001.86525489 0 28577.44891043 0 5510.44139877 0 -2016.31463877 0 510
0.02350000 0.02348930 72461.94398965 0 -3095.30162003 0 25226.18835757 0 8179.02669261 0 -7025.92156902 0 555
0.02450000 0.02439640 69855.18655759 0 287.74425569 0 13584.63532000 0 12808.57607346 0 -7612.24545747 0 592
0.02550000 0.02547300 70848.15264733 0 -355.68182631 0 19360.07066865 0 -1133.23030054 0 -17891.65895120 0 837
0.02650000 0.02652900 65516.82824715 0 4915.18214419 0 12480.83525883 0 -622.91017134 0 -9051.49267135 0 723
0.02750000 0.02749970 63780.57699234 0 5502.75720535 0 14324.59878763 0 4428.21022635 0 -2049.65340880 0 826
0.02850000 0.02848090 59114.81003701 0 -2402.32909893 0 9575.93333638 0 1873.53701024 0 -4428.36523889 0 831
0.02950000 0.02946900 65397.46858560 0 -97.18600242 0 13191.34634244 0 2237.67255655 0 -7823.10681132 0 996
0.03050000 0.03053250 62599.04921094 0 2124.43589063 0 12517.37393073 0 -5305.96877634 0 -5340.12689841 0 1041
0.03150000 0.03150510 60622.52850756 0 2478.31846416 0 16615.79496235 0 -4939.53018647 0 -4517.44209206 0 1036
0.03250000 0.03246190 59418.85607653 0 3642.08623655 0 18676.02244136 0 -7948.50088989 0 -6260.44746501 0 1059
0.03350000 0.03345080 59176.37216300 0 1306.05821863 0 22789.39111148 0 -7242.46302550 0 -2213.75633494 0 1302
0.03450000 0.03451200 55829.76198656 0 4623.17172175 0 25386.51562094 0 2176.06614126 0 -4912.36977369 0 1339
0.03550000 0.03553350 53714.50505321 0 2564.11790918 0 23374.23130840 0 3432.33211518 0 2629.53320421 0 1365
0.03650000 0.03647120 51573.44960303 0 -2234.24013586 0 21522.93859873 0 9873.44670426 0 -2034.46217915 0 1308
0.03750000 0.03744890 54084.76359515 0 -2767.52758842 0 15647.85232670 0 10179.54112387 0 636.26671677 0 1579
0.03850000 0.03847530 53177.16512976 0 2089.30340398 0 16448.82430408 0 5916.76250264 0 -3115.54182980 0 1662
0.03950000 0.03950240 50785.21079919 0 3999.57838797 0 11260.33289407 0 -1353.87958952 0 945.22333235 0 1683
0.04050000 0.04050350 48676.92943047 0 1008.86816264 0 10755.31308676 0 -2532.56178344 0 2736.82403170 0 1822
0.04150000 0.04152450 46551.26451179 0 1649.14527546 0 11896.32723165 0 -4755.72959448 0 -5261.40266895 0 1887
0.04250000 0.04250150 47131.56505553 0 1630.26696165 0 16304.99480469 0 -4046.46968357 0 -498.73294127 0 1920
0.04350000 0.04349210 45594.50492421 0 1503.43348085 0 18690.97007986 0 -1991.41298026 0 -1756.49146458 0 2005
0.04450000 0.04448520 44655.46105634 0 2648.75476009 0 19697.44440588 0 434.65961201 0 3130.30123878 0 2151
0.04550000 0.04548030 42723.67254523 0 1753.65694943 0 19560.59047112 0 312.00704106 0 -943.97437411 0 2274
0.04650000 0.04648670 42888.98235477 0 1335.75419380 0 19748.59854654 0 1253.65290527 0 -1036.73388251 0 2311
0.04750000 0.04749250 40801.95984970 0 -927.10236555 0 17113.71740944 0 2111.82451266 0 537.19487599 0 2568
0.04850000 0.04851840 42533.45000484 0 -1294.17761410 0 15531.59291611 0 3209.59015681 0 -5490.64408199 0 2493
0.04950000 0.04949480 42809.70450907 0 -1028.36541941 0 13779.95112980 0 4701.61914309 0 -4527.94972831 0 2644
0.05050000 0.05050630 42432.91329549 0 942.26812886 0 11513.22479292 0 -158.76717281 0 -11354.22620853 0 2829
0.05150000 0.05149060 40314.77755768 0 2771.50255303 0 9762.02589961 0 959.36047668 0 -5397.29331145 0 2784
0.05250000 0.05249300 39153.51213070 0 3194.22176996 0 11332.08155889 0 -2975.70943966 0 -7396.03617074 0 3055
0.05350000 0.05348950 36068.43026648 0 821.29522959 0 12982.41157311 0 1280.92404129 0 -3701.59998245 0 3009
0.05450000 0.05448610 35934.67658268 0 848.78338318 0 13120.37274035 0 1207.49238310 0 -3204.27544089 0 3336
0.05550000 0.05550870 36161.10562522 0 701.79273505 0 16408.85321149 0 530.66441882 0 -2083.08075743 0 3349
0.05650000 0.05647670 35526.55068986 0 761.43270545 0 18150.19773572 0 -229.05650522 0 128.06915225 0 3324
0.05750000 0.05747970 34748.71987135 0 1835.81359958 0 17515.08918412 0 212.01176839 0 2826.37699483 0 3639
0.05850000 0.05849280 34402.04538128 0 -72.10995478 0 17794.33321605 0 746.28576510 0 5653.18581033 0 3846
0.05950000 0.05951020 35644.58167243 0 -2041.67026261 0 16997.45799885 0 5725.45487442 0 4849.51218569 0 3787
0.06050000 0.06049470 37226.92761226 0 -2124.38052900 0 15210.27404987 0 5874.56587276 0 4000.28701675 0 3930
0.06150000 0.06148310 37646.01510665 0 248.98336820 0 13296.97632121 0 3319.89265665 0 1032.15769066 0 4083
0.06250000 0.06249100 36350.99599586 0 1600.09487652 0 10711.61062070 0 838.49608619 0 5278.62013404 0 4303
0.06350000 0.06350600 35141.78740241 0 1742.32996114 0 10714.09082146 0 -1377.33077349 0 4983.79734110 0 4470
0.06450000 0.06451750 33434.21346888 0 916.77077926 0 11546.66321388 0 -224.14371470 0 5936.21657735 0 4479
0.06550000 0.06550280 33035.94194515 0 699.71113798 0 11926.11178541 0 -600.68469374 0 2469.89242497 0 4636
0.06650000 0.06648880 31400.67029269 0 1576.22294421 0 12361.14342754 0 -58.28615725 0 1883.86748929 0 4653
0.06750000 0.06749660 30188.58289479 0 1530.27279621 0 11432.28609850 0 -1063.32628503 0 2285.15068537 0 5220
0.06850000 0.06852730 29315.30863634 0 993.20746642 0 10489.26726602 0 1430.45578797 0 -605.88204301 0 5029
0.06950000 0.06949320 28340.27971281 0 598.45583475 0 11019.69805878 0 243.61550512 0 -2944.86194272 0 5040
0.07050000 0.07048030 28296.21186004 0 179.32958723 0 9566.34470309 0 -231.85226724 0 -2217.45449143 0 5475
0.07150000 0.07148790 28225.01681145 0 293.23169987 0 9572.86630241 0 812.89576398 0 -2124.70162642 0 5509
0.07250000 0.07249820 28098.12796903 0 -460.52788448 0 9096.70097358 0 885.49478335 0 -1833.70985787 0 5916
0.07350000 0.07351270 28460.30371385 0 -145.38073210 0 9408.44227885 0 1092.47307288 0 -1058.67258691 0 5721
0.07450000 0.07449140 28137.98833838 0 673.88826204 0 7756.14139081 0 184.46714594 0 -2269.10688671 0 6028
0.07550000 0.07549160 28269.85972697 0 95.60719962 0 8972.22589797 0 355.57331753 0 -692.97805726 0 6183
0.07650000 0.07648840 27550.82295324 0 247.31698331 0 7861.18453637 0 106.53314831 0 -2567.62783614 0 6330
0.07750000 0.07749960 27425.26278980 0 1067.08091037 0 8373.43457178 0 -828.30068950 0 -2204.84311346 0 6583
0.07850000 0.07848650 26151.28109617 0 1217.16959499 0 7800.92894470 0 -375.77920309 0 -2703.87279304 0 6549
0.07950000 0.07947320 25686.24345378 0 710.39150250 0 8204.58161829 0 212.48123497 0 -2341.80777147 0 6828
0.08050000 0.08048110 24426.87722891 0 630.59547200 0 8463.16469211 0 1017.66291024 0 -1565.10633009 0 7147
0.08150000 0.08149960 24086.51396399 0 1043.50350191 0 8768.99337592 0 1130.71688280 0 -1288.71895797 0 7386
0.08250000 0.08250610 23782.80009421 0 344.08135160 0 8099.25059229 0 1034.73975681 0 297.82892913 0 7227
0.08350000 0.08350160 23392.27919786 0 -110.40469740 0 9273.22704816 0 364.49318240 0 1792.11113352 0 7798
0.08450000 0.08449610 23546.07378959 0 353.22819913 0 9004.33563994 0 550.00444858 0 2492.16994251 0 7371
0.08550000 0.08548940 22748.75567940 0 600.67583588 0 9668.08829585 0 1125.01463552 0 3133.65615320 0 8256
0.08650000 0.08650700 22310.18089333 0 901.73456216 0 8555.50788109 0 1000.42219327 0 1709.76625385 0 8037
0.08750000 0.08749060 21300.82776286 0 1043.76813047 0 8180.47716716 0 -32.72846348 0 1219.76051900 0 8155
0.08850000 0.08849210 20645.34613360 0 1212.62994181 0 8574.93981115 0 -948.47084522 0 440.06401375 0 8718
0.08950000 0.08949900 19631.56407320 0 660.31359181 0 8512.22616338 0 -510.15293709 0 772.72869123 0 8571
0.09050000 0.09049190 18988.26200124 0 -146.70166045 0 8298.20919696 0 61.96526934 0 1022.88572586 0 8932
0.09150000 0.09150830 19766.53571274 0 -88.38915107 0 8611.35668748 0 698.32709738 0 387.50479507 0 9285
0.09250000 0.09250820 20082.65058632 0 -410.08901601 0 8294.87642719 0 1466.79515803 0 326.93917832 0 9204
0.09350000 0.09350330 20244.74942166 0 -330.19444181 0 8209.18770542 0 1358.05385598 0 380.71967442 0 9349
0.09450000 0.09448040 20018.43110237 0 582.92247026 0 8046.47989221 0 320.69770881 0 2379.58654375 0 9564
0.09550000 0.09549270 20121.51444643 0 677.99941625 0 8393.38690110 0 68.77386332 0 1085.31370765 0 10155
0.09650000 0.09649430 18637.38002774 0 663.52013708 0 7989.94460168 0 -526.81014255 0 2177.50554348 0 9913
0.09750000 0.09749140 18688.31272190 0 813.24454221 0 8398.15907310 0 67.49966018 0 904.18708211 0 10476
0.09850000 0.09850240 17997.95326946 0 -64.74165479 0 7639.06262818 0 611.91092387 0 -23.50322389 0 10575
0.09950000 0.09950330 18349.72102895 0 221.06893010 0 7909.98027184 0 483.12207051 0 168.53407053 0 10882
0.10050000 0.10051200 17702.98653629 0 617.58770480 0 7332.17100118 0 46.08799844 0 -418.33900523 0 10875
0.10150000 0.10150300 17356.86566246 0 543.31787162 0 7238.64307344 0 705.24619316 0 120.40156731 0 11118
0.10250000 0.10250800 16972.21309826 0 173.33945950 0 6431.03877349 0 949.93017763 0 645.45231744 0 11575
0.10350000 0.10349800 16613.46977414 0 25.35462733 0 6053.60536507 0 1154.71061069 0 931.46043260 0 11364
0.10450000 0.10450100 16806.23894923 0 -200.95383760 0 5621.05392371 0 1559.73625255 0 477.50840183 0 12093
0.10550000 0.10551000 16514.48319026 0 260.53733915 0 5337.58026370 0 255.09307703 0 40.42937612 0 12067
0.10650000 0.10649700 16237.23217680 0 422.01501707 0 5424.09940983 0 -598.38607910 0 -130.98006644 0 12054
0.10750000 0.10749900 15770.42296245 0 733.82718522 0 5371.39514370 0 -791.03345862 0 516.71661124 0 12807
0.10850000 0.10850100 15563.03831859 0 317.02501867 0 5731.68859330 0 -364.98257916 0 154.91511100 0 12736
0.10950000 0.10950300 15263.97482524 0 207.27834953 0 6047.07269343 0 260.41775804 0 519.42379466 0 12933
0.11050000 0.11050200 15269.73243415 0 275.04872805 0 5994.49022287 0 265.02605963 0 121.44015138 0 13428
0.11150000 0.11150900 15010.41858689 0 34.34978401 0 5830.21013953 0 108.28645094 0 -25.29217941 0 13453
0.11250000 0.11250000 14983.51283758 0 92.89237630 0 5761.79424448 0 855.49653372 0 269.66314926 0 13668
0.11350000 0.11349100 14974.32280799 0 -202.25262130 0 4980.17669088 0 1050.24101156 0 236.71080337 0 13791
0.11450000 0.11448600 15320.33295857 0 -74.49216547 0 4887.87779119 0 472.42952643 0 335.31317758 0 14205
0.11550000 0.11549300 14982.40560510 0 174.09680652 0 4342.13397321 0 124.70537997 0 -235.60135642 0 14776
0.11650000 0.11649800 14845.33022385 0 533.44578681 0 4882.37484576 0 -702.68073550 0 -371.41006372 0 14553
0.11750000 0.11747300 14213.43264645 0 667.51946081 0 4822.07496479 0 -213.52646243 0 811.85939438 0 14568
0.11850000 0.11849100 13906.95069547 0 399.49390839 0 5524.18215387 0 393.79387557 0 847.51006583 0 16015
0.11950000 0.11950300 13600.13657474 0 105.01900789 0 5062.42191963 0 423.20307752 0 561.70346698 0 15270
0.12050000 0.12050700 13725.69673819 0 -163.29132473 0 4820.95665999 0 773.14279618 0 19.84559211 0 15999
0.12150000 0.12150000 13522.96247076 0 71.36080129 0 4570.15743052 0 139.08057928 0 394.87232001 0 15670
0.12250000 0.12250700 13768.43591199 0 20.14808803 0 4135.95621276 0 213.67372435 0 42.26184588 0 16887
0.12350000 0.12352200 13529.05224941 0 108.02337250 0 4181.82885448 0 403.12784539 0 599.37373048 0 16407
0.12450000 0.12449800 13486.75596860 0 101.97832604 0 3572.59632598 0 94.41958206 0 -272.47662700 0 16306
0.12550000 0.12549900 13109.07896904 0 301.73635256 0 3812.06856716 0 874.15450827 0 413.73402534 0 17523
0.12650000 0.12650100 13063.35026754 0 217.41063398 0 3609.69968645 0 180.12679461 0 585.89649671 0 17154
0.12750000 0.12750600 12904.68385288 0 -45.26023144 0 3514.31160814 0 656.39620329 0 1089.98512149 0 18007
0.12850000 0.12850300 13076.85850381 0 -222.00897047 0 3443.37122303 0 486.39947866 0 1599.37517540 0 17496
0.12950000 0.12949900 13152.26103583 0 36.91136635 0 3268.38420159 0 43.46241806 0 1315.60256263 0 18405
0.13050000 0.13049000 13137.53484382 0 439.25462681 0 3627.41540616 0 -124.95450728 0 1688.64025809 0 18100
0.13150000 0.13148800 12632.63683209 0 455.39475470 0 3384.90934798 0 -534.94387236 0 1024.89756728 0 19059
0.13250000 0.13249300 12109.58020766 0 593.89292969 0 3511.73175646 0 -126.99402951 0 1145.32127924 0 18957
0.13350000 0.13349100 11771.32068445 0 414.50023021 0 3625.49989397 0 -87.77950887 0 470.71110162 0 19468
0.13450000 0.13450700 11579.65874184 0 38.27226580 0 3258.56304948 0 264.72046346 0 380.61670180 0 19953
0.13550000 0.13551000 11552.53154603 0 -19.43768767 0 3031.90148812 0 375.61422545 0 5.91245537 0 19956
0.13650000 0.13649900 11613.87222553 0 20.28793149 0 2768.19192791 0 384.03805017 0 182.74097050 0 19723
0.13750000 0.13749600 11481.55794394 0 -38.49703399 0 2309.41014905 0 379.60801301 0 -108.17683492 0 20946
0.13850000 0.13851100 11624.50165735 0 -51.65029154 0 2378.84469799 0 356.05828536 0 -395.64073935 0 20955
0.13950000 0.13949800 11347.80426013 0 193.12459672 0 2103.70849857 0 91.01373495 0 -284.93299242 0 20506
0.14050000 0.14048300 11347.13992065 0 123.86388328 0 2335.20866588 0 -186.19110692 0 -12.45404023 0 21447
0.14150000 0.14148400 11133.55477489 0 141.38805177 0 2496.55458313 0 66.77287277 0 507.70595330 0 21771
0.14250000 0.14249400 11245.49597881 0 235.83055354 0 2771.63542093 0 -142.01031643 0 276.07845426 0 22470
0.14350000 0.14350900 10933.09033405 0 380.93669199 0 3022.22427622 0 -441.32736602 0 772.08871086 0 22519
0.14450000 0.14449900 10759.39877462 0 352.43099175 0 3434.77909897 0 -172.03735410 0 830.36567808 0 22218
0.14550000 0.14550500 10563.76186740 0 -23.06177030 0 3566.09687132 0 83.15382373 0 1268.70019469 0 23559
0.14650000 0.14650700 10696.99515194 0 -99.61316674 0 3530.53256400 0 476.03246093 0 977.51355322 0 23044
0.14750000 0.14750500 10793.98871736 0 -58.73824027 0 3412.36871353 0 690.35613075 0 1248.07245356 0 23649
0.14850000 0.14849900 10746.25592506 0 8.65376369 0 3124.54362987 0 669.30653403 0 728.54679351 0 23640
0.14950000 0.14949500 10531.44175126 0 295.61224971 0 2793.30396060 0 66.41700825 0 1154.95420183 0 24457
0.15050000 0.15050000 10475.00611165 0 341.71851748 0 2725.25345226 0 -268.51494918 0 964.04296284 0 24591
0.15150000 0.15149900 9961.08415520 0 254.19511149 0 2785.37617603 0 -252.34824771 0 1219.40620460 0 25020
0.15250000 0.15250500 9820.03380933 0 262.05314041 0 2849.31885186 0 258.76908887 0 1139.84047846 0 25297
0.15350000 0.15350100 9744.03337178 0 8.75108943 0 2546.28039389 0 564.00761777 0 883.07880207 0 25452
0.15450000 0.15450400 9701.96960979 0 72.86796614 0 2404.42176832 0 284.12692717 0 630.86342226 0 26061
0.15550000 0.15549900 9596.36177567 0 99.83073792 0 2226.13519409 0 -194.47431311 0 543.25586660 0 26128
0.15650000 0.15649500 9487.12221901 0 132.66748874 0 2206.38216661 0 -261.09206262 0 97.40977410 0 26331
0.15750000 0.15749700 9578.72356224 0 35.05796990 0 2448.37889785 0 -451.25038352 0 309.59438149 0 27345
0.15850000 0.15849900 9514.05011297 0 50.69098531 0 2608.23005125 0 -201.18192749 0 -99.96404871 0 26980
0.15950000 0.15949700 9431.71630562 0 291.24200310 0 2762.26823413 0 -121.44347308 0 295.37973088 0 27777
0.16050000 0.16050000 9383.18630594 0 139.27323773 0 2787.23632660 0 206.77898769 0 265.68707742 0 28224
0.16150000 0.16150500 9094.26506212 0 111.84819639 0 2805.27314373 0 468.74576396 0 564.45604693 0 28075
0.16250000 0.16249700 9097.57568724 0 178.79811564 0 2887.64016805 0 152.82354884 0 489.35357492 0 28590
0.16350000 0.16349900 8853.90703496 0 138.77941204 0 2736.54722358 0 241.28256629 0 312.68577458 0 29163
0.16450000 0.16449100 8885.29707582 0 84.19473298 0 2537.14572592 0 -47.59195232 0 657.40267762 0 28996
0.16550000 0.16550500 8880.19273408 0 -91.26884131 0 2514.52496631 0 -193.82658211 0 160.89748810 0 30777
0.16650000 0.16650700 8928.91096328 0 42.29306983 0 2478.31846416 0 -160.90413150 0 350.80114553 0 29211
0.16750000 0.16749900 8848.19371535 0 162.21620199 0 2552.30373860 0 -175.88941591 0 -19.91357619 0 30922
0.16850000 0.16850800 8758.92863266 0 208.88383663 0 2621.90437241 0 94.12339737 0 118.38640419 0 30867
0.16950000 0.16949900 8676.58375299 0 156.93913198 0 2576.19781555 0 34.91292245 0 -308.27898930 0 30852
0.17050000 0.17049200 8543.95944631 0 3.81124922 0 2581.40180822 0 103.57107997 0 58.01643541 0 31257
0.17150000 0.17149500 8442.32657680 0 15.96319214 0 2775.83183203 0 192.50676099 0 -15.26452844 0 32608
0.17250000 0.17250900 8479.47422656 0 93.24303683 0 2759.92090127 0 68.40581924 0 5.76230357 0 32361
0.17350000 0.17350400 8416.40626440 0 105.56708796 0 2718.17823670 0 197.07077328 0 327.98329855 0 32508
0.17450000 0.17449800 8243.04687471 0 236.41849399 0 2755.41446507 0 -114.19552925 0 178.70178641 0 32791
0.17550000 0.17549800 8159.63905185 0 186.18889245 0 2715.42122782 0 110.78968214 0 469.09011327 0 33633
0.17650000 0.17650100 8016.15279453 0 165.38177965 0 2711.16945509 0 181.42336385 0 518.72180927 0 33984
0.17750000 0.17750300 7946.31964190 0 46.10759646 0 2564.94833354 0 239.06920855 0 668.42849867 0 34069
0.17850000 0.17849800 7874.52668777 0 5.48290453 0 2658.49840593 0 160.27522345 0 503.47743246 0 34536
