### header ###
fiducial parameters:
Omega_m = 0.31
Omega_nu = 0
Omega_de = 0.69
Omega_k = 0
H_0 = 100
w_de = -1
zeff = 0
beta = 0
fgrowth = 0
b_1 = 2
gamma = 0.55
Lx = 3500 Ly = 3500 Lz = 3500
nx = 700 ny = 700 nz = 700
xoffset = -685.467585 yoffset = -31.7331281 zoffset = 572.489161
bins = 400 dk = 0.001
kx_ny = 0.628318531 ky_ny = 0.628318531 kz_ny = 0.628318531
############################
A(data) = 8.11243259 (not used)
A(ran) = 8.11111781 (used)
Ngal = 482224
weighted Ngal = 0
Nran = 23820508
weighted Nran = 0
SN(data) = 3488.50197
SN(ran) = 70.6507778
SN(data+ran) = 3559.15275
############################
13 columns: k_central k_mean P_0(k) sigma^{lin}_{P_0(k)} P^img_1(k) sigma^{lin}_{P_1(k)} P_2(k) sigma^{lin}_{P_2(k)} P^img_3(k) sigma^{lin}_{P_3(k)} P_4(k) sigma^{lin}_{P_4(k)} N_modes
### header ###
0.00050000 0 0 0 0 0 0 0 0 0 0 0 0
0.00150000 0.00179520 7340.43095550 0 -8839.12548132 0 11975.05146111 0 -7746.61919147 0 5817.29980879 0 3
0.00250000 0.00253879 23566.00397426 0 -21485.84631058 0 -11637.78844713 0 -7168.34488316 0 -11147.72735066 0 6
0.00350000 0.00331552 30606.56315669 0 -19946.57171429 0 -16664.51319155 0 11175.29743946 0 -1650.29679724 0 7
0.00450000 0.00420575 46307.34119603 0 -16563.86575895 0 -25341.78342868 0 -9427.94064285 0 -3213.50975979 0 24
0.00550000 0.00557378 55984.77453403 0 -7752.56502990 0 -20400.97992485 0 -26341.17146681 0 -14973.43702200 0 45
0.00650000 0.00659388 49597.70396239 0 9054.05037838 0 -9949.82360086 0 -39092.72506745 0 -4820.45840537 0 40
0.00750000 0.00754703 49816.27165431 0 5539.74984256 0 -5338.12280762 0 -26775.20659970 0 -14218.41519262 0 57
0.00850000 0.00846663 38432.15016877 0 5529.81796720 0 683.79909999 0 -26004.24062258 0 4649.29133600 0 75
0.00950000 0.00948925 48059.09370559 0 -17023.47796217 0 -10050.30494859 0 17.00775526 0 -22539.71018682 0 112
0.01050000 0.01054430 62971.30077134 0 -6928.02007298 0 18587.11167306 0 -28641.22550139 0 -15556.39492370 0 105
0.01150000 0.01145670 70164.43658978 0 1346.50542120 0 25480.29821216 0 -35964.01824345 0 -35681.78468382 0 144
0.01250000 0.01249090 70748.39100071 0 2180.00788889 0 40681.16078593 0 -22268.43822877 0 -386.52157263 0 169
0.01350000 0.01339930 71670.71565810 0 5604.41221951 0 43363.32075000 0 -16786.86238080 0 7436.18442053 0 180
0.01450000 0.01448870 81892.24303769 0 -6733.46825359 0 64709.98793761 0 8323.48731452 0 -15121.91689782 0 267
0.01550000 0.01550050 91033.66513121 0 -1637.72970858 0 69458.79732908 0 28602.14019478 0 8549.67276591 0 238
0.01650000 0.01653350 89354.32562596 0 1414.84380998 0 51878.04925879 0 20341.96443357 0 1797.59193431 0 315
0.01750000 0.01747870 84276.11457114 0 8772.20435012 0 52534.08450429 0 27557.57707138 0 6547.60820918 0 297
0.01850000 0.01844180 86348.96450044 0 2354.41914944 0 39231.35057418 0 15422.08762365 0 -1558.69545402 0 388
0.01950000 0.01947590 84406.54655750 0 -414.80582638 0 37157.72558214 0 -6797.03447037 0 -9826.74363817 0 399
0.02050000 0.02045430 83387.33905795 0 763.39250695 0 35979.40877494 0 -2511.00396702 0 -13436.04472093 0 462
0.02150000 0.02154770 83890.57622096 0 880.39376331 0 42720.90446402 0 1944.31131048 0 -14983.29139109 0 571
0.02250000 0.02255340 78374.01182656 0 8972.73522491 0 39847.41472709 0 -3874.94829981 0 -10270.77708037 0 510
0.02350000 0.02348930 78342.12353108 0 5545.04241383 0 39954.04121509 0 14122.08596669 0 -10048.57766591 0 555
0.02450000 0.02439640 69609.71311636 0 891.77500599 0 38120.46422512 0 10761.48037169 0 -7848.79460489 0 592
0.02550000 0.02547300 68955.22799633 0 3498.59997922 0 27422.27326210 0 15867.52725111 0 -15255.89202812 0 837
0.02650000 0.02652900 63633.09362575 0 4013.02019030 0 26819.27445248 0 5681.14343050 0 -15897.75469786 0 723
0.02750000 0.02749970 60242.52631979 0 2213.42416520 0 16738.47632134 0 3008.23992998 0 -10058.56490290 0 826
0.02850000 0.02848090 59329.61313849 0 1214.41258611 0 16634.61791454 0 -546.85658663 0 -972.74581015 0 831
0.02950000 0.02946900 55080.49776609 0 2272.14070371 0 11490.30508055 0 4741.97776706 0 -1122.01403550 0 996
0.03050000 0.03053250 54906.77298968 0 -676.74270738 0 10937.07637099 0 2522.88457155 0 -3848.13112910 0 1041
0.03150000 0.03150510 55619.94143125 0 -1797.58086198 0 11635.46325892 0 222.62127004 0 -9019.10612125 0 1036
0.03250000 0.03246190 57223.65695798 0 -300.08989786 0 17321.87711603 0 -3413.05519767 0 -12647.69519384 0 1059
0.03350000 0.03345080 55882.24480620 0 4738.67821426 0 22097.26008707 0 -8431.36497523 0 -5787.57061666 0 1302
0.03450000 0.03451200 55554.83616132 0 2396.35004353 0 21432.69915145 0 -8287.97836883 0 629.22693265 0 1339
0.03550000 0.03553350 53359.96921252 0 521.22083298 0 23359.83728614 0 334.93007514 0 466.39843110 0 1365
0.03650000 0.03647120 55225.32377471 0 -928.38896970 0 24402.51811431 0 3186.75902303 0 -9182.74400975 0 1308
0.03750000 0.03744890 53813.60236034 0 -1128.17024810 0 24467.84483074 0 5554.42067295 0 -9926.22847667 0 1579
0.03850000 0.03847530 51788.25270451 0 3225.97719754 0 22418.68967655 0 1773.76429130 0 -18064.60866487 0 1662
0.03950000 0.03950240 49418.66447007 0 5356.38107124 0 19107.51093954 0 -2163.08937657 0 -7595.02799238 0 1683
0.04050000 0.04050350 47139.98002239 0 2488.36106277 0 21161.87008639 0 -2493.79757425 0 -10034.61546432 0 1822
0.04150000 0.04152450 43728.70746902 0 3546.48778406 0 22420.90414152 0 -1114.23019115 0 -8879.42874366 0 1887
0.04250000 0.04250150 43455.66393899 0 2027.98486913 0 23568.99350196 0 -271.41921998 0 -7622.42092398 0 1920
0.04350000 0.04349210 42822.21623611 0 1105.41772783 0 25542.41395439 0 1868.79805522 0 -2937.17774929 0 2005
0.04450000 0.04448520 41039.57194031 0 -671.52542793 0 26075.21422466 0 5796.55027208 0 2105.49114286 0 2151
0.04550000 0.04548030 42978.77890905 0 -1504.00924174 0 22688.07933939 0 6693.08748497 0 -2596.78126739 0 2274
0.04650000 0.04648670 42698.20619815 0 -936.30236024 0 19767.97511497 0 9724.22498268 0 1082.69510283 0 2311
0.04750000 0.04749250 43739.55834734 0 -295.35758623 0 18937.66147682 0 3938.63631216 0 1226.69179433 0 2568
0.04850000 0.04851840 43241.96806999 0 1091.00709708 0 16483.92357376 0 -1280.79117340 0 -1961.52877557 0 2493
0.04950000 0.04949480 41312.06185410 0 2884.82779755 0 17489.51211379 0 -276.11499293 0 777.93268390 0 2644
0.05050000 0.05050630 39292.80197692 0 1208.83213440 0 12766.16906940 0 -316.80025048 0 -1082.65413523 0 2829
0.05150000 0.05149060 37665.28095183 0 1152.73973687 0 11546.22032088 0 4154.66844170 0 201.27714948 0 2784
0.05250000 0.05249300 38638.20613364 0 -1159.43849338 0 9364.49622164 0 3172.04390335 0 -7725.79214848 0 3055
0.05350000 0.05348950 36529.70331843 0 27.02378029 0 6557.07504690 0 1748.26472724 0 -6521.74325841 0 3009
0.05450000 0.05448610 38136.29764962 0 1304.43058688 0 6149.92351867 0 -119.22236472 0 -7366.47306347 0 3336
0.05550000 0.05550870 36240.27274767 0 475.70804181 0 5599.34109474 0 -1203.36240594 0 -4074.05084470 0 3349
0.05650000 0.05647670 35916.18580023 0 -58.77765775 0 7801.61542884 0 -1776.41057693 0 -4437.82100429 0 3324
0.05750000 0.05747970 35396.11870350 0 1293.85651668 0 9358.29571975 0 778.24713792 0 -4982.35793887 0 3639
0.05850000 0.05849280 35179.21186030 0 1667.37032212 0 10975.56377206 0 -1476.51665922 0 -2486.51198452 0 3846
0.05950000 0.05951020 34087.03774019 0 851.98660675 0 10220.71909987 0 611.45142239 0 -1224.26695520 0 3787
0.06050000 0.06049470 34386.87629628 0 -251.84445693 0 11015.31341816 0 3176.58355652 0 1250.17619527 0 3930
0.06150000 0.06148310 34531.81302815 0 -599.99045897 0 9347.31197353 0 2340.47909249 0 655.63553458 0 4083
0.06250000 0.06249100 35209.43930705 0 17.01550589 0 7488.35721507 0 2657.97800666 0 -493.74928787 0 4303
0.06350000 0.06350600 34009.75291295 0 448.16674106 0 6145.15134667 0 590.83918251 0 -671.77234077 0 4470
0.06450000 0.06451750 33582.58262145 0 645.26851685 0 4554.57866950 0 674.96006308 0 367.90345845 0 4479
0.06550000 0.06550280 32399.17254483 0 2159.00368871 0 4754.83273617 0 -18.18850798 0 -3155.13646335 0 4636
0.06650000 0.06648880 30408.14709594 0 1636.75534399 0 4495.44138264 0 -1010.96858266 0 -1071.97598518 0 4653
0.06750000 0.06749660 28970.18427175 0 1226.38176924 0 6266.54831599 0 -1341.37893480 0 -391.23395407 0 5220
0.06850000 0.06852730 28281.70711452 0 591.67071410 0 5726.50674528 0 354.83479346 0 544.51036100 0 5029
0.06950000 0.06949320 28941.72839696 0 -417.76213710 0 8798.81114666 0 -146.41267277 0 -1766.88837759 0 5040
0.07050000 0.07048030 28593.61450467 0 223.94219839 0 7591.24125729 0 -529.68894700 0 -2116.10950237 0 5475
0.07150000 0.07148790 29114.89955713 0 -47.67931296 0 8763.83367256 0 -803.09122035 0 510.79513193 0 5509
0.07250000 0.07249820 28533.04888791 0 248.03889889 0 7777.49990539 0 141.37033605 0 -244.77145584 0 5916
0.07350000 0.07351270 28943.16779919 0 612.48114860 0 8700.63284249 0 114.20438711 0 -1119.67777496 0 5721
0.07450000 0.07449140 27757.76470411 0 1222.27393673 0 9003.80416835 0 -811.45525452 0 -1352.62841682 0 6028
0.07550000 0.07549160 26775.64949269 0 1597.71432668 0 8796.24236730 0 -263.27663231 0 -899.93641661 0 6183
0.07650000 0.07648840 25461.47525997 0 730.39587175 0 8037.71061095 0 1208.74355580 0 -768.14253429 0 6330
0.07750000 0.07749960 24882.72484170 0 -98.90188059 0 7303.50475223 0 3479.52236356 0 -393.39416464 0 6583
0.07850000 0.07848650 25703.18411076 0 -705.84742040 0 6745.59244926 0 2083.95547109 0 -1085.67355821 0 6549
0.07950000 0.07947320 25156.87560421 0 -638.69598484 0 4918.91351766 0 2145.17435501 0 -959.99270643 0 6828
0.08050000 0.08048110 25864.17571362 0 198.46477898 0 5501.68318984 0 49.27350629 0 952.59639345 0 7147
0.08150000 0.08149960 25704.95568273 0 848.15336790 0 4164.37887057 0 -499.85899671 0 -186.03609437 0 7386
0.08250000 0.08250610 25053.34936715 0 727.38087771 0 5208.55446259 0 -1069.51128567 0 1008.31897533 0 7227
0.08350000 0.08350160 24484.12114822 0 718.12441416 0 4940.39382781 0 -1030.08384423 0 -3.71437745 0 7798
0.08450000 0.08449610 23727.54919337 0 658.09580515 0 6179.57520453 0 -266.68690835 0 131.41299434 0 7371
0.08550000 0.08548940 23003.19770373 0 1313.42131464 0 5834.67228643 0 -577.75280180 0 -117.88150618 0 8256
0.08650000 0.08650700 21883.01060183 0 1148.14472207 0 7157.06218417 0 200.26403176 0 202.92249695 0 8037
0.08750000 0.08749060 21590.81194986 0 522.86285875 0 6242.37743091 0 426.91673527 0 843.88941561 0 8155
0.08850000 0.08849210 21036.53136944 0 -121.45675987 0 7414.83697828 0 698.06800498 0 -406.56026609 0 8718
0.08950000 0.08949900 21256.31701709 0 -72.00421408 0 6931.84002504 0 190.01216621 0 -201.76433178 0 8571
0.09050000 0.09049190 21163.42021186 0 258.48895905 0 7171.20154297 0 -82.40267721 0 -161.69580272 0 8932
0.09150000 0.09150830 20764.15217890 0 663.51349369 0 7226.62960101 0 -759.61905865 0 -786.65435416 0 9285
0.09250000 0.09250820 20269.10853626 0 436.82425151 0 6582.10957332 0 594.91269081 0 -258.48231566 0 9204
0.09350000 0.09350330 19671.75661230 0 660.33795093 0 6824.70421009 0 135.34588412 0 -632.67706907 0 9349
0.09450000 0.09448040 19239.49305138 0 605.03168846 0 6560.17529785 0 1454.17270773 0 -1547.70063548 0 9564
0.09550000 0.09549270 18591.98349598 0 315.19365615 0 6183.29550567 0 1006.68027126 0 -1702.96784641 0 10155
0.09650000 0.09649430 17992.30638380 0 1023.12599531 0 6014.86330053 0 202.92360418 0 -531.27007498 0 9913
0.09750000 0.09749140 17668.99449910 0 468.57746463 0 5838.42580455 0 -110.96462487 0 -393.00884774 0 10476
0.09850000 0.09850240 17176.27604467 0 30.38943487 0 6293.79730736 0 1012.74458356 0 1324.78151990 0 10575
0.09950000 0.09950330 16978.74576991 0 75.25427359 0 5384.99195857 0 584.57667559 0 114.80118542 0 10882
0.10050000 0.10051200 16898.80358471 0 205.10042324 0 5064.16027463 0 732.34127922 0 -285.35152630 0 10875
0.10150000 0.10150300 16963.79813140 0 320.31903531 0 4781.21808621 0 -323.27202434 0 -187.62275852 0 11118
0.10250000 0.10250800 16563.97648220 0 -30.22024974 0 4709.73515718 0 23.61073617 0 -383.02493245 0 11575
0.10350000 0.10349800 16583.90666687 0 -313.23828358 0 4555.56410641 0 49.76124220 0 50.59620621 0 11364
0.10450000 0.10450100 17036.10041247 0 -10.88064073 0 4515.90303891 0 735.50796412 0 -1090.69042859 0 12093
0.10550000 0.10551000 16719.98553889 0 367.85474022 0 5003.10747558 0 -333.67779520 0 -855.90067357 0 12067
0.10650000 0.10649700 16281.74292257 0 748.84125767 0 4274.05024790 0 -174.45665708 0 -428.67391321 0 12054
0.10750000 0.10749900 15853.24395209 0 492.05300771 0 5173.76521801 0 -550.80387043 0 33.96092396 0 12807
0.10850000 0.10850100 15796.88581876 0 160.13571215 0 5295.81545448 0 68.85546635 0 262.25022779 0 12736
0.10950000 0.10950300 15550.52659155 0 57.91412713 0 5698.94772881 0 196.01336626 0 -32.71772333 0 12933
0.11050000 0.11050200 15236.40473644 0 554.52195710 0 5286.07180864 0 191.18693988 0 261.02673590 0 13428
0.11150000 0.11150900 14976.31582645 0 348.86127422 0 5240.59777061 0 141.24521878 0 491.94671339 0 13453
0.11250000 0.11250000 14836.36164075 0 111.69429107 0 5137.08260588 0 983.04528670 0 548.76656266 0 13668
0.11350000 0.11349100 14822.85340447 0 -145.95427853 0 5056.94111885 0 479.35637284 0 356.91085437 0 13791
0.11450000 0.11448600 14776.34964023 0 142.76212728 0 5339.49577589 0 262.66543998 0 351.35365454 0 14205
0.11550000 0.11549300 14839.90478469 0 140.24428062 0 5335.15542457 0 -561.41890823 0 1133.36316844 0 14776
0.11650000 0.11649800 14810.00950768 0 258.15568208 0 5532.25387866 0 -269.80708948 0 684.90743970 0 14553
0.11750000 0.11747300 14572.61886356 0 -87.52949577 0 5146.50515431 0 -40.84735638 0 1023.77040461 0 14568
0.11850000 0.11849100 14678.47028883 0 80.66343643 0 5272.81823584 0 556.38210767 0 430.77654770 0 16015
0.11950000 0.11950300 14759.18753676 0 120.82895905 0 5094.03340699 0 416.88742344 0 325.92495336 0 15270
0.12050000 0.12050700 14411.40581421 0 231.10599254 0 4814.01431233 0 503.75756227 0 -391.04018839 0 15999
0.12150000 0.12150000 14138.58373067 0 555.13425666 0 4461.62650265 0 183.27797826 0 478.56691608 0 15670
0.12250000 0.12250700 13530.04875864 0 457.34348387 0 4341.08210235 0 236.88574610 0 271.21438197 0 16887
0.12350000 0.12352200 13313.69553168 0 116.18190432 0 4024.92293948 0 688.22470822 0 756.96170069 0 16407
0.12450000 0.12449800 13479.11606448 0 -231.92755905 0 3764.23612395 0 404.16975116 0 570.21033414 0 16306
0.12550000 0.12549900 13489.30260331 0 89.42972816 0 3843.93471799 0 198.54671418 0 266.28055403 0 17523
0.12650000 0.12650100 13297.64066070 0 138.34316245 0 3729.28079449 0 -158.73617030 0 132.08176276 0 17154
0.12750000 0.12750600 13235.74636496 0 197.10731196 0 3994.04222556 0 -183.32448202 0 120.96071971 0 18007
0.12850000 0.12850300 12879.77112204 0 441.77136624 0 4069.58869779 0 -729.94854983 0 181.01922400 0 17496
0.12950000 0.12949900 12734.05932743 0 319.24612703 0 4543.88280373 0 -130.17621566 0 -141.68589731 0 18405
0.13050000 0.13049000 12457.02976047 0 160.92627615 0 4511.35231341 0 -230.68192250 0 375.15250951 0 18100
0.13150000 0.13148800 12338.55588491 0 221.17854611 0 4442.75926116 0 319.03464563 0 -317.48562738 0 19059
0.13250000 0.13249300 12307.55337541 0 127.30959076 0 4024.48004648 0 669.24452901 0 -299.87730923 0 18957
0.13350000 0.13349100 11998.41406648 0 73.57637348 0 3811.14956420 0 553.65942300 0 -127.35166560 0 19468
0.13450000 0.13450700 12131.17124105 0 159.42597613 0 3306.66122849 0 368.94868591 0 13.69912316 0 19953
0.13550000 0.13551000 11760.46980613 0 56.96378949 0 3101.20316916 0 488.66598355 0 -366.50723829 0 19956
0.13650000 0.13649900 11735.33562879 0 243.52692653 0 2881.32894291 0 429.39693602 0 65.13549738 0 19723
0.13750000 0.13749600 11423.98185489 0 101.77359876 0 2729.26163385 0 191.50582283 0 233.19755470 0 20946
0.13850000 0.13851100 11596.71012206 0 -54.07435561 0 2545.95929647 0 396.43794674 0 136.00911637 0 20955
0.13950000 0.13949800 11728.69223390 0 -238.58977689 0 2476.83477263 0 221.59486553 0 108.70376686 0 20506
0.14050000 0.14048300 11581.76248355 0 50.24477062 0 2651.15745458 0 -150.92243067 0 -0.34881145 0 21447
0.14150000 0.14148400 11596.48867556 0 476.65361835 0 2995.78356456 0 -702.89664583 0 552.67841502 0 21771
0.14250000 0.14249400 11338.83567703 0 460.86116146 0 3577.16919613 0 -232.17557912 0 858.07970710 0 22470
0.14350000 0.14350900 10844.48959085 0 300.89485588 0 3669.78919324 0 -136.76867786 0 574.21076509 0 22519
0.14450000 0.14449900 10827.32748738 0 295.15496269 0 4062.21452946 0 52.19283545 0 518.99972462 0 22218
0.14550000 0.14550500 10631.24768717 0 131.11957773 0 3968.63124010 0 17.31877687 0 230.31875025 0 23559
0.14650000 0.14650700 10492.88791624 0 -16.16847304 0 4158.17836867 0 8.07408320 0 365.70449474 0 23044
0.14750000 0.14750500 10632.57636615 0 88.18508813 0 3772.16390852 0 -130.33565714 0 -107.07203835 0 23649
0.14850000 0.14849900 10361.04974462 0 216.57578069 0 3722.17236196 0 190.38419633 0 -10.19988098 0 23640
0.14950000 0.14949500 10232.68828300 0 79.56107577 0 3171.20240666 0 324.81882811 0 -143.06440175 0 24457
0.15050000 0.15050000 10280.18855647 0 -109.69750802 0 2922.54013588 0 731.43777752 0 -187.49431955 0 24591
0.15150000 0.15149900 10394.84247997 0 -70.79733068 0 2715.99698871 0 691.67816633 0 -839.43944827 0 25020
0.15250000 0.15250500 10323.53670814 0 55.94624284 0 2475.52823830 0 21.40136447 0 -538.30543017 0 25297
0.15350000 0.15350100 10234.68130147 0 225.88760586 0 2540.89924403 0 -397.53632136 0 -580.35811983 0 25452
0.15450000 0.15450400 10000.51270388 0 447.35735411 0 2815.05000654 0 -468.78119540 0 -122.64592755 0 26061
0.15550000 0.15549900 9708.76801723 0 358.16645600 0 2928.15380456 0 -68.28092341 0 -284.02284732 0 26128
0.15650000 0.15649500 9533.37131978 0 38.52703999 0 3111.78831168 0 45.63215083 0 -467.79243680 0 26331
0.15750000 0.15749700 9594.09194908 0 -108.79068461 0 3025.90028806 0 216.24471817 0 -817.71222527 0 27345
0.15850000 0.15849900 9618.51749763 0 67.12464053 0 3002.44910410 0 340.20160898 0 -533.96618608 0 26980
0.15950000 0.15949700 9530.19356255 0 125.12723554 0 2890.89543155 0 319.40003235 0 -457.67122468 0 27777
0.16050000 0.16050000 9258.05796316 0 209.10528313 0 2578.75552259 0 384.41561645 0 -362.91759058 0 28224
0.16150000 0.16150500 9283.73468442 0 139.50022039 0 2529.76048527 0 162.03018693 0 -123.75426727 0 28075
0.16250000 0.16249700 9020.04726886 0 171.86684030 0 2340.86662386 0 136.46086723 0 -166.77910705 0 28590
0.16350000 0.16349900 9058.43501901 0 114.19885095 0 2398.09947085 0 95.39295014 0 148.54520253 0 29163
0.16450000 0.16449100 8857.90414422 0 31.56199407 0 2190.96949046 0 -13.70233413 0 223.63881669 0 28996
0.16550000 0.16550500 8964.01023295 0 98.99101281 0 2431.47145785 0 -153.55985844 0 -137.33225919 0 30777
0.16650000 0.16650700 8719.79903675 0 251.55325479 0 2431.41609623 0 -62.97484392 0 73.68787179 0 29211
0.16750000 0.16749900 8508.82695966 0 353.12633374 0 2552.87949949 0 13.29597981 0 -302.49591405 0 30922
0.16850000 0.16850800 8239.50373077 0 116.87503186 0 2478.15237929 0 -21.86950237 0 7.10079263 0 30867
0.16950000 0.16949900 8384.80584937 0 -26.42454607 0 2313.47369226 0 297.51779681 0 -184.30770447 0 30852
0.17050000 0.17049200 8286.78255775 0 55.52305859 0 2348.13006894 0 86.23813053 0 -101.39160355 0 31257
0.17150000 0.17149500 8263.51960330 0 -31.78277622 0 2135.44178150 0 67.96281552 0 -97.18976701 0 32608
0.17250000 0.17250900 8237.92038832 0 24.72726940 0 2271.54279817 0 124.59687118 0 -274.76084761 0 32361
0.17350000 0.17350400 8337.65989029 0 73.99767544 0 2253.76064451 0 -199.55540297 0 -172.09935912 0 32508
0.17450000 0.17449800 8188.13921594 0 237.11494322 0 2336.45983858 0 -209.89141819 0 -221.56054132 0 32791
0.17550000 0.17549800 7959.04174311 0 281.85710058 0 2490.61981703 0 -162.84068111 0 -190.20261020 0 33633
0.17650000 0.17650100 7845.28467793 0 110.89597645 0 2479.13781619 0 120.85442540 0 79.04898075 0 33984
0.17750000 0.17750300 7801.41612700 0 -14.48381882 0 2573.75083177 0 386.47396163 0 201.44877052 0 34069
0.17850000 0.17849800 7879.68639114 0 -26.69316067 0 2152.21635360 0 321.96327554 0 -55.00587030 0 34536
