### header ###
fiducial parameters:
Omega_m = 0.31
Omega_nu = 0
Omega_de = 0.69
Omega_k = 0
H_0 = 100
w_de = -1
zeff = 0
beta = 0
fgrowth = 0
b_1 = 2
gamma = 0.55
Lx = 3500 Ly = 3500 Lz = 3500
nx = 700 ny = 700 nz = 700
xoffset = -685.467585 yoffset = -31.7331281 zoffset = 572.489161
bins = 400 dk = 0.001
kx_ny = 0.628318531 ky_ny = 0.628318531 kz_ny = 0.628318531
############################
A(data) = 7.9828027 (not used)
A(ran) = 7.97956749 (used)
Ngal = 474360
weighted Ngal = 0
Nran = 23820508
weighted Nran = 0
SN(data) = 3490.9453
SN(ran) = 69.5049267
SN(data+ran) = 3560.45023
############################
13 columns: k_central k_mean P_0(k) sigma^{lin}_{P_0(k)} P^img_1(k) sigma^{lin}_{P_1(k)} P_2(k) sigma^{lin}_{P_2(k)} P^img_3(k) sigma^{lin}_{P_3(k)} P_4(k) sigma^{lin}_{P_4(k)} N_modes
### header ###
0.00050000 0 0 0 0 0 0 0 0 0 0 0 0
0.00150000 0.00179520 6279.04897071 0 -15896.97963512 0 -3915.66123817 0 -21101.85808587 0 -17652.27528862 0 3
0.00250000 0.00253879 7099.98434973 0 -10210.06752339 0 -5910.42913284 0 6809.31367860 0 27675.60805395 0 6
0.00350000 0.00331552 12791.08180024 0 -7195.30599410 0 -6457.14731541 0 -23545.29872685 0 -28216.82329109 0 7
0.00450000 0.00420575 16207.44762304 0 -5341.03482904 0 -6138.90655548 0 -2363.28808162 0 10450.72450333 0 24
0.00550000 0.00557378 32045.52249013 0 -10492.58896347 0 4590.49729121 0 -359.76640694 0 11133.22260515 0 45
0.00650000 0.00659388 38568.00759429 0 -10359.69892099 0 9975.22351399 0 -2509.55349247 0 14418.71354859 0 40
0.00750000 0.00754703 43312.94167208 0 -252.78560454 0 1598.62225732 0 21585.05434096 0 23219.88310043 0 57
0.00850000 0.00846663 58289.81111477 0 -13861.66488696 0 18829.26341685 0 -932.07826833 0 12861.05889310 0 75
0.00950000 0.00948925 66224.90341930 0 -9919.26398436 0 4775.41618801 0 31064.73595769 0 9705.88921278 0 112
0.01050000 0.01054430 70179.16278179 0 -3548.35900696 0 -1282.27486492 0 22209.53346073 0 20365.54848543 0 105
0.01150000 0.01145670 77497.52659392 0 -4677.45933034 0 -6493.26523897 0 2074.73222452 0 13492.18140776 0 144
0.01250000 0.01249090 74901.84148668 0 -3158.72389659 0 -8107.88700565 0 -565.86333941 0 20245.41376115 0 169
0.01350000 0.01339930 76856.66043341 0 5779.12243282 0 -9469.74974137 0 -7151.38208154 0 8494.54366064 0 180
0.01450000 0.01448870 71837.90776287 0 -3273.57712193 0 -13205.62964145 0 13162.44757466 0 30037.00276802 0 267
0.01550000 0.01550050 77221.60425944 0 -11042.25238444 0 -15878.37812943 0 -8094.79951772 0 -2113.06461304 0 238
0.01650000 0.01653350 77631.61244747 0 6686.79840448 0 -7362.63096676 0 -4655.30360838 0 7560.99166588 0 315
0.01750000 0.01747870 76899.62105371 0 11486.42976686 0 9226.36896953 0 -11971.72976366 0 2438.17021437 0 297
0.01850000 0.01844180 70024.92529706 0 8800.37234446 0 2906.70671139 0 -17598.46379000 0 -636.38961958 0 388
0.01950000 0.01947590 68304.17529700 0 883.11312628 0 23936.81613244 0 -14521.68616940 0 -1781.99102864 0 399
0.02050000 0.02045430 70247.92191891 0 -3828.74348834 0 27700.74223129 0 -1176.27949943 0 -13493.28864024 0 462
0.02150000 0.02154770 75457.67219258 0 -1509.01393256 0 28730.35771618 0 -5518.47990659 0 -21500.24033285 0 571
0.02250000 0.02255340 74406.90856729 0 892.83794917 0 25979.54933823 0 -381.81029842 0 -18980.73282036 0 510
0.02350000 0.02348930 72516.19838126 0 3813.51904171 0 33460.23343220 0 -723.30626217 0 -17429.16794353 0 555
0.02450000 0.02439640 70320.44564647 0 7196.56823913 0 28939.51393200 0 -6825.96645512 0 -19516.41189509 0 592
0.02550000 0.02547300 68559.94600031 0 1692.30519761 0 32879.60071871 0 7559.20902159 0 -10876.72112840 0 837
0.02650000 0.02652900 65985.18758698 0 -1614.06815044 0 34620.39162670 0 9493.43344416 0 -3136.68997020 0 723
0.02750000 0.02749970 68495.94796285 0 509.65246801 0 33847.65407761 0 9506.88631881 0 5106.93266540 0 826
0.02850000 0.02848090 68877.38955286 0 813.75054745 0 29396.91167026 0 9331.36782579 0 8440.51071553 0 831
0.02950000 0.02946900 68476.68211767 0 2949.16907707 0 31918.08003146 0 11888.46588103 0 18686.65187318 0 996
0.03050000 0.03053250 68516.76393351 0 -1013.95589589 0 26773.98864397 0 9858.39941483 0 22405.18144028 0 1041
0.03150000 0.03150510 66279.26853416 0 412.83938149 0 26104.66660868 0 7475.54653526 0 26769.33826754 0 1036
0.03250000 0.03246190 62254.47846258 0 6474.96268605 0 20690.96411185 0 7288.56818605 0 13607.44430912 0 1059
0.03350000 0.03345080 57414.54383786 0 5939.39433457 0 19976.02409831 0 5376.21160499 0 18588.21890554 0 1302
0.03450000 0.03451200 53466.59570052 0 2588.72061492 0 18331.56241625 0 248.45300384 0 10720.68992706 0 1339
0.03550000 0.03553350 51209.83445598 0 2407.82097204 0 17763.77359955 0 -2442.35555315 0 5087.98791764 0 1365
0.03650000 0.03647120 50191.51274241 0 -898.63652568 0 20380.38540069 0 -1676.12853105 0 2342.19530284 0 1308
0.03750000 0.03744890 49386.55472810 0 3071.78400211 0 22028.27950345 0 -3256.29322289 0 6475.57166391 0 1579
0.03850000 0.03847530 47828.34645637 0 2740.04607822 0 19342.35494894 0 917.82597182 0 -522.38121262 0 1662
0.03950000 0.03950240 47330.53473252 0 -612.69373723 0 20820.62103548 0 2956.82005352 0 6681.08508487 0 1683
0.04050000 0.04050350 45126.36703087 0 2001.66595304 0 18228.58979543 0 7786.99996008 0 7307.59044008 0 1822
0.04150000 0.04152450 44912.44971538 0 883.12087691 0 18293.91651186 0 5450.78371265 0 7277.59551215 0 1887
0.04250000 0.04250150 45143.75058084 0 -640.23171629 0 12832.93518806 0 5509.62204673 0 9205.19868448 0 1920
0.04350000 0.04349210 43558.96872955 0 -753.67654192 0 13684.95058285 0 2761.44888210 0 2699.93104540 0 2005
0.04450000 0.04448520 44628.33386053 0 1746.23849180 0 11838.86186584 0 -5745.92760301 0 3186.22755144 0 2151
0.04550000 0.04548030 42883.22474587 0 3140.26633112 0 14908.77464506 0 -4291.02412184 0 793.25678145 0 2274
0.04650000 0.04648670 39845.42170862 0 2904.90192245 0 16635.72514702 0 -5766.52212718 0 3930.12169438 0 2311
0.04750000 0.04749250 39951.93747338 0 227.33586594 0 17709.07631494 0 1453.65230847 0 886.15912284 0 2568
0.04850000 0.04851840 39039.57790832 0 -813.76715594 0 19583.06729050 0 1509.98829714 0 -4741.97776706 0 2493
0.04950000 0.04949480 38807.50198012 0 1420.87822700 0 18213.64215693 0 3796.61160172 0 -4841.30759300 0 2644
0.05050000 0.05050630 37853.28902725 0 1708.55937044 0 16990.15026447 0 1152.08646970 0 -7019.26710181 0 2829
0.05150000 0.05149060 35814.76330489 0 1535.42142725 0 13642.98647179 0 1346.84866326 0 -3508.79759038 0 2784
0.05250000 0.05249300 36440.34965714 0 -691.73131349 0 13703.33064205 0 1249.67794066 0 -5826.56734467 0 3055
0.05350000 0.05348950 35193.16298957 0 457.27704992 0 12720.32964465 0 1223.23722899 0 -5456.12057321 0 3009
0.05450000 0.05448610 35946.85613998 0 1081.42732164 0 11812.62045602 0 1365.76019406 0 -8148.65530563 0 3336
0.05550000 0.05550870 33447.94315166 0 1273.40593274 0 10285.94616538 0 -155.85293691 0 -6442.28825551 0 3349
0.05650000 0.05647670 33131.49610834 0 1588.56858638 0 12318.29353049 0 84.07028005 0 -4130.07680828 0 3324
0.05750000 0.05747970 32896.09848269 0 607.33141033 0 13732.56157957 0 641.42309844 0 -3551.79142765 0 3639
0.05850000 0.05849280 31439.31270631 0 407.81254602 0 15111.61963574 0 -922.30472721 0 832.45059684 0 3846
0.05950000 0.05951020 33283.51912810 0 335.10612510 0 15437.25670865 0 1329.35439005 0 -2057.81371220 0 3787
0.06050000 0.06049470 31912.10097606 0 -828.31619075 0 16914.08339296 0 -583.01879949 0 2202.35184038 0 3930
0.06150000 0.06148310 32978.36585610 0 8.62618253 0 17769.42048520 0 935.90486378 0 1143.71579214 0 4083
0.06250000 0.06249100 33716.11485876 0 -231.02184288 0 16171.35184413 0 2608.57329332 0 2809.75743528 0 4303
0.06350000 0.06350600 32817.04208349 0 52.57040173 0 15400.38586701 0 2806.38037621 0 748.31310778 0 4470
0.06450000 0.06451750 32556.73172700 0 459.56902116 0 14277.87357689 0 1975.80100226 0 227.57945709 0 4479
0.06550000 0.06550280 31972.44514632 0 1541.40048265 0 13677.64284847 0 1476.67167176 0 921.63374432 0 4636
0.06650000 0.06648880 30976.93242188 0 587.19970934 0 12297.25611333 0 939.71706522 0 3919.33725001 0 4653
0.06750000 0.06749660 30548.21200490 0 129.09223506 0 12240.78725676 0 2025.37180048 0 2526.32806457 0 5220
0.06850000 0.06852730 30155.25519709 0 -125.86908131 0 11208.62513716 0 2214.97429067 0 3549.75411988 0 5029
0.06950000 0.06949320 30640.33374739 0 489.59052267 0 11107.09191858 0 1318.51458405 0 3459.73611911 0 5040
0.07050000 0.07048030 29605.62499309 0 388.18795751 0 10205.36178535 0 512.64310294 0 3794.53000465 0 5475
0.07150000 0.07148790 29416.95257818 0 953.65158600 0 10916.07217081 0 715.39840779 0 4943.97018872 0 5509
0.07250000 0.07249820 28632.36764153 0 931.78153002 0 10501.95615026 0 -86.23702330 0 3227.18408094 0 5916
0.07350000 0.07351270 27545.28679084 0 1192.96549294 0 9178.22650122 0 -363.33612446 0 2398.42056827 0 5721
0.07450000 0.07449140 26043.32592919 0 1150.23739146 0 11155.58870128 0 -1185.65775856 0 2203.59194076 0 6028
0.07550000 0.07549160 25448.07774694 0 876.39886851 0 9538.79675894 0 -704.94502593 0 981.42208388 0 6183
0.07650000 0.07648840 25341.67270543 0 393.97767616 0 11465.39234971 0 258.85323854 0 988.23599257 0 6330
0.07750000 0.07749960 24573.47480951 0 511.46390035 0 10448.84220811 0 -267.86832541 0 469.12000854 0 6583
0.07850000 0.07848650 24945.83709316 0 279.02147820 0 12378.52697750 0 -415.92302395 0 567.14440740 0 6549
0.07950000 0.07947320 24605.80599798 0 -123.05228187 0 11249.70346224 0 1014.41096844 0 -133.15245657 0 6828
0.08050000 0.08048110 24716.97213916 0 224.75269256 0 11835.98306139 0 273.03467217 0 256.63655911 0 7147
0.08150000 0.08149960 24969.64259152 0 -29.87955431 0 10916.17182173 0 841.04493536 0 -419.20043210 0 7386
0.08250000 0.08250610 24465.40891928 0 191.05296475 0 10190.32556824 0 662.16709899 0 -615.47178353 0 7227
0.08350000 0.08350160 24339.84875584 0 926.35719809 0 9664.13547589 0 288.56250049 0 -1425.86077317 0 7798
0.08450000 0.08449610 23428.26425352 0 534.48990704 0 9159.95716527 0 637.35734077 0 -2479.13781619 0 7371
0.08550000 0.08548940 22544.02839350 0 858.91456039 0 8561.36514092 0 811.87046670 0 -1252.22457536 0 8256
0.08650000 0.08650700 21913.79166482 0 714.17713036 0 7941.75784407 0 -246.63160641 0 -3366.58465041 0 8037
0.08750000 0.08749060 21500.35105610 0 277.24215560 0 8190.80764622 0 826.68191561 0 -1234.18775824 0 8155
0.08850000 0.08849210 21175.93193891 0 81.21660978 0 7235.65354574 0 261.20610756 0 -2890.45253856 0 8718
0.08950000 0.08949900 21165.30250708 0 356.79459496 0 7871.90254679 0 922.55385452 0 -1530.41673643 0 8571
0.09050000 0.09049190 20653.20748422 0 794.54781452 0 7886.69517275 0 621.26260941 0 -1930.23838563 0 8932
0.09150000 0.09150830 19866.62952910 0 412.78291263 0 7148.70257894 0 1403.40609844 0 -1260.71704850 0 9285
0.09250000 0.09250820 19784.02998596 0 -183.25140468 0 6486.86543523 0 920.16776852 0 -71.71699798 0 9204
0.09350000 0.09350330 20105.34885219 0 -63.42371596 0 6261.20038310 0 1375.59241849 0 -1383.63092631 0 9349
0.09450000 0.09448040 19869.17616381 0 -13.51133653 0 6188.98668063 0 794.18796396 0 34.07164721 0 9564
0.09550000 0.09549270 19872.83003100 0 469.58947512 0 5334.63502530 0 -492.71181103 0 368.62205233 0 10155
0.09650000 0.09649430 19564.46578480 0 383.04596987 0 5326.39721563 0 247.75323291 0 1276.87157041 0 9913
0.09750000 0.09749140 19111.05408348 0 207.27834953 0 5859.20855823 0 173.44021766 0 450.27934063 0 10476
0.09850000 0.09850240 18819.96266400 0 546.54656154 0 5773.74128296 0 591.01412524 0 1476.41700829 0 10575
0.09950000 0.09950330 18586.33661032 0 265.37594509 0 6012.10629165 0 1022.77721708 0 1343.36088095 0 10882
0.10050000 0.10051200 18263.57834186 0 468.45124012 0 5712.59990531 0 542.75096859 0 2300.97303754 0 10875
0.10150000 0.10150300 18129.27104181 0 680.45082896 0 5309.08009962 0 -52.36047045 0 1050.02953015 0 11118
0.10250000 0.10250800 17237.06310792 0 518.14161945 0 5695.81426088 0 -600.29937683 0 2288.93742046 0 11575
0.10350000 0.10349800 16819.52573901 0 574.44328392 0 5560.10077558 0 -136.98126649 0 2621.53898569 0 11364
0.10450000 0.10450100 16573.27723505 0 67.19694282 0 6026.27886742 0 295.70636447 0 2268.01072655 0 12093
0.10550000 0.10551000 16367.66416316 0 -8.16579526 0 5150.95622888 0 1220.05947177 0 1279.17461397 0 12067
0.10650000 0.10649700 16390.14098255 0 208.02019530 0 4895.48447834 0 1006.89618159 0 907.02602619 0 12054
0.10750000 0.10749900 15922.44598221 0 155.37461248 0 4602.53290829 0 504.40307881 0 848.54864989 0 12807
0.10850000 0.10850100 15838.29631358 0 475.76451067 0 4540.32858746 0 -287.08988129 0 863.90928612 0 12736
0.10950000 0.10950300 15159.11990921 0 726.94794981 0 4672.10032513 0 -285.81877840 0 1664.83475973 0 12933
0.11050000 0.11050200 14901.13474093 0 486.25000227 0 4848.67068901 0 -327.51051028 0 1751.84108816 0 13428
0.11150000 0.11150900 14497.99139429 0 82.04692342 0 4843.85422771 0 253.33147015 0 1592.18923660 0 13453
0.11250000 0.11250000 14738.48228935 0 -103.50985001 0 4990.79505038 0 288.50270994 0 920.99265672 0 13668
0.11350000 0.11349100 14781.33218640 0 -66.79734261 0 5055.62351219 0 -100.56571884 0 452.16717201 0 13791
0.11450000 0.11448600 14768.04539661 0 53.14560900 0 4907.03291313 0 -320.21495545 0 115.02706084 0 14205
0.11550000 0.11549300 14894.15917630 0 55.26795223 0 4689.84926181 0 -83.91615329 0 -6.97209900 0 14776
0.11650000 0.11649800 14868.58210597 0 86.45204784 0 5004.41400991 0 109.98738148 0 -560.10683774 0 14553
0.11750000 0.11747300 14414.06317216 0 531.53691801 0 4415.25560631 0 -28.67411031 0 -495.74784250 0 14568
0.11850000 0.11849100 14203.13538437 0 520.15235363 0 4820.59127327 0 187.92946191 0 -669.76935721 0 16015
0.11950000 0.11950300 13644.09370427 0 687.05214902 0 4948.53198655 0 11.61176848 0 218.63301864 0 15270
0.12050000 0.12050700 13191.12489594 0 431.59147080 0 5325.44499570 0 118.63110257 0 366.29464965 0 15999
0.12150000 0.12150000 12985.73327056 0 108.44212783 0 5359.94635983 0 345.44656925 0 1095.70287003 0 15670
0.12250000 0.12250700 13210.72291087 0 -296.08835967 0 5547.93229061 0 531.27118222 0 758.67791104 0 16887
0.12350000 0.12352200 13540.89963696 0 -602.25917833 0 5207.12613269 0 487.89313527 0 661.33335293 0 16407
0.12450000 0.12449800 13636.78596989 0 -104.30240702 0 5245.61353376 0 10.33047906 0 -216.17053360 0 16306
0.12550000 0.12549900 13742.30522541 0 151.70856574 0 4901.68498024 0 -39.27663638 0 -336.18235507 0 17523
0.12650000 0.12650100 13569.13406525 0 383.21537644 0 4894.34402889 0 245.24313687 0 -326.50292872 0 17154
0.12750000 0.12750600 13240.50746463 0 118.75179091 0 3924.28657920 0 360.85149477 0 -295.36865856 0 18007
0.12850000 0.12850300 13322.66411479 0 -42.46136917 0 4090.07249871 0 683.79799276 0 -334.70309248 0 17496
0.12950000 0.12949900 13355.10602651 0 -95.18700489 0 4112.54931809 0 363.39591501 0 -374.68747186 0 18405
0.13050000 0.13049000 13382.89756180 0 187.15882811 0 3839.68294526 0 -109.27532027 0 -298.00165740 0 18100
0.13150000 0.13148800 13116.49742666 0 571.82357186 0 4248.42888826 0 -548.51632812 0 -36.11404824 0 19059
0.13250000 0.13249300 12697.40993228 0 388.19127921 0 4692.58412604 0 -624.73489047 0 912.81353037 0 18957
0.13350000 0.13349100 12561.99539975 0 301.86479153 0 5027.80983225 0 -322.78705651 0 291.02830723 0 19468
0.13450000 0.13450700 12441.41778247 0 185.19681215 0 5291.90692382 0 -104.27860153 0 -45.34139158 0 19953
0.13550000 0.13551000 12105.15127773 0 315.96207549 0 5169.66845783 0 410.19641756 0 148.49426984 0 19956
0.13650000 0.13649900 11941.83448665 0 65.15996722 0 5344.91014273 0 315.56015010 0 149.72551236 0 19723
0.13750000 0.13749600 11912.93571888 0 0.41425996 0 4921.74803281 0 749.81340779 0 111.95781240 0 20946
0.13850000 0.13851100 11831.55413146 0 228.51285407 0 5012.48573470 0 314.34551607 0 407.44494484 0 20955
0.13950000 0.13949800 11612.87571629 0 228.76862478 0 4288.00137717 0 489.60491669 0 681.47501901 0 20506
0.14050000 0.14048300 11620.95851341 0 178.06844943 0 4792.09110919 0 23.99915332 0 680.21720291 0 21447
0.14150000 0.14148400 11255.79324089 0 246.33597533 0 4389.72282528 0 213.80769948 0 908.80424156 0 21771
0.14250000 0.14249400 11297.20373571 0 104.46439514 0 4458.86949377 0 146.04285713 0 698.91282337 0 22470
0.14350000 0.14350900 10955.71109366 0 17.36428412 0 3874.14002010 0 460.30533076 0 773.45282128 0 22519
0.14450000 0.14449900 11074.42856036 0 57.59159031 0 3673.25483091 0 349.22776817 0 -116.49082218 0 22218
0.14550000 0.14550500 10839.45168306 0 215.96901729 0 3540.71910283 0 148.70132231 0 -169.73873947 0 23559
0.14650000 0.14650700 10633.89397280 0 194.09010344 0 3506.22881102 0 -195.62140597 0 -281.93239239 0 23044
0.14750000 0.14750500 10476.63374340 0 178.67189113 0 3381.58765054 0 94.05873499 0 -134.52763931 0 23649
0.14850000 0.14849900 10486.34417227 0 166.04611914 0 3692.87499049 0 -1.15833126 0 3.51273934 0 23640
0.14950000 0.14949500 10369.49792846 0 159.82457983 0 3471.48385574 0 275.39972075 0 -61.27911737 0 24457
0.15050000 0.15050000 10155.89063806 0 98.19203385 0 3512.78362731 0 287.05444985 0 739.99004121 0 24591
0.15150000 0.15149900 10232.37825790 0 15.71306832 0 3258.07586719 0 451.49951083 0 464.71654496 0 25020
0.15250000 0.15250500 10117.37002001 0 -1.92874362 0 3161.76878591 0 582.32235026 0 506.28758850 0 25297
0.15350000 0.15350100 10105.83265755 0 144.19267165 0 2968.18025878 0 251.01624703 0 608.01014384 0 25452
0.15450000 0.15450400 9777.67109458 0 169.32463452 0 2511.22541352 0 291.57749454 0 679.61929737 0 26061
0.15550000 0.15549900 9683.25738085 0 180.00942797 0 2551.45116958 0 211.59212728 0 647.23828344 0 26128
0.15650000 0.15649500 9554.28694136 0 156.91145117 0 2069.20713443 0 275.67985057 0 268.76518372 0 26331
0.15750000 0.15749700 9451.92329841 0 4.19327764 0 2119.22082564 0 81.62595363 0 364.71684336 0 27345
0.15850000 0.15849900 9433.74254106 0 127.22101217 0 1982.52190343 0 -275.50269337 0 118.22364102 0 26980
0.15950000 0.15949700 9492.56980282 0 22.42477946 0 2116.80705883 0 -156.14635352 0 321.53809827 0 27777
0.16050000 0.16050000 9396.82741011 0 115.49099125 0 2193.10644915 0 -245.86983046 0 52.59420723 0 28224
0.16150000 0.16150500 9270.02714629 0 270.59654624 0 2306.08845160 0 -136.95801461 0 141.20314395 0 28075
0.16250000 0.16249700 9130.54907055 0 273.51853276 0 2479.12674387 0 -79.01565305 0 36.25300592 0 28590
0.16350000 0.16349900 8893.71204268 0 145.60660753 0 2270.66808451 0 119.70843978 0 224.15035809 0 29163
0.16450000 0.16449100 8812.92836080 0 -67.10105648 0 2341.38702313 0 484.19719325 0 239.53313896 0 28996
0.16550000 0.16550500 8892.47194230 0 -137.71203993 0 2013.03723063 0 481.97054873 0 114.27414276 0 30777
0.16650000 0.16650700 8905.91374463 0 -21.43181337 0 2046.34278368 0 508.38025789 0 366.59803135 0 29211
0.16750000 0.16749900 8868.01317678 0 158.07847420 0 1772.10344257 0 433.85133230 0 430.09227802 0 30922
0.16850000 0.16850800 8809.30771059 0 150.45960750 0 1910.45214118 0 -223.75396887 0 396.06480939 0 30867
0.16950000 0.16949900 8630.36786919 0 221.26158855 0 1947.88767140 0 -382.98839378 0 265.26743631 0 30852
0.17050000 0.17049200 8509.95633679 0 223.35536517 0 2192.88500266 0 -361.33314090 0 586.68927517 0 31257
0.17150000 0.17149500 8432.71579886 0 164.81487662 0 2263.72573685 0 -370.05924009 0 494.01170197 0 32608
0.17250000 0.17250900 8366.96833408 0 97.80749201 0 2420.39913303 0 -251.03617722 0 283.18799403 0 32361
0.17350000 0.17350400 8280.63741747 0 183.82495110 0 2633.71854299 0 110.02159496 0 463.24060407 0 32508
0.17450000 0.17449800 8176.61292580 0 225.63515685 0 2443.76173840 0 162.42104000 0 328.97980778 0 32791
0.17550000 0.17549800 8035.48507366 0 74.88877614 0 2168.40409248 0 392.72096730 0 366.50723829 0 33633
0.17650000 0.17650100 7992.29193454 0 63.06707638 0 2257.20413753 0 252.38700085 0 277.19565183 0 33984
0.17750000 0.17750300 7896.00699792 0 31.18885672 0 2134.72208039 0 305.85415016 0 507.74913537 0 34069
0.17850000 0.17849800 7731.23973229 0 76.90560011 0 1926.00875755 0 226.08137154 0 703.52776835 0 34536
