### header ###
fiducial parameters:
Omega_m = 0.31
Omega_nu = 0
Omega_de = 0.69
Omega_k = 0
H_0 = 100
w_de = -1
zeff = 0
beta = 0
fgrowth = 0
b_1 = 2
gamma = 0.55
Lx = 3500 Ly = 3500 Lz = 3500
nx = 700 ny = 700 nz = 700
xoffset = -685.467585 yoffset = -31.7331281 zoffset = 572.489161
bins = 400 dk = 0.001
kx_ny = 0.628318531 ky_ny = 0.628318531 kz_ny = 0.628318531
############################
A(data) = 8.01256034 (not used)
A(ran) = 8.00732482 (used)
Ngal = 475774
weighted Ngal = 0
Nran = 23820508
weighted Nran = 0
SN(data) = 3490.27107
SN(ran) = 69.7467032
SN(data+ran) = 3560.01777
############################
13 columns: k_central k_mean P_0(k) sigma^{lin}_{P_0(k)} P^img_1(k) sigma^{lin}_{P_1(k)} P_2(k) sigma^{lin}_{P_2(k)} P^img_3(k) sigma^{lin}_{P_3(k)} P_4(k) sigma^{lin}_{P_4(k)} N_modes
### header ###
0.00050000 0 0 0 0 0 0 0 0 0 0 0 0
0.00150000 0.00179520 33849.86854257 0 -65998.58510001 0 -33228.71112025 0 30092.58583861 0 -28223.79885572 0 3
0.00250000 0.00253879 57775.28018045 0 -59954.09225826 0 -14492.67667837 0 8582.81223410 0 90156.51555908 0 6
0.00350000 0.00331552 86674.15868036 0 -41611.34679395 0 -2616.54536719 0 -98240.53063242 0 -58964.78003572 0 7
0.00450000 0.00420575 103317.52373151 0 -8140.97111221 0 -12737.93464112 0 -59999.71023651 0 14933.35520616 0 24
0.00550000 0.00557378 77856.04847155 0 31979.30998771 0 -24729.70531270 0 -60095.81801594 0 15830.21351647 0 45
0.00650000 0.00659388 67392.25862493 0 30165.44173592 0 -2276.03816205 0 -63734.18395135 0 -10156.68784544 0 40
0.00750000 0.00754703 47156.03489338 0 11373.27060722 0 4329.66653546 0 -34233.63532079 0 661.73970725 0 57
0.00850000 0.00846663 47272.07285748 0 -5452.74351414 0 12730.18401374 0 -9414.45455123 0 -5607.55675975 0 75
0.00950000 0.00948925 56942.08773785 0 -14892.60905082 0 9646.12080341 0 3514.94273065 0 -24889.58968308 0 112
0.01050000 0.01054430 65409.31597316 0 -17708.96559169 0 7645.63958912 0 16881.19858825 0 -20484.79742373 0 105
0.01150000 0.01145670 78993.61912341 0 -100.47769386 0 3006.42406871 0 -1001.36998427 0 -34248.58295929 0 144
0.01250000 0.01249090 77550.12013681 0 666.53845283 0 16155.85058938 0 -20207.87858002 0 -30093.25017810 0 169
0.01350000 0.01339930 76336.03972044 0 -2080.01372346 0 18779.10578542 0 -29355.16900569 0 -43997.10062262 0 180
0.01450000 0.01448870 86547.04839145 0 -6846.83778741 0 43196.68226148 0 -38237.38797521 0 -32128.01131003 0 267
0.01550000 0.01550050 94824.71842587 0 -1527.99189730 0 46424.70783911 0 -17360.07663666 0 -31865.37576533 0 238
0.01650000 0.01653350 97987.97090330 0 -942.35338576 0 65094.64050181 0 -6031.99218703 0 -31343.97998962 0 315
0.01750000 0.01747870 88826.84007160 0 14703.71518942 0 35854.18078124 0 16786.75165755 0 -48266.03545645 0 297
0.01850000 0.01844180 89995.08106322 0 10939.43477617 0 53282.57366203 0 17473.01434981 0 -18033.38470888 0 388
0.01950000 0.01947590 72211.37727900 0 10920.27965424 0 26761.14474718 0 26909.07100676 0 -29538.19453494 0 399
0.02050000 0.02045430 70087.92682528 0 5359.62526241 0 24468.95206322 0 22560.08326449 0 -1883.95606789 0 462
0.02150000 0.02154770 69450.60380872 0 -1382.26903036 0 17924.43303267 0 15191.11892793 0 -6658.59719316 0 571
0.02250000 0.02255340 72264.19226838 0 -5469.41843532 0 16314.62772728 0 1877.82199994 0 15221.34637469 0 510
0.02350000 0.02348930 72696.67727580 0 -1052.41893785 0 20921.48991458 0 1624.46506344 0 6237.73812681 0 555
0.02450000 0.02439640 72985.22206057 0 1661.23625417 0 19920.55175097 0 -6992.40564180 0 18480.48518506 0 592
0.02550000 0.02547300 71692.30669150 0 6247.57035125 0 29807.69492103 0 1243.17848599 0 8439.14881958 0 837
0.02650000 0.02652900 65330.70246695 0 4149.77447413 0 22871.43703839 0 2891.36046919 0 11654.83982736 0 723
0.02750000 0.02749970 61460.48204984 0 2708.11349344 0 26392.21488422 0 5187.81599820 0 119.01531224 0 826
0.02850000 0.02848090 61330.82512621 0 485.95215673 0 20877.20061530 0 4792.85509960 0 2936.52448213 0 831
0.02950000 0.02946900 60643.23375497 0 2100.13213765 0 22598.28278511 0 585.66840682 0 -3417.40662133 0 996
0.03050000 0.03053250 58051.42396143 0 -58.16779410 0 13781.83342502 0 334.41410480 0 -6164.90437415 0 1041
0.03150000 0.03150510 58622.42375232 0 -719.52727771 0 20768.24893909 0 -4352.03263159 0 -4430.35825736 0 1036
0.03250000 0.03246190 59772.83830098 0 73.42213600 0 19180.14539035 0 3389.79224323 0 -8056.46712919 0 1059
0.03350000 0.03345080 60170.22403872 0 -606.45891113 0 20461.10264862 0 806.33873322 0 -8301.53089440 0 1302
0.03450000 0.03451200 58338.19717423 0 2210.96610909 0 14517.70013246 0 4800.96004137 0 -10116.87176540 0 1339
0.03550000 0.03553350 56920.16453470 0 3136.70104252 0 14869.57861520 0 3467.96285645 0 -10548.94709679 0 1365
0.03650000 0.03647120 52620.44863788 0 4938.04649494 0 13997.07941949 0 1867.58009949 0 -2305.33553352 0 1308
0.03750000 0.03744890 49821.58637022 0 4666.61952434 0 13983.46045996 0 1679.53880709 0 -2795.65129346 0 1579
0.03850000 0.03847530 45112.96951784 0 4241.54190223 0 8916.95285247 0 5492.60388349 0 1474.45720680 0 1662
0.03950000 0.03950240 42385.19157552 0 -78.98442909 0 8637.78632682 0 10228.22613610 0 4595.65699458 0 1683
0.04050000 0.04050350 42399.80704428 0 -1393.28599355 0 4184.92910543 0 6161.91484645 0 724.96711090 0 1822
0.04150000 0.04152450 42273.91471110 0 -1182.84538805 0 8771.29641948 0 3214.08552068 0 1014.65234513 0 1887
0.04250000 0.04250150 43358.33820383 0 1569.67920024 0 5254.62640616 0 -2143.73495279 0 7120.85568202 0 1920
0.04350000 0.04349210 42361.27535391 0 1496.19218042 0 8617.23609196 0 -2381.62385152 0 11387.66462948 0 2005
0.04450000 0.04448520 43102.67822377 0 -1566.80039579 0 7198.76055944 0 -546.44248168 0 12366.67958995 0 2151
0.04550000 0.04548030 45456.21158722 0 -800.06072505 0 12936.79359486 0 327.74635079 0 11906.95666348 0 2274
0.04650000 0.04648670 46000.63779856 0 541.14437426 0 13877.83048119 0 -942.23934081 0 10511.74408540 0 2311
0.04750000 0.04749250 44045.15451233 0 2476.30330104 0 14330.35639653 0 -1038.33936961 0 8762.13960686 0 2568
0.04850000 0.04851840 42107.71911557 0 3777.75543255 0 15728.79102113 0 -646.77213856 0 6176.85141263 0 2493
0.04950000 0.04949480 39570.05299038 0 2168.20479064 0 15135.86802709 0 -1258.08183519 0 5256.08795304 0 2644
0.05050000 0.05050630 38384.42844880 0 1516.45453484 0 17041.30440513 0 -2197.35822188 0 2433.66377816 0 2829
0.05150000 0.05149060 37202.12560467 0 145.06738531 0 13971.39162591 0 349.15911976 0 1300.51098390 0 2784
0.05250000 0.05249300 38220.77948798 0 -12.78897806 0 14586.12709984 0 118.50709253 0 -1468.54458535 0 3055
0.05350000 0.05348950 36302.38848990 0 859.45046091 0 14210.88601174 0 -1894.07617278 0 -4941.88859166 0 3009
0.05450000 0.05448610 36277.25431256 0 1743.62542314 0 16370.76441411 0 449.15549966 0 -4420.48174362 0 3336
0.05550000 0.05550870 34770.97524424 0 1163.36916870 0 16017.66797565 0 929.19171325 0 -3897.82372288 0 3349
0.05650000 0.05647670 33893.16133261 0 35.36190522 0 15397.39633931 0 2490.76375725 0 -1266.85111645 0 3324
0.05750000 0.05747970 34024.92199796 0 -532.05067388 0 14625.76602269 0 3616.33200902 0 -3278.14999208 0 3639
0.05850000 0.05849280 35315.06928582 0 96.52874922 0 14916.52527243 0 1468.85461044 0 -3298.09124908 0 3846
0.05950000 0.05951020 33631.07940416 0 729.30414053 0 13144.06751546 0 755.24770481 0 -1535.62072910 0 3787
0.06050000 0.06049470 33598.85893893 0 1340.43778719 0 12207.01666606 0 1388.36988133 0 1664.00433537 0 3930
0.06150000 0.06148310 33133.37840356 0 -1103.96725328 0 11957.22501815 0 3009.17000526 0 1252.32422629 0 4083
0.06250000 0.06249100 34226.32758641 0 -1642.82297799 0 10557.05203856 0 4647.50869170 0 1939.01873922 0 4303
0.06350000 0.06350600 35148.32007406 0 -396.31836563 0 8434.32128595 0 2891.91408543 0 210.07964771 0 4470
0.06450000 0.06451750 34306.82338784 0 851.81166402 0 8814.37883535 0 1074.05979671 0 2942.73605635 0 4479
0.06550000 0.06550280 33955.27707485 0 1592.90893771 0 7665.45905055 0 -1281.82089961 0 2363.48738346 0 4636
0.06650000 0.06648880 32491.18356408 0 2132.19759033 0 8568.22998231 0 -1068.04309540 0 288.07088927 0 4653
0.06750000 0.06749660 30645.20557031 0 1739.87190503 0 8593.27558105 0 -1293.91187831 0 -35.91972894 0 5220
0.06850000 0.06852730 29955.17828761 0 1334.92376944 0 9216.22672000 0 -958.98401764 0 734.26786374 0 5029
0.06950000 0.06949320 28410.25680567 0 776.03267296 0 10690.73928842 0 733.20159886 0 765.16850785 0 5040
0.07050000 0.07048030 28442.25582439 0 14.48614401 0 10778.42102866 0 1880.21362210 0 1135.97623709 0 5475
0.07150000 0.07148790 28400.73460632 0 -335.71842466 0 10588.17634363 0 2303.48645527 0 2825.20332840 0 5509
0.07250000 0.07249820 29017.35237547 0 -452.63774582 0 10024.53964873 0 1157.05794355 0 2572.90933508 0 5916
0.07350000 0.07351270 28841.19168761 0 -225.20997958 0 10983.33654408 0 509.27047280 0 4713.09007160 0 5721
0.07450000 0.07449140 29197.49910027 0 1187.26324565 0 12464.44821809 0 -613.44444086 0 5653.61763100 0 6028
0.07550000 0.07549160 28327.65726252 0 982.97995998 0 11393.53296164 0 -1.98619792 0 5199.58587949 0 6183
0.07650000 0.07648840 26916.71091088 0 1294.58729012 0 11721.16305302 0 -369.33953898 0 5026.07147725 0 6330
0.07750000 0.07749960 26634.25590476 0 647.80740093 0 11067.33120015 0 -26.84175127 0 2872.69252955 0 6583
0.07850000 0.07848650 25571.64489191 0 594.07340859 0 11238.85258392 0 499.29209367 0 -158.38517760 0 6549
0.07950000 0.07947320 24954.03061353 0 874.84874304 0 9400.51449428 0 -14.32659181 0 -589.60683276 0 6828
0.08050000 0.08048110 24318.81133868 0 468.97717555 0 9853.54973656 0 808.80675442 0 -302.55459737 0 7147
0.08150000 0.08149960 23596.56359076 0 101.47984998 0 8031.83120647 0 1770.94084847 0 -899.84673078 0 7386
0.08250000 0.08250610 24042.99972745 0 -227.38458417 0 8338.95535229 0 1430.51114959 0 -724.35924026 0 7227
0.08350000 0.08350160 23536.99448324 0 606.48769917 0 6985.49651111 0 1117.58510557 0 -1556.87959275 0 7798
0.08450000 0.08449610 23107.60972677 0 897.76624095 0 7046.68217806 0 187.82759653 0 -188.64694856 0 7371
0.08550000 0.08548940 22613.78403986 0 66.70034905 0 6532.81558322 0 163.05326974 0 -363.58414453 0 8256
0.08650000 0.08650700 22827.59063211 0 -265.06481276 0 7002.64754225 0 499.41278202 0 1280.10468926 0 8037
0.08750000 0.08749060 22843.75622634 0 -28.33297198 0 6504.91332468 0 -642.01657505 0 -1606.95971790 0 8155
0.08850000 0.08849210 22747.98061666 0 582.71098886 0 7444.15649440 0 -303.73712166 0 -426.19260522 0 8718
0.08950000 0.08949900 22070.13289126 0 936.28021559 0 7743.21998775 0 -1091.79323214 0 -1838.93599518 0 8571
0.09050000 0.09049190 21201.06611625 0 1106.74087064 0 7949.66348399 0 -977.36075514 0 -1046.04127875 0 8932
0.09150000 0.09150830 20764.37362540 0 536.44860130 0 9021.88527478 0 8.77405343 0 -1315.73543052 0 9285
0.09250000 0.09250820 19937.71385444 0 484.00564203 0 8684.48939291 0 665.29945968 0 -1169.41465805 0 9204
0.09350000 0.09350330 20143.54837282 0 -127.10475276 0 8099.30595392 0 501.19985524 0 -1469.38608203 0 9349
0.09450000 0.09448040 19945.24303532 0 286.02250918 0 7959.78358888 0 763.37036230 0 -1593.75043440 0 9564
0.09550000 0.09549270 19776.39008183 0 814.80684724 0 7538.32661698 0 567.74784910 0 -662.39851058 0 10155
0.09650000 0.09649430 18867.13076773 0 444.85390147 0 6893.72908301 0 389.80673140 0 -220.81426663 0 9913
0.09750000 0.09749140 18541.82586455 0 384.71456922 0 7002.27108321 0 246.99477866 0 168.64479378 0 10476
0.09850000 0.09850240 18423.35198899 0 432.30009959 0 7522.53748179 0 812.22588833 0 -274.73759573 0 10575
0.09950000 0.09950330 17865.97115762 0 348.75276544 0 7940.36273114 0 146.40824384 0 129.29928753 0 10882
0.10050000 0.10051200 17561.48222511 0 433.70185591 0 7538.28232768 0 653.03464548 0 482.57509766 0 10875
0.10150000 0.10150300 17307.81526352 0 125.60777444 0 7220.48446074 0 62.84097951 0 1114.05303395 0 11118
0.10250000 0.10250800 17501.13805485 0 -112.70076540 0 6944.65070485 0 670.05723766 0 626.88070702 0 11575
0.10350000 0.10349800 17353.43324177 0 117.61023422 0 6734.14366540 0 683.33849128 0 1229.89169621 0 11364
0.10450000 0.10450100 17077.73235378 0 331.52754972 0 6123.01776936 0 710.24977675 0 456.96813206 0 12093
0.10550000 0.10551000 16552.01837139 0 474.43250999 0 6239.66471133 0 827.79579149 0 994.81848968 0 12067
0.10650000 0.10649700 16327.47162407 0 603.72072520 0 5944.21079586 0 148.97813043 0 621.16185126 0 12054
0.10750000 0.10749900 15700.66731609 0 423.47434948 0 5627.67517395 0 396.59185205 0 1415.81817456 0 12807
0.10850000 0.10850100 15702.66033456 0 -16.83425193 0 5727.81327961 0 368.26773793 0 1168.93854808 0 12736
0.10950000 0.10950300 15570.23532973 0 109.46941812 0 5565.37120219 0 -26.69482152 0 1217.67892193 0 12933
0.11050000 0.11050200 15480.77094519 0 41.69372489 0 5334.36928950 0 860.15023184 0 917.83704414 0 13428
0.11150000 0.11150900 15408.80083387 0 -11.13499418 0 4460.64106574 0 315.82920759 0 383.30949120 0 13453
0.11250000 0.11250000 15188.24012348 0 129.91601603 0 4071.69243951 0 530.69985026 0 -243.24347501 0 13668
0.11350000 0.11349100 15219.68552597 0 156.86716187 0 4261.58281015 0 6.57521151 0 -1090.81333139 0 13791
0.11450000 0.11448600 14681.57053978 0 541.65148673 0 3898.93095536 0 -203.92011342 0 -465.18047537 0 14205
0.11550000 0.11549300 14610.70766094 0 386.96557285 0 4117.52079193 0 -563.66548294 0 -966.20538788 0 14776
0.11650000 0.11649800 14207.45359105 0 101.80880875 0 4490.84636784 0 -36.09600036 0 -395.30081898 0 14553
0.11750000 0.11747300 14376.74943752 0 204.99412892 0 4430.24753411 0 266.39570621 0 -195.14861770 0 14568
0.11850000 0.11849100 14152.09196695 0 174.24849737 0 4593.43145729 0 472.14386045 0 265.87862864 0 16015
0.11950000 0.11950300 14230.15185692 0 -4.31366703 0 5028.87277543 0 647.08327089 0 1550.72338015 0 15270
0.12050000 0.12050700 14056.86997351 0 173.44686105 0 4558.40969389 0 800.14266025 0 1200.80469891 0 15999
0.12150000 0.12150000 14071.04254928 0 149.66018564 0 4734.90255150 0 302.17260216 0 2536.18243366 0 15670
0.12250000 0.12250700 13848.26737393 0 78.48108121 0 4749.25228446 0 583.71857042 0 2591.73228728 0 16887
0.12350000 0.12352200 13651.62288515 0 169.15965688 0 4692.36267954 0 360.20819270 0 2881.43966615 0 16407
0.12450000 0.12449800 13701.78051658 0 353.87260844 0 4473.39638393 0 378.18854097 0 2414.55294553 0 16306
0.12550000 0.12549900 13350.12348034 0 27.86273034 0 4282.06661106 0 65.26172188 0 3046.71625872 0 17523
0.12650000 0.12650100 13404.93148819 0 26.71165146 0 4109.96946641 0 160.30954765 0 2206.40431126 0 17154
0.12750000 0.12750600 13353.33445454 0 110.25278510 0 4450.63168410 0 -165.63865759 0 2340.57874341 0 18007
0.12850000 0.12850300 13367.50703030 0 247.08335726 0 4380.53279568 0 149.58267937 0 1622.22845383 0 17496
0.12950000 0.12949900 12915.20256146 0 198.21232997 0 3963.72620020 0 -93.37645834 0 2059.86209229 0 18405
0.13050000 0.13049000 12964.47440690 0 116.21179960 0 4060.88585049 0 361.90225839 0 1774.51720939 0 18100
0.13150000 0.13148800 12858.95515138 0 -22.53384185 0 3820.73819750 0 408.64407762 0 1670.80274281 0 19059
0.13250000 0.13249300 12778.79151970 0 -39.45002899 0 3551.53676418 0 405.16958209 0 1556.28168721 0 18957
0.13350000 0.13349100 12678.25481034 0 220.56956825 0 3572.89527875 0 400.36197865 0 1120.34211445 0 19468
0.13450000 0.13450700 12377.97336126 0 403.77336193 0 3527.34373445 0 -432.49275804 0 985.83772702 0 19953
0.13550000 0.13551000 11985.90233943 0 545.77924943 0 3711.62043641 0 -882.42664214 0 659.90834473 0 19956
0.13650000 0.13649900 11615.09018126 0 397.16429124 0 3831.06867655 0 -550.66325190 0 659.78433469 0 19723
0.13750000 0.13749600 11411.91302083 0 270.79363362 0 3642.85022696 0 16.02408992 0 773.59897596 0 20946
0.13850000 0.13851100 11390.21126419 0 -43.60591539 0 3654.13292595 0 342.99183484 0 314.50385031 0 20955
0.13950000 0.13949800 11430.40380328 0 -101.27479053 0 3541.29486372 0 582.59030052 0 -329.73494033 0 20506
0.14050000 0.14048300 11387.99679923 0 -10.37951838 0 3172.97397863 0 405.83945774 0 -71.77136309 0 21447
0.14150000 0.14148400 11134.44056088 0 307.20386656 0 3137.97435988 0 131.24358777 0 -92.97752248 0 21771
0.14250000 0.14249400 11003.02313761 0 222.14294560 0 2777.27123426 0 471.50166561 0 38.65935427 0 22470
0.14350000 0.14350900 10855.61727730 0 94.47283994 0 2782.94026457 0 214.43107137 0 407.92216204 0 22519
0.14450000 0.14449900 10814.93755591 0 93.82743413 0 2732.64976524 0 297.73259991 0 195.84174523 0 22218
0.14550000 0.14550500 10606.62283677 0 164.92781434 0 2607.65429036 0 108.21104841 0 526.92861642 0 23559
0.14650000 0.14650700 10579.24097750 0 168.21629481 0 2258.08992351 0 -9.12255485 0 594.58494999 0 23044
0.14750000 0.14750500 10347.26470022 0 59.01549128 0 2462.14179760 0 298.88079999 0 755.76367515 0 23649
0.14850000 0.14849900 10433.03092827 0 157.17054357 0 2616.16890815 0 108.27560006 0 574.47650089 0 23640
0.14950000 0.14949500 10267.42216595 0 118.18599511 0 2408.80640895 0 -43.28193916 0 450.26162491 0 24457
0.15050000 0.15050000 10119.48483405 0 272.87965962 0 2544.06592893 0 18.69085936 0 794.13813850 0 24591
0.15150000 0.15149900 10013.11300952 0 82.49070219 0 2315.07917936 0 -2.59879643 0 772.44634695 0 25020
0.15250000 0.15250500 9956.26769390 0 52.64436486 0 2443.44064098 0 377.23410657 0 888.31379725 0 25297
0.15350000 0.15350100 9918.24533047 0 59.85333410 0 2393.61517929 0 280.84951902 0 525.42278025 0 25452
0.15450000 0.15450400 9929.77162061 0 39.22193910 0 2206.45967289 0 -52.32160659 0 58.16635469 0 26061
0.15550000 0.15549900 9785.18920313 0 195.15415386 0 2212.12870319 0 -231.91537949 0 -75.71023192 0 26128
0.15650000 0.15649500 9549.62549261 0 340.25807784 0 2620.27674066 0 -599.31061823 0 204.40286678 0 26331
0.15750000 0.15749700 9493.82097553 0 174.69139036 0 2640.74946925 0 -172.04289026 0 381.99742071 0 27345
0.15850000 0.15849900 9452.67621650 0 -76.30105117 0 2618.25050522 0 367.37420132 0 370.07474134 0 26980
0.15950000 0.15949700 9415.41784348 0 33.73106250 0 2456.55027356 0 444.80407601 0 59.41597727 0 27777
0.16050000 0.16050000 9476.34884696 0 208.78750741 0 2535.67310672 0 281.17061644 0 207.80317773 0 28224
0.16150000 0.16150500 9142.93900202 0 405.00903338 0 2350.84278852 0 138.50481839 0 550.10520673 0 28075
0.16250000 0.16249700 8810.42601539 0 221.31805741 0 2287.84126030 0 -302.27778925 0 525.95757354 0 28590
0.16350000 0.16349900 8673.92639503 0 157.44181553 0 2285.60465069 0 194.20082669 0 502.13768115 0 29163
0.16450000 0.16449100 8610.13873175 0 81.65950277 0 2185.12330296 0 -12.68855207 0 444.61695372 0 28996
0.16550000 0.16550500 8486.25048935 0 117.87929172 0 2075.34120238 0 131.24690947 0 309.04519418 0 30777
0.16650000 0.16650700 8387.35248407 0 164.68754489 0 1966.21236897 0 272.11124028 0 769.40477932 0 29211
0.16750000 0.16749900 8339.11036484 0 32.89975235 0 1941.51001230 0 270.72277075 0 566.99714548 0 30922
0.16850000 0.16850800 8318.96980599 0 -35.39534364 0 1972.25785832 0 321.82930041 0 527.43572890 0 30867
0.16950000 0.16949900 8362.31795766 0 100.63326003 0 2067.64593663 0 -97.40102696 0 378.61593271 0 30852
0.17050000 0.17049200 8285.97427803 0 163.79290104 0 2312.74291882 0 -289.93989770 0 525.99854114 0 31257
0.17150000 0.17149500 8182.08265426 0 255.94121711 0 2550.91969799 0 -527.40251192 0 868.28506888 0 32608
0.17250000 0.17250900 7988.74879060 0 186.29961570 0 2754.92728278 0 -65.20669243 0 575.39661108 0 32361
0.17350000 0.17350400 8020.67030305 0 -25.17005167 0 2740.81006863 0 69.56575599 0 583.58570252 0 32508
0.17450000 0.17449800 7970.26908048 0 12.36645814 0 2640.52802275 0 384.27721239 0 131.25798180 0 32791
0.17550000 0.17549800 7932.02527056 0 8.00335319 0 2444.01640187 0 128.60062384 0 278.66162764 0 33633
0.17650000 0.17650100 7996.68764750 0 2.14108867 0 2353.23441068 0 89.45774114 0 175.97024388 0 33984
0.17750000 0.17750300 7986.82220608 0 -7.84579400 0 2291.18510240 0 148.75225501 0 393.37644892 0 34069
0.17850000 0.17849800 8026.45005661 0 58.38337226 0 2409.06107242 0 -105.00406025 0 170.22149283 0 34536
