### header ###
fiducial parameters:
Omega_m = 0.31
Omega_nu = 0
Omega_de = 0.69
Omega_k = 0
H_0 = 100
w_de = -1
zeff = 0
beta = 0
fgrowth = 0
b_1 = 2
gamma = 0.55
Lx = 3500 Ly = 3500 Lz = 3500
nx = 700 ny = 700 nz = 700
xoffset = -685.467585 yoffset = -31.7331281 zoffset = 572.489161
bins = 400 dk = 0.001
kx_ny = 0.628318531 ky_ny = 0.628318531 kz_ny = 0.628318531
############################
A(data) = 8.05597001 (not used)
A(ran) = 8.05988735 (used)
Ngal = 479041
weighted Ngal = 0
Nran = 23820508
weighted Nran = 0
SN(data) = 3485.6714
SN(ran) = 70.2045419
SN(data+ran) = 3555.87595
############################
13 columns: k_central k_mean P_0(k) sigma^{lin}_{P_0(k)} P^img_1(k) sigma^{lin}_{P_1(k)} P_2(k) sigma^{lin}_{P_2(k)} P^img_3(k) sigma^{lin}_{P_3(k)} P_4(k) sigma^{lin}_{P_4(k)} N_modes
### header ###
0.00050000 0 0 0 0 0 0 0 0 0 0 0 0
0.00150000 0.00179520 23807.93427155 0 -36188.01137453 0 -36868.73790438 0 -16604.05829804 0 65847.44786623 0 3
0.00250000 0.00253879 45708.88203958 0 -37005.48111589 0 -5256.51977370 0 -2800.05807874 0 2511.86760836 0 6
0.00350000 0.00331552 73974.20211338 0 -31158.85071865 0 6483.68767800 0 -65138.59763134 0 -60599.71951844 0 7
0.00450000 0.00420575 95272.92613452 0 -12757.64337929 0 11067.82945477 0 -22094.15983612 0 22341.51557257 0 24
0.00550000 0.00557378 74061.67347944 0 32924.66508073 0 14276.87706766 0 -11604.79291918 0 50141.57655748 0 45
0.00650000 0.00659388 70864.53968806 0 27682.03000235 0 38749.81516782 0 25134.84167782 0 45401.62502587 0 40
0.00750000 0.00754703 58989.69276656 0 -11284.02766918 0 38362.39452241 0 30310.82136079 0 -18780.87735739 0 57
0.00850000 0.00846663 67056.21356669 0 -10077.13319162 0 49857.90359563 0 17947.90636128 0 -11443.46914657 0 75
0.00950000 0.00948925 76157.99673736 0 5941.33199141 0 39625.74678422 0 -5360.56641002 0 -18271.21824599 0 112
0.01050000 0.01054430 73952.50035673 0 -6328.57547962 0 32226.22283117 0 -5694.16448449 0 -3215.34776571 0 105
0.01150000 0.01145670 80213.01425569 0 -19101.64260738 0 40272.92416987 0 7181.37700948 0 13581.86723879 0 144
0.01250000 0.01249090 105776.02273424 0 -24364.54004018 0 25150.89654880 0 23384.52857048 0 -30006.99676777 0 169
0.01350000 0.01339930 98366.75513535 0 -1939.71629568 0 12110.24454715 0 20632.94512980 0 -22389.56946228 0 180
0.01450000 0.01448870 111687.64767817 0 6843.94791063 0 -7352.25619840 0 7952.83016889 0 -22858.03952536 0 267
0.01550000 0.01550050 80396.92557093 0 10590.23579604 0 13485.09511988 0 -5408.62029974 0 -1217.80071750 0 238
0.01650000 0.01653350 89310.92211268 0 18631.95458858 0 -3713.46951465 0 -15868.52376034 0 -12473.30607795 0 315
0.01750000 0.01747870 59806.38744518 0 9838.05955414 0 18664.95011654 0 -8445.52647867 0 900.05267602 0 297
0.01850000 0.01844180 63912.00548793 0 11437.37936792 0 2804.09947730 0 -20381.71407967 0 6375.99824682 0 388
0.01950000 0.01947590 60003.03193396 0 708.92109777 0 21741.72773714 0 -8770.99746671 0 13695.69073793 0 399
0.02050000 0.02045430 60044.44242878 0 -1718.59089673 0 19960.63356681 0 -258.51774710 0 -1579.46713538 0 462
0.02150000 0.02154770 64825.91517847 0 -6314.36968688 0 22415.47870236 0 9528.72094335 0 -975.35666434 0 571
0.02250000 0.02255340 67476.74046330 0 -2422.04890943 0 16837.90579821 0 18674.02942289 0 -1904.10769906 0 510
0.02350000 0.02348930 66846.28228812 0 4163.69238643 0 21606.75609760 0 5948.26326675 0 -2661.22219784 0 555
0.02450000 0.02439640 66408.15039505 0 1539.71748928 0 17963.29689278 0 3747.81586624 0 3820.84892074 0 592
0.02550000 0.02547300 62577.67962404 0 402.70598982 0 15931.30384206 0 2391.87682430 0 9989.90541670 0 837
0.02650000 0.02652900 66207.40914609 0 -1060.51280729 0 17883.02253784 0 -2103.06630373 0 14502.42032421 0 723
0.02750000 0.02749970 67201.70391480 0 -147.17223426 0 16850.74969500 0 -2617.71903362 0 7527.95184862 0 826
0.02850000 0.02848090 67025.65395019 0 2062.05441260 0 21937.59716318 0 -5116.78703449 0 4476.35269466 0 831
0.02950000 0.02946900 64717.18494875 0 5059.89742957 0 21702.53170728 0 -2070.07077577 0 -3486.04396288 0 996
0.03050000 0.03053250 63176.47095023 0 2198.29936949 0 23923.30789616 0 293.74324128 0 -135.87181955 0 1041
0.03150000 0.03150510 59322.30540411 0 703.79904031 0 22482.13409776 0 6737.79753259 0 -3922.78074302 0 1036
0.03250000 0.03246190 59046.27234638 0 2491.77133881 0 19747.71276055 0 5266.87239741 0 -5534.06973993 0 1059
0.03350000 0.03345080 56832.47172214 0 2980.43732236 0 17478.43978897 0 5579.18946357 0 -3784.81957578 0 1302
0.03450000 0.03451200 53622.16186422 0 2916.69394838 0 21608.63839282 0 3244.84443903 0 -2035.52512234 0 1339
0.03550000 0.03553350 52068.71469217 0 2672.68205402 0 23723.67387968 0 899.19457085 0 3580.08121756 0 1365
0.03650000 0.03647120 48408.42555362 0 2860.63476782 0 20289.70306042 0 251.33734445 0 -3358.78973374 0 1308
0.03750000 0.03744890 48255.29530138 0 1414.75523138 0 25842.47395698 0 -966.13563224 0 6197.99955303 0 1579
0.03850000 0.03847530 50725.75241491 0 255.41195999 0 28133.22723871 0 749.12360195 0 1585.42404613 0 1662
0.03950000 0.03950240 47040.99343852 0 399.74303570 0 27072.71996758 0 1850.09689860 0 4755.07632732 0 1683
0.04050000 0.04050350 49462.84304610 0 1116.93183841 0 26151.28109617 0 4878.64347229 0 1479.03007695 0 1822
0.04150000 0.04152450 45912.83426274 0 766.99322698 0 27274.56844902 0 3656.12594442 0 3805.23694275 0 1887
0.04250000 0.04250150 46988.95351187 0 1361.48627668 0 23274.13749204 0 6083.42313581 0 7404.16325715 0 1920
0.04350000 0.04349210 44601.31738797 0 963.47384535 0 22122.94788065 0 4797.10687233 0 6957.52781862 0 2005
0.04450000 0.04448520 43763.14239920 0 1714.82630629 0 19370.47865398 0 3462.05023500 0 6085.15041848 0 2151
0.04550000 0.04548030 43093.70964067 0 1559.53695071 0 20192.04515552 0 3685.10221847 0 8345.64303648 0 2274
0.04650000 0.04648670 40915.22973260 0 1752.05146233 0 18917.84201539 0 1254.62726985 0 8067.61696029 0 2311
0.04750000 0.04749250 40123.89067781 0 1638.22796319 0 20649.99651002 0 -1801.61118822 0 7765.60822853 0 2568
0.04850000 0.04851840 38257.20743663 0 1718.33623326 0 19544.09270714 0 2556.72159620 0 7914.11024900 0 2493
0.04950000 0.04949480 38870.28206184 0 1200.06285314 0 24574.36059550 0 -1520.49593340 0 7097.96918662 0 2644
0.05050000 0.05050630 36448.87534725 0 -163.37990333 0 21147.14389438 0 37.05375645 0 6078.32986639 0 2829
0.05150000 0.05149060 36863.86608146 0 1577.30803204 0 21762.21153806 0 3516.55929008 0 8268.75681294 0 2784
0.05250000 0.05249300 36699.66350440 0 -642.37310391 0 21603.32367691 0 -239.12789188 0 3566.99372963 0 3055
0.05350000 0.05348950 37480.59457386 0 -1252.57888976 0 20909.08891078 0 1780.66234966 0 4407.77071473 0 3009
0.05450000 0.05448610 37830.14786838 0 828.17335776 0 19106.40370706 0 1054.73858990 0 1034.76743762 0 3336
0.05550000 0.05550870 36970.60329271 0 957.77049084 0 18732.15912819 0 399.83161429 0 510.05217893 0 3349
0.05650000 0.05647670 36438.46736192 0 637.07942542 0 18990.25501971 0 1043.82127763 0 836.93599562 0 3324
0.05750000 0.05747970 35994.46713670 0 1188.96838368 0 18716.43642694 0 -487.86324000 0 -1528.75588771 0 3639
0.05850000 0.05849280 34523.28733804 0 1300.57741785 0 16643.25432790 0 1744.17903938 0 895.45433952 0 3846
0.05950000 0.05951020 32499.59853094 0 1172.69206619 0 14912.64995875 0 1773.28818133 0 -338.24512919 0 3787
0.06050000 0.06049470 31837.47350678 0 1368.29575644 0 15163.77028563 0 2969.32070824 0 433.60441946 0 3930
0.06150000 0.06148310 31801.48845112 0 882.87396406 0 14913.09285174 0 2898.40246778 0 36.82489150 0 4083
0.06250000 0.06249100 29625.33373127 0 967.73226147 0 12252.41319782 0 1518.13752821 0 868.59066505 0 4303
0.06350000 0.06350600 29225.17991232 0 -148.06798533 0 11702.11865433 0 1005.30287405 0 212.59195822 0 4470
0.06450000 0.06451750 29980.20174170 0 -838.35657490 0 11782.06083952 0 1469.03176764 0 1274.42458663 0 4479
0.06550000 0.06550280 30807.74729865 0 -622.70754780 0 10635.20050713 0 358.45433645 0 -85.99941121 0 4636
0.06650000 0.06648880 30477.57057256 0 891.07302059 0 11529.94400340 0 -798.28250968 0 282.38857217 0 4653
0.06750000 0.06749660 30336.95204736 0 672.77106447 0 11936.18760100 0 -1246.09050742 0 1630.18945537 0 5220
0.06850000 0.06852730 30280.15102104 0 24.25448113 0 11980.91979326 0 -60.41890845 0 -1573.58773090 0 5029
0.06950000 0.06949320 28907.73635977 0 159.51676920 0 11479.12203248 0 593.50096939 0 663.96413731 0 5040
0.07050000 0.07048030 29417.28474792 0 985.58306355 0 11485.76542737 0 307.36441527 0 -4928.97826092 0 5475
0.07150000 0.07148790 28555.19353754 0 656.63868721 0 11955.78561593 0 463.47755182 0 -1449.21230621 0 5509
0.07250000 0.07249820 27986.74038135 0 821.07046139 0 10407.58672583 0 -203.80828294 0 -1093.20938248 0 5916
0.07350000 0.07351270 27587.02945540 0 -82.97090892 0 9878.22994858 0 1697.01093565 0 -970.87458726 0 5721
0.07450000 0.07449140 28270.08117346 0 -258.44799145 0 10208.42881932 0 1624.16611067 0 -951.72167979 0 6028
0.07550000 0.07549160 27962.38126675 0 593.01489433 0 9289.20441288 0 955.21610550 0 -1133.23030054 0 6183
0.07650000 0.07648840 27042.16035108 0 1083.44802092 0 9426.15799856 0 -154.69698620 0 78.14791495 0 6330
0.07750000 0.07749960 27086.78182010 0 791.38112962 0 10223.29895155 0 -67.58679937 0 1307.29831901 0 6583
0.07850000 0.07848650 25864.95077636 0 308.59565779 0 10225.18124677 0 854.25532611 0 2189.76260706 0 6549
0.07950000 0.07947320 26322.45923786 0 37.54193525 0 10842.86195910 0 1048.98098099 0 1275.63147003 0 6828
0.08050000 0.08048110 25519.82641176 0 672.18312402 0 10912.81690731 0 -80.83804699 0 1588.03711479 0 7147
0.08150000 0.08149960 24926.90341772 0 667.25593948 0 10376.40705914 0 152.60763851 0 2296.83198806 0 7386
0.08250000 0.08250610 24144.20077629 0 712.42216688 0 11391.87211291 0 311.83984896 0 843.21400380 0 7227
0.08350000 0.08350160 23683.70278708 0 1153.16048521 0 11177.84407417 0 723.27858136 0 2087.49861503 0 7798
0.08450000 0.08449610 22438.28769148 0 667.16957534 0 9513.85081112 0 1735.17723930 0 1085.57612175 0 7371
0.08550000 0.08548940 22134.02020547 0 383.20098242 0 9033.67730071 0 2001.89847186 0 661.59687426 0 8256
0.08650000 0.08650700 22190.93195503 0 -318.08685462 0 7573.89092430 0 980.58280166 0 -1290.82269968 0 8037
0.08750000 0.08749060 21941.02958388 0 -93.64031184 0 7265.38273788 0 156.03230858 0 -170.29567741 0 8155
0.08850000 0.08849210 21941.25103037 0 467.76475599 0 6882.96678329 0 -504.48058508 0 -761.48695985 0 8718
0.08950000 0.08949900 21869.28091905 0 92.53252574 0 7181.10020136 0 148.82533235 0 -1005.72694409 0 8571
0.09050000 0.09049190 21421.73754988 0 1048.49601317 0 7458.62802294 0 -524.45505906 0 -1395.79941129 0 8932
0.09150000 0.09150830 20534.95505516 0 1227.54436334 0 7250.24686985 0 -194.18200374 0 297.45136286 0 9285
0.09250000 0.09250820 19516.30117184 0 730.35933308 0 7875.30175051 0 763.11459159 0 -458.94897097 0 9204
0.09350000 0.09350330 18741.45988103 0 96.93853596 0 7837.09115756 0 884.76179545 0 727.32994501 0 9349
0.09450000 0.09448040 18980.73282036 0 112.60332894 0 7693.79312976 0 2046.70817040 0 813.57560472 0 9564
0.09550000 0.09549270 18394.23177472 0 455.53426599 0 6321.24560059 0 888.45109408 0 527.30839716 0 10155
0.09650000 0.09649430 18454.13305199 0 60.89878301 0 5858.74352059 0 1013.83742202 0 2582.92978904 0 9913
0.09750000 0.09749140 18199.69102766 0 -286.16644940 0 5288.96168542 0 396.95280984 0 2008.35363723 0 10476
0.09850000 0.09850240 18460.33355389 0 -154.52204347 0 5291.14293341 0 702.02303941 0 2115.17942708 0 10575
0.09950000 0.09950330 18400.32155337 0 433.46158647 0 5024.03416949 0 29.80038719 0 672.48650572 0 10882
0.10050000 0.10051200 18021.64804457 0 227.99688374 0 4997.36093900 0 -330.52107539 0 968.94468104 0 10875
0.10150000 0.10150300 17542.99144266 0 610.71732725 0 4669.71977529 0 -764.92934563 0 123.24161863 0 11118
0.10250000 0.10250800 17371.59185447 0 197.64874864 0 5073.19529168 0 -219.61624108 0 182.07220209 0 11575
0.10350000 0.10349800 16899.57864745 0 361.21245256 0 5318.33656317 0 68.51609959 0 -514.46892930 0 11364
0.10450000 0.10450100 16968.00561483 0 475.51095443 0 4599.59874221 0 -77.64733515 0 -1086.87601269 0 12093
0.10550000 0.10551000 16288.16487097 0 381.72061259 0 5038.68285522 0 -30.78870290 0 -887.03272927 0 12067
0.10650000 0.10649700 16202.46507687 0 621.86715835 0 5295.30612754 0 -224.49913633 0 -516.33129434 0 12054
0.10750000 0.10749900 15856.67637278 0 117.83278795 0 6110.37317442 0 227.47094831 0 478.15391836 0 12807
0.10850000 0.10850100 15811.16911778 0 181.49311950 0 5970.10896362 0 328.56238113 0 550.94006002 0 12736
0.10950000 0.10950300 15744.29227587 0 21.07163064 0 6129.62794728 0 589.19162057 0 1569.38024747 0 12933
0.11050000 0.11050200 16059.29991696 0 38.47156765 0 6098.59222081 0 831.03333926 0 1210.14974105 0 13428
0.11150000 0.11150900 15530.70713012 0 211.35407230 0 6047.98062407 0 19.91878018 0 2111.02730527 0 13453
0.11250000 0.11250000 15683.39448937 0 396.24528828 0 5503.54334041 0 28.47071170 0 1560.64418319 0 13668
0.11350000 0.11349100 15041.97471263 0 312.34696144 0 5236.92175877 0 772.46184821 0 2323.02910858 0 13791
0.11450000 0.11448600 14983.06994459 0 -120.05057461 0 4779.81190096 0 641.83609616 0 1349.28457473 0 14205
0.11550000 0.11549300 14845.55167034 0 91.15601432 0 4155.03382842 0 503.00242972 0 838.25028058 0 14776
0.11650000 0.11649800 15069.65552467 0 -10.07910407 0 3986.04800704 0 508.00712054 0 -106.74075440 0 14553
0.11750000 0.11747300 14651.56453952 0 107.49754780 0 3298.16875535 0 -103.40189485 0 347.26685945 0 14568
0.11850000 0.11849100 14557.56050181 0 316.68620553 0 3342.11481256 0 -140.91526350 0 -67.03462253 0 16015
0.11950000 0.11950300 14483.37592553 0 4.22389262 0 3458.28564456 0 17.22089751 0 -323.75920663 0 15270
0.12050000 0.12050700 14188.63063885 0 480.36395440 0 3692.60925469 0 -407.81254602 0 -430.30818836 0 15999
0.12150000 0.12150000 13926.99160339 0 609.60788031 0 4364.57757561 0 -732.42432166 0 -298.49548309 0 15670
0.12250000 0.12250700 13525.17693572 0 443.05575592 0 4338.98943296 0 -285.08800497 0 -112.50257078 0 16887
0.12350000 0.12352200 13331.18980490 0 80.01891640 0 4896.11560086 0 177.35096278 0 605.16455636 0 16407
0.12450000 0.12449800 13423.53299389 0 -89.93994089 0 4733.33028137 0 702.83574805 0 16.81011426 0 16306
0.12550000 0.12549900 13456.74996834 0 -295.10624446 0 4078.28047278 0 831.23817727 0 -269.89456085 0 17523
0.12650000 0.12650100 13676.75706249 0 44.72709900 0 3621.09310869 0 499.11382925 0 -490.03341566 0 17154
0.12750000 0.12750600 13380.57237359 0 317.27968214 0 3076.99906710 0 -109.47251837 0 -795.77684258 0 18007
0.12850000 0.12850300 13179.16678514 0 309.66635160 0 3350.79551522 0 -664.26087561 0 -896.89706345 0 17496
0.12950000 0.12949900 12954.50931457 0 359.20504007 0 3277.57423119 0 -159.05505325 0 -1376.30104728 0 18405
0.13050000 0.13049000 12621.78595377 0 173.20326991 0 3364.38125777 0 -243.34312593 0 -1378.20548715 0 18100
0.13150000 0.13148800 12594.10514172 0 62.49253345 0 3432.73071888 0 407.70182277 0 -1155.65175830 0 19059
0.13250000 0.13249300 12743.47080352 0 -203.05204315 0 3561.61257976 0 268.66885449 0 -1236.38007855 0 18957
0.13350000 0.13349100 12768.27281112 0 85.96719074 0 3424.57041548 0 178.68407069 0 -672.12444070 0 19468
0.13450000 0.13450700 12546.05125201 0 323.74259814 0 3531.72837508 0 432.54479797 0 -344.69697286 0 19953
0.13550000 0.13551000 12561.33106026 0 274.19283734 0 3846.81352244 0 207.14105271 0 244.29977480 0 19956
0.13650000 0.13649900 12152.31938146 0 336.75922320 0 4131.19511309 0 -51.51288399 0 518.04196852 0 19723
0.13750000 0.13749600 12165.49544799 0 361.09840761 0 4136.72020317 0 -141.81765797 0 795.33948575 0 20946
0.13850000 0.13851100 11730.57452911 0 231.79912008 0 4379.93489014 0 -115.16103597 0 1329.37653470 0 20955
0.13950000 0.13949800 11731.79248484 0 4.86958631 0 4133.76389244 0 66.37360474 0 1003.20688296 0 20506
0.14050000 0.14048300 11780.84288379 0 52.16349379 0 4431.37691124 0 106.55828248 0 949.61683084 0 21447
0.14150000 0.14148400 11579.32657209 0 173.41364408 0 3997.00960861 0 334.41853373 0 690.62075931 0 21771
0.14250000 0.14249400 11392.64717565 0 108.92565625 0 4066.21163872 0 524.17382201 0 875.14880304 0 22470
0.14350000 0.14350900 11183.26951333 0 220.56403208 0 3627.14967037 0 389.45130978 0 312.41782432 0 22519
0.14450000 0.14449900 11025.79890976 0 232.47231743 0 3291.04925050 0 257.88773182 0 257.67846488 0 22218
0.14550000 0.14550500 10805.98004513 0 257.98073934 0 3275.22689833 0 1.57618973 0 255.58579549 0 23559
0.14650000 0.14650700 10672.90177314 0 180.89189226 0 3180.77996763 0 -91.13575197 0 529.76977497 0 23044
0.14750000 0.14750500 10514.20214151 0 173.70927515 0 3155.01466777 0 -139.28984622 0 684.31285586 0 23649
0.14850000 0.14849900 10531.90678890 0 162.35349882 0 3629.90667925 0 -391.98797939 0 632.07584183 0 23640
0.14950000 0.14949500 10346.76644561 0 163.29907536 0 3898.96417234 0 275.15059344 0 514.75238082 0 24457
0.15050000 0.15050000 10259.40580279 0 164.94110113 0 3867.93951820 0 225.94739641 0 694.87917543 0 24591
0.15150000 0.15149900 10049.12020983 0 124.21709044 0 3567.56949052 0 273.36130575 0 747.80710253 0 25020
0.15250000 0.15250500 10067.74386018 0 -42.15311565 0 3362.10035886 0 713.50504024 0 553.99269998 0 25297
0.15350000 0.15350100 10002.89325371 0 -54.36013231 0 3098.75618537 0 620.54844446 0 516.97459641 0 25452
0.15450000 0.15450400 9911.32512746 0 249.42404672 0 2614.67414430 0 264.45472767 0 390.21751465 0 26061
0.15550000 0.15549900 9695.07155143 0 259.30609663 0 2417.69748578 0 -5.94416651 0 612.52986683 0 26128
0.15650000 0.15649500 9378.35877232 0 226.77782077 0 2516.83908220 0 -10.09895674 0 704.38919522 0 26331
0.15750000 0.15749700 9453.24090507 0 35.99823173 0 2591.56620240 0 -100.29732569 0 782.05823213 0 27345
0.15850000 0.15849900 9247.98214758 0 94.95072148 0 2877.59756944 0 187.85638457 0 944.42280327 0 26980
0.15950000 0.15949700 9286.48062097 0 93.03842026 0 2822.51275347 0 80.57397204 0 641.56371697 0 27777
0.16050000 0.16050000 9250.88309668 0 141.05034586 0 3024.42766886 0 127.67940641 0 1150.38133168 0 28224
0.16150000 0.16150500 9108.27155302 0 139.75599109 0 2498.16007023 0 110.53125407 0 990.48146005 0 28075
0.16250000 0.16249700 8967.59766619 0 72.63987625 0 2547.70872380 0 257.94973684 0 1286.24982953 0 28590
0.16350000 0.16349900 8960.20135322 0 37.69495478 0 2286.42400273 0 -51.09567879 0 520.53656330 0 29163
0.16450000 0.16449100 9026.14811984 0 189.80622097 0 2551.73905003 0 -98.46806691 0 713.75306032 0 28996
0.16550000 0.16550500 8708.28381894 0 198.41606075 0 2264.77760771 0 -84.39580640 0 278.05929317 0 30777
0.16650000 0.16650700 8607.76925424 0 220.11117400 0 2408.56281780 0 -193.02937473 0 516.37890533 0 29211
0.16750000 0.16749900 8571.15307606 0 131.54807671 0 2453.42787797 0 -247.05014028 0 212.19003282 0 30922
0.16850000 0.16850800 8469.37626633 0 72.13531041 0 2692.59009405 0 13.60545129 0 166.97508720 0 30867
0.16950000 0.16949900 8358.98518789 0 141.22196690 0 2702.99807938 0 1.75303690 0 13.01939314 0 30852
0.17050000 0.17049200 8219.88357119 0 61.37046405 0 2615.32741146 0 402.42253830 0 86.34630714 0 31257
0.17150000 0.17149500 8305.32870182 0 -14.52999041 0 2578.35691889 0 136.97130140 0 -96.17775652 0 32608
0.17250000 0.17250900 8141.13719708 0 -10.69321949 0 2202.08610458 0 390.10457694 0 139.38838991 0 32361
0.17350000 0.17350400 8188.10599896 0 117.40539621 0 2225.99125387 0 318.94385256 0 45.51500563 0 32508
0.17450000 0.17449800 8071.20439353 0 77.51479942 0 1855.03515547 0 301.46618784 0 48.42802357 0 32791
0.17550000 0.17549800 8039.89185894 0 73.45944973 0 1950.43430610 0 149.12871405 0 97.11757545 0 33633
0.17650000 0.17650100 8015.33344249 0 141.32493952 0 1748.95121138 0 -109.43852634 0 153.04942427 0 33984
0.17750000 0.17750300 8009.77513543 0 -17.20606060 0 2012.38396346 0 -292.41788400 0 186.07595474 0 34069
0.17850000 0.17849800 8038.80677111 0 7.39636834 0 2177.72698998 0 -146.36174008 0 210.56572277 0 34536
