### header ###
fiducial parameters:
Omega_m = 0.31
Omega_nu = 0
Omega_de = 0.69
Omega_k = 0
H_0 = 100
w_de = -1
zeff = 0
beta = 0
fgrowth = 0
b_1 = 2
gamma = 0.55
Lx = 3500 Ly = 3500 Lz = 3500
nx = 700 ny = 700 nz = 700
xoffset = -685.467585 yoffset = -31.7331281 zoffset = 572.489161
bins = 400 dk = 0.001
kx_ny = 0.628318531 ky_ny = 0.628318531 kz_ny = 0.628318531
############################
A(data) = 8.00356938 (not used)
A(ran) = 7.99632629 (used)
Ngal = 475140
weighted Ngal = 0
Nran = 23820508
weighted Nran = 0
SN(data) = 3493.55828
SN(ran) = 69.650902
SN(data+ran) = 3563.20918
############################
13 columns: k_central k_mean P_0(k) sigma^{lin}_{P_0(k)} P^img_1(k) sigma^{lin}_{P_1(k)} P_2(k) sigma^{lin}_{P_2(k)} P^img_3(k) sigma^{lin}_{P_3(k)} P_4(k) sigma^{lin}_{P_4(k)} N_modes
### header ###
0.00050000 0 0 0 0 0 0 0 0 0 0 0 0
0.00150000 0.00179520 11191.57375694 0 635.55365906 0 -2488.82610041 0 35865.80672230 0 -13767.21795626 0 3
0.00250000 0.00253879 35839.89748223 0 -16078.34431565 0 22731.81502243 0 -54590.65811611 0 24494.08624056 0 6
0.00350000 0.00331552 46292.17211103 0 -12044.69638422 0 -4962.73777929 0 16000.94876517 0 -34184.80636834 0 7
0.00450000 0.00420575 65056.10881145 0 -8178.86060774 0 26695.59658425 0 -20798.58710909 0 12591.89067676 0 24
0.00550000 0.00557378 78252.21625356 0 2346.18133977 0 38195.86675714 0 -14355.49057387 0 -14007.48740482 0 45
0.00650000 0.00659388 73851.96364738 0 8114.79613634 0 96972.97088718 0 -2871.16454872 0 21843.48240223 0 40
0.00750000 0.00754703 70807.96010824 0 11060.53279271 0 44532.44752760 0 13029.13678385 0 -12369.11550141 0 57
0.00850000 0.00846663 66853.81146900 0 3675.31428333 0 56799.14402444 0 20145.43066804 0 -10635.44409828 0 75
0.00950000 0.00948925 69235.24709100 0 -1208.37816908 0 29177.90108534 0 28451.00296100 0 -35928.69752727 0 112
0.01050000 0.01054430 69091.19614510 0 -5345.56340989 0 35459.12023171 0 13119.26550787 0 -31486.48081003 0 105
0.01150000 0.01145670 75439.07068688 0 817.62253944 0 23965.82562346 0 4538.83382361 0 -9832.29087291 0 144
0.01250000 0.01249090 70447.66665864 0 1625.42835570 0 24443.26426964 0 -4453.92016457 0 -9550.76594207 0 169
0.01350000 0.01339930 64711.20589334 0 -3719.49285935 0 1076.51453112 0 8754.27825624 0 2104.14031924 0 180
0.01450000 0.01448870 76995.06449365 0 -4885.39759043 0 24879.73531399 0 -6484.07520937 0 -13139.19569254 0 267
0.01550000 0.01550050 86344.64629376 0 1392.96489613 0 19776.39008183 0 -8301.22086931 0 -8186.25692072 0 238
0.01650000 0.01653350 83748.07540054 0 -2022.22726023 0 27870.81314050 0 -3386.20480999 0 -14263.70100112 0 315
0.01750000 0.01747870 79817.51081317 0 6230.50789870 0 20319.48761419 0 -7702.06415640 0 -9928.65331580 0 297
0.01850000 0.01844180 78639.52617571 0 7562.05460907 0 27283.86920187 0 -3847.54429588 0 -19202.95437947 0 388
0.01950000 0.01947590 71153.97025882 0 6874.37465923 0 23743.16117136 0 9400.69165148 0 -14214.31843243 0 399
0.02050000 0.02045430 68743.52514580 0 -597.65530567 0 19469.13306811 0 7135.52651240 0 -10272.67044792 0 462
0.02150000 0.02154770 65125.64301131 0 -1382.93336985 0 17725.35263243 0 16102.03909076 0 -14366.23072895 0 571
0.02250000 0.02255340 68728.24533755 0 -2578.01367682 0 12246.87703541 0 7302.23143487 0 -10495.01380260 0 510
0.02350000 0.02348930 66834.10273082 0 1545.25365169 0 12247.43065165 0 5512.78873163 0 -7678.57975546 0 555
0.02450000 0.02439640 68134.76872727 0 921.56509591 0 10309.70737444 0 -2838.14687611 0 4127.07620825 0 592
0.02550000 0.02547300 63395.03864215 0 5985.31126559 0 16414.83226689 0 -70.85324592 0 -3363.79442455 0 837
0.02650000 0.02652900 61711.60237673 0 3612.05809164 0 21402.47170470 0 -7319.45997229 0 5908.28110183 0 723
0.02750000 0.02749970 56822.06373681 0 3570.39293335 0 16834.25193102 0 -517.27576365 0 -10603.86582789 0 826
0.02850000 0.02848090 55515.30796171 0 3522.53834548 0 23239.48111536 0 -8543.45011937 0 3100.79349314 0 831
0.02950000 0.02946900 52293.15071624 0 2972.00021085 0 19252.77984116 0 -2066.70478902 0 -5516.64190067 0 996
0.03050000 0.03053250 52273.55270131 0 -390.16326026 0 22027.61516396 0 2234.29549748 0 -5603.89182024 0 1041
0.03150000 0.03150510 48819.87314388 0 -710.50444022 0 17238.50251015 0 8297.93238884 0 -9590.54880514 0 1036
0.03250000 0.03246190 51902.96198963 0 2345.76059143 0 18936.44352109 0 3460.36724162 0 -6682.88987382 0 1059
0.03350000 0.03345080 51107.96906765 0 -306.38672899 0 15369.71552726 0 2513.73883125 0 -11383.45714605 0 1302
0.03450000 0.03451200 49175.29477056 0 -400.33651231 0 13801.09927020 0 104.09989420 0 -4476.70700905 0 1339
0.03550000 0.03553350 50812.33799499 0 3351.71451818 0 16355.26315937 0 -1821.81818101 0 -4104.16756820 0 1365
0.03650000 0.03647120 47044.86875220 0 1139.46401941 0 15505.35150629 0 563.20265976 0 1599.31981378 0 1308
0.03750000 0.03744890 46648.03663070 0 2158.16219203 0 16532.30963322 0 2001.20091540 0 564.83139874 0 1579
0.03850000 0.03847530 46353.40206728 0 -880.89976855 0 15655.82440057 0 4431.49870682 0 1375.82493732 0 1662
0.03950000 0.03950240 46093.53460378 0 -1294.05581853 0 13933.08138204 0 7357.84772244 0 3030.89390656 0 1683
0.04050000 0.04050350 46833.49807141 0 819.68642079 0 15821.24493336 0 3478.90231337 0 1085.06568758 0 1822
0.04150000 0.04152450 46201.15760102 0 1272.22119399 0 14852.85940472 0 -201.11992247 0 6736.75673406 0 1887
0.04250000 0.04250150 44533.11186709 0 2663.56953070 0 17063.22760827 0 150.72866499 0 10547.27517575 0 1920
0.04350000 0.04349210 42199.84085806 0 1602.36470310 0 13147.27848966 0 2071.76484147 0 9366.38958919 0 2005
0.04450000 0.04448520 42308.46036453 0 840.34073551 0 18645.79499460 0 856.03907763 0 12930.70381621 0 2151
0.04550000 0.04548030 41379.82448199 0 1863.39476070 0 17440.68316134 0 130.72983190 0 8555.98399106 0 2274
0.04650000 0.04648670 38810.27006133 0 2023.93239825 0 17721.25587224 0 380.65656217 0 11270.85160264 0 2311
0.04750000 0.04749250 39371.30475989 0 53.05105135 0 19024.24705690 0 1058.28948447 0 11359.54092444 0 2568
0.04850000 0.04851840 38210.26077940 0 -106.84317340 0 15645.30569200 0 3734.59551041 0 5870.11479818 0 2493
0.04950000 0.04949480 38202.62087528 0 599.47227417 0 13662.25231698 0 4094.93324930 0 7215.38011899 0 2644
0.05050000 0.05050630 38381.99253734 0 -1071.72021447 0 10942.93363082 0 283.01637299 0 2470.57890911 0 2829
0.05150000 0.05149060 37921.27310164 0 271.12580337 0 9390.36117242 0 2264.50079958 0 3119.28427558 0 2784
0.05250000 0.05249300 37464.31825637 0 1710.79598005 0 9625.91381061 0 -79.25514744 0 1497.28834058 0 3055
0.05350000 0.05348950 35787.52538584 0 1778.29287215 0 7993.16664820 0 -191.57004231 0 1728.64456766 0 3009
0.05450000 0.05448610 34317.45281966 0 1757.89764983 0 9658.48859023 0 -94.60891882 0 -1072.06456378 0 3336
0.05550000 0.05550870 32236.96298624 0 1350.04856514 0 9089.40431152 0 452.94002029 0 3612.03594699 0 3349
0.05650000 0.05647670 32542.66987448 0 608.78188488 0 10141.95058111 0 1339.69594143 0 360.84263691 0 3324
0.05750000 0.05747970 32659.04000833 0 -930.93117547 0 10430.35142566 0 -265.53317210 0 1548.77465098 0 3639
0.05850000 0.05849280 33157.73751816 0 -158.73727753 0 12732.95209495 0 -1658.52353459 0 32.67232680 0 3846
0.05950000 0.05951020 33882.19973104 0 -509.19407376 0 12300.24564103 0 -2597.65598105 0 -1018.09583814 0 3787
0.06050000 0.06049470 34382.44736635 0 -37.66494878 0 13841.29180929 0 -406.72524373 0 -1257.38427873 0 3930
0.06150000 0.06148310 34853.35334089 0 542.10102312 0 13114.72585469 0 -794.68289688 0 -3486.73044702 0 4083
0.06250000 0.06249100 33587.23299787 0 1609.63922051 0 13002.00958804 0 501.92841421 0 -4464.36136688 0 4303
0.06350000 0.06350600 31497.11024186 0 1488.05402168 0 9736.63705880 0 1005.08253479 0 -4415.25560631 0 4470
0.06450000 0.06451750 31040.81973608 0 283.46590938 0 9352.72634036 0 2694.41702764 0 -5436.02430366 0 4479
0.06550000 0.06550280 30388.54908102 0 198.85009588 0 8476.59542211 0 1765.09466096 0 -5395.45530553 0 4636
0.06650000 0.06648880 30291.99840860 0 116.35795429 0 8246.35749983 0 1049.24893125 0 -5907.19601400 0 4653
0.06750000 0.06749660 29837.25802830 0 772.79844688 0 9387.30521077 0 -896.82841503 0 -3146.59970091 0 5220
0.06850000 0.06852730 30075.97735139 0 1151.79858926 0 10822.11242239 0 -761.66079534 0 -1592.36639379 0 5029
0.06950000 0.06949320 28860.90042579 0 938.78920440 0 10992.89196040 0 841.48339943 0 1502.37053767 0 5040
0.07050000 0.07048030 29069.83519511 0 493.97073437 0 12107.25501945 0 438.40537950 0 1795.66534979 0 5475
0.07150000 0.07148790 28356.00241406 0 340.00230714 0 11195.78124037 0 2678.27357806 0 2663.70239860 0 5509
0.07250000 0.07249820 27671.28984727 0 937.34094431 0 11702.11865433 0 1314.81642756 0 1819.84730719 0 5916
0.07350000 0.07351270 26711.31928550 0 943.36096732 0 10827.47142761 0 212.66725002 0 2721.98711644 0 5721
0.07450000 0.07449140 26000.91892513 0 254.69115164 0 9472.63961815 0 1429.18247062 0 2915.47599265 0 6028
0.07550000 0.07549160 25990.40021655 0 -288.29565747 0 9563.93093628 0 1022.67645892 0 2205.18635553 0 6183
0.07650000 0.07648840 26547.89177117 0 -397.13993213 0 9550.50020627 0 1687.89841233 0 2382.29926333 0 6330
0.07750000 0.07749960 25971.24509462 0 204.29657246 0 8798.21324112 0 516.50402261 0 1428.00880419 0 6583
0.07850000 0.07848650 25983.86754491 0 169.38774677 0 8453.70892671 0 512.13266877 0 1158.64128600 0 6549
0.07950000 0.07947320 25911.12237085 0 451.12637348 0 9309.90966029 0 -621.66453480 0 70.49649561 0 6828
0.08050000 0.08048110 25220.54147191 0 787.83687845 0 9729.04144397 0 -642.65101926 0 760.48380722 0 7147
0.08150000 0.08149960 25030.98327102 0 484.72312868 0 9026.71280840 0 -124.42635738 0 -621.82840521 0 7386
0.08250000 0.08250610 24080.64563183 0 511.50818965 0 9198.34491542 0 -393.87913247 0 245.60188020 0 7227
0.08350000 0.08350160 24000.37127690 0 483.32801575 0 8884.86525515 0 776.81770079 0 -538.47815844 0 7798
0.08450000 0.08449610 23719.35567300 0 775.92970034 0 8333.90637217 0 1030.48023345 0 -2225.11654020 0 7371
0.08550000 0.08548940 22966.88047833 0 414.90215560 0 7044.66701494 0 1146.12955895 0 -524.61782223 0 8256
0.08650000 0.08650700 22288.36841344 0 278.45014624 0 6623.87438253 0 1531.80077704 0 -459.50590890 0 8037
0.08750000 0.08749060 22287.48262745 0 434.37173157 0 6042.83199302 0 1250.91804104 0 403.03262340 0 8155
0.08850000 0.08849210 21703.30677002 0 650.58544723 0 7043.47120386 0 660.77198606 0 -545.27545865 0 8718
0.08950000 0.08949900 21193.64765862 0 1092.05675347 0 6534.45428730 0 -295.35315730 0 983.70851896 0 8571
0.09050000 0.09049190 20427.33205792 0 626.58175425 0 5906.96349517 0 -345.85513804 0 1755.93784834 0 8932
0.09150000 0.09150830 20381.93552616 0 -367.98650088 0 5952.08321881 0 226.03708224 0 1298.44045916 0 9285
0.09250000 0.09250820 20199.13144341 0 102.31503544 0 5897.59630838 0 820.69400235 0 629.98095797 0 9204
0.09350000 0.09350330 20217.73294910 0 311.76123545 0 5618.51836132 0 192.78135465 0 -1059.82853762 0 9349
0.09450000 0.09448040 19110.27902074 0 833.01196371 0 5039.51327958 0 -144.04873143 0 -651.01283897 0 9564
0.09550000 0.09549270 18761.50078896 0 870.03560344 0 5421.97352347 0 -289.30434626 0 -5.21748983 0 10155
0.09650000 0.09649430 17890.55171872 0 683.88878582 0 6089.82293955 0 68.44689756 0 275.52483802 0 9913
0.09750000 0.09749140 17698.11471337 0 386.46621101 0 6657.02492304 0 6.27165266 0 978.80680076 0 10476
0.09850000 0.09850240 17289.10303457 0 169.99118848 0 6391.90917758 0 501.32718698 0 981.50069739 0 10575
0.09950000 0.09950330 17399.71555951 0 68.82213865 0 7411.33812363 0 624.38611224 0 2356.89935020 0 10882
0.10050000 0.10051200 17687.37455830 0 -146.07828856 0 6942.60232476 0 966.55970228 0 2310.53952618 0 10875
0.10150000 0.10150300 17334.72101282 0 -160.66607651 0 6458.95210436 0 1170.95371120 0 3061.22100424 0 11118
0.10250000 0.10250800 17884.01904708 0 101.51627793 0 6463.64677008 0 704.67596843 0 2232.85609525 0 11575
0.10350000 0.10349800 17469.13903612 0 436.87407697 0 5624.48634440 0 304.25198476 0 2118.68935405 0 11364
0.10450000 0.10450100 17048.72286276 0 615.65779859 0 5726.00849066 0 -277.14914807 0 2787.39133915 0 12093
0.10550000 0.10551000 16539.72809085 0 392.22381991 0 5518.20309847 0 108.78636641 0 2586.76081343 0 12067
0.10650000 0.10649700 16348.73048772 0 65.02632426 0 5699.52348970 0 440.67520608 0 1916.22082241 0 12054
0.10750000 0.10749900 16086.09494303 0 349.29973829 0 5672.06412415 0 323.82453334 0 2061.86618308 0 12807
0.10850000 0.10850100 15764.55463029 0 379.09536437 0 5362.93588754 0 97.35075861 0 1766.79979899 0 12736
0.10950000 0.10950300 15578.87174308 0 82.50775357 0 5141.64440371 0 497.62017263 0 2351.51820033 0 12933
0.11050000 0.11050200 15816.81600344 0 -258.17229056 0 4876.90511730 0 326.87828053 0 1475.35406511 0 13428
0.11150000 0.11150900 15631.79745572 0 -111.73304421 0 4854.31757467 0 608.70991476 0 1051.07697208 0 13453
0.11250000 0.11250000 15760.79003985 0 264.27978493 0 4885.48616903 0 -110.07086681 0 1.44476123 0 13668
0.11350000 0.11349100 15252.23816093 0 497.43305034 0 4424.24633406 0 -312.28163472 0 -154.77006355 0 13791
0.11450000 0.11448600 14863.71028305 0 828.62510862 0 4665.93304020 0 -1016.65643592 0 -490.36226371 0 14205
0.11550000 0.11549300 14218.96880886 0 541.07129691 0 5560.45508998 0 -939.03279554 0 -612.11244018 0 14776
0.11650000 0.11649800 14215.86855791 0 201.30483030 0 5726.52888993 0 -48.28375118 0 -772.20829197 0 14553
0.11750000 0.11747300 14291.49253642 0 -185.31639326 0 5579.04552335 0 -494.46677452 0 -797.48530230 0 14568
0.11850000 0.11849100 14371.65616811 0 -136.50958546 0 5946.08201876 0 399.14070122 0 -968.75645152 0 16015
0.11950000 0.11950300 14466.98888480 0 202.97342965 0 5822.11627009 0 108.39794925 0 -695.07626282 0 15270
0.12050000 0.12050700 14526.33654582 0 365.98905349 0 5682.84856852 0 823.87729573 0 -260.54841147 0 15999
0.12150000 0.12150000 14057.31286651 0 74.97292581 0 4951.99762422 0 386.23812111 0 86.21244274 0 15670
0.12250000 0.12250700 14073.25701424 0 -40.43114769 0 4973.98726131 0 1057.41809251 0 30.16001630 0 16887
0.12350000 0.12352200 14069.71387030 0 -129.51076894 0 4907.74154192 0 601.14862415 0 -194.03584905 0 16407
0.12450000 0.12449800 14071.92833527 0 196.05876280 0 4685.98502045 0 416.98928883 0 592.09921307 0 16306
0.12550000 0.12549900 13702.66630256 0 439.99757981 0 4359.89398221 0 210.76059569 0 625.12685077 0 17523
0.12650000 0.12650100 13368.50353954 0 405.13193618 0 4449.54659627 0 163.43637218 0 621.16185126 0 17154
0.12750000 0.12750600 13090.25601684 0 80.34554998 0 4268.99019545 0 454.10815055 0 727.77394524 0 18007
0.12850000 0.12850300 12935.24346938 0 258.18557735 0 4016.89550398 0 310.71490076 0 474.03722800 0 17496
0.12950000 0.12949900 12956.39160979 0 -57.52582070 0 3931.25107151 0 326.75094879 0 220.80097984 0 18405
0.13050000 0.13049000 12625.55054421 0 81.57535310 0 3487.63837765 0 456.58502962 0 1116.94291073 0 18100
0.13150000 0.13148800 12877.44593383 0 -12.61403533 0 3073.43377851 0 408.44920470 0 514.24859004 0 19059
0.13250000 0.13249300 12813.00500339 0 40.50278563 0 3358.66793816 0 23.55183140 0 1364.09934533 0 18957
0.13350000 0.13349100 12708.03936410 0 336.81458482 0 3573.09458060 0 43.56140464 0 1012.48992009 0 19468
0.13450000 0.13450700 12418.38734685 0 343.73478783 0 3502.43100361 0 -368.86232178 0 904.74623451 0 19953
0.13550000 0.13551000 12197.16229697 0 281.97114553 0 3599.56850924 0 -64.41756784 0 1343.38302560 0 19956
0.13650000 0.13649900 11963.09335031 0 300.28366355 0 3897.66871034 0 46.48272682 0 1012.21421920 0 19723
0.13750000 0.13749600 11700.78997535 0 313.11980971 0 3534.69575813 0 213.99150007 0 1315.91258772 0 20946
0.13850000 0.13851100 11497.28064519 0 248.20387653 0 3265.61612039 0 316.72938760 0 304.13129642 0 20955
0.13950000 0.13949800 11220.58324797 0 121.99819655 0 3020.26447473 0 361.52579935 0 882.78206377 0 20506
0.14050000 0.14048300 11151.49194110 0 -9.40277325 0 2949.25765567 0 201.63146388 0 237.27438470 0 21447
0.14150000 0.14148400 11158.13533599 0 -36.71527548 0 3011.08551746 0 34.35853114 0 724.72351975 0 21771
0.14250000 0.14249400 11222.79771293 0 -51.93119642 0 2952.84508891 0 276.44494821 0 149.00027508 0 22470
0.14350000 0.14350900 11268.19424469 0 -42.27015012 0 2951.67142248 0 -251.69498054 0 475.90955812 0 22519
0.14450000 0.14449900 11347.13992065 0 88.42568974 0 3031.12642538 0 -204.85904656 0 399.38318514 0 22218
0.14550000 0.14550500 11332.52445188 0 69.13958220 0 3254.07875793 0 -7.18685781 0 543.45184675 0 23559
0.14650000 0.14650700 11288.23515261 0 177.02765090 0 3171.80031220 0 95.05048313 0 452.73075335 0 23044
0.14750000 0.14750500 11148.50241340 0 213.88852745 0 2902.01204567 0 142.86952883 0 567.24295109 0 23649
0.14850000 0.14849900 10856.86845000 0 0.13609327 0 2682.25961499 0 675.44835261 0 513.72819077 0 23640
0.14950000 0.14949500 10793.82263248 0 173.80781884 0 2671.07656693 0 366.86930331 0 269.95435140 0 24457
0.15050000 0.15050000 10640.43771677 0 316.06394088 0 2357.38653249 0 126.66075253 0 342.22784442 0 24591
0.15150000 0.15149900 10229.24478998 0 441.94741621 0 2467.55616443 0 325.23736199 0 495.02260522 0 25020
0.15250000 0.15250500 9979.10990000 0 238.59863475 0 2316.82860668 0 -117.29356573 0 909.41432665 0 25297
0.15350000 0.15350100 9947.38768940 0 17.97436922 0 2321.97723772 0 319.76431183 0 836.33033946 0 25452
0.15450000 0.15450400 9919.56293713 0 43.58952835 0 2491.93742368 0 -134.06813783 0 406.15391177 0 26061
0.15550000 0.15549900 9821.97146618 0 346.99558749 0 2797.15712964 0 -240.44992746 0 931.25891629 0 26128
0.15650000 0.15649500 9444.69307031 0 406.21923848 0 2766.64180244 0 -234.77978992 0 1056.47251597 0 26331
0.15750000 0.15749700 9223.15799533 0 334.18490768 0 2937.68707623 0 38.39439354 0 1197.32798891 0 27345
0.15850000 0.15849900 9003.83738533 0 154.29616805 0 2972.69776731 0 126.68511165 0 1069.10271689 0 26980
0.15950000 0.15949700 9042.61266684 0 21.59103340 0 2916.09604284 0 341.87574450 0 1064.66825080 0 27777
0.16050000 0.16050000 8999.56346795 0 -110.85943778 0 2772.74265341 0 145.85130591 0 853.98959031 0 28224
0.16150000 0.16150500 9055.61157618 0 48.37022603 0 2591.68799798 0 131.43735346 0 569.98335148 0 28075
0.16250000 0.16249700 9162.13841326 0 -46.65157977 0 2494.05223772 0 -99.25608426 0 558.76044304 0 28590
0.16350000 0.16349900 8990.96027156 0 75.64800546 0 2571.17098009 0 127.37048855 0 451.77410448 0 29163
0.16450000 0.16449100 9052.19022781 0 102.22490672 0 2201.44390974 0 218.12812062 0 252.86532528 0 28996
0.16550000 0.16550500 8881.27782191 0 137.60685285 0 2462.70648616 0 102.65517726 0 -47.85813101 0 30777
0.16650000 0.16650700 8779.91068819 0 191.27219678 0 2182.49916198 0 80.01791989 0 260.04351346 0 29211
0.16750000 0.16749900 8604.01573612 0 100.75682717 0 2325.75290048 0 -81.20808409 0 125.73067725 0 30922
0.16850000 0.16850800 8523.22098192 0 149.24165177 0 2166.65466516 0 93.07938786 0 562.52060455 0 30867
0.16950000 0.16949900 8460.45197253 0 71.91729633 0 2238.85729530 0 108.57023463 0 264.44365534 0 30852
0.17050000 0.17049200 8479.00918892 0 57.13906440 0 2127.07110394 0 181.80203736 0 374.60775112 0 31257
0.17150000 0.17149500 8430.88886526 0 111.53927853 0 2099.33493026 0 -12.72265483 0 154.17547970 0 32608
0.17250000 0.17250900 8235.67270638 0 104.16311718 0 2070.21471599 0 -91.01428856 0 170.90022634 0 32361
0.17350000 0.17350400 8238.11969017 0 96.02628712 0 1917.15089770 0 -53.95178497 0 197.05970096 0 32508
0.17450000 0.17449800 8184.72893989 0 25.29616545 0 2147.11201186 0 91.31069470 0 126.23003909 0 32791
0.17550000 0.17549800 8099.64919599 0 64.46274292 0 1868.94199544 0 367.22915387 0 137.47841388 0 33633
0.17650000 0.17650100 7998.72495526 0 143.62687585 0 2033.28851272 0 101.36436563 0 -97.41475665 0 33984
0.17750000 0.17750300 7966.46020074 0 176.93353614 0 1868.89770614 0 -52.25506192 0 256.67752671 0 34069
0.17850000 0.17849800 7792.50290552 0 128.97819011 0 2033.24422342 0 -63.78223784 0 290.01629674 0 34536
