### header ###
fiducial parameters:
Omega_m = 0.31
Omega_nu = 0
Omega_de = 0.69
Omega_k = 0
H_0 = 100
w_de = -1
zeff = 0
beta = 0
fgrowth = 0
b_1 = 2
gamma = 0.55
Lx = 3500 Ly = 3500 Lz = 3500
nx = 700 ny = 700 nz = 700
xoffset = -685.467585 yoffset = -31.7331281 zoffset = 572.489161
bins = 400 dk = 0.001
kx_ny = 0.628318531 ky_ny = 0.628318531 kz_ny = 0.628318531
############################
A(data) = 7.98932611 (not used)
A(ran) = 7.97677735 (used)
Ngal = 474547
weighted Ngal = 0
Nran = 23820508
weighted Nran = 0
SN(data) = 3500.00227
SN(ran) = 69.4806237
SN(data+ran) = 3569.4829
############################
13 columns: k_central k_mean P_0(k) sigma^{lin}_{P_0(k)} P^img_1(k) sigma^{lin}_{P_1(k)} P_2(k) sigma^{lin}_{P_2(k)} P^img_3(k) sigma^{lin}_{P_3(k)} P_4(k) sigma^{lin}_{P_4(k)} N_modes
### header ###
0.00050000 0 0 0 0 0 0 0 0 0 0 0 0
0.00150000 0.00179520 29302.46473955 0 -24677.66538605 0 40903.05017530 0 -87271.95349732 0 121414.68503135 0 3
0.00250000 0.00253879 44211.57155436 0 -16196.15385172 0 10770.81434151 0 -14758.08030428 0 -26103.00575996 0 6
0.00350000 0.00331552 50479.39318770 0 -2017.44401591 0 26081.30400331 0 12570.18892011 0 21549.29073179 0 7
0.00450000 0.00420575 53132.21149100 0 7985.09492341 0 32736.65700531 0 21383.75947576 0 26140.65166434 0 24
0.00550000 0.00557378 55971.26629775 0 9143.40403967 0 61791.65528516 0 45621.85356651 0 24236.32251878 0 45
0.00650000 0.00659388 59240.48092370 0 10185.73055344 0 54520.34885351 0 66912.93768353 0 332.82633342 0 40
0.00750000 0.00754703 48613.15283951 0 2655.73032473 0 49451.10638179 0 56019.76308045 0 24905.64455407 0 57
0.00850000 0.00846663 49722.82123284 0 -284.30186990 0 35638.71334027 0 43901.98935243 0 -3432.61999563 0 75
0.00950000 0.00948925 56434.64309141 0 -3995.48162778 0 38409.56262614 0 5239.16944071 0 -2133.01694236 0 112
0.01050000 0.01054430 61578.40230916 0 -2051.23675125 0 60366.97925075 0 -8832.81425618 0 21126.77081671 0 105
0.01150000 0.01145670 63222.08892848 0 3704.44556992 0 53843.49763735 0 -15149.81915636 0 34668.11334667 0 144
0.01250000 0.01249090 72053.70737358 0 -714.08965899 0 62859.91318367 0 6890.40738557 0 27188.86865492 0 169
0.01350000 0.01339930 66373.16184862 0 -131.32552298 0 65391.04663721 0 12956.39160979 0 26164.45716270 0 180
0.01450000 0.01448870 77665.82593116 0 1454.37200958 0 58910.63636735 0 37053.86717534 0 12700.73162972 0 267
0.01550000 0.01550050 68023.60258609 0 432.27463324 0 60662.49960016 0 35722.30939265 0 20261.46863214 0 238
0.01650000 0.01653350 66013.31129202 0 6629.58770214 0 35522.45392968 0 15329.41226492 0 17658.47579052 0 315
0.01750000 0.01747870 66503.48311174 0 -1967.38603540 0 28177.40581473 0 15367.16889255 0 20463.64928333 0 297
0.01850000 0.01844180 66470.81975352 0 -4534.33845973 0 22212.63371168 0 12481.49959832 0 25257.08014381 0 388
0.01950000 0.01947590 69167.59518635 0 -3408.57090612 0 23543.08426189 0 561.15538690 0 11258.22915235 0 399
0.02050000 0.02045430 71225.60820040 0 -1238.51703724 0 7648.27480243 0 -3256.96863470 0 7661.98234055 0 462
0.02150000 0.02154770 70022.26793910 0 923.07425378 0 13751.27380852 0 -6444.82381789 0 -10102.96492542 0 571
0.02250000 0.02255340 68237.96279458 0 -3532.55879944 0 14979.85897039 0 -8963.03586837 0 -7205.19358016 0 510
0.02350000 0.02348930 74592.14856150 0 -3568.68779532 0 18190.39027481 0 1196.67472175 0 -14132.71539852 0 555
0.02450000 0.02439640 79733.58259104 0 -2490.42051518 0 17377.34946338 0 -7638.22113149 0 -9393.35070012 0 592
0.02550000 0.02547300 80044.05057896 0 4293.36038238 0 18263.46761861 0 -10576.48396862 0 -17551.18496303 0 837
0.02650000 0.02652900 79980.27398800 0 5464.20337033 0 34430.61197931 0 -7313.81308663 0 -11434.05767047 0 723
0.02750000 0.02749970 73687.09673083 0 7832.27469627 0 28849.16376148 0 -6725.59583064 0 -11856.57758555 0 826
0.02850000 0.02848090 68510.12053862 0 9053.04279682 0 45574.13184654 0 -362.66071264 0 -3955.34445032 0 831
0.02950000 0.02946900 64054.50630835 0 1775.92339464 0 41811.86659641 0 7799.20166203 0 -11635.35253567 0 996
0.03050000 0.03053250 61883.11268817 0 -116.25387443 0 35559.21404808 0 12230.26854818 0 -17417.98489546 0 1041
0.03150000 0.03150510 62237.42708236 0 2655.16563616 0 35108.57042796 0 9019.31649542 0 -7622.98561254 0 1036
0.03250000 0.03246190 59804.72659646 0 947.69024632 0 27291.95199898 0 3028.25869325 0 -12306.44614293 0 1059
0.03350000 0.03345080 54350.61011404 0 5010.34877601 0 24187.82573608 0 -2611.61818265 0 -2555.51471279 0 1302
0.03450000 0.03451200 52400.55226698 0 2942.40388661 0 24292.68065211 0 2514.56925561 0 -11950.91379301 0 1339
0.03550000 0.03553350 49999.40790681 0 -620.07787066 0 23611.73267576 0 3997.12033186 0 -6866.52438093 0 1365
0.03650000 0.03647120 49869.86170643 0 29.76296273 0 17066.66002897 0 7637.93325105 0 -8725.64522426 0 1308
0.03750000 0.03744890 49302.18361298 0 -935.33242459 0 19299.83722164 0 3342.44698230 0 -5292.64876959 0 1579
0.03850000 0.03847530 50488.02960106 0 1898.36116248 0 14158.84608509 0 772.88923994 0 -7558.22358468 0 1662
0.03950000 0.03950240 50446.72982948 0 -85.39973409 0 17262.30800851 0 -2923.44806652 0 -4711.52887380 0 1683
0.04050000 0.04050350 49663.69501831 0 962.49615907 0 16685.10771571 0 -3225.78896801 0 4873.70521542 0 1822
0.04150000 0.04152450 51421.86947626 0 1949.02812085 0 22031.49047765 0 -1783.09826112 0 -4948.79772234 0 1887
0.04250000 0.04250150 50359.47990991 0 674.63675120 0 23809.26295053 0 2172.10224897 0 6346.75623697 0 1920
0.04350000 0.04349210 47364.52676972 0 785.44193459 0 17785.91824918 0 4702.32777188 0 -1128.62421341 0 2005
0.04450000 0.04448520 47697.13940727 0 1445.79095784 0 20588.10221429 0 9867.04690051 0 -138.68529728 0 2151
0.04550000 0.04548030 45126.58847737 0 1142.92965708 0 15970.27842542 0 3422.35595052 0 -1823.93299505 0 2274
0.04650000 0.04648670 43280.72120685 0 3133.77794877 0 15274.60425707 0 4156.92719596 0 2013.31403875 0 2311
0.04750000 0.04749250 40633.10689622 0 2575.47811444 0 15001.33928054 0 -908.15761779 0 6714.94425417 0 2568
0.04850000 0.04851840 39127.38144413 0 1912.78840172 0 16148.76430150 0 816.94602040 0 4542.58734172 0 2493
0.04950000 0.04949480 39414.26538018 0 -1149.13015898 0 17681.50622614 0 -1515.93413557 0 6021.37382753 0 2644
0.05050000 0.05050630 39891.81474961 0 433.16041923 0 19273.81725831 0 -1771.87092375 0 6874.40787620 0 2829
0.05150000 0.05149060 40290.63988958 0 953.01271286 0 21532.23935157 0 -138.67865389 0 9251.66923174 0 2784
0.05250000 0.05249300 39936.54694188 0 84.10405064 0 18902.56220714 0 4287.17095281 0 8873.93687055 0 3055
0.05350000 0.05348950 40213.24433910 0 -488.00275129 0 19212.91947181 0 4789.58876378 0 8543.10687730 0 3009
0.05450000 0.05448610 39404.96462734 0 1549.04038678 0 16909.65446304 0 3018.49290276 0 5491.10911964 0 3336
0.05550000 0.05550870 37365.77456549 0 1991.22475074 0 17869.84647131 0 1735.58691532 0 7398.63816707 0 3349
0.05650000 0.05647670 35288.16353651 0 1180.50912751 0 13706.65233950 0 724.04146454 0 4824.45551463 0 3324
0.05750000 0.05747970 34705.31635806 0 -374.41177098 0 14650.45730704 0 -1618.34206782 0 2842.00004515 0 3639
0.05850000 0.05849280 35031.06415423 0 -303.02517117 0 14674.26280540 0 -852.47268181 0 -1145.66452131 0 3846
0.05950000 0.05951020 35513.81751632 0 782.69378357 0 14223.95135503 0 -2499.35588131 0 -4065.91268595 0 3787
0.06050000 0.06049470 34133.87367417 0 606.78997364 0 14045.13330920 0 -1513.68645363 0 -2729.47200802 0 3930
0.06150000 0.06148310 34422.63990544 0 93.57897116 0 12889.62549113 0 307.90253025 0 -4690.35858875 0 4083
0.06250000 0.06249100 34659.03404032 0 306.83847984 0 12137.92535919 0 714.86250727 0 -4494.71060921 0 4303
0.06350000 0.06350600 33515.59505630 0 917.36425587 0 13429.29060279 0 2301.94740212 0 -3807.86108373 0 4470
0.06450000 0.06451750 33257.38844153 0 1290.36873437 0 13693.69771946 0 1292.30639121 0 -3149.00239540 0 4479
0.06550000 0.06550280 31724.20362389 0 1019.43337498 0 11491.85520602 0 1939.99310380 0 -1521.58102123 0 4636
0.06650000 0.06648880 31642.48986673 0 -368.18690996 0 12940.11529230 0 2669.00604218 0 1040.29142048 0 4653
0.06750000 0.06749660 31634.84996260 0 -437.70782303 0 10929.42539454 0 3575.91802343 0 1288.34249892 0 5220
0.06850000 0.06852730 32070.54594422 0 39.89015390 0 10791.99569889 0 2610.10127415 0 1520.40735480 0 5029
0.06950000 0.06949320 31114.45069613 0 1476.67167176 0 9777.11747834 0 1153.38193171 0 1526.78501389 0 5040
0.07050000 0.07048030 30321.45079261 0 1587.81566829 0 9706.86357736 0 -579.01947576 0 1755.05206235 0 5475
0.07150000 0.07148790 28895.88897221 0 1302.31577284 0 8487.41308346 0 -1170.24508241 0 1298.89442448 0 5509
0.07250000 0.07249820 27877.23508890 0 625.14013756 0 10416.71032148 0 -1151.07888815 0 -58.96522293 0 5916
0.07350000 0.07351270 27631.54020117 0 -296.82134758 0 9795.43110359 0 312.73117111 0 -887.15895377 0 5721
0.07450000 0.07449140 27715.02553031 0 -161.10675504 0 8431.90751914 0 957.26670006 0 -1660.69371025 0 6028
0.07550000 0.07549160 27747.02454903 0 101.66420419 0 6708.26764230 0 2552.64698067 0 -1891.87278014 0 6183
0.07650000 0.07648840 27796.40711772 0 3.63596324 0 6825.90002117 0 1352.27410243 0 -300.23494532 0 6330
0.07750000 0.07749960 27564.22046628 0 258.63954267 0 6558.20442403 0 1110.84205976 0 -1947.25654888 0 6583
0.07850000 0.07848650 26687.29234064 0 199.30627567 0 6526.27183926 0 339.33132425 0 -1286.17232326 0 6549
0.07950000 0.07947320 26717.18761765 0 1148.78691691 0 6112.65407333 0 -1951.02113932 0 -3663.01293045 0 6828
0.08050000 0.08048110 25859.96823019 0 1525.34561167 0 7076.36708090 0 -1806.02904582 0 -1228.45229398 0 7147
0.08150000 0.08149960 24154.27659188 0 1000.10773924 0 8314.03154912 0 -691.65380721 0 -1130.96047395 0 7386
0.08250000 0.08250610 24420.12311077 0 132.08065553 0 7840.44607198 0 415.28968697 0 -1627.02277048 0 7227
0.08350000 0.08350160 23762.75918629 0 -92.07357788 0 8172.21721285 0 1619.39393868 0 -2393.03941840 0 7798
0.08450000 0.08449610 23918.10390350 0 428.10147402 0 7142.59065564 0 1660.16223866 0 -2665.57362149 0 7371
0.08550000 0.08548940 23089.45111407 0 981.58484706 0 7662.30343797 0 152.68957371 0 -988.57923464 0 8256
0.08650000 0.08650700 22345.39088625 0 1030.29864733 0 7352.87624859 0 -326.69447994 0 -1094.23135806 0 8037
0.08750000 0.08749060 21222.43570315 0 743.26523489 0 7920.06715975 0 -459.51698123 0 61.07959408 0 8155
0.08850000 0.08849210 21278.01877374 0 588.67786470 0 8474.19272763 0 -47.12049273 0 -1285.40833285 0 8718
0.08950000 0.08949900 20730.27086496 0 576.75186364 0 8711.09618945 0 -399.55369894 0 -1290.67875946 0 8571
0.09050000 0.09049190 20034.81814310 0 464.43198622 0 8611.83279745 0 -242.36765412 0 -780.08071491 0 8932
0.09150000 0.09150830 20085.86156051 0 285.16108231 0 8735.97570331 0 1132.52167175 0 12.14578671 0 9285
0.09250000 0.09250820 19728.22546887 0 -103.39336916 0 7843.07021296 0 1448.66976230 0 341.44170936 0 9204
0.09350000 0.09350330 19581.51716502 0 192.40046668 0 7667.04239300 0 2721.77674227 0 359.44863122 0 9349
0.09450000 0.09448040 19340.69410022 0 113.36621212 0 6685.85725687 0 797.23838945 0 698.64930203 0 9564
0.09550000 0.09549270 18936.55424434 0 632.84536840 0 6013.20245181 0 637.50903162 0 236.56575591 0 10155
0.09650000 0.09649430 18511.15552481 0 465.91678497 0 5427.90828957 0 -634.22498008 0 1388.81277433 0 9913
0.09750000 0.09749140 18195.48354423 0 387.12169263 0 4951.55473122 0 -179.55435542 0 905.80585600 0 10476
0.09850000 0.09850240 17939.49139442 0 251.42260135 0 5183.71923802 0 105.27655016 0 653.77427678 0 10575
0.09950000 0.09950330 17538.34106624 0 561.18749664 0 4518.46074594 0 523.22824547 0 -485.20920374 0 10882
0.10050000 0.10051200 17060.57025031 0 329.34851620 0 4326.88738193 0 460.15917607 0 -1248.26068308 0 10875
0.10150000 0.10150300 16714.56009973 0 -24.80754376 0 4189.32481838 0 692.65031645 0 -1185.40309508 0 11118
0.10250000 0.10250800 16817.64344379 0 216.45730681 0 4381.55144956 0 368.59658598 0 -1091.33373066 0 11575
0.10350000 0.10349800 16679.57155331 0 31.11633299 0 4492.03110660 0 -164.08521042 0 -764.83301641 0 11364
0.10450000 0.10450100 16436.97691653 0 556.62791328 0 4302.69435220 0 -291.97499100 0 -421.58098193 0 12093
0.10550000 0.10551000 16283.51449454 0 589.92682294 0 4770.44471416 0 -321.52924041 0 284.06602938 0 12067
0.10650000 0.10649700 15780.38805478 0 170.14952272 0 5161.29778026 0 197.71518259 0 -15.36916191 0 12054
0.10750000 0.10749900 15461.83726975 0 216.49827441 0 5047.06460511 0 726.94684257 0 616.29888620 0 12807
0.10850000 0.10850100 15633.56902769 0 50.94188420 0 5179.09100625 0 829.30716382 0 476.90717459 0 12736
0.10950000 0.10950300 15546.20838487 0 -77.88871183 0 4449.29193280 0 720.32005617 0 1222.18535813 0 12933
0.11050000 0.11050200 15257.99576984 0 186.23207452 0 4160.00530226 0 365.19738226 0 1202.99701922 0 13428
0.11150000 0.11150900 15563.25976509 0 248.18173188 0 4033.79187166 0 141.50431118 0 946.10801110 0 13453
0.11250000 0.11250000 14863.15666681 0 66.62295350 0 3489.87498726 0 233.65484172 0 1320.09792650 0 13668
0.11350000 0.11349100 14939.88787780 0 142.25833650 0 3678.87957192 0 -113.21562850 0 956.60900396 0 13791
0.11450000 0.11448600 14801.37309432 0 -73.41438537 0 3322.49465298 0 99.94677589 0 14.52223979 0 14205
0.11550000 0.11549300 14621.89070901 0 171.62546362 0 3303.33953104 0 -229.81938840 0 -965.54769179 0 14776
0.11650000 0.11649800 14782.32869563 0 362.10820364 0 3676.76475788 0 -1060.59695696 0 -437.10991749 0 14553
0.11750000 0.11747300 14067.83157508 0 471.62124672 0 4049.48135592 0 -286.85182631 0 -42.27900798 0 14568
0.11850000 0.11849100 14226.16581999 0 321.94888152 0 4469.95289091 0 -136.44979490 0 827.13034476 0 16015
0.11950000 0.11950300 14137.14432845 0 11.33551398 0 4846.53373032 0 229.90243084 0 747.30441898 0 15270
0.12050000 0.12050700 13959.98713135 0 259.21308910 0 5074.53504298 0 365.42768662 0 542.91041007 0 15999
0.12150000 0.12150000 13791.02345462 0 374.33980086 0 5284.98672081 0 -142.66690529 0 1081.00103714 0 15670
0.12250000 0.12250700 13577.54903211 0 90.01512197 0 5266.94990368 0 406.06865486 0 1894.82909086 0 16887
0.12350000 0.12352200 13710.08476019 0 79.57912366 0 5418.50788580 0 545.97633681 0 1430.57758354 0 16407
0.12450000 0.12449800 13493.95297973 0 58.60847262 0 4533.44160142 0 346.20723796 0 938.28762808 0 16306
0.12550000 0.12549900 13468.04373966 0 28.00644912 0 4659.86540620 0 229.35877969 0 746.42749086 0 17523
0.12650000 0.12650100 13308.27009252 0 56.58079778 0 4112.27250997 0 -4.68053744 0 419.41080627 0 17154
0.12750000 0.12750600 13170.30892528 0 223.09073661 0 4234.14558925 0 369.08044657 0 253.79650780 0 18007
0.12850000 0.12850300 12896.26888602 0 356.86435060 0 3948.64569380 0 -48.50863009 0 -156.51395471 0 17496
0.12950000 0.12949900 12686.22688421 0 344.91066873 0 3955.53267984 0 26.72881356 0 77.79426490 0 18405
0.13050000 0.13049000 12392.36738353 0 423.56514254 0 3979.02815310 0 95.35497206 0 213.92728059 0 18100
0.13150000 0.13148800 12052.88990459 0 284.07710171 0 4130.45326732 0 37.28073911 0 -70.37016038 0 19059
0.13250000 0.13249300 11913.26788862 0 38.40037260 0 3949.62005838 0 217.87788608 0 365.86172175 0 18957
0.13350000 0.13349100 11840.85488431 0 96.44980354 0 4184.43085081 0 -115.55631797 0 194.60385932 0 19468
0.13450000 0.13450700 11894.66638293 0 22.61655212 0 4106.21594829 0 75.25493793 0 231.68950406 0 19953
0.13550000 0.13551000 12068.83405232 0 -64.20542210 0 4179.11613490 0 -229.83599689 0 178.95534265 0 19956
0.13650000 0.13649900 12025.31981579 0 40.36914267 0 3843.44753570 0 -21.82089486 0 -161.93939387 0 19723
0.13750000 0.13749600 12047.79663517 0 71.80170126 0 4089.85105221 0 -75.09483211 0 -303.45145568 0 20946
0.13850000 0.13851100 11944.27039811 0 249.45062030 0 3915.80517839 0 384.36357652 0 -529.13865246 0 20955
0.13950000 0.13949800 11754.82292047 0 93.73110490 0 3619.33260904 0 29.21233602 0 -874.63836886 0 20506
0.14050000 0.14048300 11524.62928749 0 104.76534092 0 3576.46056735 0 540.43463824 0 -580.38469341 0 21447
0.14150000 0.14148400 11460.85269653 0 249.68535359 0 3232.05590386 0 600.32816488 0 -746.02999440 0 21771
0.14250000 0.14249400 11247.26755078 0 212.88316036 0 3146.66613486 0 369.58534459 0 -437.65356864 0 22470
0.14350000 0.14350900 11219.03312249 0 48.27766140 0 2756.14523851 0 183.89581398 0 -319.38674556 0 22519
0.14450000 0.14449900 10983.72407545 0 70.34701923 0 2793.66934732 0 58.02540400 0 -45.55818770 0 22218
0.14550000 0.14550500 10977.04746358 0 177.91897305 0 2705.37862921 0 297.62076943 0 -43.83145864 0 23559
0.14650000 0.14650700 10721.29890492 0 130.92802652 0 2573.33008343 0 328.90008704 0 275.86475839 0 23044
0.14750000 0.14750500 10610.32099326 0 271.00290056 0 2265.79626159 0 436.77442605 0 58.31262010 0 23649
0.14850000 0.14849900 10423.46443962 0 114.95619796 0 2228.78147972 0 103.21787281 0 22.38801934 0 23640
0.14950000 0.14949500 10112.60892034 0 337.20986682 0 2257.55845192 0 -111.97774259 0 -264.76143106 0 24457
0.15050000 0.15050000 9963.12146296 0 300.54164871 0 2282.98050971 0 -6.50884400 0 174.84197398 0 24591
0.15150000 0.15149900 9769.86510558 0 -63.84236056 0 2188.56679598 0 -301.53705072 0 -291.29072133 0 25020
0.15250000 0.15250500 9851.42385019 0 108.84516045 0 2362.64588678 0 61.60375793 0 -198.99957227 0 25297
0.15350000 0.15350100 9804.49933761 0 96.43740254 0 2583.30624809 0 -246.86080353 0 -566.70151440 0 25452
0.15450000 0.15450400 9625.13874787 0 210.05418137 0 2504.12805331 0 256.72845941 0 -221.48746397 0 26061
0.15550000 0.15549900 9663.06146038 0 82.81855373 0 2560.65227151 0 179.50452996 0 197.48709270 0 26128
0.15650000 0.15649500 9473.38146391 0 137.89030436 0 2272.31786091 0 372.20394941 0 22.58256008 0 26331
0.15750000 0.15749700 9366.78819288 0 201.75325945 0 2242.56652412 0 240.48868060 0 266.63708289 0 27345
0.15850000 0.15849900 9291.98356641 0 52.30488738 0 2110.16366394 0 338.24291472 0 263.49697157 0 26980
0.15950000 0.15949700 9146.98040058 0 1.05582257 0 1836.04611840 0 245.14127148 0 121.41911396 0 27777
0.16050000 0.16050000 9214.58801592 0 -54.93556103 0 1839.16851400 0 197.06302266 0 -16.49145275 0 28224
0.16150000 0.16150500 9178.72475584 0 163.73753942 0 1698.26210836 0 -80.62645486 0 107.94121585 0 28075
0.16250000 0.16249700 9096.04770642 0 101.40577613 0 1582.26843356 0 24.17343171 0 367.39080981 0 28590
0.16350000 0.16349900 8928.81131235 0 -23.09188703 0 1531.86721098 0 300.19397772 0 292.78548518 0 29163
0.16450000 0.16449100 9008.58741267 0 1.77067511 0 1460.42857125 0 157.18383036 0 115.58399878 0 28996
0.16550000 0.16550500 8905.39334536 0 137.44408967 0 1456.73041477 0 221.70115984 0 0.75085642 0 30777
0.16650000 0.16650700 8881.20031563 0 154.16108568 0 1458.25839559 0 -105.85696143 0 -104.85447314 0 29211
0.16750000 0.16749900 8659.83132554 0 184.28445258 0 1414.98775020 0 -255.67548132 0 -93.13995348 0 30922
0.16850000 0.16850800 8526.47624542 0 203.73409836 0 1646.07824149 0 -275.96330208 0 -282.91229314 0 30867
0.16950000 0.16949900 8493.35892189 0 222.48175874 0 1908.28196552 0 -283.04958997 0 -118.38197526 0 30852
0.17050000 0.17049200 8263.81855607 0 128.52311756 0 2028.73778722 0 -50.58989499 0 -136.66349077 0 31257
0.17150000 0.17149500 8239.51480309 0 102.07919492 0 1956.86732682 0 266.01371100 0 198.86338267 0 32608
0.17250000 0.17250900 8200.94989575 0 -39.91816688 0 1937.94472371 0 430.68464740 0 -52.11211821 0 32361
0.17350000 0.17350400 8290.76859468 0 -33.75719318 0 1801.48939264 0 357.28399171 0 446.28333861 0 32508
0.17450000 0.17449800 8288.28839392 0 -15.37669109 0 1535.99718814 0 218.81681923 0 287.05887878 0 32791
0.17550000 0.17549800 8261.53765716 0 57.47832043 0 1678.22120044 0 209.54706889 0 579.55980521 0 33633
0.17650000 0.17650100 8261.67052506 0 148.18092305 0 1426.95693333 0 8.03984757 0 268.99216638 0 33984
0.17750000 0.17750300 8094.53378192 0 190.88909434 0 1481.23346959 0 -150.37324336 0 384.04580080 0 34069
0.17850000 0.17849800 7984.85133227 0 161.49760811 0 1407.23712283 0 -290.60312996 0 78.32285769 0 34536
