### header ###
fiducial parameters:
Omega_m = 0.31
Omega_nu = 0
Omega_de = 0.69
Omega_k = 0
H_0 = 100
w_de = -1
zeff = 0
beta = 0
fgrowth = 0
b_1 = 2
gamma = 0.55
Lx = 3500 Ly = 3500 Lz = 3500
nx = 700 ny = 700 nz = 700
xoffset = -685.467585 yoffset = -31.7331281 zoffset = 572.489161
bins = 400 dk = 0.001
kx_ny = 0.628318531 ky_ny = 0.628318531 kz_ny = 0.628318531
############################
A(data) = 8.08820939 (not used)
A(ran) = 8.0860246 (used)
Ngal = 480589
weighted Ngal = 0
Nran = 23820508
weighted Nran = 0
SN(data) = 3490.0869
SN(ran) = 70.4322068
SN(data+ran) = 3560.5191
############################
13 columns: k_central k_mean P_0(k) sigma^{lin}_{P_0(k)} P^img_1(k) sigma^{lin}_{P_1(k)} P_2(k) sigma^{lin}_{P_2(k)} P^img_3(k) sigma^{lin}_{P_3(k)} P_4(k) sigma^{lin}_{P_4(k)} N_modes
### header ###
0.00050000 0 0 0 0 0 0 0 0 0 0 0 0
0.00150000 0.00179520 16119.86553372 0 -24180.18583195 0 -6163.16601915 0 60723.50810991 0 -35074.91056051 0 3
0.00250000 0.00253879 29203.14598593 0 -19368.04274252 0 40558.03653395 0 -18046.56077542 0 23370.79888771 0 6
0.00350000 0.00331552 50483.82211763 0 -29534.87283750 0 3044.19176866 0 -10428.35840719 0 -31343.31565013 0 7
0.00450000 0.00420575 58843.87024870 0 -16412.06418569 0 26649.42498976 0 8554.63316743 0 38732.87451084 0 24
0.00550000 0.00557378 100028.37892088 0 -15885.35369406 0 10150.45412657 0 3314.26791564 0 -8666.66294995 0 45
0.00650000 0.00659388 84639.95116468 0 -10547.20874180 0 41188.60543237 0 28524.96609079 0 44786.33593569 0 40
0.00750000 0.00754703 106876.16892822 0 31378.52564305 0 11423.76040839 0 393.03431409 0 -362.02073227 0 57
0.00850000 0.00846663 81656.51324230 0 18661.07480285 0 22490.77051112 0 4900.16807174 0 19059.01415683 0 75
0.00950000 0.00948925 68472.47463424 0 6945.69150339 0 20132.58677125 0 21833.62803314 0 -2594.88789985 0 112
0.01050000 0.01054430 62094.59409220 0 2569.88659041 0 12631.75104610 0 -6153.59953051 0 11513.11406968 0 105
0.01150000 0.01145670 65399.46160407 0 5440.28714872 0 27522.92069470 0 -7499.55133546 0 912.89325111 0 144
0.01250000 0.01249090 61892.63488751 0 5373.62068099 0 18402.86818808 0 -15612.53161053 0 20547.57750545 0 169
0.01350000 0.01339930 59911.35308446 0 4725.34713518 0 22397.54153615 0 2214.37638513 0 13913.15119737 0 180
0.01450000 0.01448870 65555.69210726 0 -2492.38031668 0 45267.87134206 0 -3837.15845520 0 644.66175345 0 267
0.01550000 0.01550050 68375.70251532 0 -6859.93634767 0 46080.02636750 0 1221.05598100 0 -15144.06154746 0 238
0.01650000 0.01653350 73511.04676621 0 -6099.31192192 0 46319.96364633 0 17305.71152180 0 -11515.99287413 0 315
0.01750000 0.01747870 76701.09426971 0 2314.63628636 0 33306.43884047 0 3074.89532539 0 -2907.49284645 0 297
0.01850000 0.01844180 73465.53951121 0 -146.10596938 0 34094.67764431 0 3997.35285068 0 -10730.50000685 0 388
0.01950000 0.01947590 73676.68874550 0 5797.63535992 0 30122.37039238 0 7520.36730612 0 -6401.02170091 0 399
0.02050000 0.02045430 69710.36054896 0 3827.62518353 0 26787.93977324 0 -1210.79193589 0 -19248.68308098 0 462
0.02150000 0.02154770 66576.33900905 0 4179.55902789 0 28075.09753341 0 -8972.94559908 0 -6964.38158768 0 571
0.02250000 0.02255340 62556.42076039 0 4284.80147529 0 26004.79423882 0 2220.39972983 0 -4771.16441528 0 510
0.02350000 0.02348930 62503.71649425 0 -718.79428981 0 26552.65287084 0 11897.76663388 0 -51.05703637 0 555
0.02450000 0.02439640 63772.82636496 0 -1072.27715241 0 21924.75326639 0 11270.63015615 0 -7484.74763718 0 592
0.02550000 0.02547300 64564.16541975 0 -1538.27808705 0 22075.55833042 0 11134.77273062 0 -5070.25005328 0 837
0.02650000 0.02652900 62469.94590355 0 452.38086788 0 17740.63244068 0 9490.48820576 0 7035.24446652 0 723
0.02750000 0.02749970 66682.96549705 0 329.94531450 0 27281.32256716 0 4907.35401055 0 3495.74331942 0 826
0.02850000 0.02848090 61890.53114579 0 3891.93324608 0 20130.48302953 0 2290.63148616 0 15669.66480660 0 831
0.02950000 0.02946900 59567.55739884 0 7840.81145870 0 29441.64386253 0 -4500.64537531 0 15543.66175016 0 996
0.03050000 0.03053250 55027.12916046 0 5554.90785524 0 24359.22532427 0 -1183.56508916 0 18857.27639864 0 1041
0.03150000 0.03150510 50773.03124189 0 3493.28526331 0 30892.45058351 0 5580.27455140 0 24896.56524772 0 1036
0.03250000 0.03246190 50344.75371790 0 -568.00029810 0 25092.87756675 0 13378.91152487 0 14862.93522031 0 1059
0.03350000 0.03345080 48307.11378153 0 -1933.89225282 0 22913.95476569 0 8165.24164821 0 15793.89629106 0 1302
0.03450000 0.03451200 51820.03027674 0 -1400.82624676 0 17356.42276947 0 7838.70771698 0 4862.09034669 0 1339
0.03550000 0.03553350 47814.61677359 0 -270.78699023 0 14984.95223981 0 -536.79295060 0 9927.51286635 0 1365
0.03650000 0.03647120 51046.07477192 0 917.62224104 0 11528.50460117 0 -2365.23681078 0 4685.15459609 0 1308
0.03750000 0.03744890 50225.83694935 0 -1947.62193560 0 12682.46229377 0 -29.30069317 0 6981.02329188 0 1579
0.03850000 0.03847530 50448.83357120 0 1234.91853167 0 12580.70762869 0 1434.45289723 0 2413.72252117 0 1662
0.03950000 0.03950240 49860.45023034 0 2254.72393677 0 14693.08575759 0 -1615.51862499 0 460.31640308 0 1683
0.04050000 0.04050350 47053.94805855 0 3919.45904558 0 12684.01241925 0 -1075.35968764 0 474.06490881 0 1822
0.04150000 0.04152450 45764.57583342 0 1913.10949914 0 17797.98708324 0 -6843.98112760 0 587.25064203 0 1887
0.04250000 0.04250150 44053.34803270 0 -312.09894136 0 21391.51010313 0 -4769.91324257 0 4586.36731405 0 1920
0.04350000 0.04349210 46200.93615452 0 661.52379692 0 26016.75234962 0 -1207.35951520 0 -3033.92772356 0 2005
0.04450000 0.04448520 44239.03091991 0 1460.52822218 0 23973.02263460 0 -2869.93552067 0 1755.29565350 0 2151
0.04550000 0.04548030 44709.27255496 0 1692.68165665 0 24815.95872304 0 1907.01972049 0 -4367.38994612 0 2274
0.04650000 0.04648670 40950.66117202 0 2025.82576579 0 23301.70758084 0 2879.70131116 0 -2289.54639832 0 2311
0.04750000 0.04749250 40664.66302195 0 2371.24908316 0 20678.00949181 0 6079.86891954 0 -4595.47983738 0 2568
0.04850000 0.04851840 36886.34290084 0 -346.52612092 0 14364.34843373 0 7995.20395597 0 -3121.62053612 0 2493
0.04950000 0.04949480 36998.17338151 0 -73.65365831 0 12209.78474727 0 5372.05948319 0 -3625.30059212 0 2644
0.05050000 0.05050630 36908.59827372 0 911.83584409 0 9620.78732422 0 3024.35016259 0 -4448.64973796 0 2829
0.05150000 0.05149060 35262.80791268 0 1419.27273990 0 9396.78312082 0 -1508.73712444 0 -3436.00812702 0 2784
0.05250000 0.05249300 34172.07319480 0 1123.36485913 0 9976.29752950 0 -1857.82538132 0 884.36762068 0 3055
0.05350000 0.05348950 34456.85338913 0 153.14353903 0 12437.87463853 0 -1624.55364204 0 946.67934306 0 3009
0.05450000 0.05448610 34591.71430542 0 199.38378194 0 12960.37764672 0 710.57308863 0 -890.50279586 0 3336
0.05550000 0.05550870 35147.87718106 0 -623.94986265 0 14268.79427054 0 751.54954832 0 66.60291259 0 3349
0.05650000 0.05647670 34560.26890294 0 715.32200875 0 14460.01332016 0 1929.39688895 0 992.33275276 0 3324
0.05750000 0.05747970 34730.22908890 0 1144.43549326 0 13659.15206603 0 771.35350849 0 292.04142495 0 3639
0.05850000 0.05849280 32730.01361041 0 998.21437170 0 11920.35417651 0 1543.65923692 0 871.70752448 0 3846
0.05950000 0.05951020 33589.89035583 0 519.91651311 0 12665.52163680 0 -245.70042389 0 969.38093064 0 3787
0.06050000 0.06049470 32235.85575376 0 201.54067081 0 11687.72463207 0 2009.06226602 0 3744.15092672 0 3930
0.06150000 0.06148310 32550.97411810 0 419.62893107 0 11552.64226928 0 683.46914471 0 1105.57384761 0 4083
0.06250000 0.06249100 32642.32079785 0 -599.76458354 0 11691.37849926 0 -407.93544883 0 2340.49016482 0 4303
0.06350000 0.06350600 32739.53580976 0 -645.36927501 0 11818.26734168 0 -189.74532318 0 -148.49759154 0 4470
0.06450000 0.06451750 33505.74068721 0 351.60278185 0 12124.86001591 0 -773.25019773 0 367.16050545 0 4479
0.06550000 0.06550280 32695.46795698 0 1112.82400590 0 13477.01232276 0 -1057.79787325 0 -536.36777333 0 4636
0.06650000 0.06648880 31595.54320950 0 2162.08179501 0 11989.99909962 0 370.53756452 0 -96.65486300 0 4653
0.06750000 0.06749660 30830.77773427 0 570.20811967 0 12057.31883451 0 720.30566215 0 1913.40845191 0 5220
0.06850000 0.06852730 29809.35576975 0 324.60070331 0 12056.32232528 0 1527.58222128 0 -484.87592676 0 5029
0.06950000 0.06949320 29831.38969614 0 906.41261940 0 12079.57420740 0 1861.19136807 0 -1215.34266139 0 5040
0.07050000 0.07048030 29449.83738289 0 70.74440496 0 11139.97672329 0 1063.98287389 0 -833.26773441 0 5475
0.07150000 0.07148790 28754.38466103 0 22.83755572 0 11645.98196750 0 91.44145885 0 -285.11236408 0 5509
0.07250000 0.07249820 29177.01529936 0 388.57216719 0 11737.32864725 0 -941.72447771 0 -1752.35041510 0 5916
0.07350000 0.07351270 28380.02935891 0 939.90640197 0 11576.22632114 0 988.57591295 0 -3111.52257589 0 5721
0.07450000 0.07449140 28024.60773223 0 914.82980072 0 11273.06606761 0 -909.51176311 0 -2763.72978101 0 6028
0.07550000 0.07549160 27102.94741433 0 805.80726163 0 10383.49334703 0 -198.63972171 0 -3028.72373089 0 6183
0.07650000 0.07648840 26749.85097586 0 136.17409401 0 10788.72936307 0 417.65916448 0 -2716.10771196 0 6330
0.07750000 0.07749960 26088.27956795 0 408.91424234 0 10307.91365782 0 1211.00231006 0 -3135.89276281 0 6583
0.07850000 0.07848650 26538.81246482 0 428.62740945 0 10325.16433988 0 1063.04947691 0 -2852.17551166 0 6549
0.07950000 0.07947320 25242.79684480 0 276.00205522 0 9415.25175861 0 579.38707695 0 -3890.64885640 0 6828
0.08050000 0.08048110 25370.46074996 0 664.29962875 0 8787.28485652 0 1015.87694425 0 -1701.96026485 0 7147
0.08150000 0.08149960 25155.76837172 0 64.96332273 0 8614.23549193 0 1403.93757003 0 -2877.11038715 0 7386
0.08250000 0.08250610 24109.76584611 0 323.71823903 0 7487.51571839 0 1111.48425459 0 -1595.66594659 0 7227
0.08350000 0.08350160 23523.26480046 0 873.76254797 0 7059.34891765 0 1046.22729381 0 -2439.97500331 0 7798
0.08450000 0.08449610 22393.55549922 0 1351.27759319 0 6129.20719893 0 1292.99287535 0 -1852.30029124 0 7371
0.08550000 0.08548940 21482.19244339 0 1074.92343804 0 6767.49350776 0 659.87069882 0 -1758.66164024 0 8256
0.08650000 0.08650700 20632.28079031 0 421.96962054 0 5650.86062212 0 197.58563639 0 -2161.61675737 0 8037
0.08750000 0.08749060 20539.60543158 0 -74.65625732 0 5904.59401766 0 -487.99167896 0 -1561.54104150 0 8155
0.08850000 0.08849210 20541.81989655 0 64.62174151 0 5979.98547735 0 64.48809855 0 -1616.18296448 0 8718
0.08950000 0.08949900 21162.31297938 0 -125.52583924 0 6539.25967627 0 287.55934787 0 -7.61186900 0 8571
0.09050000 0.09049190 20536.28373414 0 655.92784395 0 6438.60117134 0 456.22517906 0 -717.93175571 0 8932
0.09150000 0.09150830 20019.98122784 0 1013.30484320 0 5696.25715388 0 1654.27176185 0 2028.31703888 0 9285
0.09250000 0.09250820 19582.29222776 0 527.24860661 0 6231.70370978 0 574.69130399 0 2239.61021339 0 9204
0.09350000 0.09350330 19402.80984245 0 -58.72340335 0 6193.02807919 0 -35.00050454 0 2157.90752856 0 9349
0.09450000 0.09448040 19312.90256492 0 183.40641723 0 7530.23274754 0 -488.40024775 0 2153.76647907 0 9564
0.09550000 0.09549270 19108.39672552 0 505.00098435 0 7984.54130717 0 -2087.50968736 0 2272.50609043 0 10155
0.09650000 0.09649430 19176.27007666 0 330.51553923 0 8402.57693070 0 -956.06313835 0 2845.73141861 0 9913
0.09750000 0.09749140 18994.68394964 0 268.84379722 0 9040.45356350 0 22.52598050 0 2548.63879908 0 10476
0.09850000 0.09850240 18781.09880388 0 358.40672545 0 8866.06444761 0 1518.76865072 0 2033.12242785 0 10575
0.09950000 0.09950330 18438.85324374 0 33.16194500 0 8353.27186828 0 825.81384534 0 779.39533801 0 10882
0.10050000 0.10051200 18006.58968282 0 436.72792229 0 7967.25740813 0 1305.43816844 0 706.81292712 0 10875
0.10150000 0.10150300 17415.43826075 0 384.99137734 0 7167.41480788 0 1.82706646 0 -387.99640630 0 11118
0.10250000 0.10250800 17212.03965383 0 721.26452548 0 7039.20835880 0 18.67314364 0 610.70625493 0 11575
0.10350000 0.10349800 16821.18658774 0 284.51556577 0 6117.21587116 0 32.62593376 0 -101.63430891 0 11364
0.10450000 0.10450100 16381.61529244 0 105.47396971 0 5836.03418239 0 515.34253573 0 -135.90614375 0 12093
0.10550000 0.10551000 16289.82571969 0 186.51995496 0 5913.31900962 0 558.61761005 0 -828.70593659 0 12067
0.10650000 0.10649700 16122.96578467 0 272.84976434 0 5933.71423194 0 638.94621938 0 -1484.37800984 0 12054
0.10750000 0.10749900 15751.26784051 0 594.53401730 0 5371.05190163 0 204.50916110 0 -671.99046557 0 12807
0.10850000 0.10850100 15333.06613211 0 106.64110347 0 5027.03476951 0 280.73658131 0 -248.52275948 0 12736
0.10950000 0.10950300 15532.03580910 0 -446.84027654 0 4846.09083733 0 1208.55532628 0 -33.21243480 0 12933
0.11050000 0.11050200 15259.87806506 0 85.44413412 0 4387.98447028 0 1156.24966384 0 -438.80398319 0 13428
0.11150000 0.11150900 15327.86213944 0 328.10620135 0 3712.36228217 0 777.09450891 0 -996.25789190 0 13453
0.11250000 0.11250000 15016.84053529 0 267.75538769 0 3452.79377145 0 550.84815973 0 433.75389584 0 13668
0.11350000 0.11349100 14902.57414316 0 316.91097373 0 3281.50490650 0 -392.11752559 0 -204.02862220 0 13791
0.11450000 0.11448600 14679.90969106 0 17.51032808 0 3228.83385734 0 210.77388248 0 828.68047024 0 14205
0.11550000 0.11549300 14932.35869692 0 44.89927365 0 4093.98102937 0 -413.99090327 0 88.59609282 0 14776
0.11650000 0.11649800 14674.59497514 0 22.60625486 0 4001.49390016 0 -263.69073725 0 -66.39519578 0 14553
0.11750000 0.11747300 14669.94459872 0 285.90957147 0 4876.20756083 0 -413.93997058 0 622.16721835 0 14568
0.11850000 0.11849100 14406.86616103 0 507.70595330 0 4930.17407200 0 -292.75558990 0 102.81085415 0 16015
0.11950000 0.11950300 14077.90739067 0 322.25337045 0 5260.92655898 0 -109.55545009 0 1160.78931701 0 15270
0.12050000 0.12050700 14086.54380403 0 150.83163761 0 5111.26194441 0 360.53371905 0 335.26778104 0 15999
0.12150000 0.12150000 13767.21795626 0 24.26101380 0 5152.06346136 0 336.20449972 0 1430.50007727 0 15670
0.12250000 0.12250700 13850.48183889 0 69.65832062 0 4708.69435865 0 452.77282818 0 763.01715514 0 16887
0.12350000 0.12352200 13681.07526917 0 280.71775836 0 4315.81505711 0 726.12749054 0 474.09591132 0 16407
0.12450000 0.12449800 13428.40481681 0 125.72403385 0 4103.40357779 0 202.09317982 0 658.70699748 0 16306
0.12550000 0.12549900 13327.86810745 0 116.49746558 0 3830.84723005 0 -18.79405342 0 582.28581159 0 17523
0.12650000 0.12650100 13399.72749553 0 -103.43400459 0 3517.41185909 0 -25.46667925 0 -174.41236778 0 17154
0.12750000 0.12750600 13344.14442494 0 121.48997684 0 3538.11710650 0 -171.50920421 0 -93.20206922 0 18007
0.12850000 0.12850300 13351.45215932 0 100.47237915 0 3568.34455325 0 263.03747009 0 -147.15894747 0 17496
0.12950000 0.12949900 13235.08202547 0 133.29639679 0 3428.92183914 0 -19.30216241 0 -31.47994814 0 18405
0.13050000 0.13049000 13077.41212005 0 383.81217475 0 3660.11198135 0 267.86057478 0 -133.53113008 0 18100
0.13150000 0.13148800 12661.20343012 0 415.62960734 0 3416.60941394 0 140.21770704 0 -21.75578959 0 19059
0.13250000 0.13249300 12356.49305111 0 351.81094156 0 3680.71757784 0 188.22620022 0 58.02175013 0 18957
0.13350000 0.13349100 12112.79118185 0 201.98577827 0 3780.20241633 0 -144.84704605 0 336.79908357 0 19468
0.13450000 0.13450700 12135.93234073 0 72.06256523 0 3751.97906037 0 201.16199731 0 -154.70473683 0 19953
0.13550000 0.13551000 12010.15073079 0 71.04479714 0 3754.82464785 0 57.41852987 0 259.65487486 0 19956
0.13650000 0.13649900 12067.39465010 0 98.76303364 0 3652.85960859 0 -129.37347211 0 -50.64979627 0 19723
0.13750000 0.13749600 11990.22054611 0 -75.60116952 0 3811.91355461 0 186.65393010 0 30.96918179 0 20946
0.13850000 0.13851100 11974.71929137 0 33.72995526 0 3418.60243241 0 92.66727593 0 -438.46849175 0 20955
0.13950000 0.13949800 11962.87190381 0 105.60229796 0 3597.69728635 0 -82.93370591 0 -323.21887718 0 20506
0.14050000 0.14048300 11757.14810868 0 173.69155943 0 3453.73491906 0 -50.53121167 0 -588.25711636 0 21447
0.14150000 0.14148400 11701.23286835 0 244.15804904 0 3478.51478200 0 157.85702771 0 -357.16662507 0 21771
0.14250000 0.14249400 11344.26111619 0 322.38513112 0 3355.82235068 0 352.84177500 0 -514.99486473 0 22470
0.14350000 0.14350900 11026.92828689 0 177.90457902 0 2983.53757331 0 372.35453302 0 -515.24842097 0 22519
0.14450000 0.14449900 10960.45004868 0 103.95396096 0 2973.06315403 0 356.62851008 0 -510.03999938 0 22218
0.14550000 0.14550500 10847.62305878 0 275.92012002 0 2832.02388049 0 11.70521891 0 -179.02731276 0 23559
0.14650000 0.14650700 10611.26214087 0 186.79565585 0 2583.01836764 0 388.91873095 0 287.62910351 0 23044
0.14750000 0.14750500 10575.54282101 0 95.92265015 0 2725.45275411 0 -77.09305457 0 204.13713098 0 23649
0.14850000 0.14849900 10394.11170653 0 320.82393332 0 3084.08535499 0 165.70841324 0 494.07924315 0 23640
0.14950000 0.14949500 10153.70939007 0 342.91986473 0 3152.42374377 0 18.01699767 0 319.70341405 0 24457
0.15050000 0.15050000 9856.92679563 0 267.16634001 0 3128.65146238 0 25.31698142 0 982.87588013 0 24591
0.15150000 0.15149900 9835.54613640 0 14.39834047 0 3280.36445705 0 359.47631203 0 776.26962071 0 25020
0.15250000 0.15250500 9616.70163636 0 152.48473570 0 3008.15135138 0 140.75139309 0 1025.86418124 0 25297
0.15350000 0.15350100 9598.65374691 0 153.15904029 0 3079.46819554 0 138.07410495 0 863.08439792 0 25452
0.15450000 0.15450400 9463.20599740 0 16.90157167 0 2747.03271518 0 46.06530018 0 579.24313673 0 26061
0.15550000 0.15549900 9552.71467124 0 39.39356013 0 2792.70605506 0 66.25070194 0 579.43690241 0 26128
0.15650000 0.15649500 9382.45553250 0 31.22749913 0 2669.16105473 0 221.98350413 0 79.11785061 0 26331
0.15750000 0.15749700 9486.19214373 0 61.63166019 0 2606.83493833 0 -29.21266819 0 28.58741400 0 27345
0.15850000 0.15849900 9428.82642884 0 -34.03256190 0 2345.22911984 0 50.41273779 0 -241.58262629 0 26980
0.15950000 0.15949700 9341.47685835 0 82.21943024 0 2306.83029737 0 -44.25209626 0 -175.98353067 0 27777
0.16050000 0.16050000 9405.19808768 0 88.28518194 0 2273.54688896 0 -7.08058564 0 -410.70906620 0 28224
0.16150000 0.16150500 9155.26249955 0 164.72186909 0 2438.67954131 0 -15.59082985 0 -357.23195179 0 28075
0.16250000 0.16249700 9068.12330322 0 300.85831720 0 2167.31900465 0 18.26081026 0 -396.88637589 0 28590
0.16350000 0.16349900 8844.31840166 0 114.52216283 0 2262.64064902 0 62.64643876 0 -438.83387847 0 29163
0.16450000 0.16449100 8724.53799178 0 134.71033267 0 2179.63142985 0 228.13971673 0 -354.32878822 0 28996
0.16550000 0.16550500 8713.25529279 0 64.54146715 0 1962.49206783 0 365.28817532 0 -343.12802443 0 30777
0.16650000 0.16650700 8550.37032238 0 23.47853261 0 1939.94881450 0 299.66029166 0 -62.25979318 0 29211
0.16750000 0.16749900 8595.35717812 0 121.01829580 0 1856.95066766 0 -67.24721117 0 -214.08450760 0 30922
0.16850000 0.16850800 8352.23106975 0 191.74719951 0 2069.72753370 0 52.46720766 0 0.77950938 0 30867
0.16950000 0.16949900 8367.26728685 0 187.43120730 0 1975.91172551 0 -166.30853324 0 298.07030582 0 30852
0.17050000 0.17049200 8246.71181423 0 42.41453324 0 2180.26255236 0 -9.64109397 0 385.06666915 0 31257
0.17150000 0.17149500 8262.93277009 0 14.05930588 0 2148.77286058 0 211.12708964 0 440.92654786 0 32608
0.17250000 0.17250900 8265.95551476 0 99.17636353 0 2266.68204757 0 82.24146416 0 69.30245610 0 32361
0.17350000 0.17350400 8257.09765491 0 61.72079241 0 2273.59117826 0 -141.89627148 0 404.50192090 0 32508
0.17450000 0.17449800 8243.26832121 0 119.88670421 0 2386.13028772 0 -197.91337720 0 287.01791118 0 32791
0.17550000 0.17549800 8036.51479987 0 211.84568352 0 2337.66672199 0 -209.88698926 0 161.13665032 0 33633
0.17650000 0.17650100 8070.57327101 0 125.14384403 0 2377.73746551 0 -124.64558941 0 -30.83133135 0 33984
0.17750000 0.17750300 7928.33818639 0 -0.05467370 0 2546.78972084 0 -135.02478670 0 -22.55476855 0 34069
0.17850000 0.17849800 7967.12454023 0 67.48094795 0 2551.88299025 0 70.29974040 0 -266.65258414 0 34536
