### header ###
fiducial parameters:
Omega_m = 0.31
Omega_nu = 0
Omega_de = 0.69
Omega_k = 0
H_0 = 100
w_de = -1
zeff = 0
beta = 0
fgrowth = 0
b_1 = 2
gamma = 0.55
Lx = 3500 Ly = 3500 Lz = 3500
nx = 700 ny = 700 nz = 700
xoffset = -685.467585 yoffset = -31.7331281 zoffset = 572.489161
bins = 400 dk = 0.001
kx_ny = 0.628318531 ky_ny = 0.628318531 kz_ny = 0.628318531
############################
A(data) = 8.00975696 (not used)
A(ran) = 8.00804486 (used)
Ngal = 476048
weighted Ngal = 0
Nran = 23820508
weighted Nran = 0
SN(data) = 3484.42238
SN(ran) = 69.752975
SN(data+ran) = 3554.17535
############################
13 columns: k_central k_mean P_0(k) sigma^{lin}_{P_0(k)} P^img_1(k) sigma^{lin}_{P_1(k)} P_2(k) sigma^{lin}_{P_2(k)} P^img_3(k) sigma^{lin}_{P_3(k)} P_4(k) sigma^{lin}_{P_4(k)} N_modes
### header ###
0.00050000 0 0 0 0 0 0 0 0 0 0 0 0
0.00150000 0.00179520 8779.75567565 0 -16066.49692810 0 7612.26760212 0 -19419.75049942 0 -40915.56190234 0 3
0.00250000 0.00253879 25666.64543886 0 -30650.52028622 0 -2778.71063649 0 -35445.61199544 0 -42193.86180266 0 6
0.00350000 0.00331552 45816.17286708 0 -44605.52487141 0 -55559.59726099 0 38834.62917593 0 -16680.45733929 0 7
0.00450000 0.00420575 65685.01686114 0 -35911.53542380 0 -48836.48163111 0 1626.24770774 0 1685.08604182 0 24
0.00550000 0.00557378 120162.40509436 0 -29534.20849801 0 -72931.18911546 0 -57360.95378573 0 -60388.57028415 0 45
0.00650000 0.00659388 91695.01509263 0 5499.04797653 0 -4552.98425473 0 -109621.10897402 0 -19090.01666632 0 40
0.00750000 0.00754703 112859.09964398 0 33058.52948778 0 -29226.84076104 0 -92003.04716908 0 -16798.15615211 0 57
0.00850000 0.00846663 80202.27410062 0 15966.73528148 0 -3330.95390914 0 -52686.10752405 0 -17560.59643912 0 75
0.00950000 0.00948925 81592.73665134 0 -6663.26971424 0 -2467.74439396 0 -21276.57937151 0 -57102.52572447 0 112
0.01050000 0.01054430 82828.62954760 0 1600.84779460 0 46252.97608117 0 -25214.00880027 0 -55788.13004525 0 105
0.01150000 0.01145670 87629.81103546 0 12408.86514751 0 36182.03231912 0 -15625.48623057 0 -40741.83712594 0 144
0.01250000 0.01249090 76454.40287275 0 6697.84858465 0 52107.35710578 0 4355.22146114 0 1923.87179886 0 169
0.01350000 0.01339930 71179.43660590 0 436.86632635 0 49160.34713205 0 15795.66786303 0 -12799.49676711 0 180
0.01450000 0.01448870 87627.70729375 0 -9096.00341712 0 58661.50905893 0 34920.56235254 0 2583.83771968 0 267
0.01550000 0.01550050 83292.89212725 0 -2327.12586876 0 49878.94101278 0 28905.63261805 0 10802.78014326 0 238
0.01650000 0.01653350 93550.29383924 0 5451.07159309 0 41013.99486998 0 12094.63256915 0 24920.37074608 0 315
0.01750000 0.01747870 83515.22440960 0 3860.50998824 0 47375.37764804 0 7794.23018819 0 27478.07777919 0 297
0.01850000 0.01844180 79895.34925664 0 11589.40238768 0 44347.42897988 0 -6733.87792961 0 23963.61115850 0 388
0.01950000 0.01947590 75033.38070553 0 8093.91373173 0 46440.87343334 0 11974.38712162 0 27238.80483986 0 399
0.02050000 0.02045430 68484.98636128 0 -320.73424749 0 51116.05186477 0 3344.07461405 0 22337.19736589 0 462
0.02150000 0.02154770 65503.65218062 0 3783.62376470 0 32255.01087569 0 20264.56888309 0 13143.29245273 0 571
0.02250000 0.02255340 67127.40861527 0 -1566.86682974 0 32099.00181900 0 23020.58125370 0 6600.76644064 0 510
0.02350000 0.02348930 62387.89997665 0 2523.99180403 0 15151.59072833 0 12397.57137619 0 10668.01887789 0 555
0.02450000 0.02439640 63648.48415725 0 -1362.52707521 0 9702.33499651 0 9643.54095172 0 4063.55428077 0 592
0.02550000 0.02547300 58369.75329996 0 868.68035088 0 3035.01281139 0 4885.79619413 0 -828.29515334 0 837
0.02650000 0.02652900 58353.36625923 0 980.76660225 0 -1979.55452038 0 730.11574194 0 -2975.39941457 0 723
0.02750000 0.02749970 56138.79057225 0 850.48741397 0 2438.42487784 0 -1557.59929386 0 -2814.97250027 0 826
0.02850000 0.02848090 56715.76941855 0 2093.13442837 0 -2844.29201639 0 -3246.36134753 0 -6342.34945169 0 831
0.02950000 0.02946900 55268.06294851 0 2542.48258648 0 3401.98287285 0 -8517.48551767 0 -7448.81794315 0 996
0.03050000 0.03053250 55303.49438793 0 792.97222270 0 4271.01643089 0 -7551.96772116 0 -3660.52165737 0 1041
0.03150000 0.03150510 52461.11788374 0 568.59156025 0 15091.35728132 0 -1718.09264211 0 -674.77072633 0 1036
0.03250000 0.03246190 55021.15010506 0 2141.03330553 0 17261.31149928 0 -3470.36555093 0 3248.93012689 0 1059
0.03350000 0.03345080 53834.08616125 0 1763.10164250 0 21491.60391949 0 2483.50031217 0 5760.19982970 0 1302
0.03450000 0.03451200 52263.36616248 0 1972.29107530 0 23931.83358627 0 2183.69497306 0 7583.72314874 0 1339
0.03550000 0.03553350 51509.00867258 0 1817.79892710 0 24668.69680295 0 4728.08199941 0 11387.44318298 0 1365
0.03650000 0.03647120 51464.94081981 0 196.93569092 0 28639.01103642 0 964.60543695 0 10137.49950653 0 1308
0.03750000 0.03744890 52545.71044535 0 -2087.84185710 0 26306.62581337 0 5361.96152295 0 6652.50741451 0 1579
0.03850000 0.03847530 51219.24593208 0 -109.25350779 0 23630.88779770 0 3502.79639033 0 2578.79981189 0 1662
0.03950000 0.03950240 51232.53272186 0 2618.32801149 0 20985.82012177 0 3288.58012206 0 -615.54153918 0 1683
0.04050000 0.04050350 47106.98449443 0 2473.26948404 0 17573.32961267 0 567.64930541 0 1763.97635616 0 1822
0.04150000 0.04152450 43966.65172937 0 2405.15254176 0 14590.99892276 0 3582.98216666 0 -6660.04766772 0 1887
0.04250000 0.04250150 43662.71641310 0 717.57633408 0 13076.19416432 0 1780.41875851 0 -9199.64037742 0 1920
0.04350000 0.04349210 42445.53574578 0 247.27712294 0 7209.76645031 0 1339.74023073 0 -6736.33598572 0 2005
0.04450000 0.04448520 42082.58493823 0 10.47629050 0 8750.18149606 0 22.84530635 0 -5858.84317151 0 2151
0.04550000 0.04548030 43074.44379548 0 421.22223861 0 9036.06892287 0 -94.70546949 0 -7001.78390092 0 2274
0.04650000 0.04648670 41453.78761178 0 2856.30548882 0 13326.87159822 0 -2890.33074298 0 -4884.47858747 0 2311
0.04750000 0.04749250 38981.66964952 0 4268.63588106 0 14525.00786684 0 -2165.30384153 0 -1915.34610875 0 2568
0.04850000 0.04851840 36423.51972342 0 2643.92722647 0 15507.23380151 0 -636.38629788 0 1274.34708035 0 2493
0.04950000 0.04949480 35530.97961979 0 126.23446802 0 17627.47328103 0 1445.08232906 0 2296.76555411 0 2644
0.05050000 0.05050630 34226.99192590 0 1251.92562259 0 15714.61844536 0 2834.98019122 0 -1291.09950780 0 2829
0.05150000 0.05149060 34847.59573198 0 -938.53564816 0 13447.00632250 0 3132.98074138 0 329.94420727 0 2784
0.05250000 0.05249300 34623.82404740 0 -592.00509831 0 13303.95188584 0 1913.68526003 0 -911.79598372 0 3055
0.05350000 0.05348950 34960.09055214 0 63.64106570 0 12914.75966847 0 1267.01720132 0 -1016.56010669 0 3009
0.05450000 0.05448610 34676.08542054 0 549.70106688 0 10875.87963171 0 -307.79623594 0 -1993.84889172 0 3336
0.05550000 0.05550870 33456.46884177 0 1731.72267396 0 12380.40927272 0 895.11663362 0 927.29613124 0 3349
0.05650000 0.05647670 33693.63803938 0 733.98219776 0 12785.32419134 0 1493.98878778 0 3189.23922379 0 3324
0.05750000 0.05747970 32772.30989122 0 -937.12503398 0 12389.37785582 0 1835.34856194 0 3454.28853530 0 3639
0.05850000 0.05849280 33909.76981984 0 -723.01284557 0 11926.66540165 0 2497.94969606 0 397.75223169 0 3846
0.05950000 0.05951020 33378.18750530 0 712.73219197 0 10764.21523592 0 1538.46631658 0 1764.88428679 0 3787
0.06050000 0.06049470 33105.80831476 0 971.33630320 0 9746.33641534 0 -345.02139198 0 1438.39464487 0 3930
0.06150000 0.06148310 31939.56034161 0 103.84965966 0 9755.95826561 0 1213.05069016 0 4237.85481806 0 4083
0.06250000 0.06249100 32445.12269283 0 162.85618236 0 9686.35763180 0 695.74835293 0 2325.95220233 0 4303
0.06350000 0.06350600 31860.28249591 0 824.75311663 0 9976.64077157 0 -1345.19888687 0 1120.05423400 0 4470
0.06450000 0.06451750 31538.63145993 0 1157.81086164 0 11840.41199132 0 399.73860677 0 1971.82603765 0 4479
0.06550000 0.06550280 31172.58040142 0 42.57430688 0 11017.92648681 0 -849.15652053 0 3726.21376052 0 4636
0.06650000 0.06648880 32302.84331891 0 -514.37481454 0 12640.83035246 0 -697.07924638 0 1827.78616409 0 4653
0.06750000 0.06749660 31865.70793507 0 242.57138489 0 13463.17191674 0 -1113.15617564 0 2079.19437142 0 5220
0.06850000 0.06852730 31336.56153199 0 1748.15400399 0 13845.94218572 0 44.06165228 0 189.00347742 0 5029
0.06950000 0.06949320 29945.54536502 0 1035.41849032 0 13291.21871230 0 142.14650602 0 2558.89177186 0 5040
0.07050000 0.07048030 29138.48360899 0 703.11919956 0 12179.88947026 0 3225.43465362 0 2147.52168788 0 5475
0.07150000 0.07148790 28400.62388308 0 638.94843384 0 10840.69178344 0 2969.34285289 0 621.46966189 0 5509
0.07250000 0.07249820 27963.93139223 0 -128.27620472 0 9302.42476871 0 2999.01668340 0 1569.13665632 0 5916
0.07350000 0.07351270 27498.34013360 0 355.49913295 0 9760.66400366 0 511.75399526 0 -44.33524942 0 5721
0.07450000 0.07449140 26863.23158201 0 1203.57278011 0 9931.06708261 0 -334.61451388 0 2108.54710451 0 6028
0.07550000 0.07549160 26017.97030535 0 1368.79401106 0 10941.59387951 0 -2572.31142954 0 2624.31813922 0 6183
0.07650000 0.07648840 25681.15018437 0 344.63939677 0 11147.06301117 0 -1221.52101864 0 4076.13244176 0 6330
0.07750000 0.07749960 26318.91609392 0 -563.04432552 0 12044.25349123 0 1387.14085328 0 3357.35033151 0 6583
0.07850000 0.07848650 26044.21171517 0 -350.18995320 0 11983.68787447 0 2295.49223675 0 4267.30720208 0 6549
0.07950000 0.07947320 26830.45750054 0 607.45984929 0 11469.71055639 0 733.76628743 0 2406.71373956 0 6828
0.08050000 0.08048110 25858.52882796 0 461.72037387 0 10553.51996694 0 1476.45022527 0 3316.13913853 0 7147
0.08150000 0.08149960 24590.08329674 0 1309.73423047 0 9225.44996657 0 1347.82302785 0 2823.32103318 0 7386
0.08250000 0.08250610 23881.45450835 0 767.87015510 0 8217.68017855 0 713.61354903 0 2448.41211482 0 7227
0.08350000 0.08350160 22984.04258179 0 186.14128146 0 8058.39371371 0 192.01293531 0 1148.86442318 0 7798
0.08450000 0.08449610 23056.67703260 0 74.03033880 0 7357.80343314 0 119.72061933 0 -411.67125122 0 7371
0.08550000 0.08548940 22718.30678615 0 47.62129398 0 7072.50283953 0 -563.68652035 0 -1179.13615924 0 8256
0.08650000 0.08650700 22316.49211848 0 411.92812916 0 7028.20246794 0 -365.68345732 0 -1013.83631479 0 8037
0.08750000 0.08749060 22301.98737297 0 439.06750452 0 7322.59344021 0 418.06441157 0 -1039.92714099 0 8155
0.08850000 0.08849210 22188.16387383 0 628.09201936 0 7297.65856472 0 612.75352779 0 -1310.28784671 0 8718
0.08950000 0.08949900 21691.90227546 0 523.73314348 0 6912.24201011 0 901.32267168 0 -1037.37829182 0 8571
0.09050000 0.09049190 20740.23595730 0 329.94863620 0 6293.11082323 0 581.66908309 0 -1327.53852878 0 8932
0.09150000 0.09150830 20712.66586850 0 490.55935109 0 6560.73998642 0 522.62701823 0 -980.16758948 0 9285
0.09250000 0.09250820 20441.50463369 0 91.74949093 0 6483.42194221 0 -96.25803087 0 -1769.60109717 0 9204
0.09350000 0.09350330 20014.11289569 0 456.91719936 0 5622.60404918 0 -90.95925911 0 -2017.70975170 0 9349
0.09450000 0.09448040 19419.63977618 0 754.93546525 0 6389.89401446 0 -598.41154545 0 -1493.05871250 0 9564
0.09550000 0.09549270 19247.68657174 0 208.49630527 0 5457.69284333 0 738.60378614 0 -1548.55320449 0 10155
0.09650000 0.09649430 18689.30923114 0 552.47468424 0 5495.42732632 0 1058.23965901 0 -826.10615472 0 9913
0.09750000 0.09749140 18451.69714053 0 767.05301753 0 5510.65177294 0 -75.31151750 0 -1187.30753495 0 10476
0.09850000 0.09850240 17655.48626282 0 674.67107541 0 5726.78355340 0 470.68674251 0 -148.49205538 0 10575
0.09950000 0.09950330 17331.39931538 0 188.53511808 0 5652.31109667 0 425.44522330 0 809.00273457 0 10882
0.10050000 0.10051200 17274.15539607 0 -38.63798469 0 4996.02118770 0 584.26997219 0 501.69368093 0 10875
0.10150000 0.10150300 17027.90689210 0 393.00220435 0 5961.68292443 0 634.18069078 0 864.30346088 0 11118
0.10250000 0.10250800 16809.33920018 0 272.28839748 0 5363.35663588 0 -262.02656683 0 696.19678209 0 11575
0.10350000 0.10349800 16388.59085707 0 494.20214596 0 5469.60666484 0 144.97769948 0 1219.59443412 0 11364
0.10450000 0.10450100 16358.47413356 0 102.73523017 0 4973.59972994 0 411.61146067 0 441.72043355 0 12093
0.10550000 0.10551000 15880.92476414 0 221.37341903 0 4843.07916498 0 221.62476080 0 -41.26987630 0 12067
0.10650000 0.10649700 15681.06930116 0 266.51418008 0 4656.21153901 0 31.15962578 0 -77.30243223 0 12054
0.10750000 0.10749900 15726.79800266 0 334.96882827 0 4338.88978203 0 282.45279166 0 189.42533300 0 12807
0.10850000 0.10850100 15268.95737141 0 420.44828311 0 4404.79225935 0 135.43114102 0 628.01783478 0 12736
0.10950000 0.10950300 15188.68301647 0 -195.20397932 0 3975.07533314 0 193.76789879 0 233.56183419 0 12933
0.11050000 0.11050200 15167.64559932 0 -147.03604466 0 4484.86731244 0 342.74381476 0 -62.31415829 0 13428
0.11150000 0.11150900 15449.54698920 0 313.84283252 0 4568.86196852 0 -67.42802223 0 -280.05341887 0 13453
0.11250000 0.11250000 15117.93086088 0 395.99948267 0 4810.60403628 0 -422.84765589 0 -62.47016735 0 13668
0.11350000 0.11349100 14489.79787392 0 582.00568177 0 4574.91853019 0 196.12187505 0 580.49541666 0 13791
0.11450000 0.11448600 14480.71856757 0 136.28371003 0 4746.36240768 0 -223.23024790 0 381.63757015 0 14205
0.11550000 0.11549300 14267.24414507 0 -23.56766482 0 5081.55489692 0 125.61995400 0 -285.01714209 0 14776
0.11650000 0.11649800 14483.59737202 0 -46.66818826 0 5469.97205156 0 73.02342158 0 -393.06088767 0 14553
0.11750000 0.11747300 14151.98124370 0 225.59640371 0 5260.28436414 0 -370.57299596 0 -159.83565215 0 14568
0.11850000 0.11849100 14260.26858043 0 370.88855722 0 5820.45542137 0 -300.19729941 0 -102.93253900 0 16015
0.11950000 0.11950300 14253.73590879 0 192.14580321 0 5812.87087887 0 317.35608118 0 371.63704638 0 15270
0.12050000 0.12050700 13996.52580325 0 -61.31288796 0 5583.24193445 0 727.42184531 0 242.43187360 0 15999
0.12150000 0.12150000 14009.36970004 0 32.28800640 0 5563.47783465 0 193.91405348 0 237.62537740 0 15670
0.12250000 0.12250700 14026.64252676 0 261.45744934 0 5177.23085568 0 572.23103342 0 574.69130399 0 16887
0.12350000 0.12352200 13666.01690741 0 216.91459382 0 5250.07568066 0 594.21513434 0 1144.96696485 0 16407
0.12450000 0.12449800 13577.21686237 0 74.65625732 0 4513.89894812 0 414.53566165 0 527.03823244 0 16306
0.12550000 0.12549900 13454.09261039 0 296.74384130 0 4793.84053651 0 343.00512163 0 1237.07763501 0 17523
0.12650000 0.12650100 13375.36838092 0 281.62458176 0 4301.59819204 0 1.43880432 0 720.27687410 0 17154
0.12750000 0.12750600 12985.29037756 0 83.90596675 0 4438.39676518 0 -144.57134516 0 957.12497430 0 18007
0.12850000 0.12850300 12865.37709978 0 135.45660737 0 4639.65841341 0 40.70507701 0 949.19829696 0 17496
0.12950000 0.12949900 12827.73119539 0 198.12485861 0 4598.38078648 0 462.27288288 0 810.66469053 0 18405
0.13050000 0.13049000 12675.92962213 0 29.62356216 0 4180.61089875 0 769.53986169 0 631.29413570 0 18100
0.13150000 0.13148800 12764.28677418 0 -141.08909900 0 3452.32873380 0 605.57755407 0 49.47103657 0 19059
0.13250000 0.13249300 12799.93966010 0 -107.82861031 0 3443.05012561 0 236.75398543 0 233.61055242 0 18957
0.13350000 0.13349100 12878.33171982 0 183.21708047 0 2898.08137036 0 216.53370585 0 -337.65829597 0 19468
0.13450000 0.13450700 12550.81235168 0 266.96260924 0 3119.09604606 0 -165.33638312 0 489.42665226 0 19953
0.13550000 0.13551000 12494.78638810 0 277.02403080 0 3298.77773322 0 -3.68351888 0 -66.79889274 0 19956
0.13650000 0.13649900 12123.64206018 0 354.79382586 0 3610.84013591 0 42.95441979 0 413.16933677 0 19723
0.13750000 0.13749600 11915.48235359 0 481.66605980 0 3705.18741569 0 -311.05482113 0 653.75766829 0 20946
0.13850000 0.13851100 11630.48071275 0 311.20208305 0 3789.25957804 0 150.74416624 0 724.96046750 0 20955
0.13950000 0.13949800 11410.91651160 0 -153.54878612 0 3638.64274353 0 320.08319479 0 1124.83747833 0 20506
0.14050000 0.14048300 11684.07076488 0 -165.43381958 0 3648.06529195 0 242.29679124 0 821.99832221 0 21447
0.14150000 0.14148400 11678.97749546 0 -205.64185993 0 3686.50840372 0 191.68851619 0 511.00993503 0 21771
0.14250000 0.14249400 11829.00749675 0 99.57884253 0 3472.62430520 0 17.81127387 0 211.32306979 0 22470
0.14350000 0.14350900 11593.27770136 0 457.62250645 0 3469.03687196 0 -34.08349460 0 669.76824998 0 22519
0.14450000 0.14449900 11187.25555026 0 342.72831351 0 3483.68555769 0 53.49770893 0 741.95094994 0 22218
0.14550000 0.14550500 11025.92070533 0 235.55928159 0 3375.88540326 0 226.57630446 0 950.01211283 0 23559
0.14650000 0.14650700 10906.76034563 0 149.28151213 0 3322.70502715 0 485.20034588 0 1207.45916612 0 23044
0.14750000 0.14750500 10727.43297287 0 113.85450165 0 3122.15200771 0 467.23217716 0 1306.77791975 0 23649
0.14850000 0.14849900 10652.70585267 0 -7.10335034 0 2882.23687354 0 488.94832783 0 1231.89578700 0 23640
0.14950000 0.14949500 10498.51265724 0 195.94250339 0 2785.36510370 0 56.96932566 0 726.84276272 0 24457
0.15050000 0.15050000 10365.71119337 0 353.33338622 0 2971.56839018 0 -281.37877615 0 672.70463052 0 24591
0.15150000 0.15149900 10047.33756553 0 319.88942910 0 2822.20272838 0 -598.01404899 0 289.98197254 0 25020
0.15250000 0.15250500 9789.29703564 0 355.89220048 0 2822.26916232 0 -141.03041568 0 -7.61717264 0 25297
0.15350000 0.15350100 9579.96366261 0 275.67320717 0 3108.47768656 0 -9.17617812 0 301.61677145 0 25452
0.15450000 0.15450400 9335.36493505 0 50.41893829 0 2720.16018285 0 260.93926454 0 -316.76592627 0 26061
0.15550000 0.15549900 9379.42171550 0 11.72979947 0 2622.52442260 0 399.98219791 0 72.85545441 0 26128
0.15650000 0.15649500 9373.77482984 0 123.72769369 0 2469.91456962 0 -30.34580991 0 -261.81176373 0 26331
0.15750000 0.15749700 9320.08512680 0 102.34194119 0 2493.85293588 0 175.58935590 0 21.74294569 0 27345
0.15850000 0.15849900 9113.12123129 0 55.52837331 0 2473.66808773 0 6.35240312 0 87.26077045 0 26980
0.15950000 0.15949700 9157.36624126 0 82.13040874 0 2568.70185165 0 -117.35667799 0 285.78334696 0 27777
0.16050000 0.16050000 9145.40813046 0 -97.24601442 0 2381.88958731 0 466.49254586 0 79.11198228 0 28224
0.16150000 0.16150500 9060.31731423 0 28.62018808 0 2198.73119016 0 665.47440241 0 132.82471576 0 28075
0.16250000 0.16249700 9092.48241782 0 1.12540217 0 1954.12139027 0 520.05713164 0 202.19725968 0 28590
0.16350000 0.16349900 8932.54268582 0 155.15538045 0 1671.16812953 0 220.45109437 0 -207.37135706 0 29163
0.16450000 0.16449100 8822.82701919 0 237.77706825 0 1438.46107881 0 -123.13200261 0 4.63746609 0 28996
0.16550000 0.16550500 8768.60584455 0 148.77772136 0 1638.28332482 0 -293.47971995 0 155.60934577 0 30777
0.16650000 0.16650700 8612.24247347 0 99.36857908 0 1892.93572332 0 -331.73460219 0 304.04161059 0 29211
0.16750000 0.16749900 8638.61675118 0 170.49276479 0 2039.86547366 0 -151.68088492 0 258.30072953 0 30922
0.16850000 0.16850800 8569.22649154 0 95.46768833 0 2158.64937432 0 -61.44630947 0 93.52482749 0 30867
0.16950000 0.16949900 8449.34643073 0 162.77313993 0 2449.74079380 0 -50.16150674 0 548.41889166 0 30852
0.17050000 0.17049200 8367.71017985 0 16.93954974 0 2279.23806392 0 310.53995803 0 772.51831706 0 31257
0.17150000 0.17149500 8353.31615758 0 4.54021786 0 2354.83989778 0 314.34994500 0 613.25842580 0 32608
0.17250000 0.17250900 8464.00618879 0 -8.73051705 0 2112.55528610 0 243.91556513 0 505.69632635 0 32361
0.17350000 0.17350400 8318.36082813 0 66.04398163 0 2163.91980093 0 54.57626409 0 712.05788739 0 32508
0.17450000 0.17449800 8293.38166334 0 225.02617899 0 2028.64920862 0 -140.33396645 0 253.98030839 0 32791
0.17550000 0.17549800 8144.79106427 0 150.62901407 0 2127.73544342 0 3.51812049 0 723.36162380 0 33633
0.17650000 0.17650100 7914.85209476 0 139.71280903 0 1878.56384571 0 221.75652147 0 414.90879900 0 33984
0.17750000 0.17750300 7924.11963064 0 62.77144531 0 1760.66573104 0 251.80459656 0 198.98185655 0 34069
0.17850000 0.17849800 7762.09830156 0 108.40880013 0 1721.84616022 0 356.98725341 0 434.26654448 0 34536
