### header ###
fiducial parameters:
Omega_m = 0.31
Omega_nu = 0
Omega_de = 0.69
Omega_k = 0
H_0 = 100
w_de = -1
zeff = 0
beta = 0
fgrowth = 0
b_1 = 2
gamma = 0.55
Lx = 3500 Ly = 3500 Lz = 3500
nx = 700 ny = 700 nz = 700
xoffset = -685.467585 yoffset = -31.7331281 zoffset = 572.489161
bins = 400 dk = 0.001
kx_ny = 0.628318531 ky_ny = 0.628318531 kz_ny = 0.628318531
############################
A(data) = 8.02695267 (not used)
A(ran) = 8.02836783 (used)
Ngal = 477242
weighted Ngal = 0
Nran = 23820508
weighted Nran = 0
SN(data) = 3484.28645
SN(ran) = 69.9299955
SN(data+ran) = 3554.21644
############################
13 columns: k_central k_mean P_0(k) sigma^{lin}_{P_0(k)} P^img_1(k) sigma^{lin}_{P_1(k)} P_2(k) sigma^{lin}_{P_2(k)} P^img_3(k) sigma^{lin}_{P_3(k)} P_4(k) sigma^{lin}_{P_4(k)} N_modes
### header ###
0.00050000 0 0 0 0 0 0 0 0 0 0 0 0
0.00150000 0.00179520 43755.94538807 0 -57182.35718641 0 24908.52335852 0 -72309.36735364 0 -15067.55178296 0 3
0.00250000 0.00253879 69355.27109203 0 -38371.03093577 0 -2159.29156916 0 -17558.04980442 0 55596.57882588 0 6
0.00350000 0.00331552 83024.72042014 0 -9401.26741237 0 -7879.99641623 0 -18947.18367616 0 27818.10887437 0 7
0.00450000 0.00420575 83267.53650341 0 8274.45906022 0 -24484.34259472 0 -50234.14119296 0 11485.65470413 0 24
0.00550000 0.00557378 75986.92931891 0 -101.93315096 0 -13565.59092131 0 -31413.95708247 0 14670.83038471 0 45
0.00650000 0.00659388 79564.06529807 0 -11559.50711067 0 -3205.21658850 0 -38434.14318724 0 -12490.68962791 0 40
0.00750000 0.00754703 73763.60649533 0 -1415.55243876 0 915.21401039 0 -7447.91001251 0 -1473.33890199 0 57
0.00850000 0.00846663 72530.26023378 0 8024.84456951 0 -5136.94973799 0 6527.10226362 0 -11183.15879008 0 75
0.00950000 0.00948925 61811.25330009 0 -665.11233739 0 -26294.00336308 0 -1043.36731231 0 -18393.67815848 0 112
0.01050000 0.01054430 61745.48369067 0 3106.85005481 0 1235.73788371 0 -4457.88405686 0 -20062.72040164 0 105
0.01150000 0.01145670 67128.29440126 0 -5392.34398225 0 -21990.63359907 0 -25035.19075445 0 -27811.13330973 0 144
0.01250000 0.01249090 66983.91128562 0 -11181.83011110 0 -3537.58563491 0 -24148.07608998 0 -19601.22590320 0 169
0.01350000 0.01339930 93597.46194297 0 -11440.25817237 0 10941.89283228 0 -50743.57885787 0 -43615.21613963 0 180
0.01450000 0.01448870 89911.37428759 0 2397.95553062 0 27288.85174804 0 -39977.18237396 0 -31641.38263425 0 267
0.01550000 0.01550050 90819.30492272 0 14182.87302995 0 38388.19303924 0 -13206.73687394 0 -22011.00667673 0 238
0.01650000 0.01653350 91773.40715234 0 -1655.64473013 0 45940.07218180 0 -4010.70607441 0 -29146.45568286 0 315
0.01750000 0.01747870 86262.26819711 0 2032.14806327 0 56712.55844435 0 7639.36158095 0 -27734.62354523 0 297
0.01850000 0.01844180 91224.77345758 0 6997.48783889 0 48840.13549830 0 9508.54716753 0 -34427.06883537 0 388
0.01950000 0.01947590 76568.22637189 0 3375.04390657 0 39411.27585248 0 11767.55609401 0 -4181.13129802 0 399
0.02050000 0.02045430 85323.44577574 0 -1952.08408250 0 32065.89556779 0 16617.23436458 0 -13113.39717572 0 462
0.02150000 0.02154770 83824.47444179 0 2391.02425529 0 34389.20148449 0 7416.04386168 0 -11846.50176997 0 571
0.02250000 0.02255340 80602.53864281 0 4088.83239833 0 37421.91125232 0 1117.13114025 0 -13786.48380144 0 510
0.02350000 0.02348930 73679.12465696 0 8028.69773855 0 18667.05385825 0 -2302.98820065 0 -4437.77671499 0 555
0.02450000 0.02439640 68882.37209903 0 4189.92272392 0 27765.95822447 0 1658.78927038 0 2525.76337601 0 592
0.02550000 0.02547300 70370.93544764 0 -3994.48511855 0 24433.40990056 0 -60.74731361 0 -13429.51204929 0 837
0.02650000 0.02652900 69381.29105535 0 179.58314347 0 28320.12808164 0 7179.33970171 0 -13430.17638878 0 723
0.02750000 0.02749970 72722.25434613 0 2095.14959148 0 24473.60243965 0 3149.79960278 0 -16731.39003346 0 826
0.02850000 0.02848090 69794.17804784 0 2129.97205304 0 31148.33201007 0 432.07865310 0 -3634.95565936 0 831
0.02950000 0.02946900 65788.10020521 0 5132.55402503 0 27075.15587904 0 -3574.31253633 0 -3481.48216505 0 996
0.03050000 0.03053250 65656.45026311 0 6596.62539115 0 40376.67185342 0 220.95709962 0 5233.95437572 0 1041
0.03150000 0.03150510 56326.13430818 0 5680.46801868 0 36325.52964877 0 6947.64023255 0 7551.05979052 0 1036
0.03250000 0.03246190 57055.57906724 0 1375.51491222 0 39272.76106900 0 9003.84845765 0 732.99122469 0 1059
0.03350000 0.03345080 54061.40098978 0 -304.46568063 0 31142.79584766 0 12167.26701996 0 2785.76370740 0 1302
0.03450000 0.03451200 52453.58870286 0 2328.08916102 0 27634.08683588 0 3749.46564264 0 -473.60097840 0 1339
0.03550000 0.03553350 51693.03071107 0 2609.08262027 0 25641.73270801 0 1233.67843129 0 -100.31393418 0 1365
0.03650000 0.03647120 50232.36962099 0 1348.73095848 0 21734.53072601 0 1656.38657590 0 -1261.52532821 0 1308
0.03750000 0.03744890 48737.16287748 0 1025.11790654 0 22519.89072540 0 836.27497783 0 -83.00567602 0 1579
0.03850000 0.03847530 48225.62147086 0 822.24191336 0 22630.17108059 0 3068.47337699 0 -4608.79984414 0 1662
0.03950000 0.03950240 46238.58205891 0 1461.79046721 0 20266.56190155 0 3224.59315693 0 -1822.88112419 0 1683
0.04050000 0.04050350 48453.26846913 0 -502.03360130 0 22136.23467043 0 2699.35528451 0 779.27575690 0 1822
0.04150000 0.04152450 47866.32453050 0 -557.14499085 0 18585.45082434 0 -10.59751031 0 -4155.14455167 0 1887
0.04250000 0.04250150 49300.52276426 0 1289.56045465 0 21837.39262358 0 -69.71678250 0 2036.69878877 0 1920
0.04350000 0.04349210 46915.98689131 0 1659.30966965 0 19097.21367746 0 157.88249405 0 1123.59737795 0 2005
0.04450000 0.04448520 46233.48878949 0 1858.85510753 0 19875.48738896 0 1677.06967866 0 1035.08632058 0 2151
0.04550000 0.04548030 44101.73409216 0 2114.88047431 0 19972.14878463 0 2610.57738412 0 1335.48845800 0 2274
0.04650000 0.04648670 41641.57424070 0 2198.69797319 0 17946.02406606 0 868.87190210 0 -1326.55309187 0 2311
0.04750000 0.04749250 40746.37677911 0 1201.64619559 0 19201.18280750 0 1833.30018185 0 -676.55337063 0 2568
0.04850000 0.04851840 39032.71306693 0 1750.19131176 0 18965.67445861 0 509.50299162 0 -4920.09825641 0 2493
0.04950000 0.04949480 38221.66527397 0 1505.58151187 0 18585.22937784 0 -1239.38067858 0 -5430.35527336 0 2644
0.05050000 0.05050630 35804.57676606 0 1114.65093949 0 17209.49301913 0 1926.62880774 0 -4804.77999343 0 2829
0.05150000 0.05149060 36324.75458604 0 -1297.11178018 0 10857.70994669 0 3407.82906036 0 -3874.70470866 0 2784
0.05250000 0.05249300 37784.86205987 0 -2611.62925497 0 12892.50429558 0 5403.49381335 0 -7726.16860753 0 3055
0.05350000 0.05348950 38099.98042421 0 -1143.94831096 0 9206.99240110 0 4656.74301060 0 -5651.40316604 0 3009
0.05450000 0.05448610 38066.98489625 0 1812.11882447 0 9372.59009109 0 1910.51857513 0 -9335.04383763 0 3336
0.05550000 0.05550870 36377.79102192 0 1956.82303752 0 8205.37882568 0 -959.87866148 0 -3704.30162970 0 3349
0.05650000 0.05647670 34886.90248509 0 2128.68766336 0 8516.89868445 0 -1846.43195908 0 -2820.70796452 0 3324
0.05750000 0.05747970 33949.63018919 0 1344.60098133 0 11515.99287413 0 -1743.89115894 0 -2358.11730593 0 3639
0.05850000 0.05849280 32832.43261499 0 237.26774131 0 11632.47373122 0 -459.70521075 0 -2067.85631081 0 3846
0.05950000 0.05951020 33165.15597579 0 -145.29768967 0 12011.81157951 0 2163.97516256 0 -789.17995145 0 3787
0.06050000 0.06049470 33232.47571069 0 149.28261937 0 11912.71427238 0 758.89382137 0 -304.77127680 0 3930
0.06150000 0.06148310 33195.05125280 0 334.30005985 0 10343.21222934 0 2667.95417133 0 -1609.57278656 0 4083
0.06250000 0.06249100 32310.59394628 0 730.57302895 0 9883.77718331 0 1247.38596942 0 1682.10758645 0 4303
0.06350000 0.06350600 31988.50001731 0 131.30005663 0 8281.75572228 0 1939.60557243 0 2559.37895415 0 4470
0.06450000 0.06451750 31842.01315996 0 409.66273150 0 8666.03182743 0 1325.42371474 0 2957.41795906 0 4479
0.06550000 0.06550280 30401.94659405 0 1785.73347443 0 10780.58013200 0 -187.45003025 0 2764.59342234 0 4636
0.06650000 0.06648880 29795.73681023 0 1765.17216724 0 10478.08421795 0 -1182.35820576 0 5343.94685047 0 4653
0.06750000 0.06749660 28075.09753341 0 1431.67374370 0 12009.48639130 0 -2069.28464071 0 5135.99751805 0 5220
0.06850000 0.06852730 28671.12077840 0 -11.72016654 0 14455.47366698 0 -658.06923157 0 4023.91535792 0 5029
0.06950000 0.06949320 27784.00611393 0 -250.77708482 0 15139.18972454 0 329.37287531 0 4411.49101587 0 5040
0.07050000 0.07048030 29227.50510053 0 -35.96501475 0 16026.19366576 0 -112.16375765 0 5371.18476953 0 5475
0.07150000 0.07148790 28776.41858742 0 -451.25259798 0 13750.27729928 0 1590.53946020 0 4322.24807783 0 5509
0.07250000 0.07249820 29505.97406972 0 491.65329678 0 14577.26923999 0 2131.11250249 0 2735.11889368 0 5916
0.07350000 0.07351270 28094.14193210 0 688.90897789 0 11868.75714285 0 1056.87001243 0 2689.08016708 0 5721
0.07450000 0.07449140 27623.67885055 0 1014.52501339 0 11874.29330526 0 1261.33709869 0 2853.10558694 0 6028
0.07550000 0.07549160 26827.91086584 0 651.76907875 0 10633.82753885 0 452.18156604 0 1810.45797575 0 6183
0.07650000 0.07648840 26261.11855837 0 97.24313561 0 10245.13357609 0 2618.12870964 0 1048.03983338 0 6330
0.07750000 0.07749960 25924.85205363 0 47.10465931 0 10922.05122621 0 5.14026036 0 446.40624141 0 6583
0.07850000 0.07848650 25889.97423045 0 1077.50328973 0 10310.60423275 0 -112.71848112 0 -183.19493582 0 6549
0.07950000 0.07947320 25002.52739623 0 1262.83186254 0 11401.83720525 0 -738.04131204 0 675.34759445 0 6828
0.08050000 0.08048110 24372.06922106 0 850.39219198 0 11615.97596724 0 -398.01132409 0 2565.03691214 0 7147
0.08150000 0.08149960 23555.04237269 0 175.99128129 0 10678.54865880 0 843.84291185 0 2309.73124647 0 7386
0.08250000 0.08250610 23855.32382177 0 87.72780111 0 11277.38427429 0 1521.38171938 0 2561.95880584 0 7227
0.08350000 0.08350160 23753.12626370 0 79.63348877 0 10251.46694589 0 1400.63801723 0 1494.44275310 0 7798
0.08450000 0.08449610 23515.84634283 0 300.41542421 0 10763.11907576 0 415.72482934 0 812.59348951 0 7371
0.08550000 0.08548940 22703.46987089 0 560.66377568 0 9615.76048875 0 193.92623304 0 1130.46221933 0 8256
0.08650000 0.08650700 22626.96010639 0 497.37990318 0 9843.97217559 0 371.72451774 0 1450.90637191 0 8037
0.08750000 0.08749060 22375.61833301 0 -61.68536097 0 8920.48492409 0 235.51056336 0 1673.95835538 0 8155
0.08850000 0.08849210 22520.22289514 0 140.48897900 0 8969.60175699 0 1513.14390972 0 500.79571538 0 8718
0.08950000 0.08949900 22110.76832335 0 276.98417043 0 8876.60530084 0 712.70894009 0 1094.09406123 0 8571
0.09050000 0.09049190 21911.90936960 0 781.49354356 0 7641.08886362 0 -194.19750499 0 572.62299372 0 8932
0.09150000 0.09150830 20721.08083536 0 977.55894975 0 8221.13474390 0 -472.90563640 0 -142.08228654 0 9285
0.09250000 0.09250820 20533.18348319 0 330.16786823 0 8560.94439258 0 79.39809115 0 276.11610016 0 9204
0.09350000 0.09350330 20295.01777634 0 57.99141196 0 7609.58809951 0 711.32047056 0 -3.70735759 0 9349
0.09450000 0.09448040 19834.85195687 0 33.33888075 0 7906.78036997 0 716.60196950 0 -592.29962215 0 9564
0.09550000 0.09549270 19949.11834900 0 430.36244275 0 6590.75705900 0 397.00152807 0 -1158.20946533 0 10155
0.09650000 0.09649430 19487.84529706 0 625.76572392 0 7395.03966150 0 453.09946176 0 -394.19137203 0 9913
0.09750000 0.09749140 18786.52424305 0 709.85892368 0 7132.71414190 0 180.21869491 0 153.82448701 0 10476
0.09850000 0.09850240 18060.17973494 0 776.36927163 0 7725.11673667 0 37.51956916 0 637.36952033 0 10575
0.09950000 0.09950330 17354.98336724 0 667.10314139 0 6986.30479082 0 863.71552043 0 491.00667301 0 10882
0.10050000 0.10051200 16836.35567274 0 479.28772442 0 6874.24179133 0 1323.28675605 0 1146.27349918 0 10875
0.10150000 0.10150300 16510.49715332 0 69.64005129 0 6203.63536637 0 945.84670424 0 911.42173914 0 11118
0.10250000 0.10250800 16578.25978121 0 5.69741975 0 6183.20692708 0 941.93595911 0 608.06329100 0 11575
0.10350000 0.10349800 16325.36788236 0 134.27961924 0 6199.36144899 0 209.63011133 0 706.04229332 0 11364
0.10450000 0.10450100 15819.36263814 0 739.78409597 0 5747.31164361 0 -702.04186236 0 874.57747108 0 12093
0.10550000 0.10551000 15701.55310207 0 314.59353614 0 5499.11441048 0 -171.34644103 0 332.89055291 0 12067
0.10650000 0.10649700 15491.84327001 0 -180.73798694 0 5230.65482293 0 -376.01947254 0 -89.53724043 0 12054
0.10750000 0.10749900 15800.65040920 0 -153.41481099 0 5133.27372615 0 634.83506517 0 -473.31088349 0 12807
0.10850000 0.10850100 15796.44292577 0 -140.85990188 0 5372.64631640 0 266.62490333 0 -890.38764369 0 12736
0.10950000 0.10950300 15886.12875680 0 69.99990184 0 4565.09737808 0 287.95130816 0 -1146.66103054 0 12933
0.11050000 0.11050200 15613.30667327 0 353.22044850 0 4797.77121182 0 153.73701564 0 -899.59981794 0 13428
0.11150000 0.11150900 15544.65825939 0 334.59790539 0 4930.47302477 0 -26.43484333 0 -673.44426182 0 13453
0.11250000 0.11250000 15553.84828899 0 -174.97594911 0 5140.09427824 0 594.25056578 0 787.48145682 0 13668
0.11350000 0.11349100 15531.70363936 0 172.85116998 0 5265.92017747 0 -26.67954171 0 483.79526786 0 13791
0.11450000 0.11448600 15404.48262719 0 496.83071587 0 5536.31742187 0 117.45965061 0 1672.58538710 0 14205
0.11550000 0.11549300 15038.87446168 0 586.62727015 0 6146.08142196 0 330.88424765 0 1108.68295642 0 14776
0.11650000 0.11649800 14663.85482007 0 447.13147869 0 5937.25737588 0 8.16435586 0 2262.59635972 0 14553
0.11750000 0.11747300 14069.27097731 0 180.30948797 0 5421.24275003 0 772.46849160 0 1983.99452263 0 14568
0.11850000 0.11849100 14214.31843243 0 33.82407003 0 5536.98176136 0 826.43721723 0 1711.59318744 0 16015
0.11950000 0.11950300 14091.96924319 0 -67.09895274 0 4840.05642030 0 380.17048711 0 1192.17935787 0 15270
0.12050000 0.12050700 13983.01756697 0 148.12999035 0 4842.30410224 0 205.95742118 0 880.74918493 0 15999
0.12150000 0.12150000 13733.89025855 0 161.49982257 0 4584.55145278 0 -223.52809344 0 1367.73106787 0 15670
0.12250000 0.12250700 13680.07875993 0 85.40471664 0 4915.74683276 0 20.31937689 0 794.74933083 0 16887
0.12350000 0.12352200 13832.98756568 0 52.97753111 0 4818.22179576 0 61.77382884 0 893.62629870 0 16407
0.12450000 0.12449800 13912.81902762 0 -83.10001223 0 4317.99630510 0 558.31533559 0 901.02593337 0 16306
0.12550000 0.12549900 13646.75106223 0 29.83626152 0 4369.08401181 0 389.89198830 0 898.43943829 0 17523
0.12650000 0.12650100 13637.56103263 0 176.90585532 0 4171.79732820 0 567.61941013 0 778.79189630 0 17154
0.12750000 0.12750600 13349.34841760 0 454.59311838 0 3877.20705407 0 250.68297006 0 868.48326350 0 18007
0.12850000 0.12850300 12973.33226676 0 458.27023745 0 3438.67655730 0 455.84650555 0 873.89763033 0 17496
0.12950000 0.12949900 12733.61643444 0 40.01239237 0 3503.39429587 0 155.66360016 0 696.12259751 0 18405
0.13050000 0.13049000 12625.77199070 0 -13.60600491 0 3180.03812186 0 227.58167155 0 728.12715240 0 18100
0.13150000 0.13148800 12682.68374027 0 72.96042005 0 3190.03643118 0 42.68912689 0 44.63929546 0 19059
0.13250000 0.13249300 12516.15597500 0 143.47629223 0 2886.42221232 0 325.30268871 0 872.91994405 0 18957
0.13350000 0.13349100 12470.87016649 0 193.65717554 0 3048.39925210 0 184.18923059 0 387.95100976 0 19468
0.13450000 0.13450700 12353.94641640 0 296.88556706 0 2746.55660521 0 293.27820363 0 568.19295656 0 19953
0.13550000 0.13551000 11887.80154154 0 406.39971738 0 2689.96595307 0 216.19710718 0 887.10248491 0 19956
0.13650000 0.13649900 11835.42944515 0 239.27072487 0 2614.02087713 0 217.79152195 0 1256.08881673 0 19723
0.13750000 0.13749600 11578.33006286 0 -74.15003063 0 2804.69738284 0 38.61617221 0 1419.68241592 0 20946
0.13850000 0.13851100 11628.37697104 0 111.83712406 0 2937.75351018 0 -97.38862596 0 953.65933663 0 20955
0.13950000 0.13949800 11707.54409349 0 35.56153924 0 3237.25989653 0 -105.93491060 0 1308.44984079 0 20506
0.14050000 0.14048300 11597.81735454 0 104.62328300 0 3380.36969481 0 17.74495065 0 1285.02080148 0 21447
0.14150000 0.14148400 11364.41274736 0 353.52936637 0 3215.70208010 0 -1.21148949 0 1096.36720952 0 21771
0.14250000 0.14249400 11198.32787508 0 316.08608553 0 3118.26562170 0 224.81580482 0 933.65828908 0 22470
0.14350000 0.14350900 11066.23504000 0 -77.19115537 0 2866.07127931 0 169.12754714 0 896.42427518 0 22519
0.14450000 0.14449900 11025.54424629 0 -105.14788975 0 2516.57334641 0 143.66895068 0 250.45377293 0 22218
0.14550000 0.14550500 11059.21518606 0 140.46683435 0 2416.54596399 0 201.51077554 0 20.10036631 0 23559
0.14650000 0.14650700 10905.96313825 0 121.50104916 0 2241.23784514 0 14.84278359 0 131.35209656 0 23044
0.14750000 0.14750500 10726.02678762 0 345.32255921 0 2311.89034981 0 7.88866605 0 -287.81844027 0 23649
0.14850000 0.14849900 10592.48347798 0 216.29122194 0 2426.43355006 0 -359.04559859 0 61.20803304 0 23640
0.14950000 0.14949500 10219.56757809 0 274.67226901 0 2683.42220910 0 -152.82576331 0 254.55717651 0 24457
0.15050000 0.15050000 10248.04559752 0 326.82181167 0 2855.81830652 0 -34.88258428 0 158.55347694 0 24591
0.15150000 0.15149900 9954.88365330 0 89.02437035 0 3150.67431645 0 -9.23523790 0 457.68340424 0 25020
0.15250000 0.15250500 9985.39898050 0 68.41069106 0 3180.00490489 0 3.41581221 0 284.82669810 0 25297
0.15350000 0.15350100 9838.52459178 0 78.96350240 0 3059.60444481 0 272.21974906 0 392.06880736 0 25452
0.15450000 0.15450400 9886.22416710 0 159.06169665 0 2911.84427011 0 -5.41284993 0 17.24647458 0 26061
0.15550000 0.15549900 9644.94713698 0 33.51094468 0 2967.71522114 0 172.37616724 0 590.68416996 0 26128
0.15650000 0.15649500 9713.13051321 0 143.52501046 0 2803.83374150 0 327.65998666 0 298.47223121 0 26331
0.15750000 0.15749700 9620.02333381 0 151.58344846 0 2879.13662259 0 203.34545976 0 731.50421147 0 27345
0.15850000 0.15849900 9435.86842742 0 135.04360965 0 2814.91713864 0 286.11994564 0 557.08962923 0 26980
0.15950000 0.15949700 9361.47347697 0 128.75674362 0 2484.89542510 0 304.58747620 0 1028.17054650 0 27777
0.16050000 0.16050000 9182.99867322 0 74.40690857 0 2445.00183878 0 317.07927306 0 1156.89185868 0 28224
0.16150000 0.16150500 9205.98481954 0 76.53102336 0 2647.21570694 0 159.25103340 0 844.59140100 0 28075
0.16250000 0.16249700 9125.23435464 0 89.21082830 0 2594.17927106 0 -157.31448379 0 985.46680414 0 28590
0.16350000 0.16349900 8985.51268775 0 232.75909064 0 2486.25732105 0 -125.27671193 0 898.21577733 0 29163
0.16450000 0.16449100 8917.38467314 0 170.18938309 0 2502.38969831 0 -220.89066567 0 900.58414761 0 28996
0.16550000 0.16550500 8846.66573453 0 110.94801638 0 2409.82506283 0 -64.91648680 0 435.90192686 0 30777
0.16650000 0.16650700 8690.45737598 0 71.55655999 0 2469.07307293 0 56.74699337 0 551.93214033 0 29211
0.16750000 0.16749900 8713.25529279 0 64.60967267 0 2515.15608883 0 149.61478911 0 74.60344233 0 30922
0.16850000 0.16850800 8587.50689982 0 72.88269233 0 2316.66252181 0 -0.34251683 0 186.56978043 0 30867
0.16950000 0.16949900 8543.90408468 0 159.90762226 0 2447.09450817 0 -142.83963356 0 -190.18378725 0 30852
0.17050000 0.17049200 8361.08892960 0 175.80637347 0 2287.91876658 0 -123.58707516 0 186.43580530 0 31257
0.17150000 0.17149500 8285.99642268 0 125.07298115 0 2672.32773963 0 -24.29710958 0 56.69063524 0 32608
0.17250000 0.17250900 8266.44269705 0 -27.18975444 0 2468.82948179 0 97.83207257 0 181.81421692 0 32361
0.17350000 0.17350400 8293.22665079 0 40.97900632 0 2451.58987205 0 279.57841614 0 30.27505775 0 32508
0.17450000 0.17449800 8293.84670098 0 22.82426893 0 2400.93398600 0 139.40942733 0 241.02347388 0 32791
0.17550000 0.17549800 8167.87686152 0 48.56199870 0 2212.77089803 0 244.07057767 0 13.94935770 0 33633
0.17650000 0.17650100 8253.62094491 0 127.56425424 0 2368.52529126 0 140.89533332 0 80.20149904 0 33984
0.17750000 0.17750300 8041.58592464 0 141.74125893 0 2020.22316944 0 131.83374269 0 213.41241748 0 34069
0.17850000 0.17849800 7935.96701819 0 136.05008398 0 2213.19164638 0 161.52085999 0 243.40845265 0 34536
