### header ###
fiducial parameters:
Omega_m = 0.31
Omega_nu = 0
Omega_de = 0.69
Omega_k = 0
H_0 = 100
w_de = -1
zeff = 0
beta = 0
fgrowth = 0
b_1 = 2
gamma = 0.55
Lx = 3500 Ly = 3500 Lz = 3500
nx = 700 ny = 700 nz = 700
xoffset = -685.467585 yoffset = -31.7331281 zoffset = 572.489161
bins = 400 dk = 0.001
kx_ny = 0.628318531 ky_ny = 0.628318531 kz_ny = 0.628318531
############################
A(data) = 8.06865299 (not used)
A(ran) = 8.07070587 (used)
Ngal = 479804
weighted Ngal = 0
Nran = 23820508
weighted Nran = 0
SN(data) = 3482.75831
SN(ran) = 70.2987751
SN(data+ran) = 3553.05709
############################
13 columns: k_central k_mean P_0(k) sigma^{lin}_{P_0(k)} P^img_1(k) sigma^{lin}_{P_1(k)} P_2(k) sigma^{lin}_{P_2(k)} P^img_3(k) sigma^{lin}_{P_3(k)} P_4(k) sigma^{lin}_{P_4(k)} N_modes
### header ###
0.00050000 0 0 0 0 0 0 0 0 0 0 0 0
0.00150000 0.00179520 47715.96235946 0 -50406.20512065 0 18221.17133781 0 -86119.87809994 0 -35524.88984114 0 3
0.00250000 0.00253879 71455.35894038 0 -32308.26875807 0 -14419.04571833 0 13625.49219858 0 38874.93243827 0 6
0.00350000 0.00331552 71887.62250130 0 -12781.78104740 0 -18180.97879871 0 -42787.33841294 0 4168.19882263 0 7
0.00450000 0.00420575 63789.43485219 0 607.43216848 0 -35499.42349405 0 -9978.89952583 0 19493.27073622 0 24
0.00550000 0.00557378 59399.70095459 0 -3920.47769946 0 -24709.22151179 0 -25333.47918506 0 -15933.73975352 0 45
0.00650000 0.00659388 58730.93253555 0 6566.06577465 0 -35117.76045756 0 -54523.33838121 0 -9376.86400847 0 40
0.00750000 0.00754703 52325.26045821 0 12271.01470351 0 -464.26479411 0 -52692.64019570 0 28889.24557732 0 57
0.00850000 0.00846663 46002.63081702 0 11555.52107373 0 12638.50516424 0 -47667.24413026 0 14747.11870271 0 75
0.00950000 0.00948925 46274.01349833 0 -3292.12326600 0 19077.06204629 0 -3366.79502458 0 4521.92638361 0 112
0.01050000 0.01054430 50612.48253202 0 -10899.53011753 0 22645.56161209 0 8556.75905380 0 -15179.93587987 0 105
0.01150000 0.01145670 60808.21139477 0 -10445.18834092 0 4288.62142736 0 13242.16831336 0 -19152.24313181 0 144
0.01250000 0.01249090 78215.67758165 0 -20946.40264542 0 -9324.44762277 0 21921.43156895 0 -27576.84291657 0 169
0.01350000 0.01339930 77665.16159167 0 -7612.17902352 0 -21245.90903176 0 6265.96148277 0 -8641.94952095 0 180
0.01450000 0.01448870 88892.16678803 0 6541.42985193 0 -24484.45331797 0 -9830.94004928 0 -21851.89736909 0 267
0.01550000 0.01550050 77903.54874502 0 3001.91763251 0 -29744.13977657 0 2589.17458024 0 13231.42815828 0 238
0.01650000 0.01653350 71497.54449794 0 13062.35375830 0 -8884.24520496 0 -14854.07736045 0 25253.75844637 0 315
0.01750000 0.01747870 71152.64157984 0 7289.19930856 0 869.06788225 0 3298.34591255 0 35791.17925303 0 297
0.01850000 0.01844180 65896.05537219 0 1458.01480444 0 16108.46103916 0 6030.41991690 0 30230.10411286 0 388
0.01950000 0.01947590 64513.78634183 0 -438.09092547 0 25538.20647096 0 10061.31083946 0 42887.65367579 0 399
0.02050000 0.02045430 74469.46720251 0 -9693.79823408 0 33411.62592625 0 1394.17177954 0 38346.45037467 0 462
0.02150000 0.02154770 77344.94995792 0 -2840.98139127 0 35686.10289050 0 643.38179270 0 31559.66887708 0 571
0.02250000 0.02255340 79500.17798387 0 3111.48935891 0 40394.94118937 0 -592.20882909 0 26776.09238568 0 510
0.02350000 0.02348930 80446.19741637 0 4038.71905620 0 34948.57533433 0 9221.15390454 0 15042.19615912 0 555
0.02450000 0.02439640 79720.96014075 0 241.78192813 0 28245.72205886 0 4776.03623820 0 13432.05868400 0 592
0.02550000 0.02547300 74688.80995717 0 3512.09714318 0 21558.37003815 0 5052.68934612 0 4652.97842016 0 837
0.02650000 0.02652900 72630.35405014 0 6312.83063373 0 24662.49630105 0 9655.33297766 0 9931.72034978 0 723
0.02750000 0.02749970 67082.56569975 0 -389.93627760 0 16961.47294319 0 7317.05727780 0 -626.16654207 0 826
0.02850000 0.02848090 67220.74831349 0 3785.65000014 0 13606.11563015 0 6305.25716355 0 6987.60025283 0 831
0.02950000 0.02946900 65438.54691068 0 -545.04958322 0 15053.37920719 0 1739.19649321 0 1057.89973864 0 996
0.03050000 0.03053250 64033.13672145 0 3041.01401144 0 12057.54028101 0 6153.46666261 0 9010.93474553 0 1041
0.03150000 0.03150510 63562.00930042 0 2663.53631372 0 13416.11453626 0 -1672.80683360 0 791.91813738 0 1036
0.03250000 0.03246190 61363.04559143 0 -419.39198332 0 13467.71156991 0 2250.28393452 0 -2781.26834352 0 1059
0.03350000 0.03345080 58503.28553727 0 3776.40460892 0 16850.30680201 0 -1270.19495855 0 5350.60131769 0 1302
0.03450000 0.03451200 54749.10308426 0 5342.85069031 0 17070.64606590 0 -281.28687586 0 -1861.97750313 0 1339
0.03550000 0.03553350 53003.55107660 0 2665.83935729 0 19736.86188223 0 -1781.38205077 0 2222.64741177 0 1365
0.03650000 0.03647120 51355.98914359 0 1666.65062100 0 20560.31067899 0 -3287.92685490 0 -6566.15435325 0 1308
0.03750000 0.03744890 51088.26032948 0 1871.41112387 0 22175.31997704 0 -1986.43043409 0 -2130.64746485 0 1579
0.03850000 0.03847530 48306.22799554 0 2209.37169431 0 19250.67609944 0 1591.38095688 0 -10791.30921475 0 1662
0.03950000 0.03950240 46739.71548020 0 -1071.59620444 0 15448.77192646 0 3906.99160783 0 -6946.04581778 0 1683
0.04050000 0.04050350 48254.52023864 0 -1812.24062004 0 13704.54859778 0 6330.92281248 0 -12728.19099527 0 1822
0.04150000 0.04152450 48113.79099019 0 -1032.42896262 0 9385.23468603 0 3280.02121498 0 -15643.09122703 0 1887
0.04250000 0.04250150 50392.36471462 0 -383.14229909 0 7094.20459618 0 299.85959351 0 -13990.10385486 0 1920
0.04350000 0.04349210 49176.18055654 0 145.73172480 0 7770.42468983 0 -2402.80520889 0 -13430.61928177 0 2005
0.04450000 0.04448520 49662.47706258 0 1920.41723352 0 13630.47474475 0 -5864.04716418 0 -5911.51422068 0 2151
0.04550000 0.04548030 48583.47900900 0 741.41615665 0 16045.68095744 0 -2822.88921251 0 -4891.50951373 0 2274
0.04650000 0.04648670 46423.48988338 0 1219.10725183 0 19968.49491744 0 1965.31551066 0 1617.53378811 0 2311
0.04750000 0.04749250 47952.02432459 0 1196.01038226 0 18783.97760834 0 5264.55828152 0 1661.34697741 0 2568
0.04850000 0.04851840 46898.71406460 0 867.67498379 0 16860.27189435 0 3350.95052776 0 -2019.90207202 0 2493
0.04950000 0.04949480 43863.12549232 0 2194.46834511 0 17138.18724729 0 2002.50744973 0 4282.73095055 0 2644
0.05050000 0.05050630 42902.49059105 0 2877.52006317 0 15765.44041628 0 -3008.80461854 0 -1540.01644205 0 2829
0.05150000 0.05149060 41465.52427609 0 1326.09912655 0 17351.10805356 0 -4.68812198 0 2444.33749929 0 2784
0.05250000 0.05249300 39877.86362034 0 528.92163489 0 15394.62825810 0 236.32770093 0 -815.12794466 0 3055
0.05350000 0.05348950 39471.95219249 0 1538.61025680 0 16144.66754132 0 869.80087015 0 365.42436492 0 3009
0.05450000 0.05448610 39389.57409584 0 1420.92251630 0 16763.16760569 0 185.39722123 0 -1827.86367036 0 3336
0.05550000 0.05550870 36586.17217500 0 1638.87015803 0 14023.43155256 0 4404.79225935 0 -66.76999397 0 3349
0.05650000 0.05647670 37135.80237900 0 169.75866965 0 13284.68604066 0 3447.31297066 0 706.50843819 0 3324
0.05750000 0.05747970 35885.07256749 0 -1061.99760605 0 10736.18010948 0 2753.35501265 0 -3055.96164995 0 3639
0.05850000 0.05849280 36625.58965136 0 404.71783124 0 12871.57760168 0 -1154.97634648 0 -3239.99476076 0 3846
0.05950000 0.05951020 35241.21687928 0 1852.12313404 0 11228.22315209 0 -1744.82123422 0 -3678.96815052 0 3787
0.06050000 0.06049470 33858.72640243 0 1621.87413944 0 14021.32781084 0 -3466.30200773 0 -1042.70740175 0 3930
0.06150000 0.06148310 33793.06751625 0 989.80604823 0 14297.58231507 0 554.00266507 0 -2217.53199770 0 4083
0.06250000 0.06249100 33194.05474356 0 -3.48797055 0 14682.78849551 0 2359.35740631 0 -2000.39263569 0 4303
0.06350000 0.06350600 33036.49556140 0 61.65435846 0 12310.21073337 0 2439.80891844 0 -867.66058976 0 4470
0.06450000 0.06451750 33080.00979793 0 1320.23079440 0 12790.30673751 0 374.26783075 0 -1971.68209743 0 4479
0.06550000 0.06550280 31687.77567524 0 1179.08079761 0 12075.03455422 0 1747.09106081 0 -526.65623723 0 4636
0.06650000 0.06648880 30578.55017490 0 1104.41900413 0 12922.39957259 0 -769.75355755 0 -480.79909676 0 4653
0.06750000 0.06749660 30072.65565394 0 531.69525226 0 11677.87026298 0 657.39603423 0 456.51195227 0 5220
0.06850000 0.06852730 30583.86489082 0 -523.83500887 0 12362.80427626 0 504.95226612 0 -382.08046314 0 5029
0.06950000 0.06949320 29540.29827666 0 -419.59682133 0 12453.37589328 0 2046.65280878 0 -769.73030567 0 5040
0.07050000 0.07048030 30630.47937830 0 164.04977898 0 12279.20822388 0 936.92462490 0 -1305.82569981 0 5475
0.07150000 0.07148790 29944.99174878 0 956.72747784 0 13833.54118192 0 410.85411365 0 686.54282208 0 5509
0.07250000 0.07249820 28598.81849733 0 1946.33754592 0 12290.72344169 0 -522.57719277 0 685.74450746 0 5916
0.07350000 0.07351270 27817.55525813 0 1340.58172742 0 12566.97794592 0 412.45074289 0 2698.75737897 0 5721
0.07450000 0.07449140 26202.65668333 0 873.21668236 0 11071.18436919 0 1089.45254267 0 1919.47608591 0 6028
0.07550000 0.07549160 25713.59209609 0 287.96348772 0 10815.60189540 0 1116.41143914 0 931.08065186 0 6183
0.07650000 0.07648840 25958.73336757 0 -170.15838058 0 9841.76878295 0 1548.47569821 0 -1533.60556598 0 6330
0.07750000 0.07749960 24907.74829579 0 68.36252645 0 8791.23767648 0 50.21808632 0 -4503.88956648 0 6583
0.07850000 0.07848650 25197.40031304 0 679.32920246 0 8310.48840518 0 -75.00558917 0 -3263.56774030 0 6549
0.07950000 0.07947320 24254.37040824 0 556.88146952 0 7468.80348944 0 -1572.76837886 0 -5062.48835358 0 6828
0.08050000 0.08048110 24821.49488545 0 150.45628580 0 9383.26381221 0 -1084.57961252 0 -3719.52607633 0 7147
0.08150000 0.08149960 24456.88322917 0 229.81053054 0 9615.24008949 0 -831.83829728 0 -4699.50432905 0 7386
0.08250000 0.08250610 24686.30179941 0 36.64363754 0 11235.53088647 0 -389.54321007 0 -4104.06791728 0 7227
0.08350000 0.08350160 24418.90515504 0 99.66753186 0 11238.52041417 0 -197.30218487 0 -3624.96842238 0 7798
0.08450000 0.08449610 24470.61291195 0 712.37677034 0 12313.31098432 0 1407.83502837 0 -3695.34411892 0 7371
0.08550000 0.08548940 23811.25596900 0 1020.01245757 0 11291.11395706 0 423.86963147 0 -3049.97152222 0 8256
0.08650000 0.08650700 22622.86334621 0 616.45500598 0 9884.67404162 0 1003.29656879 0 -2106.72017092 0 8037
0.08750000 0.08749060 22296.45121056 0 306.08666898 0 9620.61016702 0 1300.57741785 0 -2262.48563647 0 8155
0.08850000 0.08849210 21818.68039463 0 245.93737164 0 9171.69382958 0 1549.32826722 0 -3293.18620919 0 8718
0.08950000 0.08949900 21533.45730730 0 464.78297891 0 8150.77011967 0 1221.18884890 0 -2194.74515323 0 8571
0.09050000 0.09049190 20983.27348706 0 631.03282883 0 7996.07866963 0 226.54308749 0 -1290.90020596 0 8932
0.09150000 0.09150830 20591.64535823 0 540.42024421 0 8151.87735216 0 389.16342933 0 -429.64495610 0 9285
0.09250000 0.09250820 20464.53506931 0 146.41378001 0 8317.84042886 0 821.22215224 0 47.00733357 0 9204
0.09350000 0.09350330 20312.51204955 0 212.36940449 0 8283.26155845 0 651.53988163 0 -187.36809505 0 9349
0.09450000 0.09448040 20250.94992356 0 257.80026045 0 8288.65378064 0 90.39534561 0 255.75298759 0 9564
0.09550000 0.09549270 19494.37796870 0 534.63716896 0 8446.89944695 0 -530.43189999 0 70.09556673 0 10155
0.09650000 0.09649430 19386.42280172 0 425.48397643 0 8716.83165370 0 -431.90149590 0 -175.07560003 0 9913
0.09750000 0.09749140 19466.47571016 0 -225.27862799 0 8335.62258252 0 970.92884165 0 -910.33332961 0 10476
0.09850000 0.09850240 19194.87158236 0 268.78732837 0 8025.68606620 0 93.98964369 0 -1020.63250776 0 10575
0.09950000 0.09950330 19310.46665346 0 128.14555129 0 8083.37287850 0 524.91345330 0 -1135.99838174 0 10882
0.10050000 0.10051200 19057.02113836 0 253.52966477 0 8735.37779777 0 -466.60326911 0 -498.34762437 0 10875
0.10150000 0.10150300 18643.80197613 0 1019.00376878 0 9015.98372565 0 -535.84183790 0 44.35119357 0 11118
0.10250000 0.10250800 18161.82367678 0 887.93623097 0 9850.30554539 0 49.91769415 0 573.77340826 0 11575
0.10350000 0.10349800 17446.33004700 0 380.85918572 0 9577.29523233 0 1087.54367387 0 1194.13915937 0 11364
0.10450000 0.10450100 16818.97212277 0 411.26821860 0 9013.42601862 0 1362.40527964 0 498.43398850 0 12093
0.10550000 0.10551000 16657.64835016 0 314.18053843 0 8204.36017180 0 1254.42796800 0 390.33377406 0 12067
0.10650000 0.10649700 16337.43671641 0 359.95020753 0 7538.33768930 0 482.63267375 0 -94.17111909 0 12054
0.10750000 0.10749900 15614.96752199 0 337.34605641 0 6697.25067911 0 1069.30091150 0 927.68366261 0 12807
0.10850000 0.10850100 15524.94952122 0 179.84223587 0 5829.53472772 0 863.73434338 0 568.38118608 0 12736
0.10950000 0.10950300 15295.30950448 0 3.87699668 0 5562.30416822 0 648.89359600 0 -200.70028136 0 12933
0.11050000 0.11050200 15436.03875292 0 -10.51095795 0 5292.19480427 0 750.12896905 0 348.03195709 0 13428
0.11150000 0.11150900 15246.92344502 0 182.39329951 0 5567.12062952 0 22.16181174 0 699.91597599 0 13453
0.11250000 0.11250000 15237.40124568 0 112.13939853 0 5189.31076205 0 241.45750902 0 1422.67194362 0 13668
0.11350000 0.11349100 15033.67046901 0 37.56607292 0 5490.66622664 0 369.50230215 0 1235.93718556 0 13791
0.11450000 0.11448600 15228.32193933 0 101.22142192 0 5434.03128520 0 252.05040217 0 1294.54300082 0 14205
0.11550000 0.11549300 14950.18513988 0 38.40369429 0 5195.52233628 0 -96.12627021 0 346.92693908 0 14776
0.11650000 0.11649800 14915.08587021 0 432.41414454 0 5737.70086567 0 -819.30110389 0 966.13563224 0 14553
0.11750000 0.11747300 14544.71660502 0 399.99880640 0 5524.32609409 0 -739.52611080 0 522.96583137 0 14568
0.11850000 0.11849100 14425.57838997 0 285.62058379 0 6344.29818086 0 -294.59691752 0 752.81622228 0 16015
0.11950000 0.11950300 14552.68867889 0 -255.46067822 0 6535.79403860 0 140.05272940 0 480.94414422 0 15270
0.12050000 0.12050700 14767.15961063 0 -161.51200213 0 6752.29120578 0 152.74825704 0 -260.04683516 0 15999
0.12150000 0.12150000 14753.98354409 0 306.60928272 0 6941.76082808 0 503.18623031 0 354.84808025 0 15670
0.12250000 0.12250700 14607.82885649 0 357.97490478 0 6507.38245312 0 465.82709914 0 547.22529505 0 16887
0.12350000 0.12352200 14196.60271272 0 419.97770930 0 6146.62396587 0 675.42842242 0 838.74078457 0 16407
0.12450000 0.12449800 13870.41202357 0 360.93121551 0 6208.00893467 0 889.08110936 0 895.37683325 0 16306
0.12550000 0.12549900 13515.76545963 0 288.90906426 0 5283.11549792 0 352.53617883 0 750.05921340 0 17523
0.12650000 0.12650100 12972.88937377 0 475.81544336 0 4829.38269917 0 666.11770448 0 527.36043709 0 17154
0.12750000 0.12750600 12854.19405171 0 44.84380130 0 4634.65372259 0 120.90092916 0 500.64623900 0 18007
0.12850000 0.12850300 12717.78300995 0 -135.00153482 0 4125.33785326 0 402.94958096 0 266.88288850 0 17496
0.12950000 0.12949900 12714.90420549 0 -66.87894565 0 4363.42605383 0 29.32184131 0 -71.35282921 0 18405
0.13050000 0.13049000 12947.31230344 0 25.70185543 0 4194.99384869 0 333.28362044 0 -257.52234510 0 18100
0.13150000 0.13148800 12881.09980102 0 -28.79502009 0 3912.16238352 0 -104.63900570 0 -537.02214773 0 19059
0.13250000 0.13249300 12780.23092192 0 215.21277750 0 3962.96220979 0 -245.79564588 0 -125.16045252 0 18957
0.13350000 0.13349100 12847.77210332 0 231.72493550 0 4287.27060373 0 -103.76606361 0 -261.78186845 0 19468
0.13450000 0.13450700 12630.64381362 0 80.41120887 0 4469.74251674 0 -128.21973586 0 -38.39860102 0 19953
0.13550000 0.13551000 12434.88511083 0 346.88486424 0 4320.59830143 0 -63.89152169 0 -714.25352940 0 19956
0.13650000 0.13649900 12251.19524209 0 458.73195340 0 4516.39022120 0 183.85041745 0 -512.31868382 0 19723
0.13750000 0.13749600 11825.13218307 0 249.99094976 0 4338.84549273 0 105.74059129 0 -254.11096182 0 20946
0.13850000 0.13851100 11667.79444739 0 120.75477447 0 4363.63642800 0 470.50847808 0 318.78551832 0 20955
0.13950000 0.13949800 11672.11265407 0 -36.63167943 0 3981.32012434 0 757.59060874 0 73.02807196 0 20506
0.14050000 0.14048300 11577.55500012 0 91.08880531 0 3530.31111750 0 537.03100559 0 2.31565494 0 21447
0.14150000 0.14148400 11509.12803274 0 83.24439534 0 3193.08132050 0 686.70447802 0 158.18698299 0 21771
0.14250000 0.14249400 11356.21922700 0 85.57523044 0 3143.68767948 0 121.16998665 0 387.24459544 0 22470
0.14350000 0.14350900 11154.92436179 0 356.70158743 0 2826.64273063 0 -12.73394860 0 -34.41300698 0 22519
0.14450000 0.14449900 11096.79465650 0 220.94934899 0 3137.33216504 0 -351.70686170 0 315.71737711 0 22218
0.14550000 0.14550500 10778.48746261 0 248.63016104 0 3414.99285452 0 -331.69252736 0 113.39721463 0 23559
0.14650000 0.14650700 10751.49313470 0 96.64534080 0 3523.61236099 0 -240.29602214 0 181.70902983 0 23044
0.14750000 0.14750500 10650.50246003 0 29.86183859 0 3497.22701094 0 223.51037772 0 114.77571907 0 23649
0.14850000 0.14849900 10869.36910472 0 -78.32983325 0 3535.12757880 0 413.17376570 0 243.02202851 0 23640
0.14950000 0.14949500 10629.95222517 0 263.39510618 0 3477.77293624 0 288.67986714 0 430.91273729 0 24457
0.15050000 0.15050000 10632.29955803 0 192.43257642 0 3447.77800830 0 521.48435431 0 827.40383119 0 24591
0.15150000 0.15149900 10335.49481894 0 60.13324247 0 3320.18053709 0 132.87897015 0 909.44422193 0 25020
0.15250000 0.15250500 10360.54041768 0 141.54860048 0 3258.27516903 0 283.51794931 0 503.56379659 0 25297
0.15350000 0.15350100 10211.29655145 0 182.80408276 0 3456.94589325 0 25.39371263 0 826.27999022 0 25452
0.15450000 0.15450400 10143.47856193 0 178.31979120 0 3240.89161907 0 -286.80642978 0 648.34330145 0 26061
0.15550000 0.15549900 9975.48924979 0 36.70996077 0 3306.30691410 0 7.00603567 0 837.33017039 0 26128
0.15650000 0.15649500 9972.27827559 0 47.75061874 0 3170.41627160 0 65.91244241 0 603.96763805 0 26331
0.15750000 0.15749700 9953.73213152 0 195.33573999 0 3253.71337121 0 374.79487341 0 513.09153210 0 27345
0.15850000 0.15849900 9672.92690179 0 218.71495384 0 2929.65964074 0 124.10747443 0 380.58016313 0 26980
0.15950000 0.15949700 9640.52927937 0 109.99236403 0 2780.59293171 0 517.64557929 0 568.19627825 0 27777
0.16050000 0.16050000 9468.15532660 0 -30.09524320 0 2730.21385378 0 198.14146709 0 508.75782416 0 28224
0.16150000 0.16150500 9395.08905512 0 144.83375926 0 2680.95308066 0 251.82674121 0 507.44907537 0 28075
0.16250000 0.16249700 9381.55867419 0 141.70582749 0 2789.15183879 0 -237.90661445 0 390.55189886 0 28590
0.16350000 0.16349900 9142.17501161 0 267.67234526 0 2720.78023304 0 -128.01157616 0 412.76519691 0 29163
0.16450000 0.16449100 8892.01797698 0 333.00127615 0 2686.04635008 0 -83.51898900 0 550.52263338 0 28996
0.16550000 0.16550500 8775.58140919 0 84.04647455 0 2657.28045020 0 235.86598498 0 788.77138266 0 30777
0.16650000 0.16650700 8736.47395793 0 -105.60274085 0 2380.18444929 0 740.79389199 0 480.11814879 0 29211
0.16750000 0.16749900 8952.93790813 0 -131.67873014 0 2214.89678440 0 373.32003975 0 262.64218809 0 30922
0.16850000 0.16850800 8800.68236955 0 77.78153173 0 2057.48154245 0 121.33385706 0 352.65354547 0 30867
0.16950000 0.16949900 8786.31049194 0 173.10804791 0 2228.63753950 0 -92.70924005 0 671.31505375 0 30852
0.17050000 0.17049200 8628.99490092 0 277.76255487 0 2398.05518155 0 -320.65674121 0 626.31934016 0 31257
0.17150000 0.17149500 8491.28839715 0 291.54538480 0 2517.49234937 0 -297.06604595 0 749.56649495 0 32608
0.17250000 0.17250900 8273.83901003 0 240.45657085 0 2747.66383770 0 -179.38051992 0 490.15299677 0 32361
0.17350000 0.17350400 8166.81391834 0 18.07601316 0 2610.14556345 0 -230.76053601 0 734.85912589 0 32508
0.17450000 0.17449800 8307.89748117 0 -177.47054389 0 2796.92461081 0 127.43027911 0 248.36331801 0 32791
0.17550000 0.17549800 8283.20619683 0 -44.98375549 0 2617.56402108 0 108.98002137 0 -9.43186025 0 33633
0.17650000 0.17650100 8377.50918731 0 133.38829709 0 2486.45662290 0 95.03398536 0 -333.78298229 0 33984
0.17750000 0.17750300 8184.52963805 0 245.51662330 0 2367.08588903 0 -125.44611850 0 -225.93743132 0 34069
