### header ###
fiducial parameters:
Omega_m = 0.31
Omega_nu = 0
Omega_de = 0.69
Omega_k = 0
H_0 = 100
w_de = -1
zeff = 0
beta = 0
fgrowth = 0
b_1 = 2
gamma = 0.55
Lx = 3500 Ly = 3500 Lz = 3500
nx = 700 ny = 700 nz = 700
xoffset = -685.467585 yoffset = -31.7331281 zoffset = 572.489161
bins = 400 dk = 0.001
kx_ny = 0.628318531 ky_ny = 0.628318531 kz_ny = 0.628318531
############################
A(data) = 8.03187587 (not used)
A(ran) = 8.02469566 (used)
Ngal = 477078
weighted Ngal = 0
Nran = 23820508
weighted Nran = 0
SN(data) = 3497.92884
SN(ran) = 69.8980095
SN(data+ran) = 3567.82685
############################
13 columns: k_central k_mean P_0(k) sigma^{lin}_{P_0(k)} P^img_1(k) sigma^{lin}_{P_1(k)} P_2(k) sigma^{lin}_{P_2(k)} P^img_3(k) sigma^{lin}_{P_3(k)} P_4(k) sigma^{lin}_{P_4(k)} N_modes
### header ###
0.00050000 0 0 0 0 0 0 0 0 0 0 0 0
0.00150000 0.00179520 26170.98983435 0 -32508.23494430 0 40547.51782537 0 -143910.32736539 0 72696.12365956 0 3
0.00250000 0.00253879 52160.61498816 0 -39514.35919654 0 -27973.56431482 0 12683.45880301 0 -21812.14772299 0 6
0.00350000 0.00331552 71656.10018934 0 -32573.00804449 0 -4939.86235621 0 -20708.01549207 0 -4881.67728929 0 7
0.00450000 0.00420575 92802.35829774 0 -11849.49129767 0 -4440.56694084 0 -40588.15325746 0 9462.54165791 0 24
0.00550000 0.00557378 90130.82776550 0 22361.99937348 0 35847.31593986 0 -35760.28746678 0 30830.33484128 0 45
0.00650000 0.00659388 80339.12803537 0 32683.39912293 0 37771.35382359 0 -32369.27726782 0 29364.80192828 0 40
0.00750000 0.00754703 53657.48258039 0 13480.88763645 0 62591.52003006 0 29810.24155574 0 22244.41128391 0 57
0.00850000 0.00846663 60552.66213796 0 -9834.06244488 0 51284.46192526 0 58035.25836719 0 20794.04745591 0 75
0.00950000 0.00948925 62944.94863827 0 -12147.77972828 0 27882.54980481 0 61974.68081442 0 -12497.00085306 0 112
0.01050000 0.01054430 73911.31130841 0 -7527.18785821 0 23396.70812779 0 31675.81756443 0 -1035.49931829 0 105
0.01150000 0.01145670 76247.90401489 0 -6474.33156353 0 -4596.85280566 0 -7404.10789553 0 8543.89301236 0 144
0.01250000 0.01249090 74339.92100214 0 1562.22752564 0 -2078.49681496 0 -4692.18552235 0 246.39133696 0 169
0.01350000 0.01339930 72165.20568451 0 1013.03689293 0 -8321.58287465 0 -20924.59016553 0 -20794.82251865 0 180
0.01450000 0.01448870 72330.73694054 0 -3607.11983477 0 -4445.62699329 0 -13359.75640293 0 -9183.51907248 0 267
0.01550000 0.01550050 81189.15041170 0 2743.56707751 0 7672.93286980 0 -29918.63961571 0 -21114.36981292 0 238
0.01650000 0.01653350 71591.88070540 0 8985.34660288 0 17328.40978768 0 -35678.35226312 0 -29492.79800319 0 315
0.01750000 0.01747870 67785.99049548 0 7459.05984360 0 34535.13472560 0 -11729.79946638 0 -107.29758161 0 297
0.01850000 0.01844180 64216.60514370 0 5648.74580808 0 32762.45552213 0 -3198.62855523 0 875.94490319 0 388
0.01950000 0.01947590 63234.15776254 0 2279.11626835 0 40449.19558098 0 17714.50175410 0 4404.86976563 0 399
0.02050000 0.02045430 61164.29736094 0 1643.26587098 0 38289.76007160 0 26903.09195135 0 4400.70657150 0 462
0.02150000 0.02154770 62180.51533279 0 -1181.68279395 0 29635.29882360 0 19444.22033727 0 14450.71256731 0 571
0.02250000 0.02255340 65244.22761011 0 -4175.83872675 0 25187.76739045 0 15536.13256928 0 21084.03164291 0 510
0.02350000 0.02348930 67696.52611095 0 -8.75797641 0 29054.00177062 0 8407.53733222 0 28207.07964525 0 555
0.02450000 0.02439640 68384.33892868 0 886.69945229 0 30568.69580582 0 4444.01043386 0 21060.66903755 0 592
0.02550000 0.02547300 64794.69122248 0 3484.01772744 0 29763.73779150 0 1497.16654500 0 27520.70622974 0 837
0.02650000 0.02652900 67720.99594880 0 3675.92326119 0 35136.14051675 0 6180.40562890 0 30689.16269984 0 723
0.02750000 0.02749970 60803.45029510 0 897.21373194 0 34634.23203273 0 1376.51142145 0 27052.90050615 0 826
0.02850000 0.02848090 64260.00865698 0 -1290.08085392 0 35600.18164990 0 7011.69363163 0 22196.24667095 0 831
0.02950000 0.02946900 64681.64278608 0 -1523.83977549 0 28966.08751156 0 1309.73423047 0 8341.60163792 0 996
0.03050000 0.03053250 64195.01411030 0 2535.68417904 0 30554.41250680 0 -778.16630995 0 -1426.01578572 0 1041
0.03150000 0.03150510 64048.19508320 0 1951.22044117 0 28077.53344487 0 -5785.10148822 0 3933.22194533 0 1036
0.03250000 0.03246190 58859.37150344 0 5533.60470229 0 31295.59393016 0 -5776.50936416 0 -17803.96613864 0 1059
0.03350000 0.03345080 55721.58537309 0 2367.72808387 0 25835.83056208 0 -1640.73030860 0 -7291.19232703 0 1302
0.03450000 0.03451200 55487.29497992 0 2563.28748482 0 27096.52546594 0 3623.06398251 0 -21550.06579453 0 1339
0.03550000 0.03553350 50836.58638635 0 2275.82778787 0 22001.15230764 0 1670.93561071 0 -13756.03490819 0 1365
0.03650000 0.03647120 52203.13271546 0 829.99364796 0 24756.94323176 0 7932.60103145 0 -20812.53823836 0 1308
0.03750000 0.03744890 50112.89923620 0 217.67415531 0 16312.96687856 0 7000.94240423 0 -16480.26970657 0 1579
0.03850000 0.03847530 49804.09209701 0 1356.95769582 0 16002.16672090 0 6794.42140171 0 -15598.13758827 0 1662
0.03950000 0.03950240 46924.06968843 0 2497.45144144 0 11366.62721233 0 3583.36969803 0 -12973.11082026 0 1683
0.04050000 0.04050350 45125.92413788 0 2089.61342907 0 10917.65551325 0 2046.26527741 0 -8297.36770027 0 1822
0.04150000 0.04152450 42530.57120039 0 248.54933306 0 9882.83603570 0 -971.97628358 0 -7556.08662599 0 1887
0.04250000 0.04250150 43212.40496272 0 -208.14420534 0 11057.36610782 0 2394.25737413 0 -6950.61868793 0 1920
0.04350000 0.04349210 41479.80757510 0 1249.05789047 0 12414.29058667 0 -2041.61490099 0 -9176.27777205 0 2005
0.04450000 0.04448520 41967.87565311 0 2680.73163417 0 14349.62224172 0 -547.02931490 0 -6302.33406980 0 2151
0.04550000 0.04548030 39472.39508548 0 2.34980199 0 13134.10242313 0 -1942.01933924 0 -1462.74268714 0 2274
0.04650000 0.04648670 39733.70195120 0 691.64052042 0 16482.70561803 0 1210.63692335 0 -1338.87658940 0 2311
0.04750000 0.04749250 40391.50876868 0 -324.19213453 0 16183.97429442 0 1788.66764050 0 -2598.24281427 0 2568
0.04850000 0.04851840 39831.13840961 0 1179.82264338 0 16323.81775688 0 1558.68438170 0 -4328.44857973 0 2493
0.04950000 0.04949480 38800.41569224 0 2674.36504740 0 14468.98190326 0 -3373.70415527 0 -4261.28385738 0 2644
0.05050000 0.05050630 36892.98629573 0 1878.08773574 0 16146.10694354 0 -3463.33462467 0 -4710.12268855 0 2829
0.05150000 0.05149060 35739.58221937 0 2311.94571143 0 19040.52337439 0 -1460.29570336 0 -3500.81444419 0 2784
0.05250000 0.05249300 34556.39358925 0 358.42444117 0 15164.32390187 0 3775.36381039 0 343.76246864 0 3055
0.05350000 0.05348950 34547.86789914 0 -822.78113558 0 13251.57978945 0 5706.44369271 0 -2469.11736223 0 3009
0.05450000 0.05448610 36363.50772290 0 -1503.03487716 0 12218.42116062 0 5245.85712490 0 -931.04079149 0 3336
0.05550000 0.05550870 36870.17730660 0 -170.01665482 0 11084.72582244 0 4201.42686941 0 -2009.41658041 0 3349
0.05650000 0.05647670 35228.59442899 0 1465.13430930 0 10631.08160230 0 -1205.77617275 0 189.43640532 0 3324
0.05750000 0.05747970 35408.29826080 0 992.43572538 0 11336.06759583 0 -1814.62116988 0 -646.85075207 0 3639
0.05850000 0.05849280 34543.88186221 0 970.74946999 0 12921.40306336 0 -1705.07158812 0 2568.03751216 0 3846
0.05950000 0.05951020 33381.73064924 0 1581.68160034 0 12700.17801348 0 501.96495289 0 576.11963389 0 3787
0.06050000 0.06049470 32745.51486516 0 766.83599996 0 11255.23962465 0 2694.95957156 0 2123.48367069 0 3930
0.06150000 0.06148310 32028.69255640 0 -483.43873900 0 10509.18637837 0 3934.11880364 0 192.96072631 0 4083
0.06250000 0.06249100 32915.25360463 0 -882.09447240 0 8522.01409852 0 3024.09549912 0 -1032.85303266 0 4303
0.06350000 0.06350600 33221.84627886 0 -902.87390438 0 7341.88143005 0 110.83950760 0 -1438.62716369 0 4470
0.06450000 0.06451750 33789.52437231 0 355.83794609 0 7240.97933397 0 -230.41397224 0 -1174.58543374 0 4479
0.06550000 0.06550280 33566.74919696 0 561.85183613 0 8427.13534715 0 -1858.15755107 0 -3543.47611171 0 4636
0.06650000 0.06648880 33080.89558392 0 1616.63692980 0 10175.04575999 0 -1589.10005797 0 -3815.68921738 0 4653
0.06750000 0.06749660 31251.96897037 0 2058.28982216 0 10598.42931641 0 -2776.06435086 0 -3027.92652351 0 5220
0.06850000 0.06852730 30565.37410837 0 823.36796879 0 12625.66126745 0 -82.70351228 0 -2654.08054833 0 5029
0.06950000 0.06949320 29574.62248360 0 231.09270575 0 12109.13731466 0 167.40026447 0 -2024.17598940 0 5040
0.07050000 0.07048030 30060.47609664 0 -637.47360018 0 12448.50407036 0 2608.57329332 0 -3968.11084083 0 5475
0.07150000 0.07148790 29934.14087046 0 344.47552636 0 10887.07375211 0 1505.79188604 0 -1762.94662995 0 5509
0.07250000 0.07249820 29194.50957257 0 1297.62110712 0 10602.89146331 0 527.81993857 0 -2465.15346995 0 5916
0.07350000 0.07351270 27961.05258778 0 1389.49925847 0 10318.69810219 0 335.05740687 0 -687.98886770 0 5721
0.07450000 0.07449140 26775.87093919 0 783.62718055 0 9756.84405159 0 917.09298392 0 -1307.99587548 0 6028
0.07550000 0.07549160 26286.25273571 0 342.41053778 0 9979.24276790 0 922.57267747 0 -1568.12907477 0 6183
0.07650000 0.07648840 25749.02353551 0 -94.63039913 0 8471.93397336 0 1182.65715853 0 -367.35316390 0 6330
0.07750000 0.07749960 26259.78987939 0 176.26919665 0 9232.92378582 0 1224.17837660 0 -2235.55774251 0 6583
0.07850000 0.07848650 25440.43784281 0 399.09641193 0 8273.26324914 0 146.77584503 0 -923.24698205 0 6549
0.07950000 0.07947320 25651.91924685 0 612.85760764 0 9488.14087289 0 -1326.01054796 0 -1957.59810026 0 6828
0.08050000 0.08048110 24962.66702689 0 902.44540541 0 9271.51083782 0 -717.75681297 0 -367.61004184 0 7147
0.08150000 0.08149960 24709.00006529 0 886.79467428 0 9994.34541895 0 -789.26853005 0 -1159.09525132 0 7386
0.08250000 0.08250610 23532.67627656 0 790.17313899 0 9790.44855742 0 1310.90789690 0 -1346.90402489 0 7227
0.08350000 0.08350160 23057.56281859 0 518.39517568 0 8885.02026770 0 1846.76412883 0 -1194.11701472 0 7798
0.08450000 0.08449610 22316.27067198 0 279.52748344 0 7311.12251170 0 3385.26366238 0 -1921.11478998 0 7371
0.08550000 0.08548940 22050.20270659 0 -27.84933283 0 5661.81115137 0 2193.32789565 0 -1943.56946472 0 8256
0.08650000 0.08650700 21838.61057931 0 502.81309297 0 5634.28535187 0 185.45590455 0 -2129.46272610 0 8037
0.08750000 0.08749060 21254.76689162 0 869.83630159 0 5095.91570221 0 -1067.52601783 0 -413.73070364 0 8155
0.08850000 0.08849210 20301.88261773 0 548.83299661 0 5708.00489051 0 -31.30389817 0 -847.19893350 0 8718
0.08950000 0.08949900 20053.41964879 0 620.99465915 0 6203.92324681 0 -82.14790302 0 133.90980359 0 8571
0.09050000 0.09049190 20048.65854912 0 782.85211782 0 6644.44676205 0 643.67188761 0 17.92875124 0 8932
0.09150000 0.09150830 19092.45257778 0 442.21425923 0 5949.55872875 0 51.51343760 0 1479.76085039 0 9285
0.09250000 0.09250820 18694.29177731 0 215.57152082 0 5816.18150399 0 855.46553121 0 2136.68188188 0 9204
0.09350000 0.09350330 18824.05942418 0 -243.62104129 0 6134.87622924 0 1143.39469472 0 1503.46669782 0 9349
0.09450000 0.09448040 18853.40108495 0 147.93290297 0 5252.45623049 0 -172.73933950 0 207.05690304 0 9564
0.09550000 0.09549270 18599.40195361 0 671.99932343 0 6322.69607514 0 -665.47772411 0 -145.39844782 0 10155
0.09650000 0.09649430 17758.79105338 0 946.47118336 0 6256.71609155 0 -1087.10520981 0 221.93035697 0 9913
0.09750000 0.09749140 17395.72952258 0 181.24288496 0 6560.98357756 0 -753.18382346 0 -893.74809427 0 10476
0.09850000 0.09850240 17293.08907151 0 -19.56679097 0 6885.22553755 0 -248.47182679 0 -648.66882780 0 10575
0.09950000 0.09950330 17594.14558333 0 -165.72391449 0 6996.55776360 0 290.43261616 0 -2032.71275183 0 10882
0.10050000 0.10051200 17431.27168524 0 110.82622081 0 7012.61263459 0 337.90631605 0 -1316.48834861 0 10875
0.10150000 0.10150300 17512.21037967 0 282.23798856 0 6826.49792671 0 222.35221254 0 -1870.15995117 0 11118
0.10250000 0.10250800 17250.34989771 0 253.31596890 0 6589.59446489 0 240.15318915 0 -1003.88561647 0 11575
0.10350000 0.10349800 17275.15190530 0 374.59003540 0 7083.61945365 0 660.72548230 0 -660.41545720 0 11364
0.10450000 0.10450100 16535.40988417 0 329.33190771 0 6049.27608607 0 733.38207776 0 -677.17784975 0 12093
0.10550000 0.10551000 16600.95804709 0 680.82950247 0 7033.16286945 0 172.43817226 0 842.79657715 0 12067
0.10650000 0.10649700 16032.83706065 0 384.21852907 0 6580.14977182 0 312.39900136 0 385.28922288 0 12054
0.10750000 0.10749900 15594.70516757 0 67.89759953 0 6344.13209599 0 1094.38194168 0 1824.15444155 0 12807
0.10850000 0.10850100 15698.45285112 0 105.52401662 0 6227.52944332 0 552.39607074 0 842.93830291 0 12736
0.10950000 0.10950300 15329.41226492 0 -155.00811853 0 5870.44696792 0 1010.51351011 0 1164.17744841 0 12933
0.11050000 0.11050200 15770.86585544 0 -3.76638415 0 5635.33722272 0 488.49989867 0 1438.08461977 0 13428
0.11150000 0.11150900 15425.85221409 0 61.47244016 0 5614.35516719 0 355.75268919 0 1460.67216240 0 13453
0.11250000 0.11250000 15511.55200819 0 430.16646260 0 5516.61975602 0 -380.86140018 0 1931.75529413 0 13668
0.11350000 0.11349100 15233.30448549 0 397.13661043 0 5594.01530650 0 309.71285536 0 2582.71941487 0 13791
0.11450000 0.11448600 15120.14532585 0 239.76787225 0 5841.13852413 0 49.61375883 0 3331.20857261 0 14205
0.11550000 0.11549300 14825.84293217 0 76.89552429 0 5653.79478820 0 884.52374046 0 2631.22726990 0 14776
0.11650000 0.11649800 14843.00503564 0 452.43180058 0 5639.54470615 0 417.60048116 0 2242.52223482 0 14553
0.11750000 0.11747300 14242.77430722 0 406.27570734 0 5166.92252127 0 133.08491539 0 2517.95738701 0 14568
0.11850000 0.11849100 14034.94677037 0 339.53284056 0 5152.31812484 0 493.15359680 0 2609.62516418 0 16015
0.11950000 0.11950300 13724.92167545 0 -132.56783782 0 4768.77279312 0 -67.83016907 0 2621.43933476 0 15270
0.12050000 0.12050700 14044.24752322 0 -152.16695998 0 4804.06029231 0 170.66327859 0 1787.42754012 0 15999
0.12150000 0.12150000 13955.22603168 0 67.70361240 0 4949.66136368 0 -86.01070498 0 1289.17292328 0 15670
0.12250000 0.12250700 13770.42893045 0 332.25610869 0 4895.98273296 0 -265.88527203 0 1165.63899528 0 16887
0.12350000 0.12352200 13819.59005265 0 123.43095538 0 5085.68487408 0 51.35266745 0 1298.73941193 0 16407
0.12450000 0.12449800 13490.07766605 0 92.11675994 0 4302.34003781 0 595.49509509 0 516.69778829 0 16306
0.12550000 0.12549900 13428.07264706 0 96.42710527 0 4582.09339667 0 288.98989223 0 374.55681843 0 17523
0.12650000 0.12650100 13204.96530197 0 247.56721785 0 3936.26683465 0 453.50470885 0 448.79122018 0 17154
0.12750000 0.12750600 13019.50386125 0 249.62334857 0 3853.23547084 0 328.40958305 0 -46.35207339 0 18007
0.12850000 0.12850300 12606.72759201 0 210.21030115 0 3398.18506544 0 146.97514688 0 -64.32799273 0 17496
0.12950000 0.12949900 12416.61577488 0 332.33029327 0 3480.26420932 0 579.92076300 0 -253.11002366 0 18405
0.13050000 0.13049000 12249.20222362 0 303.26433339 0 3375.90754791 0 -186.82001497 0 165.86121132 0 18100
0.13150000 0.13148800 11925.77961567 0 298.18656523 0 3182.31902078 0 133.61970868 0 181.55844621 0 19059
0.13250000 0.13249300 11904.85292176 0 51.02536952 0 3432.80822515 0 259.84753331 0 931.98083187 0 18957
0.13350000 0.13349100 11969.95819169 0 -263.21684175 0 3268.10739347 0 683.63080065 0 1278.41062356 0 19468
0.13450000 0.13450700 12303.34589198 0 -261.13303022 0 2897.98171943 0 817.40552188 0 831.40869107 0 19953
0.13550000 0.13551000 12369.00477816 0 58.32468894 0 2785.54226090 0 69.35848207 0 657.77802943 0 19956
0.13650000 0.13649900 12199.04459219 0 376.99605159 0 2718.33324925 0 -491.30562578 0 894.79775066 0 19723
0.13750000 0.13749600 11992.43501108 0 463.13984591 0 3087.35169081 0 -505.31765284 0 1467.80273958 0 20946
0.13850000 0.13851100 11594.60638034 0 129.26164163 0 3271.58410346 0 -51.07309124 0 1136.39698544 0 20955
0.13950000 0.13949800 11499.27366365 0 339.37339909 0 3304.08137681 0 108.87084824 0 784.39781436 0 20506
0.14050000 0.14048300 11284.58128542 0 185.01411879 0 3565.59861670 0 -53.08006084 0 614.00580773 0 21447
0.14150000 0.14148400 10964.54680886 0 253.55734558 0 3463.21282910 0 23.97490493 0 589.70094752 0 21771
0.14250000 0.14249400 10960.41683170 0 62.18771234 0 3290.82780400 0 -134.40584374 0 188.35242472 0 22470
0.14350000 0.14350900 10899.69620240 0 -11.96796517 0 3492.29982640 0 -76.21291547 0 97.71835979 0 22519
0.14450000 0.14449900 10871.52820806 0 225.24098209 0 3294.96885348 0 -255.96114730 0 -419.55696096 0 22218
0.14550000 0.14550500 10620.14214538 0 230.26449586 0 3170.40519927 0 -64.28016029 0 46.73473293 0 23559
0.14650000 0.14650700 10538.28444799 0 106.63169200 0 3295.26780625 0 253.30821827 0 248.74531321 0 23044
0.14750000 0.14750500 10350.03278143 0 80.33558489 0 3054.13471635 0 792.98329502 0 -28.59627186 0 23649
0.14850000 0.14849900 10313.69341137 0 233.74342032 0 3043.88174357 0 468.50217282 0 83.56947880 0 23640
0.14950000 0.14949500 10192.90541993 0 141.77004698 0 2863.55786157 0 411.71886222 0 215.62356075 0 24457
0.15050000 0.15050000 10081.52890457 0 -42.20604136 0 3029.64273385 0 -104.64044510 0 427.36073549 0 24591
0.15150000 0.15149900 10135.48434342 0 -14.72962443 0 2640.92662644 0 94.34207579 0 611.84006099 0 25020
0.15250000 0.15250500 10188.24397118 0 30.98634390 0 2810.01209875 0 -273.05017342 0 393.32108730 0 25297
0.15350000 0.15350100 10252.40809350 0 19.62126681 0 2682.48106149 0 32.32565231 0 -43.11441489 0 25452
0.15450000 0.15450400 10184.02541542 0 128.97043949 0 2706.03189638 0 -78.15167954 0 37.54880009 0 26061
0.15550000 0.15549900 9894.50626606 0 318.99589249 0 2677.67567252 0 -100.18460942 0 -479.98528089 0 26128
0.15650000 0.15649500 9711.55824308 0 324.76014479 0 2873.23507346 0 -121.55862525 0 -145.39623336 0 26331
0.15750000 0.15749700 9434.38473590 0 310.31961876 0 3086.27767530 0 19.16099027 0 151.87465061 0 27345
0.15850000 0.15849900 9273.91353230 0 85.76567443 0 2834.32692405 0 395.18788126 0 400.93773954 0 26980
0.15950000 0.15949700 9201.65554054 0 126.09938566 0 2879.84525138 0 350.48226258 0 476.49085518 0 27777
0.16050000 0.16050000 9144.95416514 0 -29.27168368 0 2642.76463236 0 592.69490415 0 643.17916916 0 28224
0.16150000 0.16150500 9114.01808960 0 92.90555237 0 2686.69961724 0 351.33926052 0 630.19686831 0 28075
0.16250000 0.16249700 8982.87747444 0 165.59990445 0 2246.20931898 0 120.11036517 0 699.70449459 0 28590
0.16350000 0.16349900 8825.63938969 0 186.14349592 0 2343.25824602 0 105.80292848 0 558.20129064 0 29163
0.16450000 0.16449100 8823.75709448 0 62.48843669 0 2245.83285994 0 -309.43383278 0 569.69104210 0 28996
0.16550000 0.16550500 8849.77705780 0 -14.86902500 0 2507.93693305 0 -172.18904495 0 97.09698093 0 30777
0.16650000 0.16650700 8735.98677564 0 152.68625202 0 2466.83646332 0 -211.17802234 0 -46.45172431 0 29211
0.16750000 0.16749900 8774.55168298 0 118.56023969 0 2321.27968125 0 -134.25415289 0 -263.97972493 0 30922
0.16850000 0.16850800 8563.31387009 0 228.48074433 0 2548.41735258 0 -195.19290700 0 -187.23965608 0 30867
0.16950000 0.16949900 8443.30094138 0 192.75588830 0 2515.95329622 0 109.10934612 0 -328.93330401 0 30852
0.17050000 0.17049200 8258.84708223 0 59.76254104 0 2453.64932446 0 185.00304646 0 54.48270295 0 31257
0.17150000 0.17149500 8152.16523260 0 88.21166170 0 2261.42269329 0 529.64133600 0 -123.39995287 0 32608
0.17250000 0.17250900 8094.44520332 0 -3.00193978 0 2229.53439781 0 406.87914904 0 -132.82693022 0 32361
0.17350000 0.17350400 8101.93009490 0 165.94757545 0 2218.83853203 0 214.95589956 0 334.28234413 0 32508
0.17450000 0.17449800 8068.76848207 0 91.49416312 0 2154.04328719 0 45.30518508 0 385.32133262 0 32791
0.17550000 0.17549800 7944.35984040 0 89.18170808 0 2138.68597267 0 60.88394610 0 647.16299163 0 33633
0.17650000 0.17650100 7841.02183287 0 181.51969308 0 2244.55954259 0 -186.97945644 0 606.53198847 0 33984
0.17750000 0.17750300 7740.13080912 0 197.06523712 0 2316.55179856 0 -53.82777494 0 442.81659370 0 34069
