### header ###
fiducial parameters:
Omega_m = 0.31
Omega_nu = 0
Omega_de = 0.69
Omega_k = 0
H_0 = 100
w_de = -1
zeff = 0
beta = 0
fgrowth = 0
b_1 = 2
gamma = 0.55
Lx = 3500 Ly = 3500 Lz = 3500
nx = 700 ny = 700 nz = 700
xoffset = -685.467585 yoffset = -31.7331281 zoffset = 572.489161
bins = 400 dk = 0.001
kx_ny = 0.628318531 ky_ny = 0.628318531 kz_ny = 0.628318531
############################
A(data) = 7.95593804 (not used)
A(ran) = 7.94822798 (used)
Ngal = 472433
weighted Ngal = 0
Nran = 23820508
weighted Nran = 0
SN(data) = 3496.88019
SN(ran) = 69.2319483
SN(data+ran) = 3566.11214
############################
13 columns: k_central k_mean P_0(k) sigma^{lin}_{P_0(k)} P^img_1(k) sigma^{lin}_{P_1(k)} P_2(k) sigma^{lin}_{P_2(k)} P^img_3(k) sigma^{lin}_{P_3(k)} P_4(k) sigma^{lin}_{P_4(k)} N_modes
### header ###
0.00050000 0 0 0 0 0 0 0 0 0 0 0 0
0.00150000 0.00179520 33290.16252299 0 -41697.82165078 0 -40007.74199046 0 88434.99049627 0 -55338.37221111 0 3
0.00250000 0.00253879 55724.57490079 0 -38102.30561242 0 -2182.67631917 0 -23548.06680806 0 48910.88765389 0 6
0.00350000 0.00331552 68620.51161706 0 -18386.59187060 0 -14893.82700655 0 -55347.00862447 0 3552.34504389 0 7
0.00450000 0.00420575 73894.59209793 0 2650.79206786 0 -17490.50862302 0 -15312.25016145 0 20544.47725450 0 24
0.00550000 0.00557378 57684.26567044 0 4123.66593221 0 -21217.67460348 0 -8554.61102278 0 -736.92632893 0 45
0.00650000 0.00659388 62643.44923346 0 3762.80779404 0 -4218.57790055 0 -2209.84780428 0 16393.01978700 0 40
0.00750000 0.00754703 55780.26869462 0 4348.34554743 0 -22195.47160821 0 4809.10927243 0 8123.01180135 0 57
0.00850000 0.00846663 52068.82541541 0 -2690.97353462 0 -26153.38483788 0 11202.20318877 0 32463.94564502 0 75
0.00950000 0.00948925 55449.42762904 0 -14166.92888221 0 -30277.27221659 0 5814.15526854 0 9243.49785603 0 112
0.01050000 0.01054430 68484.21129855 0 -9207.15848597 0 -28649.08685201 0 -1508.48246097 0 13853.91425959 0 105
0.01150000 0.01145670 70474.68313119 0 5916.24210337 0 -18420.03029155 0 -23431.03233472 0 -5996.05142067 0 144
0.01250000 0.01249090 61844.69172105 0 8112.11663373 0 -23960.40018430 0 -17731.44241108 0 19293.63671974 0 169
0.01350000 0.01339930 57471.67703392 0 -4956.95802573 0 -4142.71033090 0 -15509.33754322 0 10826.17596560 0 180
0.01450000 0.01448870 67411.52447012 0 -3316.48238060 0 -1700.32156078 0 -3155.21396962 0 -13800.10276097 0 267
0.01550000 0.01550050 69884.86038811 0 -4760.62356205 0 13403.60280921 0 -8277.27143073 0 -4204.36103549 0 238
0.01650000 0.01653350 72592.04380626 0 1152.97225569 0 12751.99649363 0 -11144.40565322 0 -8485.92939193 0 315
0.01750000 0.01747870 82577.28777422 0 -4765.40680637 0 25210.13348658 0 -7547.08482591 0 13637.89320237 0 297
0.01850000 0.01844180 83635.91275013 0 -3602.86806204 0 29927.16530582 0 10116.38458310 0 -8179.17063283 0 388
0.01950000 0.01947590 89171.30009671 0 -3735.61416429 0 35469.74966354 0 -8.97406390 0 -9092.81458757 0 399
0.02050000 0.02045430 89930.86157927 0 1373.66583398 0 39494.42901187 0 1261.77999168 0 -2309.98590994 0 462
0.02150000 0.02154770 84348.52757545 0 12407.75791502 0 42167.84183933 0 -3878.90111977 0 -2306.43169367 0 571
0.02250000 0.02255340 78981.66101261 0 12681.35506129 0 48801.38236143 0 9983.94850595 0 15027.24852062 0 510
0.02350000 0.02348930 67006.38810500 0 8781.53831994 0 39365.32570449 0 6115.62145638 0 11596.59939881 0 555
0.02450000 0.02439640 63645.16245981 0 -8.63114293 0 38828.76084377 0 12595.10165095 0 17284.56338140 0 592
0.02550000 0.02547300 65185.32284208 0 -4915.53645859 0 29061.75239800 0 16112.11490635 0 6170.55125981 0 837
0.02650000 0.02652900 69983.73624874 0 -5887.93016881 0 26802.44451875 0 4095.47579322 0 3212.71255240 0 723
0.02750000 0.02749970 70859.55714189 0 179.19782656 0 20946.51336867 0 -692.07566279 0 -6587.41321690 0 826
0.02850000 0.02848090 70671.32761997 0 3691.59060081 0 28801.66348801 0 -10026.83161997 0 -261.23711007 0 831
0.02950000 0.02946900 69907.66937723 0 3460.58868812 0 27757.98615060 0 -1085.87064559 0 -3416.00043607 0 996
0.03050000 0.03053250 66762.46478925 0 6540.77658477 0 32266.85826325 0 -2229.70048268 0 -4080.21812962 0 1041
0.03150000 0.03150510 59407.23013547 0 5744.72071961 0 31787.75876835 0 5898.47102204 0 -2873.71118343 0 1036
0.03250000 0.03246190 56956.26031361 0 4555.97378243 0 32007.54441600 0 5271.27918269 0 -2736.56936823 0 1059
0.03350000 0.03345080 52731.06116282 0 -113.05618703 0 22480.14107930 0 11597.48518479 0 1901.77143853 0 1302
0.03450000 0.03451200 51694.13794355 0 -3447.32404299 0 15677.74760371 0 15247.14489152 0 -6686.05655871 0 1339
0.03550000 0.03553350 54167.36313829 0 -2293.90889430 0 7785.35018368 0 9972.58830068 0 -10538.42838822 0 1365
0.03650000 0.03647120 52260.48735803 0 267.36232016 0 5442.94450667 0 1314.71677664 0 -6114.10454788 0 1308
0.03750000 0.03744890 51509.34084233 0 2734.76457928 0 2840.08453296 0 -5138.57736974 0 -6766.69630037 0 1579
0.03850000 0.03847530 49928.65575122 0 971.73822859 0 5249.04595445 0 -4318.15131765 0 -5132.00040879 0 1662
0.03950000 0.03950240 49601.24710633 0 1803.47133879 0 8255.13785341 0 -5957.90726167 0 -1387.25157653 0 1683
0.04050000 0.04050350 49197.55014344 0 922.68340072 0 13405.48510443 0 -4896.66921710 0 -3440.66957577 0 1822
0.04150000 0.04152450 48735.50202876 0 1952.93665151 0 18768.47635359 0 -2381.45776664 0 -1888.38499782 0 1887
0.04250000 0.04250150 48582.48249977 0 2313.44047528 0 17586.39495595 0 -1353.14881609 0 3479.56665286 0 1920
0.04350000 0.04349210 46184.54911379 0 1262.41111420 0 17925.76171164 0 1519.13403744 0 5277.16965949 0 2005
0.04450000 0.04448520 44675.72341076 0 4060.43188517 0 20916.39664516 0 2411.62985177 0 234.99570025 0 2151
0.04550000 0.04548030 40732.42564984 0 2888.47059241 0 20556.76753505 0 5033.88853857 0 2561.75950399 0 2274
0.04650000 0.04648670 40090.89514985 0 1854.44832225 0 18112.66255458 0 2897.64954969 0 4215.32263706 0 2311
0.04750000 0.04749250 38116.81035793 0 -802.58964404 0 13330.96835840 0 3870.27577873 0 3392.01778052 0 2568
0.04850000 0.04851840 38698.77175040 0 -2125.35489359 0 14210.00022575 0 4664.67079517 0 3136.30243883 0 2493
0.04950000 0.04949480 38419.30627198 0 843.88609391 0 9893.79763727 0 691.38807142 0 -485.05086949 0 2644
0.05050000 0.05050630 37431.32272841 0 2559.51182205 0 11354.22620853 0 1514.94869866 0 3628.22368587 0 2829
0.05150000 0.05149060 35764.71639671 0 2430.65210581 0 12215.09946318 0 -612.04600623 0 3440.43705695 0 2784
0.05250000 0.05249300 34570.67688827 0 858.06088415 0 10497.22826757 0 266.09675344 0 3447.95516550 0 3055
0.05350000 0.05348950 33412.06881924 0 279.12777252 0 12763.29026495 0 -1298.50689311 0 4714.15301479 0 3009
0.05450000 0.05448610 35144.44476037 0 -246.25293290 0 13073.42608312 0 -1841.32761734 0 1945.91679758 0 3336
0.05550000 0.05550870 35270.55854005 0 -389.44355915 0 13949.57914602 0 -301.24363411 0 6317.43672085 0 3349
0.05650000 0.05647670 35577.04049103 0 440.66413376 0 14130.94382655 0 638.23980506 0 5115.79052526 0 3324
0.05750000 0.05747970 35808.89497274 0 -23.86019564 0 14462.44923162 0 2385.66525008 0 6592.90509001 0 3639
0.05850000 0.05849280 36050.71454678 0 -456.76329405 0 13934.29933777 0 3825.93111784 0 4793.53051141 0 3846
0.05950000 0.05951020 35358.25135262 0 371.93599915 0 13318.67807785 0 2384.94554896 0 4156.08569928 0 3787
0.06050000 0.06049470 36098.76843649 0 518.76166964 0 10919.80354427 0 748.14259397 0 5211.76543679 0 3930
0.06150000 0.06148310 35220.17946213 0 901.95600866 0 13696.57652391 0 869.63035635 0 8016.65104915 0 4083
0.06250000 0.06249100 33926.59975357 0 587.92162492 0 13957.44049664 0 1400.32799214 0 8441.27470594 0 4303
0.06350000 0.06350600 34577.98462265 0 45.52342060 0 13786.04090845 0 3235.22258876 0 6627.78291319 0 4470
0.06450000 0.06451750 33698.95275529 0 1004.75590120 0 12887.07885642 0 -553.85540315 0 6590.65740808 0 4479
0.06550000 0.06550280 33231.47920145 0 2061.09112034 0 14889.17663013 0 -963.44505730 0 7213.63069167 0 4636
0.06650000 0.06648880 31954.39725687 0 1179.81157105 0 15423.96991887 0 -1774.93795773 0 8476.75043466 0 4653
0.06750000 0.06749660 30786.26698850 0 711.71132362 0 14366.34145219 0 1786.08778882 0 7124.81957430 0 5220
0.06850000 0.06852730 31160.51156737 0 -523.60691898 0 13420.43274294 0 1945.99430385 0 4254.65153481 0 5029
0.06950000 0.06949320 30701.23153389 0 416.56632602 0 12012.47591900 0 459.95765976 0 1680.11456798 0 5040
0.07050000 0.07048030 29824.74630125 0 1557.97575291 0 11095.46597752 0 241.68449168 0 353.85489272 0 5475
0.07150000 0.07148790 28940.39971799 0 864.46068789 0 10209.90143852 0 -141.37365775 0 3172.47572401 0 5509
0.07250000 0.07249820 28269.97045022 0 150.84713886 0 10027.59561038 0 1425.90506247 0 347.27461008 0 5916
0.07350000 0.07351270 27834.82808484 0 542.55831014 0 11028.12409797 0 255.65998006 0 870.15075562 0 5721
0.07450000 0.07449140 27227.62179179 0 1551.25485174 0 11236.74884220 0 -697.59189501 0 272.43787386 0 6028
0.07550000 0.07549160 25786.66943989 0 661.41971706 0 10623.38633655 0 250.86787788 0 2486.10230851 0 6183
0.07650000 0.07648840 26061.15237214 0 -177.89682840 0 11382.68208331 0 957.36745821 0 1171.00907282 0 6330
0.07750000 0.07749960 25896.39617884 0 -60.53627510 0 10299.19973818 0 581.36016523 0 -765.90038852 0 6583
0.07850000 0.07848650 26151.94543566 0 297.88871969 0 11166.10740986 0 2346.75710066 0 -118.42847903 0 6549
0.07950000 0.07947320 25646.16163794 0 328.71407198 0 8690.73418410 0 506.83899027 0 -613.97037629 0 6828
0.08050000 0.08048110 25230.94945724 0 651.25089395 0 8852.61157295 0 1984.37098167 0 1161.39829488 0 7147
0.08150000 0.08149960 24606.35961422 0 701.64104420 0 7997.10839584 0 283.09720096 0 -517.22925988 0 7386
0.08250000 0.08250610 24218.05318283 0 640.07338205 0 9113.50876265 0 -346.22384645 0 1137.54850722 0 7227
0.08350000 0.08350160 23180.46562408 0 1262.02358283 0 9570.14251050 0 -1255.73450233 0 1461.52473141 0 7798
0.08450000 0.08449610 22867.56172470 0 741.73393237 0 10073.30216723 0 -536.08653628 0 1698.01851721 0 7371
0.08550000 0.08548940 22262.23772687 0 363.26193988 0 10417.51860120 0 -360.01442701 0 2726.92537331 0 8256
0.08650000 0.08650700 22400.08817086 0 25.26948115 0 10620.88399114 0 933.66603970 0 860.44254121 0 8037
0.08750000 0.08749060 21964.83508224 0 181.46654592 0 9470.62445503 0 785.77853326 0 156.11202932 0 8155
0.08850000 0.08849210 21388.29912893 0 916.59030037 0 9143.39296734 0 1012.43123677 0 -1263.13081531 0 8718
0.08950000 0.08949900 20728.61001624 0 582.22269933 0 7835.80676788 0 289.20248087 0 -593.53307914 0 8571
0.09050000 0.09049190 19741.62298190 0 367.47385224 0 7697.19233348 0 1324.18361436 0 -1044.23316811 0 8932
0.09150000 0.09150830 19873.49437049 0 -113.56219227 0 7289.28788716 0 797.03465868 0 -1039.99136047 0 9285
0.09250000 0.09250820 19830.64447344 0 69.27842916 0 6995.11836138 0 162.71002767 0 -1672.70718268 0 9204
0.09350000 0.09350330 19833.63400114 0 318.43452562 0 7059.09425418 0 657.64073260 0 -1178.67112159 0 9349
0.09450000 0.09448040 19341.02626996 0 493.49683886 0 7039.79519202 0 -506.89767359 0 -431.96128645 0 9564
0.09550000 0.09549270 19133.86307261 0 698.75670359 0 7398.68245637 0 -85.34835851 0 -632.75789704 0 10155
0.09650000 0.09649430 18670.15410920 0 812.48719519 0 8254.56209252 0 -422.23978526 0 -353.18612430 0 9913
0.09750000 0.09749140 17579.19794482 0 987.81635146 0 8131.94716748 0 83.74486443 0 209.57474970 0 10476
0.09850000 0.09850240 17380.22826783 0 347.40858521 0 7902.52859724 0 735.11600382 0 943.77839396 0 10575
0.09950000 0.09950330 16671.71020268 0 201.31922432 0 7512.10735181 0 979.39695567 0 337.27297907 0 10882
0.10050000 0.10051200 16997.56872210 0 102.27827532 0 7532.05968113 0 456.69353840 0 706.05890180 0 10875
0.10150000 0.10150300 16495.99240781 0 218.42707339 0 7381.26568943 0 625.89859181 0 -32.98002670 0 11118
0.10250000 0.10250800 16420.70059905 0 208.28814556 0 6671.83969365 0 586.46782867 0 376.45793660 0 11575
0.10350000 0.10349800 16356.03822210 0 -198.22561676 0 6644.91179969 0 282.93443779 0 -186.34611947 0 11364
0.10450000 0.10450100 16238.00723954 0 11.52197193 0 6618.06141200 0 829.33484464 0 -729.31299839 0 12093
0.10550000 0.10551000 16135.69895821 0 219.00283429 0 5292.72627586 0 16.16858376 0 -486.84347888 0 12067
0.10650000 0.10649700 15687.15907981 0 123.83066631 0 5284.31130900 0 291.71368414 0 -1319.84326303 0 12054
0.10750000 0.10749900 16051.32784310 0 330.22433709 0 4934.69158052 0 -299.74111963 0 -1450.57420217 0 12807
0.10850000 0.10850100 15519.08118906 0 197.12392044 0 4965.68301769 0 383.99265364 0 -1250.17619527 0 12736
0.10950000 0.10950300 15426.29510708 0 0.86671501 0 4376.54675874 0 86.05920176 0 -782.71703545 0 12933
0.11050000 0.11050200 15400.16442051 0 131.77063043 0 4934.55871263 0 843.22507612 0 -913.08590956 0 13428
0.11150000 0.11150900 15128.67101596 0 461.26751578 0 4841.89442622 0 195.26819880 0 171.21135867 0 13453
0.11250000 0.11250000 14932.24797367 0 509.51738564 0 5260.79369108 0 369.22992296 0 775.33068757 0 13668
0.11350000 0.11349100 14502.19887772 0 309.37293499 0 5127.92579326 0 624.95633697 0 1765.91401300 0 13791
0.11450000 0.11448600 14425.46766673 0 231.16689033 0 5453.83967430 0 255.24255342 0 2103.59777532 0 14205
0.11550000 0.11549300 14369.10953340 0 166.36168040 0 5699.05845206 0 371.43553006 0 2655.84104797 0 14776
0.11650000 0.11649800 14344.52897230 0 149.96467458 0 5810.24673788 0 322.31758994 0 2334.12357804 0 14553
0.11750000 0.11747300 13959.32279186 0 169.92143283 0 5196.02059089 0 -17.59923885 0 2366.05616282 0 14568
0.11850000 0.11849100 13883.69881335 0 382.49124640 0 5695.51530811 0 60.03702397 0 1547.29095946 0 16015
0.11950000 0.11950300 13610.76600657 0 126.05952529 0 5168.73838254 0 22.31926020 0 1645.66856547 0 15270
0.12050000 0.12050700 13286.78978238 0 -18.93146097 0 5022.36224844 0 94.66848792 0 642.53586709 0 15999
0.12150000 0.12150000 13445.67764352 0 127.31291246 0 4793.24263097 0 -222.58694583 0 260.39893508 0 15670
0.12250000 0.12250700 13336.39379756 0 103.72908205 0 4703.47929366 0 -402.56758576 0 -157.96442926 0 16887
0.12350000 0.12352200 13287.12195212 0 83.97782614 0 4792.08003686 0 -251.35173848 0 -185.86336610 0 16407
0.12450000 0.12449800 13185.25656379 0 -43.35867037 0 4274.91388923 0 -106.24438207 0 -469.02589378 0 16306
0.12550000 0.12549900 13422.97937764 0 -101.83305714 0 4626.00623691 0 457.96353406 0 -313.02569495 0 17523
0.12650000 0.12650100 13689.26878953 0 -138.51367625 0 4619.49570991 0 903.08206409 0 -842.64267184 0 17154
0.12750000 0.12750600 13443.46317856 0 172.52896532 0 4132.08089907 0 632.48994678 0 -749.63957229 0 18007
0.12850000 0.12850300 13204.96530197 0 357.36039075 0 4142.62175230 0 217.63540217 0 -262.91124559 0 17496
0.12950000 0.12949900 12988.16918202 0 558.89552541 0 3900.24856202 0 360.27573388 0 311.98821811 0 18405
0.13050000 0.13049000 12583.58643314 0 65.16063156 0 3919.24867141 0 264.68613925 0 461.41588493 0 18100
0.13150000 0.13148800 12396.68559020 0 49.02349320 0 3666.23497698 0 825.18383006 0 741.77932890 0 19059
0.13250000 0.13249300 12518.03827022 0 -24.50139397 0 3357.43891011 0 412.73862333 0 827.32300322 0 18957
0.13350000 0.13349100 12314.52894005 0 114.12355914 0 3022.61180759 0 504.54591180 0 1059.50744020 0 19468
0.13450000 0.13450700 12318.51497698 0 104.42398115 0 2894.21712900 0 251.44474600 0 1021.47954061 0 19953
0.13550000 0.13551000 12121.53831846 0 122.93602246 0 2462.50718432 0 377.32822133 0 1115.44814688 0 19956
0.13650000 0.13649900 12316.63268177 0 68.20264208 0 2830.32981479 0 -340.71315039 0 718.94487343 0 19723
0.13750000 0.13749600 12076.80612619 0 215.10426872 0 2632.85490165 0 -79.26599831 0 1007.46197739 0 20946
0.13850000 0.13851100 11820.81397639 0 381.48587930 0 2744.82932254 0 -138.80930732 0 722.79914970 0 20955
0.13950000 0.13949800 11716.95556959 0 196.93679815 0 2699.99747935 0 145.19028811 0 774.62205878 0 20506
0.14050000 0.14048300 11456.42376661 0 50.03140693 0 2680.87557439 0 336.25100349 0 427.11825158 0 21447
0.14150000 0.14148400 11308.49750703 0 231.48245159 0 2826.95275572 0 -164.66429301 0 106.57931990 0 21771
0.14250000 0.14249400 11125.36125453 0 382.10482226 0 3177.00430486 0 -368.52793757 0 66.51012651 0 22470
0.14350000 0.14350900 10754.95877237 0 369.85218761 0 3250.20344424 0 -517.13846682 0 66.24173335 0 22519
0.14450000 0.14449900 10589.74861375 0 285.57186556 0 3471.22919227 0 -227.32479362 0 185.47472750 0 22218
0.14550000 0.14550500 10461.86326210 0 111.82383727 0 3640.64683432 0 -37.95194344 0 -139.85232032 0 23559
0.14650000 0.14650700 10496.10996276 0 -56.14587686 0 3677.97164128 0 327.26359743 0 171.67528908 0 23044
0.14750000 0.14750500 10420.96209421 0 35.02995692 0 3387.23453620 0 482.70353663 0 -121.41247057 0 23649
0.14850000 0.14849900 10499.42058788 0 -8.67364959 0 3337.70802728 0 241.34789300 0 87.26697095 0 23640
0.14950000 0.14949500 10388.36516995 0 101.66066105 0 3043.17311478 0 319.88942910 0 97.46801453 0 24457
0.15050000 0.15050000 10326.23835539 0 192.39493051 0 3164.79153059 0 15.76222944 0 391.05015348 0 24591
0.15150000 0.15149900 10083.00152378 0 113.31417219 0 2852.30837956 0 122.09452578 0 192.49458144 0 25020
0.15250000 0.15250500 9997.43459758 0 177.44286308 0 2899.62042351 0 219.97830610 0 156.05334599 0 25297
0.15350000 0.15350100 9859.63951521 0 297.90422094 0 2575.31202957 0 312.25173944 0 229.13954766 0 25452
0.15450000 0.15450400 9543.61322024 0 281.06542936 0 2336.44876626 0 205.40269771 0 329.70725952 0 26061
0.15550000 0.15549900 9494.03134970 0 104.10155505 0 2164.30733230 0 177.14723201 0 448.55095073 0 26128
0.15650000 0.15649500 9203.52676343 0 57.47300571 0 2199.59483150 0 314.86702257 0 87.87484158 0 26331
0.15750000 0.15749700 9333.63765237 0 -46.16019000 0 2273.76833546 0 29.51062445 0 264.31521637 0 27345
0.15850000 0.15849900 9256.03172772 0 69.66385678 0 2054.31485755 0 -88.42668625 0 119.23675874 0 26980
0.15950000 0.15949700 9400.70272380 0 -26.77088839 0 2074.76544149 0 53.79001831 0 150.18169214 0 27777
0.16050000 0.16050000 9235.97974747 0 80.27202975 0 2228.57110555 0 -50.40720163 0 -41.55620662 0 28224
0.16150000 0.16150500 9190.18461202 0 248.10976177 0 2292.87916809 0 -108.45618968 0 200.67149332 0 28075
0.16250000 0.16249700 9009.94930863 0 201.80197768 0 2413.97718464 0 -10.89151375 0 7.44490941 0 28590
0.16350000 0.16349900 8857.48339587 0 111.07977705 0 2065.79685839 0 365.89715319 0 148.40790571 0 29163
0.16450000 0.16449100 8808.66551575 0 6.53894965 0 2190.93627349 0 248.26698878 0 206.05596488 0 28996
0.16550000 0.16550500 8810.25993052 0 14.42480333 0 1991.86694558 0 434.70057961 0 288.59018131 0 30777
0.16650000 0.16650700 8722.45639471 0 130.85937810 0 1963.32249219 0 149.01356187 0 171.23571779 0 29211
0.16750000 0.16749900 8600.53902613 0 238.32404109 0 1751.34283354 0 97.23593860 0 420.11722059 0 30922
0.16850000 0.16850800 8542.47575478 0 216.74740172 0 1975.47990484 0 -71.40963024 0 680.15741235 0 30867
0.16950000 0.16949900 8335.94367994 0 25.01503912 0 1798.10126125 0 -76.54718895 0 642.06307882 0 30852
0.17050000 0.17049200 8397.12934689 0 87.98102518 0 2157.76358833 0 -67.83005835 0 384.74557173 0 31257
0.17150000 0.17149500 8279.81806543 0 181.52190754 0 2249.32064226 0 -329.09274549 0 489.78096666 0 32608
0.17250000 0.17250900 8098.92949487 0 261.94573886 0 2225.18297415 0 -86.82474230 0 195.69116161 0 32361
0.17350000 0.17350400 7902.82755001 0 127.06267792 0 2143.70173581 0 -137.01669793 0 227.97916802 0 32508
0.17450000 0.17449800 7907.95403640 0 77.73536013 0 2109.37752888 0 108.33350832 0 174.94383937 0 32791
0.17550000 0.17549800 7847.43270894 0 32.62737316 0 2138.04377783 0 331.28949474 0 166.56541118 0 33633
0.17650000 0.17650100 7807.61662889 0 18.59076554 0 1705.96844643 0 257.56663440 0 203.44068175 0 33984
0.17750000 0.17750300 7777.16773564 0 -57.20959511 0 1637.56362370 0 342.86893203 0 110.61640025 0 34069
0.17850000 0.17849800 7821.30202237 0 19.48862036 0 1622.60491287 0 182.57045670 0 266.41231469 0 34536
