### header ###
fiducial parameters:
Omega_m = 0.31
Omega_nu = 0
Omega_de = 0.69
Omega_k = 0
H_0 = 100
w_de = -1
zeff = 0
beta = 0
fgrowth = 0
b_1 = 2
gamma = 0.55
Lx = 3500 Ly = 3500 Lz = 3500
nx = 700 ny = 700 nz = 700
xoffset = -685.467585 yoffset = -31.7331281 zoffset = 572.489161
bins = 400 dk = 0.001
kx_ny = 0.628318531 ky_ny = 0.628318531 kz_ny = 0.628318531
############################
A(data) = 8.00422258 (not used)
A(ran) = 7.99749635 (used)
Ngal = 474937
weighted Ngal = 0
Nran = 23820508
weighted Nran = 0
SN(data) = 3494.5474
SN(ran) = 69.6610936
SN(data+ran) = 3564.20849
############################
13 columns: k_central k_mean P_0(k) sigma^{lin}_{P_0(k)} P^img_1(k) sigma^{lin}_{P_1(k)} P_2(k) sigma^{lin}_{P_2(k)} P^img_3(k) sigma^{lin}_{P_3(k)} P_4(k) sigma^{lin}_{P_4(k)} N_modes
### header ###
0.00050000 0 0 0 0 0 0 0 0 0 0 0 0
0.00150000 0.00179520 2576.47462367 0 -4513.72179092 0 6973.83735308 0 -12317.96136074 0 -2523.18352432 0 3
0.00250000 0.00253879 8386.28954089 0 -6233.39777548 0 3418.66886636 0 9142.36324113 0 5528.36749265 0 6
0.00350000 0.00331552 16606.82637925 0 -9713.89450362 0 3207.66357229 0 925.77590104 0 -1096.72152391 0 7
0.00450000 0.00420575 29111.46713643 0 -15038.65301518 0 -3004.20960374 0 4787.66217926 0 1234.14346894 0 24
0.00550000 0.00557378 51672.10401716 0 -11803.98404266 0 -3489.78640867 0 8447.49735249 0 2844.61311381 0 45
0.00650000 0.00659388 66709.64979986 0 -22246.07213263 0 -12019.11931389 0 8474.36988482 0 9056.33127729 0 40
0.00750000 0.00754703 72034.44152840 0 -13619.29169668 0 -25502.88575479 0 20680.22395678 0 11895.66289216 0 57
0.00850000 0.00846663 85856.68893900 0 -13065.01111626 0 -25576.18454509 0 23158.54242094 0 10997.35410730 0 75
0.00950000 0.00948925 87199.54049301 0 -9979.18740628 0 -25899.82859954 0 5113.99680864 0 -5373.16671567 0 112
0.01050000 0.01054430 91698.11534358 0 8079.80758991 0 -27938.68649164 0 -8960.28993181 0 19143.27454870 0 105
0.01150000 0.01145670 85329.64627764 0 15545.32259888 0 -13026.47942589 0 -29219.86519641 0 21319.87216155 0 144
0.01250000 0.01249090 65049.90830955 0 14885.19059320 0 -1888.62858897 0 -28632.03547179 0 25256.63725082 0 169
0.01350000 0.01339930 73889.49882851 0 122.71457597 0 20076.67153091 0 -15017.06198179 0 3366.01996184 0 180
0.01450000 0.01448870 67569.74799177 0 -6820.70710083 0 24341.17743482 0 773.91453722 0 7505.15393182 0 267
0.01550000 0.01550050 78282.88659330 0 -9750.22280135 0 10507.97949496 0 -2680.78699579 0 -8029.37315036 0 238
0.01650000 0.01653350 84205.25169230 0 -2123.78262346 0 21181.80027106 0 2771.51362536 0 -4978.78157795 0 315
0.01750000 0.01747870 88488.46982515 0 3201.96132501 0 10748.11607563 0 -1977.29576611 0 -6621.43847107 0 297
0.01850000 0.01844180 77811.09483278 0 8270.59481886 0 12263.37479939 0 4108.19789444 0 -13316.13144314 0 388
0.01950000 0.01947590 72554.17645538 0 938.67626669 0 11437.26864467 0 -14682.67777226 0 -11773.53514941 0 399
0.02050000 0.02045430 69227.82863337 0 7323.30206900 0 10105.99874242 0 -3516.43749450 0 -28127.24818330 0 462
0.02150000 0.02154770 65038.28236849 0 1808.48710193 0 15055.92584190 0 -8650.65236826 0 -25700.30530630 0 571
0.02250000 0.02255340 63916.65586436 0 854.69821910 0 15007.87195219 0 -6418.85921619 0 -25932.93485074 0 510
0.02350000 0.02348930 64720.28519970 0 -813.59442767 0 9115.77858924 0 239.16664501 0 -30375.26229123 0 555
0.02450000 0.02439640 65279.76977278 0 -3457.32235230 0 16041.58419725 0 -4533.72948187 0 -20354.80833036 0 592
0.02550000 0.02547300 68508.68113640 0 -92.59774174 0 15775.40550861 0 -182.72436202 0 -18384.48812888 0 837
0.02650000 0.02652900 74674.52665816 0 635.79282127 0 23460.48471874 0 -45.37294770 0 -11494.29111748 0 723
0.02750000 0.02749970 66440.14941378 0 3908.44208238 0 22812.31082386 0 3164.35970992 0 -5114.51720790 0 826
0.02850000 0.02848090 68163.33532530 0 2998.04231882 0 30683.73726068 0 1148.53225344 0 2934.55360831 0 831
0.02950000 0.02946900 66387.66659414 0 4118.24049305 0 29831.61114264 0 6831.20366476 0 3024.18407772 0 996
0.03050000 0.03053250 63842.91418107 0 908.05907410 0 32092.13697761 0 4573.49020029 0 2930.74472857 0 1041
0.03150000 0.03150510 59652.59285345 0 4844.00924026 0 24442.93209990 0 9203.54890808 0 6258.88626721 0 1036
0.03250000 0.03246190 56701.04322654 0 1693.47886404 0 20034.70741985 0 9354.08823631 0 3328.46263606 0 1059
0.03350000 0.03345080 55052.81695404 0 -1267.74797476 0 10518.95216886 0 10074.97408828 0 2868.83936051 0 1302
0.03450000 0.03451200 55467.58624175 0 -544.41071008 0 8880.44739755 0 -177.18487791 0 -11273.06606761 0 1339
0.03550000 0.03553350 53288.33127094 0 5017.50149784 0 8410.64865549 0 -5555.36182056 0 -7329.28112440 0 1365
0.03650000 0.03647120 48276.55416503 0 3037.69231400 0 4657.47378404 0 -6910.85796951 0 -9457.00549550 0 1308
0.03750000 0.03744890 49121.48327194 0 58.95403988 0 10779.74970764 0 -6416.23507521 0 -7541.68153140 0 1579
0.03850000 0.03847530 49371.71781284 0 912.32191915 0 15717.38652656 0 -1744.31190728 0 -8079.94045781 0 1662
0.03950000 0.03950240 49207.84740552 0 3262.68195431 0 17682.72418187 0 516.96463132 0 -9429.14752626 0 1683
0.04050000 0.04050350 42583.82908277 0 4566.93538400 0 12650.90616804 0 1907.42939651 0 -3700.44846067 0 1822
0.04150000 0.04152450 42603.42709770 0 2926.70333001 0 14912.31778900 0 3480.80675324 0 -6038.21483358 0 1887
0.04250000 0.04250150 38735.31042230 0 1415.40849854 0 14655.99346945 0 833.88224844 0 -7112.77288490 0 1920
0.04350000 0.04349210 38879.02919845 0 565.19457100 0 12231.48650391 0 441.85773038 0 -9656.99382638 0 2005
0.04450000 0.04448520 37097.93502812 0 -883.05333573 0 12266.25360384 0 -1173.23461011 0 -9281.81917222 0 2151
0.04550000 0.04548030 40950.77189527 0 -2610.07912950 0 11541.12705147 0 -2784.68969189 0 -9282.94854935 0 2274
0.04650000 0.04648670 41684.20269125 0 -1470.18328942 0 13313.58480844 0 41.96931506 0 -9881.29698255 0 2311
0.04750000 0.04749250 44082.46824697 0 -142.25501481 0 13835.09130739 0 96.00369957 0 -9113.13230361 0 2568
0.04850000 0.04851840 43392.10879453 0 1136.55199798 0 16180.32042723 0 1785.05806261 0 -2664.66569086 0 2493
0.04950000 0.04949480 41742.66456630 0 2085.64953679 0 16581.47075541 0 303.69504682 0 -4132.50164741 0 2644
0.05050000 0.05050630 40733.20071258 0 3304.33604028 0 18613.57452938 0 2962.79910892 0 -1539.69534463 0 2829
0.05150000 0.05149060 37152.07869649 0 1642.11434920 0 16170.68750464 0 -448.11137943 0 -994.45088849 0 2784
0.05250000 0.05249300 36798.20719528 0 188.11436974 0 17758.79105338 0 3024.25051167 0 861.26300048 0 3055
0.05350000 0.05348950 36429.16660908 0 -244.54447318 0 14703.60446617 0 2204.15662932 0 -812.71417785 0 3009
0.05450000 0.05448610 36689.03407257 0 75.06969793 0 13088.04155188 0 3144.17486178 0 -3016.25629315 0 3336
0.05550000 0.05550870 35960.47509950 0 1432.19414297 0 11628.37697104 0 2215.93758293 0 -3630.91426080 0 3349
0.05650000 0.05647670 34271.50267167 0 1468.42278977 0 10764.41453776 0 -690.92856994 0 -3123.61355459 0 3324
0.05750000 0.05747970 33359.47527635 0 822.69920037 0 9964.10689987 0 -718.94376619 0 -2059.07595722 0 3639
0.05850000 0.05849280 32478.67183703 0 176.37216927 0 10889.72003774 0 870.70658632 0 -1691.84015996 0 3846
0.05950000 0.05951020 33074.36291227 0 -87.24161533 0 11325.65961050 0 1658.54567923 0 -3161.95701544 0 3787
0.06050000 0.06049470 32613.53275332 0 152.23339393 0 11316.02668790 0 -66.05095720 0 -1985.73287763 0 3930
0.06150000 0.06148310 32521.63245733 0 1010.02189889 0 11925.44744592 0 -1119.81064286 0 -143.66009282 0 4083
0.06250000 0.06249100 32552.63496682 0 984.17577106 0 13137.86701356 0 377.18760281 0 4032.03137201 0 4303
0.06350000 0.06350600 31915.42267351 0 -332.98688213 0 13719.49623629 0 -661.87589685 0 3512.75041034 0 4470
0.06450000 0.06451750 32280.80939252 0 319.44321441 0 15133.09994588 0 -658.73689276 0 1817.06815366 0 4479
0.06550000 0.06550280 32813.94183254 0 496.03129402 0 18123.73487940 0 -1308.57163637 0 2337.53385409 0 4636
0.06650000 0.06648880 32498.71274495 0 884.40748105 0 16790.51624799 0 -1177.58603376 0 3490.81613487 0 4653
0.06750000 0.06749660 31976.43118326 0 137.01559070 0 17732.32819706 0 1540.32646715 0 3205.81449404 0 5220
0.06850000 0.06852730 32296.08920077 0 -85.23043825 0 16685.10771571 0 3621.93460538 0 2840.06238831 0 5029
0.06950000 0.06949320 31745.01959455 0 -137.83715720 0 14680.35258405 0 3334.50812541 0 2152.33814917 0 5040
0.07050000 0.07048030 31513.94017558 0 380.29006822 0 15004.21808500 0 3877.89353821 0 1638.22796319 0 5475
0.07150000 0.07148790 30770.65501051 0 1415.02096717 0 13520.41583605 0 863.91814397 0 1442.44711575 0 5509
0.07250000 0.07249820 29146.23423636 0 1655.64473013 0 13183.15282207 0 283.03408871 0 2727.64507442 0 5916
0.07350000 0.07351270 27783.45249768 0 1027.92584812 0 12430.23473441 0 417.71452611 0 4518.26144410 0 5721
0.07450000 0.07449140 26988.34885246 0 326.46528281 0 11232.76280527 0 1641.19534624 0 3729.22543287 0 6028
0.07550000 0.07549160 27233.49012394 0 -22.38912657 0 11272.51245137 0 2814.52960728 0 2575.84350116 0 6183
0.07650000 0.07648840 26861.12784029 0 -578.61755037 0 8453.16638280 0 3461.89522245 0 630.93982130 0 6330
0.07750000 0.07749960 27326.82982216 0 -476.14318418 0 7487.62644164 0 1543.11669300 0 970.65535523 0 6583
0.07850000 0.07848650 26879.28645299 0 549.05333587 0 6966.26388290 0 -240.20965801 0 -79.07998326 0 6549
0.07950000 0.07947320 26217.60432183 0 1398.27961205 0 6527.19084222 0 -370.18546459 0 179.42148752 0 6828
0.08050000 0.08048110 25139.04916125 0 1296.43636837 0 6526.67044295 0 -270.67515975 0 1396.28659358 0 7147
0.08150000 0.08149960 23940.24855313 0 389.06931457 0 6058.25574150 0 343.59195484 0 332.98245320 0 7386
0.08250000 0.08250610 23990.18473806 0 -298.83318900 0 5805.75137401 0 1497.32155755 0 637.85891708 0 7227
0.08350000 0.08350160 24223.14645225 0 -512.83797586 0 5700.66393915 0 513.45913328 0 -553.48226580 0 7798
0.08450000 0.08449610 24607.35612346 0 19.27414943 0 5135.86465015 0 -51.53358923 0 -1695.18400206 0 7371
0.08550000 0.08548940 23722.12375421 0 712.20957824 0 4610.32782496 0 -1217.63463263 0 -674.33115504 0 8256
0.08650000 0.08650700 23489.38348652 0 1266.10927069 0 5078.16676552 0 -855.71465852 0 -1870.33710837 0 8037
0.08750000 0.08749060 22402.19191257 0 776.35487761 0 5406.16224363 0 -1283.82499040 0 -1537.49195199 0 8155
0.08850000 0.08849210 22099.80672178 0 875.40789544 0 6911.72161084 0 -1645.21460015 0 -3319.99230757 0 8718
0.08950000 0.08949900 21473.55603003 0 740.31778202 0 7341.43853705 0 -1590.93806389 0 -2511.95618696 0 8571
0.09050000 0.09049190 21008.62911090 0 1115.56994245 0 8353.57082105 0 -359.28918974 0 -3171.84460150 0 8932
0.09150000 0.09150830 19999.71887342 0 673.25713953 0 8597.56057076 0 299.75551365 0 -684.29624737 0 9285
0.09250000 0.09250820 20416.37045635 0 211.63641658 0 9079.37278524 0 651.19996126 0 -1155.87320479 0 9204
0.09350000 0.09350330 20039.91141252 0 -67.39967708 0 8939.76184160 0 1256.66457762 0 -1110.50989001 0 9349
0.09450000 0.09448040 20059.06653445 0 192.46800786 0 9139.98269130 0 366.43637541 0 -557.81597374 0 9564
0.09550000 0.09549270 19832.41604541 0 300.71105528 0 8494.32221415 0 168.49531739 0 -567.01153950 0 10155
0.09650000 0.09649430 19306.59133978 0 496.02907955 0 8723.48612092 0 -12.05875824 0 232.76573404 0 9913
0.09750000 0.09749140 19008.63507891 0 468.87973910 0 8683.52610065 0 456.85408711 0 -844.78184499 0 10476
0.09850000 0.09850240 18529.53558400 0 492.87125251 0 8570.42230262 0 369.64070621 0 -889.85838656 0 10575
0.09950000 0.09950330 18133.47852524 0 493.56216558 0 7811.23727911 0 853.07944521 0 -1184.97127442 0 10882
0.10050000 0.10051200 17638.98849884 0 185.31417879 0 7408.60325940 0 642.78388716 0 -734.45830773 0 10875
0.10150000 0.10150300 17578.42288208 0 207.16541182 0 7320.61149407 0 1512.90031857 0 -199.89421611 0 11118
0.10250000 0.10250800 17022.48145294 0 238.05719807 0 6121.52300551 0 1074.86918365 0 66.37139028 0 11575
0.10350000 0.10349800 17206.06059843 0 239.37148302 0 5826.34589817 0 1609.28490612 0 301.48390356 0 11364
0.10450000 0.10450100 16704.15211440 0 86.72188040 0 5032.11696660 0 496.04790250 0 264.67838863 0 12093
0.10550000 0.10551000 16444.94899040 0 498.49931522 0 5338.70964083 0 -269.84252092 0 751.70898980 0 12067
0.10650000 0.10649700 16148.21068526 0 395.56876924 0 5192.55495323 0 -324.21538641 0 955.03562660 0 12054
0.10750000 0.10749900 15991.53728907 0 56.74389312 0 5101.06433325 0 17.35974447 0 450.72334086 0 12807
0.10850000 0.10850100 16340.42624411 0 -234.54727110 0 5512.81087628 0 443.81199571 0 329.96635192 0 12736
0.10950000 0.10950300 15902.40507428 0 138.19036436 0 4912.05974860 0 229.80720884 0 -89.72635574 0 12933
0.11050000 0.11050200 16203.01869311 0 273.48753025 0 5471.06821171 0 358.77875556 0 273.99353550 0 13428
0.11150000 0.11150900 15536.79690877 0 447.18241138 0 5079.09684081 0 355.88887879 0 53.57322219 0 13453
0.11250000 0.11250000 15295.30950448 0 483.84177162 0 4967.74247011 0 267.08883374 0 450.63476226 0 13668
0.11350000 0.11349100 14973.43702200 0 232.69376392 0 4888.43140743 0 601.16080370 0 359.96792325 0 13791
0.11450000 0.11448600 14723.09175785 0 233.75892157 0 4954.10136593 0 286.09780099 0 678.75233434 0 14205
0.11550000 0.11549300 14677.03088660 0 -21.12876384 0 4805.33360967 0 140.02394135 0 504.94672996 0 14776
0.11650000 0.11649800 14648.35356532 0 -80.14381223 0 4481.70062754 0 501.36815458 0 1215.47552929 0 14553
0.11750000 0.11747300 14745.12568424 0 -81.57690323 0 4589.20182921 0 175.48749052 0 690.65286905 0 14568
0.11850000 0.11849100 14687.77104168 0 163.05326974 0 4319.62393685 0 156.25929124 0 576.52930991 0 16015
0.11950000 0.11950300 14664.18698982 0 216.81715737 0 4372.82645760 0 477.20834182 0 669.54126732 0 15270
0.12050000 0.12050700 14363.24120124 0 202.99003813 0 3894.14771104 0 13.49384226 0 556.69102553 0 15999
0.12150000 0.12150000 14343.53246307 0 344.64050400 0 4237.73302249 0 -164.92781434 0 561.72228993 0 15670
0.12250000 0.12250700 13960.09785460 0 356.21551237 0 4184.38656151 0 -271.26420743 0 22.09272043 0 16887
0.12350000 0.12352200 13675.87127650 0 407.00758801 0 4507.68737389 0 -534.01822600 0 -289.34974279 0 16407
0.12450000 0.12449800 13430.28711203 0 340.28686588 0 4877.75768631 0 -674.23925474 0 -352.28040813 0 16306
0.12550000 0.12549900 13264.75585599 0 344.66375588 0 5331.72300387 0 -313.62027879 0 -4.96128730 0 17523
0.12650000 0.12650100 13270.40274164 0 -85.14894594 0 5709.63252226 0 -382.54992972 0 -416.91288979 0 17154
0.12750000 0.12750600 13155.58273327 0 128.33599528 0 5839.88735142 0 389.05381332 0 202.53053665 0 18007
0.12850000 0.12850300 13196.99322810 0 329.09717442 0 5942.36171762 0 427.42384774 0 88.09008758 0 17496
0.12950000 0.12949900 13069.44004619 0 97.50233874 0 5907.29566492 0 473.75931264 0 700.70100382 0 18405
0.13050000 0.13049000 12746.68177772 0 165.80142076 0 5985.05660212 0 592.70708370 0 866.24997558 0 18100
0.13150000 0.13148800 12841.01798518 0 181.10337366 0 5465.58741093 0 633.50417173 0 1380.69676024 0 19059
0.13250000 0.13249300 12548.15499372 0 153.15239689 0 5398.50019485 0 576.55366903 0 1426.97907798 0 18957
0.13350000 0.13349100 12562.99190898 0 -66.46605865 0 4994.33819432 0 342.47697173 0 1293.11467092 0 19468
0.13450000 0.13450700 12515.71308201 0 -135.81424346 0 5018.32084988 0 518.41953480 0 1471.60054700 0 19953
0.13550000 0.13551000 12469.65221076 0 111.44959269 0 4553.43822004 0 208.73657471 0 778.31578634 0 19956
0.13650000 0.13649900 12504.30858744 0 144.68317564 0 4540.08499631 0 75.97109589 0 942.34342067 0 19723
0.13750000 0.13749600 12313.53243082 0 175.18964498 0 4326.41127196 0 1.97674215 0 1247.28631850 0 20946
0.13850000 0.13851100 12163.83459927 0 111.53484960 0 3983.22456421 0 303.08385449 0 902.73217863 0 20955
0.13950000 0.13949800 11970.06891494 0 201.99131443 0 3766.94884353 0 344.75897788 0 731.63486490 0 20506
0.14050000 0.14048300 11854.91673683 0 188.92818561 0 3625.17879655 0 244.87332122 0 57.57553544 0 21447
0.14150000 0.14148400 11432.72899149 0 370.45895101 0 3341.83800444 0 177.98540699 0 289.67305467 0 21771
0.14250000 0.14249400 11322.33791305 0 304.67494757 0 3464.23148298 0 -4.22170030 0 139.86339264 0 22470
0.14350000 0.14350900 11031.62295261 0 258.53214112 0 3422.72133724 0 -87.23751857 0 237.61541231 0 22519
0.14450000 0.14449900 10854.02286252 0 141.92284506 0 3226.61939238 0 80.95784955 0 67.69874058 0 22218
0.14550000 0.14550500 10761.61323959 0 -116.47532093 0 3063.11437178 0 366.75636560 0 -163.22267631 0 23559
0.14650000 0.14650700 10743.43248223 0 -50.82296743 0 2909.89554094 0 338.57951340 0 -832.37087610 0 23044
0.14750000 0.14750500 10762.95299089 0 293.52843817 0 2901.67987592 0 -163.26696561 0 -1171.24159164 0 23649
0.14850000 0.14849900 10350.20993862 0 497.86929994 0 2576.79572109 0 -93.20616598 0 -518.51032786 0 23640
0.14950000 0.14949500 10111.88921923 0 193.24196336 0 2516.54012943 0 227.80201082 0 -573.10463985 0 24457
0.15050000 0.15050000 10062.32949334 0 -136.47526125 0 2451.08054510 0 411.15306642 0 -423.43227464 0 24591
0.15150000 0.15149900 10210.94223705 0 -53.65681824 0 2505.26850277 0 283.96305676 0 -775.35615391 0 25020
0.15250000 0.15250500 10252.04270678 0 191.70180298 0 2671.15407320 0 -358.25724906 0 -475.38915886 0 25297
0.15350000 0.15350100 10295.87804074 0 179.84666480 0 2968.50135620 0 -282.63769948 0 -68.00887639 0 25452
0.15450000 0.15450400 10046.69537070 0 137.37211956 0 3313.78073335 0 -472.03535167 0 -3.80885759 0 26061
0.15550000 0.15549900 10026.26693140 0 158.44275369 0 3599.56850924 0 -11.33064216 0 145.49034812 0 26128
0.15650000 0.15649500 9851.01417418 0 27.51594513 0 3650.64514363 0 315.42396050 0 -202.42977850 0 26331
0.15750000 0.15749700 9885.96950363 0 5.94460940 0 3287.31787703 0 483.29922771 0 -227.53184609 0 27345
0.15850000 0.15849900 9667.80041540 0 212.16899541 0 2951.70463945 0 466.78374801 0 -157.12403980 0 26980
0.15950000 0.15949700 9613.53495146 0 163.88258687 0 2660.93431739 0 155.06015846 0 -170.69317387 0 27777
0.16050000 0.16050000 9367.23108587 0 205.09267262 0 2312.35538745 0 157.23365582 0 -269.74065553 0 28224
0.16150000 0.16150500 9176.70959272 0 302.49259235 0 2457.90109719 0 -137.87037418 0 -167.00608970 0 28075
0.16250000 0.16249700 8975.52545076 0 324.06812449 0 2489.23577643 0 -202.51503540 0 -113.22891529 0 28590
0.16350000 0.16349900 8815.84038223 0 170.62341822 0 2545.79321160 0 102.20165484 0 -119.43384612 0 29163
0.16450000 0.16449100 8516.82117818 0 135.47543032 0 2778.04629700 0 -34.36672467 0 -105.09917152 0 28996
0.16550000 0.16550500 8683.21607555 0 139.12486858 0 2991.77538297 0 89.11571703 0 176.90806979 0 30777
0.16650000 0.16650700 8488.21029085 0 50.24510279 0 3043.41670593 0 27.34709218 0 496.52401247 0 29211
0.16750000 0.16749900 8458.23750756 0 3.50164487 0 2983.65936888 0 214.40671225 0 573.68150797 0 30922
0.16850000 0.16850800 8597.99239142 0 -115.98038801 0 2963.10913402 0 345.39895825 0 585.75366372 0 30867
0.16950000 0.16949900 8696.79074578 0 -129.93705344 0 2682.32604894 0 306.00141208 0 293.60040829 0 30852
0.17050000 0.17049200 8678.87572422 0 168.66915289 0 2655.84104797 0 98.01543027 0 435.75687940 0 31257
0.17150000 0.17149500 8525.83405058 0 267.51401101 0 2492.32495505 0 139.00860917 0 668.95332687 0 32608
0.17250000 0.17250900 8335.65579950 0 175.95806432 0 2392.00969220 0 86.53055063 0 650.54115793 0 32361
0.17350000 0.17350400 8172.73761211 0 149.13646468 0 2270.86738636 0 141.28286469 0 678.40134164 0 32508
0.17450000 0.17449800 8129.25659255 0 71.34607509 0 2315.31169818 0 194.65147031 0 787.12271350 0 32791
0.17550000 0.17549800 8072.83202528 0 -9.87292630 0 2255.94189250 0 96.50582950 0 600.04803506 0 33633
0.17650000 0.17650100 7957.89022133 0 138.99310791 0 2186.76200703 0 132.35524918 0 498.10624769 0 33984
0.17750000 0.17750300 7948.76662568 0 146.83563558 0 2386.83891651 0 -255.23591002 0 598.55770014 0 34069
0.17850000 0.17849800 7755.76493177 0 216.34436910 0 2336.67021275 0 -225.27419906 0 610.23457389 0 34536
