### header ###
fiducial parameters:
Omega_m = 0.31
Omega_nu = 0
Omega_de = 0.69
Omega_k = 0
H_0 = 100
w_de = -1
zeff = 0
beta = 0
fgrowth = 0
b_1 = 2
gamma = 0.55
Lx = 3500 Ly = 3500 Lz = 3500
nx = 700 ny = 700 nz = 700
xoffset = -685.467585 yoffset = -31.7331281 zoffset = 572.489161
bins = 400 dk = 0.001
kx_ny = 0.628318531 ky_ny = 0.628318531 kz_ny = 0.628318531
############################
A(data) = 8.02083213 (not used)
A(ran) = 8.01857536 (used)
Ngal = 476941
weighted Ngal = 0
Nran = 23820508
weighted Nran = 0
SN(data) = 3488.43452
SN(ran) = 69.8446995
SN(data+ran) = 3558.27922
############################
13 columns: k_central k_mean P_0(k) sigma^{lin}_{P_0(k)} P^img_1(k) sigma^{lin}_{P_1(k)} P_2(k) sigma^{lin}_{P_2(k)} P^img_3(k) sigma^{lin}_{P_3(k)} P_4(k) sigma^{lin}_{P_4(k)} N_modes
### header ###
0.00050000 0 0 0 0 0 0 0 0 0 0 0 0
0.00150000 0.00179520 68368.83767394 0 -46907.90409420 0 56382.93533450 0 46568.09444551 0 -63583.71105706 0 3
0.00250000 0.00253879 100881.94444115 0 -13154.14333105 0 29848.21962987 0 40992.07166684 0 116960.28875681 0 6
0.00350000 0.00331552 88394.24434094 0 13031.01907906 0 3773.75832329 0 -40978.89560031 0 6049.57503884 0 7
0.00450000 0.00420575 63084.90282398 0 22599.50074084 0 -24915.38819991 0 2431.39395158 0 36824.89149809 0 24
0.00550000 0.00557378 58094.93819796 0 -5468.89803605 0 -29680.25246237 0 12946.53724070 0 752.47740914 0 45
0.00650000 0.00659388 68098.67294836 0 -13323.66062402 0 -15376.91253839 0 15069.10190843 0 11569.36147976 0 40
0.00750000 0.00754703 57831.08469753 0 -3978.49668151 0 -24582.22194612 0 -5058.90092034 0 19229.19578929 0 57
0.00850000 0.00846663 66705.22086993 0 2677.28814115 0 -16714.22792999 0 5221.30978078 0 34918.56933407 0 75
0.00950000 0.00948925 56250.84249942 0 -947.18202661 0 -17241.04914486 0 1315.03787406 0 19057.46403136 0 112
0.01050000 0.01054430 69667.73209841 0 -11581.87320680 0 -27355.83931319 0 12888.96115164 0 30587.07586501 0 105
0.01150000 0.01145670 70593.48917650 0 -11301.52194239 0 -27159.41627091 0 -3989.62436795 0 15765.32969303 0 144
0.01250000 0.01249090 81837.10286009 0 280.21064588 0 -31183.32055650 0 -16582.79943439 0 22649.43692577 0 169
0.01350000 0.01339930 80122.11046893 0 341.09071667 0 -8476.40719259 0 -26353.68319385 0 1998.00101352 0 180
0.01450000 0.01448870 82673.28483039 0 2797.38964846 0 -12992.59811194 0 -13307.38430654 0 7362.04413354 0 267
0.01550000 0.01550050 72692.91268536 0 -51.00986827 0 3193.70137069 0 -7969.83725981 0 2064.74498753 0 238
0.01650000 0.01653350 79798.13424474 0 5686.65744826 0 6397.72214811 0 185.68177998 0 3957.64749388 0 315
0.01750000 0.01747870 74000.77569294 0 -3210.99634206 0 10850.67902043 0 8113.26815551 0 1738.00068213 0 297
0.01850000 0.01844180 79238.64967165 0 1176.79989870 0 9194.72426520 0 13462.83974699 0 20799.14072533 0 388
0.01950000 0.01947590 76861.64297958 0 336.22775161 0 7619.57533650 0 8861.38085421 0 30617.52475827 0 399
0.02050000 0.02045430 80497.68372678 0 2631.17190828 0 16670.93513995 0 6017.75317731 0 22809.43201940 0 462
0.02150000 0.02154770 74941.92330253 0 3412.77838955 0 18157.39474685 0 -7026.72984873 0 25810.36421500 0 571
0.02250000 0.02255340 68020.39161189 0 2873.42330299 0 27098.62920765 0 10432.34444413 0 22524.31965532 0 510
0.02350000 0.02348930 69335.11946086 0 -4652.35836997 0 15200.30895753 0 2069.60573813 0 11834.98655215 0 555
0.02450000 0.02439640 76674.74213664 0 -7135.50436775 0 19540.88173294 0 6074.37704643 0 4211.73520382 0 592
0.02550000 0.02547300 80404.89764480 0 -3120.74582246 0 13013.19263611 0 -280.61478574 0 -5317.29576463 0 837
0.02650000 0.02652900 80241.35940723 0 5431.51786746 0 12749.67130542 0 1508.98071558 0 -5407.52413958 0 723
0.02750000 0.02749970 70703.99097819 0 5823.26779187 0 4712.48109374 0 861.07144926 0 -11336.28904232 0 826
0.02850000 0.02848090 68057.37317679 0 5316.95252256 0 8317.37539122 0 -3376.80440622 0 -9545.59516638 0 831
0.02950000 0.02946900 64116.95422033 0 6346.10296981 0 9287.46605788 0 -4748.46614940 0 -11398.73695430 0 996
0.03050000 0.03053250 58278.29589696 0 4702.07310841 0 12499.21531803 0 -2803.97768172 0 -15135.20368760 0 1041
0.03150000 0.03150510 56764.93054075 0 4025.43226642 0 14467.65322428 0 -7382.29541564 0 -5629.19208245 0 1036
0.03250000 0.03246190 54048.33564649 0 3279.94370870 0 18168.02417868 0 -4621.16763096 0 -753.26575867 0 1059
0.03350000 0.03345080 55848.14204576 0 -549.32460783 0 24905.97672381 0 -453.68075882 0 968.97568355 0 1302
0.03450000 0.03451200 55702.31952790 0 -492.09065361 0 23698.87187209 0 595.09870587 0 -2851.76583564 0 1339
0.03550000 0.03553350 55523.50148208 0 2349.63590512 0 25352.19141401 0 8538.12433113 0 3364.31482382 0 1365
0.03650000 0.03647120 55182.03098467 0 -251.92085597 0 29424.14958931 0 1355.61794452 0 4643.01332783 0 1308
0.03750000 0.03744890 55157.22897708 0 160.61292935 0 24364.87220993 0 7825.76416927 0 2017.76511333 0 1579
0.03850000 0.03847530 53398.39017964 0 2549.50244042 0 22177.31299551 0 4066.25592802 0 10277.94087453 0 1662
0.03950000 0.03950240 52165.26536458 0 1829.21449399 0 20792.49733044 0 4238.60773615 0 6274.08856919 0 1683
0.04050000 0.04050350 49845.39186858 0 17.71948430 0 20486.01537946 0 2441.60263506 0 7672.37925356 0 1822
0.04150000 0.04152450 52093.62742301 0 2579.38664510 0 23739.61802742 0 -444.85057977 0 4374.45408935 0 1887
0.04250000 0.04250150 47657.05759142 0 2621.39504546 0 19582.51367426 0 -5288.30841826 0 6701.41387324 0 1920
0.04350000 0.04349210 45835.99232850 0 1695.56046110 0 21139.83616000 0 1134.53683487 0 6056.42880790 0 2005
0.04450000 0.04448520 46972.56647114 0 486.32861578 0 22173.99129806 0 1986.10933667 0 6050.20616135 0 2151
0.04550000 0.04548030 44609.17873860 0 -632.37811630 0 20150.63466070 0 9131.55665211 0 492.19362623 0 2274
0.04650000 0.04648670 45063.80839565 0 2433.78557374 0 18434.86720681 0 2658.14409154 0 -133.70607281 0 2311
0.04750000 0.04749250 40894.74593168 0 3128.57395611 0 15556.17347721 0 3177.55792110 0 -3655.82699165 0 2568
0.04850000 0.04851840 38666.21911544 0 1083.21218040 0 14594.32062021 0 -2284.75208168 0 -3436.65032186 0 2493
0.04950000 0.04949480 37706.80216990 0 1388.50274923 0 14726.63490179 0 -364.35810004 0 -4475.76586144 0 2644
0.05050000 0.05050630 36874.16334354 0 1561.20887175 0 14797.27633414 0 -2417.32102673 0 -6617.67388063 0 2829
0.05150000 0.05149060 36525.27438850 0 816.07130674 0 14077.46449768 0 -2555.52578512 0 -6353.72072928 0 2784
0.05250000 0.05249300 35975.20129151 0 -126.09495673 0 14612.03633992 0 1373.00149449 0 -3808.00502395 0 3055
0.05350000 0.05348950 35661.52232940 0 14.60229269 0 12824.18805145 0 3793.52242309 0 -4315.48288737 0 3009
0.05450000 0.05448610 36552.84447730 0 129.99352230 0 15887.67888228 0 3597.12152546 0 -5393.34049149 0 3336
0.05550000 0.05550870 34577.87389940 0 543.82609133 0 11662.36900823 0 3984.80790666 0 -3668.33871869 0 3349
0.05650000 0.05647670 35247.86027418 0 733.83493584 0 12180.66453299 0 2529.05185648 0 -2198.10006765 0 3324
0.05750000 0.05747970 34045.29507562 0 806.80266363 0 11485.10108789 0 638.71148609 0 2878.42799380 0 3639
0.05850000 0.05849280 33624.65745576 0 574.55843609 0 11376.81375116 0 1483.80224895 0 2334.32287989 0 3846
0.05950000 0.05951020 33229.37545974 0 575.88268614 0 11647.97498597 0 -872.05851718 0 4737.74813898 0 3787
0.06050000 0.06049470 34017.06064733 0 277.82455988 0 12688.55207242 0 1654.90288437 0 4220.23874928 0 3930
0.06150000 0.06148310 32969.17582650 0 273.54842804 0 13551.08617580 0 150.47621598 0 8078.65606813 0 4083
0.06250000 0.06249100 33996.79829292 0 -779.05873933 0 13443.24173206 0 2309.57623392 0 6248.00217191 0 4303
0.06350000 0.06350600 34095.89560004 0 -866.69951197 0 12984.84748457 0 -204.16591903 0 5506.67680833 0 4470
0.06450000 0.06451750 34937.61373276 0 234.84954557 0 14807.24142647 0 779.91573727 0 5990.74777708 0 4479
0.06550000 0.06550280 34521.73721257 0 1222.60610647 0 14065.61711012 0 -1698.94859250 0 5091.20996416 0 4636
0.06650000 0.06648880 32681.07393472 0 2004.19044310 0 13702.55557932 0 60.98813667 0 5240.85243409 0 4653
0.06750000 0.06749660 31543.61400610 0 1472.25381416 0 15120.92038858 0 -252.01939966 0 5527.79173176 0 5220
0.06850000 0.06852730 30708.53926827 0 512.24892818 0 14849.75915378 0 1546.01764210 0 3526.83440751 0 5029
0.06950000 0.06949320 30374.15505875 0 594.54398239 0 14356.48708311 0 2084.37621943 0 4368.35323838 0 5040
0.07050000 0.07048030 29945.76681152 0 824.47963020 0 13408.69607863 0 1624.26576160 0 5058.46909967 0 5475
0.07150000 0.07148790 29367.57000949 0 -419.62450214 0 12618.46425632 0 1384.89317134 0 4977.65220082 0 5509
0.07250000 0.07249820 29161.95693761 0 -4.00960991 0 11848.16261869 0 2189.57437754 0 3879.62082088 0 5916
0.07350000 0.07351270 29789.42558508 0 34.46748282 0 11309.27256977 0 -365.57605577 0 1440.79733935 0 5721
0.07450000 0.07449140 28382.68671687 0 1043.88328265 0 11332.30300539 0 -217.43720756 0 757.46438424 0 6028
0.07550000 0.07549160 28307.61635460 0 1185.83491575 0 10936.31238057 0 -1965.92448853 0 -109.56762965 0 6183
0.07650000 0.07648840 27071.61273509 0 323.44696707 0 11468.16043091 0 -1565.32777659 0 -496.78974827 0 6330
0.07750000 0.07749960 27632.86888015 0 313.30914646 0 12096.51486437 0 -21.13452144 0 -1307.46440389 0 6583
0.07850000 0.07848650 27581.27184650 0 -471.39315683 0 11105.09890011 0 1773.18853041 0 -2862.80494349 0 6549
0.07950000 0.07947320 27271.68964457 0 428.07047151 0 9981.13613544 0 1670.12733099 0 -2714.45793556 0 6828
0.08050000 0.08048110 27357.72160841 0 1096.88317986 0 10253.55961528 0 1279.75037486 0 -2816.13509437 0 7147
0.08150000 0.08149960 25817.78267263 0 706.06443797 0 9201.91020401 0 1225.87244230 0 -1941.76467577 0 7386
0.08250000 0.08250610 24946.72287915 0 1385.84539128 0 8909.26865905 0 537.61783880 0 -1908.08266367 0 7227
0.08350000 0.08350160 23903.82060448 0 1264.79166403 0 8500.17947398 0 437.75321957 0 -2250.70468286 0 7798
0.08450000 0.08449610 22763.03897841 0 483.88384646 0 8228.23210410 0 48.64393390 0 -2593.68101644 0 7371
0.08550000 0.08548940 22326.56793406 0 518.18923044 0 8391.88106492 0 79.53383785 0 -1785.44559398 0 8256
0.08650000 0.08650700 21968.26750293 0 433.59777606 0 7498.37766903 0 376.79564251 0 -2229.40152991 0 8037
0.08750000 0.08749060 22164.57982197 0 -9.36002300 0 7990.18819283 0 105.23048929 0 -1055.07186688 0 8155
0.08850000 0.08849210 22015.10343691 0 -143.00018227 0 7689.62993563 0 1268.98807514 0 23.36171958 0 8718
0.08950000 0.08949900 22426.77247367 0 -114.30514527 0 7305.73028951 0 2010.01448595 0 -309.30760827 0 8571
0.09050000 0.09049190 21752.13572247 0 204.86236826 0 7618.60097191 0 514.46339314 0 952.47238341 0 8932
0.09150000 0.09150830 21588.81893140 0 995.49390149 0 7838.58592141 0 457.22611722 0 1603.79303301 0 9285
0.09250000 0.09250820 20781.20355912 0 715.87562499 0 8122.55783604 0 -229.55918877 0 2852.37481351 0 9204
0.09350000 0.09350330 19941.03555189 0 1308.98131239 0 7957.93451063 0 -104.68750248 0 3454.74250061 0 9349
0.09450000 0.09448040 19464.70413819 0 274.11865277 0 8284.61238208 0 1112.68006568 0 3307.48058053 0 9564
0.09550000 0.09549270 18993.35527066 0 -126.35294190 0 8200.63987066 0 1270.90358733 0 2498.71368647 0 10155
0.09650000 0.09649430 18641.80895767 0 345.68462423 0 7097.63701687 0 1822.29429098 0 2278.62908605 0 9913
0.09750000 0.09749140 18529.86775375 0 363.83548631 0 6058.73185146 0 289.51361320 0 1654.33819580 0 10476
0.09850000 0.09850240 17940.70935015 0 693.74869107 0 5827.02130998 0 131.77173767 0 1807.00341040 0 10575
0.09950000 0.09950330 17468.36397339 0 465.31112881 0 5909.33297269 0 -773.70305582 0 2111.69164476 0 10882
0.10050000 0.10051200 17060.23808057 0 309.29210702 0 5821.95018522 0 -167.43901761 0 1338.85444475 0 10875
0.10150000 0.10150300 16852.07837398 0 13.26619526 0 5212.13082351 0 160.38926839 0 720.24365713 0 11118
0.10250000 0.10250800 16911.97965125 0 221.20511969 0 5270.65913250 0 -169.18733769 0 -874.61511698 0 11575
0.10350000 0.10349800 16596.75056366 0 280.28261599 0 5870.38053397 0 -351.89287676 0 -549.01568997 0 11364
0.10450000 0.10450100 16444.39537416 0 359.95242199 0 5812.37262425 0 -27.96559224 0 -1283.80284575 0 12093
0.10550000 0.10551000 16222.83815454 0 99.14967922 0 5866.40556936 0 -80.67240501 0 -790.75554327 0 12067
0.10650000 0.10649700 16596.52911717 0 -262.40856204 0 6460.66831471 0 501.31168572 0 -1900.19916840 0 12054
0.10750000 0.10749900 16261.81273790 0 175.94034860 0 6039.98640555 0 49.84395247 0 -1099.11978947 0 12807
0.10850000 0.10850100 16531.09167749 0 515.53076525 0 6205.34050439 0 320.99223265 0 -701.30665999 0 12736
0.10950000 0.10950300 15854.57263107 0 282.31438760 0 5554.11064785 0 365.41772152 0 -333.86934642 0 12933
0.11050000 0.11050200 15541.89017819 0 27.71923301 0 5496.30203998 0 652.93278009 0 -86.74003901 0 13428
0.11150000 0.11150900 15686.27329382 0 162.10658597 0 4823.34828215 0 1061.39416435 0 -398.98236698 0 13453
0.11250000 0.11250000 15466.70909267 0 42.30203842 0 4745.19981358 0 551.52689324 0 -79.77942202 0 13668
0.11350000 0.11349100 15046.51436580 0 349.23662603 0 4337.77147723 0 79.89158467 0 -274.35338605 0 13791
0.11450000 0.11448600 14992.70286718 0 637.24551029 0 4553.18355657 0 -191.84795767 0 1254.25081081 0 14205
0.11550000 0.11549300 14276.87706766 0 352.65908164 0 4251.96095988 0 534.26403161 0 955.60695857 0 14776
0.11650000 0.11649800 13995.97218701 0 93.96262722 0 4481.85564009 0 224.08170968 0 1258.05969054 0 14553
0.11750000 0.11747300 14261.59725941 0 5.70169367 0 4407.43854499 0 222.47068642 0 323.22441334 0 14568
0.11850000 0.11849100 14306.21872843 0 -95.33858502 0 4839.40315314 0 301.13844702 0 200.88186749 0 16015
0.11950000 0.11950300 14095.73383363 0 44.04747970 0 3886.33064972 0 -286.59716284 0 465.07860998 0 15270
0.12050000 0.12050700 14457.57740870 0 108.26142749 0 4638.08614328 0 -361.77049773 0 247.14204058 0 15999
0.12150000 0.12150000 14082.66849034 0 70.52450859 0 4101.43270397 0 -85.83210838 0 249.37643573 0 15670
0.12250000 0.12250700 14250.41421134 0 402.57422915 0 4704.63081544 0 -72.35509606 0 -443.80756678 0 16887
0.12350000 0.12352200 13923.44845945 0 289.44275032 0 4485.18840986 0 -304.96172078 0 -404.19189581 0 16407
0.12450000 0.12449800 13619.73458967 0 172.74819736 0 4891.42093513 0 2.03391964 0 -664.48453657 0 16306
0.12550000 0.12549900 13751.49525501 0 105.75753195 0 4989.16741863 0 -57.38210193 0 -678.19761086 0 17523
0.12650000 0.12650100 13485.09511988 0 98.44282201 0 4808.38957132 0 220.62160817 0 -476.93706987 0 17154
0.12750000 0.12750600 13648.85480395 0 -74.05336924 0 4487.42501948 0 806.54800016 0 -158.75277878 0 18007
0.12850000 0.12850300 13358.09555421 0 63.58681131 0 4102.07489881 0 816.60388556 0 383.64055371 0 17496
0.12950000 0.12949900 13493.06719375 0 322.74165998 0 3964.70056479 0 1254.93729495 0 -14.56564330 0 18405
0.13050000 0.13049000 12913.43098949 0 302.69521589 0 3369.04270652 0 925.23003543 0 939.69270610 0 18100
0.13150000 0.13148800 12480.39236583 0 454.08268421 0 3233.40672749 0 472.91781596 0 1049.16699605 0 19059
0.13250000 0.13249300 12381.07361221 0 184.71516602 0 3108.95379653 0 97.98918886 0 1255.91165953 0 18957
0.13350000 0.13349100 12219.63911635 0 112.22354820 0 3434.22548273 0 -128.15551638 0 1527.03967736 0 19468
0.13450000 0.13450700 12240.45508701 0 141.18321376 0 3302.63090226 0 -448.85654689 0 1798.38914169 0 19953
0.13550000 0.13551000 12140.13982416 0 32.45331621 0 3664.95058730 0 -259.91728896 0 1091.70133184 0 19956
0.13650000 0.13649900 12193.61915303 0 41.44603698 0 3590.84351729 0 -172.68287064 0 1434.78506697 0 19723
0.13750000 0.13749600 12137.37174295 0 207.08126215 0 3962.19821938 0 151.26899444 0 1255.71235768 0 20946
0.13850000 0.13851100 11867.53918712 0 136.84950583 0 3639.88284391 0 155.76546555 0 953.29727161 0 20955
0.13950000 0.13949800 11931.53722457 0 197.30772104 0 3770.75772326 0 282.95768967 0 832.73294112 0 20506
0.14050000 0.14048300 11713.19097915 0 -6.86820737 0 3440.14917650 0 -322.25447768 0 335.63427500 0 21447
0.14150000 0.14148400 11509.12803274 0 309.91658614 0 3382.79453394 0 103.16372914 0 559.21551559 0 21771
0.14250000 0.14249400 11418.44569248 0 266.44663890 0 3197.14486371 0 -148.20749663 0 185.96523149 0 22470
0.14350000 0.14350900 11245.27453231 0 92.99911351 0 3242.34209362 0 -76.71759203 0 -133.15467104 0 22519
0.14450000 0.14449900 11002.09306232 0 241.04894023 0 3222.00223293 0 7.58525113 0 -602.64449523 0 22218
0.14550000 0.14550500 11092.36572657 0 200.87743856 0 3296.61862988 0 -22.67412821 0 -554.05691946 0 23559
0.14650000 0.14650700 10723.29192339 0 177.15719710 0 3522.83729825 0 132.17034136 0 48.23857609 0 23044
0.14750000 0.14750500 10744.72794424 0 139.73273921 0 3144.07521085 0 384.73892833 0 -181.81643138 0 23649
0.14850000 0.14849900 10657.69947116 0 80.34134250 0 3544.91551394 0 323.49789976 0 232.96282142 0 23640
0.14950000 0.14949500 10468.69488651 0 203.11626264 0 3299.53065131 0 59.78512858 0 -110.66567210 0 24457
0.15050000 0.15050000 10408.25106532 0 324.45122693 0 3486.36506030 0 134.64279149 0 649.61440434 0 24591
0.15150000 0.15149900 10120.33740306 0 106.81460680 0 3452.26229986 0 249.27014141 0 573.01716848 0 25020
0.15250000 0.15250500 9889.46835827 0 172.51014237 0 3158.95641541 0 218.04618542 0 737.13227417 0 25297
0.15350000 0.15350100 9856.61677053 0 27.57141748 0 3040.42717823 0 518.52029295 0 455.31614119 0 25452
0.15450000 0.15450400 9817.16607720 0 95.91977135 0 2897.66062201 0 -20.00171189 0 469.71016346 0 26061
0.15550000 0.15549900 9683.63383989 0 215.16516650 0 2675.10689316 0 4.21998409 0 68.65860041 0 26128
0.15650000 0.15649500 9493.32272091 0 223.51037772 0 2935.29545407 0 -461.48010442 0 198.52346230 0 26331
0.15750000 0.15749700 9402.55180205 0 237.01639953 0 2910.60416973 0 -336.75036534 0 169.11979651 0 27345
0.15850000 0.15849900 9209.09614281 0 133.22110499 0 3185.57428427 0 -130.94131331 0 188.55172657 0 26980
0.15950000 0.15949700 9218.08687057 0 51.04064933 0 3062.77112971 0 420.80924090 0 447.25881042 0 27777
0.16050000 0.16050000 9165.78120812 0 -87.94038975 0 2796.39313922 0 577.72069206 0 346.29692380 0 28224
0.16150000 0.16150500 9254.51481922 0 -94.90355338 0 2663.24843328 0 410.85632812 0 135.85742552 0 28075
0.16250000 0.16249700 9216.86891484 0 105.04945678 0 2532.39569857 0 443.15762131 0 133.33514993 0 28590
0.16350000 0.16349900 9082.12979412 0 77.28715242 0 2371.37087873 0 12.25296681 0 409.36156427 0 29163
0.16450000 0.16449100 9101.29598838 0 131.10850541 0 2173.02125193 0 -153.63293579 0 -101.51627793 0 28996
0.16550000 0.16550500 9015.23080756 0 135.22630301 0 2305.52376304 0 -193.10798823 0 -296.78813060 0 30777
0.16650000 0.16650700 8751.67625991 0 292.80209367 0 2475.65003388 0 -277.79023568 0 -191.94982306 0 29211
0.16750000 0.16749900 8652.21356606 0 246.90066390 0 2414.56401785 0 -149.58046491 0 -6.50767033 0 30922
0.16850000 0.16850800 8532.78747057 0 81.51356953 0 2735.52856969 0 267.71995626 0 -47.31237612 0 30867
0.16950000 0.16949900 8564.22180073 0 31.52877709 0 2572.90933508 0 124.88253716 0 -380.13062674 0 30852
0.17050000 0.17049200 8369.75855994 0 96.13169565 0 2534.93126096 0 -34.58075270 0 119.10167638 0 31257
0.17150000 0.17149500 8350.60343800 0 144.82157970 0 2889.48924630 0 -64.94018157 0 400.34979910 0 32608
0.17250000 0.17250900 8252.54692941 0 11.91204993 0 2751.14054769 0 242.42744467 0 335.52355175 0 32361
0.17350000 0.17350400 8321.51644070 0 100.97318040 0 2947.71860252 0 237.09279857 0 270.53564846 0 32508
0.17450000 0.17449800 8168.47476706 0 204.83911638 0 2498.99049459 0 198.48581640 0 377.36586724 0 32791
0.17550000 0.17549800 8063.80808055 0 108.76078934 0 2375.04689057 0 314.14067806 0 389.29519000 0 33633
0.17650000 0.17650100 7910.29029694 0 41.37539555 0 2292.59128765 0 13.49040984 0 29.12818635 0 33984
0.17750000 0.17750300 7944.17161088 0 49.77198236 0 2292.09303303 0 -56.03681446 0 -148.77772136 0 34069
0.17850000 0.17849800 7857.12099316 0 163.13631218 0 2092.59188445 0 -65.45869854 0 -268.83161767 0 34536
