### header ###
fiducial parameters:
Omega_m = 0.31
Omega_nu = 0
Omega_de = 0.69
Omega_k = 0
H_0 = 100
w_de = -1
zeff = 0
beta = 0
fgrowth = 0
b_1 = 2
gamma = 0.55
Lx = 3500 Ly = 3500 Lz = 3500
nx = 700 ny = 700 nz = 700
xoffset = -685.467585 yoffset = -31.7331281 zoffset = 572.489161
bins = 400 dk = 0.001
kx_ny = 0.628318531 ky_ny = 0.628318531 kz_ny = 0.628318531
############################
A(data) = 8.02157411 (not used)
A(ran) = 8.01351712 (used)
Ngal = 476200
weighted Ngal = 0
Nran = 23820508
weighted Nran = 0
SN(data) = 3499.19645
SN(ran) = 69.8006404
SN(data+ran) = 3568.99709
############################
13 columns: k_central k_mean P_0(k) sigma^{lin}_{P_0(k)} P^img_1(k) sigma^{lin}_{P_1(k)} P_2(k) sigma^{lin}_{P_2(k)} P^img_3(k) sigma^{lin}_{P_3(k)} P_4(k) sigma^{lin}_{P_4(k)} N_modes
### header ###
0.00050000 0 0 0 0 0 0 0 0 0 0 0 0
0.00150000 0.00179520 15097.11489022 0 -8237.59929090 0 8005.21333761 0 -10496.90717015 0 -29799.16923092 0 3
0.00250000 0.00253879 26073.44265269 0 -5566.50057933 0 15820.02697763 0 -1931.64457089 0 5882.95869497 0 6
0.00350000 0.00331552 27826.96673422 0 3303.95958123 0 22710.33471228 0 -9674.08949590 0 77119.62814786 0 7
0.00450000 0.00420575 30577.88583541 0 10041.00419574 0 37463.21102389 0 -6460.75689330 0 23987.52738011 0 24
0.00550000 0.00557378 36028.68062039 0 -7203.58809306 0 47024.49567454 0 25454.16752559 0 -4796.87435351 0 45
0.00650000 0.00659388 44805.71250413 0 -9682.83663250 0 56493.54785944 0 50413.29140853 0 11113.18169723 0 40
0.00750000 0.00754703 57558.92695349 0 -12502.09412248 0 39631.28294663 0 28184.49210262 0 -17842.05493601 0 57
0.00850000 0.00846663 65670.62283888 0 -1771.04049939 0 34246.92211057 0 36370.59401079 0 -22992.67899515 0 75
0.00950000 0.00948925 67639.06074514 0 6086.78912255 0 25912.34032658 0 96.22492462 0 -3043.39456128 0 112
0.01050000 0.01054430 60183.73227500 0 6294.33985128 0 11638.67423312 0 13384.11551753 0 -2872.22749191 0 105
0.01150000 0.01145670 56255.71432234 0 976.91786214 0 16215.53042016 0 -1706.87637707 0 9565.64714662 0 144
0.01250000 0.01249090 61425.49350341 0 -2144.59859412 0 9933.01581178 0 19253.88707364 0 118.23582058 0 169
0.01350000 0.01339930 60186.94324920 0 -9861.23392998 0 17150.14535810 0 10695.63325599 0 -10647.02575004 0 180
0.01450000 0.01448870 72724.24736460 0 -112.22133373 0 2064.57890266 0 867.66723316 0 -16854.51428544 0 267
0.01550000 0.01550050 71239.67005291 0 3008.93748644 0 24178.41425998 0 -15276.81872203 0 420.25341019 0 238
0.01650000 0.01653350 62269.64754759 0 8897.74236891 0 21330.28014688 0 -20850.18414274 0 -2032.38058209 0 315
0.01750000 0.01747870 65678.70563600 0 7921.53977895 0 35855.28801373 0 363.64504232 0 11624.39093410 0 297
0.01850000 0.01844180 60775.32659006 0 -4165.30894585 0 23863.29589564 0 19170.62319100 0 9489.61349209 0 388
0.01950000 0.01947590 63469.33394169 0 -5632.55806919 0 22104.56782145 0 20006.14082182 0 7976.30349751 0 399
0.02050000 0.02045430 69878.54916296 0 -4559.39513080 0 7254.27719608 0 25204.59732417 0 4911.88259140 0 462
0.02150000 0.02154770 69357.81772674 0 16.35282725 0 4042.37292339 0 10814.89326661 0 8332.68841644 0 571
0.02250000 0.02255340 68791.91120526 0 6597.74369596 0 8344.23685123 0 -13533.81334908 0 9415.05245677 0 510
0.02350000 0.02348930 62507.25963819 0 9550.96524391 0 9166.15766717 0 -9149.95885596 0 11477.79335351 0 555
0.02450000 0.02439640 55447.98822682 0 4867.36077330 0 10487.94965937 0 -411.22835823 0 23298.93949964 0 592
0.02550000 0.02547300 56353.81512023 0 -4224.57910061 0 9848.09108042 0 6245.01264421 0 8259.17925197 0 837
0.02650000 0.02652900 58303.31935105 0 -5447.99348679 0 10283.67633879 0 14584.57697437 0 -8913.98546942 0 723
0.02750000 0.02749970 65076.37116586 0 -2150.93196392 0 5252.01333750 0 2421.06347252 0 -8820.80078375 0 826
0.02850000 0.02848090 60337.96975972 0 -216.21260843 0 4354.73427885 0 -6775.58737720 0 3673.26590324 0 831
0.02950000 0.02946900 61796.19493834 0 3887.39359290 0 9717.58158779 0 -4254.54081156 0 3343.54314246 0 996
0.03050000 0.03053250 61087.23398020 0 3398.61688611 0 23850.34127561 0 -2343.46862019 0 15598.46975801 0 1041
0.03150000 0.03150510 58857.82137797 0 1091.34591021 0 25885.32385402 0 -193.39697591 0 17818.24943765 0 1036
0.03250000 0.03246190 60731.81235352 0 3074.61851727 0 31065.17885068 0 -1513.01104182 0 13353.33445454 0 1059
0.03350000 0.03345080 59596.01327363 0 2297.49632754 0 43814.40726311 0 -2649.76234165 0 18265.01774409 0 1302
0.03450000 0.03451200 56755.85123440 0 3941.58155057 0 42119.34505663 0 1705.74699994 0 18884.40359444 0 1339
0.03550000 0.03553350 56979.40147248 0 674.60685592 0 40562.02257088 0 -454.59976178 0 18705.47482537 0 1365
0.03650000 0.03647120 55338.26148786 0 -2102.24695169 0 35379.06732328 0 7436.08476960 0 567.08018791 0 1308
0.03750000 0.03744890 57444.10694512 0 -1110.14450329 0 33298.68821310 0 3495.90940429 0 -4370.01408710 0 1579
0.03850000 0.03847530 58060.17109803 0 86.89350144 0 31546.27136405 0 -1633.01289820 0 -10818.63571240 0 1662
0.03950000 0.03950240 56800.58342666 0 1557.95360826 0 25186.66015797 0 -311.92621309 0 -15341.14892923 0 1683
0.04050000 0.04050350 54250.95919067 0 442.81548647 0 17977.80163829 0 1699.20325597 0 -13070.21510892 0 1822
0.04150000 0.04152450 54053.31819266 0 953.11125655 0 18383.49161965 0 7133.69957881 0 -15360.63622091 0 1887
0.04250000 0.04250150 51709.86064479 0 2541.94004257 0 17227.20873884 0 1339.30841006 0 -14268.35137755 0 1920
0.04350000 0.04349210 51145.06135579 0 3854.09911217 0 22061.71792440 0 6292.43541141 0 -7579.83676272 0 2005
0.04450000 0.04448520 44892.74097720 0 3714.74283201 0 15714.83989186 0 3508.96367525 0 -130.40541278 0 2151
0.04550000 0.04548030 43826.25465067 0 1915.95508662 0 17085.04008816 0 5761.48421938 0 7198.19587088 0 2274
0.04650000 0.04648670 42326.39753074 0 350.15009283 0 17311.02623771 0 7459.09306058 0 6808.04036124 0 2311
0.04750000 0.04749250 44458.92729081 0 -837.55493858 0 15058.47247661 0 3377.87842172 0 8041.06552537 0 2568
0.04850000 0.04851840 42302.48130913 0 1251.47165728 0 14215.09349517 0 -717.02714677 0 6326.13956816 0 2493
0.04950000 0.04949480 41900.55591821 0 3236.55126774 0 13843.06338126 0 -3621.34777216 0 6287.04318922 0 2644
0.05050000 0.05050630 39431.75965340 0 1705.72485529 0 15544.99042914 0 -2788.16640188 0 7823.74900615 0 2829
0.05150000 0.05149060 37612.79813219 0 1143.98152794 0 15074.85951734 0 1491.98469699 0 4249.07108310 0 2784
0.05250000 0.05249300 37501.07837477 0 799.49160755 0 17641.09224056 0 -230.54130398 0 2641.66847221 0 3055
0.05350000 0.05348950 36751.26053805 0 291.48005808 0 16386.37639211 0 3908.50851633 0 443.84964161 0 3009
0.05450000 0.05448610 36263.19246004 0 200.97819671 0 15484.75698213 0 2837.59325987 0 1181.67172162 0 3336
0.05550000 0.05550870 36231.41488782 0 -1362.09525454 0 13004.66694600 0 1661.78987041 0 -1805.59722515 0 3349
0.05650000 0.05647670 37003.04520443 0 -657.39271253 0 12664.85729731 0 -1882.05162802 0 -2239.20053737 0 3324
0.05750000 0.05747970 37749.76279020 0 695.30656717 0 12055.21509280 0 -1087.39973365 0 -4345.32280275 0 3639
0.05850000 0.05849280 36344.68477071 0 1279.39606047 0 13480.00185046 0 -2671.72983409 0 -3906.40477462 0 3846
0.05950000 0.05951020 35631.51632914 0 2106.65373697 0 13275.38528781 0 -1667.56962396 0 -7133.06845629 0 3787
0.06050000 0.06049470 34283.57150572 0 1476.66059944 0 14009.81259303 0 1605.40959243 0 -4724.31740897 0 3930
0.06150000 0.06148310 33435.09925487 0 333.79626908 0 12022.44101133 0 2499.32266434 0 -7183.62469141 0 4083
0.06250000 0.06249100 33280.86177014 0 -435.83549291 0 10231.56997819 0 2137.33514904 0 -5810.96643900 0 4303
0.06350000 0.06350600 33076.68810049 0 205.27979491 0 10250.96869127 0 1596.76210675 0 -7241.82083066 0 4470
0.06450000 0.06451750 33026.19829931 0 348.01867030 0 10070.02475909 0 -537.61340987 0 -6508.19073283 0 4479
0.06550000 0.06550280 33136.03576151 0 -6.12929578 0 10785.47409957 0 -1112.38111291 0 -5372.24771271 0 4636
0.06650000 0.06648880 32338.49620483 0 666.36240286 0 10011.21964198 0 585.15132925 0 -4648.84844301 0 4653
0.06750000 0.06749660 32127.01480079 0 1134.78042601 0 11917.14320231 0 -29.99847108 0 -3946.74125393 0 5220
0.06850000 0.06852730 30689.60559283 0 1579.17925493 0 11365.40925660 0 1308.91487844 0 -2755.70234551 0 5029
0.06950000 0.06949320 30980.69701232 0 393.44177564 0 12279.31894713 0 1828.95983052 0 -1020.96689197 0 5040
0.07050000 0.07048030 28525.29826053 0 1156.49325498 0 10633.08569309 0 2076.20484372 0 905.91547201 0 5475
0.07150000 0.07148790 29030.08554902 0 712.40777285 0 10714.23476169 0 878.86578248 0 171.81812207 0 5509
0.07250000 0.07249820 28215.60533536 0 498.64657714 0 10135.69471759 0 -135.75445290 0 978.81012246 0 5916
0.07350000 0.07351270 27706.49984020 0 1032.57843901 0 10908.27725413 0 -91.98599579 0 1402.27672131 0 5721
0.07450000 0.07449140 26805.98766269 0 633.25282996 0 10150.89701956 0 -1635.90277498 0 931.11386883 0 6028
0.07550000 0.07549160 26820.49240821 0 510.32345089 0 11700.01491262 0 -132.91550882 0 1121.29433438 0 6183
0.07650000 0.07648840 26758.59811247 0 -486.38508463 0 10500.94856870 0 639.55630448 0 -775.44362528 0 6330
0.07750000 0.07749960 27552.59452522 0 -614.57271076 0 11737.43937050 0 150.65005148 0 -1747.42323055 0 6583
0.07850000 0.07848650 27440.76404455 0 263.08618832 0 11085.72233168 0 -1177.22064704 0 -4030.14907679 0 6549
0.07950000 0.07947320 27247.55197646 0 711.92391226 0 11528.61532442 0 -1121.19468346 0 -5394.76882139 0 6828
0.08050000 0.08048110 26480.23986653 0 1876.11686192 0 11780.84288379 0 -2117.42710902 0 -4352.35372901 0 7147
0.08150000 0.08149960 25125.98381796 0 1210.53727242 0 11856.68830880 0 128.51979587 0 -4511.15301156 0 7386
0.08250000 0.08250610 23924.74729839 0 -241.54387315 0 10401.08727117 0 2019.56990227 0 -3955.89806656 0 7227
0.08350000 0.08350160 24104.78329994 0 -79.00181264 0 9238.55959916 0 4219.65191606 0 -5474.99888702 0 7798
0.08450000 0.08449610 23318.64823781 0 449.39576911 0 7916.19184607 0 2738.58453134 0 -4656.76515525 0 7371
0.08550000 0.08548940 23305.47217128 0 1146.31778847 0 7227.63718257 0 1944.89814369 0 -3219.79884029 0 8256
0.08650000 0.08650700 21622.36807560 0 1054.99768230 0 6393.24892888 0 654.76635708 0 -949.78734464 0 8037
0.08750000 0.08749060 21396.27120280 0 555.40442139 0 6293.15511252 0 53.16686787 0 -202.00460122 0 8155
0.08850000 0.08849210 21222.43570315 0 184.05082653 0 7472.11411456 0 -419.67654207 0 333.35448331 0 8718
0.08950000 0.08949900 20543.48074527 0 306.96691881 0 7643.93445110 0 228.32019562 0 1020.34241285 0 8571
0.09050000 0.09049190 20882.07243822 0 310.62521493 0 8261.06154719 0 -538.70181940 0 1589.33257679 0 8932
0.09150000 0.09150830 19996.50789923 0 1029.13605322 0 8407.17194550 0 264.73153579 0 1187.62863237 0 9285
0.09250000 0.09250820 19559.81540838 0 884.15835374 0 8654.56089892 0 846.99630995 0 2584.08131083 0 9204
0.09350000 0.09350330 18616.56405708 0 12.90933423 0 7402.52455308 0 1293.85651668 0 2353.67730367 0 9349
0.09450000 0.09448040 18838.78561619 0 23.64506037 0 6735.16231928 0 1580.86224831 0 2156.89994700 0 9564
0.09550000 0.09549270 18613.13163639 0 -31.55546139 0 6111.87901059 0 903.19610904 0 528.06463695 0 10155
0.09650000 0.09649430 18249.51648934 0 420.26891144 0 6296.59860554 0 -56.72684174 0 785.97672788 0 9913
0.09750000 0.09749140 18095.05755812 0 501.59956617 0 5772.51225490 0 -357.55969260 0 991.45582463 0 10476
0.09850000 0.09850240 17496.15550868 0 213.35816309 0 5502.65755442 0 -21.09587903 0 976.08300885 0 10575
0.09950000 0.09950330 17783.70378422 0 260.01693988 0 6515.79741998 0 32.14129810 0 1453.35335570 0 10882
0.10050000 0.10051200 17615.29372373 0 -53.33760312 0 7034.54691006 0 246.26511245 0 1448.97978739 0 10875
0.10150000 0.10150300 17533.57996657 0 367.07303409 0 6906.18544843 0 515.03029617 0 2070.80154921 0 11118
0.10250000 0.10250800 17359.74446691 0 401.36734575 0 7109.73906790 0 -7.81779210 0 1718.28087163 0 11575
0.10350000 0.10349800 17096.44458273 0 313.52284233 0 7420.10740489 0 190.20150297 0 2471.98509436 0 11364
0.10450000 0.10450100 17024.36374816 0 73.88783798 0 7180.86768253 0 246.01155622 0 1923.87179886 0 12093
0.10550000 0.10551000 16581.13858567 0 248.61355255 0 6944.68392183 0 397.38352328 0 2199.99343519 0 12067
0.10650000 0.10649700 16652.22291100 0 -27.24079786 0 6383.38348747 0 1400.58265561 0 1423.12590894 0 12054
0.10750000 0.10749900 16833.58759153 0 -227.88283879 0 5666.30651524 0 1294.85302592 0 1300.07916323 0 12807
0.10850000 0.10850100 16094.39918664 0 346.26702852 0 4861.11598210 0 1093.15069916 0 991.23216367 0 12736
0.10950000 0.10950300 16453.69612700 0 455.51876474 0 5047.77323390 0 438.63789832 0 1321.71448593 0 12933
0.11050000 0.11050200 15538.78992724 0 457.66347405 0 4289.25254987 0 -212.39597807 0 1876.42688702 0 13428
0.11150000 0.11150900 15383.33448679 0 254.09435333 0 4701.34233497 0 -716.74258802 0 1459.57600224 0 13453
0.11250000 0.11250000 14998.34975284 0 3.29778122 0 4568.28620763 0 262.86917075 0 1773.01137321 0 13668
0.11350000 0.11349100 15161.77726717 0 327.51715367 0 5048.43757339 0 -500.16902180 0 555.61922449 0 13791
0.11450000 0.11448600 15031.23455755 0 294.25478268 0 4780.66446997 0 -259.17212150 0 -231.03180797 0 14205
0.11550000 0.11549300 14691.20346237 0 191.63979796 0 5158.62934998 0 -256.12058877 0 -472.73733706 0 14776
0.11650000 0.11649800 14651.01092328 0 291.78565425 0 4839.35886384 0 -434.06281370 0 149.33576653 0 14553
0.11750000 0.11747300 14546.15600725 0 29.79108643 0 5018.60873033 0 65.38816783 0 -622.30562241 0 14568
0.11850000 0.11849100 14436.76143804 0 357.79442589 0 4850.88515397 0 179.67504376 0 -776.16111193 0 16015
0.11950000 0.11950300 14019.11334588 0 345.35245449 0 5040.43228254 0 521.88849416 0 -606.60728028 0 15270
0.12050000 0.12050700 13889.23497576 0 -2.82370856 0 4675.87598789 0 332.11881187 0 -509.77647805 0 15999
0.12150000 0.12150000 13992.31831982 0 -135.55736552 0 4395.28113233 0 262.75623304 0 -469.95596907 0 15670
0.12250000 0.12250700 14170.13985641 0 -24.71929733 0 4545.32220595 0 -31.75177371 0 -919.89096040 0 16887
0.12350000 0.12352200 14009.25897679 0 339.84065119 0 4256.99886767 0 -126.80801445 0 -669.79814525 0 16407
0.12450000 0.12449800 13702.00196307 0 332.90494693 0 4037.82219789 0 -244.43485716 0 -981.95466270 0 16306
0.12550000 0.12549900 13687.05432457 0 69.90988384 0 4186.87783460 0 203.68648736 0 -711.29721867 0 17523
0.12650000 0.12650100 13507.01832302 0 -21.96561014 0 4405.78876859 0 514.89521381 0 -1299.53661931 0 17154
0.12750000 0.12750600 13347.46612238 0 258.17782673 0 3879.20007254 0 369.33400281 0 -1341.55609200 0 18007
0.12850000 0.12850300 13341.48706698 0 262.84924057 0 3799.59005709 0 83.75947990 0 -1455.09171069 0 17496
0.12950000 0.12949900 12845.66836160 0 290.22556368 0 3480.25313700 0 0.52284071 0 -552.62083893 0 18405
0.13050000 0.13049000 12827.17757915 0 -7.35977431 0 3620.37340758 0 196.31896243 0 -765.54275243 0 18100
0.13150000 0.13148800 12732.95209495 0 -39.89912248 0 3664.57412825 0 400.01984382 0 -737.56298761 0 19059
0.13250000 0.13249300 12873.68134339 0 94.28870718 0 3872.99957064 0 309.95644651 0 -976.17712361 0 18957
0.13350000 0.13349100 12523.46370938 0 262.16718536 0 3506.09594312 0 -159.63635031 0 -572.06273408 0 19468
0.13450000 0.13450700 12584.91511212 0 260.14759331 0 3781.18785324 0 -153.19779342 0 -327.65223603 0 19953
0.13550000 0.13551000 12511.83776832 0 -54.46509795 0 3851.66320071 0 116.66355045 0 -240.77434658 0 19956
0.13650000 0.13649900 12482.60683080 0 49.84229162 0 3985.74905427 0 165.66966010 0 -263.43828825 0 19723
0.13750000 0.13749600 12510.06619635 0 243.84138055 0 3878.45822677 0 193.36486617 0 -289.15154817 0 20946
0.13850000 0.13851100 12235.80471059 0 190.53588718 0 3616.88562526 0 273.12989416 0 287.47187650 0 20955
0.13950000 0.13949800 12117.99517452 0 249.76285986 0 3369.56310578 0 633.43663055 0 338.86075045 0 20506
0.14050000 0.14048300 11782.39300927 0 159.09269916 0 3283.07717663 0 562.31908824 0 380.74292631 0 21447
0.14150000 0.14148400 11500.82378913 0 199.76688438 0 2728.27619694 0 820.67296493 0 294.95344638 0 21771
0.14250000 0.14249400 11531.93702187 0 34.08615195 0 2651.24603318 0 320.88372387 0 183.15175376 0 22470
0.14350000 0.14350900 11245.16380907 0 92.34152814 0 2241.94647393 0 -84.41717599 0 160.44020109 0 22519
0.14450000 0.14449900 11344.48256269 0 203.82932035 0 2744.40857420 0 -603.71740350 0 9.50355355 0 22218
0.14550000 0.14550500 11102.33081890 0 245.41143621 0 2846.58398763 0 -640.77204574 0 177.64327216 0 23559
0.14650000 0.14650700 10965.48795647 0 173.60519530 0 3002.62626129 0 -66.89876511 0 311.63722542 0 23044
0.14750000 0.14750500 10947.31827144 0 65.69642136 0 3180.07133884 0 208.01576637 0 437.54616709 0 23649
0.14850000 0.14849900 10854.80899758 0 73.90101405 0 3238.12353786 0 869.93595251 0 13.38422624 0 23640
0.14950000 0.14949500 10688.17050906 0 190.75733367 0 2770.08529545 0 269.13832106 0 159.66181665 0 24457
0.15050000 0.15050000 10596.32557469 0 377.07023616 0 2941.81705339 0 157.16832910 0 59.94423789 0 24591
0.15150000 0.15149900 9988.74282259 0 463.88058444 0 2671.63018317 0 -183.33998328 0 668.35209963 0 25020
0.15250000 0.15250500 9820.83101672 0 391.63255777 0 2835.06876981 0 8.39701862 0 234.61813398 0 25297
0.15350000 0.15350100 9494.70676151 0 199.56536807 0 2621.60541964 0 -19.18922470 0 375.07389600 0 25452
0.15450000 0.15450400 9529.13061937 0 47.95302083 0 2672.99207912 0 218.19344734 0 75.63781892 0 26061
0.15550000 0.15549900 9424.72966866 0 -25.15587909 0 2544.55311122 0 -4.77851644 0 -116.28819864 0 26128
0.15650000 0.15649500 9460.39362690 0 -36.23872262 0 2564.33935567 0 -19.77129681 0 -426.46387718 0 26331
0.15750000 0.15749700 9452.48798698 0 107.05144383 0 2695.83428522 0 -174.40350992 0 -116.58272248 0 27345
0.15850000 0.15849900 9335.73032177 0 173.45682614 0 2671.07656693 0 -119.44491845 0 -61.23892483 0 26980
0.15950000 0.15949700 9268.80919056 0 58.02407532 0 2920.70212996 0 142.20076041 0 152.87337431 0 27777
0.16050000 0.16050000 9210.40267714 0 204.59220353 0 2787.63493029 0 339.86390308 0 -43.93365620 0 28224
0.16150000 0.16150500 9119.14457599 0 145.15374944 0 2755.09336765 0 235.67111207 0 240.53186266 0 28075
0.16250000 0.16249700 9005.37643848 0 53.95543884 0 2554.81715633 0 189.27364215 0 347.20153273 0 28590
0.16350000 0.16349900 8982.21313496 0 64.72504630 0 2602.46137002 0 96.52122003 0 310.36833699 0 29163
0.16450000 0.16449100 9029.12657521 0 -148.10452401 0 2665.61791079 0 119.35744708 0 352.42213389 0 28996
0.16550000 0.16550500 9012.68417286 0 17.25643968 0 2638.40213639 0 -192.39493051 0 207.74670887 0 30777
0.16650000 0.16650700 9131.83346023 0 182.34901021 0 2660.17032698 0 -50.18653020 0 253.68910624 0 29211
0.16750000 0.16749900 8796.60775402 0 303.22004409 0 2792.45139159 0 -47.48133980 0 47.34924696 0 30922
0.16850000 0.16850800 8667.93626730 0 358.93376811 0 2771.69078255 0 -135.48650264 0 426.31550803 0 30867
0.16950000 0.16949900 8459.21187215 0 176.80952610 0 2927.05764441 0 -36.30128126 0 461.10585984 0 30852
0.17050000 0.17049200 8273.38504472 0 13.84771376 0 2811.57329655 0 208.28150216 0 489.68574466 0 31257
0.17150000 0.17149500 8259.74394054 0 -0.55397277 0 2715.07798575 0 363.02831383 0 405.19615567 0 32608
0.17250000 0.17250900 8215.65394311 0 117.60248360 0 2512.39907995 0 262.78723555 0 266.25840938 0 32361
0.17350000 0.17350400 8135.88891512 0 69.88851426 0 2400.26964651 0 345.62926261 0 359.74094059 0 32508
0.17450000 0.17449800 8089.93876712 0 126.85341098 0 2407.10127092 0 226.27181553 0 19.59978650 0 32791
0.17550000 0.17549800 7970.88913067 0 111.88584229 0 2273.91227568 0 -23.92042909 0 414.03851427 0 33633
0.17650000 0.17650100 7980.82100603 0 135.51307622 0 2310.15199481 0 -28.35688820 0 271.28413761 0 33984
0.17750000 0.17750300 7857.75211567 0 100.29599701 0 2210.40142052 0 57.51242319 0 539.59092708 0 34069
0.17850000 0.17849800 7872.16828259 0 39.93355741 0 2257.69131982 0 -99.97921780 0 306.03905799 0 34536
