### header ###
fiducial parameters:
Omega_m = 0.31
Omega_nu = 0
Omega_de = 0.69
Omega_k = 0
H_0 = 100
w_de = -1
zeff = 0
beta = 0
fgrowth = 0
b_1 = 2
gamma = 0.55
Lx = 3500 Ly = 3500 Lz = 3500
nx = 700 ny = 700 nz = 700
xoffset = -685.467585 yoffset = -31.7331281 zoffset = 572.489161
bins = 400 dk = 0.001
kx_ny = 0.628318531 ky_ny = 0.628318531 kz_ny = 0.628318531
############################
A(data) = 8.0155797 (not used)
A(ran) = 8.00565074 (used)
Ngal = 475886
weighted Ngal = 0
Nran = 23820508
weighted Nran = 0
SN(data) = 3499.91572
SN(ran) = 69.7321213
SN(data+ran) = 3569.64784
############################
13 columns: k_central k_mean P_0(k) sigma^{lin}_{P_0(k)} P^img_1(k) sigma^{lin}_{P_1(k)} P_2(k) sigma^{lin}_{P_2(k)} P^img_3(k) sigma^{lin}_{P_3(k)} P_4(k) sigma^{lin}_{P_4(k)} N_modes
### header ###
0.00050000 0 0 0 0 0 0 0 0 0 0 0 0
0.00150000 0.00179520 9888.35005346 0 -8949.68264464 0 8185.90260632 0 -22049.53836710 0 -24425.43782669 0 3
0.00250000 0.00253879 13779.50823681 0 -6667.73186114 0 3773.11612845 0 20143.10547983 0 38777.60670311 0 6
0.00350000 0.00331552 15632.35107196 0 -6375.93181287 0 -7663.62104463 0 47497.06249780 0 79426.43630057 0 7
0.00450000 0.00420575 15666.12166265 0 -2540.94353333 0 -5284.37774295 0 18779.21650867 0 2646.32992096 0 24
0.00550000 0.00557378 55606.21174848 0 -48714.02171861 0 -35548.47389300 0 47805.09457425 0 -13308.49153902 0 45
0.00650000 0.00659388 63088.44596792 0 -47876.51106933 0 -49408.14576149 0 26176.85816650 0 12621.34306077 0 40
0.00750000 0.00754703 109516.25405798 0 -15489.07518880 0 -63235.70788801 0 766.16058815 0 21713.71475535 0 57
0.00850000 0.00846663 109093.95558940 0 13018.72879852 0 -43364.64942898 0 -37441.73071374 0 -2121.74531570 0 75
0.00950000 0.00948925 105020.77945836 0 4412.11106606 0 -54408.51837284 0 -1291.26559268 0 40845.14191650 0 112
0.01050000 0.01054430 90157.62279156 0 1506.05762183 0 -9789.28596331 0 -14.23513440 0 79775.10380911 0 105
0.01150000 0.01145670 103199.71419544 0 -8296.74765008 0 -26326.66672130 0 5384.71515045 0 33976.20376875 0 144
0.01250000 0.01249090 106518.08994359 0 2151.45236319 0 11740.87179120 0 9710.01918993 0 47771.43470680 0 169
0.01350000 0.01339930 92956.37433597 0 15867.97014410 0 -10935.47088389 0 -21353.42130575 0 43795.80575742 0 180
0.01450000 0.01448870 83947.82014027 0 13855.57510831 0 30432.94910354 0 -8191.46091338 0 65719.11962159 0 267
0.01550000 0.01550050 81439.82784560 0 10997.84128959 0 52992.92164478 0 8962.62619235 0 85935.19172197 0 238
0.01650000 0.01653350 76573.43036455 0 -1625.63872987 0 48249.20552273 0 15643.42339678 0 44679.48800119 0 315
0.01750000 0.01747870 79193.03169340 0 -1744.72158330 0 68450.99432409 0 22001.59520064 0 61163.07940521 0 297
0.01850000 0.01844180 78306.91353816 0 509.08002881 0 64578.78088851 0 8773.52195677 0 51656.82420891 0 388
0.01950000 0.01947590 78450.18942131 0 8426.80317740 0 57669.87164817 0 18575.15356226 0 48008.38245792 0 399
0.02050000 0.02045430 69768.04736127 0 1814.96441195 0 48447.62158348 0 19270.93845386 0 38049.04773004 0 462
0.02150000 0.02154770 68931.64394447 0 682.80148352 0 40961.40132709 0 17581.74457953 0 23401.35850421 0 571
0.02250000 0.02255340 68664.02585360 0 3398.15184847 0 41323.02345567 0 5688.44009255 0 10685.91175480 0 510
0.02350000 0.02348930 64860.12866216 0 7013.05552758 0 30373.71216576 0 1765.36039676 0 21909.14128840 0 555
0.02450000 0.02439640 60134.90332255 0 5633.16704706 0 22296.22976406 0 -6235.45722789 0 23629.78056522 0 592
0.02550000 0.02547300 61734.41136585 0 -2570.07481993 0 28843.62759907 0 5055.16954688 0 18164.14886499 0 837
0.02650000 0.02652900 60869.44135102 0 -1175.74802784 0 26179.07263146 0 5015.50847938 0 11978.70532830 0 723
0.02750000 0.02749970 62992.67035824 0 4798.52412990 0 34282.90716623 0 642.32549291 0 2852.14229468 0 826
0.02850000 0.02848090 62682.42381682 0 1799.61816975 0 35440.18655627 0 -3017.08671751 0 16564.75154494 0 831
0.02950000 0.02946900 60617.98885439 0 3151.36080058 0 36020.70854652 0 4367.21278892 0 17075.96078181 0 996
0.03050000 0.03053250 60098.47537390 0 1315.55827333 0 40631.11387775 0 13289.22569384 0 16712.89925101 0 1041
0.03150000 0.03150510 57809.60438739 0 297.24763208 0 32439.36508393 0 2418.41718689 0 9796.39439584 0 1036
0.03250000 0.03246190 56929.57601080 0 4350.09497475 0 34282.35354999 0 9714.91315750 0 9663.44899175 0 1059
0.03350000 0.03345080 52511.49696166 0 3876.49842528 0 31550.81101723 0 -862.85409356 0 8492.26276173 0 1302
0.03450000 0.03451200 49905.07169935 0 1935.88527129 0 27240.57641183 0 5080.27050724 0 4393.71993454 0 1339
0.03550000 0.03553350 47145.84835455 0 1337.62541669 0 25237.37140564 0 3892.58651324 0 2517.25983054 0 1365
0.03650000 0.03647120 48569.08498674 0 713.43085567 0 25659.22698123 0 1389.35531824 0 739.60361707 0 1308
0.03750000 0.03744890 46561.78322036 0 -468.83212810 0 25760.76019981 0 743.64501563 0 2328.31060751 0 1579
0.03850000 0.03847530 46003.62732626 0 2066.07366651 0 21666.43592838 0 2218.35134974 0 1943.59160937 0 1662
0.03950000 0.03950240 46456.59613459 0 -382.67947592 0 19993.40764828 0 7515.01937324 0 4965.37299260 0 1683
0.04050000 0.04050350 46670.40272684 0 -2222.96850919 0 21494.03983095 0 3127.89854429 0 2207.40082049 0 1822
0.04150000 0.04152450 48781.78434650 0 -1163.71241076 0 15935.51132549 0 5667.70162817 0 3000.24571146 0 1887
0.04250000 0.04250150 47678.42717832 0 837.70109327 0 19338.47963525 0 1048.33767892 0 4109.53764574 0 1920
0.04350000 0.04349210 47086.27924702 0 4206.39834325 0 15080.83857274 0 -918.43384245 0 7322.53807859 0 2005
0.04450000 0.04448520 42990.40485011 0 3794.96182532 0 17724.57756969 0 597.58997895 0 4630.78948123 0 2151
0.04550000 0.04548030 39762.71144223 0 2597.25737736 0 15293.75937900 0 247.93703350 0 2733.04836894 0 2274
0.04650000 0.04648670 39246.18748944 0 -268.35661493 0 16442.95597193 0 3549.25586527 0 4258.44934223 0 2311
0.04750000 0.04749250 38606.42856142 0 647.73100189 0 12669.95056673 0 3028.33619952 0 215.79518179 0 2568
0.04850000 0.04851840 38519.51081159 0 164.14389374 0 12120.87397897 0 2574.91342588 0 638.93846875 0 2493
0.04950000 0.04949480 38058.12703640 0 520.00398448 0 9137.32533334 0 1545.27579634 0 2840.73780012 0 2644
0.05050000 0.05050630 36813.92989652 0 1022.08741124 0 10152.76824246 0 510.76523665 0 1357.94313273 0 2829
0.05150000 0.05149060 35459.00950847 0 750.64493938 0 8731.90108778 0 655.48052203 0 2403.38096979 0 2784
0.05250000 0.05249300 34829.54784253 0 559.64844349 0 9543.76823278 0 1092.16083332 0 1232.40511394 0 3055
0.05350000 0.05348950 34703.10189310 0 233.07022297 0 10082.86865588 0 1008.60353408 0 2288.04056215 0 3009
0.05450000 0.05448610 34621.27741269 0 260.19741877 0 8783.04415612 0 -108.60101569 0 -1674.41232070 0 3336
0.05550000 0.05550870 34533.14170713 0 793.34868174 0 8432.97046233 0 -2054.92383542 0 -619.56632925 0 3349
0.05650000 0.05647670 33680.35124960 0 942.64348067 0 8435.64996493 0 2246.40862083 0 197.08848900 0 3324
0.05750000 0.05747970 33257.05627178 0 334.93450407 0 7426.99439093 0 1718.49124580 0 703.35614731 0 3639
0.05850000 0.05849280 33661.74974390 0 -0.04639503 0 7901.10026734 0 2617.87404617 0 -716.91863799 0 3846
0.05950000 0.05951020 34054.92799821 0 -366.04884404 0 7105.52051214 0 1415.69637899 0 -904.56021945 0 3787
0.06050000 0.06049470 33941.99028506 0 745.38115616 0 8439.62492954 0 -133.90869636 0 -728.78706296 0 3930
0.06150000 0.06148310 32670.99811913 0 1061.12289239 0 9549.81372213 0 -2878.15118568 0 3049.68364177 0 4083
0.06250000 0.06249100 32346.68972519 0 1174.82902488 0 11704.88673554 0 -2825.56871512 0 3417.30697040 0 4303
0.06350000 0.06350600 32383.67129009 0 326.49296362 0 13329.86112592 0 86.75886197 0 2254.21460983 0 4470
0.06450000 0.06451750 32032.90003983 0 765.79520143 0 15657.04235630 0 133.29418233 0 5567.90676458 0 4479
0.06550000 0.06550280 30728.24800645 0 946.12240513 0 15514.76298238 0 1281.66588706 0 2551.37366331 0 4636
0.06650000 0.06648880 30733.11982937 0 816.16874319 0 13906.28635598 0 3007.84132628 0 5193.91684918 0 4653
0.06750000 0.06749660 29846.11588815 0 344.29504747 0 14008.04102106 0 3407.25329947 0 6530.49039501 0 5220
0.06850000 0.06852730 28899.09994641 0 636.64981921 0 11670.23035885 0 2841.20283776 0 4868.26870394 0 5029
0.06950000 0.06949320 29355.16900569 0 -14.92261505 0 11413.79531605 0 1551.27699639 0 6081.45226199 0 5040
0.07050000 0.07048030 28343.15851727 0 511.24023939 0 9646.32010525 0 1780.90594081 0 5957.16541590 0 5475
0.07150000 0.07148790 28617.19855653 0 453.08285328 0 10002.50572234 0 673.54391274 0 6920.61268767 0 5509
0.07250000 0.07249820 27671.06840078 0 1261.17101382 0 9309.17888685 0 -425.17062964 0 5885.58283595 0 5916
0.07350000 0.07351270 26836.99017219 0 1262.35575257 0 10423.23192080 0 -1990.25038615 0 6043.62920041 0 5721
0.07450000 0.07449140 26244.51007114 0 538.61656250 0 10816.59840463 0 -667.79737616 0 5129.87452243 0 6028
0.07550000 0.07549160 25515.06531209 0 949.42527962 0 11508.90658625 0 -333.56042856 0 2903.42930324 0 6183
0.07650000 0.07648840 25010.16730036 0 540.68598001 0 11833.54714993 0 -1284.11287084 0 1959.80149290 0 6330
0.07750000 0.07749960 24326.56196606 0 291.58635240 0 11593.16697812 0 354.12616467 0 628.68438874 0 6583
0.07850000 0.07848650 24240.30855572 0 449.10788867 0 10332.71566541 0 605.80342950 0 -429.98819817 0 6549
0.07950000 0.07947320 23710.49781315 0 -316.69174170 0 8724.52691945 0 1457.64941773 0 -865.73732694 0 6828
0.08050000 0.08048110 24349.26023193 0 -755.93751065 0 7465.12747760 0 2679.59118471 0 -1913.48595818 0 7147
0.08150000 0.08149960 24178.19281349 0 -453.42609535 0 5691.32996933 0 2238.15973884 0 -1858.11326177 0 7386
0.08250000 0.08250610 24721.29034584 0 -49.67244215 0 4941.71143446 0 1005.72362239 0 -2814.24172683 0 7227
0.08350000 0.08350160 23967.37574894 0 580.07799002 0 4822.09710944 0 -76.32175642 0 -216.52595522 0 7798
0.08450000 0.08449610 23693.66787942 0 1095.02856545 0 4931.84599305 0 -739.19947722 0 -1161.30971628 0 7371
0.08550000 0.08548940 23030.87851578 0 1026.63924397 0 6465.24118486 0 -1626.77917933 0 1153.73624610 0 8256
0.08650000 0.08650700 21839.93925828 0 990.10057207 0 7188.95047965 0 -128.26845409 0 -917.52369735 0 8037
0.08750000 0.08749060 21172.16734847 0 1032.57290284 0 7781.00983235 0 -163.33893572 0 1671.63316717 0 8155
0.08850000 0.08849210 20582.78749837 0 769.29516331 0 7079.69985067 0 1127.45054698 0 -432.93011487 0 8718
0.08950000 0.08949900 19937.82457769 0 224.67740076 0 7951.22468179 0 555.39445630 0 286.75660432 0 8571
0.09050000 0.09049190 19845.25994220 0 59.00043292 0 7039.55160087 0 1422.88231779 0 -267.85946755 0 8932
0.09150000 0.09150830 19716.93169756 0 -244.63415901 0 6950.78477280 0 553.04490897 0 -154.46889631 0 9285
0.09250000 0.09250820 19797.87039198 0 442.87859872 0 6091.32877573 0 746.08978495 0 -371.91939066 0 9204
0.09350000 0.09350330 19709.29179343 0 220.89509460 0 5634.87218508 0 -289.48261069 0 -325.89505808 0 9349
0.09450000 0.09448040 19259.64468255 0 229.92789718 0 5628.97063595 0 -152.79808250 0 -807.34852924 0 9564
0.09550000 0.09549270 19126.66606147 0 370.27404319 0 5077.26990721 0 -75.12594534 0 -1793.62804202 0 10155
0.09650000 0.09649430 18636.27279526 0 116.27601908 0 5045.18230989 0 441.39601443 0 -1617.21269069 0 9913
0.09750000 0.09749140 18371.31206235 0 199.66944792 0 4233.65840696 0 520.89641386 0 -2709.04356873 0 10476
0.09850000 0.09850240 17891.32678146 0 386.00892399 0 4043.26978170 0 778.03787098 0 -1885.35118082 0 10575
0.09950000 0.09950330 17920.66844223 0 818.71094897 0 4623.18279408 0 385.14528265 0 -2029.03673999 0 10882
0.10050000 0.10051200 17018.93830900 0 446.56457566 0 4018.70029293 0 120.59311853 0 -660.32355691 0 10875
0.10150000 0.10150300 17004.76573323 0 82.08667306 0 4573.78915306 0 682.38184241 0 237.46704315 0 11118
0.10250000 0.10250800 16815.31825558 0 132.27552845 0 4969.11543839 0 148.21635449 0 379.82392335 0 11575
0.10350000 0.10349800 16772.13618879 0 518.84249761 0 5701.93725651 0 78.11303713 0 1460.83824727 0 11364
0.10450000 0.10450100 16063.17523065 0 903.94238373 0 5863.05065494 0 -261.00348402 0 1882.88205239 0 12093
0.10550000 0.10551000 15729.78753036 0 606.41572906 0 5815.10748848 0 51.49107151 0 2387.81328109 0 12067
0.10650000 0.10649700 15097.11489022 0 209.00009604 0 5500.99670570 0 437.05898480 0 2370.99441969 0 12054
0.10750000 0.10749900 15088.03558387 0 -42.96449561 0 5461.47957842 0 959.95173882 0 2188.69966388 0 12807
0.10850000 0.10850100 15168.30993881 0 -368.64641144 0 4833.75626748 0 68.69059943 0 1242.02696421 0 12736
0.10950000 0.10950300 15207.17379892 0 215.50619411 0 4318.82672946 0 543.03884903 0 810.51853584 0 12933
0.11050000 0.11050200 15149.81915636 0 368.72502495 0 4934.52549565 0 -653.38120925 0 1086.11312951 0 13428
0.11150000 0.11150900 14788.86136727 0 252.07365405 0 4695.10861610 0 -544.73955813 0 1166.62443219 0 13453
0.11250000 0.11250000 14939.77715455 0 -79.69494018 0 5126.18743826 0 59.23106945 0 1204.20390263 0 13668
0.11350000 0.11349100 14866.03547126 0 -86.05532645 0 5523.73926088 0 199.79788689 0 393.61671837 0 13791
0.11450000 0.11448600 15005.32531748 0 237.59769659 0 5647.71608187 0 -191.73723442 0 638.59079775 0 14205
0.11550000 0.11549300 14868.91427571 0 136.16745062 0 5163.24650943 0 415.52331303 0 1013.10443412 0 14776
0.11650000 0.11649800 14742.02543329 0 231.16799756 0 5335.50973896 0 202.36888071 0 891.58788370 0 14553
0.11750000 0.11747300 14540.17695185 0 99.93924671 0 5168.38406815 0 513.14467926 0 420.74502141 0 14568
0.11850000 0.11849100 14322.93793890 0 311.03156925 0 4955.95044418 0 362.22667751 0 770.80099948 0 16015
0.11950000 0.11950300 14283.18829281 0 282.68309601 0 4653.66490430 0 155.56727093 0 964.17250905 0 15270
0.12050000 0.12050700 13797.22395652 0 -21.04981816 0 4076.55319011 0 754.56122067 0 865.24128679 0 15999
0.12150000 0.12150000 14162.72139878 0 24.23366516 0 4375.21807976 0 639.64820477 0 1138.01354486 0 15670
0.12250000 0.12250700 13871.40853280 0 68.22622613 0 3748.02624041 0 541.77549677 0 495.19865519 0 16887
0.12350000 0.12352200 13804.42096765 0 278.47450535 0 4326.52199521 0 -82.42803284 0 1256.52063739 0 16407
0.12450000 0.12449800 13546.32507612 0 362.25103663 0 3998.73689128 0 -51.35953229 0 1562.82543118 0 16306
0.12550000 0.12549900 13279.48204800 0 364.84417510 0 4183.60042645 0 361.69631315 0 1599.71841747 0 17523
0.12650000 0.12650100 13162.55829791 0 -93.55007239 0 3733.61007350 0 873.45584457 0 1499.90140923 0 17154
0.12750000 0.12750600 13112.06849674 0 -135.77438309 0 3507.00387376 0 498.91784910 0 1487.67756263 0 18007
0.12850000 0.12850300 13179.83112463 0 142.51521444 0 3522.72657500 0 19.63865036 0 928.06122888 0 17496
0.12950000 0.12949900 12920.84944712 0 262.39195355 0 3240.62588327 0 -292.58839780 0 1106.40980813 0 18405
0.13050000 0.13049000 12709.47876633 0 421.64630865 0 3189.80391235 0 -194.44995400 0 1560.86562968 0 18100
0.13150000 0.13148800 12635.40491329 0 -29.14966666 0 3063.04793783 0 -126.11045799 0 951.53566473 0 19059
0.13250000 0.13249300 12589.89765829 0 -69.12496674 0 3425.95445609 0 151.98205216 0 662.70299951 0 18957
0.13350000 0.13349100 12615.03183563 0 107.00460790 0 2986.60460728 0 -95.53534023 0 341.54025305 0 19468
0.13450000 0.13450700 12461.01579740 0 358.50748361 0 3821.51326023 0 -191.15704460 0 135.94378966 0 19953
0.13550000 0.13551000 12145.12237032 0 573.16664486 0 3632.73012207 0 -211.29871068 0 862.71015334 0 19956
0.13650000 0.13649900 11714.96255112 0 195.24273246 0 3920.83201386 0 321.56688631 0 742.66511489 0 19723
0.13750000 0.13749600 11644.32111878 0 92.58124397 0 3682.90989815 0 149.37562690 0 431.22719132 0 20946
0.13850000 0.13851100 11755.70870645 0 123.54721479 0 4131.90374187 0 -108.09711419 0 199.95068497 0 20955
0.13950000 0.13949800 11440.03672587 0 238.50673445 0 3658.81651935 0 -139.72609582 0 491.00556578 0 20506
0.14050000 0.14048300 11350.01872510 0 246.81097807 0 3977.43373833 0 -145.15928560 0 506.30308975 0 21447
0.14150000 0.14148400 11268.63713768 0 208.17410061 0 3792.95773453 0 113.03072068 0 345.65805065 0 21771
0.14250000 0.14249400 10999.80109108 0 198.44595603 0 3741.12818205 0 205.17128612 0 -67.34619775 0 22470
0.14350000 0.14350900 10930.94230304 0 193.84983399 0 3484.43847578 0 226.35264350 0 -27.92982863 0 22519
0.14450000 0.14449900 10704.81221327 0 55.24447890 0 3439.77271746 0 34.74982710 0 -309.62759846 0 22218
0.14550000 0.14550500 10592.53883960 0 73.96567642 0 3226.74118795 0 247.56943232 0 -595.21385804 0 23559
0.14650000 0.14650700 10506.97191341 0 -32.42331021 0 3149.41207142 0 -126.72497201 0 -1008.03884551 0 23044
0.14750000 0.14750500 10477.75204821 0 162.06894007 0 2869.68085720 0 13.74507331 0 -1097.01272606 0 23649
0.14850000 0.14849900 10464.13308868 0 224.34080208 0 3094.58191891 0 -197.51588074 0 -635.33221256 0 23640
0.14950000 0.14949500 10247.51412593 0 139.00639470 0 2925.43001266 0 554.11338832 0 -296.19797569 0 24457
0.15050000 0.15050000 10328.47496500 0 -13.91769085 0 2850.86897733 0 594.70342387 0 -105.15519748 0 24591
0.15150000 0.15149900 10223.43181945 0 -105.50198269 0 2781.10225865 0 607.73776465 0 -106.06279595 0 25020
0.15250000 0.15250500 10172.27767879 0 295.68421982 0 2688.60405711 0 313.60256307 0 94.45933171 0 25297
0.15350000 0.15350100 9870.15822379 0 379.46739449 0 2787.35812217 0 -67.58248117 0 437.31475550 0 25452
0.15450000 0.15450400 9798.15489549 0 124.44850203 0 3092.74391299 0 -276.04745175 0 661.54372710 0 26061
0.15550000 0.15549900 9631.20638188 0 136.69560051 0 3119.78253020 0 -422.89526689 0 814.08714613 0 26128
0.15650000 0.15649500 9590.32735864 0 262.98210847 0 3302.78591480 0 -184.79710122 0 441.42590971 0 26331
0.15750000 0.15749700 9601.93115505 0 83.58874465 0 3440.18239348 0 -91.14937093 0 899.71386288 0 27345
0.15850000 0.15849900 9358.56145554 0 26.82946099 0 3164.42614387 0 396.57081463 0 618.28415404 0 26980
0.15950000 0.15949700 9431.73845027 0 139.25441478 0 3274.49612489 0 416.76673510 0 698.45553635 0 27777
0.16050000 0.16050000 9291.91713246 0 149.07335243 0 2839.88523111 0 572.88208612 0 381.18581930 0 28224
0.16150000 0.16150500 8967.99626989 0 149.14642977 0 2622.20332518 0 454.92971706 0 645.75348468 0 28075
0.16250000 0.16249700 8894.25458660 0 107.39712181 0 2514.41424307 0 183.30898077 0 729.91754732 0 28590
0.16350000 0.16349900 8775.40425199 0 53.56214986 0 2248.46807325 0 107.66662220 0 435.21322825 0 29163
0.16450000 0.16449100 8775.09422690 0 39.20964882 0 2371.02763666 0 37.41305339 0 112.29441108 0 28996
0.16550000 0.16550500 8664.29347244 0 152.03741378 0 2268.22110072 0 -82.56555111 0 276.68300320 0 30777
0.16650000 0.16650700 8571.80634323 0 308.78388731 0 2391.88789662 0 -232.82995352 0 182.45751899 0 29211
0.16750000 0.16749900 8460.61805740 0 140.23210106 0 2288.73811861 0 137.23703720 0 438.72979861 0 30922
0.16850000 0.16850800 8345.57660253 0 -77.64146682 0 2310.67239408 0 104.10443386 0 585.93746431 0 30867
0.16950000 0.16949900 8480.92470112 0 20.98139119 0 2370.61796065 0 149.24940239 0 77.79791877 0 30852
0.17050000 0.17049200 8409.59678463 0 159.56548743 0 2284.76315400 0 280.33797762 0 541.43446917 0 31257
0.17150000 0.17149500 8347.40353613 0 72.78669528 0 2077.99856034 0 -16.00205600 0 510.06657296 0 32608
0.17250000 0.17250900 8144.54747313 0 134.33498086 0 1946.30432895 0 193.38368912 0 532.02520754 0 32361
0.17350000 0.17350400 8199.43298725 0 96.60813778 0 2030.27684037 0 86.91022065 0 550.97549146 0 32508
0.17450000 0.17449800 7933.30966024 0 57.25620959 0 1819.53728210 0 159.46140757 0 873.78137092 0 32791
0.17550000 0.17549800 7976.79067980 0 113.59983817 0 1709.05762506 0 294.72535649 0 707.30343111 0 33633
0.17650000 0.17650100 7846.96767130 0 77.76304094 0 1786.92928551 0 246.96156169 0 635.61787854 0 33984
0.17750000 0.17750300 7738.81320247 0 195.95579018 0 1805.48650190 0 91.74827298 0 724.64379901 0 34069
0.17850000 0.17849800 7593.44464993 0 180.55418635 0 1753.62373245 0 25.69997314 0 622.98103422 0 34536
