### header ###
fiducial parameters:
Omega_m = 0.31
Omega_nu = 0
Omega_de = 0.69
Omega_k = 0
H_0 = 100
w_de = -1
zeff = 0
beta = 0
fgrowth = 0
b_1 = 2
gamma = 0.55
Lx = 3500 Ly = 3500 Lz = 3500
nx = 700 ny = 700 nz = 700
xoffset = -685.467585 yoffset = -31.7331281 zoffset = 572.489161
bins = 400 dk = 0.001
kx_ny = 0.628318531 ky_ny = 0.628318531 kz_ny = 0.628318531
############################
A(data) = 8.03653283 (not used)
A(ran) = 8.03848432 (used)
Ngal = 477923
weighted Ngal = 0
Nran = 23820508
weighted Nran = 0
SN(data) = 3480.1211
SN(ran) = 70.0181137
SN(data+ran) = 3550.13922
############################
13 columns: k_central k_mean P_0(k) sigma^{lin}_{P_0(k)} P^img_1(k) sigma^{lin}_{P_1(k)} P_2(k) sigma^{lin}_{P_2(k)} P^img_3(k) sigma^{lin}_{P_3(k)} P_4(k) sigma^{lin}_{P_4(k)} N_modes
### header ###
0.00050000 0 0 0 0 0 0 0 0 0 0 0 0
0.00150000 0.00179520 -2059.26418675 0 -1132.32236990 0 5253.26451021 0 -5204.52413636 0 -8705.18356799 0 3
0.00250000 0.00253879 374.25343673 0 -2101.91478195 0 1289.25042956 0 10011.58502870 0 18852.84746871 0 6
0.00350000 0.00331552 3295.34531253 0 -5439.48994133 0 -27.44342140 0 5110.32079680 0 -12594.65875796 0 7
0.00450000 0.00420575 8662.23402002 0 -6512.88539855 0 -1607.00400720 0 4452.02679703 0 -6285.36019585 0 24
0.00550000 0.00557378 17849.47339364 0 -10772.99558950 0 -7732.69020685 0 4227.42468808 0 -6173.79545098 0 45
0.00650000 0.00659388 26558.85337274 0 -8031.28866256 0 2121.74531570 0 -18651.88477325 0 -24607.02395371 0 40
0.00750000 0.00754703 31327.37150239 0 -8772.69153241 0 -9276.40480539 0 -3608.16063330 0 -11460.52052679 0 57
0.00850000 0.00846663 42532.01060262 0 -16844.54919310 0 -3860.05602293 0 -15587.50815644 0 -31098.61727164 0 75
0.00950000 0.00948925 51549.42265817 0 -12604.95602004 0 -14286.28854375 0 -8522.04731549 0 -19244.25415105 0 112
0.01050000 0.01054430 68932.08683746 0 -10208.35131305 0 2628.61420125 0 -17829.65393222 0 -26332.97794644 0 105
0.01150000 0.01145670 65455.59829090 0 -2705.68865431 0 -10781.44377334 0 -16987.05001352 0 -7886.58444950 0 144
0.01250000 0.01249090 73686.32166809 0 3850.10200291 0 2522.18701509 0 -13896.87487988 0 -9204.24646454 0 169
0.01350000 0.01339930 67199.37872659 0 9024.66442831 0 9643.60738567 0 -6342.11693287 0 6959.26617361 0 180
0.01450000 0.01448870 62541.69456838 0 6810.64235757 0 3575.92909575 0 9362.48105853 0 13907.50431171 0 267
0.01550000 0.01550050 61404.01319326 0 -3265.29502297 0 13409.47114137 0 23805.16619035 0 19101.19971439 0 238
0.01650000 0.01653350 63734.29467460 0 -3508.94153060 0 11957.11429490 0 9175.97881928 0 20438.51510599 0 315
0.01750000 0.01747870 68231.54084619 0 -6701.88998320 0 17780.82497977 0 18353.70706588 0 15240.28005013 0 297
0.01850000 0.01844180 69327.14738699 0 2035.10437399 0 5306.93206860 0 1280.93511362 0 31227.49913252 0 388
0.01950000 0.01947590 70509.67167762 0 2652.94009887 0 17013.84503958 0 -6866.43580233 0 24405.50764201 0 399
0.02050000 0.02045430 66155.92283568 0 3445.97321936 0 15924.32827743 0 -1715.50171810 0 36932.62521858 0 462
0.02150000 0.02154770 68513.77440581 0 2137.68946344 0 11402.05865175 0 3283.52006962 0 11459.63474080 0 571
0.02250000 0.02255340 62426.87456001 0 -1354.67679691 0 13581.64579230 0 2843.21800088 0 7348.22587217 0 510
0.02350000 0.02348930 67250.42214400 0 -63.89871870 0 4431.98588911 0 -1908.64735224 0 -12780.89526141 0 555
0.02450000 0.02439640 65437.77184794 0 -1840.33110811 0 13108.52535280 0 -10642.12071014 0 -4291.10162812 0 592
0.02550000 0.02547300 65853.75909138 0 4029.90548564 0 16693.96557557 0 -21490.38596376 0 -17291.31749954 0 837
0.02650000 0.02652900 64446.35588368 0 3327.15610173 0 28037.23018253 0 -12723.42989560 0 -638.73916691 0 723
0.02750000 0.02749970 65902.47732058 0 469.92939549 0 30174.52104227 0 -11837.86535661 0 -24428.53807763 0 826
0.02850000 0.02848090 63887.53565009 0 2816.30117925 0 33947.41572423 0 -6074.45455271 0 -10416.45565801 0 831
0.02950000 0.02946900 64930.21647826 0 5399.14238969 0 42282.10823146 0 -498.89570445 0 -16962.02655943 0 996
0.03050000 0.03053250 59741.61434499 0 1485.76205044 0 30022.71946901 0 6047.44915247 0 -12276.10797293 0 1041
0.03150000 0.03150510 61909.13265149 0 -1746.43779365 0 34856.01069884 0 14850.20204677 0 -13254.79076365 0 1036
0.03250000 0.03246190 59588.92698574 0 -1819.86945184 0 29737.38565843 0 14423.69609475 0 -17802.74818291 0 1059
0.03350000 0.03345080 61458.04613838 0 -235.00455811 0 17403.92304294 0 10751.57064097 0 -18832.14222130 0 1302
0.03450000 0.03451200 56877.20391441 0 5665.96327317 0 17861.87439744 0 247.42659933 0 -18646.45933409 0 1339
0.03550000 0.03553350 53868.96398443 0 6705.78744154 0 17966.61859022 0 -7993.70919212 0 -13878.16265094 0 1365
0.03650000 0.03647120 51063.12615214 0 3040.05071918 0 22961.12286942 0 -1870.80214601 0 -8217.43658741 0 1308
0.03750000 0.03744890 45446.35721813 0 475.29947303 0 21013.16876408 0 1692.16125738 0 -7022.15697858 0 1579
0.03850000 0.03847530 50218.97210796 0 -1480.33661128 0 25513.73663311 0 5544.88740128 0 -9908.98886693 0 1662
0.03950000 0.03950240 50601.74237694 0 -1989.08779205 0 21422.18044288 0 8453.50962486 0 -7680.80529275 0 1683
0.04050000 0.04050350 52204.68284094 0 -971.18239789 0 17958.09290011 0 3780.87782815 0 -4220.21660463 0 1822
0.04150000 0.04152450 50346.52528987 0 1706.07916968 0 17715.38754009 0 628.34114667 0 -4439.05003234 0 1887
0.04250000 0.04250150 52580.25609879 0 1933.99190375 0 18082.43510783 0 1598.43402779 0 -1427.07872890 0 1920
0.04350000 0.04349210 46689.11495578 0 1703.98650029 0 16675.25334663 0 -356.56207613 0 -1800.48181108 0 2005
0.04450000 0.04448520 47998.86025858 0 2673.62320163 0 18976.19316719 0 1902.14789757 0 1256.13310603 0 2151
0.04550000 0.04548030 44444.31182205 0 1832.75763793 0 18365.55445344 0 1108.02968925 0 2301.98061910 0 2274
0.04650000 0.04648670 44567.10390429 0 1084.84313385 0 18256.71350047 0 3161.19302502 0 6499.49895784 0 2311
0.04750000 0.04749250 42872.15242105 0 1009.55243231 0 18189.83665857 0 4908.21765188 0 5149.38395876 0 2568
0.04850000 0.04851840 41344.28231932 0 1809.04071817 0 15813.82647574 0 2120.59379392 0 7521.74027440 0 2493
0.04950000 0.04949480 40906.59331924 0 2574.68090705 0 18797.04295162 0 -55.65470853 0 7653.45665044 0 2644
0.05050000 0.05050630 37056.63525655 0 2282.03936210 0 15839.73571581 0 -2037.35205593 0 6057.27030459 0 2829
0.05150000 0.05149060 36416.87632853 0 1631.13060298 0 19125.22665925 0 2386.78355488 0 5044.42939180 0 2784
0.05250000 0.05249300 35531.53323603 0 113.05397256 0 17037.98270768 0 101.85320877 0 2504.88097140 0 3055
0.05350000 0.05348950 34758.57424044 0 604.15365310 0 18602.94509755 0 885.13161109 0 544.65208676 0 3009
0.05450000 0.05448610 34086.81629369 0 2080.64484597 0 15774.07682964 0 1252.95534880 0 2761.92499206 0 3336
0.05550000 0.05550870 33356.59647190 0 -526.18012726 0 14046.57271143 0 2379.73048397 0 2754.18543701 0 3349
0.05650000 0.05647670 33869.02366451 0 -1376.10174544 0 14174.45806309 0 3881.74670725 0 2360.25426462 0 3324
0.05750000 0.05747970 35694.29641086 0 -1032.06357590 0 13717.72466432 0 3402.70257397 0 232.70594348 0 3639
0.05850000 0.05849280 35496.21251986 0 -381.95202418 0 11078.52532054 0 1147.29215306 0 3504.97763832 0 3846
0.05950000 0.05951020 35003.93695842 0 321.41298100 0 10533.09152765 0 760.10402648 0 3915.48408097 0 3787
0.06050000 0.06049470 35237.00939585 0 274.77081270 0 9712.97550066 0 2012.79363948 0 3952.41028424 0 3930
0.06150000 0.06148310 35127.94699639 0 192.04615228 0 10649.57238475 0 2402.47303915 0 2672.21701638 0 4083
0.06250000 0.06249100 34296.19395601 0 656.81030824 0 9359.53582013 0 256.13498280 0 3371.31253311 0 4303
0.06350000 0.06350600 34371.48576478 0 1417.70046978 0 10587.71130598 0 -821.60857638 0 2763.45297289 0 4470
0.06450000 0.06451750 32000.12595837 0 1824.96272126 0 9368.30510138 0 -1616.93588257 0 3198.70606151 0 4479
0.06550000 0.06550280 31666.51681158 0 1294.84195359 0 12493.45770912 0 56.04301496 0 4265.32525594 0 4636
0.06650000 0.06648880 30898.42963891 0 -379.09204268 0 11951.46740925 0 -423.93163649 0 2553.44418805 0 4653
0.06750000 0.06749660 31004.72395717 0 509.66796926 0 13716.39598534 0 -967.83855579 0 1377.74044951 0 5220
0.06850000 0.06852730 31314.30615910 0 843.09220822 0 14822.96412771 0 -1994.69038840 0 1103.13793615 0 5029
0.06950000 0.06949320 30364.07924317 0 588.17185946 0 13574.78095091 0 312.29713597 0 1480.12623711 0 5040
0.07050000 0.07048030 30176.95695373 0 277.13364682 0 14464.33152684 0 869.29818660 0 1556.90173740 0 5475
0.07150000 0.07148790 29486.26533154 0 895.82969133 0 13946.58961832 0 2713.32855843 0 254.33905171 0 5509
0.07250000 0.07249820 28301.08368296 0 1512.03667723 0 12307.88554516 0 1996.03013971 0 2509.11059948 0 5916
0.07350000 0.07351270 27078.58829973 0 634.68115986 0 11120.48943161 0 3165.52230403 0 3279.79976848 0 5721
0.07450000 0.07449140 27333.58394030 0 -229.64555290 0 10185.95199994 0 2528.21035979 0 4272.73264124 0 6028
0.07550000 0.07549160 26949.26354585 0 -51.82390559 0 9213.63579599 0 2849.48493673 0 2708.14671042 0 6183
0.07650000 0.07648840 26623.18357994 0 343.25867787 0 9310.06467284 0 888.26950795 0 3795.72581573 0 6330
0.07750000 0.07749960 26411.48072941 0 480.92310680 0 7277.91660957 0 -265.96831447 0 3419.34427817 0 6583
0.07850000 0.07848650 25976.11691754 0 241.77196304 0 9588.96546269 0 -514.21537307 0 4122.87979715 0 6549
0.07950000 0.07947320 25974.67751531 0 517.16946933 0 9044.66104693 0 -539.76919151 0 2487.56385538 0 6828
0.08050000 0.08048110 25592.23941607 0 592.43691898 0 10386.94791237 0 -575.51508496 0 3299.82960408 0 7147
0.08150000 0.08149960 24863.01610352 0 705.77434306 0 10594.07789275 0 167.04816454 0 3237.37061978 0 7386
0.08250000 0.08250610 24564.06333342 0 1316.17832352 0 10119.63984660 0 -299.27497476 0 4182.91394231 0 7227
0.08350000 0.08350160 23803.72678812 0 428.51225727 0 10870.08880583 0 948.79526434 0 3445.78498984 0 7798
0.08450000 0.08449610 23034.08948997 0 519.68067260 0 10505.56572815 0 1191.32678886 0 4133.89676034 0 7371
0.08550000 0.08548940 22661.83792957 0 579.83439887 0 9908.64562486 0 1895.85881707 0 3616.63096179 0 8256
0.08650000 0.08650700 22078.43713488 0 686.44538562 0 8683.34894345 0 940.98373918 0 1824.37588804 0 8037
0.08750000 0.08749060 21369.03328375 0 12.67493311 0 7258.60647509 0 924.36417962 0 1962.94603315 0 8155
0.08850000 0.08849210 21406.45774163 0 -100.45898163 0 7221.93493529 0 242.62453205 0 -216.48609485 0 8718
0.08950000 0.08949900 21335.92703254 0 698.55629451 0 6159.56751359 0 -81.50094708 0 660.02681860 0 8571
0.09050000 0.09049190 20931.78717666 0 183.91352970 0 6178.35724880 0 82.78301157 0 -191.52575302 0 8932
0.09150000 0.09150830 20639.47780145 0 -42.84148208 0 5320.92748717 0 887.83104389 0 578.35181458 0 9285
0.09250000 0.09250820 20682.99203798 0 46.89273501 0 5745.10825098 0 1206.83911593 0 205.29640339 0 9204
0.09350000 0.09350330 20334.87814568 0 451.07654802 0 4863.82870169 0 160.73361769 0 -99.78833092 0 9349
0.09450000 0.09448040 20187.17333260 0 633.83634148 0 5959.16950669 0 338.87846617 0 827.90097857 0 9564
0.09550000 0.09549270 19337.26167952 0 925.27211026 0 5941.67523348 0 -792.98440226 0 1391.21546881 0 10155
0.09650000 0.09649430 18629.18650737 0 1029.95540526 0 6041.48116940 0 -885.09064349 0 1416.13927198 0 9913
0.09750000 0.09749140 17737.42146648 0 694.31116517 0 6997.57641749 0 6.55333260 0 1201.19223028 0 10476
0.09850000 0.09850240 17501.24877810 0 420.61990414 0 7158.35764618 0 -8.67807852 0 350.45679623 0 10575
0.09950000 0.09950330 17147.37727689 0 34.56846242 0 7343.57549574 0 157.19600992 0 -322.12160979 0 10882
0.10050000 0.10051200 16963.90885465 0 244.34738580 0 7102.90744349 0 333.16182486 0 -33.85750845 0 10875
0.10150000 0.10150300 16867.46890548 0 123.95246188 0 6984.72144837 0 694.07643188 0 1022.29335648 0 11118
0.10250000 0.10250800 16794.17011518 0 33.17224226 0 6962.58787106 0 401.94199940 0 484.32673945 0 11575
0.10350000 0.10349800 16862.26491281 0 255.27577039 0 6344.68571223 0 145.89338074 0 797.47533720 0 11364
0.10450000 0.10450100 16541.05676982 0 422.88198010 0 6398.26469203 0 -145.98638827 0 111.90023631 0 12093
0.10550000 0.10551000 16244.42918793 0 282.13944487 0 6461.02262910 0 -369.48458643 0 1559.01655144 0 12067
0.10650000 0.10649700 16228.92793319 0 -115.92059746 0 6222.35866763 0 540.52986023 0 664.04275081 0 12054
0.10750000 0.10749900 16488.24178044 0 -61.89927828 0 5957.89618934 0 699.63695341 0 -442.44567082 0 12807
0.10850000 0.10850100 16021.76473583 0 405.67669457 0 5875.41844177 0 370.92066696 0 -113.25548887 0 12736
0.10950000 0.10950300 15695.79549317 0 656.00202853 0 5416.55915663 0 109.69994393 0 126.24886205 0 12933
0.11050000 0.11050200 15356.87163047 0 7.53401948 0 5251.33792569 0 623.57340360 0 1061.47056339 0 13428
0.11150000 0.11150900 15270.83966663 0 -92.36046181 0 5152.51742668 0 1282.19735865 0 1347.64587065 0 13453
0.11250000 0.11250000 15401.82526923 0 -35.20711412 0 4944.37986474 0 1251.58238053 0 1160.24677310 0 13668
0.11350000 0.11349100 14829.93969235 0 405.42535279 0 4223.94797809 0 563.69316375 0 1458.41340814 0 13791
0.11450000 0.11448600 14774.91023800 0 402.74695742 0 3984.16571182 0 179.41262966 0 1368.73864943 0 14205
0.11550000 0.11549300 14400.00131964 0 335.57005551 0 3942.54484283 0 -248.63348273 0 1712.24645461 0 14776
0.11650000 0.11649800 14277.76285364 0 192.86218262 0 4376.57997572 0 -658.96608988 0 1075.41394203 0 14553
0.11750000 0.11747300 14172.46504462 0 -27.94865158 0 4337.67182630 0 -517.40641708 0 1084.03485414 0 14568
0.11850000 0.11849100 14261.59725941 0 -10.46835164 0 4250.62120858 0 -93.28920842 0 387.78492489 0 16015
0.11950000 0.11950300 14255.39675751 0 35.10026618 0 4650.04425409 0 -124.04546941 0 509.93481229 0 15270
0.12050000 0.12050700 14400.99782888 0 203.09854692 0 4990.90577363 0 109.43299018 0 248.13079919 0 15999
0.12150000 0.12150000 14056.64852702 0 357.60176744 0 4338.38045509 0 438.98556932 0 429.89961957 0 15670
0.12250000 0.12250700 13835.09130739 0 270.61426196 0 4658.64745047 0 498.60893123 0 469.85631814 0 16887
0.12350000 0.12352200 13826.78706378 0 156.12974504 0 4582.91274871 0 56.70082178 0 620.59162653 0 16407
0.12450000 0.12449800 13552.52557802 0 160.12574706 0 4640.25631895 0 151.02097436 0 346.04668925 0 16306
0.12550000 0.12549900 13585.18893624 0 76.81602500 0 4453.22260811 0 -268.33889921 0 726.05219873 0 17523
0.12650000 0.12650100 13605.34056741 0 -60.16800957 0 4813.31675586 0 202.70105045 0 473.85785633 0 17154
0.12750000 0.12750600 13507.79338576 0 136.60812915 0 4584.60681441 0 -130.38326813 0 281.62126006 0 18007
0.12850000 0.12850300 13189.79621696 0 338.31599207 0 4490.56955972 0 415.91195163 0 236.57129208 0 17496
0.12950000 0.12949900 13123.91588429 0 122.58060083 0 4152.76400183 0 724.66926536 0 -72.17173836 0 18405
0.13050000 0.13049000 12854.63694470 0 -156.42537611 0 3619.81979134 0 406.81382232 0 -300.31355882 0 18100
0.13150000 0.13148800 12943.76915949 0 -9.98969504 0 3594.39773355 0 126.57328116 0 -728.52575609 0 19059
0.13250000 0.13249300 12931.81104869 0 400.65207356 0 3495.57723455 0 -68.99841006 0 -369.33953898 0 18957
0.13350000 0.13349100 12493.23626262 0 338.67805709 0 3256.85791146 0 -220.73011696 0 -394.58776126 0 19468
0.13450000 0.13450700 12445.51454265 0 287.53277429 0 3247.11426562 0 231.47470096 0 -176.58143621 0 19953
0.13550000 0.13551000 12113.01262835 0 253.93380462 0 3133.32398345 0 266.13329211 0 -143.99669150 0 19956
0.13650000 0.13649900 12022.77318108 0 197.70078857 0 3746.37646401 0 303.72604933 0 58.61367662 0 19723
0.13750000 0.13749600 11955.56416943 0 260.87504505 0 3504.37973278 0 130.93466991 0 792.73084602 0 20946
0.13850000 0.13851100 11774.75310514 0 4.56635962 0 3664.49662198 0 178.64642479 0 674.70650685 0 20955
0.13950000 0.13949800 11581.65176030 0 105.88707815 0 3730.75341369 0 -145.74833329 0 589.68544626 0 20506
0.14050000 0.14048300 11767.11320102 0 93.42340500 0 3984.91862991 0 -301.22702562 0 555.83956376 0 21447
0.14150000 0.14148400 11585.96996698 0 249.89572776 0 3950.56120599 0 -276.60549692 0 585.08932423 0 21771
0.14250000 0.14249400 11282.69899020 0 184.87017857 0 3642.68414209 0 260.57055612 0 506.90653145 0 22470
0.14350000 0.14350900 11340.93941875 0 152.54341903 0 3729.80119376 0 209.60243051 0 118.13284796 0 22519
0.14450000 0.14449900 11067.72980385 0 150.68769739 0 3307.97883514 0 658.39032899 0 300.74095056 0 22218
0.14550000 0.14550500 10939.82230754 0 1.55575022 0 3030.69460471 0 504.98326863 0 -254.50735105 0 23559
0.14650000 0.14650700 10895.32263410 0 163.54266650 0 2893.84066995 0 254.42430861 0 290.63191800 0 23044
0.14750000 0.14750500 10841.45577385 0 186.22543112 0 2964.55960857 0 140.99498424 0 247.14204058 0 23649
0.14850000 0.14849900 10581.00147714 0 169.55715334 0 2570.35162805 0 299.53517439 0 678.01048857 0 23640
0.14950000 0.14949500 10510.49291270 0 198.01856429 0 2663.86848347 0 65.94111973 0 473.42049950 0 24457
0.15050000 0.15050000 10311.58966966 0 241.31467603 0 2802.06216953 0 66.50547613 0 901.69027286 0 24591
0.15150000 0.15149900 10117.93470858 0 209.36216107 0 2811.98297257 0 124.81721045 0 978.37165839 0 25020
0.15250000 0.15250500 9933.91267009 0 114.52769899 0 2877.75258199 0 201.35244129 0 871.71195341 0 25297
0.15350000 0.15350100 9867.08011749 0 180.87417654 0 2874.19836572 0 -17.42097442 0 592.48231551 0 25452
0.15450000 0.15450400 9622.37066667 0 225.69716187 0 2817.35305010 0 -211.14148366 0 438.01452643 0 26061
0.15550000 0.15549900 9700.79594336 0 18.60261293 0 2716.65025588 0 -183.62564926 0 455.04265477 0 26128
0.15650000 0.15649500 9652.59811343 0 15.57798596 0 2651.71107082 0 -195.63247829 0 -5.22222878 0 26331
0.15750000 0.15749700 9553.27935980 0 125.69303134 0 2725.90671943 0 9.48337977 0 217.61768645 0 27345
0.15850000 0.15849900 9551.97282547 0 101.60064905 0 2441.89051550 0 328.70964305 0 30.72094027 0 26980
0.15950000 0.15949700 9282.23992057 0 -7.64968099 0 2301.42700285 0 892.32751499 0 234.96801944 0 27777
0.16050000 0.16050000 9303.85309861 0 178.28768146 0 2036.43305297 0 613.07130351 0 -14.42092801 0 28224
0.16150000 0.16150500 9166.54519854 0 214.80310148 0 2141.80836827 0 349.37392286 0 419.22368398 0 28075
0.16250000 0.16249700 8828.40747090 0 237.03411525 0 1816.17129535 0 -35.37463839 0 806.34648385 0 28590
0.16350000 0.16349900 8765.80454637 0 78.52105230 0 1787.61576965 0 -116.00696159 0 816.54852394 0 29163
0.16450000 0.16449100 8738.28981920 0 -46.36414222 0 1921.79020180 0 -3.19512970 0 500.49344092 0 28996
0.16550000 0.16550500 8849.21236923 0 80.59168776 0 1913.24236704 0 -63.69022682 0 546.40594301 0 30777
0.16650000 0.16650700 8733.66158743 0 139.78699360 0 2039.90976296 0 -53.43404307 0 319.56279552 0 29211
0.16750000 0.16749900 8655.01486424 0 166.45579516 0 2072.91636325 0 -119.45820524 0 440.28213855 0 30922
0.16850000 0.16850800 8614.76696352 0 70.40016639 0 2173.36449400 0 133.38165370 0 509.52624350 0 30867
0.16950000 0.16949900 8554.41172094 0 69.54914750 0 2179.77537007 0 66.97549632 0 520.64285762 0 30852
0.17050000 0.17049200 8599.39857668 0 -8.14837850 0 2315.00167308 0 21.71305042 0 754.49478672 0 31257
0.17150000 0.17149500 8495.40730198 0 228.92695902 0 2408.09778016 0 -33.72552633 0 747.89789560 0 32608
0.17250000 0.17250900 8256.27830287 0 263.06293644 0 2475.15177926 0 -66.26398873 0 629.49820461 0 32361
0.17350000 0.17350400 8167.77721059 0 167.76454395 0 2213.65668402 0 -120.57983174 0 761.07506936 0 32508
0.17450000 0.17449800 7998.12704972 0 -3.05692494 0 2337.37884154 0 215.17956053 0 640.42216028 0 32791
0.17550000 0.17549800 8139.12203396 0 -32.10918836 0 2167.68439137 0 -3.83776743 0 21.88898966 0 33633
0.17650000 0.17650100 8134.88133356 0 -0.97069964 0 2188.22355391 0 0.86980087 0 -228.01570669 0 33984
0.17750000 0.17750300 8120.78626406 0 202.32569864 0 2247.54907029 0 -333.17178996 0 229.51711393 0 34069
0.17850000 0.17849800 7916.29149699 0 233.87185928 0 2285.51607209 0 -163.93462680 0 516.88048165 0 34536
