### header ###
fiducial parameters:
Omega_m = 0.31
Omega_nu = 0
Omega_de = 0.69
Omega_k = 0
H_0 = 100
w_de = -1
zeff = 0
beta = 0
fgrowth = 0
b_1 = 2
gamma = 0.55
Lx = 3500 Ly = 3500 Lz = 3500
nx = 700 ny = 700 nz = 700
xoffset = -685.467585 yoffset = -31.7331281 zoffset = 572.489161
bins = 400 dk = 0.001
kx_ny = 0.628318531 ky_ny = 0.628318531 kz_ny = 0.628318531
############################
A(data) = 8.01786683 (not used)
A(ran) = 8.01391314 (used)
Ngal = 475873
weighted Ngal = 0
Nran = 23820508
weighted Nran = 0
SN(data) = 3495.50159
SN(ran) = 69.8040898
SN(data+ran) = 3565.30568
############################
13 columns: k_central k_mean P_0(k) sigma^{lin}_{P_0(k)} P^img_1(k) sigma^{lin}_{P_1(k)} P_2(k) sigma^{lin}_{P_2(k)} P^img_3(k) sigma^{lin}_{P_3(k)} P_4(k) sigma^{lin}_{P_4(k)} N_modes
### header ###
0.00050000 0 0 0 0 0 0 0 0 0 0 0 0
0.00150000 0.00179520 -390.16436749 0 -1376.22354101 0 3727.78603064 0 -2030.24362340 0 31.23978941 0 3
0.00250000 0.00253879 4298.67509829 0 -4965.11832913 0 -1580.23112579 0 10736.68943642 0 18637.93364398 0 6
0.00350000 0.00331552 15356.87163047 0 -17390.74697641 0 -7689.22025961 0 -13976.48489533 0 -3896.69434575 0 7
0.00450000 0.00420575 27234.70807967 0 -21819.67690387 0 -11678.31315597 0 -25308.78790072 0 -14744.35062150 0 24
0.00550000 0.00557378 49328.86791579 0 -10595.16298059 0 -6168.23714392 0 -28173.19833130 0 -5931.14545258 0 45
0.00650000 0.00659388 44593.01314436 0 -5005.39944682 0 -14927.04398101 0 -4200.48572180 0 31029.19379502 0 40
0.00750000 0.00754703 62585.20880492 0 -17210.15735861 0 -25205.92600315 0 791.36230667 0 -25140.37784023 0 57
0.00850000 0.00846663 64789.93012281 0 -19574.54160039 0 -17316.56240012 0 -7599.80016437 0 -24066.58377931 0 75
0.00950000 0.00948925 81760.48237234 0 2824.11824057 0 -9905.33499974 0 -28750.50934735 0 -47140.31219214 0 112
0.01050000 0.01054430 70980.02403592 0 5412.15237135 0 -24332.31957496 0 -21555.60195694 0 12835.59254602 0 105
0.01150000 0.01145670 72306.04565620 0 1979.78703920 0 -9190.16246737 0 -19913.57618634 0 6047.95847942 0 144
0.01250000 0.01249090 72149.37226001 0 3738.51511339 0 8112.94705809 0 -9873.78994633 0 -2739.83570405 0 169
0.01350000 0.01339930 64147.29239033 0 7533.21120291 0 16193.71794026 0 7956.79406118 0 -20726.28482802 0 180
0.01450000 0.01448870 62878.95758236 0 153.20775852 0 4623.49281917 0 3217.80582182 0 -10098.83494827 0 267
0.01550000 0.01550050 63513.73396421 0 -2373.88429647 0 4152.40968744 0 -10392.81624453 0 -7354.62567591 0 238
0.01650000 0.01653350 63883.10672016 0 -2611.96142472 0 18717.76510592 0 -9050.55152374 0 -15271.06111313 0 315
0.01750000 0.01747870 75218.39925325 0 -3783.02585916 0 5040.46549952 0 -8852.98803200 0 -7610.59568107 0 297
0.01850000 0.01844180 72681.28674430 0 1841.53799151 0 6584.65620802 0 -6184.10378539 0 -949.77405785 0 388
0.01950000 0.01947590 74593.92013348 0 -262.23029761 0 8295.55183900 0 10302.34427843 0 4290.68087977 0 399
0.02050000 0.02045430 76309.02324788 0 -4323.23351474 0 18126.72440710 0 6507.69247821 0 5002.64243794 0 462
0.02150000 0.02154770 75174.33140047 0 4789.68841470 0 11567.58990778 0 5503.97516108 0 6367.15145929 0 571
0.02250000 0.02255340 74070.64206255 0 2030.42078059 0 27796.62856422 0 6665.62811942 0 -5883.92198723 0 510
0.02350000 0.02348930 68005.00108040 0 4889.45006132 0 19537.22786575 0 -3099.29872929 0 16933.68140789 0 555
0.02450000 0.02439640 71542.49813670 0 117.62462825 0 24629.83294284 0 -4328.79182180 0 17204.62119621 0 592
0.02550000 0.02547300 67935.90977353 0 5536.30634955 0 21982.32935545 0 -7211.93662598 0 9979.79638414 0 837
0.02650000 0.02652900 66311.48899938 0 584.25114924 0 24509.69821856 0 -2183.36280331 0 5071.14691159 0 723
0.02750000 0.02749970 64019.62848517 0 -2252.85271388 0 21840.04998153 0 -11206.52139545 0 -18952.60911533 0 826
0.02850000 0.02848090 65782.01042656 0 3937.26334389 0 29055.44117285 0 -2669.34928425 0 -18029.06650220 0 831
0.02950000 0.02946900 61177.91632047 0 7309.20699951 0 25127.42322019 0 -3846.89102872 0 -21087.24261711 0 996
0.03050000 0.03053250 58677.12103693 0 -650.72274406 0 26980.93039483 0 -1349.30671937 0 -13521.63379178 0 1041
0.03150000 0.03150510 61059.88533790 0 -4147.43821359 0 23261.51504175 0 8162.97182162 0 -15216.69599827 0 1036
0.03250000 0.03246190 61679.49263475 0 -3352.97676321 0 27785.77768590 0 13139.30641579 0 -20166.13591545 0 1059
0.03350000 0.03345080 63554.48011954 0 4727.24050272 0 21987.53334812 0 8047.32138889 0 -8337.08412940 0 1302
0.03450000 0.03451200 55775.06470196 0 6185.11136694 0 18519.68121492 0 5978.30248398 0 -2363.79740856 0 1339
0.03550000 0.03553350 51987.44382800 0 5476.08397486 0 16268.23468629 0 9040.44249118 0 9677.79872471 0 1365
0.03650000 0.03647120 48298.14519842 0 1581.60409407 0 13938.83899095 0 9984.09244617 0 10378.35578831 0 1308
0.03750000 0.03744890 45888.14297840 0 970.72843257 0 10205.02961560 0 6730.11333917 0 8328.61380091 0 1579
0.03850000 0.03847530 47646.42815960 0 287.21167687 0 12142.68645886 0 -1994.52430353 0 3598.02945609 0 1662
0.03950000 0.03950240 45564.38820070 0 2313.34082436 0 12634.29768081 0 -6247.83608704 0 7213.75248725 0 1683
0.04050000 0.04050350 42702.41368158 0 3893.17334646 0 14718.44138143 0 -5251.43757661 0 8039.72577407 0 1822
0.04150000 0.04152450 42886.87861306 0 1242.03803653 0 17756.35514192 0 -2275.10808676 0 4537.06225164 0 1887
0.04250000 0.04250150 40184.89918756 0 519.85007917 0 19247.90801824 0 -1338.35619013 0 4116.55749967 0 1920
0.04350000 0.04349210 41491.54423941 0 1026.08230604 0 20775.55667347 0 1659.01071688 0 527.36154432 0 2005
0.04450000 0.04448520 40745.15882338 0 -819.57680477 0 19154.12542702 0 1882.58309962 0 -1230.77748219 0 2151
0.04550000 0.04548030 40341.79403024 0 -223.02762436 0 16005.37769510 0 1650.40752049 0 -4640.68813962 0 2274
0.04650000 0.04648670 41750.52591692 0 -504.66660014 0 14721.32018588 0 2889.68854814 0 -3070.58819103 0 2311
0.04750000 0.04749250 40936.26714975 0 -482.68249921 0 13377.36139939 0 1479.46189762 0 -5693.09046898 0 2568
0.04850000 0.04851840 41147.52710729 0 995.87036054 0 11287.23864338 0 3295.76606087 0 -6024.27477663 0 2493
0.04950000 0.04949480 39642.35527145 0 1028.20819240 0 12245.10546344 0 378.99571345 0 -5243.63158761 0 2644
0.05050000 0.05050630 38673.08395682 0 1727.54840750 0 11347.80426013 0 1627.77568856 0 -3534.49645628 0 2829
0.05150000 0.05149060 37783.42265765 0 1525.47847956 0 11867.42846387 0 532.31862414 0 -3294.32665864 0 2784
0.05250000 0.05249300 36277.14358932 0 1300.21203113 0 12068.50188258 0 -148.09455891 0 -103.95019637 0 3055
0.05350000 0.05348950 35841.44760770 0 990.61211348 0 14023.09938282 0 937.34426601 0 171.50920421 0 3009
0.05450000 0.05448610 36116.15198645 0 -402.71816937 0 12086.66049528 0 1794.43632173 0 2351.82822543 0 3336
0.05550000 0.05550870 35680.23455834 0 -689.25775612 0 13215.81618029 0 2991.85288925 0 839.65092967 0 3349
0.05650000 0.05647670 36604.22006446 0 358.47980279 0 10706.65021919 0 1491.43108075 0 -532.50021027 0 3324
0.05750000 0.05747970 36615.40311253 0 170.74299933 0 10084.52950460 0 476.59714949 0 -1714.59378747 0 3639
0.05850000 0.05849280 34514.42947819 0 893.92635870 0 10485.52482023 0 -414.93980151 0 -806.54246400 0 3846
0.05950000 0.05951020 33775.01962680 0 1430.01289498 0 9614.32108653 0 938.12375768 0 -644.78576349 0 3787
0.06050000 0.06049470 33655.88141175 0 1336.21923144 0 12741.80995480 0 -800.13823132 0 1983.68449753 0 3930
0.06150000 0.06148310 32918.57530208 0 138.73955168 0 10984.68736771 0 1675.69671038 0 2940.69874858 0 4083
0.06250000 0.06249100 32486.53318765 0 -265.93509749 0 12029.30585272 0 440.02858232 0 3561.23612072 0 4303
0.06350000 0.06350600 33671.38266650 0 292.89177950 0 12057.09738802 0 -103.12409022 0 2562.18025233 0 4470
0.06450000 0.06451750 32784.04655553 0 988.85715000 0 13683.62190388 0 -977.29875012 0 4084.11558796 0 4479
0.06550000 0.06550280 32129.11854251 0 1381.31681043 0 13125.13384002 0 -1487.86579216 0 2757.03102449 0 4636
0.06650000 0.06648880 31276.21736173 0 675.26676648 0 13391.31252866 0 345.29266393 0 1311.91547846 0 4653
0.06750000 0.06749660 30495.17556902 0 1204.75751887 0 12877.66738033 0 339.62363363 0 -1115.92425685 0 5220
0.06850000 0.06852730 29302.90763255 0 516.76975840 0 12254.73838603 0 1386.59830936 0 -3165.92090772 0 5029
0.06950000 0.06949320 28566.59803211 0 145.63650280 0 9826.25645588 0 1247.31953547 0 -2571.34813728 0 5040
0.07050000 0.07048030 28821.26150294 0 -644.40598275 0 8812.62940803 0 2507.17294263 0 -3990.49908161 0 5475
0.07150000 0.07148790 29689.33176872 0 -806.06524680 0 8256.74334051 0 566.36934466 0 -4412.16642768 0 5509
0.07250000 0.07249820 28893.78523050 0 312.96479716 0 7417.81543365 0 -249.65878001 0 -5022.45082704 0 5916
0.07350000 0.07351270 29465.78153063 0 1612.38515707 0 8567.65422142 0 -1338.37833478 0 -4285.18900666 0 5721
0.07450000 0.07449140 27887.64307423 0 868.07580194 0 9649.89646617 0 -589.90024936 0 -3343.37705759 0 6028
0.07550000 0.07549160 26957.56778946 0 1021.89364556 0 10457.32360892 0 -137.38208465 0 -2210.54536074 0 6183
0.07650000 0.07648840 26542.02343902 0 1016.36966271 0 10796.21425464 0 -45.84318934 0 -2354.92847638 0 6330
0.07750000 0.07749960 25576.51671483 0 1134.11608652 0 12043.03553550 0 297.25870441 0 -1121.87009527 0 6583
0.07850000 0.07848650 25299.93004086 0 261.54934963 0 11716.51267660 0 227.59828004 0 -98.26655060 0 6549
0.07950000 0.07947320 25280.77491893 0 -318.79548341 0 11862.11374796 0 812.20042198 0 254.14085710 0 6828
0.08050000 0.08048110 25861.07546267 0 -334.69091292 0 11904.29930552 0 1280.48114830 0 -31.01701424 0 7147
0.08150000 0.08149960 25605.08331286 0 12.97897915 0 11580.32308133 0 788.74038015 0 72.22001369 0 7386
0.08250000 0.08250610 25465.23985040 0 952.33508658 0 11268.74786093 0 501.39251369 0 -781.57658600 0 7227
0.08350000 0.08350160 25335.14003379 0 523.69217588 0 10718.95157206 0 126.27654286 0 1145.74202758 0 7798
0.08450000 0.08449610 24230.56490988 0 430.59053264 0 10463.24730270 0 327.91132843 0 -1028.16279587 0 7371
0.08550000 0.08548940 24139.77184636 0 792.80835229 0 9729.35146907 0 514.50768244 0 670.36726275 0 8256
0.08650000 0.08650700 23358.61933041 0 708.15821459 0 9948.01881191 0 241.31135433 0 -1193.50803685 0 8037
0.08750000 0.08749060 22665.15962702 0 646.24731037 0 8917.36252849 0 655.91787886 0 -672.66477015 0 8155
0.08850000 0.08849210 22169.23019839 0 721.56901441 0 8810.68067886 0 1009.74398353 0 -1596.66245582 0 8718
0.08950000 0.08949900 21189.32945194 0 632.42572729 0 8427.26821504 0 465.00110371 0 -734.27782884 0 8571
0.09050000 0.09049190 20583.56256111 0 671.96167752 0 8028.14412231 0 1376.14603474 0 -189.33896886 0 8932
0.09150000 0.09150830 20441.50463369 0 -118.22364102 0 7641.39888872 0 1822.05069983 0 412.91910223 0 9285
0.09250000 0.09250820 20107.34187066 0 83.83133928 0 7431.17972971 0 863.82735091 0 1133.34102379 0 9204
0.09350000 0.09350330 19795.87737351 0 897.15726308 0 7254.18861748 0 359.21943409 0 299.61821683 0 9349
0.09450000 0.09448040 19425.95100132 0 711.62828119 0 7521.96172090 0 -365.63252463 0 1395.01327623 0 9564
0.09550000 0.09549270 18481.70314079 0 834.84775516 0 7922.89060258 0 -805.55259816 0 1473.40533594 0 10155
0.09650000 0.09649430 18477.05276436 0 381.35854757 0 7964.30109740 0 -120.48460975 0 2117.67070016 0 9913
0.09750000 0.09749140 17996.95676023 0 10.20347949 0 8698.65089635 0 197.46716251 0 1488.17581725 0 10476
0.09850000 0.09850240 18334.21977420 0 -194.53299644 0 7805.71218903 0 1267.96942126 0 949.60465128 0 10575
0.09950000 0.09950330 18178.09999426 0 -30.92622117 0 6982.88344245 0 1669.81730590 0 1125.31358829 0 10882
0.10050000 0.10051200 18069.48048779 0 454.25651971 0 5770.85140618 0 1026.64588737 0 843.68236314 0 10875
0.10150000 0.10150300 17541.10914744 0 325.23404029 0 5727.84649658 0 1171.88378648 0 1638.69300083 0 11118
0.10250000 0.10250800 17263.41524099 0 225.61633390 0 4638.98300159 0 1156.53754428 0 865.65871344 0 11575
0.10350000 0.10349800 16916.96219742 0 45.61044907 0 4012.72123753 0 677.12248812 0 1030.67067744 0 11364
0.10450000 0.10450100 16801.47784956 0 -108.56735582 0 3813.41939079 0 656.51024824 0 480.42263772 0 12093
0.10550000 0.10551000 16647.35108808 0 202.29026720 0 4032.29710780 0 -545.30646116 0 834.86104195 0 12067
0.10650000 0.10649700 16797.60253587 0 432.06093738 0 3798.37210136 0 268.44851523 0 938.43156831 0 12054
0.10750000 0.10749900 16504.62882117 0 50.08521842 0 4462.35727609 0 -886.71384631 0 958.55884036 0 12807
0.10850000 0.10850100 16505.18243741 0 253.39236794 0 4738.50105706 0 26.79026496 0 1416.24999523 0 12736
0.10950000 0.10950300 16523.45177336 0 -141.10681472 0 4768.52920197 0 -268.30125331 0 1573.60987555 0 12933
0.11050000 0.11050200 16676.24985586 0 194.23957983 0 4933.10823808 0 394.94982628 0 935.37892835 0 13428
0.11150000 0.11150900 16383.05469466 0 410.66366966 0 4975.27165098 0 39.98592951 0 143.39214256 0 13453
0.11250000 0.11250000 15823.12722858 0 579.63841872 0 4715.58134469 0 122.63264076 0 595.31904513 0 13668
0.11350000 0.11349100 15595.14806057 0 193.13124011 0 5234.91766798 0 -401.08610870 0 258.19664968 0 13791
0.11450000 0.11448600 15290.21623506 0 195.70555563 0 4821.52134855 0 169.48075430 0 226.04372564 0 14205
0.11550000 0.11549300 15259.87806506 0 414.90658453 0 5251.92475890 0 -179.35283911 0 -21.68880202 0 14776
0.11650000 0.11649800 14841.67635666 0 467.42594285 0 5283.24836582 0 -231.05948878 0 28.55530426 0 14553
0.11750000 0.11747300 14578.04430273 0 395.10151713 0 5414.56613816 0 -3.76092550 0 609.96994533 0 14568
0.11850000 0.11849100 14327.36686883 0 260.58273568 0 5665.49823553 0 361.75056754 0 491.88581560 0 16015
0.11950000 0.11950300 13962.09087306 0 183.17168394 0 5330.22824002 0 807.75045463 0 974.56720759 0 15270
0.12050000 0.12050700 13914.36915310 0 131.00664002 0 5093.07011473 0 625.18885579 0 320.54601796 0 15999
0.12150000 0.12150000 13788.69826640 0 51.81128314 0 5061.41433807 0 214.32920598 0 695.21466688 0 15670
0.12250000 0.12250700 13595.26475182 0 92.81420569 0 4787.58467298 0 253.95927097 0 668.05757579 0 16887
0.12350000 0.12352200 13624.16351960 0 120.86771219 0 4648.56056256 0 -23.73751429 0 997.30754830 0 16407
0.12450000 0.12449800 13574.55950441 0 266.10893299 0 4413.51725131 0 -204.88894184 0 104.73323118 0 16306
0.12550000 0.12549900 13279.59277124 0 284.92192009 0 4663.59677966 0 137.97002510 0 809.58070993 0 17523
0.12650000 0.12650100 13013.30335936 0 293.23280710 0 4711.84997122 0 321.21257192 0 561.37129724 0 17154
0.12750000 0.12750600 12981.85795687 0 -60.57126364 0 4358.07812094 0 206.75019964 0 380.35650217 0 18007
0.12850000 0.12850300 12913.43098949 0 28.44757054 0 4495.21993615 0 502.96589105 0 176.71984027 0 17496
0.12950000 0.12949900 12879.10678255 0 184.11172432 0 4049.80245334 0 -294.52384018 0 -158.62101812 0 18405
0.13050000 0.13049000 12757.31120955 0 336.80572696 0 4402.79924089 0 -249.82818658 0 -430.49863234 0 18100
0.13150000 0.13148800 12636.95503877 0 -2.68512735 0 4276.27578518 0 -171.23461055 0 211.14480536 0 19059
0.13250000 0.13249300 12560.33455102 0 100.46053176 0 4336.73067869 0 -177.50376087 0 -180.46892945 0 18957
0.13350000 0.13349100 12641.82686169 0 149.32026527 0 4365.30834905 0 161.77663069 0 -1285.92873211 0 19468
0.13450000 0.13450700 12287.84463724 0 350.51105062 0 4391.25080610 0 69.96967440 0 -1069.46588914 0 19953
0.13550000 0.13551000 12065.62307813 0 291.73693602 0 4031.90957644 0 50.17844740 0 -1463.07485689 0 19956
0.13650000 0.13649900 11885.80852307 0 -5.05608855 0 4129.72249388 0 176.88924684 0 -975.18393608 0 19723
0.13750000 0.13749600 11950.69234651 0 -150.96561274 0 3745.36888245 0 628.06433855 0 -1147.39180398 0 20946
0.13850000 0.13851100 11965.30781527 0 -95.79111094 0 3638.75346678 0 803.49536021 0 -1291.53132847 0 20955
0.13950000 0.13949800 12144.67947733 0 73.49764925 0 3250.64633723 0 371.52521589 0 -1025.68148788 0 20506
0.14050000 0.14048300 11840.63343781 0 224.28654769 0 3065.68315114 0 206.52210975 0 -912.41160498 0 21447
0.14150000 0.14148400 11613.42933253 0 454.11147225 0 3180.66924438 0 -150.37656506 0 -662.78161302 0 21771
0.14250000 0.14249400 11420.66015744 0 395.94744275 0 3318.48647140 0 -139.49468423 0 -94.02651453 0 22470
0.14350000 0.14350900 11041.88699772 0 168.53296330 0 3177.45827018 0 260.36350365 0 552.98844012 0 22519
0.14450000 0.14449900 10994.55280912 0 32.80065504 0 3145.80249352 0 440.87782963 0 96.02307614 0 22218
0.14550000 0.14550500 10920.13571401 0 -54.62564666 0 2749.13645690 0 670.91312836 0 180.14008140 0 23559
0.14650000 0.14650700 11045.61837118 0 -11.90319207 0 2864.68723870 0 223.98870215 0 453.68629498 0 23044
0.14750000 0.14750500 10839.19701959 0 195.07996928 0 2704.17174581 0 311.13454187 0 707.64445872 0 23649
0.14850000 0.14849900 10781.52127961 0 371.89503154 0 2877.04395320 0 -151.45500950 0 907.80108893 0 23640
0.14950000 0.14949500 10356.99727374 0 350.11687586 0 2703.64027422 0 143.71877615 0 1008.07095525 0 24457
0.15050000 0.15050000 10081.69498945 0 302.69632312 0 2974.12609721 0 -45.54290789 0 1251.40522333 0 24591
0.15150000 0.15149900 9962.09173676 0 125.14716573 0 2802.84830459 0 370.30615293 0 1107.28784349 0 25020
0.15250000 0.15250500 9777.67109458 0 109.64801472 0 2855.57471538 0 88.28174952 0 1223.90156848 0 25297
0.15350000 0.15350100 9831.56009947 0 -67.86349677 0 2865.01940845 0 95.26152164 0 1024.35834506 0 25452
0.15450000 0.15450400 9928.18827816 0 -41.79337581 0 2761.48209907 0 -110.89265476 0 882.28159469 0 26061
0.15550000 0.15549900 9891.84890811 0 6.53786456 0 2920.97893808 0 -314.86923703 0 1005.85316859 0 26128
0.15650000 0.15649500 9941.40863399 0 91.77650740 0 2684.07547626 0 94.02396789 0 652.11896422 0 26331
0.15750000 0.15749700 9900.15315172 0 21.23539032 0 2915.64207752 0 -140.24206615 0 759.58362721 0 27345
0.15850000 0.15849900 10008.97196004 0 73.39235144 0 2710.06222261 0 414.60209560 0 399.76960927 0 26980
0.15950000 0.15949700 9759.70071140 0 221.87942427 0 2684.99447922 0 53.78990759 0 579.48008448 0 27777
0.16050000 0.16050000 9644.47102701 0 291.69264672 0 2673.78928651 0 -46.22706684 0 274.03450310 0 28224
0.16150000 0.16150500 9266.15183260 0 361.59666223 0 2937.22203859 0 -196.29238885 0 251.05610740 0 28075
0.16250000 0.16249700 9089.43752850 0 384.34696803 0 2966.56369936 0 -188.34688856 0 704.65714548 0 28590
0.16350000 0.16349900 8750.83476322 0 220.80873046 0 2965.41217758 0 134.37484123 0 701.30223106 0 29163
0.16450000 0.16449100 8785.61293548 0 -9.89823764 0 2763.15402012 0 490.62467781 0 861.03491059 0 28996
0.16550000 0.16550500 8646.89885015 0 -38.50312377 0 2644.85730175 0 431.74648335 0 672.43114410 0 30777
0.16650000 0.16650700 8669.98464739 0 128.82539203 0 2427.57399951 0 312.19527059 0 798.68222061 0 29211
0.16750000 0.16749900 8612.37534136 0 63.69543081 0 2429.58916263 0 240.43664067 0 755.56769500 0 30922
0.16850000 0.16850800 8432.69365421 0 75.29513046 0 2378.14714152 0 22.54402839 0 694.06757402 0 30867
0.16950000 0.16949900 8437.33295830 0 66.46129755 0 2168.72518990 0 -22.69250827 0 575.16187780 0 30852
0.17050000 0.17049200 8360.77890451 0 78.01692935 0 2314.74700961 0 -116.28930587 0 719.03455926 0 31257
0.17150000 0.17149500 8399.33273953 0 -14.82185690 0 2266.87027710 0 90.76859368 0 655.97656218 0 32608
0.17250000 0.17250900 8432.46113538 0 -16.11942264 0 2231.53848860 0 225.57425907 0 559.91085759 0 32361
0.17350000 0.17350400 8433.80088669 0 117.11197961 0 2159.22513521 0 145.89227351 0 642.15608634 0 32508
0.17450000 0.17449800 8265.54583874 0 82.34000785 0 2012.63862693 0 249.47940835 0 511.66763112 0 32791
0.17550000 0.17549800 8193.42071487 0 206.58965093 0 1799.29707233 0 150.62679960 0 633.17532368 0 33633
0.17650000 0.17650100 8014.43658418 0 111.98881491 0 1748.33116119 0 155.46651278 0 608.80956569 0 33984
0.17750000 0.17750300 7987.06579723 0 86.87645005 0 1524.03907734 0 -16.87400158 0 370.91955973 0 34069
0.17850000 0.17849800 7815.37832859 0 156.41208932 0 1697.91886629 0 -193.58631266 0 326.45974665 0 34536
