### header ###
fiducial parameters:
Omega_m = 0.31
Omega_nu = 0
Omega_de = 0.69
Omega_k = 0
H_0 = 100
w_de = -1
zeff = 0
beta = 0
fgrowth = 0
b_1 = 2
gamma = 0.55
Lx = 3500 Ly = 3500 Lz = 3500
nx = 700 ny = 700 nz = 700
xoffset = -685.467585 yoffset = -31.7331281 zoffset = 572.489161
bins = 400 dk = 0.001
kx_ny = 0.628318531 ky_ny = 0.628318531 kz_ny = 0.628318531
############################
A(data) = 8.05688589 (not used)
A(ran) = 8.06057138 (used)
Ngal = 479554
weighted Ngal = 0
Nran = 23820508
weighted Nran = 0
SN(data) = 3477.29478
SN(ran) = 70.2105
SN(data+ran) = 3547.50528
############################
13 columns: k_central k_mean P_0(k) sigma^{lin}_{P_0(k)} P^img_1(k) sigma^{lin}_{P_1(k)} P_2(k) sigma^{lin}_{P_2(k)} P^img_3(k) sigma^{lin}_{P_3(k)} P_4(k) sigma^{lin}_{P_4(k)} N_modes
### header ###
0.00050000 0 0 0 0 0 0 0 0 0 0 0 0
0.00150000 0.00179520 64549.32850450 0 -32464.83143101 0 43076.76898370 0 47963.42881916 0 -245579.73554765 0 3
0.00250000 0.00253879 112944.35654508 0 -26284.48116374 0 3703.54871161 0 44804.71599489 0 180647.19388118 0 6
0.00350000 0.00331552 99787.33440958 0 -5699.29097088 0 8531.53629786 0 -67806.91718939 0 73158.06105099 0 7
0.00450000 0.00420575 85168.10105853 0 10653.56949401 0 -29500.10573757 0 -13757.69575691 0 12765.39400667 0 24
0.00550000 0.00557378 81821.15871235 0 -5359.83563659 0 -2432.13579734 0 -9313.23135773 0 -27701.07440103 0 45
0.00650000 0.00659388 95103.29811830 0 -3179.20769750 0 -16170.79822789 0 -50227.94069107 0 14656.43636244 0 40
0.00750000 0.00754703 88307.65876086 0 -2655.38708266 0 37985.60330883 0 -24206.64868827 0 29907.23512115 0 57
0.00850000 0.00846663 104256.01398314 0 -1073.35338238 0 55162.43296974 0 -24717.08286241 0 32543.22349072 0 75
0.00950000 0.00948925 101111.58445789 0 3637.49122175 0 73791.17658412 0 23422.28519812 0 34087.70207968 0 112
0.01050000 0.01054430 124172.80114367 0 -24.61466386 0 73986.04950093 0 56374.40964439 0 22219.71999956 0 105
0.01150000 0.01145670 109382.27892768 0 -621.65567694 0 73100.15279219 0 50717.66961779 0 50763.73048904 0 144
0.01250000 0.01249090 116383.42063376 0 13864.21152167 0 69229.82165183 0 47940.39838353 0 23758.55170286 0 169
0.01350000 0.01339930 93136.96395376 0 21649.05237841 0 52729.73248384 0 35648.78915586 0 59179.58313720 0 180
0.01450000 0.01448870 77540.26576772 0 17873.05744551 0 40918.99432304 0 35818.19572558 0 25303.03029181 0 267
0.01550000 0.01550050 71390.03222395 0 -5348.04361065 0 35047.89408795 0 15059.02609285 0 23084.69001440 0 238
0.01650000 0.01653350 69023.65496371 0 -8143.41809599 0 22494.64582481 0 7618.00306637 0 2424.87235226 0 315
0.01750000 0.01747870 90630.41106131 0 -15925.54623316 0 16558.44031979 0 -10649.66096334 0 -20657.74713740 0 297
0.01850000 0.01844180 87851.47897833 0 -2218.68351949 0 28026.15785771 0 -20890.59812833 0 -16693.96557557 0 388
0.01950000 0.01947590 89425.74212105 0 12247.87354464 0 32536.46937258 0 -17285.11699764 0 -12364.35440173 0 399
0.02050000 0.02045430 79664.93417717 0 6659.15080940 0 31034.50851094 0 -3684.24964946 0 -19507.11114224 0 462
0.02150000 0.02154770 77814.08436048 0 2274.27766240 0 39789.50646829 0 6582.69640653 0 -29037.50400664 0 571
0.02250000 0.02255340 72962.19162495 0 3765.79732174 0 39793.16033548 0 11146.17722519 0 -27634.08683588 0 510
0.02350000 0.02348930 74458.83777069 0 4519.06972381 0 36049.27514455 0 5676.26053525 0 -27731.30184779 0 555
0.02450000 0.02439640 73528.09814643 0 -4671.84566165 0 33528.10678334 0 -7024.82540887 0 -6214.51946166 0 592
0.02550000 0.02547300 76816.57861757 0 337.37816615 0 38148.03431392 0 2572.12320002 0 -15549.53008231 0 837
0.02650000 0.02652900 76893.53127506 0 4873.26232243 0 37257.15505901 0 -2579.76310415 0 -9600.04885984 0 723
0.02750000 0.02749970 69434.10604474 0 3150.18713415 0 43796.13792716 0 -3163.64000881 0 -1009.86135018 0 826
0.02850000 0.02848090 70227.32739475 0 7731.09579207 0 39201.12312742 0 8587.49582750 0 1109.95627377 0 831
0.02950000 0.02946900 63819.44085245 0 2389.36340656 0 39121.51311198 0 7206.36724659 0 -5178.36023281 0 996
0.03050000 0.03053250 61555.92548978 0 613.69578263 0 32895.98775945 0 9277.51203787 0 3324.99699839 0 1041
0.03150000 0.03150510 62979.05139872 0 2251.76762604 0 31336.00791575 0 10110.04014098 0 4592.35744178 0 1036
0.03250000 0.03246190 58403.19172091 0 1087.32112014 0 29729.96720080 0 9327.34857188 0 2355.31600775 0 1059
0.03350000 0.03345080 56954.26729515 0 2171.54863273 0 19710.39902591 0 8145.69899491 0 3820.69390820 0 1302
0.03450000 0.03451200 55272.82404819 0 1452.29041251 0 16675.25334663 0 4832.01791248 0 4849.04714805 0 1339
0.03550000 0.03553350 53027.79946796 0 2786.28410666 0 15936.72928122 0 2254.10388658 0 6580.18298880 0 1365
0.03650000 0.03647120 50046.79745703 0 3223.53021375 0 18605.60245551 0 2202.69508245 0 7917.73089922 0 1308
0.03750000 0.03744890 47754.27260333 0 2355.07241660 0 14199.81368692 0 -987.60376283 0 4226.98179509 0 1579
0.03850000 0.03847530 48501.32235885 0 1891.96135874 0 23441.10815031 0 -1559.33764886 0 5694.70702840 0 1662
0.03950000 0.03950240 48425.25548734 0 -629.88573598 0 23634.54166489 0 -7843.77884175 0 5109.61216801 0 1683
0.04050000 0.04050350 48517.26650659 0 1287.04703692 0 31006.27408265 0 -1915.27967480 0 4666.28735460 0 1822
0.04150000 0.04152450 50159.62444694 0 1263.85051642 0 30616.97114202 0 -4754.34555388 0 1575.01606080 0 1887
0.04250000 0.04250150 49417.00362135 0 552.09933243 0 32839.07600988 0 48.71966860 0 3967.57936924 0 1920
0.04350000 0.04349210 49894.11009778 0 -52.23081353 0 33080.23124443 0 6470.07979080 0 -2456.18488685 0 2005
0.04450000 0.04448520 50082.78251269 0 -720.80502400 0 29861.83858939 0 8296.54834824 0 -26.83344703 0 2151
0.04550000 0.04548030 49371.71781284 0 -244.19680218 0 24873.86698184 0 9966.50959436 0 -4435.13042936 0 2274
0.04650000 0.04648670 46648.03663070 0 3022.94397734 0 19445.99190924 0 6277.74243638 0 -531.05637911 0 2311
0.04750000 0.04749250 44625.78722582 0 3042.29840112 0 18129.38176506 0 3443.49301860 0 -2921.11180598 0 2568
0.04850000 0.04851840 40607.64054914 0 2531.42133399 0 13223.56680766 0 357.68591710 0 945.96296365 0 2493
0.04950000 0.04949480 39671.25403922 0 970.35750969 0 14389.81478081 0 860.67395280 0 966.04262471 0 2644
0.05050000 0.05050630 38292.08525981 0 1169.82433406 0 11353.00825280 0 3809.45549850 0 -363.08921162 0 2829
0.05150000 0.05149060 38115.37095571 0 -245.51219437 0 10076.76780490 0 -1228.17548586 0 -2142.36198451 0 2784
0.05250000 0.05249300 37507.72176966 0 850.62581803 0 10325.88404100 0 1630.70985464 0 2144.84218527 0 3055
0.05350000 0.05348950 36909.26261321 0 1024.13468410 0 11712.63736291 0 562.42648979 0 1426.10436432 0 3009
0.05450000 0.05448610 36658.14228633 0 -75.84232476 0 10877.39654021 0 2030.34327432 0 1566.63431092 0 3336
0.05550000 0.05550870 35785.53236737 0 900.07039174 0 11583.97694852 0 1265.04632750 0 1988.55632045 0 3349
0.05650000 0.05647670 35804.68748930 0 2461.48853043 0 12491.46469065 0 -150.23483930 0 2397.99981992 0 3324
0.05750000 0.05747970 33450.15761662 0 1704.36295933 0 12992.26594220 0 -2389.72879328 0 3632.87406230 0 3639
0.05850000 0.05849280 33417.05136541 0 1084.03596137 0 14336.99979142 0 -263.31095651 0 6056.80526695 0 3846
0.05950000 0.05951020 31858.17875419 0 -1023.28986572 0 14369.66314964 0 750.70694440 0 5482.45056163 0 3787
0.06050000 0.06049470 33082.55643264 0 558.39616356 0 16293.92247987 0 2272.09641441 0 2799.38266692 0 3930
0.06150000 0.06148310 31846.10992014 0 1004.15356673 0 14341.87161434 0 2541.17605215 0 4218.95435960 0 4083
0.06250000 0.06249100 31310.09867567 0 -137.91244901 0 14120.75728772 0 1061.99206989 0 3745.03671271 0 4303
0.06350000 0.06350600 31165.27266704 0 -1480.32553895 0 12729.96256725 0 1704.88335860 0 4216.70667766 0 4470
0.06450000 0.06451750 33372.20844990 0 -463.58163167 0 13667.67775614 0 1920.66082467 0 793.87129547 0 4479
0.06550000 0.06550280 32419.98851549 0 512.70621519 0 10792.56038745 0 -409.38038722 0 1753.86732360 0 4636
0.06650000 0.06648880 32406.92317221 0 1710.07627894 0 11482.22228343 0 -610.98306305 0 765.16961508 0 4653
0.06750000 0.06749660 30846.83260526 0 1016.83137865 0 11619.07621819 0 -1863.90408765 0 517.22150925 0 5220
0.06850000 0.06852730 29859.51340118 0 973.73456876 0 10921.66369484 0 1158.26482695 0 -2111.31518572 0 5029
0.06950000 0.06949320 29345.97897609 0 79.28072451 0 11938.62351246 0 720.32227063 0 -2702.59947568 0 5040
0.07050000 0.07048030 29429.24285873 0 -117.56373046 0 10104.73649739 0 604.40388764 0 -2921.54362665 0 5475
0.07150000 0.07148790 29709.04050690 0 45.79613196 0 10700.89261028 0 -295.74733207 0 -1446.27814014 0 5509
0.07250000 0.07249820 29324.94155894 0 655.82487133 0 10944.50590094 0 640.60042471 0 -1278.41062356 0 5916
0.07350000 0.07351270 29147.00929910 0 681.57799163 0 10609.09196521 0 1021.89032386 0 1096.92304023 0 5721
0.07450000 0.07449140 29219.97591966 0 95.44045041 0 10799.84597718 0 874.29734126 0 -414.11602054 0 6028
0.07550000 0.07549160 28610.00154540 0 -212.91084117 0 10845.84041448 0 1472.96244295 0 -1847.84921666 0 6183
0.07650000 0.07648840 28772.21110399 0 1040.64573487 0 11097.12682624 0 -985.28632524 0 -626.46328038 0 6330
0.07750000 0.07749960 27992.83016001 0 723.63953915 0 10619.69925238 0 -303.67290217 0 855.85970597 0 6583
0.07850000 0.07848650 27101.95090510 0 -24.76325446 0 9903.76272961 0 1399.91831612 0 81.65219504 0 6549
0.07950000 0.07947320 26934.98024683 0 537.09965400 0 9326.36313497 0 1939.79380195 0 -1061.01549084 0 6828
0.08050000 0.08048110 26093.04066762 0 1111.78320737 0 8282.42006177 0 1735.45404742 0 -265.95059875 0 7147
0.08150000 0.08149960 24856.37270863 0 1625.05189666 0 8056.07959782 0 241.16077071 0 639.16323695 0 7386
0.08250000 0.08250610 23638.52770182 0 1408.78724830 0 7601.46101310 0 1076.61971821 0 1673.40473914 0 7227
0.08350000 0.08350160 22794.59510415 0 931.66859231 0 8079.82973456 0 181.31817677 0 1206.54016316 0 7798
0.08450000 0.08449610 21959.85253607 0 340.00452160 0 8410.25005180 0 -369.48237197 0 -1.26753760 0 7371
0.08550000 0.08548940 22006.13485381 0 -104.12580344 0 8129.66626857 0 39.69838124 0 -367.68644088 0 8256
0.08650000 0.08650700 21966.27448446 0 545.64084537 0 8271.40309857 0 -633.33365793 0 -510.90917687 0 8037
0.08750000 0.08749060 21412.99041328 0 689.00087819 0 8411.05833151 0 133.17238676 0 -819.08076462 0 8155
0.08850000 0.08849210 20667.38005999 0 373.26024919 0 6760.47365382 0 307.27472944 0 -1063.07937219 0 8718
0.08950000 0.08949900 20465.08868555 0 676.01082671 0 7284.24997937 0 680.97233546 0 -2376.46414815 0 8571
0.09050000 0.09049190 19922.87693918 0 627.11211861 0 7111.87602659 0 368.44268067 0 -2540.46742336 0 8932
0.09150000 0.09150830 19185.57082951 0 330.33063141 0 6331.95253869 0 22.09382767 0 -1556.92388205 0 9285
0.09250000 0.09250820 19021.14680595 0 -78.38010161 0 6770.50518011 0 221.73437682 0 -1637.02107979 0 9204
0.09350000 0.09350330 19544.42487688 0 -419.90131026 0 7461.05286207 0 -123.31248151 0 -2895.37972310 0 9349
0.09450000 0.09448040 19498.03183589 0 44.19164137 0 6914.32360718 0 308.43178738 0 -2544.54203890 0 9564
0.09550000 0.09549270 18981.50788310 0 773.36756438 0 7186.93531654 0 -274.05664775 0 -2671.25372412 0 10155
0.09650000 0.09649430 18578.69670620 0 851.00227707 0 7318.71812653 0 -477.26370345 0 -1914.85892646 0 9913
0.09750000 0.09749140 18023.30889330 0 849.24177743 0 7892.30884143 0 399.69874640 0 -2356.36787861 0 10476
0.09850000 0.09850240 17048.94430926 0 637.11264239 0 7460.59889675 0 572.30853969 0 -91.59303898 0 10575
0.09950000 0.09950330 17202.40673124 0 71.27665162 0 7690.05068397 0 989.55802816 0 -1281.22299406 0 10882
0.10050000 0.10051200 17124.45756452 0 -197.63767632 0 8034.11210538 0 669.59773618 0 186.78679799 0 10875
0.10150000 0.10150300 17117.26055339 0 198.37620038 0 7921.09688596 0 1038.77229751 0 31.97133791 0 11118
0.10250000 0.10250800 16970.66297279 0 317.01616081 0 8106.64690527 0 -1.76013426 0 1335.05663733 0 11575
0.10350000 0.10349800 16876.32676533 0 300.76309521 0 8185.67008750 0 451.44525644 0 1709.24585458 0 11364
0.10450000 0.10450100 16390.03025930 0 218.90207613 0 7950.64892090 0 706.75977996 0 1946.21575035 0 12093
0.10550000 0.10551000 16536.29567015 0 283.31754023 0 7990.30998840 0 811.32017216 0 2151.19769972 0 12067
0.10650000 0.10649700 15961.86345856 0 279.26285488 0 7210.98440604 0 511.62555629 0 2094.26380550 0 12054
0.10750000 0.10749900 16040.47696477 0 279.95487518 0 7819.05434043 0 322.66526094 0 1831.25180176 0 12807
0.10850000 0.10850100 15591.05130038 0 283.35740060 0 7112.39642586 0 -29.80570190 0 1914.06171907 0 12736
0.10950000 0.10950300 15318.00777036 0 527.31393333 0 7304.25767031 0 73.02563605 0 1764.97286539 0 12933
0.11050000 0.11050200 14882.53323524 0 383.25855851 0 6593.77980368 0 112.38631137 0 2093.55517671 0 13428
0.11150000 0.11150900 14792.51523446 0 85.33529316 0 6508.41217932 0 948.91705991 0 1092.29702292 0 13453
0.11250000 0.11250000 14521.90761590 0 47.06557400 0 6078.13056455 0 459.67199378 0 651.53323823 0 13668
0.11350000 0.11349100 14489.35498093 0 286.53072889 0 5627.88554812 0 266.57064894 0 -170.56694937 0 13791
0.11450000 0.11448600 14026.31035701 0 304.61183532 0 5473.51519550 0 -114.14127486 0 -154.44785890 0 14205
0.11550000 0.11549300 13874.17661400 0 56.65033198 0 4992.33410353 0 231.48134436 0 166.42479265 0 14776
0.11650000 0.11649800 14019.11334588 0 -147.46897256 0 4879.45175200 0 1034.13077895 0 -213.29505084 0 14553
0.11750000 0.11747300 14209.33588627 0 -245.28189001 0 4175.55084631 0 815.18884245 0 -426.60560294 0 14568
0.11850000 0.11849100 14141.24108863 0 -229.43296426 0 3658.87188097 0 873.71715144 0 -349.51897032 0 16015
0.11950000 0.11950300 14377.85667000 0 -11.34603269 0 3570.00540198 0 533.11693876 0 -48.37044748 0 15270
0.12050000 0.12050700 14272.00524474 0 105.03461986 0 3371.58934123 0 54.43741714 0 328.30328873 0 15999
0.12150000 0.12150000 14157.51740611 0 367.76173269 0 3803.21070731 0 -55.94624284 0 456.93934401 0 15670
0.12250000 0.12250700 13765.66783078 0 447.79360371 0 3572.13128834 0 64.10233875 0 1046.62479027 0 16887
0.12350000 0.12352200 13602.46176296 0 304.11136624 0 3713.41415303 0 -120.97400650 0 1476.80453966 0 16407
0.12450000 0.12449800 13525.50910547 0 -5.31749507 0 4375.25129674 0 -24.82891334 0 1950.10213636 0 16306
0.12550000 0.12549900 13425.74745885 0 257.65189130 0 4286.50661332 0 335.69185108 0 2013.74585942 0 17523
0.12650000 0.12650100 13244.27205507 0 276.15928223 0 4303.49155959 0 35.42158505 0 2295.69153860 0 17154
0.12750000 0.12750600 13187.91392175 0 24.06027255 0 4555.64161268 0 -125.88790426 0 2388.86515195 0 18007
0.12850000 0.12850300 13178.72389215 0 105.84799285 0 4495.30851475 0 220.44334374 0 2282.48225509 0 17496
0.12950000 0.12949900 13000.01656957 0 109.33178913 0 4707.18852248 0 -92.46066635 0 2513.26272129 0 18405
0.13050000 0.13049000 12972.00358778 0 121.71806673 0 4381.68431746 0 72.78082694 0 1431.34157396 0 18100
0.13150000 0.13148800 12845.44691510 0 317.19885417 0 4748.84260844 0 -31.89538177 0 1668.51077157 0 19059
0.13250000 0.13249300 12621.01089103 0 365.95805098 0 4325.28189483 0 19.81326092 0 1692.94739245 0 18957
0.13350000 0.13349100 12396.57486696 0 46.99958294 0 4635.77202740 0 81.61753866 0 1629.80192401 0 19468
0.13450000 0.13450700 12336.78431294 0 46.57728448 0 4330.37516425 0 842.96819819 0 1634.24192626 0 19953
0.13550000 0.13551000 12364.79729473 0 -17.97913032 0 4341.87930973 0 424.61812063 0 993.14989033 0 19956
0.13650000 0.13649900 12262.59973665 0 126.89216412 0 4125.20498536 0 73.00526297 0 835.99595525 0 19723
0.13750000 0.13749600 12055.54726254 0 278.70480971 0 4227.87865340 0 -153.94628258 0 1198.15841328 0 20946
0.13850000 0.13851100 11868.53569636 0 383.13565570 0 4090.44895775 0 25.70694870 0 1109.14799406 0 20955
0.13950000 0.13949800 11656.27922958 0 182.32686556 0 4225.64204379 0 -2.75719711 0 982.58246352 0 20506
0.14050000 0.14048300 11461.07414303 0 139.19573146 0 4054.79607184 0 102.99332606 0 788.57540251 0 21447
0.14150000 0.14148400 11384.34293204 0 202.50617754 0 3981.55264316 0 94.18174852 0 867.49007596 0 21771
0.14250000 0.14249400 11181.49794136 0 84.77326196 0 3731.93815245 0 312.66695162 0 703.66395794 0 22470
0.14350000 0.14350900 11060.78745619 0 3.67491568 0 3567.22624845 0 236.31995030 0 970.68525050 0 22519
0.14450000 0.14449900 11171.31140253 0 42.80881872 0 3380.17039296 0 769.96061003 0 671.31283929 0 22218
0.14550000 0.14550500 11129.01512172 0 -9.72103615 0 3360.31771456 0 159.52009089 0 1040.23938055 0 23559
0.14650000 0.14650700 11126.24704051 0 83.57767232 0 3385.10864983 0 122.76993759 0 1389.21137802 0 23044
0.14750000 0.14750500 10949.90919545 0 328.18370762 0 3454.88644084 0 -62.60857141 0 1339.33055471 0 23649
0.14850000 0.14849900 10758.20296354 0 292.38023809 0 3728.07391109 0 -251.80348933 0 1531.16965452 0 23640
0.14950000 0.14949500 10651.88650063 0 133.39936942 0 3736.86533699 0 -15.15856629 0 1482.73930576 0 24457
0.15050000 0.15050000 10367.46062069 0 105.58757177 0 3692.52067610 0 104.04674704 0 1286.94738600 0 24591
0.15150000 0.15149900 10501.02607498 0 158.88786115 0 3636.61650809 0 166.90200985 0 753.36208789 0 25020
0.15250000 0.15250500 10126.23895219 0 410.49094140 0 3604.20781334 0 -236.58347163 0 584.52795736 0 25297
0.15350000 0.15350100 9726.70518344 0 395.37832525 0 3208.58257525 0 108.14837905 0 553.05265960 0 25452
0.15450000 0.15450400 9461.14654499 0 212.15017246 0 2986.30565451 0 465.15722349 0 548.70123595 0 26061
0.15550000 0.15549900 9416.48078667 0 -67.96790879 0 2569.70943321 0 628.66002962 0 347.01330321 0 26128
0.15650000 0.15649500 9320.71624931 0 -49.56116529 0 2396.15074168 0 782.07041168 0 -0.18285723 0 26331
0.15750000 0.15749700 9309.06816360 0 -63.61515646 0 1863.71585812 0 499.10607862 0 -25.40057747 0 27345
0.15850000 0.15849900 9327.49251210 0 50.00051514 0 1825.25060170 0 212.76800818 0 175.59932100 0 26980
0.15950000 0.15949700 9245.23621102 0 57.38642013 0 1692.46021015 0 -58.87697650 0 298.20206648 0 27777
0.16050000 0.16050000 9281.98525710 0 271.64730987 0 2119.37583819 0 -393.56467845 0 119.29212036 0 28224
0.16150000 0.16150500 8982.21313496 0 328.87572793 0 2166.21177217 0 -264.88654833 0 440.95644314 0 28075
0.16250000 0.16249700 8814.15738886 0 243.90781450 0 2314.86880518 0 -183.14953929 0 519.45479717 0 28590
0.16350000 0.16349900 8565.48404576 0 219.50773230 0 2464.43376884 0 -27.92451392 0 449.56406845 0 29163
0.16450000 0.16449100 8644.72867448 0 52.41992884 0 2469.21701316 0 -22.18218482 0 574.31152325 0 28996
0.16550000 0.16550500 8457.84997619 0 -9.93859626 0 2391.15712319 0 164.62664710 0 486.07727400 0 30777
0.16650000 0.16650700 8608.47788303 0 -31.85253187 0 2534.75410376 0 178.66303327 0 278.00060985 0 29211
0.16750000 0.16749900 8531.49200856 0 -13.25102617 0 2221.06406932 0 59.15002003 0 132.24120424 0 30922
0.16850000 0.16850800 8644.50722799 0 168.42777621 0 2219.80182429 0 -255.06428899 0 60.01687234 0 30867
0.16950000 0.16949900 8552.36334085 0 104.22456858 0 2516.96087777 0 -227.79426019 0 318.57403691 0 30852
0.17050000 0.17049200 8540.85919536 0 114.00951419 0 2466.22748546 0 -66.90551923 0 429.97823308 0 31257
0.17150000 0.17149500 8480.37108487 0 100.18283785 0 2687.30859511 0 130.01677418 0 453.07178095 0 32608
0.17250000 0.17250900 8413.64925552 0 35.86148852 0 2596.88091832 0 182.52948910 0 320.73424749 0 32361
0.17350000 0.17350400 8316.83284730 0 84.03329849 0 2444.93540483 0 233.37249744 0 608.02675232 0 32508
0.17450000 0.17449800 8309.10436458 0 120.99947285 0 2533.30362921 0 196.64448878 0 318.70911928 0 32791
0.17550000 0.17549800 8198.34789942 0 101.81024815 0 2464.65521533 0 -63.19307944 0 376.93183210 0 33633
0.17650000 0.17650100 8069.89785920 0 186.78679799 0 2277.84295099 0 -93.17361335 0 94.43951225 0 33984
0.17750000 0.17750300 7981.58499644 0 24.27031456 0 2168.48159876 0 -74.48419339 0 222.62791343 0 34069
0.17850000 0.17849800 7941.29280643 0 88.77358219 0 2177.89307485 0 221.92703527 0 163.51055676 0 34536
