### header ###
fiducial parameters:
Omega_m = 0.31
Omega_nu = 0
Omega_de = 0.69
Omega_k = 0
H_0 = 100
w_de = -1
zeff = 0
beta = 0
fgrowth = 0
b_1 = 2
gamma = 0.55
Lx = 3500 Ly = 3500 Lz = 3500
nx = 700 ny = 700 nz = 700
xoffset = -685.467585 yoffset = -31.7331281 zoffset = 572.489161
bins = 400 dk = 0.001
kx_ny = 0.628318531 ky_ny = 0.628318531 kz_ny = 0.628318531
############################
A(data) = 8.0845393 (not used)
A(ran) = 8.08368449 (used)
Ngal = 480360
weighted Ngal = 0
Nran = 23820508
weighted Nran = 0
SN(data) = 3486.91612
SN(ran) = 70.4118236
SN(data+ran) = 3557.32795
############################
13 columns: k_central k_mean P_0(k) sigma^{lin}_{P_0(k)} P^img_1(k) sigma^{lin}_{P_1(k)} P_2(k) sigma^{lin}_{P_2(k)} P^img_3(k) sigma^{lin}_{P_3(k)} P_4(k) sigma^{lin}_{P_4(k)} N_modes
### header ###
0.00050000 0 0 0 0 0 0 0 0 0 0 0 0
0.00150000 0.00179520 9682.74805391 0 -15578.09668035 0 13169.86603229 0 -50311.97963644 0 -8955.55097679 0 3
0.00250000 0.00253879 19828.76217822 0 -13389.20878695 0 -3031.42537815 0 -4021.28014461 0 25062.98228974 0 6
0.00350000 0.00331552 31275.99591523 0 -4333.28718568 0 26639.34917417 0 -40464.03249624 0 -35625.20510399 0 7
0.00450000 0.00420575 34533.03098388 0 8965.21711636 0 28341.27622205 0 -8680.31512645 0 36368.82243881 0 24
0.00550000 0.00557378 33830.82414388 0 96.85538280 0 43864.01127830 0 15837.85342059 0 18658.52816814 0 45
0.00650000 0.00659388 24708.11427931 0 -520.59635386 0 43621.74881127 0 14667.17651752 0 13948.36119029 0 40
0.00750000 0.00754703 57888.55006334 0 -8870.43801591 0 62198.23105250 0 26066.46708806 0 -26418.34557079 0 57
0.00850000 0.00846663 51298.63450103 0 -7677.07391928 0 45149.06529675 0 14920.28986287 0 3582.04101905 0 75
0.00950000 0.00948925 59658.23973911 0 14481.82580005 0 41841.98331992 0 -2045.68951652 0 4541.22544577 0 112
0.01050000 0.01054430 62649.64973536 0 -6365.61240614 0 44147.35207041 0 3883.23039877 0 -4428.01092450 0 105
0.01150000 0.01145670 64995.10030169 0 -11328.42769170 0 38340.24987277 0 8045.98163759 0 -8912.09210188 0 144
0.01250000 0.01249090 72502.69014498 0 -2748.11780301 0 30796.89642033 0 15509.66971297 0 -7984.36414997 0 169
0.01350000 0.01339930 78675.62195462 0 4465.19179124 0 32464.60998451 0 29078.58233172 0 -30263.98542681 0 180
0.01450000 0.01448870 76792.55167271 0 -9044.08528604 0 21135.73939982 0 20540.71266406 0 -22193.81075949 0 267
0.01550000 0.01550050 72208.71992104 0 8643.76538222 0 7318.18665494 0 9044.43960044 0 -2532.40677090 0 238
0.01650000 0.01653350 65010.26938670 0 11232.09846578 0 14402.21578461 0 5341.47772204 0 -7518.49608323 0 315
0.01750000 0.01747870 62544.46264958 0 1403.89328073 0 18937.55075357 0 1835.06068149 0 11531.93702187 0 297
0.01850000 0.01844180 60086.07437010 0 -4678.13474215 0 18402.31457184 0 4907.30972125 0 2873.29043509 0 388
0.01950000 0.01947590 71755.52966622 0 -8789.53253846 0 29083.67560114 0 -4046.33681568 0 -368.61651616 0 399
0.02050000 0.02045430 73920.50133801 0 3345.79082440 0 28143.41377754 0 -4858.10430975 0 -1892.68105985 0 462
0.02150000 0.02154770 70314.35586782 0 6544.22007779 0 35840.00820548 0 -20737.02498310 0 5391.42497929 0 571
0.02250000 0.02255340 69078.68441806 0 10641.69996180 0 37372.30723713 0 -7839.33883950 0 10347.92903971 0 510
0.02350000 0.02348930 68819.14912431 0 -4152.67542323 0 47331.86341150 0 2657.59047530 0 -2478.37382578 0 555
0.02450000 0.02439640 68416.89156365 0 -7320.79972359 0 24589.86185024 0 10416.38922406 0 -7389.43706514 0 592
0.02550000 0.02547300 77090.06504059 0 -2155.52697872 0 34197.53954188 0 10269.60341394 0 -21645.95212746 0 837
0.02650000 0.02652900 74961.52131745 0 2807.53189799 0 24076.10597866 0 12167.70991295 0 -29864.71739385 0 723
0.02750000 0.02749970 68925.66488907 0 8376.24694228 0 22382.81534414 0 1944.32238280 0 -12270.90398026 0 826
0.02850000 0.02848090 62932.10474148 0 8704.78496430 0 17011.63057462 0 8659.83132554 0 -8074.72539282 0 831
0.02950000 0.02946900 56220.94722241 0 6545.81449256 0 19825.55120403 0 10737.05482314 0 -2723.30472309 0 996
0.03050000 0.03053250 51432.27746159 0 4300.80098466 0 15196.76581359 0 11098.01261223 0 2560.40868036 0 1041
0.03150000 0.03150510 51244.15866292 0 -4003.89659465 0 12722.32266312 0 12445.73598915 0 5747.93169380 0 1036
0.03250000 0.03246190 52259.38012554 0 -4978.49369751 0 9849.66335055 0 5449.36645507 0 2760.23092637 0 1059
0.03350000 0.03345080 57942.25083871 0 -1180.85236958 0 11869.97509858 0 -299.23732885 0 2061.30149451 0 1302
0.03450000 0.03451200 54744.89560083 0 3642.79486533 0 11151.27049460 0 -9730.13760413 0 -1847.94886758 0 1339
0.03550000 0.03553350 53103.53416972 0 2275.20773768 0 8678.07851684 0 -8372.00624187 0 -1735.52048137 0 1365
0.03650000 0.03647120 52341.64749895 0 628.70210446 0 18015.89043567 0 -5032.39377472 0 -6077.65445458 0 1308
0.03750000 0.03744890 51728.90504348 0 1717.33972402 0 15469.14500413 0 -1440.50945891 0 -6560.58497387 0 1579
0.03850000 0.03847530 50902.13454927 0 1397.01736702 0 20920.93629834 0 -2028.67135327 0 -11395.52598010 0 1662
0.03950000 0.03950240 48352.39959004 0 3622.99754856 0 21138.39675777 0 66.08450634 0 -8350.53700405 0 1683
0.04050000 0.04050350 47424.09587724 0 3239.88403751 0 25712.81703335 0 -516.31468585 0 -4398.71355303 0 1822
0.04150000 0.04152450 44557.13881195 0 1104.67588206 0 25637.30377809 0 4459.42311001 0 78.39327767 0 1887
0.04250000 0.04250150 44227.29425560 0 116.69455296 0 23192.86662787 0 7718.82765617 0 111.73193698 0 1920
0.04350000 0.04349210 44484.39363789 0 -769.66940789 0 22532.84534543 0 5122.24569063 0 229.41857024 0 2005
0.04450000 0.04448520 44651.03212641 0 1147.24786376 0 18610.25283193 0 1524.62591055 0 825.79059346 0 2151
0.04550000 0.04548030 42904.81577926 0 1601.98824406 0 19732.21150581 0 -1933.30541961 0 -2481.30799186 0 2274
0.04650000 0.04648670 41312.61547034 0 3004.98466648 0 17941.81658263 0 -3502.68566708 0 -588.48299179 0 2311
0.04750000 0.04749250 39935.55043265 0 1708.99119111 0 19614.84486273 0 667.08653291 0 -944.56563626 0 2568
0.04850000 0.04851840 39707.23909488 0 -1937.92257906 0 17738.63942221 0 5191.91275839 0 -2436.06647265 0 2493
0.04950000 0.04949480 41037.24675210 0 -2051.32532985 0 16490.45624540 0 4072.95468454 0 -5645.76735270 0 2644
0.05050000 0.05050630 41295.34264362 0 326.65019064 0 14199.26007068 0 3419.73180954 0 -9554.18729044 0 2829
0.05150000 0.05149060 40471.11878412 0 2286.15826693 0 13689.93312902 0 -176.18283251 0 -7927.91743805 0 2784
0.05250000 0.05249300 37242.87176000 0 3504.99978297 0 14175.23312582 0 -1789.34305232 0 -3063.91157917 0 3055
0.05350000 0.05348950 34517.19755939 0 1924.74651252 0 11691.26777601 0 4380.90925472 0 -3484.71528390 0 3009
0.05450000 0.05448610 34456.85338913 0 -221.37563349 0 9530.30428580 0 2578.65587166 0 -6587.03675786 0 3336
0.05550000 0.05550870 34727.23956120 0 -732.21284026 0 11217.04010403 0 2585.43213445 0 -6348.26207315 0 3349
0.05650000 0.05647670 33412.95460523 0 1426.66905288 0 9440.74025035 0 353.66777043 0 -3089.32256462 0 3324
0.05750000 0.05747970 32839.51890287 0 2087.33253016 0 9199.08676118 0 -106.10232415 0 -593.31495434 0 3639
0.05850000 0.05849280 31622.22751231 0 270.85120971 0 10620.19750700 0 187.77334213 0 2792.72819971 0 3846
0.05950000 0.05951020 32138.97291160 0 -932.22774471 0 11826.12869230 0 1940.67958794 0 2402.50625612 0 3787
0.06050000 0.06049470 32811.17375134 0 -486.76265091 0 11019.25516579 0 2706.43050007 0 3176.91572627 0 3930
0.06150000 0.06148310 33477.17408918 0 -1135.13474041 0 10585.99509564 0 3118.78602097 0 3092.78820229 0 4083
0.06250000 0.06249100 34286.00741718 0 -802.75240721 0 7530.40990473 0 2533.10432736 0 3109.86172716 0 4303
0.06350000 0.06350600 35058.74496627 0 483.72661944 0 7630.60337202 0 -1022.20367065 0 389.08924475 0 4470
0.06450000 0.06451750 32975.37632840 0 2693.21014424 0 7849.65824623 0 -2303.76326339 0 2792.03064324 0 4479
0.06550000 0.06550280 31077.24768474 0 2192.45318199 0 8431.88537449 0 -2115.32336730 0 -317.02612590 0 4636
0.06650000 0.06648880 29760.08392431 0 941.67354501 0 9683.05807900 0 45.53216774 0 2308.88974978 0 4653
0.06750000 0.06749660 29770.71335614 0 -107.62676183 0 8687.50106526 0 475.51427613 0 -1920.37294422 0 5220
0.06850000 0.06852730 29951.19225068 0 136.69670775 0 10838.75412660 0 785.82614426 0 1008.93791829 0 5029
0.06950000 0.06949320 29245.99588298 0 562.71547747 0 8911.18417124 0 260.75657118 0 -302.96427339 0 5040
0.07050000 0.07048030 29015.02718726 0 794.54338559 0 9816.87819676 0 1006.35806660 0 1196.59721548 0 5475
0.07150000 0.07148790 28190.69260451 0 367.71965785 0 8742.09869894 0 1063.78689374 0 39.71122513 0 5509
0.07250000 0.07249820 28624.28484441 0 5.24844805 0 8767.97472204 0 2013.76800407 0 -434.09381621 0 5916
0.07350000 0.07351270 28115.62224224 0 -562.93249503 0 8872.81856575 0 444.07773150 0 175.23725597 0 5721
0.07450000 0.07449140 28414.57501235 0 434.29976145 0 9128.44532884 0 82.86140363 0 842.38690113 0 6028
0.07550000 0.07549160 27527.34962463 0 1442.71285154 0 8545.35455924 0 -580.03591518 0 756.08255810 0 6183
0.07650000 0.07648840 27803.27195911 0 1021.90914681 0 10421.38284256 0 -1593.04180561 0 3042.44234134 0 6330
0.07750000 0.07749960 25663.76663440 0 549.90479765 0 11061.07533663 0 -151.69970788 0 2378.65646846 0 6583
0.07850000 0.07848650 26613.66138059 0 851.70094077 0 11279.26656951 0 -1136.59628728 0 1664.13720327 0 6549
0.07950000 0.07947320 25367.24977576 0 860.12808719 0 12148.00117478 0 -1118.54839783 0 731.90060070 0 6828
0.08050000 0.08048110 25254.86567885 0 936.20381655 0 11837.09029387 0 -1020.14089654 0 914.15771061 0 7147
0.08150000 0.08149960 23860.41709119 0 159.47358713 0 11325.32744075 0 560.32164084 0 -1600.52669718 0 7386
0.08250000 0.08250610 23847.35174790 0 249.47165772 0 10483.39893387 0 1129.98610937 0 -2207.83264116 0 7227
0.08350000 0.08350160 23688.57461000 0 94.94341375 0 9855.74205687 0 2348.87191470 0 -3534.25286514 0 7798
0.08450000 0.08449610 22951.04705383 0 356.49010602 0 8123.35504342 0 1704.90550325 0 -3260.10210263 0 7371
0.08550000 0.08548940 22901.33231540 0 355.90327281 0 8035.20826554 0 1496.62400109 0 -600.09896775 0 8256
0.08650000 0.08650700 22617.21646055 0 298.89630125 0 8059.60059712 0 1324.49363946 0 132.01865051 0 8037
0.08750000 0.08749060 22114.64363703 0 274.16737100 0 7660.23291323 0 1652.74378103 0 1027.73651136 0 8155
0.08850000 0.08849210 21907.36971643 0 366.02337769 0 7663.20029628 0 1320.64047042 0 2335.33046145 0 8718
0.08950000 0.08949900 21761.54719857 0 381.21128565 0 7464.15311302 0 447.97297537 0 1325.35728079 0 8571
0.09050000 0.09049190 21128.43166544 0 307.65229571 0 7374.85481336 0 -318.14221625 0 922.16632315 0 8932
0.09150000 0.09150830 20978.18021765 0 437.65799757 0 7275.31461324 0 19.22986013 0 1449.34517411 0 9285
0.09250000 0.09250820 20528.42238351 0 370.85866194 0 7035.27768349 0 -29.57041500 0 357.16551784 0 9204
0.09350000 0.09350330 20570.38649458 0 317.67164244 0 6850.33664205 0 390.40242248 0 112.79709462 0 9349
0.09450000 0.09448040 20095.82665285 0 277.17682888 0 5917.17217866 0 507.40589330 0 -1504.75108750 0 9564
0.09550000 0.09549270 19462.04678023 0 650.86225535 0 5629.91178356 0 -582.76856495 0 -1238.19593982 0 10155
0.09650000 0.09649430 19152.46457830 0 740.63998668 0 6052.59778351 0 -281.12521991 0 -1094.98206169 0 9913
0.09750000 0.09749140 18412.72255717 0 614.78640663 0 5513.09875673 0 -40.94590007 0 -1429.37070014 0 10476
0.09850000 0.09850240 18350.60681494 0 292.91060245 0 6214.67447421 0 -170.26578213 0 -889.60040139 0 10575
0.09950000 0.09950330 18010.68644300 0 346.70659981 0 6372.41081358 0 -173.50886607 0 -1434.85150092 0 10882
0.10050000 0.10051200 17793.77959981 0 399.37432728 0 6321.81028916 0 46.43688740 0 -971.60978963 0 10875
0.10150000 0.10150300 17656.59349530 0 -126.88219903 0 6699.06654038 0 217.35748682 0 -808.01951213 0 11118
0.10250000 0.10250800 17882.80109135 0 -92.79261465 0 6180.99246211 0 498.25572407 0 -640.81301334 0 11575
0.10350000 0.10349800 17483.09016539 0 578.14919103 0 6959.38796919 0 816.00598002 0 -954.20852394 0 11364
0.10450000 0.10450100 17073.19270061 0 667.18507660 0 6338.24161919 0 247.55503830 0 20.49741987 0 12093
0.10550000 0.10551000 16594.86826844 0 408.46359872 0 6140.87742929 0 281.68658678 0 527.90298101 0 12067
0.10650000 0.10649700 16167.36580719 0 426.79936862 0 6380.93650369 0 263.63980456 0 584.02416658 0 12054
0.10750000 0.10749900 15852.57961260 0 400.90562980 0 5844.49343855 0 683.49350382 0 881.80659195 0 12807
0.10850000 0.10850100 15463.71956497 0 211.00861577 0 6000.87895429 0 678.10792503 0 845.14058831 0 12736
0.10950000 0.10950300 15182.15034483 0 245.52548116 0 5732.24220954 0 548.81860259 0 1289.66010558 0 12933
0.11050000 0.11050200 15107.30142906 0 -23.63819553 0 5435.71427857 0 711.59949314 0 1349.02991125 0 13428
0.11150000 0.11150900 14984.50934682 0 100.71054485 0 4975.31594028 0 989.38751435 0 713.88703545 0 13453
0.11250000 0.11250000 14916.30382594 0 -67.95993672 0 4969.54725905 0 183.15175376 0 959.65389329 0 13668
0.11350000 0.11349100 14950.40658638 0 301.33885610 0 4741.49058476 0 -281.70208804 0 165.04185928 0 13791
0.11450000 0.11448600 14916.41454918 0 -81.82470186 0 5155.87234110 0 -502.44992071 0 1233.47912945 0 14205
0.11550000 0.11549300 14889.50879987 0 -1.54132298 0 4705.50552910 0 -294.43193988 0 428.50561388 0 14776
0.11650000 0.11649800 15159.56280220 0 -80.37843479 0 5146.74874545 0 381.62760506 0 426.77722397 0 14553
0.11750000 0.11747300 15137.19670607 0 63.92507083 0 4811.09121857 0 298.30282464 0 -24.27706867 0 14568
0.11850000 0.11849100 14861.60654133 0 233.85967973 0 4691.35509799 0 776.80552123 0 396.91073501 0 16015
0.11950000 0.11950300 14683.34211175 0 365.94033526 0 4424.70029938 0 188.09111786 0 195.74763047 0 15270
0.12050000 0.12050700 14537.74104039 0 566.26305034 0 4925.56798487 0 -156.20171515 0 443.15429961 0 15999
0.12150000 0.12150000 13948.36119029 0 346.93911863 0 4972.90217347 0 -388.59874077 0 382.56210927 0 15670
0.12250000 0.12250700 13629.69968201 0 476.87838654 0 4943.20619831 0 -132.43607716 0 977.09059041 0 16887
0.12350000 0.12352200 13488.97043356 0 58.29800464 0 4873.33982870 0 296.62536743 0 885.57893302 0 16407
0.12450000 0.12449800 13544.44278091 0 -350.52655188 0 5034.50858876 0 302.86130076 0 84.89572187 0 16306
0.12550000 0.12549900 13781.05836228 0 17.21403267 0 4828.54120249 0 598.53998442 0 34.33162540 0 17523
0.12650000 0.12650100 13613.86625752 0 205.90870295 0 4767.69877761 0 83.84207944 0 -241.15191285 0 17154
0.12750000 0.12750600 13314.02770143 0 177.85807526 0 4181.44132311 0 24.85371535 0 39.07556296 0 18007
0.12850000 0.12850300 13470.14748137 0 65.55812802 0 4571.77398994 0 -98.24972066 0 -364.78549178 0 17496
0.12950000 0.12949900 13246.15435029 0 254.13532094 0 4220.02837511 0 110.18435814 0 -337.94285472 0 18405
0.13050000 0.13049000 13033.78716027 0 275.86918732 0 4206.35405395 0 314.12406957 0 -111.51270495 0 18100
0.13150000 0.13148800 12788.53516554 0 67.27068450 0 4217.59246365 0 -107.59598076 0 -515.50751337 0 19059
0.13250000 0.13249300 12796.17506966 0 121.10355270 0 4029.28543545 0 144.62670678 0 -459.69856736 0 18957
0.13350000 0.13349100 12538.30062464 0 300.41431698 0 4204.50497571 0 89.23906272 0 -720.77845042 0 19468
0.13450000 0.13450700 12509.73402660 0 46.30634469 0 4140.36299803 0 347.53923864 0 -237.70841983 0 19953
0.13550000 0.13551000 12344.31349381 0 1.31593473 0 3802.90068221 0 43.35800603 0 -427.14150346 0 19956
0.13650000 0.13649900 12361.91849027 0 294.63677789 0 3965.76350797 0 121.76235603 0 -827.10266395 0 19723
0.13750000 0.13749600 12067.83754309 0 484.33116838 0 4054.45282977 0 -236.07746639 0 -439.85363958 0 20946
0.13850000 0.13851100 11519.53601807 0 391.04683178 0 4049.39277732 0 69.34198430 0 -326.73101861 0 20955
0.13950000 0.13949800 11306.50448856 0 258.95621116 0 3990.11155025 0 440.36185929 0 83.27052603 0 20506
0.14050000 0.14048300 11355.99778050 0 132.24563317 0 3641.02329336 0 360.54589860 0 -671.73358763 0 21447
0.14150000 0.14148400 11031.95512236 0 7.87878953 0 3352.20170047 0 632.38033076 0 -86.20402777 0 21771
0.14250000 0.14249400 11057.59862664 0 122.44662570 0 3049.93830525 0 248.14851491 0 -36.73509494 0 22470
0.14350000 0.14350900 10919.68174870 0 86.44507228 0 2930.74472857 0 316.15473394 0 -313.90151584 0 22519
0.14450000 0.14449900 10892.06737060 0 -88.57627336 0 2472.52763828 0 444.47633519 0 -464.37330289 0 22218
0.14550000 0.14550500 10853.40281233 0 18.58168623 0 2358.63770519 0 440.98966011 0 -230.81257594 0 23559
0.14650000 0.14650700 10737.34270358 0 220.23296957 0 1993.47243267 0 355.62203576 0 -500.66727642 0 23044
0.14750000 0.14750500 10462.53867391 0 252.50436749 0 1799.38565093 0 412.18832879 0 -236.49157134 0 23649
0.14850000 0.14849900 10288.12741337 0 317.04827055 0 1652.76592568 0 131.17715382 0 85.54168130 0 23640
0.14950000 0.14949500 10141.68484531 0 164.08631765 0 1792.24400142 0 135.08568448 0 131.73187730 0 24457
0.15050000 0.15050000 10018.88169075 0 132.65752365 0 1801.45617567 0 -102.05705027 0 376.57419601 0 24591
0.15150000 0.15149900 9855.33238085 0 153.80898575 0 2168.30444156 0 -236.12064846 0 238.37718825 0 25020
0.15250000 0.15250500 9872.56091827 0 203.26241732 0 2474.12205305 0 -621.12974151 0 637.67068756 0 25297
0.15350000 0.15350100 9675.77248927 0 284.00070267 0 3009.43574106 0 -139.53565183 0 951.15809845 0 25452
0.15450000 0.15450400 9717.26049037 0 115.03038254 0 2792.27423439 0 21.62303242 0 1043.60979622 0 26061
0.15550000 0.15549900 9487.83084780 0 26.62528732 0 3023.55295520 0 86.64703148 0 634.34788288 0 26128
0.15650000 0.15649500 9628.57116857 0 31.46001795 0 2804.34306844 0 469.32484655 0 493.12591598 0 26331
0.15750000 0.15749700 9464.77826753 0 140.19999132 0 2731.32108626 0 -89.32465180 0 403.05587528 0 27345
0.15850000 0.15849900 9468.56500261 0 108.80175694 0 2591.64370868 0 48.20502695 0 408.20229186 0 26980
0.15950000 0.15949700 9365.66988807 0 17.11726055 0 2548.51700351 0 -16.74124440 0 240.48646613 0 27777
0.16050000 0.16050000 9225.46103890 0 124.73638248 0 2380.92629505 0 298.12788190 0 368.65084037 0 28224
0.16150000 0.16150500 9143.29331642 0 179.63629063 0 2479.96824056 0 356.75473459 0 367.18818626 0 28075
0.16250000 0.16249700 9104.18586516 0 10.69566647 0 2312.54361697 0 211.78367850 0 544.59451067 0 28590
0.16350000 0.16349900 8935.78687699 0 180.37038576 0 2528.85255463 0 182.49737936 0 533.65948268 0 29163
0.16450000 0.16449100 8803.62760796 0 303.05949538 0 2392.61867006 0 112.48042614 0 1097.33603794 0 28996
0.16550000 0.16550500 8660.41815875 0 68.81361296 0 2482.30450109 0 79.66570924 0 1356.68088770 0 30777
0.16650000 0.16650700 8772.06040990 0 20.48247224 0 2555.33755560 0 297.63737791 0 1269.65241463 0 29211
0.16750000 0.16749900 8567.21132843 0 -32.77397074 0 2343.34682462 0 255.27023423 0 894.01936623 0 30922
0.16850000 0.16850800 8603.51748151 0 159.95634049 0 2185.82085942 0 -145.01202368 0 773.48050209 0 30867
0.16950000 0.16949900 8419.60616627 0 203.20373400 0 2129.36307517 0 -347.20042550 0 286.36464402 0 30852
0.17050000 0.17049200 8260.33077375 0 200.81321907 0 2130.39280138 0 -356.79127326 0 482.51087818 0 31257
0.17150000 0.17149500 8107.28910011 0 224.72058282 0 2230.23195427 0 -175.35351539 0 386.19936798 0 32608
0.17250000 0.17250900 8063.11052408 0 -19.51641190 0 2167.78404229 0 156.32793965 0 169.27370183 0 32361
0.17350000 0.17350400 7978.94978314 0 -47.94814901 0 1976.15531666 0 266.00817484 0 -77.65785386 0 32508
0.17450000 0.17449800 8109.73608390 0 39.52908539 0 2077.55566735 0 343.32732628 0 118.93337704 0 32791
0.17550000 0.17549800 8001.30480695 0 83.39431462 0 1841.94766753 0 273.05349512 0 345.46539220 0 33633
0.17650000 0.17650100 8062.16937647 0 94.82914736 0 1879.51606564 0 207.19752156 0 738.10774599 0 33984
0.17750000 0.17750300 7954.95605526 0 82.92274431 0 1752.80438042 0 -25.06453242 0 653.79088526 0 34069
0.17850000 0.17849800 7944.35984040 0 68.26830096 0 1867.36972531 0 -40.07317943 0 402.81006967 0 34536
