### header ###
fiducial parameters:
Omega_m = 0.31
Omega_nu = 0
Omega_de = 0.69
Omega_k = 0
H_0 = 100
w_de = -1
zeff = 0
beta = 0
fgrowth = 0
b_1 = 2
gamma = 0.55
Lx = 3500 Ly = 3500 Lz = 3500
nx = 700 ny = 700 nz = 700
xoffset = -685.467585 yoffset = -31.7331281 zoffset = 572.489161
bins = 400 dk = 0.001
kx_ny = 0.628318531 ky_ny = 0.628318531 kz_ny = 0.628318531
############################
A(data) = 7.99828507 (not used)
A(ran) = 7.99744235 (used)
Ngal = 475371
weighted Ngal = 0
Nran = 23820508
weighted Nran = 0
SN(data) = 3488.57897
SN(ran) = 69.6606233
SN(data+ran) = 3558.23959
############################
13 columns: k_central k_mean P_0(k) sigma^{lin}_{P_0(k)} P^img_1(k) sigma^{lin}_{P_1(k)} P_2(k) sigma^{lin}_{P_2(k)} P^img_3(k) sigma^{lin}_{P_3(k)} P_4(k) sigma^{lin}_{P_4(k)} N_modes
### header ###
0.00050000 0 0 0 0 0 0 0 0 0 0 0 0
0.00150000 0.00179520 293.57604917 0 -6933.63374166 0 -11166.55030285 0 5314.48339413 0 -2602.32850213 0 3
0.00250000 0.00253879 11895.77361541 0 -22245.40779314 0 -25473.43337077 0 22907.42209405 0 2192.50854361 0 6
0.00350000 0.00331552 25509.08625669 0 -31124.96940470 0 -31329.14307436 0 3419.99754533 0 19471.56897958 0 7
0.00450000 0.00420575 51831.32404805 0 -41972.08313654 0 -47069.11714355 0 -23291.96393500 0 -36012.18285641 0 24
0.00550000 0.00557378 89429.28526499 0 -26451.34109875 0 -37426.34018224 0 -56955.15308113 0 -25706.94870120 0 45
0.00650000 0.00659388 101893.62275983 0 -1425.73897760 0 -26126.92198157 0 -99457.48985324 0 -21827.64897773 0 40
0.00750000 0.00754703 85525.18353393 0 24883.38918118 0 -756.23203449 0 -76631.11717686 0 -5980.33979175 0 57
0.00850000 0.00846663 90532.75315641 0 8941.42269032 0 19011.40316011 0 -58995.11820572 0 4620.61401472 0 75
0.00950000 0.00948925 90954.38728551 0 -1200.59432474 0 46172.36955649 0 -24149.40476896 0 -38703.20068033 0 112
0.01050000 0.01054430 85539.57755620 0 -3774.40051813 0 56274.09438154 0 -5788.11316057 0 -26400.29768134 0 105
0.01150000 0.01145670 86595.32372765 0 13317.12795238 0 53774.51705373 0 19540.99245619 0 -28530.72369970 0 144
0.01250000 0.01249090 71754.20098724 0 12052.33628834 0 34771.41813723 0 28390.10517450 0 -15852.57961260 0 169
0.01350000 0.01339930 73224.05210691 0 -2074.85402009 0 27224.30009434 0 35202.68518891 0 -45574.35329304 0 180
0.01450000 0.01448870 58134.68784406 0 7197.34330186 0 14949.96369338 0 17924.32230942 0 -23786.01106841 0 267
0.01550000 0.01550050 51346.57766749 0 9315.02507435 0 -1324.75937525 0 -5811.43147664 0 -15546.20838487 0 238
0.01650000 0.01653350 44755.55487270 0 2625.87933702 0 -1335.68775985 0 -6906.20759308 0 -3335.78144276 0 315
0.01750000 0.01747870 54349.05998857 0 -7988.82629688 0 618.27972511 0 -13107.30739707 0 -3207.61928299 0 297
0.01850000 0.01844180 54042.24586784 0 -4901.18672562 0 9415.37355419 0 -7523.51184637 0 -15457.62978632 0 388
0.01950000 0.01947590 63974.34267666 0 1364.34293648 0 16275.09952768 0 -9161.24155495 0 -8421.96457146 0 399
0.02050000 0.02045430 60454.11844707 0 792.79727997 0 17359.41229717 0 205.46691719 0 2488.84824506 0 462
0.02150000 0.02154770 62228.23705276 0 -1272.69730395 0 16216.30548289 0 9801.12227854 0 4900.05734849 0 571
0.02250000 0.02255340 67487.25917188 0 -3458.14170433 0 15707.64288072 0 19799.86341045 0 446.22576252 0 510
0.02350000 0.02348930 68148.60913329 0 -4789.19016008 0 8813.92487004 0 6921.66455853 0 -5642.40136596 0 555
0.02450000 0.02439640 68687.83135196 0 2078.48574263 0 7118.40869823 0 684.03051158 0 -4448.01861545 0 592
0.02550000 0.02547300 65084.34323973 0 4977.22038015 0 7814.02750496 0 -5623.76664329 0 4477.10561274 0 837
0.02650000 0.02652900 63551.82276158 0 527.13456166 0 2919.28487239 0 -1737.69065704 0 6760.94976379 0 723
0.02750000 0.02749970 63496.79330724 0 -3352.41207464 0 3677.29622947 0 2617.02147716 0 -1718.04835281 0 826
0.02850000 0.02848090 67778.46131461 0 -1002.18047845 0 7632.12028052 0 2370.60688832 0 -5045.99058960 0 831
0.02950000 0.02946900 66246.49445270 0 935.75870910 0 11466.05668920 0 636.55459722 0 -465.72523375 0 996
0.03050000 0.03053250 64957.56512056 0 5692.62543134 0 15188.79373972 0 -1178.70433857 0 1049.13931524 0 1041
0.03150000 0.03150510 57036.53466855 0 6718.01128814 0 16799.70627759 0 -2716.04127801 0 7630.71409527 0 1036
0.03250000 0.03246190 56245.08489051 0 5035.11756663 0 23790.66144483 0 659.21300273 0 9404.24586774 0 1059
0.03350000 0.03345080 51359.75373403 0 4418.48872515 0 20492.21588136 0 1446.63245453 0 9570.84006696 0 1302
0.03450000 0.03451200 49876.83727107 0 333.45302701 0 21482.52461314 0 -2244.81420606 0 9030.72098999 0 1339
0.03550000 0.03553350 49196.44291096 0 397.55625154 0 20043.23310996 0 7441.57664271 0 4786.65459770 0 1365
0.03650000 0.03647120 49056.37800201 0 -977.92212201 0 15487.85723307 0 3385.91692954 0 8375.75975999 0 1308
0.03750000 0.03744890 50705.60078374 0 -1593.35183070 0 10417.86184327 0 6286.14633091 0 -2099.08026679 0 1579
0.03850000 0.03847530 49183.26684443 0 464.17732274 0 11658.49369455 0 3462.62599589 0 4534.75920808 0 1662
0.03950000 0.03950240 47252.36411930 0 1844.00711995 0 8612.22032882 0 3429.53081700 0 3035.27854719 0 1683
0.04050000 0.04050350 46945.54999858 0 2186.10873987 0 5894.30782791 0 3290.49563425 0 3279.15757364 0 1822
0.04150000 0.04152450 44944.67018060 0 390.89624817 0 6807.16564758 0 -1622.92601029 0 2647.22677927 0 1887
0.04250000 0.04250150 47182.16557995 0 98.53128988 0 9575.19149062 0 -1171.25266397 0 2818.95853720 0 1920
0.04350000 0.04349210 45573.46750705 0 1098.85073198 0 11230.32689381 0 -4782.89000726 0 1775.31441677 0 2005
0.04450000 0.04448520 44495.02306972 0 2232.97789083 0 12698.62788801 0 -3132.99181371 0 4702.37206118 0 2151
0.04550000 0.04548030 43384.91178340 0 2074.09002968 0 14008.04102106 0 -1193.31980733 0 -88.40476305 0 2274
0.04650000 0.04648670 41722.84510487 0 2203.60301308 0 14926.04747178 0 1659.71934567 0 815.53319175 0 2311
0.04750000 0.04749250 38043.17939789 0 3201.19733459 0 14904.56716163 0 -224.68736585 0 -2105.94510818 0 2568
0.04850000 0.04851840 37487.68086174 0 1102.31415518 0 13511.33652970 0 1375.28239340 0 -2364.41745875 0 2493
0.04950000 0.04949480 36716.16126838 0 -374.36305275 0 12757.75410254 0 -303.58210911 0 -1090.67935626 0 2644
0.05050000 0.05050630 36802.41467871 0 -395.21777654 0 10872.34756010 0 420.70294658 0 -3754.03851279 0 2829
0.05150000 0.05149060 38077.94649782 0 -43.99101084 0 13088.92733787 0 -1242.40342325 0 -2083.88903714 0 2784
0.05250000 0.05249300 38091.12256436 0 137.63342643 0 12329.14440881 0 872.45601364 0 -7266.12458364 0 3055
0.05350000 0.05348950 36446.99305203 0 -766.56472801 0 11555.18890399 0 -253.00262211 0 -5212.96124787 0 3009
0.05450000 0.05448610 37049.10607567 0 1074.07419073 0 11554.52456450 0 571.69181120 0 -6117.19372651 0 3336
0.05550000 0.05550870 37613.24102518 0 1208.97607462 0 12272.34338249 0 1152.78402617 0 -8364.21132520 0 3349
0.05650000 0.05647670 35538.17663092 0 1711.46031954 0 12759.63639776 0 782.30403774 0 -5129.99631800 0 3324
0.05750000 0.05747970 33718.32932373 0 1547.82243105 0 11019.50982926 0 2105.08146685 0 -2146.62482957 0 3639
0.05850000 0.05849280 32931.75136861 0 -44.51905001 0 11117.49990391 0 4131.25047471 0 -713.24262615 0 3846
0.05950000 0.05951020 34026.91501642 0 -712.51185271 0 9352.01771157 0 4425.12104772 0 -2245.01350790 0 3787
0.06050000 0.06049470 33863.15533236 0 108.39252381 0 8279.87342706 0 3716.65834420 0 -1744.03509916 0 3930
0.06150000 0.06148310 33351.61392573 0 1204.51392772 0 8340.68263496 0 -2375.27940940 0 832.83148481 0 4083
0.06250000 0.06249100 31829.61215616 0 1593.27432443 0 9360.84235445 0 -1107.46500069 0 3826.26328758 0 4303
0.06350000 0.06350600 31563.76563727 0 385.25157697 0 8952.19606237 0 -135.45550013 0 2080.14659135 0 4470
0.06450000 0.06451750 31268.68818085 0 36.55561256 0 9827.96159390 0 1066.18958823 0 2010.53488522 0 4479
0.06550000 0.06550280 31470.42593905 0 -711.09348790 0 9875.19613158 0 280.76426212 0 944.70514755 0 4636
0.06650000 0.06648880 31985.62121286 0 -167.18767583 0 8440.20069043 0 313.60477754 0 744.95708612 0 4653
0.06750000 0.06749660 32073.31402542 0 42.40357163 0 9552.05033175 0 133.03841163 0 387.66202209 0 5220
0.06850000 0.06852730 31890.73138916 0 928.71117435 0 9318.92253269 0 -1466.96124290 0 -212.61853180 0 5029
0.06950000 0.06949320 30908.72690100 0 1726.16436690 0 11384.12148554 0 -1328.01463875 0 -801.38497510 0 5040
0.07050000 0.07048030 30031.57732886 0 2429.66666890 0 11600.91760549 0 572.72375187 0 529.94139601 0 5475
0.07150000 0.07148790 27499.00447309 0 1003.50029957 0 10799.70203696 0 109.30012228 0 2768.05906001 0 5509
0.07250000 0.07249820 26968.08649804 0 74.67231219 0 10820.75052644 0 2748.40568346 0 1251.05090893 0 5916
0.07350000 0.07351270 27022.34088965 0 399.93237245 0 10742.63527485 0 1505.70330744 0 979.64497575 0 5721
0.07450000 0.07449140 27078.47757648 0 136.36121630 0 10255.68550165 0 901.32931507 0 890.01782804 0 6028
0.07550000 0.07549160 26172.09706683 0 256.43504280 0 9792.93983050 0 453.87452450 0 1721.01573586 0 6183
0.07650000 0.07648840 25858.08593497 0 200.86858070 0 8094.51163727 0 617.81358023 0 1009.55353955 0 6330
0.07750000 0.07749960 26117.95339846 0 116.57718632 0 8907.44172545 0 1160.16926682 0 -278.51658019 0 6583
0.07850000 0.07848650 25338.68317773 0 325.95041971 0 6258.42122957 0 1265.85460722 0 -328.71739368 0 6549
0.07950000 0.07947320 25200.94345698 0 270.85120971 0 5658.32336905 0 1922.63169848 0 -707.85594012 0 6828
0.08050000 0.08048110 24227.46465893 0 370.64939500 0 4201.57080963 0 1524.40446406 0 -671.13457486 0 7147
0.08150000 0.08149960 24030.48800040 0 148.59059907 0 3983.96640997 0 1832.17080472 0 -2507.41653378 0 7386
0.08250000 0.08250610 23391.17196538 0 312.21077184 0 3109.08666443 0 844.59029377 0 -893.60858298 0 7227
0.08350000 0.08350160 23184.78383076 0 1314.47318550 0 3977.98735457 0 -820.05402197 0 -510.69769547 0 7798
0.08450000 0.08449610 22284.27165326 0 1469.85111968 0 4756.08390888 0 -1276.19615860 0 -99.20836254 0 7371
0.08550000 0.08548940 21202.83768822 0 797.51298311 0 4948.99702419 0 -1429.54785734 0 2518.45564163 0 8256
0.08650000 0.08650700 20629.06981612 0 499.53014866 0 5476.05075788 0 800.43496963 0 2846.67256622 0 8037
0.08750000 0.08749060 20494.98396256 0 -13.91160107 0 5473.13873646 0 1682.72763664 0 3078.27238446 0 8155
0.08850000 0.08849210 20932.00862315 0 -510.55929141 0 5552.41658216 0 1420.13638124 0 1926.70631402 0 8718
0.08950000 0.08949900 20690.07832587 0 211.66852633 0 5771.62646892 0 652.75673013 0 2989.00730177 0 8571
0.09050000 0.09049190 20693.17857682 0 196.31785520 0 4882.56307528 0 -346.12530276 0 2341.63061427 0 8932
0.09150000 0.09150830 20457.78095117 0 149.87166705 0 5856.29653680 0 76.94047793 0 2337.98781941 0 9285
0.09250000 0.09250820 20620.10123301 0 -1.85928693 0 5509.26773234 0 -998.14461605 0 2042.20173420 0 9204
0.09350000 0.09350330 20075.89646818 0 803.34145489 0 5973.93998800 0 -562.25043983 0 266.91721271 0 9349
0.09450000 0.09448040 20035.03958960 0 1117.20864653 0 6274.84148727 0 -925.72386111 0 1398.39033530 0 9564
0.09550000 0.09549270 18821.18061973 0 661.52158245 0 6149.91244635 0 -730.89966253 0 235.16510682 0 10155
0.09650000 0.09649430 18265.57136033 0 664.28855642 0 6356.59953374 0 -401.27323099 0 262.20593850 0 9913
0.09750000 0.09749140 17938.71633168 0 369.08487550 0 6235.71189137 0 206.17443875 0 -617.52902148 0 10476
0.09850000 0.09850240 17749.37957728 0 21.43513506 0 5883.63410678 0 1078.91501114 0 -377.92169794 0 10575
0.09950000 0.09950330 17391.85420889 0 351.27836273 0 5730.42634827 0 437.70782303 0 -272.13781386 0 10882
0.10050000 0.10051200 17307.70454027 0 482.67142689 0 6057.36995551 0 227.86623030 0 -293.67459286 0 10875
0.10150000 0.10150300 16769.81100058 0 386.90688953 0 5483.00417787 0 205.57985491 0 770.14108892 0 11118
0.10250000 0.10250800 16774.35065375 0 -115.92945532 0 5855.76506521 0 21.14869402 0 298.40801172 0 11575
0.10350000 0.10349800 16675.47479312 0 -116.59822374 0 6407.94190392 0 330.80452691 0 69.40919331 0 11364
0.10450000 0.10450100 17031.78220579 0 457.28922948 0 6234.36106774 0 -269.72736874 0 -388.93533944 0 12093
0.10550000 0.10551000 16106.35729744 0 258.87538319 0 6401.58638947 0 -525.15261552 0 -429.95498120 0 12067
0.10650000 0.10649700 16178.54885526 0 455.98048068 0 5988.28972097 0 234.40443811 0 -393.91899284 0 12054
0.10750000 0.10749900 16001.94527440 0 -41.28803491 0 5500.67560828 0 908.92382267 0 -258.22986665 0 12807
0.10850000 0.10850100 16088.97374748 0 -44.28575613 0 5557.64271947 0 615.57918508 0 -1003.03969086 0 12736
0.10950000 0.10950300 15882.69633611 0 294.94015959 0 5018.83017682 0 721.14715883 0 -162.27045638 0 12933
0.11050000 0.11050200 15862.54470494 0 256.83807542 0 4725.53536470 0 449.89845266 0 -185.88661799 0 13428
0.11150000 0.11150900 15462.72305574 0 258.64950776 0 5210.80214453 0 250.95092032 0 636.25010829 0 13453
0.11250000 0.11250000 15148.60120063 0 494.10913843 0 5336.45088657 0 375.14586611 0 1594.08260414 0 13668
0.11350000 0.11349100 14937.78413608 0 222.53712037 0 4795.13599851 0 799.08746770 0 1712.45682878 0 13791
0.11450000 0.11448600 14860.05641586 0 20.61578303 0 4936.88390084 0 481.86868334 0 1812.73887466 0 14205
0.11550000 0.11549300 14794.17608319 0 -93.42672669 0 4762.26226612 0 263.93432840 0 1649.89819355 0 14776
0.11650000 0.11649800 14729.84587599 0 339.94362381 0 4383.99843334 0 130.84609131 0 1576.25616118 0 14553
0.11750000 0.11747300 14535.85874517 0 165.28877213 0 4202.09120890 0 131.56911412 0 1042.82919732 0 14568
0.11850000 0.11849100 14314.41224879 0 75.59408323 0 3872.44595440 0 466.35746350 0 990.84795400 0 16015
0.11950000 0.11950300 14017.00960417 0 56.50140921 0 3652.05132888 0 514.50768244 0 754.78709610 0 15270
0.12050000 0.12050700 14495.66620608 0 -135.13440271 0 3112.08726445 0 697.36601959 0 638.80117192 0 15999
0.12150000 0.12150000 14407.41977727 0 110.20395615 0 3273.42210938 0 313.62360049 0 616.22470162 0 15670
0.12250000 0.12250700 14021.77070384 0 429.29949957 0 2786.30625131 0 101.62711190 0 861.79779377 0 16887
0.12350000 0.12352200 13872.40504203 0 29.87235730 0 3076.23507669 0 280.41991282 0 1208.28959048 0 16407
0.12450000 0.12449800 13947.69685080 0 -77.65984688 0 3092.05742886 0 -49.29255069 0 1207.89098679 0 16306
0.12550000 0.12549900 13987.33577365 0 261.60249679 0 2948.59331618 0 449.02927516 0 903.65228882 0 17523
0.12650000 0.12650100 13638.33609537 0 189.39765219 0 2965.09108016 0 -480.24990945 0 1097.56523507 0 17154
0.12750000 0.12750600 13581.42434580 0 227.58831495 0 3135.60488237 0 -236.64769112 0 858.56467493 0 18007
0.12850000 0.12850300 13413.67862480 0 286.00147176 0 3480.95069346 0 -591.87001595 0 857.62906348 0 17496
0.12950000 0.12949900 13233.08900701 0 185.54669761 0 3738.39331782 0 -392.93134147 0 368.01639616 0 18405
0.13050000 0.13049000 12985.73327056 0 309.28324916 0 3731.07451111 0 -151.70745850 0 300.93028732 0 18100
0.13150000 0.13148800 13071.32234140 0 90.51304442 0 3634.86708076 0 195.89932132 0 -264.53444840 0 19059
0.13250000 0.13249300 12655.00292822 0 182.77972364 0 3916.03769721 0 -264.11480729 0 -33.03549905 0 18957
0.13350000 0.13349100 12651.45978428 0 357.49879481 0 3777.14645468 0 -77.59485233 0 -686.78530599 0 19468
0.13450000 0.13450700 12188.41516037 0 440.79810889 0 3687.61563620 0 179.36944760 0 -18.28782673 0 19953
0.13550000 0.13551000 12121.31687196 0 222.95122532 0 3600.62038010 0 67.80979599 0 -383.12347614 0 19956
0.13650000 0.13649900 11661.26177575 0 77.94639864 0 3520.37924214 0 456.65810696 0 -359.72543934 0 19723
0.13750000 0.13749600 11896.99157114 0 11.51355696 0 3527.41016840 0 454.96293403 0 -197.33208015 0 20946
0.13850000 0.13851100 11713.85531864 0 47.03379643 0 3358.34684074 0 107.97974754 0 -285.78556143 0 20955
0.13950000 0.13949800 11644.76401177 0 239.40248553 0 3546.58743499 0 170.77510907 0 121.78007175 0 20506
0.14050000 0.14048300 11415.45616478 0 221.52178818 0 3323.28078804 0 137.51052362 0 -15.50568368 0 21447
0.14150000 0.14148400 11361.31249641 0 187.55189564 0 3427.64852178 0 183.56475147 0 92.94098380 0 21771
0.14250000 0.14249400 11187.47699676 0 168.67911798 0 3309.19679087 0 61.01847484 0 194.26283171 0 22470
0.14350000 0.14350900 11164.00366814 0 -1.64686438 0 3266.72335287 0 176.19279761 0 69.69762738 0 22519
0.14450000 0.14449900 10995.61575230 0 85.51222891 0 3003.95494027 0 -50.75000081 0 -167.38365598 0 22218
0.14550000 0.14550500 10836.41786606 0 354.71964129 0 2971.67911343 0 104.96851809 0 -832.25683116 0 23559
0.14650000 0.14650700 10648.18834414 0 280.12206728 0 2814.66247517 0 -229.75406168 0 -407.91773311 0 23044
0.14750000 0.14750500 10451.22275794 0 138.73733721 0 2818.12811284 0 261.15960380 0 -158.06518741 0 23649
0.14850000 0.14849900 10344.05372602 0 -67.04104448 0 2513.30701058 0 401.51460767 0 -273.59161011 0 23640
0.14950000 0.14949500 10391.42113160 0 -48.61005259 0 2532.71679599 0 436.58508930 0 -347.63999680 0 24457
0.15050000 0.15050000 10499.47594950 0 78.39981034 0 2651.97680661 0 83.21117837 0 -590.46604516 0 24591
0.15150000 0.15149900 10369.37613288 0 162.11322937 0 2481.59587230 0 -338.97590263 0 -193.78007835 0 25020
0.15250000 0.15250500 10100.55115861 0 442.49992521 0 2843.20692856 0 -257.48137750 0 38.33460299 0 25297
0.15350000 0.15350100 9993.73644109 0 278.36488934 0 2983.99153863 0 114.24424748 0 496.76871085 0 25452
0.15450000 0.15450400 9638.52518858 0 101.47331731 0 3131.10951849 0 315.61661896 0 259.53529375 0 26061
0.15550000 0.15549900 9752.19367517 0 130.94131331 0 2869.23796420 0 322.39288174 0 370.22311050 0 26128
0.15650000 0.15649500 9526.84972046 0 154.46557462 0 2858.81890655 0 122.96923944 0 440.93762018 0 26331
0.15750000 0.15749700 9422.83630111 0 209.59910882 0 2794.52191633 0 206.06150104 0 554.15214145 0 27345
0.15850000 0.15849900 9340.60214469 0 2.62969929 0 2476.70190473 0 -47.05439095 0 337.70701420 0 26980
0.15950000 0.15949700 9299.82277238 0 -13.32321773 0 2484.26430259 0 180.53204170 0 630.39727739 0 27777
0.16050000 0.16050000 9258.27940966 0 70.37979331 0 2142.89345610 0 338.63930395 0 95.11913154 0 28224
0.16150000 0.16150500 9197.11588736 0 17.24614241 0 2032.26985884 0 310.58535456 0 320.83168395 0 28075
0.16250000 0.16249700 9219.03909050 0 32.09656591 0 1832.49190214 0 329.57771332 0 52.69861925 0 28590
0.16350000 0.16349900 9052.95421822 0 179.88763240 0 1829.94526743 0 34.94137832 0 4.27433813 0 29163
0.16450000 0.16449100 8751.47695806 0 362.53670261 0 2052.24433281 0 -69.45027164 0 -92.89879825 0 28996
0.16550000 0.16550500 8635.36148769 0 261.65564395 0 2017.58795613 0 -167.09466830 0 389.72479620 0 30777
0.16650000 0.16650700 8305.98196898 0 99.83417034 0 2181.40300182 0 17.14937030 0 370.47888120 0 29211
0.16750000 0.16749900 8419.21863490 0 92.80246902 0 1982.75442225 0 121.20763256 0 63.51927013 0 30922
0.16850000 0.16850800 8426.74781578 0 -2.87940236 0 2113.35249349 0 107.89404775 0 135.57175954 0 30867
0.16950000 0.16949900 8395.82281256 0 51.56868850 0 1974.36160004 0 -78.93272134 0 261.44969871 0 30852
0.17050000 0.17049200 8404.93533589 0 -65.07836418 0 1879.01781102 0 0.04927384 0 156.62910688 0 31257
0.17150000 0.17149500 8429.00657004 0 55.16675118 0 1850.03046465 0 39.37551224 0 145.92106155 0 32608
0.17250000 0.17250900 8373.21312528 0 110.91479941 0 1905.41423339 0 -179.16682405 0 -255.81942154 0 32361
0.17350000 0.17350400 8300.05827520 0 183.84266682 0 1913.98421280 0 -65.45260876 0 126.48359533 0 32508
0.17450000 0.17449800 8188.77033845 0 182.32797279 0 2183.67282841 0 -135.00374928 0 175.39337575 0 32791
0.17550000 0.17549800 8113.37887876 0 110.89154752 0 1988.05806584 0 39.60238418 0 111.59464015 0 33633
0.17650000 0.17650100 8055.75850040 0 52.30743402 0 2275.11915909 0 183.60239738 0 411.42655284 0 33984
0.17750000 0.17750300 8125.44771281 0 52.29602952 0 2083.25791463 0 216.85369604 0 443.20523231 0 34069
0.17850000 0.17849800 8107.73199310 0 -101.17303586 0 2012.41718044 0 254.72879755 0 362.42044320 0 34536
