### header ###
fiducial parameters:
Omega_m = 0.31
Omega_nu = 0
Omega_de = 0.69
Omega_k = 0
H_0 = 100
w_de = -1
zeff = 0
beta = 0
fgrowth = 0
b_1 = 2
gamma = 0.55
Lx = 3500 Ly = 3500 Lz = 3500
nx = 700 ny = 700 nz = 700
xoffset = -685.467585 yoffset = -31.7331281 zoffset = 572.489161
bins = 400 dk = 0.001
kx_ny = 0.628318531 ky_ny = 0.628318531 kz_ny = 0.628318531
############################
A(data) = 8.06256578 (not used)
A(ran) = 8.0567192 (used)
Ngal = 478936
weighted Ngal = 0
Nran = 23820508
weighted Nran = 0
SN(data) = 3491.4457
SN(ran) = 70.1769461
SN(data+ran) = 3561.62265
############################
13 columns: k_central k_mean P_0(k) sigma^{lin}_{P_0(k)} P^img_1(k) sigma^{lin}_{P_1(k)} P_2(k) sigma^{lin}_{P_2(k)} P^img_3(k) sigma^{lin}_{P_3(k)} P_4(k) sigma^{lin}_{P_4(k)} N_modes
### header ###
0.00050000 0 0 0 0 0 0 0 0 0 0 0 0
0.00150000 0.00179520 64149.50685529 0 -76637.98201825 0 -17199.74937329 0 55899.29618643 0 -26198.44919990 0 3
0.00250000 0.00253879 99268.48526858 0 -58583.44916896 0 4853.93004330 0 -61745.37296742 0 14598.08521065 0 6
0.00350000 0.00331552 106184.59152005 0 -1958.72747739 0 -10990.56677219 0 -62081.97164191 0 37806.89598626 0 7
0.00450000 0.00420575 97947.22474797 0 31504.41797624 0 -7454.61984135 0 -54901.01538078 0 55987.21044549 0 24
0.00550000 0.00557378 53237.95219302 0 23922.20066368 0 -10809.63391232 0 -23550.83488926 0 22997.77226457 0 45
0.00650000 0.00659388 39325.35461189 0 8599.46501062 0 11283.14188319 0 19642.19350503 0 21371.91208820 0 40
0.00750000 0.00754703 45268.97857454 0 -17426.62130882 0 -3703.38262674 0 9149.26129949 0 -16870.67987968 0 57
0.00850000 0.00846663 50544.60918088 0 -13735.55110728 0 -4888.87430043 0 10451.94245906 0 12370.77635013 0 75
0.00950000 0.00948925 63018.24742857 0 -8475.42175568 0 -23144.03767542 0 4428.66419166 0 -6063.38222789 0 112
0.01050000 0.01054430 65005.50828702 0 -3018.65898763 0 -14213.65409294 0 -12487.25720722 0 -6978.04483651 0 105
0.01150000 0.01145670 65650.24976121 0 2417.70855810 0 -23522.04684473 0 -846.09280825 0 -840.77034171 0 144
0.01250000 0.01249090 68395.30053025 0 -3125.92767048 0 -19300.83373087 0 -29370.22736744 0 -18056.19369801 0 169
0.01350000 0.01339930 71982.84449474 0 -3276.59986661 0 -17451.97693265 0 -18953.82707106 0 -12645.25928238 0 180
0.01450000 0.01448870 76912.35422725 0 -10052.26475008 0 -2633.46387952 0 -10085.31563966 0 -10889.17749382 0 267
0.01550000 0.01550050 83920.13932822 0 950.54358443 0 7390.81003342 0 -20535.06577841 0 -14855.62748593 0 238
0.01650000 0.01653350 83522.64286723 0 2056.85041994 0 3445.27566289 0 8612.07638859 0 -1289.40544211 0 315
0.01750000 0.01747870 80603.20298230 0 6554.15195315 0 13784.82295272 0 10618.92418965 0 780.17925860 0 297
0.01850000 0.01844180 71925.04695919 0 5892.39231571 0 16278.97484137 0 361.12276673 0 452.18045880 0 388
0.01950000 0.01947590 70293.65062041 0 9323.75006631 0 17517.52509558 0 -1307.03258322 0 4477.44885481 0 399
0.02050000 0.02045430 60890.58949142 0 6214.05442402 0 15438.91755738 0 -7458.35121481 0 11393.64368488 0 462
0.02150000 0.02154770 60771.00838338 0 3368.67731980 0 25207.91902162 0 -3693.55040230 0 20332.88512722 0 571
0.02250000 0.02255340 59791.55052992 0 -1763.24558272 0 22811.42503787 0 4526.22244564 0 11402.50154474 0 510
0.02350000 0.02348930 62054.06938337 0 -3027.82687258 0 33827.50244644 0 9026.76817003 0 8811.12357186 0 555
0.02450000 0.02439640 62040.45042384 0 -1182.61286923 0 22136.23467043 0 1812.35134329 0 13082.17321973 0 592
0.02550000 0.02547300 65674.38742932 0 4523.66473861 0 36767.09396254 0 4.67073843 0 5544.73238873 0 837
0.02650000 0.02652900 58696.38688211 0 5531.76669637 0 34624.82055663 0 -3521.75221042 0 15317.01126112 0 723
0.02750000 0.02749970 58118.41152658 0 2545.29495699 0 31978.31347848 0 3025.74527552 0 9532.15336405 0 826
0.02850000 0.02848090 56911.19595160 0 -1359.34931799 0 30540.23993103 0 9373.34300917 0 4187.65289734 0 831
0.02950000 0.02946900 56307.75424898 0 1488.24225120 0 28312.04528453 0 2518.27848443 0 -396.68707405 0 996
0.03050000 0.03053250 55998.50421680 0 3161.50305012 0 24973.85007495 0 4172.81598208 0 -5925.76430272 0 1041
0.03150000 0.03150510 51691.48058559 0 1273.92633201 0 14996.02456463 0 -2296.65483086 0 197.17153144 0 1036
0.03250000 0.03246190 53762.11604993 0 -1738.08926073 0 21104.95833682 0 3703.01724002 0 -6307.25018202 0 1059
0.03350000 0.03345080 53466.04208428 0 -2169.77706076 0 16551.13258541 0 4915.18214419 0 3180.35921928 0 1302
0.03450000 0.03451200 57930.73562090 0 -3611.80342817 0 22285.37888574 0 6835.41114819 0 -6738.65010160 0 1339
0.03550000 0.03553350 58136.34869278 0 1254.95943960 0 17891.65895120 0 5260.66082319 0 2052.73151510 0 1365
0.03650000 0.03647120 59444.21170036 0 3339.31351438 0 22462.97897583 0 1608.90844707 0 1133.62890423 0 1308
0.03750000 0.03744890 54786.97043514 0 3827.44802634 0 23142.70899645 0 -39.73370195 0 11777.41046310 0 1579
0.03850000 0.03847530 53542.44112553 0 3750.50644117 0 25357.50612992 0 784.19740528 0 16026.41511225 0 1662
0.03950000 0.03950240 49951.90763334 0 830.52179786 0 24077.32393439 0 3446.62648652 0 8647.62962359 0 1683
0.04050000 0.04050350 49347.13725174 0 724.27176890 0 25990.95383279 0 3625.44453234 0 8289.29597548 0 1822
0.04150000 0.04152450 47687.50648468 0 4090.03928173 0 26149.73097069 0 1550.04796834 0 8788.71318642 0 1887
0.04250000 0.04250150 45905.08363537 0 1234.89638702 0 22829.25148083 0 5813.63486928 0 9015.58512196 0 1920
0.04350000 0.04349210 43554.09690663 0 675.09071652 0 20094.94086686 0 1833.51055602 0 4408.42398189 0 2005
0.04450000 0.04448520 43435.40158457 0 2204.68810091 0 19338.47963525 0 1468.81032114 0 5600.65870139 0 2151
0.04550000 0.04548030 42158.65180973 0 656.10721562 0 20568.39347611 0 1398.51213087 0 5813.19197629 0 2274
0.04650000 0.04648670 40627.46001056 0 229.74631106 0 16542.93906504 0 1503.42240853 0 3065.55028324 0 2311
0.04750000 0.04749250 40816.57531847 0 -248.25813092 0 13565.14802832 0 3440.89102227 0 566.28630222 0 2568
0.04850000 0.04851840 41443.60107294 0 -376.14680427 0 12735.60945290 0 1027.27368819 0 -1148.58761506 0 2493
0.04950000 0.04949480 40262.84835428 0 555.02906958 0 13015.51782432 0 530.48947608 0 409.80335003 0 2644
0.05050000 0.05050630 40222.98798494 0 483.22504313 0 9126.82876941 0 -607.90384952 0 -2508.02551165 0 2829
0.05150000 0.05149060 38809.71644509 0 310.72597308 0 10863.60042349 0 -62.74298943 0 -4648.00694632 0 2784
0.05250000 0.05249300 38719.47699781 0 2849.87246810 0 12732.06630896 0 -5003.48393462 0 -8316.50067756 0 3055
0.05350000 0.05348950 35263.91514516 0 2581.18036172 0 13988.55372938 0 -1629.43653729 0 -3145.55890238 0 3009
0.05450000 0.05448610 34411.01396438 0 1171.24159164 0 12882.87137299 0 -1312.91198770 0 -4143.45217666 0 3336
0.05550000 0.05550870 34743.51587869 0 -747.58897773 0 14934.68388513 0 2824.18467452 0 -5722.47641905 0 3349
0.05650000 0.05647670 34936.72794677 0 -611.96407103 0 14879.65443079 0 1897.78540159 0 -4496.58183210 0 3324
0.05750000 0.05747970 34652.05847568 0 1171.48518279 0 13019.61458450 0 1299.30410049 0 -2835.50059048 0 3639
0.05850000 0.05849280 34313.35605948 0 1080.31787470 0 15277.04016853 0 797.16752657 0 1424.34386467 0 3846
0.05950000 0.05951020 34198.53605111 0 404.63811050 0 14310.31548861 0 1644.92671971 0 -804.85061276 0 3787
0.06050000 0.06049470 33007.81824011 0 925.95859440 0 15810.94767128 0 171.58117432 0 -211.36846632 0 3930
0.06150000 0.06148310 33359.58599960 0 799.25355257 0 15663.79647444 0 1084.56078957 0 3098.74511305 0 4083
0.06250000 0.06249100 32954.67108099 0 447.21341389 0 15948.79811527 0 1951.82941903 0 3231.49121530 0 4303
0.06350000 0.06350600 32953.12095551 0 50.93468718 0 14446.83725363 0 2031.56123005 0 1598.86584846 0 4470
0.06450000 0.06451750 31155.30757471 0 373.22924668 0 13365.51401184 0 1574.30743201 0 3964.95522826 0 4479
0.06550000 0.06550280 31565.53720924 0 1668.28932508 0 13749.05934355 0 1343.67090604 0 2251.65690280 0 4636
0.06650000 0.06648880 30097.01476854 0 421.60201935 0 14239.34188652 0 555.26491010 0 4923.38673688 0 4653
0.06750000 0.06749660 30061.69405237 0 521.51203512 0 13613.31264128 0 1635.06127829 0 3434.20333808 0 5220
0.06850000 0.06852730 29527.56510312 0 -152.68293032 0 12708.26081060 0 1420.92251630 0 4434.59895777 0 5029
0.06950000 0.06949320 29257.62182404 0 -301.73192363 0 11759.47329689 0 1948.74024041 0 5797.49141969 0 5040
0.07050000 0.07048030 29594.88483802 0 892.49581433 0 11738.43587974 0 1285.98409374 0 2680.53233232 0 5475
0.07150000 0.07148790 28699.68737643 0 1136.54092566 0 10608.92588034 0 538.37629305 0 3937.66194758 0 5509
0.07250000 0.07249820 27667.30381034 0 595.17067598 0 9295.16132363 0 263.48257755 0 1169.38144107 0 5916
0.07350000 0.07351270 26711.76217849 0 137.18056834 0 8382.22599768 0 47.35600108 0 1298.45153148 0 5721
0.07450000 0.07449140 26958.89646844 0 -262.14171901 0 8492.57278683 0 -218.45586144 0 222.84603823 0 6028
0.07550000 0.07549160 26814.51335280 0 -16.61535207 0 8254.77246670 0 -423.24183066 0 -1560.85455736 0 6183
0.07650000 0.07648840 27016.25111100 0 799.24137301 0 8695.97139374 0 255.41528168 0 -219.00504875 0 6330
0.07750000 0.07749960 26475.25732036 0 722.38172305 0 8619.68307574 0 933.41691240 0 -468.52542470 0 6583
0.07850000 0.07848650 25952.42214243 0 184.22798373 0 8397.19578084 0 1427.56591119 0 761.97303490 0 6549
0.07950000 0.07947320 25576.84888458 0 401.76484221 0 8032.32946109 0 1016.85020160 0 268.05212600 0 6828
0.08050000 0.08048110 25654.90877455 0 989.46169893 0 8357.24683289 0 281.92796346 0 141.02377229 0 7147
0.08150000 0.08149960 24330.76944949 0 986.22304392 0 8764.43157810 0 -1428.79493925 0 1232.30546302 0 7386
0.08250000 0.08250610 23587.26283791 0 1366.28059332 0 9080.46894540 0 -617.22010362 0 2409.49289308 0 7227
0.08350000 0.08350160 22597.28627588 0 451.56483754 0 9386.65194361 0 116.50743067 0 1660.64942095 0 7798
0.08450000 0.08449610 22557.20446004 0 -90.33843386 0 9011.53265108 0 2896.09942421 0 1697.73063677 0 7371
0.08550000 0.08548940 22371.52157283 0 -529.19401408 0 7800.26460521 0 2484.58540000 0 2017.48830521 0 8256
0.08650000 0.08650700 22585.66033482 0 659.85076864 0 7471.48299205 0 1498.78310443 0 1441.12950910 0 8037
0.08750000 0.08749060 21969.15328892 0 1231.09857961 0 6971.33500767 0 121.86865035 0 2011.52032213 0 8155
0.08850000 0.08849210 20634.82742502 0 758.35570639 0 6478.55011929 0 -429.93947994 0 3870.48615291 0 8718
0.08950000 0.08949900 20628.18403013 0 76.32397089 0 8022.27579015 0 -266.89617529 0 3368.07941426 0 8571
0.09050000 0.09049190 20360.56593926 0 48.62599674 0 7846.52477831 0 1030.41379951 0 2705.99867940 0 8932
0.09150000 0.09150830 20361.00883226 0 611.26651457 0 8089.28549996 0 625.32725985 0 2457.65750605 0 9285
0.09250000 0.09250820 19654.04089259 0 677.53548584 0 7128.97169611 0 -456.86737390 0 2988.56440878 0 9204
0.09350000 0.09350330 19234.84267495 0 540.86756614 0 7586.10369857 0 -105.63175034 0 2137.66731879 0 9349
0.09450000 0.09448040 18801.02898856 0 452.14281290 0 6944.71713880 0 438.55817758 0 2829.03435279 0 9564
0.09550000 0.09549270 18811.21552739 0 135.11225806 0 7491.59033392 0 -170.80500435 0 1188.31511651 0 10155
0.09650000 0.09649430 18090.29645845 0 428.48900539 0 6352.74636470 0 -90.46919801 0 1568.02942384 0 9913
0.09750000 0.09749140 18025.08046527 0 422.56309715 0 6838.43389287 0 83.66270778 0 339.07112462 0 10476
0.09850000 0.09850240 17483.97595138 0 40.78247256 0 6629.84236561 0 47.39397915 0 344.45227448 0 10575
0.09950000 0.09950330 17558.71414391 0 166.79350107 0 6660.54592233 0 266.94489352 0 -99.17016302 0 10882
0.10050000 0.10051200 17340.03572874 0 374.53024485 0 6774.62408494 0 94.86823266 0 249.37754296 0 10875
0.10150000 0.10150300 16925.15571778 0 555.71998265 0 6901.50185504 0 341.55796877 0 1542.47449816 0 11118
0.10250000 0.10250800 16779.99753941 0 78.85001107 0 7142.94497003 0 422.82218955 0 1567.71939875 0 11575
0.10350000 0.10349800 16706.25585612 0 316.85450487 0 6810.28804318 0 1177.04348985 0 1617.33448626 0 11364
0.10450000 0.10450100 16363.34595648 0 153.25094058 0 6708.95412644 0 480.97514673 0 1858.36792524 0 12093
0.10550000 0.10551000 16444.61682065 0 74.46016645 0 6059.56227583 0 724.13004314 0 2009.00690439 0 12067
0.10650000 0.10649700 16342.30853933 0 -141.34929863 0 5915.81028270 0 410.94712118 0 1595.07911337 0 12054
0.10750000 0.10749900 16272.33144648 0 161.01374751 0 5547.71084411 0 -160.09363732 0 1403.72719586 0 12807
0.10850000 0.10850100 15969.50336269 0 449.29390372 0 4882.31948413 0 370.16331994 0 680.77414085 0 12736
0.10950000 0.10950300 15531.92508585 0 348.83802234 0 5088.37544901 0 -283.91766023 0 607.46870715 0 12933
0.11050000 0.11050200 15461.17293026 0 272.47441253 0 4269.74311354 0 263.50693666 0 208.61145744 0 13428
0.11150000 0.11150900 14951.84598860 0 299.39344863 0 4526.97536373 0 769.12797120 0 -559.84663811 0 13453
0.11250000 0.11250000 14841.56563341 0 38.92652947 0 4033.82508863 0 187.08796523 0 -439.27234253 0 13668
0.11350000 0.11349100 14686.88525569 0 103.25241846 0 4120.69854916 0 783.23632749 0 -690.49342757 0 13791
0.11450000 0.11448600 14564.42534320 0 255.54372065 0 3981.60800479 0 148.40236954 0 -347.61785215 0 14205
0.11550000 0.11549300 14439.30807275 0 113.74710009 0 3658.89402562 0 265.44902243 0 113.08940400 0 14776
0.11650000 0.11649800 14607.93957974 0 51.12070224 0 4484.97803569 0 -227.12770624 0 -251.61636704 0 14553
0.11750000 0.11747300 14546.26673050 0 7.92984402 0 4189.53519255 0 -449.13224778 0 172.37063108 0 14568
0.11850000 0.11849100 14419.37788807 0 207.29385079 0 4609.01021831 0 -118.51373593 0 -193.50216300 0 16015
0.11950000 0.11950300 14204.02117035 0 292.98700149 0 4670.98202032 0 -143.55047681 0 -116.32141561 0 15270
0.12050000 0.12050700 14260.93291992 0 209.91799177 0 4766.53618350 0 -342.44929092 0 -498.76726548 0 15999
0.12150000 0.12150000 13849.15315991 0 317.73364746 0 4749.15263354 0 -82.09021621 0 -226.31610483 0 15670
0.12250000 0.12250700 13572.78793244 0 279.00486971 0 4627.32384356 0 -76.63255658 0 -747.25237906 0 16887
0.12350000 0.12352200 13502.36794659 0 117.96676308 0 4513.37854885 0 225.09593463 0 -947.11337820 0 16407
0.12450000 0.12449800 13331.07908165 0 54.47893836 0 4755.97318563 0 506.88770850 0 -686.07224827 0 16306
0.12550000 0.12549900 13178.50244565 0 293.63694696 0 4140.21905781 0 1114.96096459 0 -133.99506049 0 17523
0.12650000 0.12650100 12957.94173526 0 128.80103292 0 4002.11395035 0 507.51218762 0 113.54447655 0 17154
0.12750000 0.12750600 12852.53320299 0 218.19455457 0 3797.29808585 0 682.05188713 0 736.53769033 0 18007
0.12850000 0.12850300 12878.33171982 0 72.02624801 0 3690.69374250 0 508.30828777 0 964.80252433 0 17496
0.12950000 0.12949900 12619.12859581 0 167.29839908 0 3576.22804852 0 120.77913359 0 1547.42382735 0 18405
0.13050000 0.13049000 12538.30062464 0 197.00876827 0 3680.27468485 0 -163.91580385 0 1986.90654406 0 18100
0.13150000 0.13148800 12590.11910479 0 241.95797810 0 3563.36200709 0 -300.34013240 0 1274.80104567 0 19059
0.13250000 0.13249300 12301.46359676 0 138.08739174 0 3995.63664033 0 -518.09179398 0 1127.60555953 0 18957
0.13350000 0.13349100 12297.69900633 0 201.68018211 0 4436.96843528 0 -619.28066327 0 853.15916595 0 19468
0.13450000 0.13450700 12071.49141028 0 367.02542309 0 4487.27000693 0 -309.88890533 0 663.14035634 0 19953
0.13550000 0.13551000 12001.29287093 0 13.67941442 0 4516.32378725 0 84.77813378 0 793.06633746 0 19956
0.13650000 0.13649900 12054.21858356 0 -248.24595136 0 4437.94279986 0 481.71920695 0 392.01787467 0 19723
0.13750000 0.13749600 12096.73631087 0 -54.79527468 0 4321.97126971 0 800.67191738 0 238.25317822 0 20946
0.13850000 0.13851100 12030.74525495 0 168.07678351 0 3789.60282011 0 562.13971658 0 348.47817178 0 20955
0.13950000 0.13949800 11915.03946059 0 95.71194381 0 3453.29202606 0 565.22114457 0 736.20662782 0 20506
0.14050000 0.14048300 11709.09421897 0 205.15357040 0 3421.64732173 0 422.89858859 0 990.25779909 0 21447
0.14150000 0.14148400 11639.11712611 0 208.79525804 0 3297.21653542 0 427.71726435 0 1176.06912526 0 21771
0.14250000 0.14249400 11287.57081312 0 311.79888136 0 3420.01968998 0 28.47259399 0 1332.02282033 0 22470
0.14350000 0.14350900 11125.47197778 0 303.92202948 0 3482.40116801 0 -181.62045123 0 1268.31266333 0 22519
0.14450000 0.14449900 11039.77218368 0 157.39974069 0 3711.00038622 0 57.97823589 0 1450.96173353 0 22218
0.14550000 0.14550500 10823.82863274 0 150.41199650 0 3788.30735810 0 -233.26288142 0 1278.47705751 0 23559
0.14650000 0.14650700 10795.81565095 0 115.93609871 0 3775.07592994 0 -24.86910588 0 1221.32171680 0 23044
0.14750000 0.14750500 10707.63565609 0 152.75268597 0 3936.21147303 0 7.34966527 0 960.47545979 0 23649
0.14850000 0.14849900 10557.81602897 0 62.28824905 0 3755.72150616 0 203.34103083 0 923.87035394 0 23640
0.14950000 0.14949500 10380.33773446 0 218.38167686 0 3593.75553871 0 274.24709174 0 627.91264770 0 24457
0.15050000 0.15050000 10438.61137998 0 198.89106348 0 3440.29311673 0 296.96418057 0 1035.91120878 0 24591
0.15150000 0.15149900 10182.25384345 0 30.89078973 0 3195.04112199 0 74.71671222 0 673.05894491 0 25020
0.15250000 0.15250500 10120.79136838 0 81.30020583 0 3053.60324476 0 362.94527139 0 824.14303153 0 25297
0.15350000 0.15350100 9976.14251695 0 161.26508929 0 2997.78765535 0 17.29142822 0 757.73787066 0 25452
0.15450000 0.15450400 9815.57166243 0 234.83404431 0 2860.56833387 0 248.40650007 0 426.33433098 0 26061
0.15550000 0.15549900 9683.47882734 0 114.38818770 0 2882.43617539 0 92.79172887 0 568.83293693 0 26128
0.15650000 0.15649500 9491.65079986 0 259.79549338 0 2435.28033759 0 120.21665949 0 481.41139632 0 26331
0.15750000 0.15749700 9398.89793486 0 195.11097179 0 2394.53418225 0 158.52801059 0 577.62325560 0 27345
0.15850000 0.15849900 9190.98181941 0 130.25593640 0 2235.62417646 0 28.31060588 0 558.05070702 0 26980
0.15950000 0.15949700 9150.18030245 0 136.09548051 0 2482.58130921 0 153.51114022 0 689.40391081 0 27777
0.16050000 0.16050000 9008.93065474 0 32.35300095 0 2268.98509114 0 147.06151101 0 817.00359649 0 28224
0.16150000 0.16150500 8988.03717781 0 8.29998077 0 2246.65221198 0 311.28733995 0 510.51721658 0 28075
0.16250000 0.16249700 8989.32156749 0 24.95768448 0 2258.69890138 0 274.53054325 0 400.59560471 0 28590
0.16350000 0.16349900 8931.00363267 0 89.31568321 0 2138.36487525 0 -99.21799547 0 320.10533944 0 29163
0.16450000 0.16449100 9008.87529312 0 -12.66574308 0 2059.21989745 0 -128.60505277 0 267.74320814 0 28996
0.16550000 0.16550500 8878.57617465 0 91.91646159 0 2150.40049233 0 -258.85102408 0 -270.66519466 0 30777
0.16650000 0.16650700 8859.45426969 0 234.85840343 0 2264.58937818 0 -280.52399268 0 -302.14602858 0 29211
0.16750000 0.16749900 8641.07480729 0 134.78341002 0 2274.69841074 0 -144.14173895 0 -240.47871550 0 30922
0.16850000 0.16850800 8519.78856123 0 156.72432888 0 2311.50281844 0 1.07287174 0 -57.24956620 0 30867
0.16950000 0.16949900 8545.11096809 0 82.13915588 0 2237.41789308 0 358.73446626 0 -188.02689837 0 30852
0.17050000 0.17049200 8458.56967731 0 -9.19916427 0 2083.65651832 0 395.13030518 0 25.07759776 0 31257
0.17150000 0.17149500 8428.79619587 0 102.78328406 0 1948.97275923 0 304.14015428 0 411.59374495 0 32608
0.17250000 0.17250900 8391.13921916 0 54.57261023 0 1963.23391359 0 134.33719533 0 168.73005068 0 32361
0.17350000 0.17350400 8423.81364970 0 -25.94976478 0 1936.29494731 0 -19.37789711 0 -48.26481750 0 32508
0.17450000 0.17449800 8317.29788495 0 80.15355587 0 2024.69638866 0 -156.34454814 0 -55.34711935 0 32791
0.17550000 0.17549800 8283.26155845 0 215.94687264 0 2060.37141923 0 -402.92079292 0 -145.67525594 0 33633
0.17650000 0.17650100 8082.12170580 0 189.98227094 0 2093.41123649 0 -0.33173017 0 -162.20291520 0 33984
0.17750000 0.17750300 8013.06361590 0 220.72125910 0 2212.69339176 0 -53.88435452 0 -228.55935784 0 34069
0.17850000 0.17849800 7789.62410106 0 163.94127019 0 2248.47914557 0 176.46296233 0 -120.55436539 0 34536
