### header ###
fiducial parameters:
Omega_m = 0.31
Omega_nu = 0
Omega_de = 0.69
Omega_k = 0
H_0 = 100
w_de = -1
zeff = 0
beta = 0
fgrowth = 0
b_1 = 2
gamma = 0.55
Lx = 3500 Ly = 3500 Lz = 3500
nx = 700 ny = 700 nz = 700
xoffset = -685.467585 yoffset = -31.7331281 zoffset = 572.489161
bins = 400 dk = 0.001
kx_ny = 0.628318531 ky_ny = 0.628318531 kz_ny = 0.628318531
############################
A(data) = 8.03543233 (not used)
A(ran) = 8.03245403 (used)
Ngal = 476958
weighted Ngal = 0
Nran = 23820508
weighted Nran = 0
SN(data) = 3487.58198
SN(ran) = 69.9655877
SN(data+ran) = 3557.54757
############################
13 columns: k_central k_mean P_0(k) sigma^{lin}_{P_0(k)} P^img_1(k) sigma^{lin}_{P_1(k)} P_2(k) sigma^{lin}_{P_2(k)} P^img_3(k) sigma^{lin}_{P_3(k)} P_4(k) sigma^{lin}_{P_4(k)} N_modes
### header ###
0.00050000 0 0 0 0 0 0 0 0 0 0 0 0
0.00150000 0.00179520 574.50418170 0 -7873.44159994 0 -8381.19627147 0 -3923.33435926 0 -30625.16466239 0 3
0.00250000 0.00253879 6135.24161596 0 -15585.40441473 0 -28727.36818847 0 31493.45637467 0 -5856.34082610 0 6
0.00350000 0.00331552 14369.55242639 0 -20809.77015716 0 -17344.13248892 0 -26424.21390295 0 -19178.37381838 0 7
0.00450000 0.00420575 31017.67857721 0 -26252.92503800 0 -36543.10083146 0 -4689.07419907 0 -4941.55642191 0 24
0.00550000 0.00557378 49180.05587023 0 -15132.98922264 0 -32151.81680839 0 -29345.75752960 0 -2009.69338853 0 45
0.00650000 0.00659388 57279.12930532 0 -1860.93670459 0 -49498.60665526 0 -20634.71670177 0 30327.31912477 0 40
0.00750000 0.00754703 61644.72553482 0 -10611.25106855 0 -16211.21221348 0 -44868.38186260 0 -6137.27892373 0 57
0.00850000 0.00846663 63713.03581094 0 -443.65255423 0 -17347.12201662 0 -28082.84816078 0 2549.65745296 0 75
0.00950000 0.00948925 62939.41247586 0 12927.16067227 0 -363.04160062 0 -33991.48357700 0 -6843.75968111 0 112
0.01050000 0.01054430 57326.29740905 0 9002.80765912 0 21702.19953754 0 -21893.52931041 0 18716.87931994 0 105
0.01150000 0.01145670 56187.28735496 0 -11072.54626514 0 15537.68269476 0 4152.16609629 0 -10692.68801759 0 144
0.01250000 0.01249090 69546.82231139 0 -20940.20214352 0 29029.42120953 0 7805.14750046 0 -28388.11215603 0 169
0.01350000 0.01339930 82060.98526792 0 -6971.24642907 0 39545.91532228 0 -997.33633634 0 -34478.33369928 0 180
0.01450000 0.01448870 80119.56383422 0 10661.10974721 0 23096.42667870 0 389.53324498 0 -24438.39244672 0 267
0.01550000 0.01550050 77344.28561843 0 5836.98640232 0 11905.73870775 0 732.99676085 0 5711.33766028 0 238
0.01650000 0.01653350 74073.18869725 0 -1751.18782099 0 4002.01429943 0 7090.75003084 0 5002.49849771 0 315
0.01750000 0.01747870 78687.80151192 0 -1091.76333686 0 4406.80742247 0 294.09423397 0 4598.96761970 0 297
0.01850000 0.01844180 79641.90374154 0 -277.64518822 0 8717.13060647 0 11038.95283164 0 -10475.08361793 0 388
0.01950000 0.01947590 76896.96369575 0 2905.12336894 0 9672.92690179 0 220.52306448 0 6911.05727135 0 399
0.02050000 0.02045430 72929.30682024 0 2839.85201414 0 10510.99116732 0 7025.46760370 0 -647.89487230 0 462
0.02150000 0.02154770 74686.15259922 0 -3933.54304275 0 7850.21186247 0 -1873.33770839 0 1268.98807514 0 571
0.02250000 0.02255340 76304.04070172 0 2240.91674772 0 9515.57809379 0 -6386.79376352 0 -1715.92246644 0 510
0.02350000 0.02348930 75697.38802490 0 7167.27086766 0 21000.43559053 0 -11673.99494929 0 1647.88303043 0 555
0.02450000 0.02439640 72057.36124077 0 6899.13237752 0 20274.42325218 0 -6722.39592877 0 1631.13060298 0 592
0.02550000 0.02547300 65951.30627303 0 4496.42681955 0 22462.09318984 0 -2834.14976685 0 126.60760537 0 837
0.02650000 0.02652900 64802.99546609 0 3450.96683785 0 31936.79226041 0 4703.94433130 0 -2235.56881483 0 723
0.02750000 0.02749970 62367.85906873 0 1100.43296719 0 29860.39918717 0 4108.80687230 0 4815.99625847 0 826
0.02850000 0.02848090 62540.69805915 0 5515.55681284 0 35964.12896669 0 6896.98434651 0 3584.88660653 0 831
0.02950000 0.02946900 57049.04639559 0 4434.49930684 0 30884.69995614 0 -1240.29968154 0 12152.43010471 0 996
0.03050000 0.03053250 56246.85646248 0 2217.85309512 0 30812.72984482 0 3898.89773839 0 8509.09269545 0 1041
0.03150000 0.03150510 53154.57758713 0 466.69959834 0 36378.56608466 0 -3984.61967714 0 6449.72885778 0 1036
0.03250000 0.03246190 54801.03228766 0 1592.31103217 0 29747.90436701 0 6806.54559739 0 4246.97841371 0 1059
0.03350000 0.03345080 53927.97947571 0 -869.42219664 0 30815.16575628 0 4305.41814411 0 -1299.58090861 0 1302
0.03450000 0.03451200 52971.77350437 0 -1759.41455833 0 23773.83151111 0 8641.27410914 0 996.75725375 0 1339
0.03550000 0.03553350 56374.18819790 0 -2297.62919544 0 22684.64691870 0 6514.50195797 0 -7425.31139756 0 1365
0.03650000 0.03647120 51984.01140730 0 3167.45996087 0 12488.25371645 0 2245.21280975 0 -2914.70092991 0 1308
0.03750000 0.03744890 53695.90354751 0 4756.16141515 0 19966.16972922 0 2816.06866043 0 -2612.14965424 0 1579
0.03850000 0.03847530 47090.70817695 0 3788.59523855 0 18857.60856838 0 -96.22857849 0 2150.21226281 0 1662
0.03950000 0.03950240 46104.49620535 0 1983.67342521 0 20528.75455326 0 2683.41113677 0 2512.42122460 0 1683
0.04050000 0.04050350 45094.58945865 0 2023.96561522 0 22361.22431075 0 3610.58547244 0 6312.59811491 0 1822
0.04150000 0.04152450 45520.09890143 0 -1616.08331356 0 17895.86643463 0 1231.09857961 0 2562.97745972 0 1887
0.04250000 0.04250150 44835.93995088 0 -113.84896548 0 20950.27795911 0 1369.17047010 0 9030.01236120 0 1920
0.04350000 0.04349210 46029.42584308 0 1813.84610714 0 19159.32941969 0 3858.22908933 0 3647.91027940 0 2005
0.04450000 0.04448520 42169.39196481 0 2550.24428618 0 16433.43377259 0 1613.87992092 0 6946.20083033 0 2151
0.04550000 0.04548030 40722.68200400 0 3132.43819747 0 16914.74773245 0 3934.51740733 0 1905.25922084 0 2274
0.04650000 0.04648670 37945.63221624 0 861.09137945 0 14231.48053590 0 3064.98559467 0 3843.87935637 0 2311
0.04750000 0.04749250 37074.68314600 0 778.75757210 0 13804.31024440 0 5271.26811036 0 5801.22279316 0 2568
0.04850000 0.04851840 35518.13572300 0 1616.49298957 0 10303.17470279 0 1401.08091023 0 7439.55040727 0 2493
0.04950000 0.04949480 34418.54314526 0 1154.13484980 0 9460.39362690 0 5848.84486220 0 8108.21917540 0 2644
0.05050000 0.05050630 32878.38276298 0 1176.82204335 0 8184.27497457 0 1260.83884407 0 6298.83521516 0 2829
0.05150000 0.05149060 32689.26745508 0 568.30921597 0 9557.91866390 0 -1631.66207457 0 3646.91377017 0 2784
0.05250000 0.05249300 31831.49445138 0 -143.72874124 0 10467.18905033 0 -3957.60320458 0 2248.00303560 0 3055
0.05350000 0.05348950 32998.18531752 0 -164.58346503 0 13142.29594349 0 -4292.36387315 0 2486.02480223 0 3009
0.05450000 0.05448610 33195.82631554 0 -434.13256935 0 14549.03481170 0 -1862.78578284 0 2404.53249157 0 3336
0.05550000 0.05550870 35232.02684968 0 -355.65968166 0 15127.01016723 0 1348.96347731 0 543.89363251 0 3349
0.05650000 0.05647670 35751.42960693 0 -1531.43539032 0 13434.49459546 0 2377.46065738 0 2485.38260739 0 3324
0.05750000 0.05747970 35670.71235900 0 -1430.55543889 0 13357.20976822 0 4516.43451050 0 -1594.29297831 0 3639
0.05850000 0.05849280 37177.87721331 0 200.39136350 0 11689.05331104 0 3761.63412761 0 -38.81923864 0 3846
0.05950000 0.05951020 36072.74847316 0 680.02786615 0 8646.69954830 0 2408.29708200 0 -1760.05675317 0 3787
0.06050000 0.06049470 34833.53387946 0 1269.39775116 0 4598.36971416 0 1943.42552449 0 -2429.96562167 0 3930
0.06150000 0.06148310 33037.15990088 0 1259.46587580 0 4961.55304053 0 -861.49773377 0 -3126.03839372 0 4083
0.06250000 0.06249100 32528.94019171 0 1793.16300438 0 3963.87014043 0 -360.28127004 0 -5010.59236716 0 4303
0.06350000 0.06350600 30776.08044967 0 1184.10763308 0 5122.97646407 0 -1609.68350981 0 -3107.30402013 0 4470
0.06450000 0.06451750 30721.82605806 0 -233.87739545 0 4612.86338735 0 -475.09795671 0 -5039.36933936 0 4479
0.06550000 0.06550280 31262.81984870 0 -644.73925972 0 6553.26616716 0 -767.17702757 0 -5434.79527561 0 4636
0.06650000 0.06648880 31709.47743188 0 413.18815972 0 5774.11774200 0 515.66363315 0 -5354.96381367 0 4653
0.06750000 0.06749660 30597.26240385 0 1553.41395508 0 7264.56338584 0 -933.01166531 0 -2521.57803722 0 5220
0.06850000 0.06852730 29613.48634371 0 689.28654417 0 6901.39113179 0 1465.36682812 0 -363.64393509 0 5029
0.06950000 0.06949320 29033.29652321 0 139.41828519 0 7154.08372880 0 1525.34561167 0 947.50312403 0 5040
0.07050000 0.07048030 28573.68431999 0 323.94189999 0 5533.71542554 0 2977.72460278 0 -84.32117893 0 5475
0.07150000 0.07148790 28500.93914593 0 1014.59587627 0 7546.05509970 0 103.42581107 0 3690.04047534 0 5509
0.07250000 0.07249820 27450.61841364 0 362.90208933 0 7098.71103238 0 -1066.26820173 0 3304.39140190 0 5916
0.07350000 0.07351270 27238.36194686 0 690.05385628 0 8869.12040926 0 -1658.75605341 0 5422.39427181 0 5721
0.07450000 0.07449140 27048.47157622 0 598.72378501 0 9398.57683744 0 -213.65822310 0 5782.45520259 0 6028
0.07550000 0.07549160 27085.56386437 0 -427.50578295 0 9939.02808416 0 798.09095846 0 4873.90451727 0 6183
0.07650000 0.07648840 26960.11442417 0 317.68160753 0 9686.54586132 0 1124.48316393 0 5843.76266511 0 6330
0.07750000 0.07749960 26855.25950814 0 617.53787934 0 9466.16230813 0 2074.18968060 0 5063.19698237 0 6583
0.07850000 0.07848650 25400.68819671 0 606.10127504 0 8762.66000613 0 2085.08484822 0 4966.22556161 0 6549
0.07950000 0.07947320 25457.71066953 0 681.30671967 0 7879.67531881 0 220.75115437 0 3823.42877243 0 6828
0.08050000 0.08048110 24703.46390288 0 822.05811277 0 7064.89615238 0 -310.24211249 0 2799.77019829 0 7147
0.08150000 0.08149960 24336.74850489 0 643.20463550 0 8091.45567562 0 -1458.23625094 0 2088.87158331 0 7386
0.08250000 0.08250610 22811.64648437 0 806.21140149 0 8218.51060291 0 -1856.60742559 0 2274.37731332 0 7227
0.08350000 0.08350160 23537.76954597 0 534.08687442 0 8607.81354354 0 -366.69657504 0 2201.45498207 0 7798
0.08450000 0.08449610 22866.34376897 0 496.60262598 0 8684.85477963 0 910.21817744 0 718.17091792 0 7371
0.08550000 0.08548940 22129.03765930 0 323.56544094 0 7993.86420467 0 1737.10382382 0 1060.66117644 0 8256
0.08650000 0.08650700 21962.39917078 0 175.96138602 0 6772.91894692 0 1772.87850531 0 537.44843223 0 8037
0.08750000 0.08749060 21767.41553072 0 313.71771525 0 5883.09156287 0 1629.54726053 0 539.70165033 0 8155
0.08850000 0.08849210 21876.03503719 0 52.91563682 0 5943.03712943 0 -605.70599304 0 1509.32395765 0 8718
0.08950000 0.08949900 21296.84172593 0 450.31477207 0 6000.00424063 0 -532.99957212 0 1112.29253431 0 8571
0.09050000 0.09049190 21174.71398318 0 416.94167784 0 6459.38392503 0 -468.57303570 0 877.64118336 0 8932
0.09150000 0.09150830 20687.97458415 0 807.20680349 0 7295.04549606 0 59.87603237 0 1015.67985687 0 9285
0.09250000 0.09250820 19884.56669531 0 858.86473493 0 7092.26693934 0 516.48962858 0 373.30232403 0 9204
0.09350000 0.09350330 19235.39629119 0 392.65453335 0 6886.02274494 0 285.94057398 0 -448.89308557 0 9349
0.09450000 0.09448040 19019.26451073 0 364.09125701 0 6368.13689620 0 124.57583377 0 252.73356461 0 9564
0.09550000 0.09549270 18593.20145171 0 415.88648528 0 7163.41769862 0 -638.26637864 0 -420.71955506 0 10155
0.09650000 0.09649430 18172.45310860 0 818.88035554 0 6999.33691713 0 -115.41791391 0 -803.60940515 0 9913
0.09750000 0.09749140 17688.92468377 0 448.84768903 0 7765.88503665 0 -352.85506179 0 555.55943394 0 10476
0.09850000 0.09850240 17253.33942541 0 207.92054437 0 7078.92478793 0 380.16495095 0 862.01481134 0 10575
0.09950000 0.09950330 17754.91573969 0 -109.53241965 0 8010.78271699 0 1338.43369640 0 734.59117563 0 10882
0.10050000 0.10051200 17706.41895699 0 71.92360756 0 8381.97133421 0 643.86786776 0 888.79322891 0 10875
0.10150000 0.10150300 17706.97257323 0 351.29386399 0 7704.30076601 0 -190.05091935 0 1380.50853071 0 11118
0.10250000 0.10250800 17196.09550610 0 651.36272443 0 8237.92038832 0 -410.64595394 0 1938.76407574 0 11575
0.10350000 0.10349800 16894.81754778 0 477.12751385 0 8122.26995559 0 -491.64443892 0 1908.14909762 0 11364
0.10450000 0.10450100 16461.55747763 0 217.21465383 0 8292.19692458 0 365.44983127 0 2052.73151510 0 12093
0.10550000 0.10551000 16422.69361751 0 -391.81635836 0 7535.04920883 0 1603.42764629 0 1324.61543503 0 12067
0.10650000 0.10649700 16543.60340453 0 -175.35905155 0 7207.29732188 0 1508.78141374 0 609.35100237 0 12054
0.10750000 0.10749900 16543.27123479 0 285.92064379 0 6656.61524702 0 485.09958772 0 -172.98293064 0 12807
0.10850000 0.10850100 16222.83815454 0 758.60594093 0 5991.46747819 0 -69.13338170 0 1368.88258965 0 12736
0.10950000 0.10950300 15590.27623765 0 330.12800786 0 6462.03021066 0 -183.02552925 0 1929.13115315 0 12933
0.11050000 0.11050200 15575.88221538 0 237.96197607 0 6841.92167519 0 414.40943715 0 2174.34993091 0 13428
0.11150000 0.11150900 15292.65214652 0 -4.53030813 0 6783.67017432 0 1113.56585166 0 2055.17849889 0 13453
0.11250000 0.11250000 15220.68203520 0 232.82552459 0 6246.45204644 0 647.31468248 0 1688.91706621 0 13668
0.11350000 0.11349100 14970.22604780 0 233.51311596 0 6192.85092199 0 630.42052927 0 1425.89399015 0 13791
0.11450000 0.11448600 14674.48425190 0 325.77990591 0 5720.51661755 0 474.55873449 0 1152.82831547 0 14205
0.11550000 0.11549300 14409.85568873 0 476.75880544 0 5022.72763516 0 -95.30713962 0 571.35742699 0 14776
0.11650000 0.11649800 14020.88491785 0 68.63446275 0 4648.50520094 0 22.87453729 0 804.36343047 0 14553
0.11750000 0.11747300 13994.86495453 0 -183.15728992 0 4380.05668571 0 -14.79683344 0 -269.37416158 0 14568
0.11850000 0.11849100 14254.73241802 0 -35.19094852 0 4206.42048790 0 67.64825077 0 -385.62360709 0 16015
0.11950000 0.11950300 13910.82600915 0 73.54138494 0 4117.76438308 0 -162.12540892 0 -893.43806917 0 15270
0.12050000 0.12050700 14223.84063178 0 195.79524147 0 4248.90499823 0 -200.41572261 0 -788.19119284 0 15999
0.12150000 0.12150000 14174.56878633 0 161.69137379 0 3963.99193600 0 -101.00263278 0 -484.99661510 0 15670
0.12250000 0.12250700 13836.41998637 0 67.17291587 0 4137.06344524 0 421.41489706 0 -1002.84149624 0 16887
0.12350000 0.12352200 13760.35311487 0 -10.81535830 0 4254.34150972 0 286.49308299 0 -253.17092144 0 16407
0.12450000 0.12449800 13937.17814222 0 169.53500869 0 4353.52739544 0 880.49673593 0 -810.93485525 0 16306
0.12550000 0.12549900 13622.72411737 0 323.17680234 0 3986.46875538 0 233.00932518 0 -133.56656152 0 17523
0.12650000 0.12650100 13368.06064654 0 514.94282481 0 4051.62938694 0 119.78926775 0 -206.86313735 0 17154
0.12750000 0.12750600 13089.81312385 0 416.28841067 0 4061.98201064 0 -416.23858521 0 644.51670600 0 18007
0.12850000 0.12850300 12793.07481871 0 98.17498247 0 3988.52820780 0 27.13073895 0 864.52047845 0 17496
0.12950000 0.12949900 12716.01143797 0 -150.24148270 0 4008.74627292 0 549.95462311 0 836.91827990 0 18405
0.13050000 0.13049000 12965.24946964 0 -206.55754119 0 3682.47807748 0 940.97266685 0 472.15271831 0 18100
0.13150000 0.13148800 12923.28535858 0 80.69045290 0 3521.59719787 0 577.64540025 0 -6.92185279 0 19059
0.13250000 0.13249300 12702.94609469 0 471.44630399 0 3358.73437211 0 99.79087755 0 -8.84240289 0 18957
0.13350000 0.13349100 11974.94073786 0 567.35699603 0 3549.58803501 0 -414.61206069 0 -46.15841843 0 19468
0.13450000 0.13450700 11866.65340114 0 456.16871020 0 3742.23541453 0 -288.88138345 0 -184.09733029 0 19953
0.13550000 0.13551000 11471.26068186 0 -10.30163565 0 3576.15054225 0 -361.22020319 0 -7.79871448 0 19956
0.13650000 0.13649900 11747.51518609 0 -207.90282865 0 3807.21888889 0 51.61187057 0 -1007.47194248 0 19723
0.13750000 0.13749600 11644.87473502 0 23.88444404 0 3780.09169309 0 -123.04563848 0 -772.80841197 0 20946
0.13850000 0.13851100 11890.56962274 0 200.07580224 0 3483.64126839 0 121.54644570 0 -768.92645489 0 20955
0.13950000 0.13949800 11698.24334064 0 -24.68751976 0 3288.84585786 0 123.42541922 0 -140.90529841 0 20506
0.14050000 0.14048300 11825.57507606 0 -89.53945490 0 3610.96193148 0 485.15937828 0 -245.67052861 0 21447
0.14150000 0.14148400 11765.45235229 0 136.13866258 0 3500.82551651 0 308.22584214 0 108.94990464 0 21771
0.14250000 0.14249400 11622.06574589 0 330.53104049 0 3826.26328758 0 119.28547697 0 37.62907445 0 22470
0.14350000 0.14350900 11249.59273899 0 440.89111642 0 3635.40962468 0 -85.19666766 0 458.78952949 0 22519
0.14450000 0.14449900 11138.31587457 0 314.71533172 0 4073.34221591 0 -87.52484540 0 678.47552621 0 22218
0.14550000 0.14550500 10783.82432317 0 160.14789171 0 3704.60058247 0 263.37296153 0 1031.84434387 0 23559
0.14650000 0.14650700 10737.81881355 0 83.79513278 0 3556.99542031 0 611.74483900 0 951.81579455 0 23044
0.14750000 0.14750500 10615.89037265 0 75.80567536 0 3390.08012367 0 520.19221400 0 278.27298904 0 23649
0.14850000 0.14849900 10484.71654052 0 120.39049499 0 2964.43781300 0 271.61962906 0 677.14574000 0 23640
0.14950000 0.14949500 10230.11950364 0 254.44866773 0 2670.15756397 0 51.53934684 0 361.77714112 0 24457
0.15050000 0.15050000 10214.47430867 0 20.76548086 0 2765.86673970 0 133.08602262 0 708.86905784 0 24591
0.15150000 0.15149900 10047.57008436 0 52.59819326 0 2728.55300506 0 163.05659144 0 294.71982033 0 25020
0.15250000 0.15250500 10103.27495052 0 117.07654817 0 2693.95199000 0 -113.20677064 0 223.32768436 0 25297
0.15350000 0.15350100 9956.68844224 0 379.23598290 0 2913.72656533 0 2.81995505 0 465.38309892 0 25452
0.15450000 0.15450400 9650.52758868 0 305.01929687 0 2760.91741050 0 -17.67608079 0 582.47071941 0 26061
0.15550000 0.15549900 9410.42422499 0 199.18337286 0 2816.17938367 0 58.21363352 0 846.02526707 0 26128
0.15650000 0.15649500 9319.64223380 0 87.74950287 0 2835.01340819 0 251.08157375 0 538.55345025 0 26331
0.15750000 0.15749700 9337.34688119 0 -68.80874114 0 2813.18985597 0 123.21504505 0 293.75431360 0 27345
0.15850000 0.15849900 9249.47691143 0 108.47224455 0 2681.19667181 0 -36.66899316 0 382.87545607 0 26980
0.15950000 0.15949700 9226.83400717 0 225.05275257 0 2807.69798286 0 -227.34250934 0 337.64943811 0 27777
0.16050000 0.16050000 9167.70779264 0 92.43121397 0 2706.05404103 0 84.37022933 0 389.96063672 0 28224
0.16150000 0.16150500 9073.32729589 0 -34.59636468 0 2665.46289824 0 46.27999255 0 92.52289282 0 28075
0.16250000 0.16249700 9029.91271027 0 60.57613547 0 2529.40617087 0 181.38461071 0 31.27389217 0 28590
0.16350000 0.16349900 9085.91652921 0 82.62179852 0 2525.99589483 0 198.38948717 0 -151.43175761 0 29163
0.16450000 0.16449100 8854.27242168 0 140.88204653 0 2204.42236512 0 265.63060856 0 49.78460481 0 28996
0.16550000 0.16550500 8834.92907022 0 -28.76047444 0 1917.69344162 0 344.52756629 0 75.37739784 0 30777
0.16650000 0.16650700 8744.91106944 0 80.28088761 0 2004.05757520 0 292.33041263 0 -145.78265749 0 29211
0.16750000 0.16749900 8709.62357025 0 218.55772683 0 1792.39901397 0 111.38758768 0 260.43215206 0 30922
0.16850000 0.16850800 8435.68318191 0 275.80718230 0 1929.37474430 0 39.23843686 0 339.49298019 0 30867
0.16950000 0.16949900 8319.22446946 0 263.72727593 0 2081.56384893 0 2.02341200 0 762.13469085 0 30852
0.17050000 0.17049200 8181.98300334 0 -5.75331284 0 2072.13022819 0 247.70008575 0 1024.73923304 0 31257
0.17150000 0.17149500 8261.67052506 0 -77.05740168 0 1945.45175994 0 535.24393236 0 1161.26542698 0 32608
0.17250000 0.17250900 8346.36273759 0 -114.42140468 0 1806.90375948 0 328.77054084 0 1038.48995323 0 32361
0.17350000 0.17350400 8384.50689660 0 86.73007392 0 1817.28960016 0 -68.67044780 0 1130.04147099 0 32508
0.17450000 0.17449800 8271.51382182 0 267.78306851 0 1815.23014774 0 -253.27500130 0 845.74513725 0 32791
0.17550000 0.17549800 8092.61826973 0 230.65313446 0 1746.50422759 0 -392.76082766 0 951.83240303 0 33633
0.17650000 0.17650100 7994.49532718 0 132.65641642 0 1881.26549296 0 21.55183737 0 652.39023617 0 33984
0.17750000 0.17750300 7838.50841514 0 63.47553444 0 1983.81736543 0 20.33742478 0 217.47928239 0 34069
0.17850000 0.17849800 7785.19517114 0 121.54423123 0 1877.01372023 0 94.39876609 0 241.76531965 0 34536
