### header ###
fiducial parameters:
Omega_m = 0.31
Omega_nu = 0
Omega_de = 0.69
Omega_k = 0
H_0 = 100
w_de = -1
zeff = 0
beta = 0
fgrowth = 0
b_1 = 2
gamma = 0.55
Lx = 3500 Ly = 3500 Lz = 3500
nx = 700 ny = 700 nz = 700
xoffset = -685.467585 yoffset = -31.7331281 zoffset = 572.489161
bins = 400 dk = 0.001
kx_ny = 0.628318531 ky_ny = 0.628318531 kz_ny = 0.628318531
############################
A(data) = 8.04152047 (not used)
A(ran) = 8.03724226 (used)
Ngal = 477805
weighted Ngal = 0
Nran = 23820508
weighted Nran = 0
SN(data) = 3491.80128
SN(ran) = 70.0072949
SN(data+ran) = 3561.80858
############################
13 columns: k_central k_mean P_0(k) sigma^{lin}_{P_0(k)} P^img_1(k) sigma^{lin}_{P_1(k)} P_2(k) sigma^{lin}_{P_2(k)} P^img_3(k) sigma^{lin}_{P_3(k)} P_4(k) sigma^{lin}_{P_4(k)} N_modes
### header ###
0.00050000 0 0 0 0 0 0 0 0 0 0 0 0
0.00150000 0.00179520 77147.86257614 0 -28550.65388437 0 123537.24969908 0 22324.24274585 0 -215517.26643254 0 3
0.00250000 0.00253879 156809.58577911 0 -48278.54718350 0 67910.55414969 0 -31528.00202810 0 57630.23272532 0 6
0.00350000 0.00331552 145057.42021660 0 -7285.23541628 0 -16757.74216652 0 29290.50662875 0 118964.37954898 0 7
0.00450000 0.00420575 133657.35458333 0 35514.70330230 0 -15644.30918276 0 -22152.40026467 0 8346.53989479 0 24
0.00550000 0.00557378 109657.97981566 0 23429.81437899 0 25172.37685895 0 -11280.26307874 0 -39400.31425091 0 45
0.00650000 0.00659388 90319.27873391 0 8949.32833024 0 51451.10041378 0 -24917.60266487 0 -10954.06131726 0 40
0.00750000 0.00754703 76681.27480829 0 15112.39469847 0 34633.89986298 0 14662.74758759 0 -32569.24345405 0 57
0.00850000 0.00846663 66654.50962227 0 9635.02633394 0 44382.19607981 0 11068.32770939 0 -22254.92999249 0 75
0.00950000 0.00948925 54601.17682469 0 96.18993608 0 19975.69192857 0 25871.70489450 0 -36539.44696427 0 112
0.01050000 0.01054430 61995.38606183 0 -1148.33295159 0 3588.73977557 0 20470.84629446 0 -29079.57884096 0 105
0.01150000 0.01145670 56196.25593806 0 -5186.78627200 0 -8769.41412427 0 10949.12306039 0 -11595.49216633 0 144
0.01250000 0.01249090 59955.31021399 0 -8988.22540733 0 -20875.42904333 0 5906.79741030 0 -10157.05323216 0 169
0.01350000 0.01339930 70571.01235712 0 -16163.60121676 0 -14891.61254159 0 -1244.90576866 0 -14877.99358206 0 180
0.01450000 0.01448870 82422.27522676 0 -3898.88666607 0 -9816.44637609 0 -12313.31098432 0 -11964.20058279 0 267
0.01550000 0.01550050 91802.08447362 0 5148.07742443 0 10536.39108045 0 -26213.83973139 0 6088.23959711 0 238
0.01650000 0.01653350 75424.12304838 0 14335.11749621 0 17849.91628664 0 -24788.38863424 0 18960.58118919 0 315
0.01750000 0.01747870 75512.59092368 0 10803.59949530 0 39262.35308367 0 798.39766186 0 36163.87370642 0 297
0.01850000 0.01844180 66519.64870597 0 5409.27356690 0 43785.95138833 0 19878.91980965 0 17775.28881736 0 388
0.01950000 0.01947590 67051.00957402 0 1155.74033690 0 35998.78534338 0 18116.31642177 0 24865.56273823 0 399
0.02050000 0.02045430 67608.72257514 0 -3112.65195302 0 26685.29932217 0 15643.53412002 0 17212.26110033 0 462
0.02150000 0.02154770 68758.91567730 0 -2807.00042640 0 24682.53720897 0 6421.85981622 0 25461.14309022 0 571
0.02250000 0.02255340 68649.74255459 0 599.65053860 0 14311.97633733 0 4023.71605607 0 20189.83069056 0 510
0.02350000 0.02348930 71661.19345876 0 1951.25365814 0 23872.48592524 0 -6762.87634831 0 17564.80392256 0 555
0.02450000 0.02439640 68942.05192980 0 5758.53898098 0 33432.10972717 0 -6572.84203744 0 24057.61519621 0 592
0.02550000 0.02547300 65633.19838099 0 2766.58644081 0 32665.12978698 0 1160.37964099 0 19361.06717788 0 837
0.02650000 0.02652900 67117.22207644 0 1021.51718651 0 33427.45935074 0 6336.65827674 0 24127.92445881 0 723
0.02750000 0.02749970 64235.87098888 0 4890.38013660 0 39266.89273685 0 12252.19175132 0 16254.06211052 0 826
0.02850000 0.02848090 61531.78782167 0 874.93842887 0 33967.23518565 0 10053.85916485 0 15804.30427639 0 831
0.02950000 0.02946900 61611.39783712 0 -823.95258754 0 33224.72508331 0 9515.09091150 0 11240.51343264 0 996
0.03050000 0.03053250 64201.21461220 0 -3318.79649649 0 27290.51259676 0 3531.50692858 0 16700.27680072 0 1041
0.03150000 0.03150510 64898.32818278 0 1129.67608427 0 30700.56719441 0 4155.66495093 0 13275.71745756 0 1036
0.03250000 0.03246190 63364.36830240 0 3301.29115095 0 19857.21805301 0 6463.40317894 0 18447.60038035 0 1059
0.03350000 0.03345080 59677.50558429 0 1760.30034432 0 21861.41956843 0 7082.68937837 0 20280.40230758 0 1302
0.03450000 0.03451200 56733.59586151 0 2881.38430453 0 19223.65962689 0 -184.20473185 0 9380.76146680 0 1339
0.03550000 0.03553350 57103.96512669 0 -339.50737422 0 18135.80371345 0 6688.97965247 0 8886.12750018 0 1365
0.03650000 0.03647120 54139.57160300 0 1500.51038710 0 18213.30998718 0 -2260.61441357 0 4451.36245754 0 1308
0.03750000 0.03744890 53225.99408221 0 3477.73971926 0 17485.08318386 0 1626.91204723 0 4124.06453590 0 1579
0.03850000 0.03847530 51244.60155591 0 2286.33542413 0 16901.68238917 0 -236.15054373 0 8600.78261728 0 1662
0.03950000 0.03950240 49527.72686954 0 1045.40794177 0 16347.84470174 0 1572.44728144 0 -184.52915096 0 1683
0.04050000 0.04050350 47415.12729414 0 3749.06703894 0 16972.32382151 0 -1141.20237441 0 -1751.13245937 0 1822
0.04150000 0.04152450 44511.29938720 0 4990.11963857 0 17286.00278362 0 -4282.04446641 0 -413.99422497 0 1887
0.04250000 0.04250150 39647.22709437 0 3306.36227572 0 20596.18501140 0 -1635.28272479 0 3362.57646882 0 1920
0.04350000 0.04349210 40291.52567556 0 939.94626234 0 19450.31011592 0 1868.98628474 0 2062.30907607 0 2005
0.04450000 0.04448520 39700.92786974 0 -2139.71569888 0 20210.31449148 0 2840.88174034 0 4059.81183498 0 2151
0.04550000 0.04548030 41651.09644005 0 -932.53444811 0 19516.96551133 0 3888.99908000 0 2003.55932058 0 2274
0.04650000 0.04648670 41314.27631906 0 169.51507851 0 19837.06642184 0 5909.21117711 0 5119.90943009 0 2311
0.04750000 0.04749250 40952.32202074 0 1680.65711190 0 18112.21966159 0 2802.43862857 0 6196.80374195 0 2568
0.04850000 0.04851840 39477.04546191 0 1403.05178404 0 15812.71924325 0 4065.32585274 0 10922.97022917 0 2493
0.04950000 0.04949480 38333.60647788 0 1340.74781229 0 15148.82264713 0 3949.57576908 0 9814.16547718 0 2644
0.05050000 0.05050630 36947.01924084 0 769.81334811 0 12558.56297905 0 4385.21638907 0 10890.42866653 0 2829
0.05150000 0.05149060 37103.13902079 0 -30.39497103 0 15018.61210726 0 706.08658262 0 12024.76619955 0 2784
0.05250000 0.05249300 36525.27438850 0 189.72096407 0 11818.71023467 0 238.86990671 0 6624.67158992 0 3055
0.05350000 0.05348950 36426.28780462 0 856.88943218 0 11894.22348993 0 30.80287548 0 7384.31057875 0 3009
0.05450000 0.05448610 35707.14030765 0 1344.23559461 0 11715.62689061 0 -1434.97329650 0 3904.87679379 0 3336
0.05550000 0.05550870 34114.38638249 0 516.37558364 0 10032.11311891 0 -801.40269082 0 2691.33892134 0 3349
0.05650000 0.05647670 34470.14017891 0 60.89346830 0 11480.89360445 0 -926.38487890 0 866.06506776 0 3324
0.05750000 0.05747970 33361.68974132 0 1566.67860021 0 11611.10414432 0 -1657.16163863 0 879.63309459 0 3639
0.05850000 0.05849280 32970.72595197 0 1397.46026001 0 12296.14888085 0 -306.46534249 0 730.59628083 0 3846
0.05950000 0.05951020 31398.01293473 0 677.49894717 0 12258.83514621 0 1866.51715630 0 3661.13063523 0 3787
0.06050000 0.06049470 31140.91355244 0 -151.58677016 0 11781.72866978 0 1740.85734194 0 2730.65674677 0 3930
0.06150000 0.06148310 31906.89698340 0 28.74231583 0 12549.04077971 0 2085.22878845 0 1377.40827976 0 4083
0.06250000 0.06249100 31649.68687786 0 -50.92660439 0 12007.27192633 0 459.76832300 0 1348.83060941 0 4303
0.06350000 0.06350600 32180.71557616 0 618.11142577 0 12606.61686877 0 -1002.61672805 0 1508.65961816 0 4470
0.06450000 0.06451750 30366.07226163 0 1073.59365183 0 12204.13786161 0 -705.13546991 0 4127.81805402 0 4479
0.06550000 0.06550280 31239.01435034 0 -107.94664129 0 12168.92786869 0 1365.94842358 0 -433.98420020 0 4636
0.06650000 0.06648880 30205.96644476 0 182.96795316 0 12332.90899925 0 968.30470067 0 -975.14961187 0 4653
0.06750000 0.06749660 30653.84198367 0 649.87017505 0 11096.46248675 0 1298.83906285 0 -1796.66185902 0 5220
0.06850000 0.06852730 29051.12296617 0 331.92393895 0 9679.14954834 0 1043.09825482 0 -323.95850847 0 5029
0.06950000 0.06949320 29136.71203702 0 313.82733126 0 7993.60954120 0 1139.24257292 0 248.97561757 0 5040
0.07050000 0.07048030 28740.10136202 0 -336.67285906 0 9062.43212827 0 1964.33007375 0 946.69595155 0 5475
0.07150000 0.07148790 29490.58353822 0 319.33359840 0 9358.66110646 0 1067.81611274 0 1831.06357223 0 5509
0.07250000 0.07249820 28702.45545763 0 754.66530052 0 8983.66360951 0 1207.43702147 0 2259.30787924 0 5916
0.07350000 0.07351270 28336.18295263 0 1065.52746320 0 10069.75902329 0 -118.92673364 0 4047.93123045 0 5721
0.07450000 0.07449140 26894.34481475 0 1101.12720196 0 10308.13510431 0 921.92605370 0 5266.41843209 0 6028
0.07550000 0.07549160 26683.41702695 0 772.46184821 0 10857.17847510 0 249.92119411 0 5570.64162881 0 6183
0.07650000 0.07648840 26069.01372277 0 382.63407939 0 10892.06737060 0 1141.14701278 0 5772.19115748 0 6330
0.07750000 0.07749960 25358.50263915 0 56.56496435 0 9537.86668365 0 2065.98508791 0 4406.86278409 0 6583
0.07850000 0.07848650 25424.27224858 0 -424.08664904 0 8405.48895213 0 984.22006036 0 3423.18637488 0 6549
0.07950000 0.07947320 25076.37980277 0 721.75613670 0 7440.55798883 0 970.37522541 0 -242.19381862 0 6828
0.08050000 0.08048110 24225.69308696 0 647.38333089 0 6336.84650626 0 -268.01337286 0 1062.74388074 0 7147
0.08150000 0.08149960 23642.73518526 0 947.00376218 0 5871.08916276 0 -715.50802380 0 45.50027944 0 7386
0.08250000 0.08250610 23769.84547417 0 308.38196192 0 6209.19367342 0 -808.90640535 0 409.36156427 0 7227
0.08350000 0.08350160 23362.71609059 0 -225.20444342 0 6982.32982621 0 -264.51783992 0 652.92502946 0 7798
0.08450000 0.08449610 23613.94714073 0 322.52464241 0 7466.45615658 0 -551.86792084 0 -74.97879414 0 7371
0.08550000 0.08548940 23866.06397685 0 575.05779794 0 9100.74237214 0 -268.77625604 0 919.18676054 0 8256
0.08650000 0.08650700 22734.25093389 0 806.95546171 0 9999.66013487 0 -366.21935784 0 1499.53602251 0 8037
0.08750000 0.08749060 22856.48939988 0 788.20890856 0 10640.38235515 0 -827.20342211 0 1670.06089705 0 8155
0.08850000 0.08849210 21660.45687297 0 667.87931136 0 10088.70377106 0 837.42207068 0 2318.11299636 0 8718
0.08950000 0.08949900 21365.60086305 0 677.20663779 0 10461.44251375 0 664.87981857 0 2464.67735998 0 8571
0.09050000 0.09049190 20392.78640449 0 248.12304856 0 9039.37954799 0 1220.36949686 0 1664.03755234 0 8932
0.09150000 0.09150830 20371.97043383 0 255.45957098 0 8839.70124221 0 1149.92736637 0 846.01530198 0 9285
0.09250000 0.09250820 19826.32626676 0 543.43080933 0 7754.34767419 0 923.76184515 0 228.54274935 0 9204
0.09350000 0.09350330 19550.95754852 0 41.47825745 0 6720.32540403 0 742.15357348 0 360.25580369 0 9349
0.09450000 0.09448040 19753.35964621 0 -253.68246285 0 6817.44076501 0 915.48417512 0 1106.42530939 0 9564
0.09550000 0.09549270 19466.69715665 0 225.49343109 0 5909.20010479 0 814.19897661 0 414.23227995 0 10155
0.09650000 0.09649430 19469.79740760 0 679.97361176 0 6092.30314031 0 1006.91500454 0 881.83648723 0 9913
0.09750000 0.09749140 18503.40489743 0 556.92354436 0 4981.69359938 0 205.97624414 0 1087.19489564 0 10476
0.09850000 0.09850240 18118.75233323 0 221.84399283 0 5197.03924478 0 983.54354132 0 1436.01409503 0 10575
0.09950000 0.09950330 17997.28892997 0 307.67997653 0 5310.64129742 0 540.99046894 0 1232.29439069 0 10882
0.10050000 0.10051200 17646.18550997 0 512.11384581 0 4688.27699169 0 -52.41472484 0 1826.01459212 0 10875
0.10150000 0.10150300 16791.40203397 0 525.87231663 0 4649.30240832 0 -41.57336872 0 1828.62766077 0 11118
0.10250000 0.10250800 16762.17109645 0 612.41360742 0 5426.04813900 0 -340.91134500 0 1689.78070755 0 11575
0.10350000 0.10349800 16329.24319604 0 115.04034763 0 4772.50416658 0 292.11118060 0 2174.98105343 0 11364
0.10450000 0.10450100 16382.94397141 0 56.06316659 0 5171.35145120 0 139.12265411 0 1676.88144913 0 12093
0.10550000 0.10551000 16161.60819829 0 133.58538447 0 5353.86765351 0 96.21075205 0 2724.69983602 0 12067
0.10650000 0.10649700 16447.49562511 0 79.18771698 0 4990.50716994 0 58.85959295 0 1202.02265464 0 12054
0.10750000 0.10749900 16231.25312140 0 -13.51022930 0 5726.01956299 0 44.83749008 0 1627.95284576 0 12807
0.10850000 0.10850100 16443.17741843 0 14.69585384 0 5660.00636242 0 -264.65292228 0 1690.32325146 0 12736
0.10950000 0.10950300 16232.69252362 0 238.42922818 0 5632.18161015 0 -3.52457565 0 1073.66783641 0 12933
0.11050000 0.11050200 15973.60012287 0 304.47121679 0 5304.16398740 0 466.97308476 0 1108.39507597 0 13428
0.11150000 0.11150900 15667.00744864 0 470.30142560 0 5402.47515946 0 652.43120378 0 283.47144554 0 13453
0.11250000 0.11250000 15286.78381437 0 288.16943296 0 5046.34490400 0 300.30580820 0 395.12587625 0 13668
0.11350000 0.11349100 14798.93718286 0 449.67589893 0 4378.89409160 0 319.02468053 0 -456.80204718 0 13791
0.11450000 0.11448600 14542.94503305 0 376.54651520 0 4581.86087785 0 -462.93722237 0 388.55666593 0 14205
0.11550000 0.11549300 14189.84859458 0 457.71329952 0 4405.21300770 0 125.71849769 0 48.32272576 0 14776
0.11650000 0.11649800 14228.60173145 0 71.50939189 0 4436.44803601 0 5.77138288 0 251.74480601 0 14553
0.11750000 0.11747300 13900.08585408 0 -49.44645601 0 4232.48474053 0 257.54116805 0 202.13414742 0 14568
0.11850000 0.11849100 14177.77976053 0 -161.18426131 0 4293.30502075 0 487.37162877 0 -111.31118863 0 16015
0.11950000 0.11950300 14108.79917691 0 -56.20123848 0 4014.89141319 0 408.48685060 0 454.91310857 0 15270
0.12050000 0.12050700 14130.16876381 0 286.55619524 0 4168.03273776 0 226.12344638 0 104.12668923 0 15999
0.12150000 0.12150000 14034.83604712 0 184.63544528 0 3813.98407936 0 22.82836569 0 596.91567437 0 15670
0.12250000 0.12250700 13649.51914343 0 283.52791440 0 4166.44939531 0 170.43740317 0 30.27228967 0 16887
0.12350000 0.12352200 13528.16646342 0 266.71901809 0 3875.24725258 0 80.96194631 0 342.19573468 0 16407
0.12450000 0.12449800 13280.58928048 0 152.98852648 0 3934.19630991 0 -43.00579538 0 177.27788544 0 16306
0.12550000 0.12549900 13233.97479299 0 120.31852487 0 4117.55400891 0 252.49883133 0 806.71187057 0 17523
0.12650000 0.12650100 13164.99420937 0 80.36680885 0 3739.07980196 0 -15.59503734 0 -306.22507304 0 17154
0.12750000 0.12750600 13190.23910996 0 79.01587450 0 4186.30207371 0 -74.24104514 0 -359.63575350 0 18007
0.12850000 0.12850300 13070.76872516 0 56.06648829 0 3416.36582279 0 79.62319151 0 -208.43762194 0 17496
0.12950000 0.12949900 13164.55131638 0 159.17906329 0 3515.82851664 0 -129.16309794 0 -517.46952933 0 18405
0.13050000 0.13049000 12912.98809650 0 93.61728140 0 3504.43509440 0 449.99146019 0 -78.68680500 0 18100
0.13150000 0.13148800 12879.10678255 0 115.43452240 0 3411.22826408 0 655.74625783 0 -309.87340407 0 19059
0.13250000 0.13249300 12897.48684175 0 166.72263819 0 3354.08399569 0 441.27532609 0 -17.82943249 0 18957
0.13350000 0.13349100 12413.18335418 0 303.08053280 0 3223.53021375 0 295.10181553 0 98.50549137 0 19468
0.13450000 0.13450700 12399.56439466 0 210.75395230 0 3834.58967584 0 -154.27402340 0 508.05583877 0 19953
0.13550000 0.13551000 12155.30890916 0 150.00453495 0 3822.74228829 0 -185.87997459 0 432.82714225 0 19956
0.13650000 0.13649900 12035.83852436 0 242.09859662 0 4160.01637459 0 -137.10306207 0 923.50385999 0 19723
0.13750000 0.13749600 11820.81397639 0 346.79850011 0 3981.10975017 0 79.12117231 0 942.18065749 0 20946
0.13850000 0.13851100 11532.04774512 0 292.79987920 0 3876.39877436 0 468.56971400 0 1141.78920762 0 20955
0.13950000 0.13949800 11508.68513975 0 43.42443998 0 3293.80625938 0 621.93691399 0 873.27868738 0 20506
0.14050000 0.14048300 11216.48648779 0 109.60605061 0 3244.39047371 0 589.98107733 0 764.31483160 0 21447
0.14150000 0.14148400 11187.80916650 0 150.10197140 0 2939.12647846 0 346.01900844 0 799.49603648 0 21771
0.14250000 0.14249400 10985.03060978 0 83.75582603 0 3156.76409510 0 94.13856646 0 1107.01546430 0 22470
0.14350000 0.14350900 10905.86348732 0 211.19463082 0 2916.53893583 0 234.46755036 0 1201.82335279 0 22519
0.14450000 0.14449900 10924.26569117 0 39.98637240 0 2796.58136874 0 304.10583007 0 1606.63862048 0 22218
0.14550000 0.14550500 11024.50344775 0 -195.85724648 0 2774.23741726 0 495.91724907 0 1668.09002323 0 23559
0.14650000 0.14650700 11043.33747227 0 -231.53559875 0 2503.56336474 0 441.51338107 0 1938.96337759 0 23044
0.14750000 0.14750500 11160.01763121 0 147.34828422 0 2464.33411791 0 259.84753331 0 1337.81364621 0 23649
0.14850000 0.14849900 11052.42785095 0 258.80341308 0 2393.38266047 0 -220.37358810 0 1335.87598937 0 23640
0.14950000 0.14949500 10652.37368292 0 237.02636463 0 2297.88385891 0 -508.97705619 0 1040.03232808 0 24457
0.15050000 0.15050000 10510.30468318 0 437.28818192 0 2419.69050424 0 -486.96416722 0 801.12034653 0 24591
0.15150000 0.15149900 10262.32889654 0 205.99063816 0 2620.93000782 0 -482.73121744 0 413.74731213 0 25020
0.15250000 0.15250500 10139.83576707 0 108.68605114 0 2514.10421797 0 108.37912630 0 286.60823516 0 25297
0.15350000 0.15350100 9988.11170008 0 194.10781916 0 2343.26931834 0 520.05270271 0 133.28089554 0 25452
0.15450000 0.15450400 9691.34017797 0 242.24807301 0 2124.88985595 0 517.27576365 0 -180.58075993 0 26061
0.15550000 0.15549900 9426.49016830 0 333.72651343 0 1989.92928873 0 122.95595265 0 -471.93791521 0 26128
0.15650000 0.15649500 9167.70779264 0 287.00019546 0 2004.96550584 0 -7.79922381 0 45.53261063 0 26331
0.15750000 0.15749700 9046.47690820 0 161.96264575 0 2043.43076226 0 -193.66492617 0 150.43192668 0 27345
0.15850000 0.15849900 8984.38331062 0 -31.52313021 0 2103.85243879 0 -40.38209729 0 -117.11751577 0 26980
0.15950000 0.15949700 9133.79326172 0 -75.32281128 0 2364.99321964 0 -65.43068556 0 -80.69344243 0 27777
0.16050000 0.16050000 9106.87644009 0 170.41525852 0 2334.07928875 0 -304.94179060 0 -305.14109244 0 28224
0.16150000 0.16150500 9035.70353615 0 245.75467828 0 2604.69797964 0 -279.07573259 0 -300.14193779 0 28075
0.16250000 0.16249700 8791.30411043 0 173.44796828 0 2715.19978133 0 23.88599416 0 276.20689323 0 28590
0.16350000 0.16349900 8701.17538641 0 256.11062368 0 2684.92804527 0 141.30943827 0 146.30416399 0 29163
0.16450000 0.16449100 8581.91537579 0 77.97330439 0 2552.54732974 0 277.20893862 0 376.51440546 0 28996
0.16550000 0.16550500 8641.77236376 0 -140.78018114 0 2617.32042993 0 280.73658131 0 431.88267295 0 30777
0.16650000 0.16650700 8641.01944567 0 -18.09815781 0 2314.49234614 0 225.23544593 0 425.81061002 0 29211
0.16750000 0.16749900 8691.05528152 0 108.29154421 0 2289.87856807 0 -22.14154939 0 330.98832750 0 30922
0.16850000 0.16850800 8612.33105206 0 144.20042228 0 2287.05512524 0 -66.89976162 0 126.60206921 0 30867
0.16950000 0.16949900 8419.05255003 0 183.72419295 0 2197.21428166 0 -46.03961238 0 250.00977271 0 30852
0.17050000 0.17049200 8273.50684029 0 196.84046893 0 2253.74957219 0 -130.48624076 0 332.28378951 0 31257
0.17150000 0.17149500 8185.80295540 0 141.41019642 0 2398.19912177 0 233.92168475 0 372.22720129 0 32608
0.17250000 0.17250900 8093.96909335 0 116.69787466 0 2363.45416649 0 206.61733174 0 551.91331738 0 32361
0.17350000 0.17350400 8002.65563057 0 127.44578036 0 2433.58627189 0 89.23319439 0 695.91554504 0 32508
0.17450000 0.17449800 7954.82318736 0 117.77631910 0 2540.57814661 0 164.16382392 0 786.88465851 0 32791
0.17550000 0.17549800 7854.61864775 0 38.15379192 0 2506.10999945 0 79.39034052 0 1189.51092759 0 33633
0.17650000 0.17650100 7884.45856314 0 28.18349559 0 2546.34682784 0 -29.03506810 0 922.52285201 0 33984
0.17750000 0.17750300 7959.79466120 0 5.22156444 0 2480.14539775 0 181.24842112 0 862.54296123 0 34069
0.17850000 0.17849800 7743.39714495 0 100.61654082 0 2462.67326919 0 109.93401287 0 620.90165162 0 34536
