### header ###
fiducial parameters:
Omega_m = 0.31
Omega_nu = 0
Omega_de = 0.69
Omega_k = 0
H_0 = 100
w_de = -1
zeff = 0
beta = 0
fgrowth = 0
b_1 = 2
gamma = 0.55
Lx = 3500 Ly = 3500 Lz = 3500
nx = 700 ny = 700 nz = 700
xoffset = -685.467585 yoffset = -31.7331281 zoffset = 572.489161
bins = 400 dk = 0.001
kx_ny = 0.628318531 ky_ny = 0.628318531 kz_ny = 0.628318531
############################
A(data) = 8.0336527 (not used)
A(ran) = 8.03610821 (used)
Ngal = 477515
weighted Ngal = 0
Nran = 23820508
weighted Nran = 0
SN(data) = 3485.06987
SN(ran) = 69.9974169
SN(data+ran) = 3555.06729
############################
13 columns: k_central k_mean P_0(k) sigma^{lin}_{P_0(k)} P^img_1(k) sigma^{lin}_{P_1(k)} P_2(k) sigma^{lin}_{P_2(k)} P^img_3(k) sigma^{lin}_{P_3(k)} P_4(k) sigma^{lin}_{P_4(k)} N_modes
### header ###
0.00050000 0 0 0 0 0 0 0 0 0 0 0 0
0.00150000 0.00179520 27971.90346610 0 -41490.10483718 0 1933.64866168 0 -33430.67032494 0 9996.22771417 0 3
0.00250000 0.00253879 43706.34137288 0 -35051.88012489 0 -13692.47976373 0 -17661.68676472 0 -4111.32029004 0 6
0.00350000 0.00331552 55118.80800996 0 -14955.27840930 0 325.52634967 0 -27919.64209295 0 35410.51272576 0 7
0.00450000 0.00420575 59092.44394087 0 1035.75508900 0 9014.13464741 0 -46133.72714288 0 25102.51048935 0 24
0.00550000 0.00557378 51455.19717396 0 11472.81080734 0 15025.69839514 0 -15317.67560061 0 26948.26703661 0 45
0.00650000 0.00659388 54574.71396837 0 9975.38959886 0 22240.97886321 0 -24703.57462613 0 12455.92252798 0 40
0.00750000 0.00754703 37034.71205341 0 12115.22709331 0 23036.96829443 0 -1695.72654598 0 -4094.81145373 0 57
0.00850000 0.00846663 50159.95661668 0 -515.56176776 0 24067.80173504 0 370.33826267 0 -6735.11802999 0 75
0.00950000 0.00948925 39431.87037665 0 -2808.53947955 0 8042.67101247 0 13399.39532578 0 -6219.54629713 0 112
0.01050000 0.01054430 50977.75852778 0 -6706.58464893 0 2383.49507441 0 15333.61974835 0 -26164.90005569 0 105
0.01150000 0.01145670 55628.46712136 0 -6643.52775909 0 -8810.69175119 0 1711.46031954 0 -31800.82411163 0 144
0.01250000 0.01249090 57166.52376192 0 -5835.74630194 0 -14134.59769374 0 -6832.06730610 0 -27161.18784288 0 169
0.01350000 0.01339930 51456.63657619 0 -70.28933241 0 -18427.55947242 0 -6967.13859656 0 -21166.18829307 0 180
0.01450000 0.01448870 55238.05694826 0 437.57606237 0 -18158.94487232 0 -5913.78404726 0 -22240.64669347 0 267
0.01550000 0.01550050 58854.38895727 0 -4167.75592964 0 -15114.94133318 0 -3450.15855814 0 -16891.38512709 0 238
0.01650000 0.01653350 57101.41849199 0 2581.57896542 0 -18873.99560911 0 -6254.10302289 0 -18403.08963458 0 315
0.01750000 0.01747870 52522.34783999 0 2287.77482635 0 -12918.08136591 0 -16118.42613150 0 -14540.06622860 0 297
0.01850000 0.01844180 57425.61616268 0 875.80649913 0 -4069.71049337 0 -17528.15452741 0 -16716.88528794 0 388
0.01950000 0.01947590 52361.46696037 0 3321.01096146 0 4138.96788511 0 -13190.12838671 0 -3664.15337991 0 399
0.02050000 0.02045430 56921.05032069 0 -1940.43599679 0 5224.27716383 0 698.44003510 0 -5572.25818823 0 462
0.02150000 0.02154770 54524.99922993 0 -1236.74546527 0 9145.93960205 0 9408.99589509 0 -9188.54590795 0 571
0.02250000 0.02255340 59060.88781514 0 -268.18610113 0 6457.66771468 0 10129.87067473 0 -1160.91111259 0 510
0.02350000 0.02348930 55579.85961541 0 2676.26948727 0 7735.11504598 0 3847.25641544 0 -3888.08007704 0 555
0.02450000 0.02439640 54537.17878724 0 3441.88753150 0 13343.36936220 0 -4639.35946064 0 8065.08139790 0 592
0.02550000 0.02547300 51415.89042086 0 3239.09790245 0 17808.94868481 0 -3883.91688291 0 11580.54452782 0 837
0.02650000 0.02652900 52744.01578286 0 5483.62422806 0 30042.20676069 0 -7035.38840674 0 12529.22131828 0 723
0.02750000 0.02749970 52583.13490324 0 -3032.95335897 0 29240.79189031 0 1382.05865619 0 8848.64768067 0 826
0.02850000 0.02848090 54921.49918169 0 -3165.06833871 0 32427.07480338 0 1499.82390296 0 13118.93333812 0 831
0.02950000 0.02946900 57263.07443434 0 1908.23767622 0 34276.70666433 0 -139.98408098 0 14311.20127460 0 996
0.03050000 0.03053250 57912.35556170 0 3346.03441555 0 39976.96092747 0 9773.36396022 0 18014.11886370 0 1041
0.03150000 0.03150510 51465.71588254 0 4442.38280211 0 35206.78194910 0 10685.86746550 0 20712.33369875 0 1036
0.03250000 0.03246190 47852.92701747 0 1875.18678664 0 19982.77821645 0 17826.66440452 0 16255.94440574 0 1059
0.03350000 0.03345080 49511.45055205 0 -1901.57213668 0 24963.66353612 0 10636.13058242 0 19943.47146335 0 1302
0.03450000 0.03451200 50132.16508138 0 -910.90798327 0 20190.49503005 0 4046.14858615 0 11000.35470733 0 1339
0.03550000 0.03553350 50152.75960555 0 -664.34502528 0 17805.18409437 0 -4519.21366403 0 17839.06540831 0 1365
0.03650000 0.03647120 50264.92225596 0 -59.83750068 0 16613.58049739 0 -3535.36009762 0 9124.83575094 0 1308
0.03750000 0.03744890 51639.88355194 0 225.73812947 0 19943.80363309 0 -3324.13335705 0 8788.07099159 0 1579
0.03850000 0.03847530 51713.40378874 0 864.23038353 0 21690.13070349 0 -904.57239901 0 1353.45884118 0 1662
0.03950000 0.03950240 49867.75796472 0 2548.07411052 0 17830.31827171 0 3917.24458061 0 6457.34661726 0 1683
0.04050000 0.04050350 47746.63269921 0 2277.30040708 0 16283.07160155 0 6632.72117006 0 8556.12793128 0 1822
0.04150000 0.04152450 47401.28688811 0 -87.33074754 0 15362.29706963 0 7874.71491729 0 5416.03875737 0 1887
0.04250000 0.04250150 45305.18507670 0 202.14632698 0 12939.45095281 0 6496.58693642 0 7181.04483973 0 1920
0.04350000 0.04349210 45580.55379494 0 1583.78534206 0 9776.39777722 0 2885.64714959 0 7255.69445366 0 2005
0.04450000 0.04448520 42991.06918960 0 1809.86007021 0 10589.11749124 0 -3944.84788639 0 9386.86231778 0 2151
0.04550000 0.04548030 41658.29345118 0 1952.92557919 0 14455.14149724 0 -259.89292984 0 3740.17596211 0 2274
0.04650000 0.04648670 40252.99398520 0 1335.87598937 0 13776.96160210 0 -3357.54963336 0 6702.22215295 0 2311
0.04750000 0.04749250 40677.72836524 0 884.16942607 0 13853.36064335 0 -2961.62544249 0 284.42809441 0 2568
0.04850000 0.04851840 37767.25706341 0 2029.30247579 0 15245.15187305 0 -5224.89721402 0 -4575.89289478 0 2493
0.04950000 0.04949480 39202.11963666 0 1159.11739596 0 17344.24321217 0 -2520.50402172 0 -3688.91109820 0 2644
0.05050000 0.05050630 35642.92082370 0 425.93351282 0 14453.92354151 0 293.64691205 0 -5263.20745789 0 2829
0.05150000 0.05149060 38246.35655831 0 -177.74292308 0 16249.74390385 0 2464.33411791 0 -7963.22708190 0 2784
0.05250000 0.05249300 37107.56795071 0 85.06391048 0 14728.73864351 0 3204.27544089 0 -8394.97024355 0 3055
0.05350000 0.05348950 36193.10464394 0 1536.83868483 0 15142.28997548 0 2941.30772645 0 -3529.12637875 0 3009
0.05450000 0.05448610 35968.33645012 0 1585.65656495 0 15410.68312909 0 476.25612189 0 -3138.29545730 0 3336
0.05550000 0.05550870 34995.96488455 0 0.56508274 0 14921.39709535 0 651.22985653 0 1808.57568053 0 3349
0.05650000 0.05647670 35635.39164283 0 -169.83839039 0 17354.31902775 0 1857.93610457 0 -181.99912474 0 3324
0.05750000 0.05747970 37063.16792819 0 -558.92431345 0 17762.00202758 0 -147.37928673 0 1099.83838335 0 3639
0.05850000 0.05849280 36000.22474560 0 -391.81857282 0 18030.17373468 0 2738.82812249 0 4030.49231886 0 3846
0.05950000 0.05951020 35995.79581567 0 1087.73965402 0 15459.29063504 0 2461.43316881 0 -604.50464580 0 3787
0.06050000 0.06049470 35577.15121428 0 669.32424975 0 14299.02171730 0 3409.06916074 0 547.10903564 0 3930
0.06150000 0.06148310 33619.01057010 0 180.22866000 0 12067.72681984 0 2071.60982892 0 522.08115262 0 4083
0.06250000 0.06249100 33823.95930250 0 1044.01282885 0 10943.67547658 0 1432.70346991 0 2487.26490261 0 4303
0.06350000 0.06350600 32549.20254613 0 682.15596698 0 10564.55907479 0 -369.73149927 0 -1405.03373019 0 4470
0.06450000 0.06451750 33353.82839070 0 848.30395152 0 10349.04734452 0 -1604.24699832 0 120.62301381 0 4479
0.06550000 0.06550280 31276.66025472 0 723.28854645 0 11184.04457607 0 -826.92439952 0 103.32926040 0 4636
0.06650000 0.06648880 31791.41263554 0 632.41576220 0 10852.24021823 0 893.12361515 0 12.37786264 0 4653
0.06750000 0.06749660 31296.92260914 0 234.09662748 0 12990.60509348 0 917.69199669 0 -544.30441576 0 5220
0.06850000 0.06852730 30528.94615972 0 1014.08987103 0 13042.31285038 0 607.41113106 0 1668.93151991 0 5029
0.06950000 0.06949320 30206.18789125 0 1060.44637334 0 13079.95875476 0 321.68425296 0 1503.64385502 0 5040
0.07050000 0.07048030 29422.26729409 0 306.05566647 0 13870.74419331 0 -443.78985106 0 3085.67976976 0 5475
0.07150000 0.07148790 29233.37343269 0 1115.31527898 0 14422.47813902 0 286.14430475 0 1651.86906737 0 5509
0.07250000 0.07249820 28345.37298223 0 866.28097809 0 13491.73851477 0 896.62025533 0 2247.68193819 0 5916
0.07350000 0.07351270 27581.93618599 0 963.12506712 0 12817.32321006 0 1362.03989292 0 1730.81474333 0 5721
0.07450000 0.07449140 26286.69562870 0 1125.70111966 0 12566.31360643 0 487.42366870 0 2252.26588066 0 6028
0.07550000 0.07549160 25917.98721224 0 682.93988758 0 12298.91696206 0 1476.85990129 0 436.16876988 0 6183
0.07650000 0.07648840 24409.93657194 0 505.60664052 0 10324.11246903 0 1661.40233904 0 1811.67593148 0 6330
0.07750000 0.07749960 24321.13652689 0 323.57319157 0 9488.57269356 0 2586.58365623 0 1385.05925621 0 6583
0.07850000 0.07848650 24454.00442472 0 -425.39650507 0 8712.73489352 0 1804.57857127 0 2531.73135908 0 6549
0.07950000 0.07947320 24510.03038830 0 -255.05653836 0 8829.12717201 0 1973.40938010 0 96.64467646 0 6828
0.08050000 0.08048110 24749.30332763 0 368.88668089 0 8806.62820798 0 126.95084744 0 1718.11478676 0 7147
0.08150000 0.08149960 24437.83883048 0 1077.81331482 0 8774.90599738 0 -1692.29412528 0 3601.63903398 0 7386
0.08250000 0.08250610 23982.54483394 0 801.06498491 0 9995.13155401 0 -717.15447850 0 4286.06372032 0 7227
0.08350000 0.08350160 23012.49845658 0 476.31259075 0 10700.95904423 0 -0.01828185 0 4017.64842207 0 7798
0.08450000 0.08449610 22853.61059543 0 579.74803474 0 10141.82878554 0 1012.66043389 0 1960.62084494 0 7371
0.08550000 0.08548940 22133.13441948 0 913.58748588 0 10809.27959793 0 793.21581385 0 3514.45554836 0 8256
0.08650000 0.08650700 21257.31352633 0 551.59443442 0 9313.79604630 0 703.48458628 0 2016.77967642 0 8037
0.08750000 0.08749060 20873.87891786 0 186.44023423 0 9111.85898626 0 1161.18792071 0 1455.85570110 0 8155
0.08850000 0.08849210 20646.23191959 0 186.14349592 0 9018.09853969 0 -93.24824082 0 63.79840344 0 8718
0.08950000 0.08949900 20293.24620437 0 358.08452080 0 7593.37821598 0 938.70837643 0 109.26247637 0 8571
0.09050000 0.09049190 19828.20856198 0 128.89846938 0 7358.54527890 0 490.47409419 0 -123.63136446 0 8932
0.09150000 0.09150830 20107.78476365 0 -396.01609116 0 6533.20311459 0 1581.93626381 0 -819.19813126 0 9285
0.09250000 0.09250820 20335.65320842 0 146.72712680 0 6876.95451091 0 -29.30124678 0 -879.58548359 0 9204
0.09350000 0.09350330 19653.15510660 0 1168.92747575 0 6195.61900320 0 -769.99050531 0 -555.12207711 0 9349
0.09450000 0.09448040 18853.62253145 0 641.99775210 0 6017.42100757 0 -99.61482759 0 838.65774213 0 9564
0.09550000 0.09549270 18777.99855294 0 175.95031369 0 6159.99933426 0 -19.96484105 0 504.24474457 0 10155
0.09650000 0.09649430 18584.01142211 0 -9.67971424 0 6546.35703648 0 1068.25900574 0 -400.37969437 0 9913
0.09750000 0.09749140 18431.54550936 0 -110.44123607 0 5504.14124595 0 1107.44285604 0 -199.28966718 0 10476
0.09850000 0.09850240 18293.80578862 0 140.85547295 0 5050.22021768 0 1121.49363623 0 -544.00546299 0 10575
0.09950000 0.09950330 18519.45976842 0 136.94583505 0 5419.89192640 0 16.31163820 0 -521.66594044 0 10882
0.10050000 0.10051200 18191.60823054 0 705.65365471 0 5168.46157442 0 -370.99042261 0 -503.35342242 0 10875
0.10150000 0.10150300 17445.66570751 0 806.04531661 0 5548.87343821 0 -573.93506421 0 370.39030260 0 11118
0.10250000 0.10250800 17065.99568948 0 493.81350735 0 5413.68035218 0 207.85743212 0 548.39896148 0 11575
0.10350000 0.10349800 16860.93623383 0 12.28086907 0 5915.95422293 0 646.21409339 0 444.24713807 0 11364
0.10450000 0.10450100 16929.80609421 0 -165.19355013 0 5544.85418431 0 704.17439212 0 463.87172658 0 12093
0.10550000 0.10551000 16813.87885336 0 52.76084572 0 5004.20363574 0 -51.84394650 0 259.18872998 0 12067
0.10650000 0.10649700 16789.96263175 0 284.33840858 0 5263.94930366 0 -20.09184062 0 -617.71725100 0 12054
0.10750000 0.10749900 16347.51253199 0 383.78006500 0 5783.51814577 0 -235.14296217 0 -143.82285600 0 12807
0.10850000 0.10850100 16480.26970657 0 195.96686250 0 5479.77105902 0 -215.96126666 0 -340.87259187 0 12736
0.10950000 0.10950300 16083.99120131 0 63.60807017 0 5723.07432459 0 1.61368062 0 -911.47156461 0 12933
0.11050000 0.11050200 15932.96469078 0 475.14667494 0 5393.47335939 0 262.00110049 0 -612.30842033 0 13428
0.11150000 0.11150900 15433.93501121 0 714.02986844 0 5581.65859200 0 785.02229348 0 43.89933199 0 13453
0.11250000 0.11250000 14955.49985579 0 416.16661510 0 5097.95300998 0 1002.90128680 0 649.89564139 0 13668
0.11350000 0.11349100 14689.65333690 0 96.78584860 0 5025.57322264 0 948.41548360 0 654.99887590 0 13791
0.11450000 0.11448600 14511.94252356 0 192.96847694 0 5115.05975182 0 673.55277060 0 1247.54098197 0 14205
0.11550000 0.11549300 14258.16483872 0 166.41150586 0 4812.33131895 0 604.85453126 0 1552.11849308 0 14776
0.11650000 0.11649800 14465.43875932 0 -161.36031128 0 4312.71480616 0 326.98900378 0 1988.48988651 0 14553
0.11750000 0.11747300 14508.73154936 0 -129.18524259 0 4412.15535536 0 610.66196563 0 1933.29434728 0 14568
0.11850000 0.11849100 14648.68573507 0 -49.36407791 0 3885.10162167 0 147.87754135 0 1450.68492541 0 16015
0.11950000 0.11950300 14612.36850966 0 168.94485378 0 3703.02831235 0 -316.50683387 0 1669.56264243 0 15270
0.12050000 0.12050700 14422.47813902 0 256.91226000 0 4031.38917717 0 -324.21760087 0 1276.59476229 0 15999
0.12150000 0.12150000 14067.72085183 0 375.80245497 0 4650.08854339 0 -419.05538464 0 1549.43899047 0 15670
0.12250000 0.12250700 13844.72422999 0 389.18557398 0 4264.67198877 0 57.54098979 0 1131.18192045 0 16887
0.12350000 0.12352200 13735.55110728 0 97.20238946 0 4845.42649784 0 463.48751691 0 1295.10768939 0 16407
0.12450000 0.12449800 13359.42423319 0 121.21870488 0 4298.78582154 0 243.96539059 0 1264.80273636 0 16306
0.12550000 0.12549900 13385.11202677 0 76.65259749 0 4343.19691639 0 747.91671855 0 1457.94837050 0 17523
0.12650000 0.12650100 13423.53299389 0 -22.40407421 0 3647.37880781 0 175.25718616 0 1028.32002288 0 17154
0.12750000 0.12750600 13355.54891950 0 -66.40449653 0 3109.62920834 0 350.65056191 0 808.41368689 0 18007
0.12850000 0.12850300 13370.49655800 0 207.81757175 0 3300.99219818 0 102.36253572 0 571.72502817 0 17496
0.12950000 0.12949900 13319.01024760 0 228.08435510 0 3229.89680052 0 37.58234924 0 388.34407729 0 18405
0.13050000 0.13049000 12997.02704187 0 311.53203833 0 3517.15719562 0 11.44092251 0 248.12083409 0 18100
0.13150000 0.13148800 12659.65330465 0 448.03165869 0 2777.81377818 0 133.34400779 0 135.88510634 0 19059
0.13250000 0.13249300 12398.23571568 0 195.57490220 0 3488.18092157 0 78.82365894 0 534.09573228 0 18957
0.13350000 0.13349100 12282.52992132 0 -74.47821434 0 2920.21494767 0 303.49906667 0 728.21794546 0 19468
0.13450000 0.13450700 12281.86558184 0 47.12148924 0 3252.17431806 0 504.08641032 0 150.96118381 0 19953
0.13550000 0.13551000 12314.75038655 0 72.36672200 0 2681.36275668 0 126.93202449 0 354.36200519 0 19956
0.13650000 0.13649900 12138.36825219 0 244.30309650 0 2657.74548784 0 -117.10201451 0 485.25792197 0 19723
0.13750000 0.13749600 12009.15422155 0 244.61755052 0 2891.59298801 0 -183.51824771 0 742.64407747 0 20946
0.13850000 0.13851100 11883.92622785 0 124.06318513 0 2915.33205242 0 59.02202396 0 702.72502480 0 20955
0.13950000 0.13949800 11784.82892073 0 254.38334101 0 2612.51504096 0 48.70184216 0 601.91261456 0 20506
0.14050000 0.14048300 11556.96047596 0 220.44223651 0 2848.01231753 0 143.93911541 0 339.67345909 0 21447
0.14150000 0.14148400 11464.61728697 0 180.62947816 0 2856.58229694 0 226.83207516 0 761.98632169 0 21771
0.14250000 0.14249400 11165.44307037 0 265.83212487 0 2759.01297064 0 52.90412160 0 246.05805998 0 22470
0.14350000 0.14350900 10833.78265275 0 148.86408549 0 2664.37781041 0 13.36363172 0 242.12074127 0 22519
0.14450000 0.14449900 10714.57800376 0 354.36864859 0 2869.39297675 0 -116.15865244 0 136.14198427 0 22218
0.14550000 0.14550500 10590.96656948 0 131.61561789 0 2434.29490068 0 91.37989673 0 278.55422609 0 23559
0.14650000 0.14650700 10473.42276921 0 46.46434676 0 2659.37311959 0 123.59814749 0 -67.21366203 0 23044
0.14750000 0.14750500 10588.91818939 0 2.01866197 0 2388.02365526 0 -57.66444621 0 -123.14196770 0 23649
0.14850000 0.14849900 10472.60341717 0 251.31741427 0 2864.03397154 0 -78.84857167 0 16.59099295 0 23640
0.14950000 0.14949500 10219.65615669 0 375.11264914 0 2776.18614643 0 -327.53597662 0 -244.17355030 0 24457
0.15050000 0.15050000 10024.27391294 0 214.09336546 0 3236.76164191 0 -35.20689267 0 76.89519212 0 24591
0.15150000 0.15149900 9892.02606530 0 0.40138395 0 2699.95319005 0 -68.83166085 0 -478.04208788 0 25020
0.15250000 0.15250500 9936.97970407 0 42.44941106 0 2968.70065805 0 240.65919440 0 -74.93494774 0 25297
0.15350000 0.15350100 9925.26518441 0 123.78859147 0 2889.87677767 0 297.22659466 0 -365.83293371 0 25452
0.15450000 0.15450400 9708.10367774 0 126.87112670 0 2808.98237254 0 168.41006049 0 -223.25682148 0 26061
0.15550000 0.15549900 9534.63356481 0 208.14199087 0 2546.91151641 0 362.84008431 0 -120.00628531 0 26128
0.15650000 0.15649500 9442.06892932 0 167.14781546 0 2508.61234486 0 81.39908169 0 30.15935196 0 26331
0.15750000 0.15749700 9402.06461975 0 -53.86287421 0 2654.76703247 0 284.21661300 0 370.40691109 0 27345
0.15850000 0.15849900 9466.72699669 0 -83.25934298 0 2450.23904842 0 147.59519707 0 423.58507273 0 26980
0.15950000 0.15949700 9601.92008273 0 52.90777547 0 2764.92559209 0 169.26484397 0 723.29961878 0 27777
0.16050000 0.16050000 9540.18079954 0 144.44844235 0 2698.15947343 0 -109.23822798 0 991.72266766 0 28224
0.16150000 0.16150500 9303.77559234 0 356.44692396 0 3023.71904007 0 -101.84202573 0 1422.20690598 0 28075
0.16250000 0.16249700 9182.84366067 0 292.10010827 0 3107.30402013 0 -63.39625660 0 1436.97738729 0 28590
0.16350000 0.16349900 8842.29216622 0 278.81110403 0 3380.15932064 0 -99.27457505 0 1123.92954769 0 29163
0.16450000 0.16449100 8695.07453543 0 204.86015379 0 3549.26693759 0 -146.79245352 0 874.79891757 0 28996
0.16550000 0.16550500 8635.04039027 0 118.63996043 0 3473.75368233 0 -286.99576653 0 1043.64522766 0 30777
0.16650000 0.16650700 8418.95289911 0 65.10549138 0 3426.85131440 0 47.53913733 0 745.95802429 0 29211
0.16750000 0.16749900 8468.03651503 0 60.36199670 0 3223.72951560 0 279.15545333 0 185.18131089 0 30922
0.16850000 0.16850800 8385.31517631 0 84.05189999 0 3027.20682239 0 308.10072487 0 293.95582991 0 30867
0.16950000 0.16949900 8226.46053213 0 110.57930796 0 2733.49126193 0 348.56453592 0 -131.59679493 0 30852
0.17050000 0.17049200 8175.33960845 0 201.87062609 0 2681.89422827 0 109.48536227 0 217.81145213 0 31257
0.17150000 0.17149500 8003.26460844 0 93.87493440 0 2575.37846352 0 172.25104997 0 205.39826878 0 32608
0.17250000 0.17250900 8020.01703589 0 -14.04624054 0 2358.52698194 0 182.85944438 0 273.12325077 0 32361
0.17350000 0.17350400 8089.00869184 0 -182.46637685 0 2380.33946184 0 202.91363909 0 291.09806288 0 32508
0.17450000 0.17449800 8268.32499227 0 -37.08509113 0 2572.54394836 0 -21.03741716 0 311.23419279 0 32791
0.17550000 0.17549800 8177.81980921 0 110.84947269 0 2450.11725284 0 -59.51341373 0 406.18491427 0 33633
0.17650000 0.17650100 8143.69490411 0 247.72887379 0 2538.81764697 0 68.61962583 0 642.45393188 0 33984
0.17750000 0.17750300 7954.67924714 0 172.62086562 0 2560.50833129 0 124.97665193 0 871.18491075 0 34069
0.17850000 0.17849800 7870.13097482 0 106.70665164 0 2545.40568023 0 272.52423799 0 840.07499971 0 34536
