### header ###
fiducial parameters:
Omega_m = 0.31
Omega_nu = 0
Omega_de = 0.69
Omega_k = 0
H_0 = 100
w_de = -1
zeff = 0
beta = 0
fgrowth = 0
b_1 = 2
gamma = 0.55
Lx = 3500 Ly = 3500 Lz = 3500
nx = 700 ny = 700 nz = 700
xoffset = -685.467585 yoffset = -31.7331281 zoffset = 572.489161
bins = 400 dk = 0.001
kx_ny = 0.628318531 ky_ny = 0.628318531 kz_ny = 0.628318531
############################
A(data) = 8.0388568 (not used)
A(ran) = 8.0359642 (used)
Ngal = 477314
weighted Ngal = 0
Nran = 23820508
weighted Nran = 0
SN(data) = 3492.809
SN(ran) = 69.9961626
SN(data+ran) = 3562.80516
############################
13 columns: k_central k_mean P_0(k) sigma^{lin}_{P_0(k)} P^img_1(k) sigma^{lin}_{P_1(k)} P_2(k) sigma^{lin}_{P_2(k)} P^img_3(k) sigma^{lin}_{P_3(k)} P_4(k) sigma^{lin}_{P_4(k)} N_modes
### header ###
0.00050000 0 0 0 0 0 0 0 0 0 0 0 0
0.00150000 0.00179520 77527.53259418 0 -86388.60342329 0 762.13026192 0 14343.08957007 0 -69125.85252179 0 3
0.00250000 0.00253879 122114.45595989 0 -65839.69723886 0 -16239.00374877 0 -30492.85038081 0 79018.19968451 0 6
0.00350000 0.00331552 121998.19654929 0 -4057.60844234 0 3205.86985567 0 -87593.38308681 0 -2346.60208811 0 7
0.00450000 0.00420575 109548.58524645 0 32871.51792160 0 -17476.77894025 0 -48741.03819117 0 61428.59375436 0 24
0.00550000 0.00557378 58277.96372721 0 28842.85253633 0 -9149.84813271 0 -9218.14223219 0 24607.35612346 0 45
0.00650000 0.00659388 49279.37462385 0 20274.42325218 0 1304.02091087 0 -10766.05324184 0 20646.89625907 0 40
0.00750000 0.00754703 39027.39835102 0 -2204.14555700 0 18902.56220714 0 -668.26352103 0 -11894.22348993 0 57
0.00850000 0.00846663 40915.45117910 0 -7803.59737498 0 25612.50177049 0 -77.62142591 0 13251.35834296 0 75
0.00950000 0.00948925 55202.18261584 0 -8087.39213241 0 35747.55429324 0 -20354.58688386 0 13724.81095220 0 112
0.01050000 0.01054430 69394.79929163 0 -5616.00494359 0 61246.89690409 0 -2204.49987139 0 28282.70362376 0 105
0.01150000 0.01145670 84141.91799434 0 -7093.94993271 0 73731.60747660 0 -13443.13100881 0 19297.95492642 0 144
0.01250000 0.01249090 85738.54723319 0 2842.58687837 0 70900.85691346 0 30933.19673884 0 37517.68686200 0 169
0.01350000 0.01339930 91860.21417892 0 -1111.52854389 0 62956.90674908 0 31716.01010352 0 -4660.89513241 0 180
0.01450000 0.01448870 93221.77796187 0 -361.96094172 0 55045.39849641 0 42635.64756292 0 14811.22746341 0 267
0.01550000 0.01550050 92267.23283925 0 -3133.37934508 0 33577.93224503 0 33764.16874848 0 5322.00150268 0 238
0.01650000 0.01653350 88184.75595537 0 -1059.85068227 0 18121.74186093 0 28298.97994124 0 12913.32026624 0 315
0.01750000 0.01747870 87702.44548627 0 2901.67987592 0 5661.64506649 0 21620.15361063 0 8368.26379609 0 297
0.01850000 0.01844180 83598.70973874 0 4590.17619379 0 -2754.83870418 0 14863.37811330 0 8232.99320378 0 388
0.01950000 0.01947590 79376.50011564 0 4510.92049274 0 -7073.55471039 0 7742.32312944 0 32859.89198054 0 399
0.02050000 0.02045430 73254.72244666 0 5588.29091457 0 -7760.68104399 0 3624.34837219 0 20998.66401856 0 462
0.02150000 0.02154770 68381.90301722 0 4189.61269883 0 -797.65692333 0 1738.22212863 0 23302.92553657 0 571
0.02250000 0.02255340 66563.49511226 0 3808.29290440 0 5682.52747110 0 -8635.77116370 0 17533.02635033 0 510
0.02350000 0.02348930 67250.42214400 0 -2742.72558083 0 9480.24630530 0 -15948.13377579 0 25538.20647096 0 555
0.02450000 0.02439640 66592.50460328 0 1651.10507696 0 18127.94236283 0 -3367.79153381 0 17327.19183195 0 592
0.02550000 0.02547300 67380.41123738 0 2999.54815500 0 18332.11603249 0 -1753.95590220 0 15835.97112537 0 837
0.02650000 0.02652900 66922.45988288 0 -595.37994292 0 18059.40467220 0 3718.61814569 0 9833.71920281 0 723
0.02750000 0.02749970 68544.00185257 0 159.67399621 0 20121.40372318 0 2325.22142889 0 709.52121777 0 826
0.02850000 0.02848090 68936.73721388 0 -134.93510087 0 19307.92001876 0 -1096.39489033 0 8925.21280679 0 831
0.02950000 0.02946900 67768.38549902 0 2815.92472020 0 22506.71465886 0 -1789.90774088 0 7555.92054112 0 996
0.03050000 0.03053250 65681.14154746 0 3382.27413468 0 23268.60132963 0 -780.84691979 0 69.93391079 0 1041
0.03150000 0.03150510 61814.35355104 0 5560.86476599 0 30313.58944199 0 -6410.92035930 0 5709.10105067 0 1036
0.03250000 0.03246190 61755.55950626 0 4846.40086242 0 29879.33286261 0 5840.79528206 0 4151.76749260 0 1059
0.03350000 0.03345080 55054.80997251 0 1734.20287472 0 22406.84228900 0 3201.33020249 0 3987.22167347 0 1302
0.03450000 0.03451200 52572.72691791 0 2192.05457830 0 18893.48290079 0 10186.66062873 0 -1682.88264919 0 1339
0.03550000 0.03553350 51429.17721064 0 467.83008270 0 14518.69664170 0 5838.31508130 0 349.93418250 0 1365
0.03650000 0.03647120 48986.84380214 0 1660.57191468 0 14053.88044581 0 2433.40911469 0 -7253.72357984 0 1308
0.03750000 0.03744890 46222.85935767 0 2411.10945251 0 11797.67281752 0 -1165.52827203 0 -2379.02185518 0 1579
0.03850000 0.03847530 45356.22849411 0 2298.54819840 0 10723.11476619 0 -1371.59530923 0 25.45892863 0 1662
0.03950000 0.03950240 45364.42201448 0 -764.25061212 0 13222.68102168 0 811.58922965 0 1286.85880740 0 1683
0.04050000 0.04050350 47439.15423899 0 -2524.50113098 0 13815.93618546 0 2272.74968157 0 -4034.79945321 0 1822
0.04150000 0.04152450 48589.01517141 0 -371.37795397 0 16847.09582781 0 2953.87481512 0 -2300.28655340 0 1887
0.04250000 0.04250150 50000.18296955 0 2022.95803367 0 14702.05434069 0 -1257.82717172 0 -597.45378935 0 1920
0.04350000 0.04349210 46193.73914339 0 4552.86245915 0 18492.88618885 0 190.35430105 0 1452.48971436 0 2005
0.04450000 0.04448520 43830.46213410 0 3981.03224389 0 20737.13570635 0 90.67481108 0 5832.40245985 0 2151
0.04550000 0.04548030 40610.18718385 0 2167.57366812 0 19433.14801245 0 4459.84385835 0 4081.38072373 0 2274
0.04650000 0.04648670 38719.03410482 0 979.14561390 0 19116.92241563 0 3908.39779308 0 7322.02875165 0 2311
0.04750000 0.04749250 38777.60670311 0 -1000.69457246 0 18083.98523330 0 5993.79266640 0 8221.85444501 0 2568
0.04850000 0.04851840 39093.16796044 0 -1423.84561005 0 17037.42909144 0 4754.22375831 0 7410.82879669 0 2493
0.04950000 0.04949480 40823.66160635 0 -1093.37325289 0 13434.82676520 0 4947.49118802 0 5237.42001339 0 2644
0.05050000 0.05050630 39896.57584928 0 543.29461974 0 12416.94794462 0 -897.00225053 0 5798.21112081 0 2829
0.05150000 0.05149060 40452.84944817 0 900.00727949 0 11544.44874891 0 -1158.10981441 0 3023.40901498 0 2784
0.05250000 0.05249300 38755.68349997 0 1245.64761442 0 12736.71668539 0 -1387.16299793 0 3916.97884482 0 3055
0.05350000 0.05348950 37603.60810259 0 1873.95775858 0 11688.27824831 0 -766.82714211 0 4177.13418876 0 3009
0.05450000 0.05448610 36150.58691664 0 1141.20237441 0 12453.26517003 0 207.68138216 0 2198.69797319 0 3336
0.05550000 0.05550870 36390.85636520 0 437.32804229 0 13800.76710046 0 1474.05860311 0 5067.50411672 0 3349
0.05650000 0.05647670 36791.78524689 0 135.84856766 0 14608.82536572 0 915.34577106 0 2154.36438461 0 3324
0.05750000 0.05747970 36374.91221747 0 261.26589812 0 15890.77913322 0 -1218.49827397 0 4398.15993679 0 3639
0.05850000 0.05849280 35664.40113385 0 1758.20767493 0 15602.23434845 0 -264.62967040 0 3691.40237129 0 3846
0.05950000 0.05951020 34978.24916484 0 930.93338994 0 15966.51383498 0 -63.63076844 0 2431.03963718 0 3787
0.06050000 0.06049470 33660.86395792 0 953.55857847 0 15893.32576793 0 58.15960057 0 934.14547137 0 3930
0.06150000 0.06148310 33326.81191814 0 804.12094656 0 14362.13396876 0 808.17784637 0 -1474.65650865 0 4083
0.06250000 0.06249100 32189.46271277 0 608.12640325 0 12939.34022957 0 1429.78037616 0 -2370.34115253 0 4303
0.06350000 0.06350600 30971.39625947 0 776.08803458 0 11361.86611265 0 571.59991090 0 -3085.10400887 0 4470
0.06450000 0.06451750 30709.53577751 0 878.83477997 0 9901.27145653 0 3333.85485824 0 -2385.35522498 0 4479
0.06550000 0.06550280 29681.02752510 0 417.56837142 0 9795.33145266 0 2478.35168113 0 -2493.84186355 0 4636
0.06650000 0.06648880 29203.25670918 0 -360.52596842 0 9063.06325078 0 2170.43032793 0 960.74341005 0 4653
0.06750000 0.06749660 29052.89453814 0 277.91756741 0 8554.68852906 0 2875.68205725 0 -154.80106606 0 5220
0.06850000 0.06852730 29044.14740154 0 704.97049227 0 8147.08303551 0 -123.65350911 0 1872.03117406 0 5029
0.06950000 0.06949320 27932.59671299 0 684.34053667 0 6993.72324845 0 -250.57889020 0 1647.45120977 0 5040
0.07050000 0.07048030 28043.76285417 0 270.68733931 0 8808.27798438 0 -362.44701678 0 2697.18510885 0 5475
0.07150000 0.07148790 28511.23640801 0 -590.87129225 0 8036.64766777 0 127.31069800 0 1247.81779009 0 5509
0.07250000 0.07249820 28667.02401821 0 -393.76398029 0 8176.82329997 0 572.56652486 0 -411.14974472 0 5916
0.07350000 0.07351270 28566.59803211 0 182.72657648 0 7612.22331282 0 -679.18636947 0 -687.67552091 0 5721
0.07450000 0.07449140 28214.16593313 0 1107.17158408 0 7520.87663307 0 45.81440130 0 487.13246656 0 6028
0.07550000 0.07549160 27562.78106405 0 1008.48063127 0 7875.60070328 0 346.16073420 0 -7.05253944 0 6183
0.07650000 0.07648840 27109.59080922 0 321.99649252 0 7944.42627435 0 846.03633939 0 1146.06312500 0 6330
0.07750000 0.07749960 26884.82261540 0 -44.42626393 0 7532.81259922 0 596.26572890 0 -977.39175765 0 6583
0.07850000 0.07848650 26405.72312050 0 523.74643027 0 7317.99842541 0 621.11756196 0 -544.09293436 0 6549
0.07950000 0.07947320 25973.34883633 0 494.85430589 0 7254.42113630 0 -39.31328578 0 -1215.65268649 0 6828
0.08050000 0.08048110 26008.44810601 0 641.04663940 0 7879.58674022 0 -290.25878066 0 850.58817213 0 7147
0.08150000 0.08149960 25114.57932340 0 1011.86101204 0 7659.11460843 0 58.77300737 0 21.08768551 0 7386
0.08250000 0.08250610 24468.84133997 0 905.32642433 0 8320.78566726 0 -348.23568787 0 97.84303417 0 7227
0.08350000 0.08350160 23636.86685310 0 530.15066294 0 8316.98785985 0 -170.74299933 0 542.56716800 0 7798
0.08450000 0.08449610 23711.49432238 0 624.04840634 0 8602.11129626 0 99.51429088 0 -1224.17837660 0 7371
0.08550000 0.08548940 22724.83945779 0 -35.25317499 0 8320.43135287 0 178.20574626 0 389.46681103 0 8256
0.08650000 0.08650700 23149.90600758 0 20.74400055 0 8645.28229072 0 710.50554745 0 -743.58965401 0 8037
0.08750000 0.08749060 22756.06341378 0 305.58287820 0 7772.53950387 0 161.81649106 0 -55.50822167 0 8155
0.08850000 0.08849210 22374.28965403 0 407.20910432 0 6951.73699274 0 2253.00772642 0 -1080.94567551 0 8718
0.08950000 0.08949900 22108.44313514 0 205.05391948 0 6455.01035672 0 1175.38264112 0 -386.26801639 0 8571
0.09050000 0.09049190 21774.28037211 0 705.53850254 0 6082.50413285 0 1708.09433280 0 281.50389342 0 8932
0.09150000 0.09150830 21126.21720047 0 886.45696838 0 6082.20518008 0 -42.53223205 0 439.45503589 0 9285
0.09250000 0.09250820 20479.81487756 0 742.74151393 0 6134.03473256 0 -405.94021590 0 1773.08887948 0 9204
0.09350000 0.09350330 19925.97719013 0 713.34116984 0 6818.95767351 0 -144.27792855 0 2407.55523624 0 9349
0.09450000 0.09448040 19509.21488396 0 61.93448828 0 6677.59730255 0 -84.27301432 0 2169.07950430 0 9564
0.09550000 0.09549270 19442.44876530 0 25.39083383 0 6553.78656643 0 1583.60818486 0 2114.14970087 0 10155
0.09650000 0.09649430 19387.64075745 0 -182.16963854 0 5641.51557997 0 1456.56432989 0 539.54663779 0 9913
0.09750000 0.09749140 19072.74383961 0 114.42251191 0 4578.29558926 0 640.66796589 0 -139.62201596 0 10476
0.09850000 0.09850240 18673.03291365 0 746.74637381 0 4092.80736294 0 51.32232928 0 -430.29157987 0 10575
0.09950000 0.09950330 18302.33147873 0 656.55121584 0 4157.94584985 0 -705.84852763 0 103.38860806 0 10882
0.10050000 0.10051200 17617.17601895 0 250.84019707 0 4121.55111817 0 -170.80278988 0 -455.93286968 0 10875
0.10150000 0.10150300 17615.62589347 0 94.78784758 0 4724.98174846 0 -337.66715383 0 144.79611335 0 11118
0.10250000 0.10250800 17494.27321346 0 387.64430637 0 4718.06154545 0 -521.85416996 0 -807.42160659 0 11575
0.10350000 0.10349800 17663.12616695 0 119.10056914 0 5384.71515045 0 -160.70150795 0 -618.02727610 0 11364
0.10450000 0.10450100 17342.91453319 0 455.89633101 0 5562.40381914 0 -429.34489610 0 -221.35238161 0 12093
0.10550000 0.10551000 17155.46007401 0 507.26084585 0 6423.24385682 0 -368.65748377 0 687.99883279 0 12067
0.10650000 0.10649700 16780.21898591 0 105.35903898 0 5807.15755926 0 758.64801576 0 -28.16932302 0 12054
0.10750000 0.10749900 16960.25498746 0 123.75426727 0 6292.44648374 0 669.49919248 0 127.92078309 0 12807
0.10850000 0.10850100 16401.65620036 0 81.93941114 0 5916.08709083 0 79.40661684 0 -610.68743198 0 12736
0.10950000 0.10950300 16234.02120260 0 400.11395858 0 6666.53605006 0 -13.59659343 0 -125.86022345 0 12933
0.11050000 0.11050200 15969.72480918 0 540.62176053 0 5467.96796077 0 -644.28750887 0 -388.10048615 0 13428
0.11150000 0.11150900 15514.54153589 0 383.75016973 0 6241.41413865 0 152.80804759 0 -654.48401280 0 13453
0.11250000 0.11250000 15267.51796918 0 26.91383211 0 5249.32276257 0 802.87752448 0 -676.21787918 0 13668
0.11350000 0.11349100 15316.23619839 0 -7.06979012 0 5671.82053300 0 1077.68819755 0 -1668.79865202 0 13791
0.11450000 0.11448600 15203.96282472 0 92.54570181 0 4489.68377374 0 838.27463969 0 -1361.96238664 0 14205
0.11550000 0.11549300 15197.43015308 0 -135.65812368 0 4292.03170340 0 577.72069206 0 -1308.66021497 0 14776
0.11650000 0.11649800 15218.46757024 0 6.41061033 0 3821.48004326 0 272.72353984 0 -416.84645584 0 14553
0.11750000 0.11747300 15255.22768863 0 562.18400588 0 4344.66953559 0 -146.13918635 0 -773.85363944 0 14568
0.11850000 0.11849100 14596.20291543 0 620.15094800 0 4484.33584085 0 -193.93066197 0 120.52004119 0 16015
0.11950000 0.11950300 14209.33588627 0 605.01618721 0 4698.76248329 0 36.24802338 0 454.25873417 0 15270
0.12050000 0.12050700 13686.72215483 0 432.37428417 0 5317.61686205 0 219.63727850 0 396.84319383 0 15999
0.12150000 0.12150000 13568.80189551 0 128.24188051 0 4827.69970580 0 757.28390534 0 1201.71262954 0 15670
0.12250000 0.12250700 13407.14595315 0 169.49957725 0 4736.62983417 0 457.04896003 0 767.59223975 0 16887
0.12350000 0.12352200 13376.69705990 0 93.96373445 0 4187.43145084 0 436.81096472 0 1533.61663831 0 16407
0.12450000 0.12449800 13284.46459416 0 -149.01356187 0 3970.80141576 0 296.15590085 0 732.04564815 0 16306
0.12550000 0.12549900 13234.30696274 0 9.73707995 0 3583.34755338 0 60.77875901 0 1400.31691981 0 17523
0.12650000 0.12650100 13470.81182086 0 126.23114633 0 4034.50050044 0 -201.91048646 0 760.59563770 0 17154
0.12750000 0.12750600 13094.24205378 0 173.68270157 0 4328.96897900 0 -237.76267423 0 1597.73647133 0 18007
0.12850000 0.12850300 13321.77832880 0 139.57551220 0 4433.61352086 0 -328.69192733 0 1072.54510267 0 17496
0.12950000 0.12949900 12933.13972767 0 248.00014575 0 4714.16408711 0 -3.14626753 0 1223.19293969 0 18405
0.13050000 0.13049000 12896.82250226 0 292.39131042 0 5103.09056869 0 -284.25425891 0 1208.84320673 0 18100
0.13150000 0.13148800 12460.01928817 0 263.91771991 0 4709.69086788 0 370.26850703 0 1335.01234803 0 19059
0.13250000 0.13249300 12483.04972379 0 -24.87552783 0 4718.28299194 0 924.39850383 0 1496.11467415 0 18957
0.13350000 0.13349100 12354.27858615 0 66.94748334 0 3835.25401533 0 1226.01638252 0 1501.09722031 0 19468
0.13450000 0.13450700 12208.23462179 0 162.23502494 0 3684.41573433 0 1068.35312050 0 1316.22261282 0 19953
0.13550000 0.13551000 11998.41406648 0 180.31945307 0 3047.03735614 0 515.86514946 0 1430.17897985 0 19956
0.13650000 0.13649900 11792.69027135 0 309.22567307 0 3295.76606087 0 -320.06658630 0 1575.07142243 0 19723
0.13750000 0.13749600 11428.18933832 0 467.72489562 0 3180.42565323 0 -306.07116773 0 1623.88930255 0 20946
0.13850000 0.13851100 11055.86027164 0 417.79092515 0 3136.11420931 0 -239.46670502 0 1540.21574390 0 20955
0.13950000 0.13949800 10771.54511495 0 103.44164449 0 2733.64627448 0 -107.77823123 0 1149.93843869 0 20506
0.14050000 0.14048300 10936.83277984 0 -209.18168217 0 2814.98357259 0 446.35863041 0 271.10033702 0 21447
0.14150000 0.14148400 10998.18453166 0 -311.28733995 0 2545.92607950 0 169.91478943 0 -241.77860644 0 21771
0.14250000 0.14249400 11239.40620016 0 -125.53580433 0 2040.68482570 0 143.12972847 0 -391.46979459 0 22470
0.14350000 0.14350900 11270.07653991 0 23.39626523 0 2194.26904326 0 -208.88494387 0 -118.35097275 0 22519
0.14450000 0.14449900 11281.70248097 0 80.38928567 0 2304.90371285 0 -84.21521678 0 319.05236135 0 22218
0.14550000 0.14550500 11541.01632822 0 188.47754199 0 2650.82528483 0 -85.44557352 0 316.99844509 0 23559
0.14650000 0.14650700 11034.75642054 0 343.03058797 0 2882.20365657 0 54.43797076 0 848.62504894 0 23044
0.14750000 0.14750500 10961.88945091 0 336.60642511 0 3090.85054545 0 349.98732966 0 1277.05979993 0 23649
0.14850000 0.14849900 10687.07434891 0 211.16695001 0 2999.90246939 0 183.94563944 0 1099.21611870 0 23640
0.14950000 0.14949500 10547.10909087 0 116.40224359 0 3062.54968321 0 62.49618731 0 1177.53067214 0 24457
0.15050000 0.15050000 10504.58029125 0 40.12510863 0 2941.15271390 0 -22.39521635 0 536.43863621 0 24591
0.15150000 0.15149900 10298.81220682 0 145.40730568 0 2960.51821001 0 -327.40643042 0 770.17541313 0 25020
0.15250000 0.15250500 10443.99252984 0 74.71427630 0 2841.21391009 0 -137.98774082 0 15.33716289 0 25297
0.15350000 0.15350100 10316.20682911 0 84.32073604 0 2984.24620210 0 -167.62392543 0 -149.26379642 0 25452
0.15450000 0.15450400 10133.22558915 0 295.44062867 0 3074.12026265 0 -237.17805548 0 -335.07069366 0 26061
0.15550000 0.15549900 9943.54559268 0 266.41010023 0 3124.94223357 0 206.99600525 0 -289.81367320 0 26128
0.15650000 0.15649500 9765.96764724 0 229.38313880 0 2889.93213929 0 198.23668909 0 -146.43149573 0 26331
0.15750000 0.15749700 9525.23316104 0 205.18678738 0 2717.36995699 0 544.45832107 0 -275.31557108 0 27345
0.15850000 0.15849900 9387.54880192 0 186.25754087 0 2668.43028129 0 279.66920920 0 -322.24340536 0 26980
0.15950000 0.15949700 9109.12412203 0 175.08113619 0 2461.06778209 0 221.19515460 0 -102.28746535 0 27777
0.16050000 0.16050000 8975.29293194 0 183.39755937 0 2256.70588291 0 88.95206807 0 -173.30181360 0 28224
0.16150000 0.16150500 8898.53957630 0 50.84046170 0 2220.37758518 0 229.98768774 0 76.47311510 0 28075
0.16250000 0.16249700 8915.65739047 0 -33.90799825 0 2231.81529672 0 349.71384323 0 6.08743132 0 28590
0.16350000 0.16349900 8942.30847631 0 -43.34826239 0 2198.73119016 0 35.00537636 0 138.03424458 0 29163
0.16450000 0.16449100 9006.47259863 0 -21.65968181 0 2140.12537490 0 173.95950969 0 274.47628886 0 28996
0.16550000 0.16550500 9021.11021204 0 98.91594245 0 2199.51732522 0 56.36422311 0 541.51640437 0 30777
0.16650000 0.16650700 8846.35570943 0 173.51883116 0 1886.04873728 0 267.55719308 0 479.23457727 0 29211
0.16750000 0.16749900 8804.13693490 0 68.32565561 0 2124.26980576 0 251.65622741 0 916.95790155 0 30922
0.16850000 0.16850800 8747.21411300 0 -12.89361153 0 1781.29347217 0 126.20789445 0 474.33618077 0 30867
0.16950000 0.16949900 8777.87338043 0 45.51256972 0 1903.55408282 0 153.98835742 0 311.72469678 0 30852
0.17050000 0.17049200 8691.24351105 0 159.53448492 0 1645.41390200 0 -104.19921296 0 365.22838477 0 31257
0.17150000 0.17149500 8576.48993663 0 177.49268854 0 1659.75256264 0 -146.43260296 0 523.42090392 0 32608
0.17250000 0.17250900 8424.44477222 0 50.42015625 0 1716.67538453 0 36.02070855 0 332.26718102 0 32361
0.17350000 0.17350400 8462.19032752 0 47.00999093 0 1758.30732585 0 -113.60648157 0 204.97973490 0 32508
0.17450000 0.17449800 8361.91935397 0 191.50471560 0 1893.98759418 0 54.21818511 0 51.16897758 0 32791
0.17550000 0.17549800 8282.26504922 0 173.21212777 0 2028.18417098 0 -462.98151166 0 252.36707066 0 33633
0.17650000 0.17650100 8076.03192715 0 239.23861512 0 2023.54486688 0 134.48556448 0 425.12523311 0 33984
0.17750000 0.17750300 8049.92338523 0 -16.24620076 0 2175.90005639 0 140.07376682 0 212.42144441 0 34069
0.17850000 0.17849800 8043.45714753 0 30.71728640 0 1914.06171907 0 443.39235460 0 467.63078086 0 34536
