### header ###
fiducial parameters:
Omega_m = 0.31
Omega_nu = 0
Omega_de = 0.69
Omega_k = 0
H_0 = 100
w_de = -1
zeff = 0
beta = 0
fgrowth = 0
b_1 = 2
gamma = 0.55
Lx = 3500 Ly = 3500 Lz = 3500
nx = 700 ny = 700 nz = 700
xoffset = -685.467585 yoffset = -31.7331281 zoffset = 572.489161
bins = 400 dk = 0.001
kx_ny = 0.628318531 ky_ny = 0.628318531 kz_ny = 0.628318531
############################
A(data) = 8.09297161 (not used)
A(ran) = 8.08876074 (used)
Ngal = 480956
weighted Ngal = 0
Nran = 23820508
weighted Nran = 0
SN(data) = 3493.03101
SN(ran) = 70.4560395
SN(data+ran) = 3563.48705
############################
13 columns: k_central k_mean P_0(k) sigma^{lin}_{P_0(k)} P^img_1(k) sigma^{lin}_{P_1(k)} P_2(k) sigma^{lin}_{P_2(k)} P^img_3(k) sigma^{lin}_{P_3(k)} P_4(k) sigma^{lin}_{P_4(k)} N_modes
### header ###
0.00050000 0 0 0 0 0 0 0 0 0 0 0 0
0.00150000 0.00179520 64944.27833078 0 -22276.29957939 0 111527.09896830 0 -43143.31365586 0 -163553.73882615 0 3
0.00250000 0.00253879 108953.33706420 0 -1702.45851947 0 52815.32155469 0 49815.16442183 0 177247.99016185 0 6
0.00350000 0.00331552 98657.40366184 0 9022.79320542 0 42560.24503091 0 -3686.07658305 0 35084.54348310 0 7
0.00450000 0.00420575 82634.19952378 0 11198.88149132 0 22369.30710786 0 -6917.89996809 0 23760.76616782 0 24
0.00550000 0.00557378 111793.94199643 0 -8566.10409595 0 80825.09237167 0 -19856.44299027 0 -79997.87898446 0 45
0.00650000 0.00659388 106141.74162300 0 -5276.56068163 0 47489.53331692 0 -5840.79528206 0 49872.85123413 0 40
0.00750000 0.00754703 126643.03681071 0 4581.55085276 0 55573.76983676 0 -16445.50260664 0 -21809.04747204 0 57
0.00850000 0.00846663 102193.23986943 0 3462.73671913 0 34895.20672870 0 -18614.23886887 0 -22644.34365636 0 75
0.00950000 0.00948925 130717.65234397 0 -99.73296929 0 74232.85162114 0 7170.57042045 0 -72193.66155929 0 112
0.01050000 0.01054430 107843.55794763 0 23444.76201750 0 33568.07787594 0 -12629.42585789 0 -53161.44242852 0 105
0.01150000 0.01145670 94556.76816525 0 16859.16466186 0 37032.16541870 0 -13014.96420808 0 -37769.47152837 0 144
0.01250000 0.01249090 78809.92925467 0 3374.33527778 0 35957.59629505 0 11868.53569636 0 -40469.23648890 0 169
0.01350000 0.01339930 79346.60483863 0 3170.91452621 0 30677.86892853 0 18294.58085135 0 -38018.04522055 0 180
0.01450000 0.01448870 75500.96498262 0 2293.28884411 0 26743.31830422 0 1163.49096427 0 -38548.40957937 0 267
0.01550000 0.01550050 79910.85051139 0 994.83399093 0 29084.56138712 0 -5761.38456846 0 -12826.51323966 0 238
0.01650000 0.01653350 78593.24385797 0 -3704.74452269 0 29596.98857973 0 -2686.61103865 0 -9024.26582462 0 315
0.01750000 0.01747870 86655.55717467 0 -8319.55663921 0 32216.47918533 0 -313.71217909 0 -13059.69640035 0 297
0.01850000 0.01844180 94375.18203823 0 -1796.82794389 0 41456.99858598 0 -5424.33192865 0 -13628.14955653 0 388
0.01950000 0.01947590 95602.21707463 0 2617.45329783 0 58107.56064826 0 -472.86134710 0 -2852.33052421 0 399
0.02050000 0.02045430 87842.73184172 0 12098.84005258 0 50789.41828262 0 -2872.30499818 0 -5234.60764289 0 462
0.02150000 0.02154770 81688.06936803 0 10887.66058532 0 48146.78651815 0 14603.73209631 0 3656.53562043 0 571
0.02250000 0.02255340 70467.37539681 0 262.16607813 0 41312.50474709 0 17237.06310792 0 -4710.17805018 0 510
0.02350000 0.02348930 70965.96218340 0 3750.66145372 0 40325.40698951 0 10019.51281327 0 -8307.28850331 0 555
0.02450000 0.02439640 67699.18346890 0 871.47389843 0 36879.92095244 0 3064.94130537 0 -16005.93131134 0 592
0.02550000 0.02547300 61921.31220879 0 6121.41228226 0 26077.76085937 0 1646.83115958 0 -1666.44024683 0 837
0.02650000 0.02652900 57907.37301553 0 7347.27365223 0 19127.88401720 0 9332.66328779 0 8530.35155911 0 723
0.02750000 0.02749970 60083.08484240 0 -9532.17550870 0 12950.74472413 0 20103.68800347 0 3944.38284874 0 826
0.02850000 0.02848090 57667.87862971 0 -4003.36512305 0 8286.07392896 0 11602.46773096 0 -1882.02948337 0 831
0.02950000 0.02946900 62738.56050365 0 5983.25181318 0 7291.65736467 0 8064.64957723 0 -13988.11083639 0 996
0.03050000 0.03053250 55395.50540718 0 2638.81181240 0 4920.57436638 0 -3390.99912663 0 5218.03237263 0 1041
0.03150000 0.03150510 51321.55421340 0 5615.83885872 0 5171.87185046 0 -4230.59137298 0 6201.26588885 0 1036
0.03250000 0.03246190 53239.28087199 0 -556.66777365 0 10152.52465131 0 -3209.06975754 0 8244.79630203 0 1059
0.03350000 0.03345080 52660.19828398 0 -582.65894893 0 16631.51766359 0 -6732.88142037 0 2918.65374987 0 1302
0.03450000 0.03451200 54716.55044930 0 1104.19645040 0 20911.85699198 0 -4608.13550465 0 3314.25684332 0 1339
0.03550000 0.03553350 52438.86251085 0 3694.32546504 0 27721.11530896 0 -2524.51220330 0 2265.40873022 0 1365
0.03650000 0.03647120 53007.42639029 0 3226.97370677 0 32927.32243868 0 -7259.59191200 0 3614.44971380 0 1308
0.03750000 0.03744890 51110.84787211 0 2756.88708427 0 35173.89714439 0 5175.24890953 0 11146.17722519 0 1579
0.03850000 0.03847530 49440.80911971 0 -565.65739417 0 33759.85054180 0 7607.80545522 0 13654.16951986 0 1662
0.03950000 0.03950240 50562.98924008 0 -2507.37224448 0 25647.60104017 0 13571.56997671 0 11151.04904811 0 1683
0.04050000 0.04050350 52213.76214729 0 -2916.19569376 0 21812.47989273 0 12086.32832554 0 6799.10499511 0 1822
0.04150000 0.04152450 52263.25543923 0 754.46599868 0 13971.17017942 0 6955.88911454 0 5580.65101044 0 1887
0.04250000 0.04250150 48762.29705482 0 1407.50285862 0 13285.23965690 0 3015.00512044 0 9132.29849787 0 1920
0.04350000 0.04349210 47906.51706959 0 1115.64744873 0 8866.69557012 0 980.48757967 0 5973.40851641 0 2005
0.04450000 0.04448520 47365.52327895 0 2442.88702474 0 11232.76280527 0 -140.12691397 0 4193.11155347 0 2151
0.04550000 0.04548030 43080.53357413 0 3884.17154638 0 10049.67382607 0 -5007.84643060 0 4729.80928208 0 2274
0.04650000 0.04648670 40931.61677333 0 3698.00147688 0 11663.14407097 0 -2823.54247968 0 3883.75079804 0 2311
0.04750000 0.04749250 40135.51661887 0 672.57840602 0 15032.45251328 0 -4373.90047311 0 5101.58473252 0 2568
0.04850000 0.04851840 40955.53299494 0 -426.12063511 0 17856.00606529 0 -3197.60990135 0 522.15865889 0 2493
0.04950000 0.04949480 40193.42487767 0 1160.74502771 0 22094.15983612 0 -2297.78420799 0 -639.14219953 0 2644
0.05050000 0.05050630 39389.46337259 0 1537.28157782 0 22931.55976215 0 -555.58932921 0 -1660.19545563 0 2829
0.05150000 0.05149060 39028.50558350 0 1933.85903585 0 21632.77606093 0 2401.47652992 0 972.40699701 0 2784
0.05250000 0.05249300 37818.96482031 0 380.83593383 0 21623.03241509 0 4695.56258142 0 2806.28072529 0 3055
0.05350000 0.05348950 38388.74665548 0 33.77524107 0 18763.49380742 0 5563.37818373 0 1863.71585812 0 3009
0.05450000 0.05448610 37418.47883162 0 -671.91960269 0 15616.40692422 0 5153.43642964 0 1783.26434599 0 3336
0.05550000 0.05550870 36607.20959216 0 899.00523409 0 13158.01864473 0 2155.17266433 0 1232.06187187 0 3349
0.05650000 0.05647670 36714.05752666 0 1399.15432571 0 13013.63552910 0 29.51549627 0 -520.58528153 0 3324
0.05750000 0.05747970 34432.16210479 0 757.89620491 0 12259.94237869 0 165.83242327 0 2249.11026809 0 3639
0.05850000 0.05849280 34201.30413232 0 554.32265526 0 10134.14459211 0 64.60114698 0 317.74361255 0 3846
0.05950000 0.05951020 33969.22820412 0 182.21282061 0 9604.69923626 0 995.42857478 0 -1907.57333673 0 3787
0.06050000 0.06049470 32678.97019300 0 107.20601348 0 9161.92803909 0 1105.72553846 0 -4753.01687490 0 3930
0.06150000 0.06148310 33672.26845248 0 -200.64381250 0 9439.74374111 0 -606.23967910 0 -5358.28551111 0 4083
0.06250000 0.06249100 33580.03598674 0 381.70068240 0 8530.50657165 0 -1648.95704594 0 -5673.41494778 0 4303
0.06350000 0.06350600 33716.88992150 0 731.75001708 0 9637.58404097 0 94.34119000 0 -5261.11478850 0 4470
0.06450000 0.06451750 32765.33432659 0 229.00667976 0 9852.98504799 0 -1316.33333606 0 -4738.21317662 0 4479
0.06550000 0.06550280 33227.93605751 0 358.85072567 0 10727.44404520 0 532.16250436 0 -4605.94318433 0 4636
0.06650000 0.06648880 32909.71744222 0 963.97209997 0 12552.25175391 0 -1573.62094788 0 -5302.82423610 0 4653
0.06750000 0.06749660 31766.05701170 0 1701.32914233 0 14221.07255057 0 -830.33467557 0 -2552.45875114 0 5220
0.06850000 0.06852730 30644.54123082 0 1522.45573489 0 13815.38256922 0 -421.40493197 0 -1254.46118498 0 5029
0.06950000 0.06949320 30382.68074886 0 439.05753943 0 14543.72009579 0 1145.62023201 0 541.06686798 0 5040
0.07050000 0.07048030 29893.28399188 0 345.08118253 0 14823.51774396 0 947.17649045 0 -793.40515060 0 5475
0.07150000 0.07148790 30162.89510121 0 -47.12824336 0 14819.97460001 0 1885.83836311 0 1692.93632012 0 5509
0.07250000 0.07249820 30020.72645054 0 -2.06534289 0 12950.85544738 0 2758.55900532 0 1416.71503287 0 5916
0.07350000 0.07351270 29900.03811002 0 340.95674154 0 12516.70959124 0 2871.40813987 0 2376.14305073 0 5721
0.07450000 0.07449140 29511.95312512 0 237.15812529 0 12270.12891753 0 1637.46397278 0 2233.66437496 0 6028
0.07550000 0.07549160 28928.10943744 0 1072.81083847 0 12001.29287093 0 173.18001802 0 -153.45356413 0 6183
0.07650000 0.07648840 28038.22669176 0 797.64585101 0 12410.30454973 0 -269.30994210 0 2439.74248449 0 6330
0.07750000 0.07749960 27261.72455223 0 816.37801013 0 11909.39257494 0 -753.38755424 0 495.24183726 0 6583
0.07850000 0.07848650 27231.49710548 0 -156.51174024 0 11910.94270041 0 -387.76831640 0 247.68569173 0 6549
0.07950000 0.07947320 26838.87246741 0 151.40518404 0 12292.93790665 0 599.83433919 0 -925.10159646 0 6828
0.08050000 0.08048110 26663.15467253 0 794.07059732 0 11325.65961050 0 1330.21803139 0 111.93677499 0 7147
0.08150000 0.08149960 26154.82424011 0 -302.89451774 0 10695.79934086 0 1489.32733903 0 192.75588830 0 7386
0.08250000 0.08250610 25872.47995723 0 346.66673944 0 9443.80728432 0 3821.48004326 0 1284.21252177 0 7227
0.08350000 0.08350160 25755.88837689 0 324.66603003 0 8783.05522844 0 1748.79619883 0 309.45487019 0 7798
0.08450000 0.08449610 25266.60234316 0 574.85406717 0 8435.76068818 0 173.14237212 0 499.10718585 0 7371
0.08550000 0.08548940 24195.46564020 0 1597.29357834 0 8606.76167268 0 -2079.92514486 0 1368.92687895 0 8256
0.08650000 0.08650700 22987.69644898 0 1712.23538228 0 9353.03636546 0 -1575.79112354 0 746.38320156 0 8037
0.08750000 0.08749060 21728.33022411 0 1003.89668880 0 9329.43016894 0 -606.46223283 0 898.23681475 0 8155
0.08850000 0.08849210 21434.02783043 0 -95.82012043 0 9499.99933277 0 1951.51939394 0 381.25668218 0 8718
0.08950000 0.08949900 21347.22080385 0 -571.86453947 0 8523.78567049 0 1448.14936303 0 -627.59819367 0 8571
0.09050000 0.09049190 21774.16964886 0 88.84577375 0 7875.19102726 0 1183.59830614 0 -2412.48242079 0 8932
0.09150000 0.09150830 21069.19472766 0 807.86007065 0 7383.55766066 0 -254.14307156 0 -45.17785334 0 9285
0.09250000 0.09250820 20470.62484796 0 593.98593722 0 7815.45583487 0 -5.07505544 0 1279.46249442 0 9204
0.09350000 0.09350330 20578.46929170 0 87.67376816 0 8438.37375684 0 424.23169650 0 1589.87512071 0 9349
0.09450000 0.09448040 19854.56069505 0 587.22074676 0 8582.48006435 0 652.77112415 0 1912.22371315 0 9564
0.09550000 0.09549270 19817.13623716 0 781.45479042 0 8949.51655977 0 1203.78315428 0 2044.03974012 0 10155
0.09650000 0.09649430 18814.64794808 0 867.09700843 0 8269.44329708 0 324.87308250 0 3560.30604544 0 9913
0.09750000 0.09749140 18274.53994343 0 959.90302060 0 8212.23259474 0 281.39870634 0 2386.17457702 0 10476
0.09850000 0.09850240 17465.15299919 0 403.54084311 0 7775.29651275 0 959.24200280 0 2621.22896059 0 10575
0.09950000 0.09950330 17041.96874462 0 192.32849656 0 7019.49962063 0 1078.90836775 0 2099.91069116 0 10882
0.10050000 0.10051200 17152.24909981 0 -136.10323114 0 5806.28284560 0 1325.78910146 0 2012.09608302 0 10875
0.10150000 0.10150300 16796.16313365 0 -81.64378007 0 5720.09586921 0 668.44953609 0 1151.31140697 0 11118
0.10250000 0.10250800 16791.95565021 0 294.76078793 0 5325.41177873 0 429.58184385 0 764.80533559 0 11575
0.10350000 0.10349800 16582.57798789 0 295.85584085 0 5250.50750133 0 301.78396356 0 1394.60360021 0 11364
0.10450000 0.10450100 16238.78230227 0 241.88379352 0 5451.14909937 0 -296.17472381 0 1375.54812919 0 12093
0.10550000 0.10551000 16434.43028182 0 288.43073983 0 6103.39760978 0 -603.19700424 0 2148.69535431 0 12067
0.10650000 0.10649700 16213.53740169 0 244.68730617 0 6565.06926542 0 -146.24548067 0 1603.33906769 0 12054
0.10750000 0.10749900 16220.51296632 0 62.72449865 0 6401.84105294 0 52.31363452 0 1861.58997176 0 12807
0.10850000 0.10850100 16106.35729744 0 10.22267890 0 5928.64310717 0 -27.27423628 0 1131.10441417 0 12736
0.10950000 0.10950300 16026.63655875 0 296.84349223 0 5956.19105132 0 639.39797023 0 746.49171034 0 12933
0.11050000 0.11050200 15855.23697056 0 8.63442034 0 5305.59231730 0 130.14521315 0 364.70909274 0 13428
0.11150000 0.11150900 15626.26129331 0 216.19378548 0 5320.77247463 0 190.85587736 0 -294.00676261 0 13453
0.11250000 0.11250000 15503.69065756 0 522.13762147 0 5012.17570961 0 -168.39566647 0 -839.62103439 0 13668
0.11350000 0.11349100 14870.35367794 0 562.25154706 0 5090.72278187 0 -327.47950777 0 -874.14897211 0 13791
0.11450000 0.11448600 14747.11870271 0 213.67040265 0 5315.41346941 0 27.91720618 0 -528.40234286 0 14205
0.11550000 0.11549300 14415.39185114 0 25.22463823 0 5157.90964887 0 137.15288753 0 -453.83466413 0 14776
0.11650000 0.11649800 14763.83791318 0 -235.90473812 0 5051.41602876 0 628.42529634 0 -1138.83289690 0 14553
0.11750000 0.11747300 14710.91220055 0 -232.84656201 0 4793.08761842 0 669.31760636 0 -1328.88935241 0 14568
0.11850000 0.11849100 14896.59508776 0 149.48635014 0 4050.69931165 0 397.18754313 0 -1194.54883538 0 16015
0.11950000 0.11950300 14644.36752839 0 318.39134356 0 4204.78178383 0 42.31111772 0 -885.88785088 0 15270
0.12050000 0.12050700 14293.81772463 0 392.87265815 0 3964.51233527 0 6.61207128 0 -973.07133650 0 15999
0.12150000 0.12150000 14025.20312453 0 427.13928899 0 4249.70220562 0 209.51163745 0 -766.47725664 0 15670
0.12250000 0.12250700 13584.30315025 0 355.51684867 0 3942.27910703 0 419.50159933 0 -528.55846264 0 16887
0.12350000 0.12352200 13383.22973155 0 55.04905236 0 3577.82246330 0 853.31639296 0 -476.99575319 0 16407
0.12450000 0.12449800 13363.96388636 0 -15.23075785 0 3773.24899635 0 450.89717636 0 21.63211172 0 16306
0.12550000 0.12549900 13438.03773940 0 107.76649457 0 3939.35601328 0 596.97657215 0 -111.73082974 0 17523
0.12650000 0.12650100 13255.34437989 0 202.96457179 0 3622.24463047 0 -4.12208259 0 645.90517553 0 17154
0.12750000 0.12750600 13049.95275450 0 237.33638972 0 4034.63336834 0 -110.92033557 0 332.55173977 0 18007
0.12850000 0.12850300 12828.17408839 0 317.41697897 0 4330.23122403 0 -511.06418942 0 807.88996593 0 17496
0.12950000 0.12949900 12656.22088395 0 454.89428562 0 4468.48027171 0 -342.53454782 0 542.14309796 0 18405
0.13050000 0.13049000 12298.69551556 0 353.09976016 0 4264.06301091 0 -220.63046603 0 1407.96789626 0 18100
0.13150000 0.13148800 12326.59777410 0 -183.32005309 0 4163.67024178 0 273.39230826 0 841.81335471 0 19059
0.13250000 0.13249300 12442.74646145 0 -202.47628226 0 4382.59224809 0 633.04577748 0 628.04108667 0 18957
0.13350000 0.13349100 12430.78835065 0 89.57090030 0 4137.07451756 0 423.82644941 0 -185.05508639 0 19468
0.13450000 0.13450700 12198.82314570 0 270.75155879 0 3766.90455423 0 44.31277260 0 136.97905203 0 19953
0.13550000 0.13551000 12175.01764734 0 96.83523117 0 3817.21719820 0 314.15396485 0 219.51548292 0 19956
0.13650000 0.13649900 12122.20265795 0 42.73707006 0 3566.15223294 0 290.62527461 0 457.55828697 0 19723
0.13750000 0.13749600 12331.46959702 0 -96.01288960 0 3445.84035146 0 95.22243633 0 217.77048453 0 20946
0.13850000 0.13851100 12114.34130733 0 168.83191607 0 3042.59735389 0 300.36559875 0 188.14205055 0 20955
0.13950000 0.13949800 11924.56165994 0 382.39270270 0 3043.68244172 0 57.36936875 0 87.00843217 0 20506
0.14050000 0.14048300 11780.84288379 0 210.03757288 0 2894.00675482 0 176.08318159 0 186.46016441 0 21447
0.14150000 0.14148400 11393.53296164 0 183.24697575 0 3026.32103641 0 130.07656474 0 283.11823838 0 21771
0.14250000 0.14249400 11267.52990520 0 266.70573130 0 3023.84083565 0 216.56249390 0 -34.59935421 0 22470
0.14350000 0.14350900 11056.53568345 0 257.33965174 0 3005.30576390 0 146.89764060 0 306.24389600 0 22519
0.14450000 0.14449900 10924.91895834 0 111.14953269 0 3191.16580831 0 -153.56096568 0 462.57294288 0 22218
0.14550000 0.14550500 10807.28657946 0 133.26871598 0 3459.16035822 0 -236.71966123 0 435.53764737 0 23559
0.14650000 0.14650700 10812.19161936 0 331.32492618 0 3930.36528552 0 -393.56467845 0 762.49232694 0 23044
0.14750000 0.14750500 10444.94474977 0 372.36006919 0 3810.58487564 0 -170.67877985 0 889.73991268 0 23649
0.14850000 0.14849900 10180.55977775 0 262.40191864 0 3851.15387377 0 195.18183467 0 968.54607735 0 23640
0.14950000 0.14949500 10059.82714793 0 60.54413645 0 3597.16581476 0 554.07131348 0 536.98339459 0 24457
0.15050000 0.15050000 10004.15549874 0 -24.94938024 0 3384.78755241 0 817.01466881 0 346.63684417 0 24591
0.15150000 0.15149900 9897.54008306 0 86.54317308 0 2969.28749127 0 272.45226788 0 47.23486985 0 25020
0.15250000 0.15250500 9772.55568051 0 124.54704572 0 2680.23337955 0 104.50979167 0 233.91614858 0 25297
0.15350000 0.15350100 9669.41697482 0 174.16656216 0 2622.28083145 0 -181.01479507 0 149.30587125 0 25452
0.15450000 0.15450400 9450.07422017 0 173.24977367 0 2580.31672039 0 314.06649348 0 448.70707051 0 26061
0.15550000 0.15549900 9383.09772734 0 198.13925263 0 2603.32501136 0 217.57339715 0 389.32176358 0 26128
0.15650000 0.15649500 9355.68265109 0 75.94717967 0 2704.32675836 0 -39.63504754 0 522.85621535 0 26331
0.15750000 0.15749700 9175.23697352 0 11.24649249 0 2574.71412403 0 241.69334954 0 582.40539269 0 27345
0.15850000 0.15849900 9197.62521430 0 33.87754935 0 2557.90633495 0 82.96891590 0 481.38039382 0 26980
0.15950000 0.15949700 9139.48443668 0 33.83392439 0 2409.12750637 0 -28.78693730 0 915.34687829 0 27777
0.16050000 0.16050000 9229.13705074 0 110.55982067 0 2380.08479837 0 62.13379012 0 106.80918136 0 28224
0.16150000 0.16150500 9051.14942928 0 111.51159771 0 2481.51836603 0 -226.89186572 0 368.73831174 0 28075
0.16250000 0.16249700 8870.53766683 0 213.33491121 0 2407.37807904 0 -220.61828648 0 52.08266582 0 28590
0.16350000 0.16349900 8826.42552476 0 194.49645776 0 2664.96464363 0 -160.62067998 0 60.55664817 0 29163
0.16450000 0.16449100 8679.65078696 0 192.56544432 0 2580.40529899 0 -37.40862446 0 332.39451275 0 28996
0.16550000 0.16550500 8635.74901906 0 76.02612535 0 3088.89074396 0 -58.49088453 0 131.86363796 0 30777
0.16650000 0.16650700 8586.45502896 0 117.61798485 0 3027.06288217 0 136.65463291 0 425.47733304 0 29211
0.16750000 0.16749900 8421.67669101 0 136.90929638 0 2978.96470316 0 101.43644647 0 466.19802202 0 30922
0.16850000 0.16850800 8436.23679815 0 152.16253105 0 3020.35305333 0 209.27247523 0 619.33270320 0 30867
0.16950000 0.16949900 8409.98431600 0 0.52550914 0 2917.41364949 0 96.25902738 0 434.97406604 0 30852
0.17050000 0.17049200 8242.68148799 0 142.62040152 0 2904.40366783 0 263.59994419 0 666.98023859 0 31257
0.17150000 0.17149500 8230.55729232 0 163.11416753 0 2763.06544152 0 123.09103501 0 408.00963340 0 32608
0.17250000 0.17250900 8108.41847724 0 14.90667090 0 2655.23207011 0 158.50697317 0 451.99001482 0 32361
0.17350000 0.17350400 8067.07441637 0 72.05237869 0 2458.54329203 0 -176.34670292 0 386.61679462 0 32508
0.17450000 0.17449800 8088.49936489 0 68.92810080 0 2841.67894773 0 30.14562227 0 279.61274034 0 32791
0.17550000 0.17549800 8021.85504181 0 117.38768049 0 2803.19154666 0 -118.19374574 0 670.85001611 0 33633
0.17650000 0.17650100 8013.67259377 0 2.84200005 0 2768.19192791 0 155.90719131 0 386.69762259 0 33984
0.17750000 0.17750300 7956.69441025 0 -25.64682598 0 2757.25247099 0 190.93781257 0 526.26649140 0 34069
0.17850000 0.17849800 8092.56290810 0 102.82070852 0 2876.54569859 0 147.70924201 0 20.06449197 0 34536
