### header ###
fiducial parameters:
Omega_m = 0.31
Omega_nu = 0
Omega_de = 0.69
Omega_k = 0
H_0 = 100
w_de = -1
zeff = 0
beta = 0
fgrowth = 0
b_1 = 2
gamma = 0.55
Lx = 3500 Ly = 3500 Lz = 3500
nx = 700 ny = 700 nz = 700
xoffset = -685.467585 yoffset = -31.7331281 zoffset = 572.489161
bins = 400 dk = 0.001
kx_ny = 0.628318531 ky_ny = 0.628318531 kz_ny = 0.628318531
############################
A(data) = 8.00371949 (not used)
A(ran) = 8.00172655 (used)
Ngal = 475871
weighted Ngal = 0
Nran = 23820508
weighted Nran = 0
SN(data) = 3486.84592
SN(ran) = 69.6979402
SN(data+ran) = 3556.54386
############################
13 columns: k_central k_mean P_0(k) sigma^{lin}_{P_0(k)} P^img_1(k) sigma^{lin}_{P_1(k)} P_2(k) sigma^{lin}_{P_2(k)} P^img_3(k) sigma^{lin}_{P_3(k)} P_4(k) sigma^{lin}_{P_4(k)} N_modes
### header ###
0.00050000 0 0 0 0 0 0 0 0 0 0 0 0
0.00150000 0.00179520 39092.94651395 0 -62337.41017548 0 16221.39875231 0 -103265.15163512 0 -81010.66453563 0 3
0.00250000 0.00253879 64141.86695117 0 -60312.50341264 0 -37199.02535372 0 9868.76311086 0 58525.65163341 0 6
0.00350000 0.00331552 77740.78557018 0 -35983.72698162 0 -27911.11640284 0 -48017.46176427 0 -7292.58743995 0 7
0.00450000 0.00420575 77343.84272543 0 374.38741186 0 -43675.11741689 0 -25425.71165080 0 27641.28384701 0 24
0.00550000 0.00557378 72651.61291379 0 -3189.13957287 0 -38248.90319302 0 -53587.94838053 0 -28894.78173973 0 45
0.00650000 0.00659388 70585.18493288 0 16484.03429701 0 -53235.40555831 0 -90296.35902154 0 5086.98033608 0 40
0.00750000 0.00754703 61849.34209747 0 25891.52435592 0 9951.52873888 0 -69855.51872734 0 -21252.55242665 0 57
0.00850000 0.00846663 51542.66854003 0 8270.69446978 0 8268.95611479 0 -45644.33038589 0 13459.62877279 0 75
0.00950000 0.00948925 59765.41984335 0 -8217.15977929 0 45654.84909447 0 -15245.15187305 0 -40385.41899003 0 112
0.01050000 0.01054430 60666.26419060 0 -4657.37413312 0 42613.28146679 0 15490.40386778 0 -34419.31820800 0 105
0.01150000 0.01145670 74632.67327034 0 -3236.56234006 0 41530.62954602 0 20604.48925502 0 -23537.10520649 0 144
0.01250000 0.01249090 73165.70095512 0 -5939.53827479 0 21296.28810969 0 13723.26082673 0 -28462.29673232 0 169
0.01350000 0.01339930 75123.17725981 0 2299.01323604 0 40099.75300971 0 15178.16430790 0 -35899.35586650 0 180
0.01450000 0.01448870 71424.91004713 0 2770.19601870 0 15219.79624921 0 -57.79554253 0 -22610.57306566 0 267
0.01550000 0.01550050 71961.14273810 0 2165.29276921 0 9520.60492926 0 -1646.52113448 0 -16454.58191299 0 238
0.01650000 0.01653350 68968.84695586 0 5070.26112560 0 15835.86040212 0 -13092.69192830 0 -13867.75466561 0 315
0.01750000 0.01747870 69164.27348891 0 -1584.93686384 0 25101.07108712 0 -10448.22215792 0 -11297.53590546 0 297
0.01850000 0.01844180 67186.31338330 0 -1262.06787213 0 29816.66350413 0 1034.65228545 0 -5004.91226452 0 388
0.01950000 0.01947590 67444.40927483 0 4485.26591614 0 24193.91551473 0 -6182.58687689 0 6306.27581743 0 399
0.02050000 0.02045430 71349.06462212 0 1000.97691674 0 28387.33709329 0 12583.25426340 0 2077.94319872 0 462
0.02150000 0.02154770 65881.99351967 0 1354.27819322 0 24692.39157806 0 15254.89551889 0 1591.71312663 0 571
0.02250000 0.02255340 64824.03288325 0 4016.97301026 0 23146.91647988 0 7020.79508263 0 5325.31212780 0 510
0.02350000 0.02348930 62815.18099140 0 2462.88364336 0 20108.22765665 0 4974.98377054 0 7476.97486516 0 555
0.02450000 0.02439640 60795.58894448 0 -922.34015865 0 24367.75101438 0 13798.55263549 0 8976.07906701 0 592
0.02550000 0.02547300 59908.47428001 0 -329.71611738 0 9235.43720356 0 4879.75070477 0 46.60717975 0 837
0.02650000 0.02652900 60436.29200411 0 2071.49910567 0 7372.29710632 0 5689.42552946 0 5902.93316894 0 723
0.02750000 0.02749970 57884.34257991 0 2143.30313212 0 5125.22414600 0 -1669.77301660 0 -2191.94385505 0 826
0.02850000 0.02848090 54185.63247424 0 2785.35403138 0 4952.58445743 0 -4584.48501884 0 6062.16427216 0 831
0.02950000 0.02946900 55636.66064173 0 3075.64824347 0 5958.01798491 0 -2958.49197457 0 1116.09034172 0 996
0.03050000 0.03053250 51338.82704012 0 -559.43253316 0 6847.22531877 0 -6438.76725621 0 6901.64579526 0 1041
0.03150000 0.03150510 57039.41347300 0 -2254.77929839 0 17722.69527447 0 -2240.13061266 0 12308.10699166 0 1036
0.03250000 0.03246190 57865.51962772 0 -1604.52380644 0 23575.19400386 0 1000.47091150 0 9733.83576062 0 1059
0.03350000 0.03345080 58430.09747022 0 1818.59613449 0 25483.95207935 0 2704.65892810 0 21851.34375285 0 1302
0.03450000 0.03451200 56977.62990051 0 3136.97785064 0 29397.13311675 0 7866.46603531 0 17796.99057400 0 1339
0.03550000 0.03553350 52512.60419415 0 2248.22448210 0 28223.68813247 0 6578.94288842 0 18477.27421086 0 1365
0.03650000 0.03647120 52831.37642567 0 1848.89001519 0 20625.41594893 0 10581.18970667 0 8224.77753876 0 1308
0.03750000 0.03744890 48375.09785591 0 1877.13551580 0 21859.31582672 0 1154.69953836 0 11085.05799219 0 1579
0.03850000 0.03847530 45322.45790341 0 2345.57236191 0 13479.55895747 0 -135.06132537 0 4796.11036309 0 1662
0.03950000 0.03950240 45453.55422927 0 3272.75776990 0 13342.15140647 0 -1385.07032854 0 1338.34511780 0 1683
0.04050000 0.04050350 39734.03412095 0 2574.65876240 0 12205.57726383 0 -4124.76209237 0 380.11512549 0 1822
0.04150000 0.04152450 41333.98505724 0 826.25452387 0 14919.95769313 0 -406.87804181 0 -6315.41048541 0 1887
0.04250000 0.04250150 41060.27718772 0 -1358.17565155 0 15320.22223532 0 -889.66904981 0 -2077.35636550 0 1920
0.04350000 0.04349210 40920.21227877 0 906.50119799 0 17492.28019499 0 3408.81449727 0 -4732.23412122 0 2005
0.04450000 0.04448520 42294.39851201 0 1687.25621749 0 19081.60169946 0 -2980.16051424 0 -3860.49891592 0 2151
0.04550000 0.04548030 40250.89024348 0 1530.56067666 0 19688.47582277 0 2029.03673999 0 -4754.82166385 0 2274
0.04650000 0.04648670 38774.06355917 0 944.85019500 0 17557.16401843 0 -2559.83291947 0 -3958.78794333 0 2311
0.04750000 0.04749250 39047.88215193 0 -34.20329715 0 19108.06455578 0 3611.63734329 0 -6896.07641587 0 2568
0.04850000 0.04851840 39040.90658730 0 -960.74451728 0 15930.30733283 0 3434.20333808 0 -4087.74731050 0 2493
0.04950000 0.04949480 38970.37587820 0 1355.03111131 0 15720.37605427 0 1637.15394769 0 -6275.59440536 0 2644
0.05050000 0.05050630 38737.08199428 0 966.46890921 0 14843.22648213 0 1172.64777689 0 -2045.09161098 0 2829
0.05150000 0.05149060 38012.61978139 0 1554.56547686 0 15688.04486580 0 1980.26314917 0 305.56737695 0 2784
0.05250000 0.05249300 36774.73386667 0 795.12468264 0 16078.56576215 0 2111.96845288 0 2796.38206690 0 3055
0.05350000 0.05348950 36850.57929167 0 655.12510040 0 16036.49092784 0 2750.46513588 0 -10.52075696 0 3009
0.05450000 0.05448610 36246.80541931 0 276.51691832 0 15378.79483361 0 605.36275097 0 2234.97090929 0 3336
0.05550000 0.05550870 34775.40417416 0 1455.77819483 0 15608.43485035 0 1185.67990320 0 670.59756711 0 3349
0.05650000 0.05647670 34184.36347534 0 1242.43664023 0 12874.23495963 0 760.38747799 0 3702.09823706 0 3324
0.05750000 0.05747970 32203.30311879 0 561.50748683 0 13060.36073983 0 2909.24227377 0 3405.73639097 0 3639
0.05850000 0.05849280 33160.94849236 0 -56.95526380 0 11047.98784869 0 3195.71653381 0 2639.65330909 0 3846
0.05950000 0.05951020 33295.80940865 0 -248.96786694 0 13049.39913826 0 59.07351027 0 1470.93620751 0 3787
0.06050000 0.06049470 33253.95602083 0 991.76806419 0 13058.81061436 0 -18.68709477 0 3888.57833166 0 3930
0.06150000 0.06148310 31422.15060284 0 1398.09138253 0 12772.36957130 0 -566.00506517 0 4567.42256629 0 4083
0.06250000 0.06249100 31632.52477439 0 533.84217604 0 13301.51597438 0 2692.83368519 0 4994.82537661 0 4303
0.06350000 0.06350600 30674.54723108 0 -827.55552204 0 12360.92198104 0 1630.76521626 0 3035.88752505 0 4470
0.06450000 0.06451750 31717.78167549 0 635.53040717 0 10973.81434473 0 696.52009397 0 -250.04741861 0 4479
0.06550000 0.06550280 30636.90132670 0 538.39290154 0 10025.12648195 0 -881.35373387 0 -1927.29314723 0 4636
0.06650000 0.06648880 30574.45341472 0 -107.99713109 0 10186.01843389 0 -2901.22591061 0 -204.58888184 0 4653
0.06750000 0.06749660 30111.51951405 0 838.33885918 0 10725.10778466 0 441.23325126 0 -1383.89666211 0 5220
0.06850000 0.06852730 29923.62216188 0 112.63986761 0 10958.73383833 0 45.03867422 0 -1436.81130242 0 5029
0.06950000 0.06949320 30777.40912865 0 72.61706726 0 11678.75604896 0 1853.34108977 0 -2487.74101258 0 5040
0.07050000 0.07048030 29670.06592353 0 838.97108893 0 12032.07393393 0 548.59826332 0 -3001.33079929 0 5475
0.07150000 0.07148790 29007.83017613 0 1790.79352687 0 12177.34283555 0 726.13524116 0 -503.36670921 0 5509
0.07250000 0.07249820 27268.92156336 0 1467.81381191 0 11462.51354526 0 -444.60588140 0 283.06730569 0 5916
0.07350000 0.07351270 26925.23660099 0 562.11535746 0 11856.02396931 0 1362.53814753 0 1145.96347408 0 5721
0.07450000 0.07449140 25660.66638345 0 419.24472140 0 11445.90505803 0 1133.58461493 0 -1266.18677696 0 6028
0.07550000 0.07549160 25480.85182840 0 179.61525321 0 9753.58878810 0 1420.65678051 0 -1776.66524040 0 6183
0.07650000 0.07648840 25522.92666271 0 -37.75087002 0 9090.03543404 0 473.06507788 0 -1129.10032338 0 6330
0.07750000 0.07749960 24991.01217842 0 26.16722524 0 8880.61348242 0 -244.16247797 0 -3122.56168373 0 6583
0.07850000 0.07848650 24877.18867929 0 527.72693104 0 7612.30081909 0 766.48168557 0 -2166.58823121 0 6549
0.07950000 0.07947320 25319.30660929 0 362.23774984 0 9264.71243038 0 -355.66853952 0 -2218.88282133 0 6828
0.08050000 0.08048110 24369.63330960 0 438.15182326 0 8854.89247187 0 -414.94423044 0 -918.01087964 0 7147
0.08150000 0.08149960 23864.62457462 0 779.38648015 0 8774.06450069 0 99.54628990 0 -2525.66372508 0 7386
0.08250000 0.08250610 24114.85911552 0 428.77467137 0 10213.79889686 0 -218.26763192 0 -610.58113766 0 7227
0.08350000 0.08350160 23755.56217516 0 -249.61891964 0 9220.12417833 0 -64.00224494 0 -435.92517874 0 7798
0.08450000 0.08449610 23767.18811622 0 -206.46564089 0 8562.07376971 0 1531.02571430 0 -784.99904160 0 7371
0.08550000 0.08548940 24198.45516790 0 -60.41348301 0 8922.15684514 0 1467.43735286 0 -611.60975663 0 8256
0.08650000 0.08650700 23478.42188495 0 614.32690515 0 8125.31484492 0 757.57289302 0 -1727.26052706 0 8037
0.08750000 0.08749060 22665.38107351 0 1410.22665053 0 7904.39982013 0 1123.09912333 0 251.94300062 0 8155
0.08850000 0.08849210 21355.52504747 0 1144.76766300 0 7411.14989411 0 600.90614023 0 644.66175345 0 8718
0.08950000 0.08949900 20620.65484925 0 481.29845861 0 7144.52831248 0 1999.71722387 0 765.54939582 0 8571
0.09050000 0.09049190 20360.01232302 0 226.66377583 0 6543.94326967 0 1785.35701538 0 1616.00580728 0 8932
0.09150000 0.09150830 19781.48335125 0 442.74905252 0 5792.26528238 0 559.08486216 0 1197.37227821 0 9285
0.09250000 0.09250820 19796.09882001 0 2.01628142 0 5697.35331403 0 145.62653771 0 1570.99680689 0 9204
0.09350000 0.09350330 19602.44385893 0 453.92767166 0 6974.92244091 0 -878.81374255 0 102.10499344 0 9349
0.09450000 0.09448040 18893.48290079 0 858.87137832 0 6253.32796015 0 -1156.20537454 0 686.34130577 0 9564
0.09550000 0.09549270 18300.22773701 0 878.30441561 0 6871.92767544 0 -338.30602697 0 468.79226773 0 10155
0.09650000 0.09649430 17989.31685610 0 -188.32695838 0 5920.44958680 0 277.39606091 0 12.99005148 0 9913
0.09750000 0.09749140 18008.58270129 0 -333.47627889 0 5877.68826835 0 1602.69687285 0 -1164.12208678 0 10476
0.09850000 0.09850240 18226.48605372 0 -214.61376473 0 4864.52625815 0 752.45637172 0 -1720.89394029 0 10575
0.09950000 0.09950330 18123.29198641 0 302.80040298 0 4317.34303794 0 422.73693265 0 -851.79948446 0 10882
0.10050000 0.10051200 17970.49390391 0 610.03084312 0 4503.82313253 0 -431.61804438 0 -865.96873853 0 10875
0.10150000 0.10150300 17400.04772925 0 299.89391771 0 4771.23084923 0 -768.53228013 0 -493.38943731 0 11118
0.10250000 0.10250800 17320.76988355 0 426.91230634 0 5523.87212877 0 -288.78616145 0 -930.22033222 0 11575
0.10350000 0.10349800 17103.86304036 0 337.14454010 0 5798.53221823 0 -393.67872339 0 -828.55756743 0 11364
0.10450000 0.10450100 16875.66242584 0 363.26193988 0 6059.87230092 0 -552.45364683 0 -512.93651955 0 12093
0.10550000 0.10551000 16433.54449583 0 236.09961104 0 6554.41768895 0 196.13626907 0 -462.44339668 0 12067
0.10650000 0.10649700 16374.08611156 0 400.99863733 0 6742.03823300 0 480.28201919 0 -916.13412059 0 12054
0.10750000 0.10749900 15823.79156807 0 323.61637364 0 6206.87955754 0 612.84432085 0 -495.60279505 0 12807
0.10850000 0.10850100 15828.44194450 0 126.03738064 0 6016.08125626 0 912.30309620 0 2.95455023 0 12736
0.10950000 0.10950300 15652.72414962 0 14.71301594 0 5542.20789867 0 843.85841310 0 642.31220612 0 12933
0.11050000 0.11050200 15434.26718095 0 194.96703157 0 5355.55064688 0 1252.81140858 0 1126.69762890 0 13428
0.11150000 0.11150900 15172.29597574 0 268.25696401 0 5355.92710593 0 567.69027301 0 1839.67784094 0 13453
0.11250000 0.11250000 15043.41411485 0 262.01549451 0 4249.30360193 0 746.14514658 0 1920.14042540 0 13668
0.11350000 0.11349100 14944.53825422 0 185.31860772 0 4902.43789833 0 -136.55166029 0 1968.24967674 0 13791
0.11450000 0.11448600 14841.56563341 0 123.53724970 0 4662.22381139 0 -461.85213453 0 1426.94586100 0 14205
0.11550000 0.11549300 14624.76951346 0 202.88263658 0 5075.86372196 0 133.58427724 0 1740.14871315 0 14776
0.11650000 0.11649800 14380.84619771 0 427.86895520 0 4767.51054809 0 152.11049113 0 970.14824275 0 14553
0.11750000 0.11747300 13837.74866535 0 260.73331929 0 4395.52472348 0 586.97494115 0 549.59034363 0 14568
0.11850000 0.11849100 13909.16516043 0 138.87574127 0 4133.13276993 0 546.57313512 0 673.31693008 0 16015
0.11950000 0.11950300 13631.91414697 0 179.28861963 0 3558.22444837 0 553.73692927 0 1073.96014578 0 15270
0.12050000 0.12050700 13796.55961703 0 -30.97715387 0 3878.05962308 0 122.08345345 0 651.47566214 0 15999
0.12150000 0.12150000 13631.47125398 0 -19.24558283 0 3870.35328501 0 -230.77935896 0 1400.80410211 0 15670
0.12250000 0.12250700 13805.30675363 0 138.70079854 0 4089.47459317 0 -177.88797054 0 782.47898047 0 16887
0.12350000 0.12352200 13842.95265802 0 18.04434631 0 4349.99532383 0 -196.17612944 0 1109.51338078 0 16407
0.12450000 0.12449800 13861.77561021 0 102.74120922 0 4370.31303987 0 348.54349850 0 750.35816617 0 16306
0.12550000 0.12549900 13776.85087885 0 142.20076041 0 4302.51719500 0 299.47427660 0 874.40806451 0 17523
0.12650000 0.12650100 13472.25122309 0 377.07355786 0 4137.12987919 0 56.99778153 0 -143.63905541 0 17154
0.12750000 0.12750600 13433.49808622 0 226.48329693 0 4228.96374123 0 -188.80749727 0 385.22832509 0 18007
0.12850000 0.12850300 13054.38168443 0 54.11155862 0 4069.33403432 0 264.38607925 0 225.06493212 0 17496
0.12950000 0.12949900 13060.58218633 0 108.03865231 0 3964.85557733 0 163.37325993 0 348.43498972 0 18405
0.13050000 0.13049000 13039.65549242 0 81.64311573 0 3914.10004037 0 149.13425021 0 -97.33005336 0 18100
0.13150000 0.13148800 12688.66279567 0 256.48708273 0 3978.13129479 0 224.82576991 0 430.52742039 0 19059
0.13250000 0.13249300 12549.04077971 0 315.86353180 0 3653.47965878 0 230.73839136 0 1262.55505442 0 18957
0.13350000 0.13349100 12493.34698587 0 216.24028924 0 3771.08989301 0 533.01507337 0 1148.59868739 0 19468
0.13450000 0.13450700 12226.61468099 0 154.93725565 0 3818.51266021 0 346.96126328 0 857.88815588 0 19953
0.13550000 0.13551000 11931.64794782 0 404.95035006 0 3683.14241697 0 87.16754147 0 748.77039479 0 19956
0.13650000 0.13649900 11609.33257235 0 368.47146871 0 3671.37253569 0 -73.33422174 0 1100.69316683 0 19723
0.13750000 0.13749600 11439.59383288 0 27.76994426 0 3797.46417073 0 50.86891757 0 1237.13299664 0 20946
0.13850000 0.13851100 11415.89905777 0 9.82341087 0 3558.44589487 0 317.34168716 0 1432.78097618 0 20955
0.13950000 0.13949800 11361.86611265 0 74.72523791 0 3604.60641704 0 367.63772265 0 1061.83816457 0 20506
0.14050000 0.14048300 11370.17035627 0 229.99765283 0 3530.21146658 0 101.10239443 0 988.50837176 0 21447
0.14150000 0.14148400 11138.20515132 0 223.61335034 0 3841.78668698 0 -173.71148961 0 1465.64363624 0 21771
0.14250000 0.14249400 11124.25402205 0 235.92799000 0 3775.64061851 0 -276.61878371 0 1278.58778076 0 22470
0.14350000 0.14350900 10772.74092603 0 236.07857362 0 3787.17798097 0 56.23954873 0 1635.12771224 0 22519
0.14450000 0.14449900 10871.99324570 0 -7.04812158 0 3632.40902465 0 482.46437442 0 1371.31850111 0 22218
0.14550000 0.14550500 10778.43210098 0 -2.58044959 0 3300.47179892 0 710.63730812 0 1253.38716947 0 23559
0.14650000 0.14650700 10701.63445604 0 1.09048227 0 3192.72700611 0 207.48872371 0 822.98375912 0 23044
0.14750000 0.14750500 10537.87477198 0 253.20635288 0 2733.44697263 0 107.55755980 0 861.87640728 0 23649
0.14850000 0.14849900 10452.99432992 0 244.86003443 0 2806.66825665 0 -48.82806666 0 890.88257661 0 23640
0.14950000 0.14949500 10153.31078637 0 34.98057435 0 2758.37077580 0 -146.85002960 0 427.19686508 0 24457
0.15050000 0.15050000 10253.81427875 0 113.06725935 0 3190.05857583 0 -69.15032236 0 850.37336902 0 24591
0.15150000 0.15149900 10222.66782904 0 201.48198749 0 2955.43601292 0 -323.84778523 0 83.92279669 0 25020
0.15250000 0.15250500 9874.00032050 0 427.05181763 0 3307.55808680 0 -193.03048196 0 692.94373306 0 25297
0.15350000 0.15350100 9687.91882960 0 232.94732016 0 3054.67726027 0 -30.40858999 0 645.02381847 0 25452
0.15450000 0.15450400 9569.40066474 0 57.04971074 0 3062.30609207 0 404.68461426 0 477.33124463 0 26061
0.15550000 0.15549900 9478.28650381 0 17.66379051 0 2979.71762125 0 273.78316133 0 502.25726226 0 26128
0.15650000 0.15649500 9380.26321219 0 154.42682148 0 2834.44871962 0 327.65223603 0 405.22383648 0 26331
0.15750000 0.15749700 9373.86340844 0 147.55865839 0 2677.09991163 0 301.76292614 0 488.54197351 0 27345
0.15850000 0.15849900 9127.64812145 0 51.30228837 0 2669.63716470 0 97.96992301 0 460.25329083 0 26980
0.15950000 0.15949700 9089.27144363 0 136.82182502 0 2637.91495409 0 217.24344187 0 439.63551478 0 27777
0.16050000 0.16050000 8942.38598258 0 143.38107024 0 2519.51858481 0 45.78815989 0 368.81581801 0 28224
0.16150000 0.16150500 8851.99152276 0 111.77069011 0 2736.96797192 0 38.66920864 0 610.69186091 0 28075
0.16250000 0.16249700 8881.05637541 0 157.32555612 0 2548.77166698 0 64.82004685 0 693.38994775 0 28590
0.16350000 0.16349900 8624.55489866 0 182.31247153 0 2757.00887984 0 157.77841420 0 648.17278765 0 29163
0.16450000 0.16449100 8609.35259669 0 68.17883658 0 2490.94091445 0 -130.50506371 0 577.04860195 0 28996
0.16550000 0.16550500 8480.42644650 0 36.53324646 0 2717.76856069 0 8.65410693 0 496.60262598 0 30777
0.16650000 0.16650700 8469.26554308 0 79.71088433 0 2485.36046274 0 180.10464997 0 385.54277912 0 29211
0.16750000 0.16749900 8503.09149540 0 -26.32024477 0 2469.17272386 0 120.95407632 0 327.60130334 0 30922
0.16850000 0.16850800 8444.52996944 0 138.70633470 0 2336.38233231 0 -235.78626425 0 403.44229942 0 30867
0.16950000 0.16949900 8355.59705649 0 214.49529085 0 2444.48143951 0 -180.62947816 0 5.84940955 0 30852
0.17050000 0.17049200 8191.17303294 0 238.30632537 0 2561.89237189 0 -96.34982045 0 517.73526513 0 31257
0.17150000 0.17149500 8133.80731805 0 94.22681289 0 2715.42122782 0 -141.48880993 0 229.12404640 0 32608
0.17250000 0.17250900 8077.68170355 0 -38.56402156 0 2794.68800120 0 156.53609936 0 19.27691751 0 32361
0.17350000 0.17350400 8158.31037287 0 -95.54619111 0 2933.53495443 0 164.19482643 0 129.95255470 0 32508
0.17450000 0.17449800 8170.09132648 0 69.94188286 0 2622.21439750 0 260.16973796 0 241.15191285 0 32791
0.17550000 0.17549800 8231.87489897 0 -11.06441918 0 2479.74679406 0 269.25015154 0 63.32937976 0 33633
0.17650000 0.17650100 8154.35755291 0 87.86387998 0 2452.11027131 0 313.55605931 0 307.48399638 0 33984
0.17750000 0.17750300 8069.60997875 0 159.55995126 0 2194.94445507 0 -112.26673027 0 52.65410851 0 34069
0.17850000 0.17849800 7870.35242132 0 172.68619234 0 2146.58054027 0 340.71425762 0 534.12230586 0 34536
