### header ###
fiducial parameters:
Omega_m = 0.31
Omega_nu = 0
Omega_de = 0.69
Omega_k = 0
H_0 = 100
w_de = -1
zeff = 0
beta = 0
fgrowth = 0
b_1 = 2
gamma = 0.55
Lx = 3500 Ly = 3500 Lz = 3500
nx = 700 ny = 700 nz = 700
xoffset = -685.467585 yoffset = -31.7331281 zoffset = 572.489161
bins = 400 dk = 0.001
kx_ny = 0.628318531 ky_ny = 0.628318531 kz_ny = 0.628318531
############################
A(data) = 8.11539367 (not used)
A(ran) = 8.12238635 (used)
Ngal = 482404
weighted Ngal = 0
Nran = 23820508
weighted Nran = 0
SN(data) = 3482.8566
SN(ran) = 70.7489308
SN(data+ran) = 3553.60553
############################
13 columns: k_central k_mean P_0(k) sigma^{lin}_{P_0(k)} P^img_1(k) sigma^{lin}_{P_1(k)} P_2(k) sigma^{lin}_{P_2(k)} P^img_3(k) sigma^{lin}_{P_3(k)} P_4(k) sigma^{lin}_{P_4(k)} N_modes
### header ###
0.00050000 0 0 0 0 0 0 0 0 0 0 0 0
0.00150000 0.00179520 25005.40620069 0 -17763.44142980 0 -10793.63440296 0 11313.92294619 0 -39152.40489822 0 3
0.00250000 0.00253879 43664.04509208 0 -16986.38567403 0 -8442.28228750 0 13345.47310391 0 40165.41189588 0 6
0.00350000 0.00331552 49619.95933527 0 -8447.85166688 0 -5110.49795400 0 -32955.66759022 0 22693.17260881 0 7
0.00450000 0.00420575 50902.35599577 0 -1371.59530923 0 -14743.24338902 0 4601.87964113 0 5402.98448640 0 24
0.00550000 0.00557378 63440.54589716 0 -26319.24826367 0 -14333.12447774 0 14690.42839964 0 -12598.20190190 0 45
0.00650000 0.00659388 72310.03169313 0 -24051.08252457 0 7758.59944692 0 -4424.88852890 0 -5690.21166452 0 40
0.00750000 0.00754703 84363.25376746 0 2333.10492416 0 13461.73251451 0 -19536.12063327 0 -11264.20820775 0 57
0.00850000 0.00846663 89986.00175687 0 4271.81363828 0 5687.93076561 0 -14247.64613014 0 7989.37991312 0 75
0.00950000 0.00948925 74232.74089789 0 16910.20807928 0 14953.28539083 0 -26231.33400461 0 2479.33711804 0 112
0.01050000 0.01054430 77643.57055828 0 368.69845137 0 25321.07818127 0 -6597.58868341 0 4879.07529296 0 105
0.01150000 0.01145670 70338.38281268 0 3057.19067800 0 25955.19022363 0 -7109.44011513 0 1904.51737508 0 144
0.01250000 0.01249090 74661.01842188 0 3166.61846418 0 26142.09106657 0 -2620.14387276 0 -2034.26287731 0 169
0.01350000 0.01339930 69739.37003999 0 -6638.40127269 0 28731.35422541 0 1485.09771095 0 -8409.90680973 0 180
0.01450000 0.01448870 69698.73460790 0 4465.20286356 0 13158.46153773 0 21462.70515171 0 2682.22639802 0 267
0.01550000 0.01550050 75676.57205424 0 -4411.31385867 0 25816.67544015 0 6663.94512605 0 11198.88149132 0 238
0.01650000 0.01653350 69946.42251410 0 -891.91119558 0 13845.83146247 0 14632.52014083 0 6129.39542846 0 315
0.01750000 0.01747870 76545.97099900 0 3187.04690347 0 4856.11129129 0 21980.22561374 0 16439.74499773 0 297
0.01850000 0.01844180 71115.66001495 0 4184.99553938 0 20924.25799578 0 -4659.94291247 0 20474.61088490 0 388
0.01950000 0.01947590 70116.38270006 0 5457.92536215 0 13771.86833268 0 12590.56199778 0 29366.57350025 0 399
0.02050000 0.02045430 63874.91319979 0 -422.49777043 0 7903.96799947 0 3114.40138034 0 9664.35692238 0 462
0.02150000 0.02154770 71363.90153738 0 -5054.61593064 0 15285.12296564 0 -2640.72732460 0 8436.31430442 0 571
0.02250000 0.02255340 73046.45201682 0 -1282.89491511 0 10358.22630179 0 -4989.96462602 0 -8011.70171995 0 510
0.02350000 0.02348930 74856.44495493 0 -68.65018545 0 21687.25189903 0 -9297.34257162 0 -1378.12798088 0 555
0.02450000 0.02439640 71233.02665802 0 9127.36024100 0 14959.15372298 0 -11075.09289985 0 -64.05583499 0 592
0.02550000 0.02547300 67604.73653820 0 2659.63885539 0 23852.11284758 0 -2020.21209711 0 -7859.77835111 0 837
0.02650000 0.02652900 61820.44332969 0 1492.64903648 0 20448.25875183 0 4571.88471319 0 -5650.61703097 0 723
0.02750000 0.02749970 62837.10419454 0 4523.24399026 0 17010.08044914 0 2290.33253339 0 -7835.48567046 0 826
0.02850000 0.02848090 62604.58537335 0 -1474.87795514 0 21217.89604997 0 6144.91882785 0 -10549.76644883 0 831
0.02950000 0.02946900 61645.83276730 0 -1540.82472176 0 14895.93074827 0 251.61747427 0 -5112.05915179 0 996
0.03050000 0.03053250 62617.42927014 0 -753.06977852 0 14848.65192129 0 2953.86374279 0 -8566.71307381 0 1041
0.03150000 0.03150510 63913.00199717 0 1225.83922532 0 18924.26396379 0 -3445.41960312 0 -6998.78330089 0 1036
0.03250000 0.03246190 60600.38385793 0 3904.25674360 0 17474.89664503 0 4315.42752574 0 -10804.65136616 0 1059
0.03350000 0.03345080 57247.68390284 0 5101.78403436 0 19136.63115381 0 -1773.68678502 0 583.28121359 0 1302
0.03450000 0.03451200 54239.77614261 0 3965.26525335 0 20499.63433899 0 4306.38143637 0 2520.47080474 0 1339
0.03550000 0.03553350 53902.07023564 0 -707.68764078 0 20256.37536272 0 3327.11181243 0 3518.26442810 0 1365
0.03650000 0.03647120 52819.08614513 0 -1091.84416483 0 14539.06971936 0 6576.50697696 0 3658.34040938 0 1308
0.03750000 0.03744890 55630.12797008 0 -423.24625959 0 19205.50101418 0 2156.76707910 0 9240.03221836 0 1579
0.03850000 0.03847530 53676.74842558 0 2256.86089546 0 19309.24869773 0 2197.70146395 0 9101.98247252 0 1662
0.03950000 0.03950240 52935.56700222 0 2991.68680437 0 17629.57702275 0 2783.82605055 0 8578.97013738 0 1683
0.04050000 0.04050350 51289.44447143 0 1535.36606563 0 14789.74715326 0 1105.21621152 0 9239.00249215 0 1822
0.04150000 0.04152450 48016.79742478 0 1203.70564801 0 13854.24642933 0 2608.45149775 0 2498.47009533 0 1887
0.04250000 0.04250150 48702.06360781 0 1184.96020209 0 15647.63088021 0 -186.20328648 0 3956.23023630 0 1920
0.04350000 0.04349210 44770.61323445 0 1860.78169205 0 11762.24137810 0 1502.16016350 0 50.63573441 0 2005
0.04450000 0.04448520 44602.42462046 0 2556.14583531 0 14953.17466758 0 2205.24171716 0 3210.52023209 0 2151
0.04550000 0.04548030 41777.32094298 0 2107.20735321 0 10791.47529962 0 2626.12292816 0 -300.71105528 0 2274
0.04650000 0.04648670 40585.60662275 0 2175.33536782 0 12714.46131250 0 -1350.34751791 0 -883.22717123 0 2311
0.04750000 0.04749250 38684.70989788 0 1576.04578701 0 13350.01275709 0 1475.40942673 0 4487.02641578 0 2568
0.04850000 0.04851840 37254.82987080 0 487.44692058 0 13463.17191674 0 1976.23282293 0 5219.57142578 0 2493
0.04950000 0.04949480 37614.01608792 0 -675.87020818 0 11692.48573174 0 3221.47076134 0 6420.94081326 0 2644
0.05050000 0.05050630 37294.24734716 0 -535.61706971 0 11443.91203956 0 3453.05950724 0 2699.32206754 0 2829
0.05150000 0.05149060 37288.71118475 0 61.21434427 0 9479.42695326 0 1545.81834026 0 3365.16739283 0 2784
0.05250000 0.05249300 37035.26566965 0 836.92160160 0 8354.77770446 0 266.11889809 0 2881.39537686 0 3055
0.05350000 0.05348950 35228.81587549 0 1175.00618208 0 7131.93907916 0 -410.82754007 0 5868.75290223 0 3009
0.05450000 0.05448610 35628.19463170 0 783.98481664 0 9027.99719808 0 912.95525613 0 2741.62942067 0 3336
0.05550000 0.05550870 34212.59790363 0 72.50191508 0 8774.40774276 0 1256.23275695 0 4274.71458738 0 3349
0.05650000 0.05647670 34337.49372759 0 916.25480893 0 10116.91605469 0 -266.68358665 0 1592.06744102 0 3324
0.05750000 0.05747970 33567.08136670 0 1146.25135453 0 9949.52464809 0 -529.54500678 0 1722.01224510 0 3639
0.05850000 0.05849280 32812.50243031 0 870.65565363 0 10664.32072140 0 -1866.58359025 0 1760.49964616 0 3846
0.05950000 0.05951020 32524.51126178 0 232.33059167 0 10918.80703504 0 -828.18000116 0 2499.96485918 0 3787
0.06050000 0.06049470 33124.63126695 0 -571.19023488 0 11838.08680310 0 83.56615710 0 -514.57190192 0 3930
0.06150000 0.06148310 33268.57148959 0 -272.15663681 0 10930.92015839 0 1156.16108524 0 472.73512260 0 4083
0.06250000 0.06249100 33437.86733607 0 460.14478205 0 11423.76040839 0 1621.48660807 0 -91.44932020 0 4303
0.06350000 0.06350600 32092.80131710 0 689.00309265 0 10252.58525070 0 1582.33486751 0 2491.85991741 0 4470
0.06450000 0.06451750 32558.72474547 0 77.89170136 0 10591.09943738 0 2652.02109591 0 2645.51056892 0 4479
0.06550000 0.06550280 31988.27857081 0 199.03500371 0 10324.93182106 0 2142.74951588 0 4038.17651228 0 4636
0.06650000 0.06648880 32162.00334722 0 376.73142302 0 9355.56085552 0 2060.90289082 0 5372.69060570 0 4653
0.06750000 0.06749660 31981.30300618 0 695.35417817 0 9594.35768488 0 1109.07048778 0 5925.52071157 0 5220
0.06850000 0.06852730 30965.08503432 0 525.86678047 0 6883.09965119 0 758.69341229 0 7482.42244897 0 5029
0.06950000 0.06949320 30220.13902052 0 782.67938955 0 7785.35018368 0 1733.92606660 0 6573.59495553 0 5040
0.07050000 0.07048030 30399.28923609 0 -90.64192628 0 6442.36576178 0 363.27411944 0 4357.82345747 0 5475
0.07150000 0.07148790 29323.72360321 0 818.67773200 0 6499.77576597 0 641.12414567 0 2991.57608113 0 5509
0.07250000 0.07249820 28942.06056671 0 1633.17898308 0 7670.69626019 0 -2188.86574875 0 3324.63161167 0 5916
0.07350000 0.07351270 27562.33817106 0 1783.04289950 0 8384.51796892 0 -3855.31706790 0 2504.19448726 0 5721
0.07450000 0.07449140 27095.41823345 0 1090.87533641 0 9991.80985657 0 -1564.51949687 0 3653.14748904 0 6028
0.07550000 0.07549160 26234.54497880 0 -123.93031723 0 11044.36719848 0 -716.12475230 0 1005.63615103 0 6183
0.07650000 0.07648840 26346.04328973 0 186.74361593 0 10586.19439748 0 1016.51803186 0 1157.08008820 0 6330
0.07750000 0.07749960 26483.89373372 0 252.48111561 0 10948.11547883 0 1740.33694267 0 195.89599962 0 6583
0.07850000 0.07848650 25267.59885239 0 910.66328489 0 9287.70964903 0 1589.45437237 0 667.27144073 0 6549
0.07950000 0.07947320 25370.46074996 0 619.55414969 0 8497.75463484 0 968.36006229 0 -800.24009671 0 6828
0.08050000 0.08048110 24158.70552180 0 669.46376104 0 9111.60432279 0 -846.58884840 0 683.26873563 0 7147
0.08150000 0.08149960 23865.95325360 0 741.32647082 0 8846.42214338 0 520.78458338 0 151.59673525 0 7386
0.08250000 0.08250610 23248.78186821 0 -0.15035996 0 9226.26931861 0 343.62960075 0 1303.69981345 0 7227
0.08350000 0.08350160 23600.99252069 0 -282.78385417 0 8990.30700440 0 87.04175986 0 993.51527705 0 7798
0.08450000 0.08449610 22961.78720891 0 704.68704076 0 9381.90191626 0 1405.52091248 0 1334.33693622 0 7371
0.08550000 0.08548940 22991.23959293 0 992.93951616 0 7856.45665367 0 924.49483306 0 2263.52643500 0 8256
0.08650000 0.08650700 21680.60850414 0 842.58509575 0 7630.90232479 0 949.33448656 0 1964.45186932 0 8037
0.08750000 0.08749060 20867.67841596 0 546.07820220 0 6714.04739586 0 1256.89709644 0 2143.76816976 0 8155
0.08850000 0.08849210 21185.23269176 0 -368.05625653 0 6403.65691421 0 92.83413587 0 -284.71376039 0 8718
0.08950000 0.08949900 20534.40143892 0 -118.36536678 0 6966.98358401 0 322.25115599 0 -159.88547761 0 8571
0.09050000 0.09049190 21023.24457966 0 308.88464547 0 5226.91237714 0 -261.02341420 0 -1507.09842037 0 8932
0.09150000 0.09150830 20870.11432742 0 334.05868317 0 6496.54264712 0 -666.50966478 0 -577.81923575 0 9285
0.09250000 0.09250820 20458.00239767 0 772.87373869 0 6665.92707219 0 -512.93984125 0 -1383.26553959 0 9204
0.09350000 0.09350330 19798.31328497 0 908.38792214 0 6983.43705869 0 77.20388854 0 -112.22133373 0 9349
0.09450000 0.09448040 19130.54137516 0 690.67390647 0 7840.78931405 0 190.68868526 0 -554.08570750 0 9564
0.09550000 0.09549270 18579.47176894 0 465.23915869 0 7609.97563088 0 590.59780583 0 547.50874656 0 10155
0.09650000 0.09649430 18093.95032564 0 463.72778636 0 6974.61241581 0 750.77670005 0 -156.50952578 0 9913
0.09750000 0.09749140 17584.06976774 0 701.37641564 0 6923.85687884 0 700.41201615 0 953.14668799 0 10476
0.09850000 0.09850240 16984.61410206 0 -57.79454603 0 6424.20714908 0 1351.11150832 0 1142.75249988 0 10575
0.09950000 0.09950330 17130.43661992 0 34.27360641 0 5728.34475120 0 747.63437426 0 517.15175361 0 10882
0.10050000 0.10051200 17257.54690884 0 -47.83653998 0 5434.42988889 0 731.10671501 0 517.78841228 0 10875
0.10150000 0.10150300 17283.01325592 0 -176.45410447 0 5230.14549599 0 299.77322937 0 1183.29935337 0 11118
0.10250000 0.10250800 17497.04129467 0 -166.79460830 0 5342.14206153 0 -228.55160721 0 1557.46642597 0 11575
0.10350000 0.10349800 17591.37750212 0 17.89608788 0 5588.77809686 0 503.33349223 0 1496.14789112 0 11364
0.10450000 0.10450100 17417.09910948 0 284.66836385 0 5220.34648852 0 551.65422497 0 1364.25435788 0 12093
0.10550000 0.10551000 17255.77533687 0 432.85371583 0 5072.78561566 0 359.10428191 0 1337.34860857 0 12067
0.10650000 0.10649700 16615.24134611 0 423.33483819 0 4902.22752416 0 564.65534878 0 2286.04754368 0 12054
0.10750000 0.10749900 16591.32512450 0 325.01702273 0 5192.36672370 0 -277.77030549 0 1403.11821799 0 12807
0.10850000 0.10850100 16456.24276171 0 14.61015404 0 5230.46659341 0 -185.08165997 0 1838.29380034 0 12736
0.10950000 0.10950300 16456.35348496 0 53.06677405 0 5687.65395749 0 -313.39108167 0 1924.72436787 0 12933
0.11050000 0.11050200 16124.18374040 0 419.49938487 0 5290.62253414 0 -38.51906792 0 1947.82123745 0 13428
0.11150000 0.11150900 16117.65106876 0 78.01692935 0 5262.03379146 0 367.99868044 0 1247.50776499 0 13453
0.11250000 0.11250000 15810.28333179 0 286.40228992 0 5175.31534348 0 572.91087416 0 1017.59315460 0 13668
0.11350000 0.11349100 15358.20030945 0 399.87590359 0 4750.38166159 0 121.27406651 0 244.28205908 0 13791
0.11450000 0.11448600 15082.72086796 0 121.66159787 0 4751.97607637 0 116.30148543 0 340.28908035 0 14205
0.11550000 0.11549300 15171.74235950 0 76.82410780 0 4497.05794207 0 13.54853954 0 -74.29618532 0 14776
0.11650000 0.11649800 14905.12077787 0 300.14415225 0 4926.15481809 0 -187.12561113 0 -133.76918506 0 14553
0.11750000 0.11747300 14692.08924836 0 510.45410432 0 4469.58750419 0 0.37167801 0 484.14404609 0 14568
0.11850000 0.11849100 14809.89878443 0 88.10337437 0 4973.86546573 0 -215.72431891 0 245.22542115 0 16015
0.11950000 0.11950300 14402.88012410 0 39.67745454 0 4910.37675522 0 137.27246864 0 826.36746158 0 15270
0.12050000 0.12050700 14476.06819115 0 236.19926196 0 5562.64741029 0 331.37585887 0 510.23044336 0 15999
0.12150000 0.12150000 14158.51391535 0 626.95821330 0 4982.81190419 0 279.18977753 0 391.89165017 0 15670
0.12250000 0.12250700 13541.01036021 0 645.12125493 0 4945.56460350 0 243.01206342 0 901.86964452 0 16887
0.12350000 0.12352200 13000.45946257 0 158.99083377 0 4360.89049145 0 538.09837770 0 804.27706634 0 16407
0.12450000 0.12449800 13119.92984736 0 -377.06912893 0 4073.98441075 0 664.31513000 0 569.37880254 0 16306
0.12550000 0.12549900 13465.93999794 0 -439.15608312 0 3885.23448956 0 831.62792311 0 80.62246883 0 17523
0.12650000 0.12650100 13454.53550338 0 -59.21944351 0 3490.57254373 0 293.17301655 0 -55.71848512 0 17154
0.12750000 0.12750600 13558.83680317 0 441.37940594 0 3368.55552423 0 -33.90190847 0 138.90342208 0 18007
0.12850000 0.12850300 13112.40066648 0 542.06559168 0 3732.99002331 0 -267.80632039 0 623.29991718 0 17496
0.12950000 0.12949900 12707.59647111 0 501.29618447 0 3588.56261837 0 -45.06048670 0 888.05470485 0 18405
0.13050000 0.13049000 12492.90409288 0 313.99341614 0 3897.35868524 0 -141.56963790 0 1095.10607172 0 18100
0.13150000 0.13148800 12383.06663068 0 94.12660835 0 4176.27054742 0 -59.34788247 0 1266.90647807 0 19059
0.13250000 0.13249300 12471.86667572 0 -96.60049788 0 4577.89698557 0 -71.60749268 0 912.19237295 0 18957
0.13350000 0.13349100 12579.60039621 0 -127.86985040 0 4377.11144731 0 -8.93371635 0 1150.43669331 0 19468
0.13450000 0.13450700 12632.74755534 0 -17.50789217 0 4479.41972863 0 171.20914421 0 1048.19263147 0 19953
0.13550000 0.13551000 12732.84137170 0 59.13673324 0 4456.86540298 0 338.95707967 0 720.69762245 0 19956
0.13650000 0.13649900 12534.97892719 0 91.02281425 0 4085.73214738 0 475.90623643 0 786.62113718 0 19723
0.13750000 0.13749600 12410.41527298 0 319.12986762 0 3800.55334935 0 329.54006741 0 1116.14570334 0 20946
0.13850000 0.13851100 12043.25698199 0 259.10125862 0 3395.39483959 0 434.08828005 0 987.93261087 0 20955
0.13950000 0.13949800 11945.26690735 0 231.33076074 0 3445.27566289 0 387.74395729 0 617.45372967 0 20506
0.14050000 0.14048300 11669.89818911 0 338.21191221 0 3366.57357808 0 54.39932834 0 597.42500131 0 21447
0.14150000 0.14148400 11371.05614225 0 363.36934143 0 3316.70382710 0 -365.32139230 0 1006.71902439 0 21771
0.14250000 0.14249400 11111.96374150 0 201.63700004 0 3348.75820745 0 -159.45254971 0 1103.01946227 0 22470
0.14350000 0.14350900 11076.75374857 0 244.04068240 0 3802.36921062 0 -28.67776417 0 666.27936043 0 22519
0.14450000 0.14449900 10839.97208233 0 288.72969260 0 3978.52989849 0 156.61914179 0 832.46831256 0 22218
0.14550000 0.14550500 10497.36113546 0 196.08422914 0 3718.80637521 0 320.14630704 0 886.69723782 0 23559
0.14650000 0.14650700 10214.40787472 0 100.69271841 0 3332.98014458 0 495.93496479 0 1005.28294386 0 23044
0.14750000 0.14750500 10353.36555120 0 -1.30891488 0 3441.53321711 0 404.88613057 0 103.51217520 0 23649
0.14850000 0.14849900 10096.65370028 0 192.13473088 0 3201.83952943 0 76.02966849 0 299.04356317 0 23640
0.14950000 0.14949500 10102.49988778 0 199.37824578 0 2982.16460503 0 14.27134091 0 469.85853261 0 24457
0.15050000 0.15050000 9927.06997335 0 87.19333999 0 2791.02306169 0 -199.73256017 0 334.48607491 0 24591
0.15150000 0.15149900 9850.06195424 0 104.53381861 0 3061.58639095 0 99.30491322 0 391.27492167 0 25020
0.15250000 0.15250500 9702.96611903 0 300.44753395 0 3275.52585110 0 -81.68020802 0 255.01667799 0 25297
0.15350000 0.15350100 9424.48607751 0 246.85416013 0 3270.04505031 0 63.06984446 0 402.08926132 0 25452
0.15450000 0.15450400 9384.66999746 0 144.11848707 0 3171.57886570 0 327.49500902 0 727.81823454 0 26061
0.15550000 0.15549900 9307.83913555 0 -117.54601474 0 3301.61224837 0 129.73442990 0 538.54791409 0 26128
0.15650000 0.15649500 9493.26735928 0 -0.01849001 0 3300.60466681 0 -52.15496810 0 561.55620506 0 26331
0.15750000 0.15749700 9574.27248766 0 42.90802675 0 3506.63848704 0 -33.28385130 0 912.99290204 0 27345
0.15850000 0.15849900 9338.21052252 0 182.75868622 0 3244.45690766 0 247.37345217 0 1145.07768809 0 26980
0.15950000 0.15949700 9461.03582174 0 100.27905635 0 3243.02857776 0 230.16373770 0 1163.70133844 0 27777
0.16050000 0.16050000 9389.04356577 0 -77.63604138 0 3089.45543252 0 368.23894989 0 904.87910241 0 28224
0.16150000 0.16150500 9292.12750663 0 283.24557012 0 3176.69427977 0 134.29733496 0 1036.08947321 0 28075
0.16250000 0.16249700 9085.10824949 0 242.25693087 0 2822.86706786 0 65.24511340 0 941.90827830 0 28590
0.16350000 0.16349900 8902.76920438 0 77.61234660 0 2773.05267851 0 -94.01909607 0 745.48080709 0 29163
0.16450000 0.16449100 8818.89634388 0 225.22880253 0 2929.22782007 0 -103.72564962 0 673.83732935 0 28996
0.16550000 0.16550500 8693.69049483 0 225.21883744 0 2693.58660328 0 -118.82043933 0 196.68324192 0 30777
0.16650000 0.16650700 8399.66490927 0 67.02864348 0 2798.77368906 0 -25.24700433 0 251.49567870 0 29211
0.16750000 0.16749900 8519.24601731 0 92.12750010 0 2834.63694915 0 66.13543903 0 22.83855223 0 30922
0.16850000 0.16850800 8390.20914388 0 49.25457262 0 2680.28874117 0 89.19820585 0 62.79325779 0 30867
0.16950000 0.16949900 8386.77672318 0 -11.77741046 0 2421.12990647 0 189.29578680 0 -240.42999727 0 30852
0.17050000 0.17049200 8444.45246316 0 -51.87539190 0 2405.61757940 0 146.36063285 0 108.08216655 0 31257
0.17150000 0.17149500 8386.25632392 0 168.09117754 0 2473.52414751 0 184.84692668 0 -35.39667232 0 32608
0.17250000 0.17250900 8205.81064635 0 280.45091533 0 2295.68046627 0 -88.71977069 0 -394.38070879 0 32361
0.17350000 0.17350400 7970.74519045 0 136.54058797 0 2324.37993220 0 109.65975139 0 109.95183932 0 32508
0.17450000 0.17449800 7879.68639114 0 55.84736698 0 2234.41729305 0 127.24758575 0 184.68859244 0 32791
0.17550000 0.17549800 7907.26755226 0 -29.33269219 0 2017.05648454 0 422.50330659 0 -40.58859615 0 33633
0.17650000 0.17650100 7911.08750432 0 -74.13430793 0 2127.12646556 0 335.23677853 0 -21.72921601 0 33984
0.17750000 0.17750300 7901.60959428 0 146.07275240 0 1696.80056148 0 339.19070573 0 106.54399918 0 34069
0.17850000 0.17849800 7774.08962934 0 149.79526801 0 1604.96669944 0 135.07350493 0 393.34433918 0 34536
