### header ###
fiducial parameters:
Omega_m = 0.31
Omega_nu = 0
Omega_de = 0.69
Omega_k = 0
H_0 = 100
w_de = -1
zeff = 0
beta = 0
fgrowth = 0
b_1 = 2
gamma = 0.55
Lx = 3500 Ly = 3500 Lz = 3500
nx = 700 ny = 700 nz = 700
xoffset = -685.467585 yoffset = -31.7331281 zoffset = 572.489161
bins = 400 dk = 0.001
kx_ny = 0.628318531 ky_ny = 0.628318531 kz_ny = 0.628318531
############################
A(data) = 8.02905608 (not used)
A(ran) = 8.03103196 (used)
Ngal = 477405
weighted Ngal = 0
Nran = 23820508
weighted Nran = 0
SN(data) = 3484.22098
SN(ran) = 69.953201
SN(data+ran) = 3554.17418
############################
13 columns: k_central k_mean P_0(k) sigma^{lin}_{P_0(k)} P^img_1(k) sigma^{lin}_{P_1(k)} P_2(k) sigma^{lin}_{P_2(k)} P^img_3(k) sigma^{lin}_{P_3(k)} P_4(k) sigma^{lin}_{P_4(k)} N_modes
### header ###
0.00050000 0 0 0 0 0 0 0 0 0 0 0 0
0.00150000 0.00179520 22818.73277225 0 -4730.79471899 0 23799.85147443 0 -47475.02857141 0 -19271.27062361 0 3
0.00250000 0.00253879 39791.61021000 0 6935.30566271 0 19076.95132304 0 -4663.26460992 0 27794.52482250 0 6
0.00350000 0.00331552 49319.56716294 0 -9322.56532756 0 17987.54528413 0 -12019.11931389 0 -36804.18625068 0 7
0.00450000 0.00420575 52964.90866299 0 -16067.49343733 0 37539.83151163 0 4251.49592224 0 46855.42127455 0 24
0.00550000 0.00557378 74983.22307410 0 920.24306033 0 68936.40504414 0 25778.14374978 0 -5323.46304956 0 45
0.00650000 0.00659388 84039.94188276 0 528.80758994 0 98666.81513794 0 50812.11654850 0 55429.38672112 0 40
0.00750000 0.00754703 92756.29742649 0 -5819.14888704 0 53980.90518835 0 46401.56668024 0 3604.56212774 0 57
0.00850000 0.00846663 91995.07509521 0 -4044.29950791 0 72802.41797782 0 32751.16175082 0 23754.34421943 0 75
0.00950000 0.00948925 112976.46628706 0 -5381.36023603 0 75723.96160447 0 22538.16006135 0 -10410.02263729 0 112
0.01050000 0.01054430 109115.65734604 0 10556.80844741 0 79470.17198361 0 7509.80430825 0 7500.07173473 0 105
0.01150000 0.01145670 102266.09576673 0 20248.62473535 0 78027.78022948 0 24754.95021329 0 -20526.09719530 0 144
0.01250000 0.01249090 95434.24990713 0 12081.67794911 0 75957.36621164 0 17923.21507694 0 9475.28590378 0 169
0.01350000 0.01339930 90844.77126980 0 4276.60795493 0 73708.79848747 0 23947.99918051 0 -27007.17180465 0 180
0.01450000 0.01448870 92574.60057622 0 -1284.95436753 0 55020.37504232 0 10062.65059076 0 -38876.59328699 0 267
0.01550000 0.01550050 87462.95110044 0 6243.61753129 0 46986.40687716 0 14924.49734630 0 -22920.70888383 0 238
0.01650000 0.01653350 85783.27942546 0 10886.40941262 0 38354.86534154 0 -6182.17720087 0 -30477.23840281 0 315
0.01750000 0.01747870 72645.41241189 0 6018.11856403 0 44423.49585139 0 6654.78831343 0 -7767.83376582 0 297
0.01850000 0.01844180 75591.75804613 0 937.67532852 0 46942.78191737 0 14006.49089559 0 -24040.34236949 0 388
0.01950000 0.01947590 68800.87978836 0 3968.43193825 0 36035.98835477 0 16510.71859982 0 -15588.94755867 0 399
0.02050000 0.02045430 70377.13594954 0 -400.70300626 0 32737.87496104 0 17922.99363044 0 -19988.20365561 0 462
0.02150000 0.02154770 70532.81283649 0 -2406.35942516 0 25854.65351428 0 13271.73142062 0 -8218.79848336 0 571
0.02250000 0.02255340 74314.01176206 0 -2479.08245457 0 17736.53568049 0 11248.37478326 0 -1931.68886019 0 510
0.02350000 0.02348930 73701.93364609 0 3576.47163967 0 17618.61542117 0 7136.11334562 0 2893.02131792 0 555
0.02450000 0.02439640 68468.93149030 0 5085.19769178 0 15576.43583162 0 5961.50576723 0 6850.85704131 0 592
0.02550000 0.02547300 66123.70237046 0 7483.16429473 0 11114.51037621 0 390.16879642 0 7587.26629268 0 837
0.02650000 0.02652900 58689.07914773 0 4562.37358617 0 14979.52680065 0 425.98223105 0 11080.07544602 0 723
0.02750000 0.02749970 56926.69720635 0 -557.52034266 0 17269.94791264 0 -2001.80989326 0 11101.33430967 0 826
0.02850000 0.02848090 60728.04776308 0 -1489.11696486 0 19368.15346577 0 1214.25757356 0 10858.44072012 0 831
0.02950000 0.02946900 65001.19008035 0 -3592.02825604 0 23226.19432558 0 -1795.04529960 0 4166.67084180 0 996
0.03050000 0.03053250 64930.10575501 0 -317.97170244 0 27350.85676702 0 3669.65632534 0 4327.85067419 0 1041
0.03150000 0.03150510 66404.93942085 0 3248.11077485 0 22456.88919718 0 -4623.22708338 0 -5259.47608443 0 1036
0.03250000 0.03246190 60347.27051257 0 5715.05796142 0 21476.98845073 0 631.97176198 0 -6478.62762556 0 1059
0.03350000 0.03345080 56338.09241899 0 6181.19176396 0 21952.98769468 0 1251.49380193 0 -904.92782064 0 1302
0.03450000 0.03451200 51496.05405255 0 2504.75917582 0 21421.73754988 0 4140.19691316 0 -7294.21507170 0 1339
0.03550000 0.03553350 49389.10136281 0 1211.09088866 0 21175.26759942 0 6815.89063954 0 -6668.19689878 0 1365
0.03650000 0.03647120 47047.30466366 0 2950.11022468 0 18382.16294067 0 4801.42507901 0 -2455.49840271 0 1308
0.03750000 0.03744890 44931.05122107 0 3196.49159654 0 17292.97834826 0 536.86713518 0 2610.27843135 0 1579
0.03850000 0.03847530 45768.78331685 0 485.69638603 0 21489.94307077 0 2856.63765856 0 4585.09399670 0 1662
0.03950000 0.03950240 45206.75210906 0 -918.29986732 0 22851.06396072 0 2851.66618472 0 8393.14330995 0 1683
0.04050000 0.04050350 45046.53556893 0 2185.18973691 0 22109.88253736 0 4138.81287256 0 8606.82810663 0 1822
0.04150000 0.04152450 43208.64037229 0 24.18295391 0 18906.10535109 0 6371.02677297 0 9432.11490931 0 1887
0.04250000 0.04250150 44005.95848248 0 387.99640630 0 20475.05377789 0 4582.96811034 0 14821.63544874 0 1920
0.04350000 0.04349210 41864.68158580 0 274.97011455 0 16240.88604399 0 2312.47718302 0 10498.14727053 0 2005
0.04450000 0.04448520 43219.93414360 0 322.11496639 0 18515.47373148 0 2899.68685746 0 8556.90299402 0 2151
0.04550000 0.04548030 40213.79795534 0 1707.74001840 0 16082.55179908 0 -409.78120538 0 7402.43597448 0 2274
0.04650000 0.04648670 40718.80669032 0 2979.35223453 0 19819.79359512 0 -1558.78403262 0 9064.22584489 0 2311
0.04750000 0.04749250 37416.48581316 0 3314.07968612 0 20149.85959797 0 250.04520415 0 9193.55059877 0 2568
0.04850000 0.04851840 36229.08969960 0 681.86919377 0 17283.89904191 0 1478.86399208 0 8442.84697606 0 2493
0.04950000 0.04949480 36984.99731497 0 -2426.10138031 0 19341.91205595 0 2477.54340142 0 4863.04256662 0 2644
0.05050000 0.05050630 38886.44765608 0 -1833.05659070 0 16918.73376939 0 4729.69855883 0 1867.73511203 0 2829
0.05150000 0.05149060 39063.16196018 0 210.00546314 0 14503.19538695 0 1818.67364076 0 2305.77842651 0 2784
0.05250000 0.05249300 38285.88475792 0 1402.61996338 0 12313.64315406 0 691.81546316 0 901.75781404 0 3055
0.05350000 0.05348950 36793.00320262 0 2058.97630630 0 12356.38232786 0 686.39777462 0 2729.92597334 0 3009
0.05450000 0.05448610 35766.82013843 0 1003.58444924 0 11947.03847932 0 1015.51045030 0 -184.77495657 0 3336
0.05550000 0.05550870 35868.90697325 0 297.91861497 0 11341.16086524 0 1913.47488586 0 3743.66374443 0 3349
0.05650000 0.05647670 35019.99182941 0 594.03576268 0 12296.25960410 0 326.65129787 0 5818.65063242 0 3324
0.05750000 0.05747970 35945.63818425 0 -297.00846987 0 11187.47699676 0 3290.21882613 0 8778.57093689 0 3639
0.05850000 0.05849280 35954.82821385 0 -668.11625911 0 11708.20843298 0 1958.30672905 0 8457.36279390 0 3846
0.05950000 0.05951020 36609.20261063 0 488.16662170 0 10771.75548912 0 890.49947417 0 7345.88961163 0 3787
0.06050000 0.06049470 35914.52495151 0 1206.76160966 0 11413.24169981 0 318.62164791 0 7750.07375681 0 3930
0.06150000 0.06148310 34379.23639215 0 1479.99336921 0 11515.10708814 0 -69.08787445 0 6944.89429600 0 4083
0.06250000 0.06249100 33395.79250176 0 790.32704430 0 11218.25805976 0 -488.00718022 0 7670.98414063 0 4303
0.06350000 0.06350600 31778.79018524 0 566.69597824 0 11141.41612551 0 482.75779102 0 4911.21825191 0 4470
0.06450000 0.06451750 31847.66004562 0 220.93606220 0 10363.18670331 0 2398.22126642 0 3135.79311189 0 4479
0.06550000 0.06550280 32240.06323719 0 -96.32778652 0 9517.60432924 0 1510.85193848 0 3575.09867139 0 4636
0.06650000 0.06648880 30279.59740480 0 1046.57164311 0 10053.47163348 0 824.74758046 0 869.48530889 0 4653
0.06750000 0.06749660 29696.63950310 0 1722.16725764 0 8967.17691785 0 -354.73292807 0 3247.02568702 0 5220
0.06850000 0.06852730 29078.02871548 0 756.38926150 0 9771.48166500 0 692.13213165 0 3347.05306943 0 5029
0.06950000 0.06949320 27751.34275571 0 446.43945839 0 7336.99853480 0 1101.87679835 0 4413.66119153 0 5040
0.07050000 0.07048030 28617.08783328 0 -3.66027807 0 7188.62938223 0 1443.34397406 0 2410.72192114 0 5475
0.07150000 0.07148790 28003.79176158 0 -546.38269113 0 6354.01968205 0 -228.05556706 0 2678.69432640 0 5509
0.07250000 0.07249820 29060.64516552 0 -315.32541681 0 6420.46470329 0 841.65944939 0 -157.68651390 0 5916
0.07350000 0.07351270 27753.44649743 0 554.46105932 0 5924.38026211 0 -691.32495917 0 1323.45284092 0 5721
0.07450000 0.07449140 27945.21916329 0 1449.68841618 0 6970.88104235 0 -418.34343416 0 445.88805661 0 6028
0.07550000 0.07549160 26750.40459210 0 230.02201194 0 5670.59150495 0 -275.57687795 0 776.59071813 0 6183
0.07650000 0.07648840 26384.02136386 0 617.78368495 0 6364.81519875 0 1125.88934918 0 1133.01992637 0 6330
0.07750000 0.07749960 25882.11287983 0 368.71173816 0 5571.91494616 0 427.27326412 0 1853.97221228 0 6583
0.07850000 0.07848650 25994.38625349 0 367.77612671 0 6603.66738974 0 750.89406669 0 465.36427597 0 6549
0.07950000 0.07947320 25101.84614986 0 346.59698380 0 5052.58969519 0 991.47686205 0 1388.66883410 0 6828
0.08050000 0.08048110 25098.30300591 0 585.90092564 0 6844.45723757 0 -656.16479171 0 1657.23914491 0 7147
0.08150000 0.08149960 24878.18518852 0 861.91626765 0 6873.88747694 0 -995.62566216 0 547.54307077 0 7386
0.08250000 0.08250610 24184.61476188 0 466.32646099 0 7718.04152111 0 -477.17955378 0 1919.33214569 0 7227
0.08350000 0.08350160 23908.13881116 0 621.15631509 0 8423.07180394 0 -99.41353272 0 2683.11218400 0 7798
0.08450000 0.08449610 23530.12964185 0 238.81786678 0 9260.46065765 0 192.47575848 0 1048.67206313 0 7371
0.08550000 0.08548940 23027.88898808 0 660.42763676 0 9291.52960109 0 714.65102586 0 2471.14359768 0 8256
0.08650000 0.08650700 22539.71018682 0 1052.01479799 0 8077.79242679 0 -473.33745707 0 1718.50231813 0 8037
0.08750000 0.08749060 22013.99620443 0 767.20470838 0 9929.59446341 0 -38.03819685 0 2165.77995150 0 8155
0.08850000 0.08849210 21254.32399863 0 368.57222687 0 8319.03623994 0 555.91928449 0 1759.69136645 0 8718
0.08950000 0.08949900 21200.84466975 0 -203.91014833 0 8514.38526672 0 542.45644475 0 1533.12945601 0 8571
0.09050000 0.09049190 21255.20978461 0 140.89311885 0 7738.27065855 0 1077.09250648 0 1224.56590797 0 8932
0.09150000 0.09150830 21048.15731050 0 183.82162941 0 8022.32007945 0 1003.62984577 0 1044.76796140 0 9285
0.09250000 0.09250820 20612.12915914 0 497.17838687 0 7804.61602887 0 661.70981197 0 1924.85723577 0 9204
0.09350000 0.09350330 20206.10700804 0 559.13468762 0 7913.85558553 0 318.17875492 0 2464.73272161 0 9349
0.09450000 0.09448040 19909.03653316 0 712.32915935 0 8294.63283604 0 667.51503188 0 2855.06538844 0 9564
0.09550000 0.09549270 19342.02277920 0 240.53407713 0 8465.70025449 0 -36.82511294 0 3148.31591126 0 10155
0.09650000 0.09649430 18987.81910825 0 333.97121181 0 8227.42382439 0 132.73392269 0 3119.09604606 0 9913
0.09750000 0.09749140 19010.07448113 0 -43.11031813 0 7867.93865451 0 369.81122001 0 2843.93770199 0 10476
0.09850000 0.09850240 18907.76619981 0 167.05037900 0 7533.76481915 0 1220.83453450 0 2312.95329299 0 10575
0.09950000 0.09950330 18763.82597717 0 -99.13218495 0 6918.32071643 0 856.34910273 0 1662.31026967 0 10882
0.10050000 0.10051200 18005.26100384 0 686.63582961 0 6051.14730896 0 895.11995531 0 1087.36098051 0 10875
0.10150000 0.10150300 17577.86926584 0 681.76400669 0 5486.18193509 0 198.62754215 0 1733.36137803 0 11118
0.10250000 0.10250800 16842.44545139 0 714.64770416 0 5700.27640779 0 315.11614987 0 1185.32558881 0 11575
0.10350000 0.10349800 16882.63799048 0 283.31311130 0 5234.33083477 0 -168.97253459 0 2217.73129955 0 11364
0.10450000 0.10450100 16375.63623703 0 -28.00202019 0 5655.58850482 0 530.51826413 0 1563.40119207 0 12093
0.10550000 0.10551000 16539.39592110 0 270.74602263 0 5526.70664393 0 -486.64971320 0 850.36672563 0 12067
0.10650000 0.10649700 16282.07509232 0 359.14524952 0 5726.57317923 0 -294.89808475 0 422.40033397 0 12054
0.10750000 0.10749900 15969.94625568 0 313.03012388 0 5732.35293278 0 -267.06890356 0 643.61874045 0 12807
0.10850000 0.10850100 15560.38096064 0 448.28632217 0 5340.54764675 0 265.83433934 0 -121.27960267 0 12736
0.10950000 0.10950300 15501.25474610 0 180.43571248 0 5438.71487859 0 741.23346329 0 -470.41657778 0 12933
0.11050000 0.11050200 15129.99969494 0 194.21522071 0 4916.59940177 0 307.61907874 0 -405.31352231 0 13428
0.11150000 0.11150900 15368.71901803 0 4.82926090 0 5137.54764353 0 -208.10655943 0 -838.85040059 0 13453
0.11250000 0.11250000 15052.38269796 0 184.17705103 0 4950.80181314 0 -2.49324396 0 433.68635466 0 13668
0.11350000 0.11349100 15228.10049283 0 71.48481132 0 5302.34812613 0 -227.54513288 0 -130.78076460 0 13791
0.11450000 0.11448600 15300.84566689 0 -59.64727814 0 5773.03265417 0 122.14656570 0 266.21301285 0 14205
0.11550000 0.11549300 15146.94035191 0 365.82407585 0 5790.74837388 0 623.73284508 0 407.17588735 0 14776
0.11650000 0.11649800 15000.56421781 0 279.50423156 0 5538.95263518 0 768.35401570 0 1481.14489099 0 14553
0.11750000 0.11747300 14576.60490050 0 229.17055017 0 5135.45497414 0 810.57279023 0 1489.01731394 0 14568
0.11850000 0.11849100 14379.40679548 0 172.52896532 0 4967.99713358 0 606.14999327 0 1525.17952679 0 16015
0.11950000 0.11950300 14318.28756248 0 350.56198332 0 4818.35466366 0 273.43216863 0 1774.22932894 0 15270
0.12050000 0.12050700 13864.76513791 0 115.36808845 0 4487.05963276 0 -218.29199103 0 1653.15345705 0 15999
0.12150000 0.12150000 13813.72172049 0 69.93922550 0 4473.57354113 0 -19.16962668 0 1735.80836182 0 15670
0.12250000 0.12250700 13937.84248171 0 56.13247935 0 5088.25365343 0 120.40599624 0 1058.23744454 0 16887
0.12350000 0.12352200 13864.98658441 0 87.69934524 0 4521.37276737 0 393.14946627 0 1109.03727081 0 16407
0.12450000 0.12449800 13596.03981456 0 249.46390709 0 4609.18737551 0 302.29993390 0 1296.32564512 0 16306
0.12550000 0.12549900 13418.77189421 0 295.99645938 0 4295.99559569 0 119.93763690 0 1333.41793326 0 17523
0.12650000 0.12650100 13423.31154739 0 115.61500129 0 4258.51577617 0 547.08799822 0 1462.69839784 0 17154
0.12750000 0.12750600 12944.76566873 0 219.91851555 0 3780.94426210 0 559.04168009 0 1657.80383347 0 18007
0.12850000 0.12850300 12869.80602971 0 147.15008961 0 3614.48293077 0 767.44608506 0 1216.79313595 0 17496
0.12950000 0.12949900 12590.00838154 0 -22.63293916 0 2886.35577837 0 726.68110678 0 1305.75926586 0 18405
0.13050000 0.13049000 12698.84933451 0 23.99594235 0 2859.21751024 0 564.44940353 0 999.93611821 0 18100
0.13150000 0.13148800 12672.27575494 0 16.52013008 0 2584.53527614 0 -260.11548357 0 842.35368416 0 19059
0.13250000 0.13249300 12611.26724519 0 365.49190610 0 2688.46011689 0 -579.20659805 0 603.30329856 0 18957
0.13350000 0.13349100 12459.02277893 0 285.64162121 0 3002.65947827 0 -982.72751098 0 749.71707856 0 19468
0.13450000 0.13450700 12174.57475434 0 278.91961281 0 3296.81793173 0 -543.51163730 0 511.15608972 0 19953
0.13550000 0.13551000 12206.35232657 0 23.38940039 0 3563.63881521 0 -283.94976997 0 367.21365261 0 19956
0.13650000 0.13649900 12227.83263672 0 -104.94759139 0 3287.89363792 0 577.20693619 0 -59.45151943 0 19723
0.13750000 0.13749600 12243.66606121 0 -123.92921000 0 3368.96520024 0 504.12184176 0 -97.81446757 0 20946
0.13850000 0.13851100 12263.70696913 0 197.72293322 0 3324.97485374 0 -7.39827278 0 -334.99872355 0 20955
0.13950000 0.13949800 12094.41112266 0 391.32363990 0 3152.00299542 0 0.47173418 0 -89.42120247 0 20506
0.14050000 0.14048300 11727.25283167 0 315.29219984 0 3310.04935988 0 -183.03770881 0 -2.02820632 0 21447
0.14150000 0.14148400 11503.14897734 0 299.59164325 0 3310.06043221 0 157.60125700 0 163.03555402 0 21771
0.14250000 0.14249400 11313.81222294 0 19.31511703 0 3256.73611588 0 501.18656845 0 137.23371550 0 22470
0.14350000 0.14350900 11416.12050427 0 139.31309810 0 3108.22302309 0 478.98212826 0 21.96970691 0 22519
0.14450000 0.14449900 11186.03759453 0 239.50988708 0 3234.80184042 0 74.41344124 0 289.89893010 0 22218
0.14550000 0.14550500 10905.42059433 0 394.37074369 0 3079.19138742 0 -47.30296464 0 530.89029424 0 23559
0.14650000 0.14650700 10824.84728662 0 197.26786067 0 3056.72564036 0 86.75221857 0 944.07402503 0 23044
0.14750000 0.14750500 10545.10500008 0 9.80726742 0 3338.29486050 0 237.26884854 0 978.12142385 0 23649
0.14850000 0.14849900 10817.47311830 0 30.50956959 0 3580.65697845 0 208.77975678 0 892.67850769 0 23640
0.14950000 0.14949500 10614.10772835 0 126.41716138 0 3540.17655892 0 -35.49765192 0 965.39489371 0 24457
0.15050000 0.15050000 10346.84395188 0 192.34953398 0 3344.25177125 0 170.74521380 0 1168.20777464 0 24591
0.15150000 0.15149900 10468.13019794 0 52.73936541 0 3375.74146303 0 8.72207994 0 1501.20794356 0 25020
0.15250000 0.15250500 10296.65310348 0 258.51885433 0 3023.96263122 0 323.38606928 0 1199.39851366 0 25297
0.15350000 0.15350100 10185.02192465 0 71.31795139 0 3343.67601036 0 231.38722960 0 1121.80366133 0 25452
0.15450000 0.15450400 9919.56293713 0 244.54225871 0 2950.75241952 0 190.38530356 0 812.11184338 0 26061
0.15550000 0.15549900 9712.66547557 0 321.70307591 0 2987.77827371 0 -61.89706382 0 1125.61254106 0 26128
0.15650000 0.15649500 9555.16165502 0 142.02581768 0 2720.79130536 0 116.39781466 0 1001.85163040 0 26331
0.15750000 0.15749700 9469.56151185 0 -41.92724022 0 2728.35370321 0 322.12825318 0 972.01503671 0 27345
0.15850000 0.15849900 9519.11016541 0 3.77730147 0 2612.92471698 0 -56.57991199 0 766.61455347 0 26980
0.15950000 0.15949700 9489.31453932 0 91.07496490 0 2720.80237769 0 -126.47584471 0 491.95335678 0 27777
0.16050000 0.16050000 9372.94440548 0 181.15209189 0 2687.91757297 0 -309.91437167 0 252.90518565 0 28224
0.16150000 0.16150500 9301.72721225 0 228.92253009 0 3018.79185553 0 -347.71750307 0 424.50961185 0 28075
0.16250000 0.16249700 9142.52932600 0 224.23007883 0 2985.74096595 0 -213.91842273 0 198.18022023 0 28590
0.16350000 0.16349900 9077.47941769 0 47.90839936 0 2984.24620210 0 126.50573998 0 138.85359662 0 29163
0.16450000 0.16449100 9029.14871986 0 -4.68774552 0 2973.42854075 0 421.84007434 0 88.23723878 0 28996
0.16550000 0.16550500 8943.33820252 0 2.50619858 0 2986.00670174 0 408.52781821 0 290.25435173 0 30777
0.16650000 0.16650700 8944.13540990 0 137.31565070 0 2635.16901754 0 303.78141096 0 50.26315068 0 29211
0.16750000 0.16749900 8775.27138409 0 182.20285552 0 2771.10394934 0 51.17407085 0 514.44014126 0 30922
0.16850000 0.16850800 8533.29679751 0 264.07162523 0 2412.38276986 0 86.97067554 0 518.40292631 0 30867
0.16950000 0.16949900 8490.57976836 0 95.77118075 0 2441.94587713 0 210.53250580 0 461.04274759 0 30852
0.17050000 0.17049200 8303.85608262 0 105.64802666 0 2416.99992931 0 -27.26083877 0 813.22239756 0 31257
0.17150000 0.17149500 8370.68863522 0 132.03858069 0 2326.37295067 0 372.48961539 0 486.06841614 0 32608
0.17250000 0.17250900 8170.74459365 0 -5.33381567 0 2046.46457926 0 378.95474585 0 950.56462184 0 32361
0.17350000 0.17350400 8228.20995946 0 36.81747304 0 1791.84539773 0 397.70904963 0 816.99473863 0 32508
0.17450000 0.17449800 8244.35340904 0 -59.61461478 0 1733.84856033 0 337.19879449 0 865.18149624 0 32791
0.17550000 0.17549800 8176.48005790 0 115.74454749 0 1595.98704401 0 81.73269084 0 1312.48016703 0 33633
0.17650000 0.17650100 8081.23591981 0 233.33595876 0 1687.02369867 0 -54.84033904 0 1225.49598325 0 33984
0.17750000 0.17750300 7915.63822982 0 130.99446046 0 1868.70947662 0 -57.23340060 0 1417.83333768 0 34069
0.17850000 0.17849800 7901.13348431 0 49.77176091 0 1953.75600355 0 -43.01387818 0 1207.55881705 0 34536
