### header ###
fiducial parameters:
Omega_m = 0.31
Omega_nu = 0
Omega_de = 0.69
Omega_k = 0
H_0 = 100
w_de = -1
zeff = 0
beta = 0
fgrowth = 0
b_1 = 2
gamma = 0.55
Lx = 3500 Ly = 3500 Lz = 3500
nx = 700 ny = 700 nz = 700
xoffset = -685.467585 yoffset = -31.7331281 zoffset = 572.489161
bins = 400 dk = 0.001
kx_ny = 0.628318531 ky_ny = 0.628318531 kz_ny = 0.628318531
############################
A(data) = 8.03493747 (not used)
A(ran) = 8.03618021 (used)
Ngal = 477873
weighted Ngal = 0
Nran = 23820508
weighted Nran = 0
SN(data) = 3484.87461
SN(ran) = 69.9980441
SN(data+ran) = 3554.87266
############################
13 columns: k_central k_mean P_0(k) sigma^{lin}_{P_0(k)} P^img_1(k) sigma^{lin}_{P_1(k)} P_2(k) sigma^{lin}_{P_2(k)} P^img_3(k) sigma^{lin}_{P_3(k)} P_4(k) sigma^{lin}_{P_4(k)} N_modes
### header ###
0.00050000 0 0 0 0 0 0 0 0 0 0 0 0
0.00150000 0.00179520 39791.83165650 0 -61923.96956675 0 -43247.39350915 0 -29793.63306851 0 19966.50189897 0 3
0.00250000 0.00253879 59827.31413909 0 -52485.36627509 0 -32624.16218515 0 -36511.10181273 0 5155.48480973 0 6
0.00350000 0.00331552 84074.48753619 0 -27339.23082596 0 -25317.64576057 0 -33070.48759859 0 -24554.98402706 0 7
0.00450000 0.00420575 97784.12940339 0 -3808.33719370 0 -5907.64997931 0 -63953.19453626 0 21189.32945194 0 24
0.00550000 0.00557378 76297.95092307 0 22036.03013082 0 -4509.56966911 0 -30749.83903985 0 22430.97995710 0 45
0.00650000 0.00659388 65762.52313488 0 24921.25653206 0 17762.88781356 0 -28621.18459346 0 14151.75979721 0 40
0.00750000 0.00754703 44050.35850500 0 1723.62880452 0 9158.73920954 0 -10410.55410889 0 -19723.90726219 0 57
0.00850000 0.00846663 48424.59114785 0 -8599.67538480 0 3581.05558215 0 7634.62262593 0 -39401.08931365 0 75
0.00950000 0.00948925 54241.99060757 0 -15267.40724594 0 4429.60533927 0 -1270.61570689 0 -14861.82798783 0 112
0.01050000 0.01054430 73500.41733439 0 -12947.42302668 0 -570.59675827 0 -3966.85966813 0 -19898.18565484 0 105
0.01150000 0.01145670 75116.42314167 0 790.36358297 0 6963.61759727 0 -16502.08218646 0 -3845.54020509 0 144
0.01250000 0.01249090 81363.42880435 0 9305.05998202 0 16678.79649057 0 -15713.17904313 0 9328.57759993 0 169
0.01350000 0.01339930 75929.79612285 0 8044.45365676 0 35156.73504092 0 3685.65583471 0 10418.08328976 0 180
0.01450000 0.01448870 75234.67557073 0 4233.07157374 0 42290.19102858 0 15860.44096322 0 17061.01314331 0 267
0.01550000 0.01550050 67353.17331832 0 1491.42000842 0 47964.31460514 0 23968.48298142 0 27252.31307613 0 238
0.01650000 0.01653350 74587.71963158 0 96.55266544 0 42235.05085098 0 30510.34465402 0 25556.91869990 0 315
0.01750000 0.01747870 75563.41289460 0 3030.55066449 0 41141.54805189 0 26207.97139924 0 45949.48365789 0 297
0.01850000 0.01844180 71311.41871774 0 -5728.79871652 0 22349.59836969 0 11767.00247777 0 24925.13184575 0 388
0.01950000 0.01947590 86744.57866621 0 -4239.54888376 0 29275.55899025 0 -2409.69219493 0 37094.05971444 0 399
0.02050000 0.02045430 79237.65316242 0 -3210.44272582 0 27976.22167278 0 5707.96060121 0 33276.21139372 0 462
0.02150000 0.02154770 87177.17439687 0 -716.32516137 0 39883.51050600 0 8592.37872274 0 40600.11136826 0 571
0.02250000 0.02255340 92675.13728557 0 -4856.59847358 0 35430.00001744 0 8650.76309151 0 39740.67751584 0 510
0.02350000 0.02348930 90697.50934971 0 -2454.16972373 0 37968.88409836 0 8879.87163666 0 20035.59320584 0 555
0.02450000 0.02439640 93694.01261539 0 6239.93044712 0 36712.50740119 0 11454.20930164 0 28650.30480774 0 592
0.02550000 0.02547300 86436.21442001 0 6380.95864834 0 30944.26906366 0 2139.64926493 0 14502.53104746 0 837
0.02650000 0.02652900 77535.39394480 0 8406.47438904 0 30356.32861579 0 1559.24907026 0 11973.72278213 0 723
0.02750000 0.02749970 73888.50231928 0 7860.45376293 0 19480.31611618 0 -48.12774212 0 3411.33898733 0 826
0.02850000 0.02848090 64554.64322041 0 3478.20475691 0 20844.09436409 0 1045.23521351 0 946.52322328 0 831
0.02950000 0.02946900 60325.01513969 0 6038.96775166 0 9899.01270226 0 5382.29031132 0 -13605.11912091 0 996
0.03050000 0.03053250 56167.24644704 0 2079.71477069 0 6736.50207059 0 4300.91170791 0 -9949.82360086 0 1041
0.03150000 0.03150510 53958.31764572 0 322.71730086 0 3560.25068381 0 -189.16845506 0 -9228.57236217 0 1036
0.03250000 0.03246190 52540.28500619 0 -494.85652035 0 2813.31165155 0 -2014.45448821 0 -13061.13580257 0 1059
0.03350000 0.03345080 54664.39979940 0 1229.92491318 0 9064.85696740 0 -2829.49939043 0 -10406.30233616 0 1302
0.03450000 0.03451200 55384.65452885 0 -208.45533766 0 11264.65110075 0 -6264.76567169 0 -6425.73512990 0 1339
0.03550000 0.03553350 55445.10942236 0 2268.61970442 0 16840.34170967 0 -3273.35567544 0 -7591.05302777 0 1365
0.03650000 0.03647120 55274.81706665 0 2132.97265306 0 17772.07784316 0 -4342.73187875 0 -10806.84368647 0 1308
0.03750000 0.03744890 52748.77688253 0 2933.71211162 0 19693.12619920 0 -3507.90073207 0 -9277.98814784 0 1579
0.03850000 0.03847530 50519.69645004 0 3998.28292596 0 23899.05950481 0 550.12735138 0 -7483.58504308 0 1662
0.03950000 0.03950240 48316.08236463 0 1944.11200863 0 22107.55734915 0 3036.76223871 0 -6555.65778932 0 1683
0.04050000 0.04050350 47057.38047925 0 -1164.68677535 0 20917.50387764 0 6470.11300778 0 -6249.43050182 0 1822
0.04150000 0.04152450 48568.75281699 0 -100.76502069 0 19124.89448950 0 2385.97527517 0 -10725.78319647 0 1887
0.04250000 0.04250150 45960.11308972 0 995.35881913 0 17812.04893576 0 3266.97801634 0 -7761.82149344 0 1920
0.04350000 0.04349210 46039.39093542 0 1819.51513745 0 21145.81521540 0 274.17290716 0 -6925.44022129 0 2005
0.04450000 0.04448520 44056.00539066 0 1235.95933021 0 18959.36323346 0 -427.64640147 0 -5138.02375349 0 2151
0.04550000 0.04548030 42861.85515897 0 1304.31986364 0 20234.89505257 0 -247.84181151 0 -2815.33788699 0 2274
0.04650000 0.04648670 45211.07031574 0 -291.80779890 0 20150.96683045 0 2170.16459213 0 -926.04828023 0 2311
0.04750000 0.04749250 43158.37201761 0 289.05300448 0 18439.07469024 0 2979.42974080 0 -533.71927323 0 2568
0.04850000 0.04851840 42268.71071843 0 2813.72132756 0 16540.50315358 0 2711.83379458 0 -2325.39858609 0 2493
0.04950000 0.04949480 41558.86397431 0 1863.07366328 0 17556.94257193 0 1630.92022881 0 -191.24340873 0 2644
0.05050000 0.05050630 38113.04576750 0 1132.39987618 0 15110.73384975 0 1874.90997852 0 899.81351380 0 2829
0.05150000 0.05149060 39599.61609765 0 947.74450071 0 14664.74060606 0 1240.23324759 0 -2370.50723740 0 2784
0.05250000 0.05249300 38335.93166610 0 -148.15102777 0 16322.59980115 0 196.27467313 0 -2482.90240663 0 3055
0.05350000 0.05348950 37964.12299869 0 1646.45470053 0 16256.60874523 0 -1182.03710834 0 -308.32549306 0 3009
0.05450000 0.05448610 35587.89136936 0 2295.19328398 0 14799.82296884 0 -76.81270330 0 -547.83095121 0 3336
0.05550000 0.05550870 34282.79644298 0 286.51190594 0 13440.69509735 0 3813.33081219 0 1674.96593694 0 3349
0.05650000 0.05647670 34154.02530534 0 -781.50240142 0 12314.63966330 0 4551.15732113 0 -112.26119410 0 3324
0.05750000 0.05747970 34694.90837273 0 -56.36488745 0 11011.18344100 0 5943.50216708 0 1776.47701088 0 3639
0.05850000 0.05849280 33967.01373915 0 596.61007820 0 9498.11703756 0 628.89476291 0 5776.78617228 0 3846
0.05950000 0.05951020 33404.20746862 0 1010.19019822 0 9231.75011939 0 369.21442171 0 4013.62916816 0 3787
0.06050000 0.06049470 32785.26451126 0 870.54825208 0 11002.21485789 0 -1440.21050614 0 5067.81414182 0 3930
0.06150000 0.06148310 31493.01348168 0 1071.63052864 0 12559.11659529 0 -3488.97812895 0 3464.71866528 0 4083
0.06250000 0.06249100 31876.66953664 0 1164.58712443 0 15352.33197729 0 -1077.85981859 0 5794.95585731 0 4303
0.06350000 0.06350600 30988.44763969 0 570.88353149 0 15483.20685665 0 -435.64061999 0 4759.79313769 0 4470
0.06450000 0.06451750 31113.01129390 0 -875.52636931 0 14878.87936805 0 2297.29702570 0 4177.66566035 0 4479
0.06550000 0.06550280 30536.58606384 0 263.59551526 0 14396.56889895 0 1500.64325500 0 2121.22491643 0 4636
0.06650000 0.06648880 31779.56524798 0 851.20268615 0 14164.05007776 0 2094.34131177 0 1160.71181074 0 4653
0.06750000 0.06749660 29336.34605350 0 1649.62138543 0 13208.61916916 0 573.86863026 0 3290.69493610 0 5220
0.06850000 0.06852730 28841.52385735 0 1107.84145973 0 12061.85848769 0 -210.78052588 0 3726.96667861 0 5029
0.06950000 0.06949320 28360.76351373 0 -244.59429864 0 13601.68670022 0 1040.13751516 0 2736.12647523 0 5040
0.07050000 0.07048030 28074.76536366 0 -65.68114155 0 11792.13665511 0 682.85905961 0 587.02033768 0 5475
0.07150000 0.07148790 28024.60773223 0 457.78084070 0 10124.24593372 0 2014.77558562 0 753.48941963 0 5509
0.07250000 0.07249820 27439.43536557 0 925.58102812 0 9218.71799308 0 -158.46822004 0 -1762.51480928 0 5916
0.07350000 0.07351270 26785.28241528 0 259.50207677 0 8791.02730231 0 524.52813640 0 -269.02316889 0 5721
0.07450000 0.07449140 26266.76544403 0 130.18507352 0 9444.30553894 0 224.12046282 0 -841.58415758 0 6028
0.07550000 0.07549160 26225.68711895 0 389.77019273 0 8267.49456791 0 1721.68007535 0 -2039.64402717 0 6183
0.07650000 0.07648840 25887.31687249 0 151.70967297 0 7607.91617846 0 875.50422467 0 -839.64096458 0 6330
0.07750000 0.07749960 25517.83339329 0 814.44588945 0 7661.03012062 0 673.46197754 0 -436.14994693 0 6583
0.07850000 0.07848650 25065.08603146 0 604.17026159 0 8236.89066211 0 54.91397000 0 47.72570601 0 6549
0.07950000 0.07947320 24749.63549738 0 -21.61594613 0 7149.03474868 0 1340.23848535 0 285.38031434 0 6828
0.08050000 0.08048110 24912.17722571 0 -579.59080772 0 8239.80268354 0 575.47079566 0 871.51265157 0 7147
0.08150000 0.08149960 24717.74720190 0 433.72289333 0 8368.25272376 0 561.97363171 0 606.33268663 0 7386
0.08250000 0.08250610 24552.21594586 0 1373.51082143 0 8154.01431085 0 -156.18510666 0 653.86617707 0 7227
0.08350000 0.08350160 23807.60210181 0 1122.92196613 0 7777.89850908 0 -984.96301336 0 2546.30253854 0 7798
0.08450000 0.08449610 23338.57842249 0 115.47659723 0 8774.47417671 0 900.83991832 0 2593.04989393 0 7371
0.08550000 0.08548940 23047.59772625 0 -331.52754972 0 8015.25593622 0 729.60973669 0 3165.02404941 0 8256
0.08650000 0.08650700 24094.81820760 0 -192.99283605 0 8866.96130592 0 345.99464933 0 2606.36990069 0 8037
0.08750000 0.08749060 23253.98586087 0 434.97074434 0 9274.71073969 0 -459.46383407 0 2390.58136229 0 8155
0.08850000 0.08849210 22721.07486735 0 1471.31266655 0 9774.34939713 0 -592.61075448 0 2498.71368647 0 8718
0.08950000 0.08949900 21871.05249102 0 974.17856898 0 10218.46034561 0 -340.87037740 0 2415.60481638 0 8571
0.09050000 0.09049190 20909.08891078 0 588.53060278 0 9587.49284349 0 735.59764995 0 3052.61780785 0 8932
0.09150000 0.09150830 20437.85076650 0 233.02482644 0 9761.77123614 0 1549.46113512 0 1720.80536169 0 9285
0.09250000 0.09250820 19890.87792046 0 251.10593286 0 8559.27247153 0 1497.14440035 0 2187.62564837 0 9204
0.09350000 0.09350330 19528.81289889 0 372.77085244 0 7471.44977508 0 1438.64930834 0 1732.76347249 0 9349
0.09450000 0.09448040 19183.46708779 0 653.89385788 0 7156.56392956 0 1177.39780424 0 3055.12015326 0 9564
0.09550000 0.09549270 18621.87877299 0 330.42363894 0 6269.50462671 0 264.75257320 0 2394.39024203 0 10155
0.09650000 0.09649430 18491.66823312 0 131.00221109 0 5993.51585828 0 -266.12443425 0 1406.30704754 0 9913
0.09750000 0.09749140 17857.00257452 0 438.37769868 0 6092.64638238 0 -379.94682615 0 294.95566084 0 10476
0.09850000 0.09850240 17539.78046847 0 799.40524342 0 5563.00172468 0 -614.04013193 0 -110.36361908 0 10575
0.09950000 0.09950330 17028.01761535 0 195.05228847 0 5901.21695859 0 -334.64551639 0 -576.99988372 0 10882
0.10050000 0.10051200 16744.45537674 0 118.30114729 0 5627.88554812 0 365.15973636 0 -953.70141146 0 10875
0.10150000 0.10150300 16785.64442507 0 -5.63905752 0 5590.36143931 0 801.07937893 0 -1761.93904839 0 11118
0.10250000 0.10250800 17096.99819897 0 -188.00586096 0 5536.25098792 0 331.58401858 0 -727.50488774 0 11575
0.10350000 0.10349800 17394.51156685 0 71.22915134 0 5472.16437187 0 420.79816857 0 -672.57286985 0 11364
0.10450000 0.10450100 17053.70540893 0 299.10446095 0 5570.87414763 0 -623.70073534 0 732.65019709 0 12093
0.10550000 0.10551000 17086.70093689 0 324.76457372 0 6393.51466468 0 -251.44585324 0 1498.31806678 0 12067
0.10650000 0.10649700 16928.47741523 0 51.65250600 0 6644.02601370 0 429.97048245 0 873.52781468 0 12054
0.10750000 0.10749900 16706.36657937 0 178.21571135 0 6750.39783824 0 311.15779375 0 1604.16949205 0 12807
0.10850000 0.10850100 16788.19105978 0 319.58272571 0 6918.88540500 0 323.47354065 0 1151.83180623 0 12736
0.10950000 0.10950300 16276.87109965 0 479.46488162 0 7090.20748692 0 43.71010596 0 1312.49123935 0 12933
0.11050000 0.11050200 15869.96316257 0 662.35865021 0 7388.03087989 0 40.97236293 0 1466.68443478 0 13428
0.11150000 0.11150900 15487.08217034 0 481.87975566 0 7313.02695157 0 34.60632977 0 1928.16786089 0 13453
0.11250000 0.11250000 15179.16081713 0 324.19102730 0 7000.22270312 0 556.53269129 0 2488.97004063 0 13668
0.11350000 0.11349100 14958.48938349 0 221.20401246 0 6769.97370851 0 790.35693958 0 2058.36732844 0 13791
0.11450000 0.11448600 14787.08979530 0 191.25448106 0 6697.71571675 0 411.65021381 0 2239.62128572 0 14205
0.11550000 0.11549300 14610.04332145 0 -80.17780426 0 6660.46841606 0 250.70290024 0 2061.16862662 0 14776
0.11650000 0.11649800 14603.17848006 0 109.49410941 0 6236.32086923 0 617.20903130 0 1681.77541670 0 14553
0.11750000 0.11747300 14679.46679806 0 -61.12709435 0 6180.84852189 0 53.87571810 0 1885.76085684 0 14568
0.11850000 0.11849100 14616.79743959 0 -195.34127615 0 5707.56199752 0 332.53291681 0 1579.12389331 0 16015
0.11950000 0.11950300 14757.63741128 0 8.63593725 0 5497.81894848 0 94.09527367 0 1231.34217076 0 15270
0.12050000 0.12050700 14540.95201458 0 419.31115535 0 5457.62640938 0 19.53003085 0 1087.62893077 0 15999
0.12150000 0.12150000 14304.44715646 0 389.29629723 0 5555.18466336 0 388.88440675 0 1405.52091248 0 15670
0.12250000 0.12250700 13874.61950700 0 446.94214193 0 4550.42654769 0 711.77000694 0 1159.01774504 0 16887
0.12350000 0.12352200 13646.30816924 0 97.06985373 0 5090.70063722 0 479.09838767 0 1700.03368033 0 16407
0.12450000 0.12449800 13220.90944970 0 359.37223217 0 4129.40139646 0 957.11500921 0 576.53041714 0 16306
0.12550000 0.12549900 13042.09140388 0 330.16122484 0 4016.15365822 0 548.59604886 0 1518.23717913 0 17523
0.12650000 0.12650100 12587.12957709 0 162.60373336 0 3305.99688900 0 -58.84132361 0 568.16416851 0 17154
0.12750000 0.12750600 12606.50614552 0 66.98003597 0 3570.17148685 0 64.63823927 0 546.28193297 0 18007
0.12850000 0.12850300 12440.53199649 0 -104.14949822 0 3385.42974725 0 98.68497375 0 418.55602279 0 17496
0.12950000 0.12949900 12631.52959961 0 -127.51332154 0 3387.93209266 0 -106.64575385 0 502.02142174 0 18405
0.13050000 0.13049000 12843.89678963 0 61.80449918 0 3618.66826955 0 74.72568080 0 486.67739401 0 18100
0.13150000 0.13148800 12872.90628065 0 131.19708401 0 3978.12022247 0 128.46886317 0 743.05818242 0 19059
0.13250000 0.13249300 12815.77308459 0 143.67337961 0 3604.35175356 0 287.02344734 0 1552.76068792 0 18957
0.13350000 0.13349100 12712.80046378 0 224.95974504 0 4163.12769786 0 334.46171580 0 1650.11964005 0 19468
0.13450000 0.13450700 12619.79293530 0 154.89518082 0 4090.48217473 0 440.02526062 0 2243.33051453 0 19953
0.13550000 0.13551000 12323.49752315 0 105.31906789 0 3951.69058313 0 369.16570348 0 1703.31108848 0 19956
0.13650000 0.13649900 12208.67751478 0 195.37449312 0 3270.48794331 0 340.62789349 0 1411.07921954 0 19723
0.13750000 0.13749600 12017.90135816 0 310.72818755 0 3548.72439368 0 -203.99651246 0 1672.04284319 0 20946
0.13850000 0.13851100 11736.88575426 0 533.81892416 0 3199.92401724 0 -499.43824836 0 1207.47023845 0 20955
0.13950000 0.13949800 11312.04065097 0 271.84107555 0 3200.97588810 0 -39.00957191 0 1186.78713569 0 20506
0.14050000 0.14048300 11196.55630311 0 -1.70142879 0 2917.95619341 0 361.19141514 0 796.33156605 0 21447
0.14150000 0.14148400 11336.39976557 0 -31.20845473 0 3192.01837732 0 265.62285793 0 700.22932279 0 21771
0.14250000 0.14249400 11179.50492289 0 147.61180555 0 2920.13744140 0 102.62107450 0 168.33144699 0 22470
0.14350000 0.14350900 11052.05139190 0 195.65794464 0 2996.13787895 0 -2.34883870 0 593.46664519 0 22519
0.14450000 0.14449900 10861.58526037 0 249.90790732 0 2809.49169948 0 -360.40970901 0 331.02929510 0 22218
0.14550000 0.14550500 10731.19756331 0 204.34086176 0 3121.33265568 0 237.85568175 0 260.25942379 0 23559
0.14650000 0.14650700 10456.26066574 0 53.07751421 0 2739.79141475 0 94.35071220 0 -237.70620537 0 23044
0.14750000 0.14750500 10480.46476779 0 128.30056384 0 3104.81274705 0 -57.94313662 0 -640.97577652 0 23649
0.14850000 0.14849900 10436.78444638 0 280.75097533 0 3248.42079994 0 -531.10620458 0 -561.62485347 0 23640
0.14950000 0.14949500 10239.66384763 0 271.65506050 0 3351.82524143 0 -392.99223925 0 -708.74504780 0 24457
0.15050000 0.15050000 9996.73704111 0 198.08278377 0 3480.45243884 0 -189.73535809 0 -65.54915944 0 24591
0.15150000 0.15149900 9993.49284994 0 56.08010725 0 3606.90946060 0 66.95722698 0 -182.97681102 0 25020
0.15250000 0.15250500 9915.04542860 0 65.46611700 0 3672.16974308 0 440.71949538 0 -50.52002862 0 25297
0.15350000 0.15350100 9922.07635486 0 212.97063172 0 3912.23988980 0 423.44888313 0 -234.13759508 0 25452
0.15450000 0.15450400 9680.13498525 0 108.83253800 0 3415.12572241 0 314.87366596 0 354.17045397 0 26061
0.15550000 0.15549900 9716.18647486 0 83.87064604 0 3479.75488238 0 285.42792534 0 706.33681716 0 26128
0.15650000 0.15649500 9517.49360599 0 28.45354960 0 3146.40039907 0 276.02087817 0 428.51447174 0 26331
0.15750000 0.15749700 9490.93109875 0 186.85433917 0 3159.70933350 0 252.62284136 0 910.74079117 0 27345
0.15850000 0.15849900 9401.63279909 0 188.11769144 0 3065.02988397 0 113.94750917 0 665.03372388 0 26980
0.15950000 0.15949700 9235.79151795 0 88.81012086 0 3134.03261224 0 63.33580170 0 778.84725793 0 27777
0.16050000 0.16050000 9107.06466961 0 107.48536824 0 3237.54777697 0 11.81007382 0 419.61453705 0 28224
0.16150000 0.16150500 9101.17419281 0 96.88284216 0 3037.08333613 0 83.32621982 0 385.70664952 0 28075
0.16250000 0.16249700 8860.15182615 0 138.80930732 0 2896.16585816 0 276.61989094 0 662.32211154 0 28590
0.16350000 0.16349900 8829.90223475 0 73.50971809 0 2635.57869356 0 360.34881122 0 326.66126296 0 29163
0.16450000 0.16449100 8857.32838333 0 -5.47436776 0 2337.54492641 0 303.98624897 0 101.08379292 0 28996
0.16550000 0.16550500 8773.74340327 0 91.69246846 0 2202.76151640 0 164.65322068 0 -236.32880816 0 30777
0.16650000 0.16650700 8565.83836015 0 224.81026865 0 2266.77062617 0 -405.58368704 0 -60.71752905 0 29211
0.16750000 0.16749900 8492.78316100 0 229.33995674 0 2328.97494700 0 -332.20517600 0 -283.32750532 0 30922
0.16850000 0.16850800 8336.40871758 0 149.92924314 0 2528.87469928 0 -127.85767084 0 76.02092136 0 30867
0.16950000 0.16949900 8282.98475033 0 88.37785730 0 2684.93911760 0 101.75854040 0 -130.74976209 0 30852
0.17050000 0.17049200 8313.64401776 0 -79.87652630 0 2588.79812120 0 349.38942412 0 92.85794137 0 31257
0.17150000 0.17149500 8406.57403996 0 -68.81549526 0 2555.60329139 0 252.79335517 0 -96.89014990 0 32608
0.17250000 0.17250900 8394.10660221 0 98.89855890 0 2388.84300730 0 231.65185816 0 105.25418407 0 32361
0.17350000 0.17350400 8307.91962582 0 80.65712520 0 2346.65744974 0 150.04107362 0 469.71127069 0 32508
0.17450000 0.17449800 8252.84588218 0 169.37999615 0 2352.48149259 0 256.76942701 0 537.35099577 0 32791
0.17550000 0.17549800 8037.46701980 0 192.29970852 0 2263.77002615 0 203.39639245 0 681.69092934 0 33633
0.17650000 0.17650100 7908.47443567 0 213.08689113 0 2294.90540354 0 60.88228525 0 620.24949169 0 33984
0.17750000 0.17750300 7847.08946687 0 170.20156265 0 2239.54377944 0 -80.23892350 0 948.90709482 0 34069
0.17850000 0.17849800 7723.15693518 0 72.70996407 0 2324.35778755 0 17.35542626 0 947.29385709 0 34536
