### header ###
fiducial parameters:
Omega_m = 0.31
Omega_nu = 0
Omega_de = 0.69
Omega_k = 0
H_0 = 100
w_de = -1
zeff = 0
beta = 0
fgrowth = 0
b_1 = 2
gamma = 0.55
Lx = 3500 Ly = 3500 Lz = 3500
nx = 700 ny = 700 nz = 700
xoffset = -685.467585 yoffset = -31.7331281 zoffset = 572.489161
bins = 400 dk = 0.001
kx_ny = 0.628318531 ky_ny = 0.628318531 kz_ny = 0.628318531
############################
A(data) = 8.03694854 (not used)
A(ran) = 8.03493815 (used)
Ngal = 478102
weighted Ngal = 0
Nran = 23820508
weighted Nran = 0
SN(data) = 3485.82576
SN(ran) = 69.9872253
SN(data+ran) = 3555.81299
############################
13 columns: k_central k_mean P_0(k) sigma^{lin}_{P_0(k)} P^img_1(k) sigma^{lin}_{P_1(k)} P_2(k) sigma^{lin}_{P_2(k)} P^img_3(k) sigma^{lin}_{P_3(k)} P_4(k) sigma^{lin}_{P_4(k)} N_modes
### header ###
0.00050000 0 0 0 0 0 0 0 0 0 0 0 0
0.00150000 0.00179520 47672.11595318 0 -31146.67116135 0 65179.89740292 0 44122.21789307 0 -103175.02291110 0 3
0.00250000 0.00253879 85694.47938041 0 -25362.04578309 0 49650.74039827 0 8402.68765395 0 37776.11492326 0 6
0.00350000 0.00331552 80153.55587141 0 5068.17952854 0 13712.63139490 0 -23350.64725654 0 27228.61830102 0 7
0.00450000 0.00420575 76965.16921664 0 25174.59132392 0 14442.07615395 0 -23598.77805573 0 387.75835131 0 24
0.00550000 0.00557378 73347.72997514 0 882.55397388 0 42232.06132328 0 -32344.58598348 0 -34519.63347085 0 45
0.00650000 0.00659388 85789.14775761 0 11611.32559082 0 84849.55027350 0 -26649.20354326 0 -25317.53503732 0 40
0.00750000 0.00754703 71072.69939465 0 3249.01870548 0 37574.82005806 0 21198.29803504 0 -36224.88221617 0 57
0.00850000 0.00846663 79016.20666604 0 -12246.10197267 0 44197.39897859 0 14450.93401381 0 -26455.21641244 0 75
0.00950000 0.00948925 89611.86790125 0 -14083.55427633 0 3324.05585078 0 14284.18480204 0 -87717.61457127 0 112
0.01050000 0.01054430 84760.30733546 0 -4006.73110980 0 10661.02116861 0 3508.49863761 0 -56015.88776677 0 105
0.01150000 0.01145670 88517.70076267 0 5303.04568259 0 -20402.97294332 0 -26267.54050676 0 -55391.74081674 0 144
0.01250000 0.01249090 81531.28524860 0 -1907.23009466 0 -17835.07937138 0 -20145.20922154 0 -35410.06983277 0 169
0.01350000 0.01339930 92664.95074674 0 -2441.89051550 0 -13413.01428531 0 -44302.36461787 0 -56606.81774234 0 180
0.01450000 0.01448870 91307.37300073 0 3886.16456485 0 -5225.69442141 0 -27947.98724449 0 -27633.75466614 0 267
0.01550000 0.01550050 83140.53693774 0 9003.42770931 0 10228.52508887 0 -9359.86798987 0 -17843.38361499 0 238
0.01650000 0.01653350 82507.97502085 0 -1972.35750924 0 8506.87823049 0 5445.62400928 0 -35861.37779238 0 315
0.01750000 0.01747870 92175.00037352 0 -6288.73725492 0 10807.93984663 0 20769.24544832 0 -36180.48219365 0 297
0.01850000 0.01844180 91219.79091141 0 -540.27076783 0 11788.15061817 0 -7838.55270444 0 -50278.76266198 0 388
0.01950000 0.01947590 85886.58421601 0 5643.82969586 0 2131.54432316 0 -2872.63716792 0 -7940.97170901 0 399
0.02050000 0.02045430 86451.71567476 0 4408.47934352 0 12201.59122690 0 -5538.32151266 0 -25643.72572648 0 462
0.02150000 0.02154770 78725.22596981 0 4500.05854209 0 11368.73095404 0 -395.68502865 0 -15076.07747307 0 571
0.02250000 0.02255340 73814.98208248 0 5246.90899576 0 12416.83722137 0 -2131.23429807 0 -27591.79055507 0 510
0.02350000 0.02348930 70963.19410219 0 6963.61759727 0 24544.57604173 0 415.47570203 0 -16395.34497521 0 555
0.02450000 0.02439640 64419.67158087 0 6148.74985224 0 18052.42910757 0 -5021.79755987 0 -2692.23577965 0 592
0.02550000 0.02547300 64353.56980170 0 896.49070913 0 27317.97196231 0 -377.06027107 0 -12074.37021473 0 837
0.02650000 0.02652900 69459.57239182 0 -2158.73795292 0 24971.41416349 0 -4799.66457936 0 -15775.51623186 0 723
0.02750000 0.02749970 65066.07390378 0 1777.56209871 0 31561.10827931 0 -10750.10909410 0 -18426.23079345 0 826
0.02850000 0.02848090 68865.65288855 0 4391.69369909 0 30769.99067102 0 -8174.30988224 0 -11938.29134271 0 831
0.02950000 0.02946900 64104.88538628 0 886.58872904 0 38381.21747460 0 -5906.49845753 0 1153.39300403 0 996
0.03050000 0.03053250 66027.92676078 0 3570.75832006 0 44436.22902493 0 8765.46130431 0 -7248.05454953 0 1041
0.03150000 0.03150510 63595.66916787 0 621.38551222 0 40143.15652299 0 8240.87669905 0 2589.03064002 0 1036
0.03250000 0.03246190 62160.58514812 0 2903.00855490 0 39642.79816444 0 10601.29704854 0 -10701.85590254 0 1059
0.03350000 0.03345080 59408.11592145 0 759.75746271 0 35361.01943382 0 6991.27626466 0 4079.06660784 0 1302
0.03450000 0.03451200 57456.17577917 0 3902.70661813 0 36572.55321548 0 5272.00995612 0 367.51924878 0 1339
0.03550000 0.03553350 53577.54039520 0 3375.15462982 0 28730.57916267 0 5060.61713069 0 3684.74790407 0 1365
0.03650000 0.03647120 54081.77406744 0 -99.72200769 0 25108.60026800 0 7933.84113183 0 -2917.93404876 0 1308
0.03750000 0.03744890 50502.42362332 0 1273.30628182 0 22187.72098084 0 2640.61660135 0 -341.08075157 0 1579
0.03850000 0.03847530 48363.36119161 0 1533.05194974 0 19035.87299796 0 6282.76927184 0 319.49636157 0 1662
0.03950000 0.03950240 48125.19548476 0 794.79251290 0 16843.77413037 0 2902.38850471 0 3535.63690574 0 1683
0.04050000 0.04050350 47375.59909453 0 -112.50478525 0 16202.79724661 0 2798.25328979 0 7990.67537512 0 1822
0.04150000 0.04152450 47988.23082675 0 1348.97454963 0 17041.41512838 0 7970.88913067 0 8541.82248762 0 1887
0.04250000 0.04250150 46968.80188070 0 4.41372763 0 15640.43386908 0 5125.95491944 0 10539.30310188 0 1920
0.04350000 0.04349210 46030.97596856 0 756.69264320 0 12301.79576651 0 7439.48397332 0 12045.80361670 0 2005
0.04450000 0.04448520 46372.55718921 0 776.21425909 0 11583.97694852 0 1952.96986849 0 14050.44802512 0 2151
0.04550000 0.04548030 43221.26282258 0 2447.08343584 0 9115.02567115 0 2695.30281363 0 12343.87060082 0 2274
0.04650000 0.04648670 40963.28362231 0 3185.71822450 0 9740.96633780 0 -2563.77466711 0 8959.50379675 0 2311
0.04750000 0.04749250 39974.74646250 0 2751.57236836 0 12114.89492357 0 -3282.77822386 0 12135.15727799 0 2568
0.04850000 0.04851840 37078.00484345 0 1645.52462525 0 14465.88165231 0 -3652.04025656 0 8626.27110901 0 2493
0.04950000 0.04949480 37590.43203606 0 107.08621093 0 16354.15592689 0 -167.51209495 0 8161.95316774 0 2644
0.05050000 0.05050630 38356.85836000 0 -1821.62995149 0 16469.64027474 0 240.87953366 0 2372.35631564 0 2829
0.05150000 0.05149060 38690.57823004 0 -553.50441045 0 17725.79552542 0 -179.90313365 0 559.22437345 0 2784
0.05250000 0.05249300 38903.49903630 0 2362.07012589 0 20277.74494962 0 -599.76236908 0 818.56479429 0 3055
0.05350000 0.05348950 36258.87425337 0 1322.69992284 0 17472.12856382 0 -1636.84392259 0 3129.20507862 0 3009
0.05450000 0.05448610 35843.32990292 0 729.75810584 0 16862.04346632 0 5330.41646954 0 3994.58476947 0 3336
0.05550000 0.05550870 36006.53597075 0 -1155.20886530 0 14038.48991431 0 6044.57034802 0 2633.38637324 0 3349
0.05650000 0.05647670 34606.10832769 0 956.63336308 0 11243.83513009 0 3715.78363054 0 1082.99848453 0 3324
0.05750000 0.05747970 34312.69171999 0 2169.90992866 0 10362.79917194 0 -323.79131637 0 453.71619026 0 3639
0.05850000 0.05849280 31618.79509162 0 2507.00685776 0 10666.38017382 0 -2077.82140314 0 2867.54389851 0 3846
0.05950000 0.05951020 30498.38654322 0 1561.90642822 0 9470.23692366 0 -1835.97968445 0 2786.40590224 0 3787
0.06050000 0.06049470 30109.30504909 0 -530.82275306 0 11012.62284322 0 -221.58822213 0 2084.33193014 0 3930
0.06150000 0.06148310 30602.24495002 0 -1000.86065733 0 12098.50788284 0 -237.81139245 0 -155.15759492 0 4083
0.06250000 0.06249100 32061.02374487 0 -882.13986893 0 12714.35058925 0 -71.11765303 0 -1108.55008852 0 4303
0.06350000 0.06350600 32706.54028180 0 767.87790573 0 13735.55110728 0 -1600.03951489 0 79.66936311 0 4470
0.06450000 0.06451750 31619.79160085 0 1100.19712667 0 14522.90412513 0 -356.56318337 0 2100.10999300 0 4479
0.06550000 0.06550280 31382.84384973 0 641.80287918 0 14446.50508388 0 773.41296091 0 852.04639730 0 4636
0.06650000 0.06648880 30574.56413797 0 915.56500309 0 14783.32520486 0 1688.87277691 0 950.99865698 0 4653
0.06750000 0.06749660 29932.59074498 0 1062.54568613 0 14242.10996773 0 1770.45366618 0 -1422.32870155 0 5220
0.06850000 0.06852730 29029.64265602 0 562.28365680 0 12927.60356526 0 1475.37620976 0 -195.70001947 0 5029
0.06950000 0.06949320 28136.88110590 0 -31.15962578 0 11572.12956096 0 872.11941497 0 -1207.92420377 0 5040
0.07050000 0.07048030 28889.79919356 0 -250.43494998 0 11828.34315726 0 980.07901088 0 -2306.30989810 0 5475
0.07150000 0.07148790 28246.27567510 0 995.49057979 0 11168.87549106 0 595.60914004 0 -1839.24602027 0 5509
0.07250000 0.07249820 27135.61077255 0 861.72139473 0 9727.85670522 0 584.81030164 0 -873.70607911 0 5916
0.07350000 0.07351270 27187.98286894 0 -0.45150615 0 9667.76719843 0 2548.08518284 0 -1883.45781328 0 5721
0.07450000 0.07449140 27409.54008856 0 -689.42826993 0 7769.99286916 0 2917.30292624 0 -1342.29793776 0 6028
0.07550000 0.07549160 26848.17322025 0 79.39764826 0 8006.18770219 0 1397.78135743 0 -1823.94406738 0 6183
0.07650000 0.07648840 26858.69192883 0 791.35898497 0 5544.27842342 0 936.57141774 0 -69.20346952 0 6330
0.07750000 0.07749960 25876.02310118 0 753.53260170 0 5363.68880562 0 1052.41672338 0 662.65981744 0 6583
0.07850000 0.07848650 25274.24224728 0 779.01334280 0 4677.31539012 0 486.16142367 0 1658.31316041 0 6549
0.07950000 0.07947320 24842.64302585 0 612.55201148 0 4657.50700101 0 -398.64355384 0 -461.00399445 0 6828
0.08050000 0.08048110 24405.39691876 0 303.62972011 0 6225.56964183 0 -724.95714580 0 -212.95180877 0 7147
0.08150000 0.08149960 24034.47403734 0 571.05404529 0 7134.88431756 0 -2171.23860764 0 -412.29905204 0 7386
0.08250000 0.08250610 23599.33167197 0 404.65029005 0 8230.49085837 0 -1961.16338885 0 -1434.59683745 0 7227
0.08350000 0.08350160 23668.53370208 0 739.57372180 0 9270.30395441 0 -1460.48393288 0 -1216.41667690 0 7798
0.08450000 0.08449610 23222.98335138 0 1163.80098936 0 10260.96700059 0 -513.86105867 0 -564.26006678 0 7371
0.08550000 0.08548940 22087.51644123 0 979.91735494 0 9564.05273185 0 423.45220483 0 -1058.13115022 0 8256
0.08650000 0.08650700 21433.58493744 0 296.21015525 0 9020.11370281 0 1781.07202568 0 -668.84592532 0 8037
0.08750000 0.08749060 20557.54259779 0 156.12753057 0 7795.91318156 0 1931.36776277 0 -869.42773280 0 8155
0.08850000 0.08849210 20661.06883484 0 507.36049677 0 6891.34853318 0 1794.43632173 0 -793.14937990 0 8718
0.08950000 0.08949900 19928.19165510 0 194.76994419 0 6220.53173404 0 1586.52020629 0 96.26345631 0 8571
0.09050000 0.09049190 19545.19993962 0 61.93603840 0 4913.65416337 0 587.41894137 0 -895.92602056 0 8932
0.09150000 0.09150830 20201.45663162 0 -167.50102262 0 5796.38418721 0 -369.58645182 0 -300.55604274 0 9285
0.09250000 0.09250820 19479.31960695 0 738.40669876 0 6485.01635698 0 -834.90533125 0 -20.23533795 0 9204
0.09350000 0.09350330 19463.92907545 0 1000.53955991 0 7340.38666620 0 -1445.20412463 0 152.83462117 0 9349
0.09450000 0.09448040 18399.76793713 0 852.82478174 0 7808.20346211 0 -16.88507390 0 1448.32652023 0 9564
0.09550000 0.09549270 18104.13686447 0 256.50036952 0 8405.92077279 0 569.67332638 0 1196.86295127 0 10155
0.09650000 0.09649430 18000.16773443 0 -185.22006403 0 7892.48599863 0 1088.00096089 0 676.24445276 0 9913
0.09750000 0.09749140 18475.61336214 0 -316.77367690 0 7909.28271538 0 1225.71742975 0 -121.60070009 0 10476
0.09850000 0.09850240 18127.38874659 0 332.31036308 0 6926.61388772 0 -32.26663682 0 -154.83871196 0 10575
0.09950000 0.09950330 18094.94683487 0 451.90475792 0 6786.57112342 0 -41.94318437 0 -376.31953254 0 10882
0.10050000 0.10051200 17302.50054760 0 598.48240833 0 6517.29218383 0 -170.86147321 0 10.24320699 0 10875
0.10150000 0.10150300 17012.40563735 0 570.74402019 0 6226.75438059 0 119.53571151 0 -667.97564059 0 11118
0.10250000 0.10250800 16575.60242326 0 285.25630430 0 6268.04307984 0 1376.25675798 0 -360.55475646 0 11575
0.10350000 0.10349800 16383.05469466 0 -100.07012159 0 5376.32232824 0 1274.70139475 0 -587.43776432 0 11364
0.10450000 0.10450100 16294.69754261 0 -251.77027235 0 4783.98616742 0 945.36727257 0 -1127.63877651 0 12093
0.10550000 0.10551000 16259.93044268 0 346.75531804 0 4789.21230473 0 -58.23367443 0 -1061.96660354 0 12067
0.10650000 0.10649700 15987.44052889 0 436.23520383 0 4835.31746528 0 -495.68694471 0 -1264.51485591 0 12054
0.10750000 0.10749900 15585.40441473 0 357.50543821 0 5026.29292375 0 -875.60498282 0 241.03122451 0 12807
0.10850000 0.10850100 15593.15504210 0 363.17557575 0 4720.58603551 0 -234.43765508 0 -312.70127583 0 12736
0.10950000 0.10950300 15186.13638177 0 103.73284664 0 5081.84277736 0 1058.52200329 0 -114.43912040 0 12933
0.11050000 0.11050200 15139.85406402 0 111.54481469 0 4521.08488692 0 988.45633184 0 -940.10902552 0 13428
0.11150000 0.11150900 14770.59203132 0 418.47962375 0 4305.19669761 0 707.22371037 0 -1436.30197547 0 13453
0.11250000 0.11250000 14384.61078814 0 320.61688084 0 3862.27048789 0 -100.40129482 0 -1130.93832930 0 13668
0.11350000 0.11349100 14240.11694926 0 66.21648845 0 3893.45015458 0 -513.90645520 0 -1054.12739757 0 13791
0.11450000 0.11448600 14163.16429177 0 46.25142596 0 4208.73460379 0 -403.35372082 0 -868.12452017 0 14205
0.11550000 0.11549300 14379.07462574 0 197.70078857 0 4764.48780341 0 -166.69606461 0 -1001.34230346 0 14776
0.11650000 0.11649800 14127.40068261 0 258.56535809 0 4597.49500050 0 -125.86686684 0 -548.59937056 0 14553
0.11750000 0.11747300 14327.14542234 0 61.96870176 0 5075.66442012 0 210.42842595 0 -66.80298950 0 14568
0.11850000 0.11849100 14175.89746531 0 -140.63402645 0 5252.63338769 0 391.86507659 0 774.33860726 0 16015
0.11950000 0.11950300 14243.99226295 0 101.64006652 0 5037.04415115 0 847.13249955 0 796.15662332 0 15270
0.12050000 0.12050700 14431.55744538 0 -108.75292798 0 4841.14150813 0 582.87928820 0 1307.09901717 0 15999
0.12150000 0.12150000 14121.20018071 0 179.53442524 0 4641.62928722 0 804.57712634 0 1782.61107883 0 15670
0.12250000 0.12250700 14106.14181896 0 191.61322438 0 4580.88651327 0 353.42417928 0 1177.92927583 0 16887
0.12350000 0.12352200 13787.14814093 0 321.85033783 0 4152.62006161 0 107.18564041 0 1361.85166339 0 16407
0.12450000 0.12449800 13546.32507612 0 428.08708000 0 4266.59857329 0 -112.88899492 0 1504.23068824 0 16306
0.12550000 0.12549900 13299.30150942 0 123.70554904 0 4400.83943939 0 -215.41982997 0 1009.12504058 0 17523
0.12650000 0.12650100 13094.35277703 0 194.91388441 0 4253.75467650 0 4.11927022 0 823.30596377 0 17154
0.12750000 0.12750600 13280.03566424 0 -78.53234607 0 4142.79890950 0 294.89365582 0 884.97770578 0 18007
0.12850000 0.12850300 13217.91992200 0 -328.77607700 0 3807.07494867 0 120.64183676 0 476.49971304 0 17496
0.12950000 0.12949900 13455.86418236 0 163.23264141 0 3944.27212550 0 652.28726355 0 727.32773055 0 18405
0.13050000 0.13049000 13227.99573759 0 120.57651004 0 3824.53600491 0 -28.14474246 0 591.04734221 0 18100
0.13150000 0.13148800 13037.44102746 0 363.34387509 0 3800.50906005 0 550.90352135 0 497.24260635 0 19059
0.13250000 0.13249300 12720.32964465 0 380.31110564 0 3369.30844231 0 75.93810037 0 1106.19832673 0 18957
0.13350000 0.13349100 12301.90648976 0 243.18589892 0 3068.14120725 0 573.58074981 0 1008.52602780 0 19468
0.13450000 0.13450700 12220.74634884 0 115.42455730 0 3214.42876275 0 277.26097855 0 858.10960238 0 19953
0.13550000 0.13551000 12145.56526332 0 47.96475750 0 2659.97102513 0 -125.42508108 0 399.01447672 0 19956
0.13650000 0.13649900 11963.64696655 0 190.45727367 0 2712.23239828 0 14.53774104 0 657.39160530 0 19723
0.13750000 0.13749600 11945.82052359 0 144.29564427 0 2787.91173841 0 -298.39804663 0 515.94819190 0 20946
0.13850000 0.13851100 11868.42497311 0 113.47139921 0 2954.88239668 0 -155.55952031 0 561.90166159 0 20955
0.13950000 0.13949800 11689.82837378 0 257.86005100 0 3195.51723196 0 -128.79660399 0 653.13651087 0 20506
0.14050000 0.14048300 11529.72255690 0 259.10679478 0 3254.92025461 0 216.44623448 0 340.75522522 0 21447
0.14150000 0.14148400 11409.25566288 0 44.95009562 0 3351.92489235 0 73.64081441 0 486.05955828 0 21771
0.14250000 0.14249400 11383.12497631 0 134.24750950 0 3331.13106634 0 114.27524999 0 127.41145615 0 22470
0.14350000 0.14350900 11259.22566159 0 215.07215897 0 3151.87012753 0 -342.69509653 0 -10.71203137 0 22519
0.14450000 0.14449900 11032.74125742 0 323.62080257 0 2939.01575521 0 -428.56208273 0 -121.64609662 0 22218
0.14550000 0.14550500 10848.75243591 0 253.40344026 0 3265.97043478 0 -190.52260039 0 -160.00505872 0 23559
0.14650000 0.14650700 10530.97671361 0 210.45610676 0 2782.71881807 0 303.13810888 0 -405.81066970 0 23044
0.14750000 0.14750500 10400.09076193 0 149.75097871 0 2668.80674034 0 689.91766668 0 -507.15233706 0 23649
0.14850000 0.14849900 10338.93831196 0 53.82279239 0 2502.00216694 0 471.80504731 0 -221.34795268 0 23640
0.14950000 0.14949500 10222.01456187 0 140.59195162 0 2168.40409248 0 351.32486650 0 -578.47582462 0 24457
0.15050000 0.15050000 10075.00730526 0 147.36821441 0 2145.42901849 0 -33.75365004 0 -206.42578052 0 24591
0.15150000 0.15149900 10072.27244103 0 124.43189354 0 2346.02632722 0 -199.52882939 0 -76.29008957 0 25020
0.15250000 0.15250500 9941.86259931 0 109.79350507 0 2586.69437948 0 -35.24453858 0 -20.18396236 0 25297
0.15350000 0.15350100 9885.23873019 0 51.47700965 0 2490.12156241 0 -118.41740670 0 -261.82283606 0 25452
0.15450000 0.15450400 9831.01755555 0 128.46997041 0 2512.75339434 0 -90.89459673 0 -368.74052620 0 26061
0.15550000 0.15549900 9719.20921953 0 193.81550979 0 2707.58202185 0 -1.53119180 0 -574.93157344 0 26128
0.15650000 0.15649500 9436.69885179 0 265.25968568 0 2687.86221135 0 -74.58329070 0 -424.80081399 0 26331
0.15750000 0.15749700 9323.11894380 0 248.35335291 0 2717.27030607 0 67.14833531 0 -320.31128468 0 27345
0.15850000 0.15849900 9236.98732903 0 92.38626033 0 2760.31950496 0 261.95459672 0 -280.92702530 0 26980
0.15950000 0.15949700 9093.58965031 0 59.75335101 0 2759.32299573 0 385.81072938 0 293.11654769 0 27777
0.16050000 0.16050000 9003.43878163 0 138.93553182 0 2684.39657368 0 591.45148207 0 96.80201419 0 28224
0.16150000 0.16150500 8990.53952322 0 59.66610109 0 2420.44342233 0 289.41839120 0 371.50639294 0 28075
0.16250000 0.16249700 8935.76473234 0 -31.53641699 0 2258.54388883 0 360.48278635 0 397.15875508 0 28590
0.16350000 0.16349900 8858.47990511 0 150.80395680 0 2114.76975106 0 -218.98401133 0 241.72988821 0 29163
0.16450000 0.16449100 8830.66622516 0 224.88002430 0 2432.23544826 0 -247.77316309 0 475.63607170 0 28996
0.16550000 0.16550500 8546.37321312 0 103.21676558 0 2150.63301115 0 -192.57873111 0 143.17180330 0 30777
0.16650000 0.16650700 8601.92306673 0 35.94442023 0 2323.10661485 0 -9.86436740 0 148.87405058 0 29211
0.16750000 0.16749900 8544.34697768 0 101.05843730 0 2496.07847317 0 -25.13174143 0 -408.70718987 0 30922
0.16850000 0.16850800 8478.14554759 0 270.05289509 0 2528.26572141 0 -102.00888566 0 -183.01556416 0 30867
0.16950000 0.16949900 8315.88062737 0 38.39339703 0 2432.31295454 0 -95.92353594 0 -235.48288255 0 30852
0.17050000 0.17049200 8203.23079466 0 77.60127428 0 2549.14812602 0 67.47740480 0 -66.74375256 0 31257
0.17150000 0.17149500 8339.14358181 0 4.72179292 0 2719.76157915 0 268.81722364 0 -239.83430620 0 32608
0.17250000 0.17250900 8113.65568688 0 110.85500885 0 2450.02867425 0 84.17347412 0 -244.20676727 0 32361
0.17350000 0.17350400 8089.41836785 0 244.96632875 0 2361.92618566 0 99.23283238 0 -195.09104161 0 32508
0.17450000 0.17449800 7799.43418085 0 214.44878709 0 2312.62112325 0 75.71676459 0 -49.80674945 0 32791
0.17550000 0.17549800 7785.58270250 0 127.29630398 0 2080.56733970 0 166.71378033 0 17.69291072 0 33633
0.17650000 0.17650100 7674.37227203 0 -76.95376472 0 1948.55201088 0 199.99497427 0 -135.16097629 0 33984
0.17750000 0.17750300 7795.06061255 0 -89.35421490 0 1842.72273027 0 218.24880897 0 67.92218009 0 34069
