### header ###
fiducial parameters:
Omega_m = 0.31
Omega_nu = 0
Omega_de = 0.69
Omega_k = 0
H_0 = 100
w_de = -1
zeff = 0
beta = 0
fgrowth = 0
b_1 = 2
gamma = 0.55
Lx = 3500 Ly = 3500 Lz = 3500
nx = 700 ny = 700 nz = 700
xoffset = -685.467585 yoffset = -31.7331281 zoffset = 572.489161
bins = 400 dk = 0.001
kx_ny = 0.628318531 ky_ny = 0.628318531 kz_ny = 0.628318531
############################
A(data) = 8.04217812 (not used)
A(ran) = 8.03213001 (used)
Ngal = 477069
weighted Ngal = 0
Nran = 23820508
weighted Nran = 0
SN(data) = 3497.55383
SN(ran) = 69.9627654
SN(data+ran) = 3567.5166
############################
13 columns: k_central k_mean P_0(k) sigma^{lin}_{P_0(k)} P^img_1(k) sigma^{lin}_{P_1(k)} P_2(k) sigma^{lin}_{P_2(k)} P^img_3(k) sigma^{lin}_{P_3(k)} P_4(k) sigma^{lin}_{P_4(k)} N_modes
### header ###
0.00050000 0 0 0 0 0 0 0 0 0 0 0 0
0.00150000 0.00179520 17336.82475454 0 -12226.17178800 0 11179.94781588 0 7854.30862265 0 -37531.30582152 0 3
0.00250000 0.00253879 23835.06146736 0 -900.08700023 0 17230.53043628 0 -22555.32216482 0 -26101.56635773 0 6
0.00350000 0.00331552 33010.69704457 0 -6528.81847396 0 -8001.54839809 0 26045.87256389 0 41350.26137472 0 7
0.00450000 0.00420575 28092.81325312 0 -2070.70189828 0 4269.39987147 0 13393.30554713 0 6993.16963221 0 24
0.00550000 0.00557378 54354.48542773 0 -13016.62505680 0 15220.68203520 0 5568.28322362 0 -16206.22966731 0 45
0.00650000 0.00659388 50640.49551381 0 -18134.58575772 0 30016.74041361 0 19220.00575970 0 -7245.93973549 0 40
0.00750000 0.00754703 66433.61674213 0 9006.19579051 0 -3911.60876728 0 14691.97852511 0 8582.42470273 0 57
0.00850000 0.00846663 60444.04263149 0 8443.05735024 0 -1421.53149417 0 15757.24689591 0 16383.82975740 0 75
0.00950000 0.00948925 57481.53140301 0 -6708.27871463 0 -13032.90137428 0 -279.57730890 0 -14639.27425897 0 112
0.01050000 0.01054430 67050.89885077 0 -5929.61747175 0 -28703.23052037 0 15112.28397523 0 55.58838531 0 105
0.01150000 0.01145670 65188.64453952 0 -9889.74516639 0 -14147.44159053 0 -11568.91858676 0 -29148.11653158 0 144
0.01250000 0.01249090 69151.87248511 0 4423.86987502 0 -10991.16467773 0 -23822.10684732 0 -21804.17564912 0 169
0.01350000 0.01339930 73710.34861295 0 1065.14768246 0 -727.77615970 0 -15163.65956238 0 -31034.61923418 0 180
0.01450000 0.01448870 70141.84904715 0 2402.58376240 0 4350.48250612 0 -17188.12343223 0 -4737.11701646 0 267
0.01550000 0.01550050 77605.37103765 0 -2752.75710711 0 8573.33432405 0 -8314.38586352 0 13832.43394944 0 238
0.01650000 0.01653350 85697.02601512 0 -13322.77483804 0 22510.36852605 0 21029.44508156 0 -19811.60007476 0 315
0.01750000 0.01747870 80287.53100172 0 -1550.75659713 0 26169.10753913 0 6044.41533547 0 -502.87841968 0 297
0.01850000 0.01844180 90829.04856856 0 8283.41657100 0 27736.50584045 0 15789.68880763 0 -13818.15065042 0 388
0.01950000 0.01947590 77988.47347638 0 5522.32200330 0 10016.21326047 0 10719.19516321 0 25665.75965287 0 399
0.02050000 0.02045430 75465.75498970 0 5358.34087274 0 10986.17105923 0 5489.64757276 0 14430.78238264 0 462
0.02150000 0.02154770 71203.24210426 0 3073.21233201 0 15826.33820278 0 -1560.54453226 0 9001.04715947 0 571
0.02250000 0.02255340 68104.76272701 0 2723.45973564 0 13431.61579100 0 745.36786937 0 17536.79094076 0 510
0.02350000 0.02348930 69105.59016737 0 -2141.47619852 0 15285.78730513 0 -3682.98740443 0 22517.01192094 0 555
0.02450000 0.02439640 70308.70898216 0 -3796.96591611 0 19872.49786126 0 -2941.97206594 0 10112.94109009 0 592
0.02550000 0.02547300 73440.40533387 0 4436.96843528 0 33382.72715847 0 -5049.93233724 0 8620.94532077 0 837
0.02650000 0.02652900 68173.07897114 0 9610.40148354 0 31933.91345595 0 -8981.34949362 0 16254.39428027 0 723
0.02750000 0.02749970 62021.84891814 0 6572.70916955 0 44571.42211096 0 -4260.27627582 0 19750.37011851 0 826
0.02850000 0.02848090 58004.92019719 0 3718.45206082 0 43869.87961045 0 4543.86065908 0 23788.33625662 0 831
0.02950000 0.02946900 59317.65502769 0 1438.45000649 0 47380.47091745 0 12381.18433546 0 17232.96634774 0 996
0.03050000 0.03053250 55554.50399157 0 -1509.98829714 0 38167.52160560 0 16517.36199471 0 18567.07076514 0 1041
0.03150000 0.03150510 57496.47904151 0 -716.08046300 0 38577.08690065 0 13645.09021351 0 12200.70544091 0 1036
0.03250000 0.03246190 56138.56912576 0 424.41438986 0 32302.06825617 0 7472.42413966 0 14280.86310459 0 1059
0.03350000 0.03345080 55800.30960255 0 2815.27145304 0 30289.34105064 0 2824.60542286 0 20759.28035598 0 1302
0.03450000 0.03451200 50454.03756386 0 1265.25670168 0 22819.17566524 0 1252.66746836 0 14205.23912608 0 1339
0.03550000 0.03553350 51988.88323022 0 1293.15896022 0 23837.49737882 0 4450.58739480 0 8181.91656939 0 1365
0.03650000 0.03647120 50923.72558267 0 -801.15356351 0 18031.72386016 0 -1480.83486590 0 4416.11924764 0 1308
0.03750000 0.03744890 50683.34541086 0 1433.43424335 0 16671.82092593 0 531.96763145 0 -7595.54839164 0 1579
0.03850000 0.03847530 49574.34135702 0 464.30465448 0 16114.99371080 0 -2055.33351144 0 -2677.25492417 0 1662
0.03950000 0.03950240 48208.57009064 0 2082.30569469 0 13710.52765319 0 -352.36677226 0 -12439.86765700 0 1683
0.04050000 0.04050350 47407.93028301 0 1904.99348505 0 18675.80099486 0 -4865.09094671 0 -8641.47341099 0 1822
0.04150000 0.04152450 44812.68806876 0 1601.77786989 0 14682.67777226 0 1500.84255684 0 -6005.38539049 0 1887
0.04250000 0.04250150 48374.43351642 0 -16.73581896 0 23447.75154520 0 -1382.15830711 0 -4451.83856751 0 1920
0.04350000 0.04349210 45150.06180599 0 393.03874302 0 20060.83810642 0 286.32146195 0 -3437.28144438 0 2005
0.04450000 0.04448520 47120.16056097 0 1400.93697000 0 25448.96353292 0 2636.82986626 0 -3515.14203250 0 2151
0.04550000 0.04548030 44046.15102157 0 2185.71013618 0 21678.72620892 0 1748.39759514 0 -3581.18845004 0 2274
0.04650000 0.04648670 42037.29912972 0 2241.30427909 0 20769.68834131 0 3499.12037849 0 -357.42239577 0 2311
0.04750000 0.04749250 40281.89275297 0 2826.80881550 0 19773.17910763 0 3359.09975883 0 -2242.51116249 0 2568
0.04850000 0.04851840 37592.53577777 0 573.85202177 0 15273.16485484 0 5378.23784043 0 1088.61215322 0 2493
0.04950000 0.04949480 37155.84328692 0 -965.56208581 0 14825.40003917 0 5165.32810650 0 -263.01864714 0 2644
0.05050000 0.05050630 38208.59993068 0 -909.50954865 0 11029.67422344 0 3104.51379428 0 -2715.26621528 0 2829
0.05150000 0.05149060 38912.57834265 0 341.26123047 0 14152.75630644 0 71.59276649 0 -1487.64434566 0 2784
0.05250000 0.05249300 37074.01880651 0 2525.07689187 0 13846.16363221 0 -2799.10585880 0 2191.43452811 0 3055
0.05350000 0.05348950 35458.12372248 0 2145.55081406 0 13034.34077651 0 -915.10550161 0 3295.71069924 0 3009
0.05450000 0.05448610 35351.49723448 0 -291.90966429 0 16137.47053018 0 2190.01727053 0 2891.69263894 0 3336
0.05550000 0.05550870 34958.65114991 0 -183.04988837 0 14553.24229513 0 3205.40481802 0 3212.40252731 0 3349
0.05650000 0.05647670 35505.84544245 0 671.35602136 0 11874.51475176 0 3317.66711936 0 1826.93359508 0 3324
0.05750000 0.05747970 34619.83801046 0 381.71175473 0 10392.04118179 0 1871.09002645 0 2977.80210905 0 3639
0.05850000 0.05849280 33576.93573579 0 537.99429785 0 7577.71087636 0 1205.66544950 0 3671.49433126 0 3846
0.05950000 0.05951020 33602.40208288 0 213.40466686 0 9592.37573874 0 -142.16200728 0 836.26279828 0 3787
0.06050000 0.06049470 33287.50516503 0 1252.46816651 0 9698.16073005 0 -1885.58369964 0 696.88769516 0 3930
0.06150000 0.06148310 31002.73093871 0 2028.46097910 0 10839.15273029 0 -3620.01909318 0 -78.84613576 0 4083
0.06250000 0.06249100 31115.33648211 0 798.30797603 0 12104.26549174 0 -1355.54043825 0 -107.29724944 0 4303
0.06350000 0.06350600 30840.63210336 0 -341.55575431 0 11313.36932995 0 -192.19895036 0 3467.04385349 0 4470
0.06450000 0.06451750 31674.59960870 0 -941.08781903 0 12327.81572983 0 3145.64748098 0 -491.30784025 0 4479
0.06550000 0.06550280 31375.09322236 0 -295.07302749 0 10304.48123712 0 2785.23223581 0 -1799.51851883 0 4636
0.06650000 0.06648880 31986.83916859 0 1220.07054409 0 12186.53286515 0 2150.15690118 0 -1465.67685322 0 4653
0.06750000 0.06749660 29370.11664420 0 1994.31392936 0 9311.42656879 0 -1800.23821994 0 154.76231292 0 5220
0.06850000 0.06852730 27961.16331102 0 2050.56133944 0 10931.36305138 0 370.69700600 0 2572.82075648 0 5029
0.06950000 0.06949320 26960.55731716 0 -17.81902450 0 8673.90425038 0 287.84944278 0 1910.42999653 0 5040
0.07050000 0.07048030 28007.44562877 0 -663.29315442 0 10211.25226215 0 2351.87251473 0 290.97405284 0 5475
0.07150000 0.07148790 27628.21850373 0 -386.71533831 0 9055.93267360 0 93.12312355 0 1130.51758096 0 5509
0.07250000 0.07249820 27976.99673551 0 1004.76586630 0 9666.49388107 0 81.98702214 0 -594.52848114 0 5916
0.07350000 0.07351270 27111.03021145 0 973.58730684 0 9288.70615826 0 -1200.70504798 0 981.59481215 0 5721
0.07450000 0.07449140 26370.95602057 0 608.01346553 0 9374.77133908 0 477.38882072 0 29.47895760 0 6028
0.07550000 0.07549160 26004.24062258 0 413.67534201 0 10296.73060975 0 128.47439934 0 -99.67716478 0 6183
0.07650000 0.07648840 25657.89830225 0 764.97142047 0 10396.25973754 0 717.55972559 0 -1676.50499009 0 6330
0.07750000 0.07749960 24615.10675083 0 785.80289238 0 9863.88021561 0 1114.60665019 0 65.40820874 0 6583
0.07850000 0.07848650 24294.34150083 0 360.11297070 0 9234.27460945 0 973.54080307 0 -122.45880526 0 6549
0.07950000 0.07947320 24317.26121321 0 -327.38096408 0 8311.70636091 0 607.16975438 0 1058.95160949 0 6828
0.08050000 0.08048110 24563.39899393 0 -459.04087126 0 8480.79183322 0 1063.17016525 0 541.58062385 0 7147
0.08150000 0.08149960 24870.54528440 0 42.27989377 0 7613.79558294 0 750.42681458 0 1071.16216930 0 7386
0.08250000 0.08250610 24620.97508298 0 254.90041858 0 6641.95548896 0 -156.52834873 0 821.13135918 0 7227
0.08350000 0.08350160 24114.63766903 0 945.83673915 0 7473.35421494 0 1190.38564125 0 1104.16655512 0 7798
0.08450000 0.08449610 23680.49181289 0 963.85473332 0 7785.95916155 0 -1342.12078057 0 -55.18900655 0 7371
0.08550000 0.08548940 22728.38260173 0 643.69846119 0 7362.44273724 0 -374.53910271 0 1441.92671648 0 8256
0.08650000 0.08650700 22474.60491689 0 815.11355064 0 8160.11516182 0 -300.75755905 0 466.84243133 0 8037
0.08750000 0.08749060 21907.81260942 0 320.33232210 0 8354.09122032 0 244.49907665 0 1197.90374980 0 8155
0.08850000 0.08849210 21608.97056257 0 169.79299386 0 8100.49069267 0 970.19253205 0 -279.95598241 0 8718
0.08950000 0.08949900 21474.66326252 0 340.08424234 0 7969.15077567 0 821.05938907 0 -164.28119057 0 8571
0.09050000 0.09049190 21057.12589361 0 179.06163697 0 7648.50732125 0 500.99723170 0 -909.04008208 0 8932
0.09150000 0.09150830 20690.52121886 0 516.85501530 0 7728.37200017 0 -18.55754857 0 179.23104354 0 9285
0.09250000 0.09250820 20321.81280240 0 1056.77811213 0 8557.73341838 0 44.78279279 0 319.97025707 0 9204
0.09350000 0.09350330 19460.60737800 0 737.69917720 0 8759.26080241 0 129.09777122 0 838.63006132 0 9349
0.09450000 0.09448040 19034.65504223 0 528.34476677 0 8008.88934945 0 797.53180606 0 2021.33040192 0 9564
0.09550000 0.09549270 18801.13971181 0 25.91123309 0 8383.35537481 0 764.11110083 0 2023.47843293 0 10155
0.09650000 0.09649430 18447.04676411 0 -3.89103639 0 7761.01321373 0 1022.72074822 0 2239.58806874 0 9913
0.09750000 0.09749140 18390.35646103 0 384.44329726 0 7496.76110961 0 1046.43988245 0 884.16056821 0 10476
0.09850000 0.09850240 17823.89632331 0 434.46806079 0 6123.25028818 0 328.29553811 0 964.28987569 0 10575
0.09950000 0.09950330 17675.08427775 0 236.55911252 0 6342.71483841 0 52.84765274 0 412.60907713 0 10882
0.10050000 0.10051200 17294.74992023 0 95.09399737 0 5826.34589817 0 -785.55819400 0 -246.74343689 0 10875
0.10150000 0.10150300 17367.38437104 0 185.28206905 0 6136.31563147 0 366.72757755 0 -388.60981309 0 11118
0.10250000 0.10250800 16990.92532721 0 167.10795509 0 5931.10116328 0 -116.33138071 0 -406.42961265 0 11575
0.10350000 0.10349800 17212.92543982 0 325.77547698 0 5945.61698112 0 880.80233209 0 -476.84295510 0 11364
0.10450000 0.10450100 16610.48024644 0 600.86849433 0 5971.96911419 0 -108.43326997 0 -143.24930957 0 12093
0.10550000 0.10551000 16416.49311561 0 484.39095893 0 6678.82633061 0 -202.06771348 0 222.96451211 0 12067
0.10650000 0.10649700 16005.04552535 0 289.78267069 0 6690.45227167 0 -350.24752929 0 508.21306578 0 12054
0.10750000 0.10749900 15900.52277907 0 288.16832573 0 7292.48778903 0 -88.88375182 0 781.65298504 0 12807
0.10850000 0.10850100 16086.42711277 0 -405.92471464 0 6936.91114981 0 470.99123144 0 1179.45725666 0 12736
0.10950000 0.10950300 16179.21319475 0 -335.23456407 0 6876.43411165 0 1306.52325628 0 751.89168316 0 12933
0.11050000 0.11050200 16447.93851810 0 97.23427775 0 6425.31438156 0 1181.87102347 0 979.76677132 0 13428
0.11150000 0.11150900 15803.52921365 0 484.07761214 0 6018.14070868 0 234.42990446 0 821.85991815 0 13453
0.11250000 0.11250000 15452.64724015 0 625.50995321 0 5584.29380531 0 515.17645086 0 1533.52805971 0 13668
0.11350000 0.11349100 15155.02314903 0 227.59828004 0 5562.00521545 0 362.26432342 0 1796.86116087 0 13791
0.11450000 0.11448600 14888.51229064 0 -24.17022074 0 5392.96403244 0 595.64678594 0 1406.47313241 0 14205
0.11550000 0.11549300 15235.62967371 0 -138.00545654 0 4922.82204832 0 724.72462698 0 1429.73608686 0 14776
0.11650000 0.11649800 15074.63807084 0 111.22482450 0 4597.40642190 0 311.45785375 0 1265.86567954 0 14553
0.11750000 0.11747300 15016.84053529 0 287.11866934 0 4241.58619153 0 471.10416915 0 1194.07272542 0 14568
0.11850000 0.11849100 14683.00994201 0 223.97762983 0 4168.06595473 0 314.57692766 0 1555.50662447 0 16015
0.11950000 0.11950300 14531.76198498 0 241.68449168 0 4233.55875603 0 349.95189822 0 1033.47308285 0 15270
0.12050000 0.12050700 14058.64154548 0 321.25907568 0 4043.60195144 0 188.51408066 0 783.90841760 0 15999
0.12150000 0.12150000 13876.05890922 0 248.84274967 0 3619.31046439 0 352.04899654 0 823.46983418 0 15670
0.12250000 0.12250700 13576.10962989 0 374.02423961 0 3347.78384287 0 -383.07586515 0 322.32423333 0 16887
0.12350000 0.12352200 13403.60280921 0 407.75829163 0 3492.77593637 0 -127.18004456 0 407.35415178 0 16407
0.12450000 0.12449800 13266.52742796 0 41.26146133 0 3539.40149618 0 -433.79264898 0 244.45035842 0 16306
0.12550000 0.12549900 13004.55622275 0 103.05422385 0 4105.90592320 0 -305.43008012 0 307.70212118 0 17523
0.12650000 0.12650100 13211.05508062 0 310.52002784 0 4250.13402629 0 -142.45542388 0 32.71860912 0 17154
0.12750000 0.12750600 12881.21052427 0 200.56630623 0 4615.00034604 0 -54.90743733 0 435.60740302 0 18007
0.12850000 0.12850300 12986.95122629 0 -77.09349746 0 4438.10888473 0 378.37898496 0 1034.49505843 0 17496
0.12950000 0.12949900 13152.48248233 0 -264.59534619 0 4636.42529456 0 211.60762854 0 651.95177211 0 18405
0.13050000 0.13049000 13559.05824967 0 -203.74184899 0 4700.61156153 0 93.83972441 0 -78.33204772 0 18100
0.13150000 0.13148800 13483.10210141 0 216.54034925 0 4601.30388024 0 -338.88843126 0 -16.67303888 0 19059
0.13250000 0.13249300 13239.17878566 0 502.20743680 0 4122.56977205 0 30.43239549 0 244.26323613 0 18957
0.13350000 0.13349100 12835.37109952 0 279.56623658 0 4139.56579065 0 182.40547906 0 -4.62083546 0 19468
0.13450000 0.13450700 12598.86624139 0 291.45791343 0 3608.10527168 0 661.54483433 0 -598.68613911 0 19953
0.13550000 0.13551000 12148.22262127 0 291.18110531 0 3608.14956098 0 465.06532320 0 -885.91996062 0 19956
0.13650000 0.13649900 11704.11167280 0 494.21100382 0 3444.93242083 0 134.15228750 0 -365.49079887 0 19723
0.13750000 0.13749600 11551.09214380 0 254.00798920 0 3215.67993546 0 210.10622129 0 -17.06998173 0 20946
0.13850000 0.13851100 11276.38776505 0 18.15351943 0 3190.45717952 0 375.31527268 0 28.75327743 0 20955
0.13950000 0.13949800 11256.23613388 0 84.54838304 0 3033.88343426 0 312.33478188 0 127.08925150 0 20506
0.14050000 0.14048300 11346.91847415 0 -146.45253314 0 2924.97604734 0 330.55650683 0 -16.33201128 0 21447
0.14150000 0.14148400 11280.48452524 0 131.96661058 0 2903.63967742 0 -15.40758288 0 -213.87081173 0 21771
0.14250000 0.14249400 11222.90843618 0 198.74158710 0 2786.15123877 0 -82.09984913 0 -124.80060196 0 22470
0.14350000 0.14350900 10933.85432446 0 168.57393090 0 2925.85076100 0 -256.28999534 0 143.59255164 0 22519
0.14450000 0.14449900 11081.18267850 0 158.46600557 0 2919.88277793 0 -114.20992327 0 269.31547826 0 22218
0.14550000 0.14550500 10863.92152091 0 201.92266602 0 3173.40579930 0 20.75119756 0 -14.24797830 0 23559
0.14650000 0.14650700 10613.00049587 0 335.74056931 0 3139.82343812 0 175.18853775 0 236.28451886 0 23044
0.14750000 0.14750500 10344.59626994 0 250.32533396 0 3045.36543509 0 347.06977207 0 67.46555742 0 23649
0.14850000 0.14849900 10221.63810283 0 215.04890709 0 3424.89151290 0 99.80981123 0 448.67606800 0 23640
0.14950000 0.14949500 9987.69095174 0 191.48810711 0 2994.95314020 0 217.86127760 0 170.50162265 0 24457
0.15050000 0.15050000 9952.64704369 0 74.88456866 0 3152.76698584 0 55.68305368 0 539.68836354 0 24591
0.15150000 0.15149900 10050.58175671 0 -32.55628883 0 3166.07592027 0 -40.37180003 0 250.41169810 0 25020
0.15250000 0.15250500 10050.23851464 0 89.66468289 0 3199.99045119 0 -153.54767889 0 147.16226916 0 25297
0.15350000 0.15350100 9926.11775342 0 153.60193328 0 3284.98161650 0 2.68399797 0 66.11174426 0 25452
0.15450000 0.15450400 9759.02529958 0 180.19655026 0 3265.94829013 0 -453.57889343 0 52.40088444 0 26061
0.15550000 0.15549900 9651.83412301 0 283.54452289 0 3632.94049625 0 -38.94192000 0 39.58079315 0 26128
0.15650000 0.15649500 9360.46589541 0 303.27208402 0 3561.75651999 0 86.59831326 0 49.64243615 0 26331
0.15750000 0.15749700 9219.03909050 0 126.79029873 0 3408.22766405 0 477.68445179 0 205.60975018 0 27345
0.15850000 0.15849900 9079.38385756 0 -9.96334291 0 3198.08601132 0 363.14235877 0 -101.24699899 0 26980
0.15950000 0.15949700 9057.51601605 0 127.74694760 0 3125.98303210 0 366.67775209 0 66.60601284 0 27777
0.16050000 0.16050000 9111.17250212 0 92.57570781 0 3064.87487143 0 287.37665451 0 203.97658227 0 28224
0.16150000 0.16150500 8853.92917961 0 -1.30103138 0 2899.48755561 0 -63.67561135 0 426.46719888 0 28075
0.16250000 0.16249700 8997.32685833 0 43.55631137 0 2942.09386151 0 -6.09854793 0 113.26102503 0 28590
0.16350000 0.16349900 9058.67861015 0 22.55786880 0 3083.48744945 0 -102.77951947 0 141.99592240 0 29163
0.16450000 0.16449100 8978.88036518 0 -46.56388696 0 2797.83254145 0 -62.01487335 0 212.48898559 0 28996
0.16550000 0.16550500 9087.88740302 0 26.67356266 0 3074.35278147 0 85.72260309 0 251.47242682 0 30777
0.16650000 0.16650700 9009.27389681 0 69.15032236 0 2855.03217146 0 81.83577418 0 74.12201765 0 29211
0.16750000 0.16749900 8969.76784186 0 214.27938052 0 2902.90890398 0 306.78090375 0 50.64747108 0 30922
0.16850000 0.16850800 8708.71563961 0 148.18203028 0 2650.69241693 0 223.79382923 0 471.98220451 0 30867
0.16950000 0.16949900 8785.38041665 0 8.99629713 0 2567.68319777 0 626.35144990 0 -91.96274391 0 30852
0.17050000 0.17049200 8703.02446465 0 -91.46615014 0 2323.40556762 0 298.07141305 0 272.30832766 0 31257
0.17150000 0.17149500 8740.38248859 0 52.49101316 0 2207.52261607 0 70.92687688 0 218.74042019 0 32608
0.17250000 0.17250900 8616.31708900 0 228.82177193 0 2104.91538197 0 54.48491741 0 274.42757063 0 32361
0.17350000 0.17350400 8511.83863201 0 185.39611400 0 2007.96610586 0 20.77898909 0 528.48206359 0 32508
0.17450000 0.17449800 8216.77224792 0 230.99526930 0 1971.94783323 0 141.67482498 0 460.43819865 0 32791
0.17550000 0.17549800 8116.83344410 0 144.43072663 0 2030.56472082 0 362.91980505 0 367.30887460 0 33633
0.17650000 0.17650100 8003.71857376 0 97.87071498 0 1875.80683683 0 106.50668545 0 305.87186588 0 33984
0.17750000 0.17750300 7915.87074865 0 41.31139751 0 1947.13475331 0 42.32639753 0 528.18975422 0 34069
0.17850000 0.17849800 7956.84942280 0 -23.14425912 0 1831.45110360 0 -5.71562265 0 704.09024245 0 34536
