### header ###
fiducial parameters:
Omega_m = 0.31
Omega_nu = 0
Omega_de = 0.69
Omega_k = 0
H_0 = 100
w_de = -1
zeff = 0
beta = 0
fgrowth = 0
b_1 = 2
gamma = 0.55
Lx = 3500 Ly = 3500 Lz = 3500
nx = 700 ny = 700 nz = 700
xoffset = -685.467585 yoffset = -31.7331281 zoffset = 572.489161
bins = 400 dk = 0.001
kx_ny = 0.628318531 ky_ny = 0.628318531 kz_ny = 0.628318531
############################
A(data) = 8.0341523 (not used)
A(ran) = 8.03067194 (used)
Ngal = 477224
weighted Ngal = 0
Nran = 23820508
weighted Nran = 0
SN(data) = 3488.41245
SN(ran) = 69.9500651
SN(data+ran) = 3558.36251
############################
13 columns: k_central k_mean P_0(k) sigma^{lin}_{P_0(k)} P^img_1(k) sigma^{lin}_{P_1(k)} P_2(k) sigma^{lin}_{P_2(k)} P^img_3(k) sigma^{lin}_{P_3(k)} P_4(k) sigma^{lin}_{P_4(k)} N_modes
### header ###
0.00050000 0 0 0 0 0 0 0 0 0 0 0 0
0.00150000 0.00179520 83610.77857279 0 -46640.39672658 0 96618.76721623 0 20712.33369875 0 -171693.00480034 0 3
0.00250000 0.00253879 127760.23438491 0 -17508.77795897 0 34880.70198319 0 15724.80498419 0 139697.30777190 0 6
0.00350000 0.00331552 97276.90620345 0 20165.47157596 0 -18666.94313500 0 6139.69269054 0 85733.34324052 0 7
0.00450000 0.00420575 53149.37359447 0 34401.82393478 0 -40436.35168419 0 -10161.05034142 0 17321.98783928 0 24
0.00550000 0.00557378 47571.68996707 0 -15514.20936614 0 -34730.11836566 0 12790.52818400 0 -10735.22788954 0 45
0.00650000 0.00659388 63394.59574916 0 -28137.98833838 0 -42237.59748569 0 -22572.37354504 0 19075.62264406 0 40
0.00750000 0.00754703 59489.82967862 0 2268.89651254 0 -28706.77366431 0 -31831.49445138 0 34819.02913395 0 57
0.00850000 0.00846663 67318.62766489 0 13519.75149656 0 -7669.89905280 0 -29475.96806946 0 60422.45159809 0 75
0.00950000 0.00948925 65290.73137435 0 -6022.74679580 0 11094.46946828 0 4313.43450728 0 42282.21895471 0 112
0.01050000 0.01054430 65509.18834302 0 638.69819930 0 10429.06703598 0 25984.97477739 0 26487.54760091 0 105
0.01150000 0.01145670 80171.93593061 0 -9587.99109811 0 33269.67872208 0 392.50616419 0 15003.99663850 0 144
0.01250000 0.01249090 84333.91210669 0 -2994.04520956 0 19959.63705758 0 545.17802219 0 11815.27781398 0 169
0.01350000 0.01339930 88902.02115712 0 639.85082832 0 47572.24358331 0 -22869.22257342 0 13768.76808173 0 180
0.01450000 0.01448870 86467.21692950 0 6579.15326259 0 37203.34356040 0 -2684.77303273 0 13076.63705732 0 267
0.01550000 0.01550050 88545.82446771 0 3872.98849831 0 52941.87822736 0 6054.79010383 0 35960.14292976 0 238
0.01650000 0.01653350 82251.87214780 0 -5274.19120411 0 37212.86575974 0 15136.75381308 0 15077.84904504 0 315
0.01750000 0.01747870 91845.93087990 0 1213.07283481 0 58245.30036900 0 21735.85940499 0 13285.46110340 0 297
0.01850000 0.01844180 87533.26036304 0 5037.40953787 0 46975.22382909 0 18204.23068083 0 23055.56980012 0 388
0.01950000 0.01947590 74974.25449100 0 6674.84029367 0 36516.85942164 0 13657.71266380 0 34446.55612705 0 399
0.02050000 0.02045430 75758.61798115 0 4676.17494066 0 35137.46919573 0 9143.96872823 0 27494.02192693 0 462
0.02150000 0.02154770 75450.69662794 0 -1066.64908971 0 28306.50912212 0 7143.49858627 0 28067.45762928 0 571
0.02250000 0.02255340 73177.88051242 0 4871.38002721 0 26527.62941675 0 5276.85963440 0 20404.19089905 0 510
0.02350000 0.02348930 69380.51599262 0 7099.07641910 0 15372.59433171 0 1219.09617951 0 15161.44509742 0 555
0.02450000 0.02439640 64150.94625752 0 3608.89140674 0 14405.86965180 0 -783.59949974 0 12208.78823803 0 592
0.02550000 0.02547300 60125.60256970 0 296.88224536 0 12903.24445066 0 5238.43866727 0 1805.88510560 0 837
0.02650000 0.02652900 60377.49795933 0 1289.44973141 0 16793.61649894 0 1926.13055313 0 -5450.21902408 0 723
0.02750000 0.02749970 58863.80043337 0 765.45417383 0 15208.94537089 0 -2249.96283710 0 -4272.73264124 0 826
0.02850000 0.02848090 58547.57483655 0 406.62780727 0 18468.96996725 0 -3684.40466200 0 -1521.72496145 0 831
0.02950000 0.02946900 59980.99800757 0 418.23824707 0 12421.48759780 0 -1817.56640828 0 1173.85466030 0 996
0.03050000 0.03053250 58545.47109483 0 -68.75747628 0 18195.37282098 0 4502.85984027 0 2985.57488107 0 1041
0.03150000 0.03150510 62297.21763638 0 -156.41319655 0 16412.17490893 0 10928.14100486 0 5724.07083382 0 1036
0.03250000 0.03246190 59042.06486295 0 402.31513675 0 14618.34756507 0 -446.92110451 0 -4575.51643573 0 1059
0.03350000 0.03345080 59164.30332895 0 3975.89468518 0 17756.57658841 0 1445.79095784 0 6631.70251618 0 1302
0.03450000 0.03451200 55813.37494583 0 4196.83185461 0 17773.18507564 0 -1784.55980800 0 3508.78651805 0 1339
0.03550000 0.03553350 52124.51920925 0 2194.90016577 0 21393.61384484 0 172.87552909 0 12573.73206405 0 1365
0.03650000 0.03647120 51982.01838884 0 1124.09563256 0 25374.33606364 0 -1069.81798907 0 6676.78902284 0 1308
0.03750000 0.03744890 48354.17116201 0 4738.20210429 0 23331.71358110 0 753.60457181 0 2286.09183298 0 1579
0.03850000 0.03847530 46879.11604967 0 2246.59685035 0 22153.50749715 0 -1420.14745356 0 -1169.71361082 0 1662
0.03950000 0.03950240 43429.42252917 0 325.96259927 0 19268.61326565 0 2980.88021535 0 6977.49122027 0 1683
0.04050000 0.04050350 44267.37607144 0 -133.64628226 0 17451.09114667 0 1142.25424527 0 -4954.24530615 0 1822
0.04150000 0.04152450 46485.82707211 0 -55.92055505 0 15460.61931402 0 311.03821264 0 -9315.60083524 0 1887
0.04250000 0.04250150 42570.98518598 0 2033.29958505 0 15129.77824844 0 -1415.17597972 0 -5440.24285942 0 1920
0.04350000 0.04349210 41136.89767547 0 2285.98110973 0 13701.11617709 0 1576.32259513 0 -3616.25450274 0 2005
0.04450000 0.04448520 42240.80845989 0 -1376.30104728 0 15062.23706705 0 2558.58174677 0 -2304.31687963 0 2151
0.04550000 0.04548030 44071.17447566 0 -1949.54852012 0 16895.92478026 0 5056.05533286 0 -4680.78102778 0 2274
0.04650000 0.04648670 44062.87023204 0 1311.14041572 0 14060.74528720 0 -919.93303523 0 -2427.72901206 0 2311
0.04750000 0.04749250 41911.73896628 0 2280.84355102 0 16736.70474937 0 -345.37792084 0 -1739.48437366 0 2568
0.04850000 0.04851840 41784.62867736 0 1100.08751066 0 15038.54229193 0 -1463.90528125 0 -590.76056900 0 2493
0.04950000 0.04949480 39439.73172727 0 -85.44967028 0 16780.55115565 0 2293.06739762 0 -2370.59581600 0 2644
0.05050000 0.05050630 37905.32895390 0 2407.21199417 0 12221.41068833 0 338.76552845 0 -2910.21663836 0 2829
0.05150000 0.05149060 36539.22551777 0 1359.93615120 0 11239.51692341 0 4228.19975082 0 -4882.15339926 0 2784
0.05250000 0.05249300 34521.40504282 0 573.63611144 0 9277.62276112 0 2078.35287473 0 -1667.19316492 0 3055
0.05350000 0.05348950 33546.92973553 0 457.19290025 0 8323.77519496 0 909.01461573 0 -4238.38628965 0 3009
0.05450000 0.05448610 34441.79502738 0 24.99909498 0 8787.29592885 0 1352.83879099 0 -2893.50850021 0 3336
0.05550000 0.05550870 34907.82917899 0 -1111.69462877 0 9548.58469408 0 428.91861159 0 -813.59221321 0 3349
0.05650000 0.05647670 35141.23378617 0 -128.04590037 0 8349.31904832 0 -685.50091631 0 -3808.51435090 0 3324
0.05750000 0.05747970 35138.90859796 0 1512.40206395 0 9400.86880867 0 441.31407923 0 -3412.06976076 0 3639
0.05850000 0.05849280 33927.92843254 0 1174.80688023 0 8845.31491090 0 -2136.32756748 0 -2305.50161839 0 3846
0.05950000 0.05951020 33273.55403576 0 564.23570767 0 8670.75971013 0 288.24472477 0 -2189.14255687 0 3787
0.06050000 0.06049470 33270.34306156 0 686.59375477 0 9326.28562869 0 584.98524438 0 -2949.64518704 0 3930
0.06150000 0.06148310 32031.34991436 0 785.36664278 0 9040.11032143 0 1092.15529716 0 -240.92160850 0 4083
0.06250000 0.06249100 31476.29427120 0 620.88393590 0 10478.11743493 0 925.09273860 0 1122.66730266 0 4303
0.06350000 0.06350600 31734.05799298 0 107.37852031 0 11107.31336507 0 1651.00542603 0 1848.35854360 0 4470
0.06450000 0.06451750 30929.43214841 0 763.58295093 0 11709.75855846 0 655.04870136 0 3564.91213256 0 4479
0.06550000 0.06550280 31074.25815703 0 957.19030101 0 12786.43142382 0 443.43553666 0 3199.91294491 0 4636
0.06650000 0.06648880 30280.26174429 0 447.59540910 0 12079.68493065 0 -1075.85129886 0 4054.41961279 0 4653
0.06750000 0.06749660 30842.07150559 0 -111.84487469 0 12356.82522086 0 376.88865004 0 3919.95730019 0 5220
0.06850000 0.06852730 29612.15766473 0 382.05056787 0 11070.11035368 0 1033.19184580 0 1681.37681301 0 5029
0.06950000 0.06949320 30140.41828183 0 540.36377536 0 10848.53098941 0 -137.17060325 0 240.78431167 0 5040
0.07050000 0.07048030 29119.32848705 0 1348.25484852 0 10329.07287055 0 66.98767588 0 -850.83951390 0 5475
0.07150000 0.07148790 27706.83200994 0 1428.40740788 0 9857.55791814 0 -761.81580789 0 228.73540780 0 5509
0.07250000 0.07249820 26785.83603152 0 403.82208016 0 10449.77228339 0 2577.05038457 0 1231.10965194 0 5916
0.07350000 0.07351270 26820.60313146 0 -697.52324660 0 9160.46649221 0 2137.12477487 0 109.92316200 0 5721
0.07450000 0.07449140 27571.86037040 0 -618.26976001 0 9371.58250953 0 2032.42487139 0 -949.34777335 0 6028
0.07550000 0.07549160 27587.25090190 0 315.14604515 0 9392.99638573 0 257.69175167 0 64.30928050 0 6183
0.07650000 0.07648840 26868.65702117 0 1151.43320254 0 8437.07829483 0 -1265.77710094 0 2731.31001394 0 6330
0.07750000 0.07749960 26441.15455992 0 797.36129226 0 9970.17453387 0 407.13934867 0 3450.54608951 0 6583
0.07850000 0.07848650 25548.06084005 0 663.78365841 0 9360.67626958 0 1322.61134424 0 4942.59722045 0 6549
0.07950000 0.07947320 25360.82782736 0 94.19879990 0 8412.17663632 0 2969.29856359 0 2629.82108465 0 6828
0.08050000 0.08048110 24956.24507849 0 315.25455393 0 7361.00333501 0 860.02843627 0 3545.35840693 0 7147
0.08150000 0.08149960 24627.17558488 0 956.54478448 0 8320.56422077 0 795.63733128 0 3121.96377819 0 7386
0.08250000 0.08250610 23394.27221633 0 989.91012809 0 7356.22009069 0 -1569.18094562 0 3895.35459445 0 7227
0.08350000 0.08350160 23315.32654037 0 250.23454090 0 7955.77540729 0 -482.46548165 0 4319.76787707 0 7798
0.08450000 0.08449610 23059.44511381 0 371.20522571 0 8218.17843317 0 -797.47755167 0 2875.96993769 0 7371
0.08550000 0.08548940 22095.59923835 0 714.87025789 0 8544.25839908 0 -91.68217120 0 2458.05610974 0 8256
0.08650000 0.08650700 21767.96914696 0 881.74901586 0 8730.28452836 0 -825.27683759 0 1180.46483822 0 8037
0.08750000 0.08749060 21151.12993132 0 524.72965271 0 8994.02730554 0 470.69449313 0 1612.73947146 0 8155
0.08850000 0.08849210 20581.56954264 0 207.96483367 0 9039.29096940 0 562.40545237 0 229.35435076 0 8718
0.08950000 0.08949900 20874.54325735 0 -34.03699083 0 8142.87555208 0 1060.79404434 0 -230.04083490 0 8571
0.09050000 0.09049190 20335.54248517 0 292.60943521 0 7800.53034101 0 549.08876731 0 911.19697095 0 8932
0.09150000 0.09150830 20720.74866561 0 328.69192733 0 8036.45943825 0 274.10868768 0 881.83427276 0 9285
0.09250000 0.09250820 20163.14638775 0 162.94033203 0 8315.01698603 0 130.17178673 0 1357.23450394 0 9204
0.09350000 0.09350330 20007.80167054 0 711.54191705 0 8041.72986486 0 -460.59874736 0 451.45189983 0 9349
0.09450000 0.09448040 19708.95962369 0 640.40112286 0 9374.99278557 0 -122.48427161 0 1327.41673321 0 9564
0.09550000 0.09549270 19079.16578800 0 575.71881574 0 9118.90098484 0 -167.69700277 0 1636.56711447 0 10155
0.09650000 0.09649430 18845.98262732 0 506.68840665 0 9704.54946147 0 331.96379932 0 1918.05882833 0 9913
0.09750000 0.09749140 18424.45922148 0 -41.83367908 0 9106.64392127 0 769.88753269 0 1730.31648871 0 10476
0.09850000 0.09850240 18852.73674546 0 -138.23576090 0 9932.35147229 0 945.52892852 0 558.37623337 0 10575
0.09950000 0.09950330 18354.81429837 0 15.84361103 0 8720.62946111 0 657.96736619 0 947.40236587 0 10882
0.10050000 0.10051200 18252.72746354 0 992.42576029 0 8344.25899588 0 -46.34554072 0 -122.58613700 0 10875
0.10150000 0.10150300 17753.58706071 0 495.66480006 0 8022.65224920 0 -473.45703818 0 373.88472831 0 11118
0.10250000 0.10250800 17271.16586837 0 237.00532721 0 7883.40669228 0 -89.42917454 0 -685.15213808 0 11575
0.10350000 0.10349800 16977.08492118 0 413.66426969 0 7908.99483493 0 -165.88003427 0 -882.22291137 0 11364
0.10450000 0.10450100 16713.45286725 0 120.21112332 0 7547.01839196 0 365.82075415 0 -1286.33840813 0 12093
0.10550000 0.10551000 16614.46628337 0 -9.75827238 0 7131.14187177 0 1113.58799631 0 -1425.24072298 0 12067
0.10650000 0.10649700 16520.01935267 0 -0.62670909 0 6590.52454018 0 1375.26024875 0 -1664.43615604 0 12054
0.10750000 0.10749900 16341.97636958 0 158.43943199 0 5774.64921359 0 1747.82183425 0 -977.88779780 0 12807
0.10850000 0.10850100 15928.09286786 0 314.68543644 0 5039.56864121 0 1052.34807497 0 -970.20581884 0 12736
0.10950000 0.10950300 15535.68967629 0 403.87633455 0 4381.29678609 0 697.87423930 0 16.95516172 0 12933
0.11050000 0.11050200 15380.89857533 0 427.45152855 0 4355.39861834 0 225.04832364 0 304.80449377 0 13428
0.11150000 0.11150900 14960.92529495 0 123.48742424 0 4063.73143797 0 494.89416626 0 559.61633375 0 13453
0.11250000 0.11250000 15133.21066913 0 50.40221908 0 4268.64695338 0 -336.26096858 0 492.39071362 0 13668
0.11350000 0.11349100 15213.15285432 0 -202.34119990 0 4477.19419134 0 205.61971528 0 1035.59896922 0 13791
0.11450000 0.11448600 15387.76341671 0 -194.53299644 0 4976.92142738 0 -21.85532979 0 888.26507902 0 14205
0.11550000 0.11549300 15598.91265101 0 157.47946143 0 5528.64430077 0 -47.97915152 0 1860.61560717 0 14776
0.11650000 0.11649800 15337.16289229 0 380.03983368 0 5616.02708824 0 -65.36635535 0 1379.56738310 0 14553
0.11750000 0.11747300 15041.19964989 0 645.91403339 0 5388.38008997 0 414.07283848 0 2395.57498079 0 14568
0.11850000 0.11849100 14817.76013505 0 189.82836562 0 5121.59242346 0 280.70336434 0 1748.69654791 0 16015
0.11950000 0.11950300 14542.61286331 0 10.19552956 0 5255.13573310 0 122.83969324 0 1439.03683971 0 15270
0.12050000 0.12050700 14507.51359363 0 374.53024485 0 5300.52119253 0 24.05440422 0 1215.01049165 0 15999
0.12150000 0.12150000 14135.70492622 0 226.01604483 0 4807.93560600 0 71.34530003 0 790.21521382 0 15670
0.12250000 0.12250700 13883.80953660 0 108.74074843 0 4676.44067645 0 32.37636356 0 645.56636239 0 16887
0.12350000 0.12352200 14005.38366311 0 124.87589377 0 4660.67368591 0 172.49574835 0 208.72550239 0 16407
0.12450000 0.12449800 13709.30969746 0 102.73821970 0 4359.32929365 0 502.55621503 0 132.79260601 0 16306
0.12550000 0.12549900 13776.07581611 0 62.61189311 0 4603.36333265 0 265.20100236 0 374.45495304 0 17523
0.12650000 0.12650100 13557.50812419 0 162.51294029 0 4108.64078743 0 151.35646581 0 630.05403532 0 17154
0.12750000 0.12750600 13458.41081706 0 462.00603985 0 4512.10523150 0 358.39786759 0 710.53544273 0 18007
0.12850000 0.12850300 12934.24696015 0 380.56466188 0 4099.14073274 0 108.93573207 0 1094.51038065 0 17496
0.12950000 0.12949900 12774.80548276 0 260.29596246 0 4004.52771716 0 274.49179011 0 773.60451213 0 18405
0.13050000 0.13049000 12520.69562817 0 131.76841597 0 4103.99041101 0 181.23956326 0 787.74940708 0 18100
0.13150000 0.13148800 12524.34949536 0 80.19463420 0 4095.13255115 0 55.34213680 0 742.25876057 0 19059
0.13250000 0.13249300 12443.18935444 0 -229.29234574 0 3665.22739542 0 390.41017311 0 595.47627214 0 18957
0.13350000 0.13349100 12839.35713645 0 -129.38343720 0 3779.08411153 0 329.94974343 0 557.69749986 0 19468
0.13450000 0.13450700 12686.66977720 0 210.73845104 0 3585.37378883 0 -170.93565778 0 613.64042101 0 19953
0.13550000 0.13551000 12429.23822517 0 344.47220467 0 3941.69227381 0 148.48319752 0 26.47104984 0 19956
0.13650000 0.13649900 12055.43653929 0 518.70520078 0 3549.35551619 0 -271.55319511 0 302.76718600 0 19723
0.13750000 0.13749600 11705.55107502 0 255.20047858 0 3575.95124040 0 424.47750211 0 224.93649316 0 20946
0.13850000 0.13851100 11632.36300797 0 73.81752872 0 3312.25275252 0 -50.96657548 0 -20.84010833 0 20955
0.13950000 0.13949800 11588.62732494 0 1.29800864 0 3157.35092831 0 398.54833185 0 -219.43686942 0 20506
0.14050000 0.14048300 11568.36497052 0 31.71445998 0 2885.22640124 0 170.77843077 0 -479.04413328 0 21447
0.14150000 0.14148400 11402.16937499 0 70.99574674 0 2857.83346964 0 246.55299290 0 -149.38448476 0 21771
0.14250000 0.14249400 11242.06355812 0 268.70539316 0 2956.13356938 0 -26.88637274 0 -70.30272993 0 22470
0.14350000 0.14350900 11236.19522596 0 313.45751562 0 3142.84618280 0 -19.10429997 0 231.03180797 0 22519
0.14450000 0.14449900 10917.01331842 0 212.19335452 0 3250.00414239 0 -180.15004650 0 598.41708161 0 22218
0.14550000 0.14550500 10723.18120014 0 240.06682502 0 3478.30440783 0 -326.55386141 0 401.29426840 0 23559
0.14650000 0.14650700 10773.51598877 0 194.06020817 0 3785.09638390 0 28.67554971 0 414.02079855 0 23044
0.14750000 0.14750500 10507.75804847 0 175.39116129 0 3390.37907644 0 74.39340033 0 375.18129755 0 23649
0.14850000 0.14849900 10495.09130888 0 38.27525533 0 3502.43100361 0 112.83584776 0 161.27283991 0 23640
0.14950000 0.14949500 10301.54707105 0 63.30435630 0 3243.26109658 0 483.27486859 0 -212.70821763 0 24457
0.15050000 0.15050000 10334.68653923 0 192.54551413 0 3111.50043124 0 171.91666576 0 -122.24953832 0 24591
0.15150000 0.15149900 10096.11115636 0 199.94957774 0 2923.81345324 0 206.63394023 0 -153.35834213 0 25020
0.15250000 0.15250500 9852.80789080 0 70.29420424 0 2637.15096368 0 537.46171902 0 78.06752988 0 25297
0.15350000 0.15350100 9847.81427230 0 128.13226450 0 2826.41021181 0 253.35250757 0 -107.27964444 0 25452
0.15450000 0.15450400 9707.58327847 0 126.97631379 0 2591.90944447 0 261.41426727 0 93.44887134 0 26061
0.15550000 0.15549900 9562.38081080 0 250.94538415 0 2529.68297899 0 -76.33692551 0 180.27405653 0 26128
0.15650000 0.15649500 9320.37300724 0 290.59870103 0 2445.50009340 0 -175.34576476 0 298.10020109 0 26331
0.15750000 0.15749700 9263.46125767 0 124.87589377 0 2811.28541610 0 -260.55616210 0 274.78742119 0 27345
0.15850000 0.15849900 9143.08294225 0 44.03552159 0 2653.85910183 0 -107.55744907 0 65.04027539 0 26980
0.15950000 0.15949700 9168.91467605 0 -5.13915313 0 2635.27974079 0 195.26376987 0 -41.94152352 0 27777
0.16050000 0.16050000 9126.00941738 0 -73.09284506 0 2570.50664060 0 370.88634275 0 95.71493334 0 28224
0.16150000 0.16150500 9294.37518857 0 -24.07167705 0 2603.39144531 0 351.21525048 0 43.34804094 0 28075
0.16250000 0.16249700 9174.12974104 0 70.32122071 0 2434.06238186 0 251.88763900 0 18.73138407 0 28590
0.16350000 0.16349900 9143.09401457 0 247.59489866 0 2572.38893582 0 56.37739917 0 123.79966380 0 29163
0.16450000 0.16449100 8829.07181039 0 210.38524388 0 2458.89760643 0 -248.72095410 0 418.93469630 0 28996
0.16550000 0.16550500 8765.18449618 0 207.51197559 0 2625.46966100 0 6.08216089 0 356.23101362 0 30777
0.16650000 0.16650700 8719.72153048 0 222.69324015 0 2659.70528934 0 -255.10857829 0 468.15450182 0 29211
0.16750000 0.16749900 8494.74296249 0 154.40910576 0 2758.68080089 0 -174.32489641 0 439.95661220 0 30922
0.16850000 0.16850800 8491.62056689 0 -0.40183571 0 2811.50686260 0 119.03413520 0 150.23816100 0 30867
0.16950000 0.16949900 8445.68149122 0 -107.93091859 0 2811.80581537 0 184.95432824 0 132.40618188 0 30852
0.17050000 0.17049200 8625.90572229 0 -51.16543443 0 2865.40693982 0 174.94937553 0 -234.97798453 0 31257
0.17150000 0.17149500 8489.49468053 0 146.34180990 0 2745.19470926 0 -219.64392189 0 -21.04483561 0 32608
0.17250000 0.17250900 8423.57005856 0 262.66876167 0 2751.22912629 0 -64.46418233 0 54.91806676 0 32361
0.17350000 0.17350400 8341.35804678 0 54.60084465 0 2679.11507474 0 61.55825068 0 123.50071103 0 32508
0.17450000 0.17449800 8304.18825236 0 -63.28298671 0 2705.50042479 0 53.57034338 0 206.83102761 0 32791
0.17550000 0.17549800 8347.00493243 0 34.07685120 0 2448.17959600 0 355.57774646 0 -51.06456555 0 33633
0.17650000 0.17650100 8305.31762949 0 108.41466846 0 2461.75426623 0 121.80110917 0 -11.54278790 0 33984
0.17750000 0.17750300 8177.50978411 0 244.12483207 0 2330.56936178 0 61.09420954 0 -136.40550560 0 34069
0.17850000 0.17849800 7985.67068430 0 238.86879948 0 2564.25077708 0 -122.24068046 0 -237.73720788 0 34536
