### header ###
fiducial parameters:
Omega_m = 0.31
Omega_nu = 0
Omega_de = 0.69
Omega_k = 0
H_0 = 100
w_de = -1
zeff = 0
beta = 0
fgrowth = 0
b_1 = 2
gamma = 0.55
Lx = 3500 Ly = 3500 Lz = 3500
nx = 700 ny = 700 nz = 700
xoffset = -685.467585 yoffset = -31.7331281 zoffset = 572.489161
bins = 400 dk = 0.001
kx_ny = 0.628318531 ky_ny = 0.628318531 kz_ny = 0.628318531
############################
A(data) = 8.03068991 (not used)
A(ran) = 8.03002391 (used)
Ngal = 476925
weighted Ngal = 0
Nran = 23820508
weighted Nran = 0
SN(data) = 3488.55946
SN(ran) = 69.9444205
SN(data+ran) = 3558.50388
############################
13 columns: k_central k_mean P_0(k) sigma^{lin}_{P_0(k)} P^img_1(k) sigma^{lin}_{P_1(k)} P_2(k) sigma^{lin}_{P_2(k)} P^img_3(k) sigma^{lin}_{P_3(k)} P_4(k) sigma^{lin}_{P_4(k)} N_modes
### header ###
0.00050000 0 0 0 0 0 0 0 0 0 0 0 0
0.00150000 0.00179520 20646.89625907 0 -1977.98225025 0 32373.37402801 0 -23386.96448194 0 -50139.69426226 0 3
0.00250000 0.00253879 34909.49002772 0 6315.89766770 0 20095.93737610 0 14141.90542812 0 30593.16564366 0 6
0.00350000 0.00331552 28220.47715828 0 5362.86945359 0 26284.92405673 0 -12872.79555741 0 48096.73960997 0 7
0.00450000 0.00420575 25974.45606881 0 -4318.00737743 0 19344.90158365 0 15473.79538055 0 21084.58525916 0 24
0.00550000 0.00557378 48152.76557356 0 -18536.17897890 0 28093.36686936 0 26937.74832804 0 -11711.75157692 0 45
0.00650000 0.00659388 73051.54528624 0 -14470.42130549 0 35362.79100579 0 23949.21713624 0 11444.02276281 0 40
0.00750000 0.00754703 66962.54169872 0 407.86901488 0 -1173.34533336 0 13998.40809847 0 -7315.93897300 0 57
0.00850000 0.00846663 81590.41146313 0 -2195.88560268 0 -3481.84755177 0 -506.56993278 0 2974.22574814 0 75
0.00950000 0.00948925 73255.82967914 0 5558.27384199 0 -3821.46897093 0 -11517.32155311 0 -15509.55898972 0 112
0.01050000 0.01054430 69685.22637163 0 10944.52804559 0 3940.81756015 0 -12402.77536885 0 -19884.23452557 0 105
0.01150000 0.01145670 60325.90092567 0 7778.71786112 0 -1361.06552833 0 -3034.99066674 0 -18610.25283193 0 144
0.01250000 0.01249090 53788.13601325 0 -3286.24386152 0 -491.85924202 0 4818.38788063 0 -21976.68246979 0 169
0.01350000 0.01339930 54386.15227671 0 -11770.98851470 0 -6609.19247982 0 11124.14329880 0 -35917.95737220 0 180
0.01450000 0.01448870 75400.20682677 0 -15745.17806186 0 8279.09836432 0 -12170.36727091 0 -50693.97484268 0 267
0.01550000 0.01550050 80146.24813703 0 -995.25584651 0 -17.61983338 0 -27779.90935374 0 -25893.73882089 0 238
0.01650000 0.01653350 80437.67172626 0 10458.88480672 0 13768.43591199 0 -24035.35982332 0 -16733.27232868 0 315
0.01750000 0.01747870 78818.23349829 0 1016.38405673 0 8211.59039990 0 -7073.12288972 0 -6425.98979337 0 297
0.01850000 0.01844180 85902.63908700 0 -10600.07909281 0 25405.44929638 0 3503.71539329 0 -44344.88234517 0 388
0.01950000 0.01947590 81397.53156479 0 2619.94457091 0 19634.22143116 0 6631.24855086 0 -28245.83278211 0 399
0.02050000 0.02045430 81307.07067102 0 18081.66004509 0 27716.02203954 0 -8048.18503023 0 -34135.86669264 0 462
0.02150000 0.02154770 63422.16583796 0 13732.67230282 0 18045.34281969 0 -8435.72747121 0 -15202.74486899 0 571
0.02250000 0.02255340 58859.92511968 0 5131.31392465 0 24050.30746183 0 -1482.82788436 0 -9130.09510523 0 510
0.02350000 0.02348930 58610.57636477 0 -5332.64200683 0 25454.49969533 0 4739.88509767 0 -5150.26974474 0 555
0.02450000 0.02439640 63868.49125140 0 -8385.69163535 0 22299.21929176 0 16758.84939901 0 -9339.77172032 0 592
0.02550000 0.02547300 67451.16339297 0 -1583.07671327 0 17959.42157909 0 11957.77863439 0 -17917.67891453 0 837
0.02650000 0.02652900 69661.42087327 0 -1584.99222546 0 14772.25288005 0 2111.47019827 0 -3404.37449501 0 723
0.02750000 0.02749970 69188.74332676 0 -362.96520158 0 15469.03428088 0 2430.36422537 0 -12557.78791632 0 826
0.02850000 0.02848090 69561.32705690 0 2486.64485242 0 17655.59698607 0 -4807.07196466 0 -2515.59898182 0 831
0.02950000 0.02946900 66108.64400871 0 5221.33192543 0 22796.25595287 0 -4896.97924219 0 -6989.06179970 0 996
0.03050000 0.03053250 61337.02562811 0 8887.82156588 0 24353.13554562 0 -1678.83017830 0 -3456.77980838 0 1041
0.03150000 0.03150510 56862.03482941 0 4007.70547438 0 27036.73491192 0 215.86050850 0 3610.40831524 0 1036
0.03250000 0.03246190 54469.41615935 0 1018.85539963 0 29139.81228797 0 5025.00853407 0 -952.40484223 0 1059
0.03350000 0.03345080 52270.12028062 0 4174.73149427 0 30972.94638494 0 5424.30978401 0 -487.10700021 0 1302
0.03450000 0.03451200 48855.08313680 0 2921.64327757 0 27297.93105439 0 9623.88757517 0 3410.35355042 0 1339
0.03550000 0.03553350 45940.73652129 0 -351.47987904 0 21195.86212358 0 8826.22622291 0 8083.29537223 0 1365
0.03650000 0.03647120 45925.56743628 0 -699.40000566 0 17624.70519982 0 11992.32428783 0 6952.11345178 0 1308
0.03750000 0.03744890 46628.21716928 0 884.39530149 0 14074.47496997 0 7824.73444306 0 5276.90392369 0 1579
0.03850000 0.03847530 43570.70539386 0 1647.29619722 0 10226.23311763 0 3194.27713158 0 5935.62974413 0 1662
0.03950000 0.03950240 43634.81415456 0 285.43899766 0 8341.04802168 0 -2656.71576164 0 7194.08803837 0 1683
0.04050000 0.04050350 41837.00077375 0 349.36285054 0 10327.78848087 0 -2872.16105796 0 3537.31989911 0 1822
0.04150000 0.04152450 43232.33514740 0 1650.75076256 0 12459.02277893 0 -5351.04421068 0 2070.40294551 0 1887
0.04250000 0.04250150 43299.87632879 0 763.84979396 0 16165.48351198 0 -3353.72968129 0 184.74616853 0 1920
0.04350000 0.04349210 42319.53268935 0 -850.40547877 0 17125.01118076 0 -1052.33368095 0 -4038.98479200 0 2005
0.04450000 0.04448520 42288.75162635 0 832.08853182 0 14298.57882430 0 -144.26021283 0 -6995.90449644 0 2151
0.04550000 0.04548030 42991.62280584 0 812.17606286 0 13215.04111755 0 1640.15454771 0 -9452.90873532 0 2274
0.04650000 0.04648670 41837.44366674 0 -503.50400604 0 12658.98896516 0 2177.01836119 0 -7431.41224853 0 2311
0.04750000 0.04749250 41610.35028471 0 938.81024182 0 11308.82967677 0 1188.41476743 0 -6795.80544232 0 2568
0.04850000 0.04851840 39906.43021837 0 2300.86231429 0 10898.06857065 0 1435.78157621 0 -6009.85860971 0 2493
0.04950000 0.04949480 39327.12618386 0 1705.41483019 0 9514.58158456 0 2337.91031313 0 -3809.44442618 0 2644
0.05050000 0.05050630 37219.73060113 0 -72.03864901 0 12350.40327246 0 751.85514449 0 470.30031837 0 2829
0.05150000 0.05149060 38316.11220467 0 647.88490721 0 12757.53265604 0 2252.74199063 0 3675.87897189 0 2784
0.05250000 0.05249300 36783.81317302 0 673.95469599 0 14822.18906498 0 3181.66575361 0 7817.18311754 0 3055
0.05350000 0.05348950 37326.02491939 0 596.53257193 0 13935.96018649 0 3894.95599075 0 9556.45711702 0 3009
0.05450000 0.05448610 35914.85712125 0 -43.57757024 0 13362.52448414 0 3012.58028131 0 8726.70816744 0 3336
0.05550000 0.05550870 35833.36481059 0 1348.18841457 0 12809.01896645 0 682.16593208 0 8719.46686701 0 3349
0.05650000 0.05647670 34158.01134228 0 1702.33672389 0 12169.70293142 0 1986.60759129 0 8697.58795317 0 3324
0.05750000 0.05747970 33164.38091305 0 627.28706135 0 9210.56876202 0 -1591.13736574 0 7770.67935330 0 3639
0.05850000 0.05849280 33394.13165304 0 -772.91913522 0 11765.45235229 0 205.41044834 0 7797.93941700 0 3846
0.05950000 0.05951020 33761.17922078 0 4.37506307 0 11731.68176160 0 -1020.85395426 0 4035.56344363 0 3787
0.06050000 0.06049470 33696.18467409 0 1494.52025937 0 11229.21966133 0 -150.77627599 0 4314.05455747 0 3930
0.06150000 0.06148310 32978.14440960 0 341.37195372 0 10864.10975043 0 -80.06641668 0 2859.62718626 0 4083
0.06250000 0.06249100 32960.53941314 0 816.52416482 0 11772.76008667 0 -507.45904046 0 3402.81329722 0 4303
0.06350000 0.06350600 33365.01143876 0 -634.15743890 0 12551.03379818 0 672.92496978 0 1480.80164892 0 4470
0.06450000 0.06451750 32499.48780769 0 -78.29883074 0 10265.96061908 0 2409.05000009 0 625.45902052 0 4479
0.06550000 0.06550280 32287.67423391 0 1224.04550870 0 9171.05163474 0 -297.15130286 0 -819.22027591 0 4636
0.06650000 0.06648880 31959.37980304 0 579.73031902 0 10258.35393193 0 979.22865633 0 -519.81575496 0 4653
0.06750000 0.06749660 30986.23317473 0 1100.79835391 0 10694.78068698 0 -1461.95655208 0 106.94160637 0 5220
0.06850000 0.06852730 30170.20283559 0 1210.57048940 0 10591.77484919 0 -837.37335245 0 -142.86952883 0 5029
0.06950000 0.06949320 29537.86236520 0 437.22064074 0 12193.17626004 0 -43.20985833 0 -1193.19801176 0 5040
0.07050000 0.07048030 29385.39645245 0 186.34058330 0 12166.82412697 0 -1428.28561231 0 -406.44843561 0 5475
0.07150000 0.07148790 29353.72960347 0 428.98615277 0 13123.03009831 0 1938.56477390 0 506.26322938 0 5509
0.07250000 0.07249820 28535.26335287 0 211.55558861 0 11369.17384703 0 731.51528379 0 -1627.88641181 0 5916
0.07350000 0.07351270 28506.36458509 0 158.68302314 0 11402.72299123 0 2380.00729209 0 -1641.43893739 0 5721
0.07450000 0.07449140 28736.33677158 0 303.44038335 0 10376.72815656 0 -872.69628309 0 -3474.70590226 0 6028
0.07550000 0.07549160 27249.98788792 0 1308.20624965 0 9964.63837146 0 -642.89128871 0 -4020.81510697 0 6183
0.07650000 0.07648840 27125.42423371 0 245.06597968 0 10657.22336120 0 -1194.37167819 0 -3813.92871773 0 6330
0.07750000 0.07749960 26377.15652247 0 734.63325046 0 11460.85269653 0 -673.04455089 0 -3244.95516228 0 6583
0.07850000 0.07848650 26385.12859634 0 1076.44920440 0 11912.71427238 0 -399.74967909 0 -3222.71086172 0 6549
0.07950000 0.07947320 25343.77644714 0 1051.38367548 0 12535.86471317 0 817.98128277 0 -2261.46698258 0 6828
0.08050000 0.08048110 24392.55302197 0 740.25356254 0 11836.53667763 0 1767.53057242 0 206.52321698 0 7147
0.08150000 0.08149960 24447.36102983 0 103.91531855 0 11878.05789570 0 2921.58791595 0 -150.63344300 0 7386
0.08250000 0.08250610 23945.45254580 0 105.94875100 0 11647.08919998 0 2298.54819840 0 414.66188616 0 7227
0.08350000 0.08350160 23738.28934844 0 441.23878742 0 9850.21696679 0 1978.13726280 0 -867.79677936 0 7798
0.08450000 0.08449610 22771.01105228 0 882.66137543 0 8926.26467765 0 255.69651873 0 -407.10834616 0 7371
0.08550000 0.08548940 22610.79451216 0 712.75876555 0 9090.46725471 0 -1195.08030698 0 139.15697832 0 8256
0.08650000 0.08650700 21563.24186107 0 -80.83627542 0 8546.90468471 0 245.95951629 0 116.16418860 0 8037
0.08750000 0.08749060 21792.10681507 0 -110.65205314 0 8436.43609999 0 907.15335793 0 -881.44563416 0 8155
0.08850000 0.08849210 21454.29018485 0 177.09297761 0 7470.82972489 0 1045.01487424 0 -1818.76221936 0 8718
0.08950000 0.08949900 21303.48512082 0 535.24614683 0 7773.74638727 0 873.08270723 0 -1588.79003288 0 8571
0.09050000 0.09049190 21213.91001304 0 855.49874818 0 7079.82164624 0 -231.53670598 0 -1314.14101575 0 8932
0.09150000 0.09150830 19991.85752280 0 528.06242248 0 8082.46494787 0 -241.40989802 0 786.68867836 0 9285
0.09250000 0.09250820 19868.62254757 0 1016.50917400 0 8318.92551669 0 -519.32746543 0 -51.09291071 0 9204
0.09350000 0.09350330 19290.97936178 0 858.77726356 0 8469.16589216 0 486.65414213 0 1622.42775568 0 9349
0.09450000 0.09448040 18778.21999943 0 40.76154586 0 7698.57637408 0 1426.24830454 0 1681.24394511 0 9564
0.09550000 0.09549270 19029.56177281 0 -539.25432841 0 8072.83202528 0 1449.07943832 0 967.75440612 0 10155
0.09650000 0.09649430 18742.12422052 0 -26.21937589 0 6988.16494139 0 1550.35799343 0 718.52633955 0 9913
0.09750000 0.09749140 18625.53264018 0 572.38604596 0 6334.15593133 0 1432.67025293 0 1486.51496853 0 10476
0.09850000 0.09850240 18180.64662897 0 168.11110772 0 5011.06847712 0 -149.62032527 0 1262.16752305 0 10575
0.09950000 0.09950330 18162.26656977 0 331.16769916 0 5974.29430240 0 155.09558990 0 1371.75032178 0 10882
0.10050000 0.10051200 17675.97006374 0 444.29807077 0 5737.08081548 0 -352.31141064 0 1100.64334137 0 10875
0.10150000 0.10150300 17299.28957340 0 607.62814863 0 6129.82724912 0 -1031.58525147 0 329.80026705 0 11118
0.10250000 0.10250800 16970.88441928 0 361.76828326 0 6592.58399260 0 -452.04094751 0 1071.69253366 0 11575
0.10350000 0.10349800 16931.35621968 0 241.83064636 0 6386.07406240 0 591.69839491 0 1139.07648804 0 11364
0.10450000 0.10450100 16653.21942024 0 150.17283428 0 6247.72536379 0 541.00929189 0 1137.09454190 0 12093
0.10550000 0.10551000 16354.82026637 0 207.28942186 0 5538.47652521 0 1613.49238955 0 865.27782546 0 12067
0.10650000 0.10649700 16071.14730452 0 403.80879337 0 4850.08794659 0 342.92318642 0 211.68292035 0 12054
0.10750000 0.10749900 15517.64178684 0 521.72019483 0 4222.38678029 0 673.67567341 0 947.01704897 0 12807
0.10850000 0.10850100 14967.90085959 0 349.27316471 0 4306.51430426 0 329.16582284 0 834.04168992 0 12736
0.10950000 0.10950300 14914.97514696 0 123.97792823 0 4323.34423799 0 203.83374928 0 818.40203111 0 12933
0.11050000 0.11050200 15028.46647635 0 8.68735713 0 4582.58057897 0 -171.53245609 0 267.15526769 0 13428
0.11150000 0.11150900 15002.11434328 0 -54.79903927 0 4199.76602069 0 -397.66697479 0 8.45551372 0 13453
0.11250000 0.11250000 14886.40854893 0 65.54705569 0 4498.97345426 0 -825.69426424 0 -121.99930378 0 13668
0.11350000 0.11349100 15045.96074956 0 298.79000693 0 5031.24225294 0 -327.87368253 0 -460.98074257 0 13791
0.11450000 0.11448600 14899.25244572 0 70.06567145 0 5111.41695696 0 -174.74121582 0 -559.30409419 0 14205
0.11550000 0.11549300 14886.85144192 0 194.60828825 0 5075.95230056 0 60.97783941 0 -471.39204960 0 14776
0.11650000 0.11649800 14709.02990533 0 174.41347501 0 4954.41139103 0 395.97512356 0 -1018.87422258 0 14553
0.11750000 0.11747300 14569.29716612 0 130.56263980 0 5132.58724201 0 359.97567388 0 -1145.93025711 0 14568
0.11850000 0.11849100 14353.60827865 0 296.15368639 0 5052.22430847 0 -230.40068545 0 -931.33752980 0 16015
0.11950000 0.11950300 14251.18927408 0 110.51973886 0 5265.13404241 0 277.11814556 0 -436.89622162 0 15270
0.12050000 0.12050700 14148.43809976 0 105.59487950 0 5199.77410901 0 457.78416239 0 -261.46409273 0 15999
0.12150000 0.12150000 14083.22210658 0 306.63585630 0 5228.81681701 0 109.06339597 0 -298.79000693 0 15670
0.12250000 0.12250700 13837.85938860 0 61.00241997 0 4655.58041650 0 768.16025001 0 -690.98171710 0 16887
0.12350000 0.12352200 13736.32617001 0 183.74633760 0 4688.00018357 0 824.65678740 0 243.90560004 0 16407
0.12450000 0.12449800 13556.62233821 0 91.76986401 0 3933.46553647 0 880.17785297 0 -300.26151890 0 16306
0.12550000 0.12549900 13439.80931137 0 115.50870697 0 3602.95664064 0 219.47783702 0 38.98643075 0 17523
0.12650000 0.12650100 13419.32551045 0 96.39986735 0 3641.23366754 0 -216.60567596 0 97.48761254 0 17154
0.12750000 0.12750600 13264.97730248 0 328.48376763 0 3727.83031994 0 -413.21251884 0 -248.45964723 0 18007
0.12850000 0.12850300 13043.64152936 0 210.98647112 0 3887.54860545 0 -575.98012260 0 143.18841179 0 17496
0.12950000 0.12949900 12907.11976434 0 50.67526261 0 4090.02820941 0 154.27070170 0 155.44879706 0 18405
0.13050000 0.13049000 13178.72389215 0 -94.47439007 0 3928.09545894 0 297.53551253 0 -235.77519192 0 18100
0.13150000 0.13148800 13114.50440820 0 46.69631197 0 3917.70961826 0 483.42545221 0 -732.49407731 0 19059
0.13250000 0.13249300 12919.85293789 0 241.01904495 0 3543.95222168 0 426.72739851 0 -157.40638409 0 18957
0.13350000 0.13349100 12538.41134788 0 600.50532207 0 3030.01919290 0 273.72337077 0 146.75148591 0 19468
0.13450000 0.13450700 12206.79521956 0 196.43522184 0 3000.27892843 0 484.75080949 0 107.91552806 0 19953
0.13550000 0.13551000 11836.20450788 0 19.87249786 0 2666.76943257 0 1050.36059267 0 258.62957758 0 19956
0.13650000 0.13649900 11869.86437533 0 55.45573885 0 2171.01716114 0 760.48602168 0 457.13200246 0 19723
0.13750000 0.13749600 11635.24181243 0 66.60612356 0 1965.53695716 0 482.39240430 0 317.55649026 0 20946
0.13850000 0.13851100 11715.73761386 0 75.06770491 0 1586.59771256 0 -47.95335300 0 305.62827474 0 20955
0.13950000 0.13949800 11397.18682883 0 257.07280871 0 1904.28485626 0 -568.87833346 0 638.78456344 0 20506
0.14050000 0.14048300 11339.83218626 0 377.06802170 0 2111.54770454 0 -415.62960734 0 488.29727513 0 21447
0.14150000 0.14148400 11250.81069472 0 133.45805274 0 2599.71543347 0 -412.29794481 0 663.13814188 0 21771
0.14250000 0.14249400 11083.95075971 0 193.75239754 0 2606.49169626 0 -104.17529674 0 429.64606333 0 22470
0.14350000 0.14350900 11119.16075263 0 137.41419439 0 2959.61027937 0 -71.23025858 0 587.64481680 0 22519
0.14450000 0.14449900 11091.81211033 0 151.24242086 0 3302.21015391 0 -113.97186829 0 764.97917109 0 22218
0.14550000 0.14550500 10878.18267528 0 304.82331672 0 3634.18059663 0 -20.75186190 0 1066.34238631 0 23559
0.14650000 0.14650700 10807.35301341 0 255.59686781 0 3709.93744303 0 298.11348788 0 1781.00559173 0 23044
0.14750000 0.14750500 10578.84237380 0 -115.56074690 0 3658.65043447 0 431.39549065 0 1406.29597522 0 23649
0.14850000 0.14849900 10575.42102544 0 66.61487070 0 3699.30801121 0 349.27205747 0 1371.20777787 0 23640
0.14950000 0.14949500 10684.69379907 0 147.80889293 0 3560.12888824 0 187.69362140 0 1302.67008724 0 24457
0.15050000 0.15050000 10305.47774636 0 167.26739657 0 3203.92112650 0 -4.17713419 0 1568.90413750 0 24591
0.15150000 0.15149900 10352.18081244 0 69.64149069 0 3110.49284968 0 82.08944114 0 1497.02260478 0 25020
0.15250000 0.15250500 10178.34531279 0 94.95326812 0 3120.17006157 0 30.61863199 0 989.15831723 0 25297
0.15350000 0.15350100 10040.19591603 0 218.76367207 0 3319.12866624 0 57.72412604 0 760.19371231 0 25452
0.15450000 0.15450400 9918.40034302 0 385.74318819 0 3110.69215152 0 0.14928040 0 928.27713922 0 26061
0.15550000 0.15549900 9466.53876717 0 336.41487389 0 3190.83363856 0 -129.86840503 0 1161.22113768 0 26128
0.15650000 0.15649500 9409.59380063 0 108.23385740 0 3230.38398281 0 184.74838299 0 1181.50563675 0 26331
0.15750000 0.15749700 9408.17654305 0 -58.70258738 0 3190.33538395 0 374.88566648 0 1197.85946051 0 27345
0.15850000 0.15849900 9295.53778267 0 85.91924757 0 3039.06528227 0 193.15006307 0 1197.26155497 0 26980
0.15950000 0.15949700 9377.30690146 0 129.24503314 0 3009.87863405 0 316.02075881 0 1394.37108139 0 27777
0.16050000 0.16050000 9152.56085229 0 221.47306995 0 2849.85032345 0 -23.55648177 0 1346.61614444 0 28224
0.16150000 0.16150500 9105.95743713 0 227.80201082 0 3011.46197650 0 91.98964966 0 1797.37048781 0 28075
0.16250000 0.16249700 8941.47805195 0 144.72082154 0 3200.58835673 0 38.25466080 0 1692.63736735 0 28590
0.16350000 0.16349900 8736.88363395 0 115.87077199 0 2939.38114193 0 -15.76134366 0 1482.42928067 0 29163
0.16450000 0.16449100 8754.31147321 0 66.56936344 0 3007.89668791 0 102.33784443 0 1492.75975973 0 28996
0.16550000 0.16550500 8676.10764302 0 80.69964293 0 3076.88834385 0 123.40770350 0 1265.17919540 0 30777
0.16650000 0.16650700 8632.07300722 0 84.57240998 0 2825.38048560 0 28.15072151 0 992.29399962 0 29211
0.16750000 0.16749900 8413.20636253 0 218.35731775 0 2717.22601677 0 1.72602043 0 510.71873289 0 30922
0.16850000 0.16850800 8224.62252621 0 257.66849978 0 2579.34235580 0 243.51142527 0 861.09470115 0 30867
0.16950000 0.16949900 8133.25370181 0 70.91846191 0 2553.20059691 0 178.24892833 0 636.87237294 0 30852
0.17050000 0.17049200 8066.94154847 0 -19.99551139 0 2289.29173485 0 344.98153161 0 642.42292937 0 31257
0.17150000 0.17149500 8071.92409464 0 -1.97005447 0 2456.26239312 0 183.55810808 0 777.01589540 0 32608
0.17250000 0.17250900 8163.16005115 0 130.69772216 0 2334.96507473 0 -53.24027738 0 731.62157811 0 32361
0.17350000 0.17350400 8063.49805545 0 116.53400425 0 2497.11927170 0 -60.79625328 0 1216.26166435 0 32508
0.17450000 0.17449800 8119.80082716 0 80.88543654 0 2465.83995409 0 32.68306695 0 1041.21153067 0 32791
0.17550000 0.17549800 7989.54599799 0 -7.32628052 0 2639.28792237 0 9.04231371 0 1147.87898627 0 33633
0.17650000 0.17650100 7910.51174343 0 75.57171714 0 2629.53320421 0 -65.04237913 0 671.36820091 0 33984
0.17750000 0.17750300 7896.41667394 0 170.15062995 0 2446.45231333 0 16.46609713 0 565.73490045 0 34069
