### header ###
fiducial parameters:
Omega_m = 0.31
Omega_nu = 0
Omega_de = 0.69
Omega_k = 0
H_0 = 100
w_de = -1
zeff = 0
beta = 0
fgrowth = 0
b_1 = 2
gamma = 0.55
Lx = 3500 Ly = 3500 Lz = 3500
nx = 700 ny = 700 nz = 700
xoffset = -685.467585 yoffset = -31.7331281 zoffset = 572.489161
bins = 400 dk = 0.001
kx_ny = 0.628318531 ky_ny = 0.628318531 kz_ny = 0.628318531
############################
A(data) = 8.03778653 (not used)
A(ran) = 8.0401944 (used)
Ngal = 478038
weighted Ngal = 0
Nran = 23820508
weighted Nran = 0
SN(data) = 3480.89331
SN(ran) = 70.0330092
SN(data+ran) = 3550.92632
############################
13 columns: k_central k_mean P_0(k) sigma^{lin}_{P_0(k)} P^img_1(k) sigma^{lin}_{P_1(k)} P_2(k) sigma^{lin}_{P_2(k)} P^img_3(k) sigma^{lin}_{P_3(k)} P_4(k) sigma^{lin}_{P_4(k)} N_modes
### header ###
0.00050000 0 0 0 0 0 0 0 0 0 0 0 0
0.00150000 0.00179520 12467.76991554 0 -23081.47904020 0 -8612.85145133 0 -26092.26560488 0 -11424.97836412 0 3
0.00250000 0.00253879 26196.01328844 0 -25786.11582365 0 -33925.38179784 0 18559.32013777 0 -2150.74373440 0 6
0.00350000 0.00331552 55175.94120602 0 -53694.35342204 0 -40467.90780993 0 9816.73425654 0 -16963.13379191 0 7
0.00450000 0.00420575 75547.80091660 0 -50652.67507111 0 -55909.03983227 0 -20175.32594505 0 -12124.19567642 0 24
0.00550000 0.00557378 115496.52741578 0 -16264.24864936 0 -36587.39013073 0 -51756.80730202 0 -8837.13246286 0 45
0.00650000 0.00659388 92404.30822051 0 11833.65787318 0 -38100.97693344 0 -64927.66984355 0 33699.17420179 0 40
0.00750000 0.00754703 97954.64320560 0 20741.45391303 0 -33890.17180491 0 -38571.99363123 0 6853.70262879 0 57
0.00850000 0.00846663 77239.98431864 0 10344.29731717 0 -33911.20922207 0 -17993.19216979 0 35250.51763213 0 75
0.00950000 0.00948925 94092.17341586 0 -5799.08583447 0 -22508.15406109 0 -14269.23716353 0 -24442.37848366 0 112
0.01050000 0.01054430 81381.91958680 0 4919.53356785 0 -13778.95462056 0 3260.76644212 0 -14216.86506714 0 105
0.01150000 0.01145670 77481.02882994 0 7920.49898042 0 -15784.92770796 0 -17761.55913458 0 -6916.75951864 0 144
0.01250000 0.01249090 69079.12731105 0 10216.29016994 0 -21265.94993968 0 12597.98045541 0 -14693.08575759 0 169
0.01350000 0.01339930 62388.67503939 0 1381.78184807 0 -7024.95827676 0 -4547.27093512 0 -18913.74525521 0 180
0.01450000 0.01448870 63783.23435029 0 -2357.84049781 0 -4218.09071826 0 -6047.39379085 0 -16361.90655426 0 267
0.01550000 0.01550050 68713.85131529 0 3548.18184976 0 8928.96632490 0 -18344.73848278 0 4069.71049337 0 238
0.01650000 0.01653350 65050.90481878 0 3354.56010566 0 18767.03695136 0 -16624.32065246 0 18270.88607624 0 315
0.01750000 0.01747870 65849.55160795 0 1359.90293423 0 19001.43806778 0 5185.20292955 0 11731.34959185 0 297
0.01850000 0.01844180 73432.76542974 0 -7460.02313586 0 31799.82760240 0 4644.76275515 0 24269.20732349 0 388
0.01950000 0.01947590 78358.28912532 0 -1656.65231169 0 39750.86405467 0 16312.08109257 0 18071.80567600 0 399
0.02050000 0.02045430 73947.18564082 0 4195.62497120 0 31820.53284981 0 14771.58854056 0 14439.08662625 0 462
0.02150000 0.02154770 71625.65129609 0 5824.59647085 0 24606.80250722 0 3864.78390562 0 11891.01251574 0 571
0.02250000 0.02255340 61358.61666151 0 3681.71408707 0 22632.16409906 0 -1046.54839123 0 15287.33743061 0 510
0.02350000 0.02348930 62538.70504068 0 1474.12503706 0 16107.46452993 0 -1612.81697773 0 1028.61786842 0 555
0.02450000 0.02439640 60834.45280459 0 2701.20436276 0 20413.82382164 0 657.53665275 0 -4258.34969130 0 592
0.02550000 0.02547300 60286.37272607 0 -290.29531933 0 16491.00986164 0 -5714.47112820 0 383.37703238 0 837
0.02650000 0.02652900 60435.07404838 0 4688.62023376 0 23240.80979434 0 -6340.93219412 0 4989.59923930 0 723
0.02750000 0.02749970 59895.74110647 0 2453.35037169 0 24770.00857504 0 3517.35649746 0 5568.64861034 0 826
0.02850000 0.02848090 58763.37444726 0 -856.39339203 0 28682.74671946 0 3530.87580607 0 2501.93573300 0 831
0.02950000 0.02946900 58415.92489446 0 2637.30597623 0 25319.08516280 0 3972.88301283 0 -2163.08937657 0 996
0.03050000 0.03053250 56741.90010512 0 1247.86207939 0 29503.42743501 0 3129.60368232 0 -2413.04710935 0 1041
0.03150000 0.03150510 55225.10232822 0 900.01724458 0 24763.91879639 0 -1802.69627605 0 2049.05550326 0 1036
0.03250000 0.03246190 55060.45685816 0 987.58051094 0 23985.09146865 0 4557.67892045 0 -12555.90562110 0 1059
0.03350000 0.03345080 54854.51161654 0 647.68671259 0 18769.69430932 0 1072.55617500 0 -11850.15563716 0 1302
0.03450000 0.03451200 54459.67251350 0 534.43897435 0 20902.00262290 0 4581.82766088 0 -12265.25709461 0 1339
0.03550000 0.03553350 52725.96789340 0 2061.75545983 0 17854.56666306 0 -2518.41135233 0 -8799.96266844 0 1365
0.03650000 0.03647120 53073.86033920 0 4518.29466107 0 17012.18419086 0 3281.33882163 0 -4993.37490206 0 1308
0.03750000 0.03744890 48207.90575115 0 2417.25459278 0 22369.63927761 0 2683.66580024 0 -3192.84880168 0 1579
0.03850000 0.03847530 46367.24247330 0 -219.93180234 0 20440.61884770 0 3210.74167859 0 18.07103061 0 1662
0.03950000 0.03950240 47020.73108410 0 411.47084214 0 23218.11152846 0 3208.16182690 0 -503.54386640 0 1683
0.04050000 0.04050350 46377.87190513 0 898.81368287 0 22046.77028590 0 -862.52192382 0 -2031.20691566 0 1822
0.04150000 0.04152450 45580.44307169 0 1207.84669749 0 20418.14202832 0 -648.57360581 0 -2445.32293620 0 1887
0.04250000 0.04250150 44390.05743043 0 1288.23177568 0 20895.35922800 0 512.95644973 0 390.08464676 0 1920
0.04350000 0.04349210 42791.10300337 0 2107.59488458 0 18317.38984048 0 447.32856607 0 -4905.25026883 0 2005
0.04450000 0.04448520 43722.06407413 0 118.83151165 0 17757.79454414 0 5136.01966270 0 -2746.41266499 0 2151
0.04550000 0.04548030 41044.11159349 0 481.16005455 0 16715.77805546 0 1297.54360085 0 -5373.97499538 0 2274
0.04650000 0.04648670 40973.47016115 0 2792.03064324 0 17263.85813399 0 3475.44774803 0 -4797.33939115 0 2311
0.04750000 0.04749250 38207.93559119 0 2454.07007280 0 16434.43028182 0 934.31709240 0 -291.84876650 0 2568
0.04850000 0.04851840 36290.31965585 0 496.39889520 0 14657.87576467 0 2234.73839047 0 1539.08636677 0 2493
0.04950000 0.04949480 36800.31093700 0 284.65839876 0 16791.40203397 0 1186.23351945 0 1210.19403035 0 2644
0.05050000 0.05050630 37893.70301284 0 -1023.59435465 0 15495.05424421 0 842.11562917 0 -1404.84550067 0 2829
0.05150000 0.05149060 36320.32565611 0 864.17834361 0 15383.44521003 0 -1541.63300147 0 3601.62796166 0 2784
0.05250000 0.05249300 36414.44041707 0 1361.27590250 0 14900.58112469 0 585.84445678 0 -108.64563716 0 3055
0.05350000 0.05348950 35584.34822541 0 15.70996807 0 15112.39469847 0 2412.01738314 0 -186.99827940 0 3009
0.05450000 0.05448610 35177.66173482 0 1395.34544597 0 13673.54608829 0 1448.80263020 0 -2046.05490324 0 3336
0.05550000 0.05550870 33907.00173864 0 1301.91716915 0 13177.17376667 0 -136.33796442 0 -2967.30554512 0 3349
0.05650000 0.05647670 33447.05736567 0 1213.11712411 0 12570.18892011 0 707.56695244 0 -454.07714805 0 3324
0.05750000 0.05747970 32320.11614563 0 1365.23979479 0 14836.25091750 0 20.37972106 0 -383.18105223 0 3639
0.05850000 0.05849280 31154.86468171 0 475.76118897 0 13137.31339732 0 2434.44991323 0 455.11905381 0 3846
0.05950000 0.05951020 32293.43184282 0 -1710.03198964 0 13112.28994323 0 4000.12093188 0 -518.92886174 0 3787
0.06050000 0.06049470 32109.63125083 0 -377.82204702 0 10997.86343424 0 3373.87024014 0 -25.15820428 0 3930
0.06150000 0.06148310 32829.00019429 0 378.34244629 0 10896.83954260 0 1231.57468958 0 104.06169468 0 4083
0.06250000 0.06249100 31736.05101145 0 1093.08980137 0 9973.26371250 0 -651.87980200 0 2438.67954131 0 4303
0.06350000 0.06350600 30094.80030358 0 1424.54316652 0 9452.20010653 0 -773.62887124 0 2634.61540130 0 4470
0.06450000 0.06451750 29908.34235363 0 547.23415291 0 10764.90172006 0 -9.22320228 0 1265.68852234 0 4479
0.06550000 0.06550280 30285.57646020 0 -260.60377309 0 11312.81571371 0 -799.22255006 0 -543.33115841 0 4636
0.06650000 0.06648880 30313.25727225 0 -206.56086289 0 11586.85575297 0 -444.02126264 0 -676.04957985 0 4653
0.06750000 0.06749660 30396.18898514 0 -131.79609678 0 11632.03083823 0 -577.25676165 0 -1872.44085008 0 5220
0.06850000 0.06852730 30031.02371262 0 443.91275386 0 12281.64413534 0 208.43762194 0 -1728.64456766 0 5029
0.06950000 0.06949320 30119.15941818 0 1495.99287857 0 12903.35517391 0 -207.66588090 0 -2908.17933059 0 5040
0.07050000 0.07048030 28686.40058665 0 956.48942285 0 11985.90233943 0 1052.30600014 0 -1122.50121779 0 5475
0.07150000 0.07148790 28046.53093538 0 448.54762903 0 11967.63300348 0 2410.63334254 0 -1463.63954545 0 5509
0.07250000 0.07249820 27777.03054929 0 -178.16588589 0 10382.72935662 0 1270.54927294 0 -2464.10159909 0 5916
0.07350000 0.07351270 27534.65735901 0 -78.40346421 0 9332.94009591 0 1899.56804589 0 -1278.65421471 0 5721
0.07450000 0.07449140 27775.48042382 0 -256.14716235 0 9504.42826270 0 1155.69604760 0 -1618.22027225 0 6028
0.07550000 0.07549160 28068.45413852 0 -502.16425473 0 7646.87968950 0 947.75003687 0 1099.03563980 0 6183
0.07650000 0.07648840 28320.79242113 0 676.25773955 0 8963.79985878 0 2139.40567378 0 2423.15614191 0 6330
0.07750000 0.07749960 27239.13700960 0 1113.44405609 0 6965.34487994 0 629.15164085 0 1465.40004510 0 6583
0.07850000 0.07848650 26398.08321638 0 1750.68956638 0 9019.49365262 0 575.52726452 0 2810.79823381 0 6549
0.07950000 0.07947320 25154.99330899 0 1280.53650993 0 9263.83771672 0 41.00557990 0 4756.69288674 0 6828
0.08050000 0.08048110 23877.24702491 0 945.22665405 0 9699.14616696 0 -456.41562305 0 5068.05773297 0 7147
0.08150000 0.08149960 23922.86500317 0 115.15217811 0 10612.56867520 0 -686.62475728 0 4073.08755244 0 7386
0.08250000 0.08250610 23113.92095192 0 783.67257708 0 10067.98745132 0 330.70819768 0 4260.14340792 0 7227
0.08350000 0.08350160 23302.59336683 0 474.52994645 0 10942.81183524 0 -778.00576124 0 3212.00392362 0 7798
0.08450000 0.08449610 22909.63655901 0 -388.78918475 0 9780.83777947 0 -593.52865021 0 2138.70811732 0 7371
0.08550000 0.08548940 23081.14687045 0 -19.36294947 0 10598.73934150 0 -42.79531049 0 677.27860790 0 8256
0.08650000 0.08650700 23084.46856790 0 388.07059087 0 9929.52802946 0 -635.52154931 0 -838.74853520 0 8037
0.08750000 0.08749060 22406.28867276 0 824.73429367 0 9521.73430639 0 356.82449023 0 -154.42017808 0 8155
0.08850000 0.08849210 21950.44105997 0 341.24462198 0 8912.65679044 0 1369.52478449 0 -659.66253912 0 8718
0.08950000 0.08949900 21213.24567355 0 308.95329388 0 8305.99304131 0 1354.62143529 0 -331.09019289 0 8571
0.09050000 0.09049190 20855.60958191 0 613.74007193 0 7040.20486804 0 2049.59804718 0 -1299.37053444 0 8932
0.09150000 0.09150830 20266.89407130 0 507.95286615 0 6457.06980914 0 974.26050419 0 171.99085034 0 9285
0.09250000 0.09250820 19829.53724096 0 366.82722847 0 6343.00271886 0 1119.05772477 0 -235.10310180 0 9204
0.09350000 0.09350330 19193.32145688 0 439.88574933 0 6021.29632125 0 -204.59884693 0 172.66183322 0 9349
0.09450000 0.09448040 19082.04459246 0 780.03864008 0 6391.61022481 0 -231.78583329 0 1200.21786569 0 9564
0.09550000 0.09549270 18410.50809220 0 296.91989127 0 6964.62517883 0 -64.59970758 0 601.24052444 0 10155
0.09650000 0.09649430 18209.54539675 0 383.63944648 0 7316.73618038 0 89.52904691 0 438.61796813 0 9913
0.09750000 0.09749140 18089.29994922 0 322.79259267 0 6821.38251265 0 -117.23045348 0 -10.20507390 0 10476
0.09850000 0.09850240 17796.21551127 0 -150.53932823 0 6890.94992948 0 340.86262677 0 234.49190947 0 10575
0.09950000 0.09950330 17952.88890745 0 261.82615775 0 6600.15746277 0 594.30260571 0 47.36906642 0 10882
0.10050000 0.10051200 17507.33855675 0 752.30135918 0 6226.58829571 0 -119.23897320 0 326.02903321 0 10875
0.10150000 0.10150300 17048.83358601 0 548.13211845 0 5996.66039853 0 1047.69326962 0 1479.49511459 0 11118
0.10250000 0.10250800 16561.87274048 0 -46.46567544 0 5774.67135824 0 830.20955830 0 423.99364151 0 11575
0.10350000 0.10349800 16439.74499773 0 165.07729072 0 5948.94975089 0 510.36552573 0 248.52608118 0 11364
0.10450000 0.10450100 16327.91451706 0 297.27420566 0 5895.02752902 0 110.95798147 0 -166.13137604 0 12093
0.10550000 0.10551000 16056.31038926 0 374.25897289 0 5521.55801289 0 -243.00874172 0 1088.49146488 0 12067
0.10650000 0.10649700 15948.79811527 0 -48.01679742 0 5621.78469715 0 -422.42137139 0 -3.50325036 0 12054
0.10750000 0.10749900 16054.20664755 0 90.88939274 0 5795.54269052 0 190.50045574 0 -113.12704990 0 12807
0.10850000 0.10850100 15732.88778131 0 492.61991074 0 5598.03456041 0 -65.41042321 0 -94.00724868 0 12736
0.10950000 0.10950300 15349.67461934 0 236.44285311 0 4705.61625235 0 989.67539480 0 -364.14218971 0 12933
0.11050000 0.11050200 15174.95333370 0 -12.90457313 0 5028.38559314 0 525.43385257 0 -631.12805083 0 13428
0.11150000 0.11150900 15066.33382723 0 266.29494805 0 4595.28053553 0 513.20225534 0 -691.79664020 0 13453
0.11250000 0.11250000 15073.64156161 0 73.23235635 0 4737.98065780 0 619.13340135 0 -128.47439934 0 13668
0.11350000 0.11349100 14908.11030557 0 236.87245931 0 4383.74376987 0 -427.77151874 0 32.97006161 0 13791
0.11450000 0.11448600 15111.17674274 0 68.46926366 0 4997.58238549 0 -124.17612284 0 49.86487916 0 14205
0.11550000 0.11549300 14930.69784820 0 -102.99199738 0 5176.97619221 0 -175.42437826 0 336.85333796 0 14776
0.11650000 0.11649800 15306.27110605 0 162.23502494 0 4689.87140646 0 103.80525964 0 264.77693232 0 14553
0.11750000 0.11747300 14826.61799490 0 166.44250837 0 5531.42345430 0 -184.92221849 0 586.27627745 0 14568
0.11850000 0.11849100 14740.25386132 0 359.19950391 0 5249.01273748 0 183.29458675 0 390.23190868 0 16015
0.11950000 0.11950300 14445.17640490 0 551.33977095 0 5635.35936737 0 -201.33583280 0 688.23910224 0 15270
0.12050000 0.12050700 13912.48685788 0 637.45809892 0 5545.52959612 0 44.60607849 0 1058.50207311 0 15999
0.12150000 0.12150000 13846.16363221 0 254.30804920 0 5616.19317311 0 -97.19962138 0 877.57474941 0 15670
0.12250000 0.12250700 13634.23933518 0 -288.07421097 0 5809.62668769 0 149.13092852 0 1038.62282113 0 16887
0.12350000 0.12352200 13948.02902055 0 -148.92387604 0 5497.36498316 0 1018.29292553 0 1116.48894541 0 16407
0.12450000 0.12449800 13828.00501951 0 -71.03937170 0 4681.70003074 0 829.73566279 0 1193.48589220 0 16306
0.12550000 0.12549900 13734.33315155 0 132.02197221 0 4196.74327601 0 1253.85220711 0 736.83110694 0 17523
0.12650000 0.12650100 13720.38202227 0 236.81377599 0 3528.52847321 0 642.02764738 0 1008.58471113 0 17154
0.12750000 0.12750600 13205.74036470 0 308.67537853 0 3437.50289087 0 62.20432083 0 719.82623048 0 18007
0.12850000 0.12850300 13015.07493133 0 474.85215110 0 3526.33615289 0 -201.23507465 0 964.47921244 0 17496
0.12950000 0.12949900 12612.37447767 0 194.84523600 0 3659.28155699 0 -235.40426904 0 722.96966350 0 18405
0.13050000 0.13049000 12535.97543642 0 80.64782445 0 3820.29530450 0 -46.23459602 0 995.62787662 0 18100
0.13150000 0.13148800 12406.53995929 0 106.71539877 0 3993.47753699 0 -191.22237132 0 499.66855272 0 19059
0.13250000 0.13249300 12477.07066839 0 179.42591645 0 4099.00786484 0 390.61390388 0 495.41567276 0 18957
0.13350000 0.13349100 12343.31698458 0 9.79657155 0 3632.89620695 0 246.13999518 0 157.52042903 0 19468
0.13450000 0.13450700 12178.56079128 0 194.57617850 0 3729.90084468 0 43.81296786 0 252.47115051 0 19953
0.13550000 0.13551000 12116.99866529 0 78.80527888 0 3930.70852759 0 160.20325334 0 147.49333168 0 19956
0.13650000 0.13649900 12003.28588940 0 441.37054808 0 3915.29585145 0 135.39570958 0 45.03967073 0 19723
0.13750000 0.13749600 11713.63387214 0 390.06914550 0 3788.24092415 0 -95.37135910 0 779.35769210 0 20946
0.13850000 0.13851100 11233.64859125 0 336.23107330 0 3884.63658402 0 42.46867690 0 1034.92245017 0 20955
0.13950000 0.13949800 11253.57877593 0 204.94873239 0 4190.14417042 0 233.03811323 0 1395.29008435 0 20506
0.14050000 0.14048300 11131.11886343 0 -42.08358145 0 3916.05984186 0 498.94774437 0 1168.98283738 0 21447
0.14150000 0.14148400 11189.02712223 0 18.05486502 0 3930.35421320 0 240.05685993 0 1189.24519180 0 21771
0.14250000 0.14249400 11130.78669369 0 -31.37708624 0 3532.14912342 0 202.11200277 0 1217.20281196 0 22470
0.14350000 0.14350900 11097.34827274 0 26.86921064 0 3396.93389274 0 362.43483722 0 1195.76679111 0 22519
0.14450000 0.14449900 11079.07893679 0 87.22389961 0 3583.40291501 0 -290.89654657 0 592.17007595 0 22218
0.14550000 0.14550500 10862.85857773 0 304.25641369 0 3290.05274126 0 -210.74730890 0 -117.60580529 0 23559
0.14650000 0.14650700 10661.70765275 0 419.56249712 0 3787.98626068 0 -333.25372516 0 307.85049033 0 23044
0.14750000 0.14750500 10279.31384281 0 305.32600027 0 3560.79322773 0 -191.70623191 0 170.54923365 0 23649
0.14850000 0.14849900 10093.44272608 0 138.21250901 0 3832.13161973 0 154.90403868 0 747.44393028 0 23640
0.14950000 0.14949500 10162.36794808 0 95.34223889 0 3675.87897189 0 401.65522619 0 185.27542566 0 24457
0.15050000 0.15050000 10019.04777562 0 0.77273423 0 3602.50267532 0 407.20578262 0 673.57380802 0 24591
0.15150000 0.15149900 10109.94049006 0 -77.87664300 0 3529.09316177 0 21.37645174 0 440.39950520 0 25020
0.15250000 0.15250500 10105.77729593 0 159.59316824 0 3402.87973116 0 204.14488161 0 845.00439872 0 25297
0.15350000 0.15350100 9981.98870445 0 108.72768308 0 3211.61639225 0 33.77014780 0 510.61354580 0 25452
0.15450000 0.15450400 9870.68969538 0 78.83761007 0 3156.22155118 0 57.94258301 0 458.06318498 0 26061
0.15550000 0.15549900 9785.07847988 0 218.59094380 0 3197.83134785 0 161.34370279 0 473.27323758 0 26128
0.15650000 0.15649500 9800.60187928 0 -39.92481028 0 3017.93928652 0 401.50242811 0 356.92524839 0 26331
0.15750000 0.15749700 9693.25569016 0 55.68936491 0 2860.70120177 0 237.33306802 0 456.30489980 0 27345
0.15850000 0.15849900 9553.50080630 0 317.44244532 0 2948.93655825 0 -56.77102032 0 413.24795028 0 26980
0.15950000 0.15949700 9335.37600737 0 255.14179526 0 3120.22542319 0 -90.05077486 0 728.93321765 0 27777
0.16050000 0.16050000 9195.63219583 0 119.09835468 0 3282.41283714 0 -139.61758703 0 705.68576446 0 28224
0.16150000 0.16150500 9085.67293806 0 129.44987115 0 3448.78558986 0 75.30088807 0 731.87402712 0 28075
0.16250000 0.16249700 9130.87016797 0 14.97244051 0 3365.55492420 0 274.87932148 0 864.23038353 0 28590
0.16350000 0.16349900 9087.14555726 0 -3.22802558 0 2999.52601035 0 370.79112076 0 574.86513949 0 29163
0.16450000 0.16449100 9158.28524422 0 -7.49482345 0 2785.32081440 0 503.99783172 0 675.10178884 0 28996
0.16550000 0.16550500 8958.89481889 0 98.00457939 0 2614.60771035 0 19.75147735 0 495.89842612 0 30777
0.16650000 0.16650700 9125.26757161 0 65.79496505 0 2390.31562650 0 76.83274421 0 454.41817565 0 29211
0.16750000 0.16749900 8878.46545140 0 -52.29702603 0 2277.15646685 0 -122.11667042 0 100.23177753 0 30922
0.16850000 0.16850800 8929.47565184 0 190.72300947 0 2291.32904262 0 -138.68861898 0 -32.76378420 0 30867
0.16950000 0.16949900 8761.49741202 0 256.30771106 0 2293.98640058 0 -245.01836868 0 -347.03212616 0 30852
0.17050000 0.17049200 8498.71792710 0 330.94514543 0 2158.09575808 0 -39.90056189 0 -276.04302282 0 31257
0.17150000 0.17149500 8328.39235441 0 149.29258446 0 2303.47538295 0 208.64688888 0 -151.56241105 0 32608
0.17250000 0.17250900 8181.91656939 0 87.36119644 0 2173.08768588 0 257.26878886 0 -154.65934030 0 32361
0.17350000 0.17350400 8180.22250369 0 13.66380244 0 2014.69807935 0 517.81941479 0 -363.43023922 0 32508
0.17450000 0.17449800 7953.70488255 0 191.68408726 0 2016.91254431 0 160.82994692 0 13.18215631 0 32791
0.17550000 0.17549800 8061.71541116 0 113.85117995 0 1927.79140185 0 244.27430845 0 142.38456101 0 33633
0.17650000 0.17650100 7941.45889130 0 -140.92190690 0 2094.76206011 0 -63.52093098 0 227.24285842 0 33984
0.17750000 0.17750300 8062.50154622 0 87.45110371 0 2009.61588226 0 -133.80350927 0 183.95560454 0 34069
0.17850000 0.17849800 8095.92889485 0 102.23631121 0 2434.42776858 0 -350.23313527 0 400.72404367 0 34536
