### header ###
fiducial parameters:
Omega_m = 0.31
Omega_nu = 0
Omega_de = 0.69
Omega_k = 0
H_0 = 100
w_de = -1
zeff = 0
beta = 0
fgrowth = 0
b_1 = 2
gamma = 0.55
Lx = 3500 Ly = 3500 Lz = 3500
nx = 700 ny = 700 nz = 700
xoffset = -685.467585 yoffset = -31.7331281 zoffset = 572.489161
bins = 400 dk = 0.001
kx_ny = 0.628318531 ky_ny = 0.628318531 kz_ny = 0.628318531
############################
A(data) = 8.06042593 (not used)
A(ran) = 8.0547031 (used)
Ngal = 478688
weighted Ngal = 0
Nran = 23820508
weighted Nran = 0
SN(data) = 3496.41438
SN(ran) = 70.1593852
SN(data+ran) = 3566.57376
############################
13 columns: k_central k_mean P_0(k) sigma^{lin}_{P_0(k)} P^img_1(k) sigma^{lin}_{P_1(k)} P_2(k) sigma^{lin}_{P_2(k)} P^img_3(k) sigma^{lin}_{P_3(k)} P_4(k) sigma^{lin}_{P_4(k)} N_modes
### header ###
0.00050000 0 0 0 0 0 0 0 0 0 0 0 0
0.00150000 0.00179520 14954.28190006 0 -22277.96042811 0 -5944.12221727 0 -5392.51006713 0 -26370.07023458 0 3
0.00250000 0.00253879 24469.28423297 0 -17346.45767713 0 -3330.25635268 0 -9248.91222286 0 12492.57192313 0 6
0.00350000 0.00331552 33800.15380414 0 -11299.63964717 0 -6325.03233568 0 -10846.80370674 0 17845.59807996 0 7
0.00450000 0.00420575 34475.01200183 0 -1464.29281262 0 -2637.49420575 0 -12825.73817693 0 5187.19594801 0 24
0.00550000 0.00557378 43160.03286633 0 -9902.64442480 0 -2840.77101710 0 3380.72400920 0 -8591.53722605 0 45
0.00650000 0.00659388 44962.38590031 0 -10911.03426301 0 -1748.34223351 0 -3440.86887762 0 -20634.16308553 0 40
0.00750000 0.00754703 52813.99287571 0 725.47311614 0 10884.85928714 0 -20934.33381137 0 -16658.20196641 0 57
0.00850000 0.00846663 57101.08632224 0 3579.04041903 0 -3312.95030899 0 -6562.75514953 0 -6299.85386904 0 75
0.00950000 0.00948925 53440.24356745 0 -933.27850834 0 5156.69169314 0 -7003.27866477 0 -10305.32273381 0 112
0.01050000 0.01054430 67119.54726465 0 -8103.90096872 0 18729.50177023 0 -1616.91373792 0 9578.67927294 0 105
0.01150000 0.01145670 65250.31738876 0 -597.24230795 0 14934.35171539 0 -6312.34345144 0 -4357.49128773 0 144
0.01250000 0.01249090 73468.97193190 0 2572.87611811 0 28871.52985761 0 -1615.00929805 0 17974.59066409 0 169
0.01350000 0.01339930 69859.72621077 0 2307.21782874 0 30627.48985060 0 -3259.40454616 0 3699.64018095 0 180
0.01450000 0.01448870 79457.54953331 0 1906.23358543 0 44391.49683266 0 17472.90362656 0 44222.75460243 0 267
0.01550000 0.01550050 80002.30791439 0 -8700.83214434 0 46093.20243404 0 17599.68174573 0 36453.52572368 0 238
0.01650000 0.01653350 88389.26179477 0 -11651.85029965 0 27951.97328142 0 33283.29768160 0 34960.64416838 0 315
0.01750000 0.01747870 99380.31574925 0 -8802.44286920 0 24320.25074091 0 34566.35868159 0 26683.52775020 0 297
0.01850000 0.01844180 106321.99907105 0 -7224.95767996 0 14387.93248559 0 3262.72624361 0 13129.11987696 0 388
0.01950000 0.01947590 94854.28153313 0 8373.62280130 0 10507.20443223 0 2351.09745199 0 18322.48310990 0 399
0.02050000 0.02045430 97752.35183116 0 12879.88184529 0 28265.54152029 0 -16475.61933015 0 17751.92621199 0 462
0.02150000 0.02154770 80183.78331817 0 7175.84084707 0 23716.03397555 0 2170.88429324 0 13599.47223525 0 571
0.02250000 0.02255340 74367.71253743 0 4456.07926791 0 31304.67323651 0 9395.07798279 0 13610.32311358 0 510
0.02350000 0.02348930 73183.52739808 0 2146.95699931 0 14033.61809139 0 11209.62164640 0 3667.68545153 0 555
0.02450000 0.02439640 73810.88532230 0 -1478.63147326 0 24064.14786785 0 503.61472928 0 -1374.68448786 0 592
0.02550000 0.02547300 71090.96873060 0 2141.69764502 0 15045.73930307 0 7269.14732831 0 -9273.16061421 0 837
0.02650000 0.02652900 68506.02377844 0 159.86665466 0 4806.56263772 0 -2036.25589577 0 -11913.82150486 0 723
0.02750000 0.02749970 65137.49039886 0 4257.26460347 0 5922.33188202 0 -1591.59133106 0 -14038.04702132 0 826
0.02850000 0.02848090 64950.47883268 0 4070.68485795 0 -581.00695807 0 -4199.68851441 0 -13533.03828634 0 831
0.02950000 0.02946900 59087.90428770 0 2431.01749253 0 1836.28970955 0 1131.23728207 0 -16627.97451965 0 996
0.03050000 0.03053250 59745.48965868 0 1413.70336052 0 7855.39371049 0 -5330.04001050 0 -18244.31249668 0 1041
0.03150000 0.03150510 57891.42886780 0 2684.65123715 0 12334.23767823 0 -7825.29913163 0 -11301.52194239 0 1036
0.03250000 0.03246190 58599.94693294 0 3847.85432098 0 21136.95735555 0 -5358.06406462 0 -10911.77610878 0 1059
0.03350000 0.03345080 54520.68102326 0 2199.60590382 0 23313.33352190 0 -7286.59731223 0 446.98975293 0 1302
0.03450000 0.03451200 52972.77001361 0 3593.64481546 0 30037.22421452 0 -2003.78076708 0 -4551.40091228 0 1339
0.03550000 0.03553350 52611.92294777 0 1447.27464937 0 27239.24773285 0 867.39153227 0 -3494.10461535 0 1365
0.03650000 0.03647120 50129.06483044 0 1526.96217109 0 25966.81616469 0 6329.46126560 0 -6789.15097510 0 1308
0.03750000 0.03744890 50614.03265749 0 178.13709784 0 20279.29507510 0 4044.80883485 0 -7266.78892313 0 1579
0.03850000 0.03847530 49359.20608580 0 -2480.86509887 0 13706.98450924 0 7506.99193774 0 -14990.93129521 0 1662
0.03950000 0.03950240 51055.15407827 0 -250.42055596 0 15665.90021616 0 -116.66908661 0 -13565.03730507 0 1683
0.04050000 0.04050350 49135.32367796 0 3104.54701125 0 16633.62140531 0 -1943.87948981 0 -10708.39964651 0 1822
0.04150000 0.04152450 46619.24858617 0 3455.45112940 0 18019.43357961 0 -517.73526513 0 -8324.05200309 0 1887
0.04250000 0.04250150 46168.16207306 0 2830.17480224 0 20315.94447025 0 825.28569545 0 4270.63997185 0 1920
0.04350000 0.04349210 43287.03243200 0 2449.39755173 0 22905.65052208 0 1721.11538678 0 883.60805920 0 2005
0.04450000 0.04448520 42172.38149251 0 611.30083877 0 21143.71147369 0 5169.18127553 0 6464.77614721 0 2151
0.04550000 0.04548030 41018.53452316 0 857.43529779 0 19685.81846482 0 5751.61877797 0 7562.15425999 0 2274
0.04650000 0.04648670 42676.17227176 0 -353.55372548 0 18952.94128507 0 3603.38846131 0 4151.94464980 0 2311
0.04750000 0.04749250 39779.31992945 0 -402.60301720 0 17479.21485171 0 4777.24312160 0 5318.94554103 0 2568
0.04850000 0.04851840 40665.88097768 0 1463.30737571 0 15700.88876259 0 -2116.95099905 0 1712.94401107 0 2493
0.04950000 0.04949480 38623.70138813 0 1786.84070691 0 16254.94789651 0 159.65295879 0 3864.92784585 0 2644
0.05050000 0.05050630 39383.81648693 0 649.12832928 0 17056.25204364 0 337.45124350 0 469.08346987 0 2829
0.05150000 0.05149060 37709.79169760 0 753.59903564 0 16209.10847176 0 698.20087288 0 -512.54345202 0 2784
0.05250000 0.05249300 37576.48090678 0 560.42350623 0 17300.39680589 0 -1062.40506760 0 -1525.05773122 0 3055
0.05350000 0.05348950 36704.09243432 0 1045.66039078 0 15975.92531108 0 495.69137364 0 997.19239612 0 3009
0.05450000 0.05448610 35748.55080247 0 921.21299598 0 15239.50498739 0 2793.79114289 0 -2208.40840205 0 3336
0.05550000 0.05550870 35614.13277918 0 -282.62773439 0 14354.49406464 0 137.32672303 0 -4014.44852020 0 3349
0.05650000 0.05647670 35842.99773318 0 34.06489309 0 13858.89680576 0 1295.29591891 0 -2253.43954709 0 3324
0.05750000 0.05747970 36921.22072402 0 -451.92247364 0 14822.63195797 0 -1283.53710995 0 -1271.09181686 0 3639
0.05850000 0.05849280 36787.13487046 0 -712.17525403 0 15060.02260208 0 1069.66519099 0 -1006.15765753 0 3846
0.05950000 0.05951020 37867.79377276 0 5.08461086 0 17792.11875108 0 831.32897034 0 -2462.79506476 0 3787
0.06050000 0.06049470 37403.64191637 0 2290.22181014 0 17911.25696613 0 -1716.34321479 0 476.83077555 0 3930
0.06150000 0.06148310 35434.76111711 0 3074.88425306 0 17565.24681555 0 1880.50150255 0 395.61527300 0 4083
0.06250000 0.06249100 33332.90169679 0 1220.93418543 0 16764.27483817 0 2571.84639190 0 5375.55833783 0 4303
0.06350000 0.06350600 32360.41940797 0 466.07511922 0 15077.18470555 0 4924.68219889 0 2665.02000525 0 4470
0.06450000 0.06451750 32450.88030174 0 -122.32925906 0 14332.57086150 0 3797.43095375 0 3265.83756688 0 4479
0.06550000 0.06550280 32286.78844792 0 -282.99533557 0 11633.80241020 0 3182.99443259 0 1817.42246806 0 4636
0.06650000 0.06648880 30901.30844337 0 456.28939854 0 9329.99485751 0 2135.19819035 0 2650.50418741 0 4653
0.06750000 0.06749660 30316.35752320 0 1050.59975488 0 8776.20145938 0 1685.78359829 0 3245.84094826 0 5220
0.06850000 0.06852730 29751.55823420 0 624.59537918 0 6215.49382625 0 1317.94989549 0 2577.71472405 0 5029
0.06950000 0.06949320 29137.26565326 0 300.40656635 0 7803.16555432 0 1249.52292811 0 4222.13211682 0 5040
0.07050000 0.07048030 28884.26303115 0 478.73189372 0 6310.54973481 0 137.35883277 0 3848.47437117 0 5475
0.07150000 0.07148790 28079.85863308 0 180.58518886 0 5380.61839027 0 2031.74945957 0 5306.79920070 0 5509
0.07250000 0.07249820 28359.76700450 0 -142.72448138 0 5884.88527949 0 25.72400008 0 3555.00240185 0 5916
0.07350000 0.07351270 28300.30862022 0 308.79606687 0 7373.54827903 0 -1524.36017476 0 3003.94386795 0 5721
0.07450000 0.07449140 27959.39173905 0 1489.16125416 0 6849.11868632 0 -2337.51170944 0 2826.50986273 0 6028
0.07550000 0.07549160 26877.84705077 0 1327.42780553 0 9470.27014064 0 -1677.16932958 0 3053.89112521 0 6183
0.07650000 0.07648840 26229.56243264 0 240.49643122 0 8776.51148447 0 -1728.95459276 0 901.56294113 0 6330
0.07750000 0.07749960 25984.19971465 0 305.83089828 0 10107.90318229 0 416.30280469 0 561.07677340 0 6583
0.07850000 0.07848650 25467.56503862 0 618.98613943 0 8894.86356446 0 556.75413779 0 -931.16812323 0 6549
0.07950000 0.07947320 25228.29209929 0 262.43735008 0 7395.32754195 0 2845.33281492 0 -1517.56176732 0 6828
0.08050000 0.08048110 24769.01206581 0 234.44319125 0 6662.58323010 0 1085.09447562 0 -2360.28748159 0 7147
0.08150000 0.08149960 24417.24430632 0 577.10728527 0 6865.78253517 0 240.28384259 0 -1877.54519182 0 7386
0.08250000 0.08250610 24327.11558230 0 187.59397047 0 6205.22978114 0 -191.22015685 0 -646.80092661 0 7227
0.08350000 0.08350160 24054.51494526 0 -77.86479561 0 7231.99967855 0 -60.35967152 0 390.19426277 0 7798
0.08450000 0.08449610 23798.74424195 0 584.94649124 0 7665.92408819 0 126.24111142 0 897.76291925 0 7371
0.08550000 0.08548940 23418.29916118 0 745.18074708 0 8345.70947043 0 773.34874142 0 1570.38782903 0 8256
0.08650000 0.08650700 22474.60491689 0 1036.48696967 0 8055.84707900 0 443.03693297 0 1881.04404647 0 8037
0.08750000 0.08749060 22184.84217638 0 627.05675699 0 6874.41894853 0 923.19162043 0 1206.70624804 0 8155
0.08850000 0.08849210 21505.11215577 0 66.25767750 0 6607.14409973 0 239.75015653 0 580.32490286 0 8718
0.08950000 0.08949900 21634.43690965 0 -165.37513626 0 6427.60635280 0 847.40820044 0 -374.23461378 0 8571
0.09050000 0.09049190 21233.17585822 0 59.66720832 0 4936.45208017 0 579.44354580 0 -1005.00392128 0 8932
0.09150000 0.09150830 20839.11181793 0 832.93667190 0 4711.83889890 0 455.97273005 0 -1897.84076322 0 9285
0.09250000 0.09250820 20349.82578419 0 493.00079871 0 3902.87270300 0 -78.51108721 0 -1341.70003222 0 9204
0.09350000 0.09350330 19714.82795584 0 725.00697127 0 4902.80328505 0 466.82360838 0 -1282.97242139 0 9349
0.09450000 0.09448040 19472.45476556 0 630.51464403 0 4433.10419392 0 -114.16452674 0 -1075.75275517 0 9564
0.09550000 0.09549270 18719.53667789 0 576.86369412 0 5176.92083058 0 -20.26855492 0 -117.98558604 0 10155
0.09650000 0.09649430 18448.70761283 0 385.56492376 0 5442.02550372 0 410.36803859 0 895.60824484 0 9913
0.09750000 0.09749140 18169.02068791 0 507.69377375 0 5204.35805148 0 103.29261100 0 1068.94770434 0 10476
0.09850000 0.09850240 17983.66997045 0 4.28084866 0 5844.30520903 0 1001.79848324 0 871.54143961 0 10575
0.09950000 0.09950330 18024.74829552 0 -143.49290072 0 5230.71018455 0 74.98776273 0 1778.04928100 0 10882
0.10050000 0.10051200 18198.14090218 0 150.27691414 0 5427.94150655 0 -186.70597002 0 784.19297635 0 10875
0.10150000 0.10150300 18029.73084169 0 473.03296813 0 6188.78737878 0 -783.51977900 0 888.44777238 0 11118
0.10250000 0.10250800 17584.51266073 0 644.67504024 0 6362.88861423 0 -909.79964356 0 414.05401552 0 11575
0.10350000 0.10349800 16935.67442636 0 514.33163248 0 7020.83937193 0 -278.31506387 0 952.67832865 0 11364
0.10450000 0.10450100 16894.04248504 0 353.44964563 0 6723.94605424 0 -126.21453784 0 814.30969986 0 12093
0.10550000 0.10551000 16690.20098513 0 -28.36009917 0 6990.63406983 0 282.84585919 0 -73.25560823 0 12067
0.10650000 0.10649700 16678.79649057 0 140.46904881 0 7012.64585156 0 483.56496350 0 -252.03047199 0 12054
0.10750000 0.10749900 16397.33799368 0 442.12235894 0 6575.01221311 0 264.49790973 0 -323.01071747 0 12807
0.10850000 0.10850100 15749.27482204 0 605.48565378 0 6599.90279930 0 442.32498248 0 -56.33831387 0 12736
0.10950000 0.10950300 15325.09405824 0 279.66699473 0 5774.13988665 0 843.71115118 0 169.89043032 0 12933
0.11050000 0.11050200 15191.11892793 0 22.23511053 0 5575.84562147 0 929.74532949 0 147.50994016 0 13428
0.11150000 0.11150900 15339.82025025 0 -306.57495851 0 4985.66856399 0 966.19320832 0 1.74174313 0 13453
0.11250000 0.11250000 15359.97188142 0 -116.82742086 0 5353.03722915 0 508.82536534 0 60.55808758 0 13668
0.11350000 0.11349100 15320.99729806 0 392.88373047 0 4513.36747653 0 -119.04963645 0 439.32991862 0 13791
0.11450000 0.11448600 15152.80868406 0 312.34142527 0 4852.78959384 0 415.10035022 0 682.52024647 0 14205
0.11550000 0.11549300 14950.84947937 0 136.51733608 0 4823.08254635 0 -520.60410449 0 436.24959785 0 14776
0.11650000 0.11649800 14620.56203003 0 350.51658678 0 4767.59912669 0 -58.93244885 0 -26.63503097 0 14553
0.11750000 0.11747300 14615.80093036 0 169.80960235 0 4687.28048245 0 318.41570267 0 -140.33618091 0 14568
0.11850000 0.11849100 14206.01418882 0 -109.85074899 0 3805.02656858 0 158.27113266 0 -303.16689693 0 16015
0.11950000 0.11950300 14466.98888480 0 -80.21788608 0 3915.56158724 0 598.72489224 0 -562.46413569 0 15270
0.12050000 0.12050700 14432.22178486 0 -84.53542842 0 3692.80855654 0 598.53887719 0 -1199.67532178 0 15999
0.12150000 0.12150000 14266.57980558 0 300.47189307 0 3031.61360767 0 406.72967266 0 -820.18799710 0 15670
0.12250000 0.12250700 14072.37122826 0 318.04256532 0 2743.97675353 0 112.16154318 0 -1092.57604550 0 16887
0.12350000 0.12352200 14039.70787004 0 215.92251352 0 3235.12293784 0 -149.23057944 0 -381.01419826 0 16407
0.12450000 0.12449800 13773.63990465 0 404.15424990 0 3408.13908545 0 39.22858249 0 -382.72597968 0 16306
0.12550000 0.12549900 13387.99083122 0 402.17894716 0 3669.65632534 0 -93.02557637 0 252.87750484 0 17523
0.12650000 0.12650100 13399.61677228 0 34.21149067 0 3515.87280594 0 206.70701757 0 596.35762920 0 17154
0.12750000 0.12750600 13273.28154610 0 -34.55096815 0 3936.06753281 0 311.76455715 0 324.52984043 0 18007
0.12850000 0.12850300 13076.08344108 0 230.52580272 0 3867.16445546 0 139.89993132 0 567.30163441 0 17496
0.12950000 0.12949900 13054.16023794 0 268.07205618 0 3916.86812157 0 226.96494306 0 397.31487486 0 18405
0.13050000 0.13049000 12676.81540812 0 334.28455860 0 3753.04200355 0 -194.07903112 0 921.87069208 0 18100
0.13150000 0.13148800 12488.47516295 0 447.66737921 0 3552.12359739 0 279.52637621 0 97.15953956 0 19059
0.13250000 0.13249300 12067.61609659 0 260.06344364 0 3342.01516164 0 -91.27570615 0 634.58372340 0 18957
0.13350000 0.13349100 11850.15563716 0 184.87571473 0 3447.43476623 0 48.66906808 0 544.89124898 0 19468
0.13450000 0.13450700 12106.14778696 0 -95.28698799 0 3554.94704022 0 340.96892109 0 536.71544433 0 19953
0.13550000 0.13551000 11928.21552713 0 -91.23185975 0 3429.14328563 0 34.81969347 0 623.54350832 0 19956
0.13650000 0.13649900 11998.52478973 0 107.62189000 0 3387.98745428 0 49.88137692 0 329.69840166 0 19723
0.13750000 0.13749600 12130.83907131 0 26.81872084 0 3939.68818302 0 74.70176458 0 993.89948672 0 20946
0.13850000 0.13851100 12025.43053904 0 158.40067886 0 3830.19396289 0 -131.59900940 0 471.95341646 0 20955
0.13950000 0.13949800 11866.87484763 0 232.50664163 0 4018.14667669 0 -221.79859630 0 885.12718216 0 20506
0.14050000 0.14048300 11844.39802825 0 180.36595683 0 4201.42686941 0 -116.30148543 0 488.85199860 0 21447
0.14150000 0.14148400 11513.33551617 0 276.36854917 0 4352.39801831 0 258.45352761 0 974.74104308 0 21771
0.14250000 0.14249400 11503.14897734 0 186.08924153 0 4136.36588878 0 150.36327827 0 509.25607878 0 22470
0.14350000 0.14350900 11164.44656114 0 85.87362960 0 3931.88219402 0 691.76120876 0 879.62091503 0 22519
0.14450000 0.14449900 11152.82062008 0 189.87486939 0 3235.62119245 0 470.38003911 0 838.93676472 0 22218
0.14550000 0.14550500 11175.07599296 0 2.34521805 0 3413.54237996 0 504.08308862 0 899.81240657 0 23559
0.14650000 0.14650700 11008.63680629 0 10.44517727 0 3002.75912919 0 149.46088380 0 783.68364941 0 23044
0.14750000 0.14750500 10962.39877785 0 115.74786919 0 3028.70158624 0 -101.10615902 0 412.68879787 0 23649
0.14850000 0.14849900 10904.45730207 0 183.27022763 0 3140.12239089 0 -119.24893830 0 743.17222736 0 23640
0.14950000 0.14949500 10665.37259226 0 297.88650522 0 3082.40236161 0 -133.16906506 0 559.49564541 0 24457
0.15050000 0.15050000 10394.14492350 0 304.33724166 0 2927.40088648 0 -14.02941061 0 509.36680203 0 24591
0.15150000 0.15149900 10161.33822187 0 227.42555177 0 3238.81002200 0 5.90473796 0 360.99322053 0 25020
0.15250000 0.15250500 9912.67595109 0 214.22955506 0 2855.72972793 0 374.05302765 0 600.27944665 0 25297
0.15350000 0.15350100 9811.80707199 0 136.85393476 0 2904.29294458 0 272.52866692 0 639.25735171 0 25452
0.15450000 0.15450400 9664.10225891 0 112.41509942 0 2674.11038393 0 185.06062255 0 366.69325334 0 26061
0.15550000 0.15549900 9727.08164248 0 33.58025743 0 2543.49016804 0 114.68271154 0 593.73348822 0 26128
0.15650000 0.15649500 9393.50571267 0 91.43282244 0 2751.92668275 0 85.10343868 0 363.64947125 0 26331
0.15750000 0.15749700 9660.38195777 0 138.46717248 0 2717.43639094 0 84.46002589 0 878.06525340 0 27345
0.15850000 0.15849900 9364.21941352 0 58.79792010 0 2651.07994830 0 339.53616226 0 365.12209045 0 26980
0.15950000 0.15949700 9442.71112416 0 11.63978147 0 2510.92646075 0 244.43374993 0 1191.89147743 0 27777
0.16050000 0.16050000 9554.59696646 0 -32.15857093 0 2579.69667020 0 243.87902646 0 593.94275515 0 28224
0.16150000 0.16150500 9413.55769292 0 185.15141562 0 2616.17998047 0 -17.86386742 0 801.27757355 0 28075
0.16250000 0.16249700 9429.28039416 0 195.79302700 0 2754.14114771 0 -123.03567338 0 892.30647758 0 28590
0.16350000 0.16349900 9269.68390422 0 123.34348401 0 2648.51116895 0 -167.65271347 0 891.88130030 0 29163
0.16450000 0.16449100 9094.69688279 0 136.59373513 0 2793.64720267 0 23.57740847 0 1158.91809412 0 28996
0.16550000 0.16550500 9135.53161672 0 127.78237903 0 3050.53621079 0 58.73126471 0 831.14738421 0 30777
0.16650000 0.16650700 8912.41319930 0 256.79489336 0 3041.26867491 0 133.79908034 0 1034.84494390 0 29211
0.16750000 0.16749900 8776.06859148 0 323.39824884 0 3077.77412984 0 -10.07467514 0 974.20735703 0 30922
0.16850000 0.16850800 8454.21825365 0 251.12586305 0 3053.02748387 0 -114.55537981 0 1188.62514161 0 30867
0.16950000 0.16949900 8298.85139180 0 132.02861560 0 2912.86292399 0 196.61791520 0 808.21992121 0 30852
0.17050000 0.17049200 8266.13267196 0 -93.89519676 0 2861.62020473 0 160.84323371 0 1140.75948142 0 31257
0.17150000 0.17149500 8391.86999260 0 -87.17551355 0 2722.16427364 0 119.65086369 0 382.43699200 0 32608
0.17250000 0.17250900 8341.77879512 0 66.54223625 0 2663.19307165 0 121.73799692 0 498.09738983 0 32361
0.17350000 0.17350400 8272.58783733 0 101.31941199 0 2424.90556923 0 134.37484123 0 629.95549163 0 32508
0.17450000 0.17449800 8235.93844218 0 102.86710156 0 2261.97630953 0 100.25669026 0 317.03941269 0 32791
0.17550000 0.17549800 8173.99985714 0 42.77748404 0 2339.22791979 0 216.08195500 0 439.07193345 0 33633
0.17650000 0.17650100 8084.75691910 0 112.54464562 0 2027.51983149 0 178.48587608 0 359.20171837 0 33984
0.17750000 0.17750300 8048.10752395 0 62.27717673 0 2024.70746099 0 198.65300850 0 258.13243019 0 34069
0.17850000 0.17849800 7871.39321985 0 90.73903057 0 1946.93545146 0 167.95277348 0 251.61858150 0 34536
