### header ###
fiducial parameters:
Omega_m = 0.31
Omega_nu = 0
Omega_de = 0.69
Omega_k = 0
H_0 = 100
w_de = -1
zeff = 0
beta = 0
fgrowth = 0
b_1 = 2
gamma = 0.55
Lx = 3500 Ly = 3500 Lz = 3500
nx = 700 ny = 700 nz = 700
xoffset = -685.467585 yoffset = -31.7331281 zoffset = 572.489161
bins = 400 dk = 0.001
kx_ny = 0.628318531 ky_ny = 0.628318531 kz_ny = 0.628318531
############################
A(data) = 8.03056964 (not used)
A(ran) = 8.03108596 (used)
Ngal = 477094
weighted Ngal = 0
Nran = 23820508
weighted Nran = 0
SN(data) = 3486.66235
SN(ran) = 69.9536714
SN(data+ran) = 3556.61602
############################
13 columns: k_central k_mean P_0(k) sigma^{lin}_{P_0(k)} P^img_1(k) sigma^{lin}_{P_1(k)} P_2(k) sigma^{lin}_{P_2(k)} P^img_3(k) sigma^{lin}_{P_3(k)} P_4(k) sigma^{lin}_{P_4(k)} N_modes
### header ###
0.00050000 0 0 0 0 0 0 0 0 0 0 0 0
0.00150000 0.00179520 5761.91604005 0 -7752.00034133 0 15622.49670287 0 -35905.00275216 0 -13198.32190707 0 3
0.00250000 0.00253879 16909.54373979 0 -15386.87763073 0 -13028.36172111 0 5848.39089688 0 -17773.84941513 0 6
0.00350000 0.00331552 24656.07435266 0 -8633.83350686 0 1896.37921634 0 -18597.07676540 0 11077.08591832 0 7
0.00450000 0.00420575 37998.89009862 0 -6185.31066879 0 5680.70053751 0 -23808.93078078 0 3396.51314439 0 24
0.00550000 0.00557378 51923.33506730 0 -9994.55579312 0 26966.64709581 0 1982.85407317 0 19881.79861411 0 45
0.00650000 0.00659388 43898.00331549 0 -1293.94509528 0 8494.85368574 0 4823.13790798 0 -10195.51848858 0 40
0.00750000 0.00754703 68148.60913329 0 -5710.89476729 0 25971.79871086 0 15958.09886812 0 -2704.78072367 0 57
0.00850000 0.00846663 64836.98750328 0 -1625.94875497 0 27703.28886600 0 5618.09761298 0 1340.36028092 0 75
0.00950000 0.00948925 66059.70433301 0 7040.59239941 0 20077.33587040 0 2487.80744653 0 17729.78156235 0 112
0.01050000 0.01054430 69526.11706398 0 -7503.98026539 0 46870.25818981 0 -5216.02828184 0 44214.00746582 0 105
0.01150000 0.01145670 69908.00154698 0 7747.44961583 0 54196.70479906 0 34655.60161963 0 31577.16315030 0 144
0.01250000 0.01249090 68142.85152439 0 5239.93343113 0 48992.82285755 0 26373.72410177 0 27951.19821869 0 169
0.01350000 0.01339930 68741.42140408 0 -7034.03758311 0 56262.46844048 0 19203.72944221 0 53696.67861025 0 180
0.01450000 0.01448870 76722.13168687 0 -3987.01129930 0 55075.95811291 0 23259.74346978 0 26951.36728756 0 267
0.01550000 0.01550050 82972.90193999 0 -2077.46708875 0 59952.43140954 0 15185.91493527 0 61269.81661646 0 238
0.01650000 0.01653350 78554.04782811 0 8073.80638986 0 52025.42190213 0 5739.58316089 0 50808.46268131 0 315
0.01750000 0.01747870 84243.22976643 0 4206.68622370 0 65866.49226492 0 24541.58651403 0 81502.27575757 0 297
0.01850000 0.01844180 78885.44250993 0 -273.82745062 0 62273.63358452 0 12640.27673621 0 56749.42928600 0 388
0.01950000 0.01947590 84497.00745127 0 -531.65428465 0 60616.99234515 0 26347.15052221 0 38938.48758273 0 399
0.02050000 0.02045430 81675.66836423 0 2152.75889751 0 63867.27329567 0 4510.73226322 0 26947.82414362 0 462
0.02150000 0.02154770 84319.73953093 0 5547.61119319 0 55445.77376185 0 3461.30838923 0 27624.45391329 0 571
0.02250000 0.02255340 77570.71466097 0 1745.83988810 0 54303.55273356 0 7176.08443821 0 17492.61236474 0 510
0.02350000 0.02348930 74836.84694000 0 -3527.47660235 0 40547.29637888 0 7325.70476349 0 2380.41696811 0 555
0.02450000 0.02439640 82122.21522417 0 -5654.07159632 0 34600.90433502 0 18363.45071172 0 -6192.16443785 0 592
0.02550000 0.02547300 76840.27339268 0 1810.87872409 0 18135.58226696 0 18307.31402489 0 -12428.90605543 0 837
0.02650000 0.02652900 77588.76255042 0 219.52544802 0 9370.75208517 0 12528.00336255 0 -19274.81376755 0 723
0.02750000 0.02749970 78178.80674001 0 -3932.23650842 0 7509.64929570 0 1633.21220005 0 -22476.70865860 0 826
0.02850000 0.02848090 70550.30710971 0 7188.99476895 0 15215.25659604 0 -9602.11938458 0 -16424.24374299 0 831
0.02950000 0.02946900 68767.77353715 0 10013.62233646 0 11562.38591512 0 -12240.34436377 0 -9629.31301433 0 996
0.03050000 0.03053250 65336.79224560 0 2601.21019732 0 20060.94882967 0 -10160.20884474 0 -5842.09074406 0 1041
0.03150000 0.03150510 60725.83329812 0 1736.99310057 0 24662.27485456 0 23.87503256 0 -4716.79930042 0 1036
0.03250000 0.03246190 63304.24557864 0 2318.22371960 0 25319.86022554 0 -3555.47851181 0 100.21871218 0 1059
0.03350000 0.03345080 58824.27223377 0 3849.84733944 0 24101.79377224 0 1326.76346604 0 2157.08817652 0 1302
0.03450000 0.03451200 56921.27176719 0 497.34890067 0 23086.35086312 0 3586.44780433 0 -13744.40896713 0 1339
0.03550000 0.03553350 56974.52964956 0 1838.29380034 0 23182.56936579 0 1659.52004382 0 -10465.72750346 0 1365
0.03650000 0.03647120 55231.19210687 0 1166.11510525 0 26137.21924365 0 18.07091989 0 -7572.06399070 0 1308
0.03750000 0.03744890 54414.71887474 0 1674.77770742 0 25479.52314942 0 -3400.78706177 0 -9637.92728304 0 1579
0.03850000 0.03847530 52882.41984309 0 4482.64177515 0 30342.70965627 0 237.36407053 0 -4114.36517936 0 1662
0.03950000 0.03950240 49267.74868279 0 4287.80207532 0 28425.20444417 0 4357.55772168 0 3760.02864051 0 1683
0.04050000 0.04050350 48307.77812102 0 432.38978542 0 28328.10015551 0 9252.99791072 0 4136.11122530 0 1822
0.04150000 0.04152450 45294.00202863 0 678.52202998 0 25932.38123450 0 9975.89892580 0 6252.47539114 0 1887
0.04250000 0.04250150 44730.64214186 0 2757.50713446 0 21956.86300837 0 7783.98828773 0 5258.41314125 0 1920
0.04350000 0.04349210 41395.99007622 0 1567.78583270 0 16605.16553052 0 4193.07833650 0 5418.14249908 0 2005
0.04450000 0.04448520 41721.84859564 0 -1462.62089157 0 15323.21176302 0 3694.09294622 0 3787.86446511 0 2151
0.04550000 0.04548030 40200.40044231 0 507.05157891 0 12047.68591192 0 -1958.50603090 0 -2047.72682429 0 2274
0.04650000 0.04648670 39311.40348262 0 3273.54390496 0 10607.17645301 0 -1409.52909406 0 -1687.72125513 0 2311
0.04750000 0.04749250 37624.09190350 0 2225.79195202 0 11998.52478973 0 -2785.60869485 0 -2006.89209035 0 2568
0.04850000 0.04851840 36615.07094278 0 35.14001583 0 11173.85803723 0 529.37227851 0 -429.34600333 0 2493
0.04950000 0.04949480 37442.28432998 0 -939.02172322 0 12484.59984926 0 891.84365440 0 -1319.71039513 0 2644
0.05050000 0.05050630 37594.08590325 0 -186.12910190 0 10979.46123039 0 4109.58193504 0 818.76520336 0 2829
0.05150000 0.05149060 37896.58181729 0 311.68372918 0 11874.29330526 0 2596.19443418 0 -298.30614633 0 2784
0.05250000 0.05249300 36879.92095244 0 2521.44516933 0 11874.62547501 0 2583.60520086 0 1664.89012136 0 3055
0.05350000 0.05348950 36062.11904134 0 1840.37539741 0 14636.83834751 0 -2184.43681882 0 5668.95280087 0 3009
0.05450000 0.05448610 33728.07296957 0 1279.10818002 0 14201.91742864 0 1949.79211126 0 6135.88381080 0 3336
0.05550000 0.05550870 33913.86658002 0 -295.85805532 0 14177.89048378 0 2759.28977876 0 9246.77526417 0 3349
0.05650000 0.05647670 34416.66085004 0 -691.51208146 0 12982.19012661 0 2685.39308292 0 4615.17750323 0 3324
0.05750000 0.05747970 35202.02084943 0 -1359.93615120 0 9692.19274698 0 1951.66333416 0 4344.76918651 0 3639
0.05850000 0.05849280 34967.06611677 0 341.45167445 0 9888.18396859 0 1431.29728466 0 1586.16589190 0 3846
0.05950000 0.05951020 34239.17148320 0 542.03348194 0 6623.68615301 0 -1891.69562294 0 845.18819931 0 3787
0.06050000 0.06049470 33747.44953800 0 445.86923366 0 9035.12777526 0 -223.35315071 0 -1960.23331357 0 3930
0.06150000 0.06148310 33860.60869765 0 -276.10502784 0 6144.21019906 0 -125.69967474 0 -1484.03476777 0 4083
0.06250000 0.06249100 34063.56441157 0 177.32549644 0 7983.06868797 0 1095.61650590 0 -1546.18372698 0 4303
0.06350000 0.06350600 34090.02726789 0 -146.12147063 0 7705.77338521 0 476.90163843 0 -1787.91472242 0 4470
0.06450000 0.06451750 34429.72619333 0 473.99293870 0 9731.85381448 0 197.74729233 0 -792.46843192 0 4479
0.06550000 0.06550280 32467.26734247 0 1710.36415939 0 9919.40792458 0 -632.94391210 0 -2364.74962849 0 4636
0.06650000 0.06648880 32566.91826584 0 1306.95507694 0 10259.94834670 0 -2079.73691534 0 -411.78529617 0 4653
0.06750000 0.06749660 31078.79781021 0 1354.86502643 0 11734.00694981 0 -319.64473072 0 -667.56153564 0 5220
0.06850000 0.06852730 29947.09549050 0 723.92520513 0 11438.48660040 0 -791.31358844 0 -1295.83846283 0 5029
0.06950000 0.06949320 29257.28965429 0 427.82909483 0 11725.59198295 0 1283.23815718 0 -3311.94272743 0 5040
0.07050000 0.07048030 28925.23063298 0 659.76772620 0 10505.35535398 0 1014.80292874 0 -3361.30315147 0 5475
0.07150000 0.07148790 28018.40723034 0 687.52050836 0 9217.50003735 0 907.75347793 0 -2520.26043057 0 5509
0.07250000 0.07249820 28042.32345194 0 245.49004972 0 8325.08172929 0 1027.27590265 0 -3837.82279469 0 5916
0.07350000 0.07351270 27451.28275313 0 -93.67164652 0 8534.22687279 0 862.49424300 0 -846.85126250 0 5721
0.07450000 0.07449140 27712.25744910 0 915.58936221 0 8803.71618655 0 1679.51666244 0 265.99488805 0 6028
0.07550000 0.07549160 27026.65909633 0 436.72127889 0 7720.24491375 0 1076.84227193 0 1424.22206910 0 6183
0.07650000 0.07648840 26297.76795352 0 778.71549726 0 7863.67580945 0 1333.93833253 0 1640.07704144 0 6330
0.07750000 0.07749960 25516.50471432 0 748.60652438 0 7954.31386042 0 -297.85218102 0 1591.70205430 0 6583
0.07850000 0.07848650 25308.23428448 0 654.21052637 0 9418.29664794 0 356.56871953 0 1229.52630949 0 6549
0.07950000 0.07947320 24999.20569879 0 40.18489919 0 9014.12357508 0 -892.92099160 0 813.64203867 0 6828
0.08050000 0.08048110 25075.05112380 0 1.90221433 0 9390.91478866 0 -955.39104823 0 -210.60779761 0 7147
0.08150000 0.08149960 24780.19511388 0 550.83598017 0 10055.06604826 0 684.43575866 0 -817.88273908 0 7386
0.08250000 0.08250610 24433.96351680 0 706.53501177 0 8160.46947621 0 1034.35554714 0 -1044.85875446 0 7227
0.08350000 0.08350160 23333.26370657 0 607.48642287 0 7012.35797112 0 1890.11228049 0 -910.66217766 0 7798
0.08450000 0.08449610 23391.17196538 0 613.42783237 0 6813.02290741 0 2250.97041866 0 -846.24117740 0 7371
0.08550000 0.08548940 22297.22627329 0 429.29396340 0 6010.54509385 0 275.69424459 0 -477.78299548 0 8256
0.08650000 0.08650700 21809.37964178 0 770.25402664 0 6500.58404568 0 13.13997076 0 -1214.60081563 0 8037
0.08750000 0.08749060 21498.69020737 0 1035.10182183 0 6841.72237334 0 -1946.57006474 0 -1006.85742845 0 8155
0.08850000 0.08849210 20648.00349156 0 614.28040138 0 7191.61890993 0 -660.01906797 0 -576.52598821 0 8718
0.08950000 0.08949900 20485.57248647 0 295.04423944 0 7688.82165591 0 -1060.65453305 0 -1179.83371570 0 8571
0.09050000 0.09049190 20140.55884512 0 9.92461192 0 7499.76170964 0 1234.25419218 0 -958.79578811 0 8932
0.09150000 0.09150830 20025.51739025 0 338.03696948 0 7450.67809372 0 743.41803297 0 -1994.57966516 0 9285
0.09250000 0.09250820 19508.55054447 0 718.92494324 0 7020.00894757 0 771.53620185 0 -908.76438119 0 9204
0.09350000 0.09350330 19153.35036429 0 481.74910223 0 7074.46264103 0 420.99525595 0 -223.27342997 0 9349
0.09450000 0.09448040 18901.34425141 0 -55.38376874 0 6725.03114208 0 625.67382362 0 29.57096862 0 9564
0.09550000 0.09549270 19103.08200961 0 -231.75593801 0 6621.39418177 0 385.40658952 0 -824.53167013 0 10155
0.09650000 0.09649430 19290.53646879 0 -220.21525385 0 7060.10183574 0 -638.17337111 0 -414.39393590 0 9913
0.09750000 0.09749140 19184.35287378 0 382.98396485 0 6858.17584802 0 -24.93111090 0 -624.62416723 0 10476
0.09850000 0.09850240 19099.53886567 0 685.49870185 0 7220.70590723 0 79.34095795 0 -673.16413200 0 10575
0.09950000 0.09950330 18161.49150703 0 496.97354886 0 6475.82632738 0 604.58436654 0 -1239.22566603 0 10882
0.10050000 0.10051200 17703.09725954 0 383.10243873 0 6102.39002822 0 933.76458340 0 -1495.10709259 0 10875
0.10150000 0.10150300 17249.02121873 0 126.46034345 0 5565.03903245 0 1039.29934017 0 -1995.13328140 0 11118
0.10250000 0.10250800 17620.05482340 0 -98.13645078 0 5813.13661466 0 459.06412314 0 -1374.07550999 0 11575
0.10350000 0.10349800 17306.92947753 0 194.27058234 0 5832.09243475 0 -354.33210992 0 -752.97455652 0 11364
0.10450000 0.10450100 17256.66112285 0 565.64632185 0 6369.44343052 0 52.74357289 0 -11.10487745 0 12093
0.10550000 0.10551000 16675.36406987 0 430.11110098 0 5960.70855984 0 56.15163447 0 605.70045688 0 12067
0.10650000 0.10649700 16554.01138986 0 530.77846376 0 6392.82818054 0 587.22628292 0 977.51687492 0 12054
0.10750000 0.10749900 16042.46998324 0 569.53270786 0 6205.70589111 0 -18.22726112 0 1061.23915180 0 12807
0.10850000 0.10850100 15514.65225914 0 189.99334326 0 5977.89280796 0 690.36277414 0 793.92665710 0 12736
0.10950000 0.10950300 15551.30165429 0 -77.29202425 0 5111.18443813 0 458.81278137 0 481.11355079 0 12933
0.11050000 0.11050200 15468.03777165 0 -35.75142961 0 4826.10529103 0 221.54614730 0 182.49405766 0 13428
0.11150000 0.11150900 15394.51753485 0 60.68397991 0 4989.17849096 0 403.92726724 0 -450.26494661 0 13453
0.11250000 0.11250000 15633.79047418 0 96.34638803 0 4729.14494259 0 185.59984477 0 116.54839827 0 13668
0.11350000 0.11349100 15133.76428537 0 287.46523310 0 4959.62645602 0 80.49004382 0 129.96473426 0 13791
0.11450000 0.11448600 15222.01071418 0 386.70315876 0 5331.16938763 0 17.00864105 0 818.13518808 0 14205
0.11550000 0.11549300 14840.12623118 0 181.36910946 0 5248.54769983 0 495.56404191 0 1165.86044178 0 14776
0.11650000 0.11649800 14869.80006170 0 325.89284362 0 5702.15870300 0 247.19629497 0 1472.50847763 0 14553
0.11750000 0.11747300 14377.52450026 0 302.20028297 0 5642.98819917 0 414.64084874 0 1871.94259546 0 14568
0.11850000 0.11849100 14209.55733276 0 133.07716476 0 5509.10164747 0 263.17033799 0 1657.63774860 0 16015
0.11950000 0.11950300 14102.82012151 0 133.33736440 0 5195.24552816 0 379.42421242 0 2275.17452071 0 15270
0.12050000 0.12050700 14117.43559027 0 17.74196112 0 5024.08953111 0 509.39780454 0 1445.66916227 0 15999
0.12150000 0.12150000 14008.81608380 0 58.03669777 0 4496.70362767 0 158.08290313 0 1675.77421665 0 15670
0.12250000 0.12250700 13940.16766992 0 212.67167895 0 4828.58549179 0 302.25896629 0 1032.89289303 0 16887
0.12350000 0.12352200 13494.39587273 0 252.56194358 0 4004.17340277 0 188.42660930 0 1223.90156848 0 16407
0.12450000 0.12449800 13378.02573888 0 315.91889342 0 3988.71643732 0 290.15248634 0 546.48344928 0 16306
0.12550000 0.12549900 13299.74440241 0 71.93534422 0 3307.83489492 0 255.02221415 0 683.60865600 0 17523
0.12650000 0.12650100 13118.49044513 0 -117.75085275 0 3493.16346774 0 434.14474891 0 300.78302540 0 17154
0.12750000 0.12750600 13021.16470998 0 260.67020704 0 2981.58884414 0 262.07196337 0 282.09072664 0 18007
0.12850000 0.12850300 12943.76915949 0 122.50309456 0 2803.01438946 0 235.48731148 0 274.65123159 0 17496
0.12950000 0.12949900 12634.62985056 0 5.29454214 0 2513.66132498 0 321.83372934 0 194.81312625 0 18405
0.13050000 0.13049000 12769.15859710 0 260.89940417 0 2542.50473113 0 -24.05141469 0 24.37040837 0 18100
0.13150000 0.13148800 12483.71406328 0 111.74300930 0 2861.01122686 0 -136.65352568 0 -148.69800062 0 19059
0.13250000 0.13249300 12240.23364052 0 384.74225003 0 2950.76349184 0 -168.77655444 0 47.21759702 0 18957
0.13350000 0.13349100 12053.55424407 0 295.12063848 0 3348.43711003 0 -278.72363266 0 261.03116483 0 19468
0.13450000 0.13450700 11852.59154862 0 172.76037691 0 3316.00627064 0 10.78793216 0 452.02433902 0 19953
0.13550000 0.13551000 11723.93113422 0 231.53449152 0 3461.05372576 0 363.21875782 0 573.48220612 0 19956
0.13650000 0.13649900 11796.67630828 0 216.78836932 0 3545.05945416 0 36.37402643 0 473.60540733 0 19723
0.13750000 0.13749600 11352.89752955 0 148.37801043 0 3589.93558665 0 -190.53699441 0 813.56121070 0 20946
0.13850000 0.13851100 11384.89654828 0 254.69890227 0 3614.31684590 0 74.32652349 0 795.67829889 0 20955
0.13950000 0.13949800 11293.43914527 0 18.01046500 0 3447.71157435 0 93.29053710 0 1213.58216175 0 20506
0.14050000 0.14048300 11233.53786801 0 14.80303394 0 3279.99907033 0 325.13328214 0 325.41119749 0 21447
0.14150000 0.14148400 11266.64411921 0 145.36965978 0 3351.42663773 0 392.26478751 0 359.79962391 0 21771
0.14250000 0.14249400 11024.55880938 0 195.26155541 0 3083.56495572 0 53.68582773 0 363.96613974 0 22470
0.14350000 0.14350900 10884.21709230 0 255.50607475 0 3098.66760677 0 44.80294442 0 420.43831801 0 22519
0.14450000 0.14449900 10967.29274542 0 -9.32459156 0 3206.50097818 0 315.21137187 0 367.84145343 0 22218
0.14550000 0.14550500 10536.72325019 0 177.95883342 0 2891.94730241 0 -142.93264108 0 519.82572005 0 23559
0.14650000 0.14650700 10563.97224157 0 452.71857379 0 3147.88409059 0 -5.11222524 0 992.32057320 0 23044
0.14750000 0.14750500 10497.11754432 0 -68.91724992 0 3097.63788056 0 105.14268575 0 1099.98010911 0 23649
0.14850000 0.14849900 10302.57679725 0 60.65286668 0 3269.42500013 0 248.88814620 0 974.37344190 0 23640
0.14950000 0.14949500 10331.17661226 0 278.55754779 0 3431.22488270 0 -147.51215463 0 743.78674139 0 24457
0.15050000 0.15050000 10028.51461334 0 231.26100509 0 3348.86893070 0 -42.09742185 0 735.23558493 0 24591
0.15150000 0.15149900 9910.18467801 0 195.01353533 0 3516.89145982 0 -181.38571795 0 720.72862496 0 25020
0.15250000 0.15250500 9783.08546141 0 76.40967068 0 3363.94943710 0 127.00067290 0 1071.32382525 0 25297
0.15350000 0.15350100 9816.37994214 0 -72.16044458 0 3321.03310610 0 387.76278024 0 735.70615874 0 25452
0.15450000 0.15450400 9680.56680592 0 168.66804566 0 3113.49344970 0 297.52665467 0 223.73293145 0 26061
0.15550000 0.15549900 9820.06702631 0 70.93761703 0 2953.14404168 0 243.65536549 0 444.96351749 0 26128
0.15650000 0.15649500 9386.39728014 0 110.77528811 0 2691.78181434 0 115.75229812 0 699.74546219 0 26331
0.15750000 0.15749700 9429.10323696 0 128.60726723 0 2486.75557567 0 332.09998891 0 590.15159114 0 27345
0.15850000 0.15849900 9408.17654305 0 -3.26073323 0 2456.62777984 0 89.92023215 0 324.71806996 0 26980
0.15950000 0.15949700 9355.16225182 0 127.61075800 0 2544.76348539 0 76.18113790 0 34.47600851 0 27777
0.16050000 0.16050000 9170.38729525 0 284.04277750 0 2468.38658880 0 -217.24454910 0 408.13917961 0 28224
0.16150000 0.16150500 9035.90283800 0 303.49574498 0 2489.98869452 0 6.75483784 0 666.38233305 0 28075
0.16250000 0.16249700 8807.70222349 0 33.76062560 0 2668.60743849 0 176.76302233 0 798.58921308 0 28590
0.16350000 0.16349900 8913.03324949 0 4.73342993 0 2767.04040613 0 113.84342932 0 446.01206665 0 29163
0.16450000 0.16449100 8887.99872307 0 28.93165258 0 2676.83417583 0 356.47349754 0 751.35135371 0 28996
0.16550000 0.16550500 8744.39067018 0 86.46289872 0 2423.28900981 0 193.62838750 0 873.12146036 0 30777
0.16650000 0.16650700 8689.60480697 0 146.93860820 0 2416.75633817 0 218.62526801 0 1490.68923498 0 29211
0.16750000 0.16749900 8720.05370022 0 13.08892734 0 2294.26320870 0 228.54828551 0 1058.16104550 0 30922
0.16850000 0.16850800 8650.46413874 0 31.53110228 0 2495.01552998 0 92.74046400 0 992.63834892 0 30867
0.16950000 0.16949900 8411.84446657 0 290.32078567 0 2278.71766465 0 -65.23171588 0 900.66386835 0 30852
0.17050000 0.17049200 8383.80934013 0 190.21589699 0 2297.42989360 0 -28.94327852 0 960.54410820 0 31257
0.17150000 0.17149500 8205.91029727 0 96.99699783 0 2233.02218013 0 -119.48477882 0 1080.11635838 0 32608
0.17250000 0.17250900 8116.52341901 0 111.77733351 0 2114.57044922 0 67.53376294 0 473.15587094 0 32361
0.17350000 0.17350400 7982.89153077 0 193.86422802 0 1967.27531215 0 -11.31536235 0 552.39828520 0 32508
0.17450000 0.17449800 7903.59154042 0 146.87660318 0 2023.09090156 0 -9.81540558 0 117.67445371 0 32791
0.17550000 0.17549800 7784.11008330 0 -62.56826815 0 1977.32898309 0 92.65243902 0 -43.77532196 0 33633
0.17650000 0.17650100 7811.79089535 0 -54.74478488 0 1712.01393578 0 266.36802539 0 -72.55273705 0 33984
0.17750000 0.17750300 7942.78757028 0 -26.53327630 0 1751.88537746 0 -30.40261093 0 -317.61185189 0 34069
0.17850000 0.17849800 8015.42202109 0 62.15084150 0 1806.56051741 0 -63.38651295 0 -279.58505953 0 34536
