### header ###
fiducial parameters:
Omega_m = 0.31
Omega_nu = 0
Omega_de = 0.69
Omega_k = 0
H_0 = 100
w_de = -1
zeff = 0
beta = 0
fgrowth = 0
b_1 = 2
gamma = 0.55
Lx = 3500 Ly = 3500 Lz = 3500
nx = 700 ny = 700 nz = 700
xoffset = -685.467585 yoffset = -31.7331281 zoffset = 572.489161
bins = 400 dk = 0.001
kx_ny = 0.628318531 ky_ny = 0.628318531 kz_ny = 0.628318531
############################
A(data) = 8.06395065 (not used)
A(ran) = 8.05913131 (used)
Ngal = 479237
weighted Ngal = 0
Nran = 23820508
weighted Nran = 0
SN(data) = 3491.28122
SN(ran) = 70.1979565
SN(data+ran) = 3561.47918
############################
13 columns: k_central k_mean P_0(k) sigma^{lin}_{P_0(k)} P^img_1(k) sigma^{lin}_{P_1(k)} P_2(k) sigma^{lin}_{P_2(k)} P^img_3(k) sigma^{lin}_{P_3(k)} P_4(k) sigma^{lin}_{P_4(k)} N_modes
### header ###
0.00050000 0 0 0 0 0 0 0 0 0 0 0 0
0.00150000 0.00179520 58044.22695029 0 -59031.10326138 0 32197.65623313 0 -111473.95180917 0 112686.37137681 0 3
0.00250000 0.00253879 66061.91879797 0 -11940.39508443 0 -16463.88266584 0 -5811.38718734 0 -35810.11292847 0 6
0.00350000 0.00331552 89992.64515176 0 -7698.66495268 0 18794.27487042 0 -6301.11611407 0 39929.23920750 0 7
0.00450000 0.00420575 79116.30048240 0 -882.42442768 0 16788.19105978 0 -14315.07658828 0 17015.17371856 0 24
0.00550000 0.00557378 93050.82126667 0 -8078.40140466 0 35200.80289370 0 32192.78441021 0 -4497.06901439 0 45
0.00650000 0.00659388 69135.37472113 0 -12125.08146240 0 40322.86035480 0 -14921.83998835 0 -9058.75611643 0 40
0.00750000 0.00754703 103401.67340013 0 -5585.29031454 0 33235.35451514 0 26412.69868514 0 -24951.04108583 0 57
0.00850000 0.00846663 102624.17475137 0 -5287.35619832 0 15778.83792931 0 15867.08435811 0 20717.42696817 0 75
0.00950000 0.00948925 87737.76620244 0 17339.92500549 0 11886.36213931 0 -6584.98837777 0 10816.03371607 0 112
0.01050000 0.01054430 95999.15991938 0 4726.10005327 0 11448.67313923 0 -10715.98418901 0 4699.34931650 0 105
0.01150000 0.01145670 82350.96945492 0 7770.76793190 0 9342.36264433 0 755.86554053 0 758.53729251 0 144
0.01250000 0.01249090 87064.67957672 0 -3849.89162874 0 19662.56658270 0 -8795.54481084 0 5591.08114042 0 169
0.01350000 0.01339930 82092.76284015 0 880.96288080 0 20649.44289378 0 2398.45378524 0 -12616.24979136 0 180
0.01450000 0.01448870 87527.61347738 0 1300.26739275 0 14756.97307180 0 -374.75279858 0 -6860.67819343 0 267
0.01550000 0.01550050 86795.28991388 0 2704.00566094 0 23628.89477923 0 8583.96375588 0 -11287.90298287 0 238
0.01650000 0.01653350 78490.16051391 0 4845.62579968 0 7583.86708896 0 -3952.45457354 0 -9365.96884084 0 315
0.01750000 0.01747870 78017.04007441 0 12129.39966908 0 18840.44646491 0 -23084.02567491 0 -24412.15103690 0 297
0.01850000 0.01844180 73703.81594130 0 -341.63879674 0 10463.87842521 0 -4099.37325156 0 -20541.37700355 0 388
0.01950000 0.01947590 75417.03676049 0 -1182.13675926 0 23338.13552949 0 -6972.64154200 0 2462.03107435 0 399
0.02050000 0.02045430 75591.64732288 0 -1110.49881769 0 20285.60630024 0 14043.69390698 0 -10212.59201345 0 462
0.02150000 0.02154770 79318.25968710 0 -4059.22500176 0 23971.02961613 0 11828.67532701 0 -7885.93118234 0 571
0.02250000 0.02255340 81966.53833722 0 3437.86827759 0 18251.06661482 0 13405.04221144 0 -1756.46931993 0 510
0.02350000 0.02348930 74092.01164945 0 7059.13854348 0 12587.46174683 0 -1067.83493569 0 8932.78627696 0 555
0.02450000 0.02439640 74868.29234248 0 3122.31809258 0 12022.66245783 0 2549.64638064 0 16401.32403061 0 592
0.02550000 0.02547300 68272.39772477 0 1977.18504287 0 14988.38466051 0 -853.35071717 0 4901.15350865 0 837
0.02650000 0.02652900 71367.55540457 0 1682.09651412 0 15356.98235372 0 -4114.92986793 0 -9115.86716784 0 723
0.02750000 0.02749970 62380.14934928 0 4596.98567356 0 16859.93972460 0 -7881.91192843 0 -17620.94060939 0 826
0.02850000 0.02848090 63803.71815121 0 5310.98453949 0 16671.37803294 0 -9133.06248828 0 -11699.57201962 0 831
0.02950000 0.02946900 56529.97580810 0 1635.99135358 0 22968.54132705 0 -2156.45705400 0 -15167.97776906 0 996
0.03050000 0.03053250 58858.48571746 0 1415.25348599 0 22526.42339704 0 3657.37711712 0 -19383.87616701 0 1041
0.03150000 0.03150510 54993.80146276 0 224.60985957 0 25068.85062190 0 9076.23931732 0 -15238.28703166 0 1036
0.03250000 0.03246190 52801.92404166 0 4380.79853147 0 19531.58098009 0 5066.24187169 0 -7765.35356506 0 1059
0.03350000 0.03345080 52778.67215954 0 1376.55571075 0 14945.64548671 0 8411.08047616 0 -4615.44323903 0 1302
0.03450000 0.03451200 50451.93382215 0 -1911.33792717 0 13395.52001209 0 1213.28320898 0 -4062.08166157 0 1339
0.03550000 0.03553350 52828.05472823 0 2253.66099359 0 13838.08083510 0 -1373.58832770 0 -8300.85548259 0 1365
0.03650000 0.03647120 51188.46486908 0 3026.70856778 0 12982.85446610 0 -7492.00000994 0 -3400.76491712 0 1308
0.03750000 0.03744890 47984.13406657 0 2311.38102287 0 10948.00475558 0 -2256.73909989 0 -1979.05626576 0 1579
0.03850000 0.03847530 47479.12533159 0 919.53332431 0 17119.80718809 0 -2008.19862468 0 -7353.16412904 0 1662
0.03950000 0.03950240 47166.99649495 0 39.31073914 0 19384.87267625 0 -407.41394233 0 -13953.23301321 0 1683
0.04050000 0.04050350 46424.15422287 0 1849.93081372 0 19852.56767658 0 379.56925988 0 -10345.32704338 0 1822
0.04150000 0.04152450 45812.07610689 0 1423.53558496 0 17926.31532788 0 1719.49882736 0 -9132.74139086 0 1887
0.04250000 0.04250150 44779.02820131 0 -657.33956537 0 20890.70885158 0 2611.30815755 0 -6926.13777776 0 1920
0.04350000 0.04349210 46719.56384903 0 -1212.44171229 0 16446.83128562 0 6400.31307212 0 -5217.47875639 0 2005
0.04450000 0.04448520 44244.78852881 0 1221.79782676 0 16981.95674410 0 3459.58110656 0 -7041.34531749 0 2151
0.04550000 0.04548030 43781.52245840 0 2470.58998143 0 11914.48584435 0 1834.01988296 0 -5636.76555263 0 2274
0.04650000 0.04648670 40487.50582485 0 2710.08436726 0 14706.81544037 0 2393.27193723 0 -5157.52211750 0 2311
0.04750000 0.04749250 39226.03585827 0 1859.84054444 0 14522.12906239 0 -2748.67141925 0 -5055.36884872 0 2568
0.04850000 0.04851840 37564.52279598 0 1362.89246193 0 16408.85321149 0 1726.50760897 0 -681.87805163 0 2493
0.04950000 0.04949480 37423.90427078 0 -527.14452676 0 15860.99457946 0 -1031.11246320 0 -1120.18710190 0 2644
0.05050000 0.05050630 39054.52554683 0 -391.81303666 0 17365.94496881 0 2949.50124682 0 427.60211217 0 2829
0.05150000 0.05149060 39284.94062630 0 343.90640887 0 15070.87348040 0 927.52532836 0 -332.36129578 0 2784
0.05250000 0.05249300 38805.50896165 0 250.80365840 0 16918.62304614 0 2382.57607145 0 2188.87682107 0 3055
0.05350000 0.05348950 38995.39933229 0 -168.34805547 0 13873.95516751 0 942.66230362 0 -1102.24107784 0 3009
0.05450000 0.05448610 39377.50526179 0 902.75875221 0 16132.04509102 0 -1975.01486720 0 -4850.58620120 0 3336
0.05550000 0.05550870 36881.24963142 0 2104.40605503 0 15784.26336847 0 -2114.69224479 0 -2537.71041448 0 3349
0.05650000 0.05647670 36912.25214091 0 1313.08914489 0 17828.65742298 0 -2107.15199159 0 -3798.74856041 0 3324
0.05750000 0.05747970 35290.04583173 0 463.30814525 0 16243.54340195 0 -555.57493519 0 -4589.57828825 0 3639
0.05850000 0.05849280 34961.19778462 0 465.74405671 0 16499.53555175 0 3585.81668182 0 -3415.98936375 0 3846
0.05950000 0.05951020 34157.01483304 0 11.52241482 0 14793.84391344 0 5521.63551916 0 -4325.54763063 0 3787
0.06050000 0.06049470 34597.25046783 0 236.74069864 0 14281.41672083 0 4164.74425729 0 -796.16215948 0 3930
0.06150000 0.06148310 34566.02651184 0 867.86321331 0 12042.59264250 0 1799.58495277 0 -3893.97055385 0 4083
0.06250000 0.06249100 32263.20439606 0 1405.06694716 0 10889.97470121 0 24.16911351 0 -721.61551817 0 4303
0.06350000 0.06350600 31550.92174048 0 1031.43688232 0 10211.24118983 0 -1503.58849340 0 23.70474020 0 4470
0.06450000 0.06451750 30555.74118578 0 349.65405268 0 11234.64510049 0 1736.30661644 0 -30.77120863 0 4479
0.06550000 0.06550280 30851.92587468 0 75.38370906 0 10080.90885438 0 2603.04820324 0 864.56808944 0 4636
0.06650000 0.06648880 30399.39995934 0 -81.47636652 0 9288.72830291 0 2861.31017963 0 -1103.38817069 0 4653
0.06750000 0.06749660 30143.73997928 0 835.42905222 0 8063.69735730 0 1738.77574487 0 265.07588509 0 5220
0.06850000 0.06852730 29271.46223006 0 712.25054584 0 7884.02674247 0 10.27345658 0 -290.30306996 0 5029
0.06950000 0.06949320 28388.88721877 0 1684.29990676 0 9107.71793677 0 -930.29783850 0 2260.68084752 0 5040
0.07050000 0.07048030 27494.68626641 0 1386.15541637 0 9396.15199830 0 -2196.15133848 0 1837.07584461 0 5475
0.07150000 0.07148790 26981.70545757 0 148.20860386 0 11178.84058340 0 -194.23736536 0 4359.46216155 0 5509
0.07250000 0.07249820 27144.24718590 0 -719.82955218 0 11289.56383159 0 1509.35717463 0 3596.99972988 0 5916
0.07350000 0.07351270 27535.54314500 0 -34.95134342 0 10474.67394191 0 1589.91941001 0 2772.49906226 0 5721
0.07450000 0.07449140 27747.46744202 0 231.58653144 0 10857.58815111 0 810.05681989 0 3168.44539778 0 6028
0.07550000 0.07549160 27595.22297577 0 635.68099079 0 10433.17486849 0 465.07418106 0 2138.05485016 0 6183
0.07650000 0.07648840 27314.20737187 0 742.54664101 0 11013.05466389 0 367.88020656 0 5361.12002627 0 6330
0.07750000 0.07749960 26559.18554249 0 214.72116628 0 10308.92123938 0 367.96546347 0 3828.59954812 0 6583
0.07850000 0.07848650 26171.65417383 0 459.50258721 0 10033.59681043 0 1092.18187074 0 5573.99654323 0 6549
0.07950000 0.07947320 25393.93407857 0 918.83244615 0 9599.80526869 0 855.19758095 0 2722.90611940 0 6828
0.08050000 0.08048110 24979.60768386 0 1044.24313320 0 9641.21576351 0 652.58843079 0 2855.37541353 0 7147
0.08150000 0.08149960 23761.76267706 0 606.38251209 0 9084.98645392 0 164.52367448 0 2362.47980190 0 7386
0.08250000 0.08250610 23434.68620191 0 550.50713212 0 9397.67997913 0 -299.39234140 0 2108.96785286 0 7227
0.08350000 0.08350160 22767.24646185 0 224.11271219 0 9125.04612512 0 -596.44067163 0 1129.27748058 0 7798
0.08450000 0.08449610 22713.43496323 0 735.29316102 0 8817.06941029 0 1951.23151349 0 1741.98671907 0 7371
0.08550000 0.08548940 21831.41356817 0 67.12740862 0 8027.90053116 0 717.52097246 0 1715.90032180 0 8256
0.08650000 0.08650700 21669.31473283 0 310.98174379 0 7065.93695092 0 2072.98279720 0 337.84541826 0 8037
0.08750000 0.08749060 21948.44804151 0 152.53013224 0 6931.70715714 0 -107.16626384 0 -300.82842193 0 8155
0.08850000 0.08849210 21184.90052201 0 187.34595040 0 6323.73687367 0 649.23683807 0 371.15207855 0 8718
0.08950000 0.08949900 21253.32748939 0 576.66217781 0 6493.43132384 0 -547.94278170 0 961.61701648 0 8571
0.09050000 0.09049190 20620.32267951 0 527.23642705 0 6541.79523865 0 743.56972382 0 896.84613075 0 8932
0.09150000 0.09150830 20228.47310418 0 362.43926615 0 6532.29518396 0 968.96793292 0 944.36190548 0 9285
0.09250000 0.09250820 19807.39259132 0 222.45850686 0 6164.79365090 0 1098.99356497 0 845.19594994 0 9204
0.09350000 0.09350330 19436.91260289 0 765.75976999 0 6187.38119353 0 352.21175971 0 860.67616727 0 9349
0.09450000 0.09448040 19174.83067444 0 417.22623658 0 5675.05365185 0 -141.64271524 0 1370.01196679 0 9564
0.09550000 0.09549270 18310.41427584 0 371.62597405 0 5471.63290028 0 -126.85894714 0 1199.08848856 0 10155
0.09650000 0.09649430 18316.39333125 0 516.55495530 0 5688.81655160 0 -385.23607572 0 635.00115005 0 9913
0.09750000 0.09749140 17953.33180044 0 32.43316458 0 5420.81092936 0 -166.87986520 0 -333.58478767 0 10476
0.09850000 0.09850240 17870.73225730 0 90.66185646 0 5816.18150399 0 -450.01471207 0 -1011.76800451 0 10575
0.09950000 0.09950330 18040.24955027 0 90.32702936 0 5939.43862387 0 -354.19149139 0 -1373.22294098 0 10882
0.10050000 0.10051200 17959.53230234 0 320.48954911 0 6937.27653652 0 212.78572390 0 -1220.07054409 0 10875
0.10150000 0.10150300 17792.67236732 0 603.39409162 0 6809.77871624 0 -4.10222991 0 -8.50145279 0 11118
0.10250000 0.10250800 17487.62981857 0 85.99431794 0 6857.61115945 0 477.98672626 0 437.10548856 0 11575
0.10350000 0.10349800 17460.17045302 0 8.52809280 0 7052.36228069 0 781.37839138 0 1332.93075097 0 11364
0.10450000 0.10450100 16988.48941575 0 449.02706070 0 6322.31961610 0 611.87106350 0 516.33129434 0 12093
0.10550000 0.10551000 17167.41818481 0 157.62229442 0 5707.87202261 0 755.99619397 0 876.15306290 0 12067
0.10650000 0.10649700 16538.73158161 0 -103.65899423 0 5713.86215034 0 983.71848405 0 462.30831432 0 12054
0.10750000 0.10749900 16853.40705296 0 15.61430318 0 5000.89301062 0 248.83610628 0 502.60825496 0 12807
0.10850000 0.10850100 16632.07127983 0 232.11468134 0 5169.07055229 0 128.29059874 0 -195.87164051 0 12736
0.10950000 0.10950300 16447.38490186 0 563.57911880 0 4883.79210333 0 -21.22276787 0 1110.76455348 0 12933
0.11050000 0.11050200 16070.92585802 0 288.25468986 0 5212.05331723 0 425.63566728 0 1499.66889041 0 13428
0.11150000 0.11150900 15920.67441024 0 367.40520383 0 5236.79996320 0 100.86500378 0 1165.63899528 0 13453
0.11250000 0.11250000 15621.27874714 0 277.44699361 0 5503.23331531 0 43.37306440 0 1734.44646587 0 13668
0.11350000 0.11349100 15499.59389738 0 124.37210299 0 5648.29184276 0 301.80721544 0 1157.04687122 0 13791
0.11450000 0.11448600 15269.28954115 0 382.48903193 0 5231.85063401 0 240.73891514 0 1162.07370669 0 14205
0.11550000 0.11549300 14920.17913962 0 278.51215126 0 4901.54104002 0 -49.91525824 0 54.06549775 0 14776
0.11650000 0.11649800 14798.05139687 0 135.16651246 0 4925.47940628 0 -99.14381089 0 340.04770367 0 14553
0.11750000 0.11747300 14634.62388255 0 437.24057093 0 5240.91886803 0 -350.72806819 0 -197.15160126 0 14568
0.11850000 0.11849100 14320.28058095 0 152.12931408 0 4915.25965047 0 -493.93530293 0 -89.21204625 0 16015
0.11950000 0.11950300 14468.09611728 0 -40.17548771 0 5400.70358749 0 74.89995919 0 -768.80908825 0 15270
0.12050000 0.12050700 14352.61176942 0 -33.03350603 0 5146.30585246 0 28.05472446 0 -1369.67979704 0 15999
0.12150000 0.12150000 14344.19680256 0 262.73851732 0 5762.02676330 0 47.71441223 0 -910.42301545 0 15670
0.12250000 0.12250700 14183.64809269 0 274.46521653 0 5009.88373837 0 174.41901117 0 -895.41226469 0 16887
0.12350000 0.12352200 14074.58569322 0 -6.67583680 0 5060.16316537 0 206.02053344 0 -945.45252947 0 16407
0.12450000 0.12449800 13804.42096765 0 346.54051494 0 5081.98671759 0 514.98600687 0 -1330.94880483 0 16306
0.12550000 0.12549900 13448.55644798 0 539.84669779 0 4890.10332848 0 670.48684386 0 -506.07167816 0 17523
0.12650000 0.12650100 12947.20158019 0 344.70583072 0 4109.54871806 0 696.46473235 0 331.28838750 0 17154
0.12750000 0.12750600 13019.50386125 0 -38.46160255 0 4263.62011792 0 946.42025066 0 228.33680411 0 18007
0.12850000 0.12850300 12791.63541649 0 -0.87711857 0 3894.63489333 0 398.97461635 0 273.54953527 0 17496
0.12950000 0.12949900 12747.23539396 0 278.77788705 0 4021.19156601 0 181.44107957 0 662.03644556 0 18405
0.13050000 0.13049000 12674.71166640 0 119.85902339 0 4181.69598658 0 -421.08937071 0 766.22037871 0 18100
0.13150000 0.13148800 12586.13306785 0 200.75564298 0 4471.91269240 0 -432.93675827 0 700.78958242 0 19059
0.13250000 0.13249300 12380.96288896 0 280.32247636 0 4685.91858650 0 -241.05447639 0 914.76890294 0 18957
0.13350000 0.13349100 12289.61620921 0 212.95955940 0 5077.19240094 0 61.04471625 0 940.45226759 0 19468
0.13450000 0.13450700 12288.73042322 0 19.33216841 0 5033.92175555 0 62.38070297 0 1058.82649222 0 19953
0.13550000 0.13551000 12284.96583278 0 111.13846037 0 5086.94711911 0 315.04639423 0 1049.27882653 0 19956
0.13650000 0.13649900 12250.75234909 0 173.00618252 0 4844.15318048 0 620.23841937 0 1230.47852942 0 19723
0.13750000 0.13749600 11951.68885574 0 207.35917751 0 4815.98518614 0 380.12951951 0 1277.75735640 0 20946
0.13850000 0.13851100 11866.32123139 0 -18.67668678 0 4067.25243726 0 822.04261151 0 1259.47694812 0 20955
0.13950000 0.13949800 11740.53962145 0 131.10407648 0 4107.14602358 0 647.35565008 0 1640.60851303 0 20506
0.14050000 0.14048300 11671.66976108 0 193.84429783 0 3778.45298901 0 590.20916723 0 1356.70303235 0 21447
0.14150000 0.14148400 11298.53241469 0 41.06703131 0 3314.05754147 0 609.41632909 0 1470.49331451 0 21771
0.14250000 0.14249400 11333.18879137 0 82.98120618 0 3159.28858515 0 113.81353404 0 1365.04049294 0 22470
0.14350000 0.14350900 11255.79324089 0 153.00624220 0 3141.75002264 0 -41.74576482 0 1518.48077028 0 22519
0.14450000 0.14449900 11200.87450979 0 224.54121116 0 3205.52661360 0 -139.94975678 0 1639.78916099 0 22218
0.14550000 0.14550500 10928.53960855 0 206.39145632 0 3208.43863502 0 -224.86895197 0 1628.22965388 0 23559
0.14650000 0.14650700 10758.39119306 0 289.48814685 0 3473.05612586 0 -155.60713130 0 1211.85487908 0 23044
0.14750000 0.14750500 10628.50175062 0 224.86895197 0 3521.57505322 0 -155.33807381 0 415.35944262 0 23649
0.14850000 0.14849900 10527.48893130 0 -22.82725846 0 3349.79900598 0 -3.67246870 0 475.59399687 0 23640
0.14950000 0.14949500 10517.92244265 0 72.94525097 0 3399.27015327 0 -65.72299494 0 340.93902582 0 24457
0.15050000 0.15050000 10427.76050165 0 130.37330304 0 3350.62943035 0 211.32860595 0 78.15522269 0 24591
0.15150000 0.15149900 10240.70464617 0 231.55552893 0 3371.32360543 0 -7.22583239 0 -95.04782577 0 25020
0.15250000 0.15250500 10149.82300406 0 237.09058411 0 3310.60297613 0 230.17702449 0 316.07058427 0 25297
0.15350000 0.15350100 9913.60602637 0 239.30837077 0 3293.85054868 0 457.54057125 0 519.47915628 0 25452
0.15450000 0.15450400 9703.71903711 0 81.27573599 0 3218.89090965 0 484.22155236 0 853.02076189 0 26061
0.15550000 0.15549900 9704.07335151 0 -68.55363478 0 2835.37879491 0 447.90986312 0 684.54758915 0 26128
0.15650000 0.15649500 9760.95188410 0 -82.09818828 0 2807.18865592 0 84.06252943 0 573.30061999 0 26331
0.15750000 0.15749700 9669.63842132 0 182.25710991 0 2627.15265437 0 -297.50229555 0 434.96520818 0 27345
0.15850000 0.15849900 9456.06434789 0 231.21339410 0 2584.11452780 0 -65.55978887 0 348.30101459 0 26980
0.15950000 0.15949700 9392.24346764 0 168.93378146 0 2553.68777920 0 -33.68212282 0 384.19749165 0 27777
0.16050000 0.16050000 9233.31131719 0 127.24204958 0 2220.35544053 0 195.05118124 0 -365.00472381 0 28224
0.16150000 0.16150500 9210.38053249 0 26.62440154 0 2054.74667822 0 385.70997122 0 -27.94112240 0 28075
0.16250000 0.16249700 9094.77438906 0 -25.50498950 0 1840.47504833 0 353.56147611 0 60.42068003 0 28590
0.16350000 0.16349900 9063.93796444 0 102.89965419 0 1518.61363818 0 550.86698268 0 -2.80828482 0 29163
0.16450000 0.16449100 8998.23478897 0 88.64403599 0 1556.69136323 0 132.35192749 0 49.26021950 0 28996
0.16550000 0.16550500 8809.89454380 0 247.05346198 0 1261.95714888 0 9.21304896 0 302.49259235 0 30777
0.16650000 0.16650700 8694.25518340 0 279.95598241 0 1610.36999395 0 -185.56884226 0 387.51033124 0 29211
0.16750000 0.16749900 8476.46255421 0 79.98802462 0 1662.80852429 0 -262.19265171 0 343.18338606 0 30922
0.16850000 0.16850800 8499.69229168 0 188.64805580 0 2020.30067571 0 -396.81662025 0 153.38602295 0 30867
0.16950000 0.16949900 8436.60218487 0 175.30811885 0 2294.44036589 0 -292.71794400 0 -67.99824696 0 30852
0.17050000 0.17049200 8286.95971494 0 84.89417174 0 2461.99785737 0 -357.41575238 0 227.15760151 0 31257
0.17150000 0.17149500 8324.18487098 0 151.21031112 0 2488.80395576 0 -26.15504569 0 229.63115888 0 32608
0.17250000 0.17250900 8182.18230518 0 71.39567911 0 2854.01351758 0 33.31740044 0 -33.46145139 0 32361
0.17350000 0.17350400 8269.48758638 0 17.83629733 0 2560.34224641 0 209.00784667 0 -31.67626046 0 32508
0.17450000 0.17449800 8161.44384080 0 -48.83382427 0 2437.87126160 0 201.22068063 0 71.45281231 0 32791
0.17550000 0.17549800 8226.78162955 0 -7.42144716 0 2255.75366298 0 306.20735732 0 9.50647664 0 33633
0.17650000 0.17650100 8231.27699343 0 23.95464258 0 2095.39318263 0 290.37614730 0 -95.61461808 0 33984
0.17750000 0.17750300 8073.47422011 0 152.51905991 0 1725.71040158 0 199.06932791 0 -251.41706519 0 34069
0.17850000 0.17849800 7919.42496491 0 198.90656474 0 1804.21318455 0 -171.74947366 0 -368.47368317 0 34536
