### header ###
fiducial parameters:
Omega_m = 0.31
Omega_nu = 0
Omega_de = 0.69
Omega_k = 0
H_0 = 100
w_de = -1
zeff = 0
beta = 0
fgrowth = 0
b_1 = 2
gamma = 0.55
Lx = 3500 Ly = 3500 Lz = 3500
nx = 700 ny = 700 nz = 700
xoffset = -685.467585 yoffset = -31.7331281 zoffset = 572.489161
bins = 400 dk = 0.001
kx_ny = 0.628318531 ky_ny = 0.628318531 kz_ny = 0.628318531
############################
A(data) = 8.07866684 (not used)
A(ran) = 8.08111037 (used)
Ngal = 480639
weighted Ngal = 0
Nran = 23820508
weighted Nran = 0
SN(data) = 3481.25443
SN(ran) = 70.3894021
SN(data+ran) = 3551.64383
############################
13 columns: k_central k_mean P_0(k) sigma^{lin}_{P_0(k)} P^img_1(k) sigma^{lin}_{P_1(k)} P_2(k) sigma^{lin}_{P_2(k)} P^img_3(k) sigma^{lin}_{P_3(k)} P_4(k) sigma^{lin}_{P_4(k)} N_modes
### header ###
0.00050000 0 0 0 0 0 0 0 0 0 0 0 0
0.00150000 0.00179520 23156.88157221 0 -30947.70148436 0 6261.87579491 0 883.70660289 0 -44691.44611200 0 3
0.00250000 0.00253879 42564.23106784 0 -33464.77308538 0 -1549.46113512 0 -26932.43361212 0 32538.79456080 0 6
0.00350000 0.00331552 44725.65959569 0 -6748.88092974 0 -5824.38609668 0 -73.67059897 0 -14714.23389800 0 7
0.00450000 0.00420575 51195.66188022 0 7004.36375260 0 -14511.27818407 0 -1094.83812146 0 20408.28765923 0 24
0.00550000 0.00557378 49252.80104429 0 -10948.17084045 0 -24606.80250722 0 6832.21124632 0 -2814.58496890 0 45
0.00650000 0.00659388 56696.39285012 0 -8890.30176664 0 -38214.91115583 0 -2882.30330749 0 12422.37338378 0 40
0.00750000 0.00754703 60656.63126800 0 -6232.48984484 0 -13188.46753799 0 -6447.09364448 0 -15977.36471331 0 57
0.00850000 0.00846663 64262.22312195 0 7338.53758795 0 -9173.70899269 0 -26333.19939294 0 -9296.13568821 0 75
0.00950000 0.00948925 49574.89497326 0 11547.21683012 0 729.83339765 0 -21201.39828599 0 17640.31717782 0 112
0.01050000 0.01054430 47051.29070060 0 7102.57527374 0 7270.04418662 0 -11568.47569377 0 16037.59816032 0 105
0.01150000 0.01145670 41893.24818383 0 -1116.82111516 0 13017.40011954 0 16930.24898720 0 16488.46322694 0 144
0.01250000 0.01249090 54477.49895646 0 -6660.14731864 0 24699.36714270 0 1007.33796735 0 15035.77421073 0 169
0.01350000 0.01339930 59713.49063995 0 -9546.38130144 0 27444.19646524 0 -1332.54321960 0 6982.82808083 0 180
0.01450000 0.01448870 70091.46996922 0 -5117.07491494 0 31356.82388641 0 -2449.12074361 0 16069.92934879 0 267
0.01550000 0.01550050 79913.72931584 0 1944.44417838 0 39217.06727516 0 7190.21272468 0 50086.98999612 0 238
0.01650000 0.01653350 75812.31875652 0 3871.28336029 0 42816.23718071 0 10650.97857000 0 16789.85190850 0 315
0.01750000 0.01747870 81677.10776646 0 -2980.24909284 0 38478.54320976 0 3966.07353306 0 6447.23758470 0 297
0.01850000 0.01844180 82195.73546097 0 -4335.15840857 0 48787.65267866 0 4272.90979844 0 -19415.43229274 0 388
0.01950000 0.01947590 79882.17319011 0 8734.38128854 0 45956.79139227 0 -913.11026868 0 -11355.55488751 0 399
0.02050000 0.02045430 75567.84182452 0 8019.81773404 0 37812.87504166 0 -18256.60277722 0 -17767.20602024 0 462
0.02150000 0.02154770 67799.38800851 0 3795.02825927 0 37771.68599334 0 9166.55627086 0 -5307.06493650 0 571
0.02250000 0.02255340 64999.86140137 0 -3529.17066805 0 36517.63448438 0 14709.36207508 0 -6502.57706414 0 510
0.02350000 0.02348930 68257.00719327 0 1885.40654244 0 30377.91964919 0 19207.60475590 0 -27124.20627798 0 555
0.02450000 0.02439640 64714.41686754 0 2219.53608850 0 27191.74745938 0 8536.88423075 0 -4543.17417494 0 592
0.02550000 0.02547300 64673.33854246 0 1838.50417451 0 22240.75741672 0 2338.76288214 0 -526.84557399 0 837
0.02650000 0.02652900 63310.22463404 0 76.31898834 0 24332.09812846 0 2292.92345739 0 7713.44650631 0 723
0.02750000 0.02749970 64607.01531680 0 -1949.85854521 0 26794.14027514 0 3007.50915654 0 2928.48597431 0 826
0.02850000 0.02848090 62759.59792081 0 3267.38769236 0 27391.82436885 0 2042.06886630 0 11015.29127351 0 831
0.02950000 0.02946900 61044.93769939 0 3266.19188128 0 24432.85628431 0 5695.06134280 0 1537.71339849 0 996
0.03050000 0.03053250 60667.70359282 0 -1121.53792553 0 18004.15377136 0 9392.14381672 0 5391.36961767 0 1041
0.03150000 0.03150510 57868.28770892 0 1080.99550097 0 14000.95473318 0 1502.96844321 0 -3999.84412376 0 1036
0.03250000 0.03246190 57933.28225561 0 2846.05251603 0 20473.61437566 0 -3213.85300186 0 -9991.66591635 0 1059
0.03350000 0.03345080 55392.18370973 0 4441.16484638 0 21753.13223171 0 -7025.74441183 0 57.04317806 0 1302
0.03450000 0.03451200 52351.16969829 0 5195.30088978 0 19487.95602031 0 -624.57655623 0 8177.63157968 0 1339
0.03550000 0.03553350 49842.62378738 0 1305.38280682 0 25447.41340745 0 1.22141030 0 6069.23948772 0 1365
0.03650000 0.03647120 51354.54974136 0 -1068.48045223 0 23336.47468077 0 8369.39317322 0 5242.94510348 0 1308
0.03750000 0.03744890 51273.38960044 0 -1214.77797283 0 21010.40068287 0 3559.88529709 0 -894.97380063 0 1579
0.03850000 0.03847530 48871.80234728 0 2046.94068922 0 17295.30353647 0 1617.65558368 0 -3323.19220944 0 1662
0.03950000 0.03950240 50163.27831413 0 172.65297536 0 18943.08691598 0 1114.47378230 0 -8824.45465094 0 1683
0.04050000 0.04050350 47258.67534445 0 -1218.53149094 0 14269.12644029 0 857.09648465 0 -7225.54451318 0 1822
0.04150000 0.04152450 48324.71877799 0 1762.96877460 0 13105.97871809 0 133.29086063 0 -12795.17856043 0 1887
0.04250000 0.04250150 47745.85763647 0 1381.20608718 0 12713.24335677 0 115.93609871 0 -11044.67722357 0 1920
0.04350000 0.04349210 45571.03159559 0 1569.98922534 0 12589.67621179 0 1296.97891228 0 -13202.19722076 0 2005
0.04450000 0.04448520 45245.39452268 0 1157.81086164 0 15332.62323912 0 2189.78475171 0 -5175.06068001 0 2151
0.04550000 0.04548030 42261.29226080 0 2589.09707397 0 14897.37015050 0 -851.55921501 0 -3183.58126581 0 2274
0.04650000 0.04648670 41585.99117011 0 2765.16918323 0 16683.44686699 0 1501.59547493 0 -2201.05637837 0 2311
0.04750000 0.04749250 39962.01328896 0 1602.90724702 0 17284.89555114 0 -1235.66037744 0 269.86688004 0 2568
0.04850000 0.04851840 37920.71948540 0 1659.85221356 0 18202.79127861 0 -3885.54451466 0 301.11298068 0 2493
0.04950000 0.04949480 37672.47796296 0 2939.24827403 0 19883.45946283 0 -250.80919456 0 2573.02005833 0 2644
0.05050000 0.05050630 35998.89606662 0 -989.26793325 0 18714.33268523 0 2336.91380390 0 16.65421593 0 2829
0.05150000 0.05149060 36578.75371738 0 -159.37061451 0 19797.42749899 0 3529.48069314 0 -1309.87817070 0 2784
0.05250000 0.05249300 36716.71488462 0 1197.87053283 0 15624.82189108 0 4985.97858908 0 -1703.22250988 0 3055
0.05350000 0.05348950 35552.90282293 0 -114.07594814 0 13702.00196307 0 4007.35115999 0 -2828.04891588 0 3009
0.05450000 0.05448610 34567.24446757 0 -1856.34168979 0 10090.63035558 0 4449.30300512 0 -3040.52682915 0 3336
0.05550000 0.05550870 38090.34750162 0 -779.44959240 0 10656.47044311 0 1323.45284092 0 -4463.63059344 0 3349
0.05650000 0.05647670 36539.33624102 0 74.27880177 0 8642.50313719 0 -1167.34413331 0 -4753.75872066 0 3324
0.05750000 0.05747970 36109.61931481 0 2598.86286446 0 9799.91539514 0 -2695.43568153 0 -1136.02052639 0 3639
0.05850000 0.05849280 34121.91556337 0 2513.04127479 0 10883.27594469 0 -3755.33397479 0 -997.96635162 0 3846
0.05950000 0.05951020 32917.35734635 0 1249.57828973 0 12925.61054679 0 1064.09359714 0 319.59711973 0 3787
0.06050000 0.06049470 31693.42256089 0 723.29740431 0 13936.18163299 0 1098.26389876 0 79.33198937 0 3930
0.06150000 0.06148310 32266.19392376 0 247.31919778 0 13382.01177582 0 2662.53980449 0 -41.38214967 0 4083
0.06250000 0.06249100 30519.75613012 0 144.05316036 0 13251.35834296 0 1878.50848408 0 619.76230940 0 4303
0.06350000 0.06350600 30882.70693767 0 243.58339538 0 11803.98404266 0 586.83985878 0 -663.60650122 0 4470
0.06450000 0.06451750 31488.69527500 0 -138.46052909 0 12338.88805465 0 131.42406667 0 2073.53641344 0 4479
0.06550000 0.06550280 31317.62785655 0 33.47429528 0 13104.53931586 0 -1562.11680239 0 783.01598822 0 4636
0.06650000 0.06648880 31073.70454079 0 956.19600625 0 13191.34634244 0 -834.47240335 0 -1435.51584041 0 4653
0.06750000 0.06749660 31525.01250040 0 451.42754072 0 14239.56333302 0 -1281.13441547 0 -465.03210622 0 5220
0.06850000 0.06852730 30469.15560570 0 684.53319512 0 14260.60075018 0 -1081.12615441 0 -964.57886337 0 5029
0.06950000 0.06949320 30732.78765963 0 852.09068660 0 14642.70667967 0 1776.35521531 0 -1726.55189827 0 5040
0.07050000 0.07048030 29325.27372868 0 467.53666609 0 13313.36336194 0 1653.93959211 0 361.69852762 0 5475
0.07150000 0.07148790 28845.28844779 0 601.57158695 0 12017.56918841 0 3417.11874088 0 -45.21350623 0 5509
0.07250000 0.07249820 28528.39851148 0 642.92893462 0 11487.42627610 0 2932.54951752 0 611.88435029 0 5916
0.07350000 0.07351270 27686.34820903 0 356.05053473 0 10178.43389139 0 1483.32613898 0 903.78737118 0 5721
0.07450000 0.07449140 27277.00436048 0 720.37209610 0 9508.66896311 0 2120.66022787 0 2710.62691118 0 6028
0.07550000 0.07549160 26957.23561972 0 -239.54642575 0 9310.71794000 0 991.31631334 0 2096.52255976 0 6183
0.07650000 0.07648840 27158.30903842 0 -381.24560985 0 8742.60802588 0 617.14149011 0 2792.77248901 0 6330
0.07750000 0.07749960 27567.87433347 0 388.36400748 0 8483.72599929 0 99.42117263 0 3068.42908769 0 6583
0.07850000 0.07848650 26746.75072491 0 1181.66064930 0 8337.57131169 0 -266.67694326 0 2465.80673711 0 6549
0.07950000 0.07947320 26469.38898821 0 741.72175281 0 9537.29092276 0 -635.43739964 0 1368.49505829 0 6828
0.08050000 0.08048110 25257.41231356 0 940.64271157 0 9113.35375011 0 -395.07937248 0 2281.41931191 0 7147
0.08150000 0.08149960 24636.36561448 0 783.29058188 0 9582.93104567 0 715.70068226 0 1397.06165632 0 7386
0.08250000 0.08250610 24487.55356892 0 25.23238886 0 10363.48565608 0 168.79537740 0 745.11874207 0 7227
0.08350000 0.08350160 24191.25815677 0 110.46005903 0 9156.30329808 0 1508.98071558 0 1470.08363850 0 7798
0.08450000 0.08449610 23265.50107868 0 1059.73995902 0 8712.35843448 0 1460.92682587 0 1370.64308930 0 7371
0.08550000 0.08548940 23051.25159344 0 425.70431570 0 8103.94525802 0 289.95207726 0 2370.54045437 0 8256
0.08650000 0.08650700 22271.31703322 0 544.64322890 0 7823.70471686 0 1094.71632589 0 552.23220033 0 8037
0.08750000 0.08749060 21427.60588204 0 719.31690354 0 7922.09339519 0 -73.58611713 0 27.70450682 0 8155
0.08850000 0.08849210 21058.89746558 0 702.23452081 0 6199.91506523 0 -322.64090182 0 -1107.74180881 0 8718
0.08950000 0.08949900 20470.40340147 0 285.06586032 0 6907.68021228 0 -835.48219938 0 -1283.64783320 0 8571
0.09050000 0.09049190 20553.55656085 0 -40.85433195 0 6377.06119000 0 394.65087351 0 -2873.96584690 0 8932
0.09150000 0.09150830 20298.89309002 0 2.40648122 0 5383.92901539 0 410.83639793 0 -2741.14223838 0 9285
0.09250000 0.09250820 20279.84869134 0 279.16209672 0 5306.93206860 0 1023.46702291 0 -3514.64377788 0 9204
0.09350000 0.09350330 19958.30837860 0 372.64905686 0 5732.14255861 0 445.67103904 0 -3412.57908771 0 9349
0.09450000 0.09448040 19687.03642055 0 763.26738968 0 5526.88380113 0 226.41907745 0 -984.76038981 0 9564
0.09550000 0.09549270 18627.85782839 0 807.05179094 0 5612.73860777 0 172.50903514 0 -315.77495320 0 10155
0.09650000 0.09649430 18693.18454482 0 334.65880318 0 5512.70015303 0 780.77605691 0 724.92946499 0 9913
0.09750000 0.09749140 18358.13599581 0 72.71948626 0 6527.71124148 0 254.04452787 0 -277.33516313 0 10476
0.09850000 0.09850240 18200.24464390 0 469.19972928 0 6646.15190007 0 -801.55881060 0 1149.20766525 0 10575
0.09950000 0.09950330 17808.39506857 0 427.02413682 0 7385.15207544 0 -637.83455797 0 272.98152501 0 10882
0.10050000 0.10051200 17621.93711862 0 198.62643492 0 6837.14950319 0 -384.90501321 0 698.27395022 0 10875
0.10150000 0.10150300 17621.93711862 0 -29.66198313 0 7149.36691843 0 290.61641675 0 -770.56515896 0 11118
0.10250000 0.10250800 17513.76050514 0 261.09316985 0 7173.61530978 0 -51.00411066 0 -1528.00296962 0 11575
0.10350000 0.10349800 16882.63799048 0 546.75139954 0 6349.15893146 0 297.29856478 0 -1309.00345703 0 11364
0.10450000 0.10450100 16566.85528665 0 471.66885772 0 6360.59664299 0 802.68929496 0 -1020.38559492 0 12093
0.10550000 0.10551000 16266.24166783 0 49.28092475 0 5897.18663236 0 958.11594737 0 -929.65342919 0 12067
0.10650000 0.10649700 16214.31246443 0 305.50980086 0 6100.58523928 0 618.36166031 0 -1049.70843273 0 12054
0.10750000 0.10749900 15892.99359819 0 510.15736602 0 5868.89684245 0 127.82113217 0 425.32564219 0 12807
0.10850000 0.10850100 15403.92901095 0 424.16304808 0 6368.83445266 0 -152.67739416 0 658.84761601 0 12736
0.10950000 0.10950300 15136.64308983 0 292.89510120 0 6289.51231766 0 -7.25722243 0 1334.27050227 0 12933
0.11050000 0.11050200 15357.75741646 0 145.38737550 0 6868.12986803 0 494.93402663 0 864.52822907 0 13428
0.11150000 0.11150900 14960.26095547 0 72.19797977 0 6664.03370465 0 373.99434433 0 1098.65143013 0 13453
0.11250000 0.11250000 14680.68475379 0 589.13072279 0 6331.03353573 0 662.65981744 0 974.38672869 0 13668
0.11350000 0.11349100 14368.11302416 0 281.46956921 0 5906.24379406 0 -141.03263015 0 694.79502576 0 13791
0.11450000 0.11448600 13904.73623050 0 133.47909015 0 5673.59210497 0 315.25012500 0 379.84053183 0 14205
0.11550000 0.11549300 14108.13483742 0 137.02001963 0 5752.16132189 0 -19.12710895 0 -339.17299001 0 14776
0.11650000 0.11649800 13805.08530714 0 56.47826805 0 5168.58336999 0 258.00952739 0 -54.39766749 0 14553
0.11750000 0.11747300 13996.08291026 0 234.94033863 0 5018.76374287 0 375.21230006 0 -224.25000902 0 14568
0.11850000 0.11849100 13535.03130481 0 59.29883208 0 4732.54414631 0 381.49584439 0 318.31605175 0 16015
0.11950000 0.11950300 13603.79044193 0 -2.65493312 0 4561.93069318 0 1190.61816007 0 529.01021349 0 15270
0.12050000 0.12050700 13478.11955524 0 221.46089040 0 4459.56705023 0 734.91448751 0 242.24253685 0 15999
0.12150000 0.12150000 13243.49699233 0 78.29573049 0 4548.13457646 0 255.06982515 0 460.19682197 0 15670
0.12250000 0.12250700 13362.41376089 0 201.04684513 0 4655.58041650 0 -258.43249020 0 1142.97394638 0 16887
0.12350000 0.12352200 13222.01668219 0 59.63532003 0 4704.50901987 0 -627.87610903 0 1554.60976616 0 16407
0.12450000 0.12449800 13114.28296170 0 1.68841881 0 5117.19671051 0 -139.70395117 0 1295.16305101 0 16306
0.12550000 0.12549900 13429.40132604 0 -20.37783877 0 5310.56379114 0 -7.26991132 0 1069.64415357 0 17523
0.12650000 0.12650100 13175.84508769 0 438.89256179 0 5222.05162654 0 66.85890474 0 910.06095042 0 17154
0.12750000 0.12750600 12929.92875347 0 334.49382554 0 5044.98300804 0 535.14206697 0 1117.57403325 0 18007
0.12850000 0.12850300 12728.52316502 0 143.83725002 0 4936.19741670 0 368.65084037 0 1098.65585906 0 17496
0.12950000 0.12949900 12552.80537015 0 211.74713983 0 5041.36235783 0 173.50775884 0 984.99623033 0 18405
0.13050000 0.13049000 12546.60486825 0 49.63213889 0 4867.22790540 0 91.12811206 0 873.36283705 0 18100
0.13150000 0.13148800 12318.95786998 0 50.02753161 0 4884.84397419 0 -191.82913472 0 987.62701471 0 19059
0.13250000 0.13249300 12375.64817305 0 131.66765781 0 4701.10981615 0 94.48889481 0 612.81996174 0 18957
0.13350000 0.13349100 12498.32953204 0 130.41537788 0 5042.85712168 0 -155.51190931 0 806.06856849 0 19468
0.13450000 0.13450700 12289.28403946 0 87.70510284 0 4869.33164712 0 -70.14218122 0 590.31989047 0 19953
0.13550000 0.13551000 12230.93288767 0 284.77022924 0 5149.11822296 0 245.10251835 0 497.66224746 0 19956
0.13650000 0.13649900 12107.03357295 0 91.48375514 0 4730.94973154 0 343.02394458 0 557.26567919 0 19723
0.13750000 0.13749600 11953.34970447 0 117.03890226 0 4432.43985443 0 785.75306692 0 725.51961990 0 20946
0.13850000 0.13851100 11776.08178412 0 27.68568387 0 4166.57119088 0 488.25298583 0 499.71505648 0 20955
0.13950000 0.13949800 11782.72517901 0 72.38742724 0 4057.77452721 0 392.52498715 0 276.33754666 0 20506
0.14050000 0.14048300 11361.31249641 0 512.80475888 0 3821.21430746 0 334.93118237 0 398.72991797 0 21447
0.14150000 0.14148400 11157.02810351 0 466.97529923 0 3661.06420129 0 126.84676759 0 815.33167544 0 21771
0.14250000 0.14249400 10699.58607595 0 162.87611255 0 3441.58857873 0 279.09455554 0 716.88874271 0 22470
0.14350000 0.14350900 10658.26415973 0 78.18024614 0 3460.23437372 0 503.15522780 0 841.32838688 0 22519
0.14450000 0.14449900 10619.99820515 0 5.06478032 0 3222.02437758 0 475.22750291 0 784.04349997 0 22218
0.14550000 0.14550500 10525.00873054 0 71.20855682 0 2789.82725061 0 242.78286630 0 951.49691159 0 23559
0.14650000 0.14650700 10463.77877429 0 51.84383578 0 2816.40083017 0 292.22633278 0 933.23864797 0 23044
0.14750000 0.14750500 10480.39833384 0 6.22914600 0 2584.23632337 0 409.57526013 0 610.59996061 0 23649
0.14850000 0.14849900 10504.39206172 0 -18.97785402 0 2526.79310221 0 109.47882960 0 438.87927500 0 23640
0.14950000 0.14949500 10266.35922277 0 231.01519948 0 2494.41762444 0 -454.44585646 0 180.57190207 0 24457
0.15050000 0.15050000 10256.34984114 0 321.89130543 0 2819.06926045 0 -436.93165306 0 106.86088912 0 24591
0.15150000 0.15149900 10015.69286120 0 217.73948202 0 2988.77478295 0 -465.18047537 0 311.91514077 0 25020
0.15250000 0.15250500 9871.75263856 0 245.08590986 0 3092.15707978 0 31.83990942 0 233.91725582 0 25297
0.15350000 0.15350100 9781.03708132 0 86.70028937 0 3521.17644953 0 -43.23144936 0 163.45187344 0 25452
0.15450000 0.15450400 9557.42040928 0 200.39689966 0 3420.19684718 0 237.11605046 0 311.62172416 0 26061
0.15550000 0.15549900 9502.55703981 0 137.93237920 0 3175.05557570 0 98.34649278 0 137.60685285 0 26128
0.15650000 0.15649500 9339.88244357 0 154.33492118 0 3162.05666636 0 170.54148302 0 581.63365165 0 26331
0.15750000 0.15749700 9285.11872502 0 -14.84688035 0 2751.16269234 0 380.62555966 0 348.50142367 0 27345
0.15850000 0.15849900 9251.44778525 0 -145.15485668 0 2602.77139512 0 364.28280823 0 259.85639117 0 26980
0.15950000 0.15949700 9366.34529989 0 99.77371545 0 2376.35342490 0 351.63489159 0 -140.51333811 0 27777
0.16050000 0.16050000 9220.53385435 0 175.23061258 0 2278.38549491 0 68.13266499 0 115.71797391 0 28224
0.16150000 0.16150500 8998.19049967 0 257.08720273 0 2272.65003065 0 -48.65223815 0 166.09483737 0 28075
0.16250000 0.16249700 8838.51650346 0 189.96676968 0 2347.08927041 0 77.03071738 0 608.12640325 0 28590
0.16350000 0.16349900 8976.71018952 0 -71.91995369 0 2302.48994604 0 59.35507949 0 319.23062578 0 29163
0.16450000 0.16449100 8878.46545140 0 -84.32881884 0 2344.56478035 0 51.92964629 0 558.30758496 0 28996
0.16550000 0.16550500 9090.71084585 0 131.65437102 0 2512.29942903 0 -87.27926123 0 298.76896951 0 30777
0.16650000 0.16650700 8901.19693426 0 142.47092514 0 2503.13154408 0 -277.28644490 0 641.29908840 0 29211
0.16750000 0.16749900 8804.00406700 0 168.80755695 0 2623.07803884 0 -22.43994854 0 354.06194519 0 30922
0.16850000 0.16850800 8519.58925938 0 307.23708353 0 2701.23757973 0 19.91634427 0 488.48771912 0 30867
0.16950000 0.16949900 8525.30257899 0 172.15804244 0 2878.17333033 0 223.01212310 0 345.30927242 0 30852
0.17050000 0.17049200 8321.85968277 0 89.55573121 0 2735.03031508 0 -6.72984760 0 637.05617353 0 31257
0.17150000 0.17149500 8202.28964705 0 105.57616727 0 2797.58895030 0 -47.22069727 0 605.75471127 0 32608
0.17250000 0.17250900 8233.85684511 0 9.60879600 0 2728.78552388 0 -38.72744907 0 352.66351057 0 32361
0.17350000 0.17350400 8253.67630654 0 61.39316231 0 2969.95183076 0 -138.91781610 0 212.38933467 0 32508
0.17450000 0.17449800 8234.70941412 0 121.65052555 0 2870.32305204 0 -121.69592208 0 -32.82933236 0 32791
0.17550000 0.17549800 8046.44667523 0 151.55687489 0 2700.30750445 0 -116.76652307 0 69.98849735 0 33633
0.17650000 0.17650100 8004.69293834 0 44.31565141 0 2739.42602803 0 196.78842900 0 -214.45100155 0 33984
0.17750000 0.17750300 7986.47896401 0 -19.47489068 0 2439.22208522 0 276.29215013 0 -447.69506002 0 34069
0.17850000 0.17849800 7872.47830768 0 74.92586843 0 2224.71793651 0 420.25894635 0 -687.29906186 0 34536
