### header ###
fiducial parameters:
Omega_m = 0.31
Omega_nu = 0
Omega_de = 0.69
Omega_k = 0
H_0 = 100
w_de = -1
zeff = 0
beta = 0
fgrowth = 0
b_1 = 2
gamma = 0.55
Lx = 3500 Ly = 3500 Lz = 3500
nx = 700 ny = 700 nz = 700
xoffset = -685.467585 yoffset = -31.7331281 zoffset = 572.489161
bins = 400 dk = 0.001
kx_ny = 0.628318531 ky_ny = 0.628318531 kz_ny = 0.628318531
############################
A(data) = 8.0696603 (not used)
A(ran) = 8.07356801 (used)
Ngal = 480253
weighted Ngal = 0
Nran = 23820508
weighted Nran = 0
SN(data) = 3480.09656
SN(ran) = 70.3237053
SN(data+ran) = 3550.42026
############################
13 columns: k_central k_mean P_0(k) sigma^{lin}_{P_0(k)} P^img_1(k) sigma^{lin}_{P_1(k)} P_2(k) sigma^{lin}_{P_2(k)} P^img_3(k) sigma^{lin}_{P_3(k)} P_4(k) sigma^{lin}_{P_4(k)} N_modes
### header ###
0.00050000 0 0 0 0 0 0 0 0 0 0 0 0
0.00150000 0.00179520 4596.77529938 0 -6689.09037571 0 -12559.44876504 0 23829.85747469 0 -9180.17523039 0 3
0.00250000 0.00253879 14591.22036926 0 -15524.06373523 0 -2944.27510950 0 -7379.32803258 0 -6071.08856596 0 6
0.00350000 0.00331552 18444.38940615 0 -5439.81103875 0 -11167.65753533 0 16633.39995881 0 39193.48322330 0 7
0.00450000 0.00420575 31215.43029847 0 -7173.95855185 0 -6007.48913220 0 -2667.45591671 0 -13165.32637912 0 24
0.00550000 0.00557378 32661.14375004 0 -2634.69290757 0 -10053.01766817 0 7327.74207125 0 -4071.34919744 0 45
0.00650000 0.00659388 38717.59470259 0 -1319.82111838 0 -18140.23264338 0 30607.44894268 0 12197.60518997 0 40
0.00750000 0.00754703 33686.21958175 0 -13743.96607414 0 -20646.56408933 0 1650.28572492 0 -15826.22747953 0 57
0.00850000 0.00846663 50567.52889325 0 -14054.10189231 0 -25661.77361594 0 1093.94237038 0 -23654.13967982 0 75
0.00950000 0.00948925 57890.32163531 0 -11312.15137422 0 -21461.59791923 0 -25667.08833185 0 -15721.92617974 0 112
0.01050000 0.01054430 63775.92661591 0 -6342.33837937 0 -24200.22673987 0 -19507.66475848 0 -3172.36500076 0 105
0.01150000 0.01145670 64450.78481361 0 -1023.11270852 0 -28263.43777857 0 -17857.66691401 0 -11945.26690735 0 144
0.01250000 0.01249090 72466.48364282 0 -5295.68258659 0 -24750.18911362 0 -12097.73282010 0 -19657.47331328 0 169
0.01350000 0.01339930 73329.34991594 0 -5189.87545062 0 -20873.76819461 0 -9542.51706008 0 -24977.94683514 0 180
0.01450000 0.01448870 72293.42320591 0 4384.07593962 0 -11901.64194756 0 -18075.90243618 0 -23752.24047771 0 267
0.01550000 0.01550050 71135.14730663 0 -3269.48036175 0 -11962.87190381 0 -8946.83705716 0 -23679.82747340 0 238
0.01650000 0.01653350 72021.48690836 0 -4972.74716093 0 -13739.09425122 0 3281.62670208 0 -17081.93983721 0 315
0.01750000 0.01747870 77469.62433537 0 -6816.36674950 0 -17249.79628147 0 7096.90624343 0 -3882.92037368 0 297
0.01850000 0.01844180 81573.36008291 0 -4911.28468586 0 -15403.92901095 0 -1150.87958630 0 -11019.28838277 0 388
0.01950000 0.01947590 85079.52245998 0 6271.43121123 0 -6629.83129328 0 -17134.20121036 0 2420.42127768 0 399
0.02050000 0.02045430 77908.08839819 0 8436.91220996 0 -3832.62987435 0 428.08154384 0 3897.03758782 0 462
0.02150000 0.02154770 67726.64283445 0 7536.24501991 0 4440.78838734 0 -13630.14257500 0 8530.91624767 0 571
0.02250000 0.02255340 69797.49974529 0 -153.51999808 0 -444.03233497 0 -2291.14081310 0 8778.71487711 0 510
0.02350000 0.02348930 71414.28061531 0 -6037.11867342 0 18868.45944670 0 -3298.82202252 0 -8022.15399458 0 555
0.02450000 0.02439640 77082.64658296 0 -3083.71996827 0 20167.13242468 0 -5133.98235494 0 4487.28107925 0 592
0.02550000 0.02547300 78629.00746713 0 2708.66710968 0 31533.87036026 0 -12047.24301893 0 -2037.75065962 0 837
0.02650000 0.02652900 74399.93300265 0 6310.82654293 0 33047.45716297 0 -10878.13838598 0 9204.71150219 0 723
0.02750000 0.02749970 76734.08979767 0 3413.52023531 0 36195.09766241 0 4274.21633277 0 6845.92985677 0 826
0.02850000 0.02848090 72928.64248075 0 1476.87097361 0 44867.82824636 0 9708.82337885 0 11501.70957511 0 831
0.02950000 0.02946900 73813.21051051 0 2602.33957445 0 41147.52710729 0 9869.16171455 0 -1980.17457057 0 996
0.03050000 0.03053250 67754.65581625 0 782.74693073 0 35389.36458536 0 7288.61247534 0 9259.20948494 0 1041
0.03150000 0.03150510 70616.85178187 0 2901.17054898 0 36350.22093312 0 5737.45727453 0 7563.97012126 0 1036
0.03250000 0.03246190 66347.14188530 0 3835.67476368 0 28822.70090516 0 5607.46818116 0 3849.12763833 0 1059
0.03350000 0.03345080 62973.73668280 0 3836.06229504 0 29049.90501044 0 5749.36002371 0 7629.79509231 0 1302
0.03450000 0.03451200 59566.33944311 0 533.07818563 0 27655.78859253 0 3321.55350537 0 7008.59338068 0 1339
0.03550000 0.03553350 55175.83048277 0 3331.40787446 0 25059.32842255 0 7401.95986451 0 4292.95070636 0 1365
0.03650000 0.03647120 56032.93914699 0 3852.02858743 0 24227.02176594 0 4595.93380270 0 2054.20413430 0 1308
0.03750000 0.03744890 49917.58342640 0 3802.01489623 0 23852.33429407 0 3047.75705726 0 3360.12948504 0 1579
0.03850000 0.03847530 47411.14125720 0 3675.53572982 0 17775.62098710 0 401.17800899 0 4708.66114168 0 1662
0.03950000 0.03950240 44930.16543509 0 1240.35504316 0 18642.80546690 0 349.46693039 0 3661.69532380 0 1683
0.04050000 0.04050350 42480.63501546 0 -381.12159982 0 17056.58421338 0 5731.89896747 0 2557.95062425 0 1822
0.04150000 0.04152450 46185.54562303 0 -3773.60331074 0 14432.66467786 0 8068.98992856 0 -2581.77826726 0 1887
0.04250000 0.04250150 45753.39278535 0 -2782.38664833 0 13093.24554455 0 3293.18620919 0 -423.77994564 0 1920
0.04350000 0.04349210 49453.09940026 0 752.15963342 0 8604.04895310 0 -1396.23123196 0 -9313.60781678 0 2005
0.04450000 0.04448520 45985.46871355 0 3756.19761613 0 11491.19086654 0 -5770.16492204 0 -2850.06069762 0 2151
0.04550000 0.04548030 43176.30918381 0 4085.48855623 0 14624.88023671 0 -6337.26725460 0 239.83652066 0 2274
0.04650000 0.04648670 40993.73251556 0 3301.95549044 0 16520.35152241 0 -3981.17618412 0 755.93751065 0 2311
0.04750000 0.04749250 41052.74800685 0 684.83104066 0 20229.13744367 0 1572.07082240 0 -104.91116344 0 2568
0.04850000 0.04851840 39504.94772045 0 1039.76437781 0 19035.43010497 0 1968.07251954 0 -1790.99282872 0 2493
0.04950000 0.04949480 39644.34828991 0 852.14161930 0 19380.22229982 0 1136.55199798 0 -3276.42270941 0 2644
0.05050000 0.05050630 37237.66776733 0 2143.75709744 0 18769.25141633 0 -353.01339603 0 -1433.46746032 0 2829
0.05150000 0.05149060 36447.32522178 0 3345.76867975 0 18369.20832063 0 1570.75321575 0 -1959.45825083 0 2784
0.05250000 0.05249300 33464.66236213 0 560.68259863 0 16362.79234024 0 3921.92817401 0 953.24855338 0 3055
0.05350000 0.05348950 33535.63596422 0 -1521.12705591 0 16073.69393923 0 6500.58404568 0 1503.64385502 0 3009
0.05450000 0.05448610 34767.76427004 0 -1046.32473027 0 13852.36413411 0 5126.87392240 0 -1144.00367259 0 3336
0.05550000 0.05550870 35161.16397085 0 -255.76738161 0 11658.71514104 0 3047.66847866 0 619.56079309 0 3349
0.05650000 0.05647670 34111.61830129 0 666.96141564 0 9862.03113737 0 840.11596731 0 2428.02796483 0 3324
0.05750000 0.05747970 35678.79515612 0 -138.58232466 0 11324.44165477 0 -425.69877953 0 3644.63287125 0 3639
0.05850000 0.05849280 34696.45849821 0 -276.17921242 0 11518.76095533 0 -2563.28748482 0 2335.86193304 0 3846
0.05950000 0.05951020 35501.97012876 0 1576.06793166 0 14645.58548412 0 -1007.44979783 0 1100.35435369 0 3787
0.06050000 0.06049470 33268.79293609 0 2624.55065804 0 13689.04734304 0 -3923.13505742 0 2108.90141891 0 3930
0.06150000 0.06148310 33335.66977799 0 1404.39153535 0 15003.33229901 0 -776.82877311 0 1133.21922821 0 4083
0.06250000 0.06249100 31372.21441790 0 216.29232917 0 15548.53357308 0 -568.88608409 0 1738.90861277 0 4303
0.06350000 0.06350600 31823.52237751 0 333.17732612 0 15960.53477958 0 1795.43283097 0 -736.47236361 0 4470
0.06450000 0.06451750 31413.95708247 0 713.33674091 0 15726.24438642 0 1269.15416001 0 654.15184305 0 4479
0.06550000 0.06550280 30559.17360647 0 750.86860034 0 14224.06207827 0 3377.28051618 0 -534.07690932 0 4636
0.06650000 0.06648880 29574.84393009 0 -257.59210074 0 12911.77014077 0 1052.30378567 0 484.19054985 0 4653
0.06750000 0.06749660 30030.80226613 0 216.82712246 0 11723.48824123 0 1532.87479254 0 -701.10071475 0 5220
0.06850000 0.06852730 29933.47653097 0 1133.42960239 0 11565.92905906 0 878.70523377 0 -869.49305952 0 5029
0.06950000 0.06949320 28200.87914335 0 842.41015301 0 9510.55125833 0 889.55611209 0 1333.27399304 0 5040
0.07050000 0.07048030 27507.19799346 0 -414.83350719 0 8970.76435109 0 2149.90223771 0 1057.90859650 0 5475
0.07150000 0.07148790 28685.84697040 0 -511.68866854 0 7452.07320664 0 2210.73359027 0 -1084.05035539 0 5509
0.07250000 0.07249820 28149.94644918 0 45.41856568 0 8034.68786627 0 1673.12793102 0 -1723.48486430 0 5916
0.07350000 0.07351270 27518.60248802 0 1153.28228079 0 6876.89914929 0 -656.32091149 0 200.94165804 0 5721
0.07450000 0.07449140 26913.38921344 0 966.95498427 0 7807.61662889 0 -8.07337457 0 2104.78251408 0 6028
0.07550000 0.07549160 26147.84867547 0 478.05426744 0 7261.31919467 0 872.17809829 0 648.18053828 0 6183
0.07650000 0.07648840 26214.72551738 0 -2.99664721 0 7290.24010709 0 1248.52641888 0 926.23097359 0 6330
0.07750000 0.07749960 26028.71046043 0 -41.98038738 0 6784.71097285 0 -6.47446443 0 -179.14025047 0 6583
0.07850000 0.07848650 26412.25579214 0 601.29920776 0 7270.38742869 0 -657.02954027 0 1558.98333447 0 6549
0.07950000 0.07947320 25554.37206519 0 484.43967716 0 7849.28178719 0 491.25026416 0 663.56885531 0 6828
0.08050000 0.08048110 24976.06453992 0 1059.59712603 0 8085.00051025 0 -882.05682649 0 1826.64571463 0 7147
0.08150000 0.08149960 24563.39899393 0 638.96504233 0 8128.83584421 0 -648.39534138 0 -206.30509218 0 7386
0.08250000 0.08250610 24061.37978665 0 683.00078537 0 8797.30531048 0 -490.42426873 0 1718.57982440 0 7227
0.08350000 0.08350160 23744.04695735 0 337.16336305 0 9463.84819224 0 -121.57634097 0 920.74242218 0 7798
0.08450000 0.08449610 23632.43792317 0 240.26834133 0 9169.95547458 0 -84.14712199 0 918.91770305 0 7371
0.08550000 0.08548940 23641.84939927 0 544.56240093 0 10063.50315977 0 978.09595750 0 1135.33404225 0 8256
0.08650000 0.08650700 23013.16279607 0 337.53760763 0 10020.38752693 0 1448.70297927 0 1795.16709517 0 8037
0.08750000 0.08749060 22353.58440662 0 203.76177917 0 8818.11020882 0 1390.27432120 0 1499.46958857 0 8155
0.08850000 0.08849210 22340.85123308 0 725.41664728 0 8786.73124028 0 1565.53815076 0 1631.34097716 0 8718
0.08950000 0.08949900 21464.14455394 0 572.20113814 0 7147.91644387 0 827.38279377 0 2507.19508728 0 8571
0.09050000 0.09049190 21028.78074207 0 377.85304953 0 7810.51757800 0 664.11139923 0 2089.38091025 0 8932
0.09150000 0.09150830 20433.75400632 0 540.35934643 0 7295.67661858 0 179.29415579 0 2909.65194979 0 9285
0.09250000 0.09250820 20511.14955680 0 175.86062786 0 7110.95702363 0 235.86155605 0 1169.50323664 0 9204
0.09350000 0.09350330 19687.59003679 0 400.16599850 0 7484.86943276 0 323.83560567 0 1744.56657075 0 9349
0.09450000 0.09448040 19953.54727893 0 410.91833313 0 6605.74898680 0 -321.16938985 0 1291.21023105 0 9564
0.09550000 0.09549270 19101.19971439 0 471.38762067 0 7223.92795375 0 174.20088637 0 1652.63305778 0 10155
0.09650000 0.09649430 19156.89350823 0 479.76604886 0 7356.04293349 0 -124.84932019 0 1870.50319324 0 9913
0.09750000 0.09749140 18627.96855164 0 476.12879015 0 7824.28047775 0 664.28302026 0 1138.64466738 0 10476
0.09850000 0.09850240 18333.00181847 0 396.65385707 0 7502.00939157 0 -22.38945874 0 1487.77721356 0 10575
0.09950000 0.09950330 17894.20558591 0 363.64282786 0 7445.36337780 0 369.77468134 0 1459.02238600 0 10882
0.10050000 0.10051200 17827.10729751 0 -204.58445291 0 7100.43831505 0 1372.19321477 0 1697.83028769 0 10875
0.10150000 0.10150300 17935.50535748 0 -254.85723651 0 6680.26573283 0 837.02900315 0 1615.97259031 0 11118
0.10250000 0.10250800 18154.62666565 0 33.60494872 0 6164.17360071 0 698.10232919 0 129.39893846 0 11575
0.10350000 0.10349800 17636.22041764 0 492.28995546 0 5485.26293213 0 18.73924542 0 1391.60300018 0 11364
0.10450000 0.10450100 17325.75242972 0 805.63342613 0 5451.04944844 0 -18.97420015 0 623.09618640 0 12093
0.10550000 0.10551000 16349.83772021 0 586.66934498 0 5041.21841760 0 -408.71936943 0 1097.45340458 0 12067
0.10650000 0.10649700 16403.20632583 0 322.94428352 0 5409.10748203 0 626.83752496 0 -107.43687146 0 12054
0.10750000 0.10749900 15814.60153847 0 117.20830883 0 5334.44679578 0 -45.65340969 0 805.13295705 0 12807
0.10850000 0.10850100 15880.37114790 0 42.75589301 0 4880.57005681 0 891.71964436 0 441.29525627 0 12736
0.10950000 0.10950300 16022.09690557 0 -188.96583152 0 4893.50253220 0 676.64748539 0 764.07899109 0 12933
0.11050000 0.11050200 16146.32839004 0 -265.54313720 0 4673.24077458 0 291.40698074 0 109.12119351 0 13428
0.11150000 0.11150900 16050.10988737 0 290.85225727 0 4441.36414823 0 -155.78761020 0 495.02371246 0 13453
0.11250000 0.11250000 15882.25344311 0 642.44618125 0 5197.89181379 0 -830.77092517 0 518.49039768 0 13668
0.11350000 0.11349100 15346.13147540 0 530.57805468 0 4903.92158985 0 -561.17753155 0 406.21702402 0 13791
0.11450000 0.11448600 14839.68333819 0 509.37233819 0 5433.73233243 0 85.66834869 0 976.32106384 0 14205
0.11550000 0.11549300 14712.01943303 0 42.60176625 0 5108.40528460 0 641.78959239 0 453.80033992 0 14776
0.11650000 0.11649800 14716.22691646 0 -140.29853501 0 4422.75157021 0 1336.70641373 0 195.98236376 0 14553
0.11750000 0.11747300 14841.45491016 0 -349.07497009 0 4018.03595344 0 685.23960945 0 72.41599384 0 14568
0.11850000 0.11849100 14879.98660053 0 -41.30696858 0 3716.86871837 0 467.40822713 0 174.45776431 0 16015
0.11950000 0.11950300 14888.40156739 0 348.60882522 0 3587.72112169 0 -446.57121905 0 -128.04368590 0 15270
0.12050000 0.12050700 14534.08717320 0 506.46806739 0 3719.47071470 0 -467.95519997 0 -144.62781401 0 15999
0.12150000 0.12150000 14177.00469779 0 306.80415563 0 3476.69892073 0 38.30038950 0 -7.58519577 0 15670
0.12250000 0.12250700 14162.94284528 0 -34.79334134 0 3230.49470606 0 534.53530357 0 5.53454585 0 16887
0.12350000 0.12352200 14082.44704384 0 -132.98194277 0 3505.52018223 0 1053.91923786 0 -399.18388329 0 16407
0.12450000 0.12449800 13942.71430463 0 266.16318739 0 3325.58383161 0 303.55996446 0 -717.95943652 0 16306
0.12550000 0.12549900 13758.13864991 0 497.93241219 0 3318.14322933 0 -171.21910930 0 -254.76312175 0 17523
0.12650000 0.12650100 13251.69051270 0 438.47845684 0 3377.31373316 0 -473.39614039 0 -344.50320717 0 17154
0.12750000 0.12750600 13056.92831914 0 239.51763771 0 3516.79180890 0 -507.50554423 0 366.52606124 0 18007
0.12850000 0.12850300 12927.93573500 0 191.16700969 0 3616.04412857 0 302.42948010 0 283.58549049 0 17496
0.12950000 0.12949900 12951.29834037 0 80.23582324 0 3708.11050944 0 361.95208386 0 67.89649230 0 18405
0.13050000 0.13049000 12722.10121662 0 107.59454136 0 3094.20545987 0 367.05974730 0 363.24311693 0 18100
0.13150000 0.13148800 12672.82937118 0 170.87808169 0 3069.27058438 0 356.27862462 0 240.90278554 0 19059
0.13250000 0.13249300 12670.72562947 0 60.71653255 0 3193.83423859 0 36.92409953 0 945.88435014 0 18957
0.13350000 0.13349100 12533.09663197 0 35.25472512 0 3360.32878689 0 160.07592160 0 1014.02786601 0 19468
0.13450000 0.13450700 12388.49206984 0 357.81324884 0 3319.10652159 0 95.59457717 0 950.87575417 0 19953
0.13550000 0.13551000 12317.18629801 0 407.78818691 0 3681.12725386 0 65.72775603 0 907.84869993 0 19956
0.13650000 0.13649900 11892.67336446 0 85.37448919 0 3646.32693695 0 -141.25739834 0 951.99295174 0 19723
0.13750000 0.13749600 11754.38002747 0 203.51375910 0 3582.04101905 0 317.17781675 0 1226.86895153 0 20946
0.13850000 0.13851100 11742.08974693 0 38.32319849 0 3662.34859096 0 149.99456985 0 748.40943700 0 20955
0.13950000 0.13949800 11619.29766469 0 45.44680011 0 3337.69695496 0 602.90690933 0 610.72839958 0 20506
0.14050000 0.14048300 11631.47722199 0 129.42329757 0 3169.75193211 0 -210.22580240 0 499.86564010 0 21447
0.14150000 0.14148400 11319.90200159 0 218.61862461 0 3093.20895064 0 -83.92423609 0 895.90609038 0 21771
0.14250000 0.14249400 11248.59622976 0 257.86115824 0 3311.61055768 0 78.06586903 0 768.09049437 0 22470
0.14350000 0.14350900 10894.54757136 0 254.21061274 0 3009.29180084 0 53.74262876 0 659.95927742 0 22519
0.14450000 0.14449900 10777.00377108 0 387.55572777 0 3496.04227219 0 -68.62460838 0 1088.26891115 0 22218
0.14550000 0.14550500 10569.36446376 0 223.74289654 0 3572.23093927 0 73.31628457 0 872.10391371 0 23559
0.14650000 0.14650700 10375.91987685 0 14.03051784 0 3483.81842559 0 284.77133648 0 1383.44269679 0 23044
0.14750000 0.14750500 10428.23661162 0 79.95525053 0 3586.50316596 0 240.36245609 0 816.65813995 0 23649
0.14850000 0.14849900 10492.74397601 0 104.05959094 0 3495.57723455 0 -145.90777476 0 1147.31429771 0 23640
0.14950000 0.14949500 10367.41633139 0 79.26965218 0 3645.48544027 0 -40.84724566 0 674.07759880 0 24457
0.15050000 0.15050000 10305.42238473 0 91.84925258 0 3615.52372931 0 26.75051532 0 1338.90980637 0 24591
0.15150000 0.15149900 10363.00954611 0 42.48218514 0 3670.53103901 0 -83.42365628 0 871.97326028 0 25020
0.15250000 0.15250500 10214.44109170 0 127.63622435 0 3349.62184879 0 432.82049886 0 446.51696466 0 25297
0.15350000 0.15350100 10076.28062261 0 111.30343801 0 3202.97997889 0 -33.43587432 0 650.76924782 0 25452
0.15450000 0.15450400 9981.72296866 0 256.17484317 0 3061.30958283 0 184.36085163 0 386.11964724 0 26061
0.15550000 0.15549900 9698.21609168 0 246.81097807 0 3083.01133948 0 -100.21273313 0 399.66774389 0 26128
0.15650000 0.15649500 9564.22988905 0 284.66393492 0 3094.02830267 0 92.10258737 0 146.50014414 0 26331
0.15750000 0.15749700 9344.37780745 0 66.23254332 0 3022.02497438 0 281.15732965 0 276.83580128 0 27345
0.15850000 0.15849900 9338.71984947 0 95.04926517 0 3028.75694787 0 124.52047214 0 351.29607845 0 26980
0.15950000 0.15949700 9288.20790364 0 150.66001657 0 3010.67584144 0 216.58574578 0 236.30002012 0 27777
0.16050000 0.16050000 9040.46463583 0 150.41310373 0 3103.93803339 0 212.74697076 0 524.05756260 0 28224
0.16150000 0.16150500 9025.24018920 0 82.53189124 0 2904.60296968 0 107.67747308 0 253.93934079 0 28075
0.16250000 0.16249700 8977.08664856 0 -31.03074392 0 2935.16258617 0 58.16712976 0 93.71826101 0 28590
0.16350000 0.16349900 8997.47079856 0 105.41141108 0 2917.73474691 0 -272.36368928 0 -89.65726443 0 29163
0.16450000 0.16449100 8934.26996849 0 217.84577634 0 2933.96677509 0 -23.37533854 0 389.32951420 0 28996
0.16550000 0.16550500 8648.43790330 0 221.09328921 0 2768.96699065 0 61.45760325 0 567.88957486 0 30777
0.16650000 0.16650700 8623.61375105 0 19.15921870 0 2549.41386182 0 595.11309989 0 435.98496929 0 29211
0.16750000 0.16749900 8560.52364424 0 74.17881868 0 2600.74515968 0 369.67724488 0 259.30388216 0 30922
0.16850000 0.16850800 8598.61244161 0 99.27302492 0 2440.45111328 0 125.66535053 0 595.55377842 0 30867
0.16950000 0.16949900 8478.80988708 0 91.48353369 0 2248.78917067 0 -12.82518456 0 547.22418781 0 30852
0.17050000 0.17049200 8413.17314555 0 30.88038175 0 2356.16857676 0 -183.43963420 0 920.64720018 0 31257
0.17150000 0.17149500 8458.19321826 0 92.72684504 0 2459.77232009 0 14.27067657 0 761.32530390 0 32608
0.17250000 0.17250900 8329.22277878 0 104.94139089 0 2363.47631114 0 97.76209548 0 697.14125139 0 32361
0.17350000 0.17350400 8213.69414162 0 91.34468674 0 2407.58845322 0 246.57403032 0 633.33697963 0 32508
0.17450000 0.17449800 8091.18993982 0 185.18795429 0 2401.85298896 0 149.83512838 0 478.55695099 0 32791
0.17550000 0.17549800 8126.41100507 0 -16.06981863 0 2399.68281330 0 151.98205216 0 600.92496318 0 33633
0.17650000 0.17650100 7968.81860593 0 90.62553924 0 2364.81606244 0 9.58798003 0 547.65157955 0 33984
0.17750000 0.17750300 8073.99461938 0 74.07108496 0 2377.88140573 0 21.17083867 0 481.26191994 0 34069
0.17850000 0.17849800 7959.96074607 0 68.36806261 0 2259.09750507 0 3.53086473 0 222.62902066 0 34536
