### header ###
fiducial parameters:
Omega_m = 0.31
Omega_nu = 0
Omega_de = 0.69
Omega_k = 0
H_0 = 100
w_de = -1
zeff = 0
beta = 0
fgrowth = 0
b_1 = 2
gamma = 0.55
Lx = 3500 Ly = 3500 Lz = 3500
nx = 700 ny = 700 nz = 700
xoffset = -685.467585 yoffset = -31.7331281 zoffset = 572.489161
bins = 400 dk = 0.001
kx_ny = 0.628318531 ky_ny = 0.628318531 kz_ny = 0.628318531
############################
A(data) = 8.04781632 (not used)
A(ran) = 8.04568467 (used)
Ngal = 477695
weighted Ngal = 0
Nran = 23820508
weighted Nran = 0
SN(data) = 3489.56082
SN(ran) = 70.0808313
SN(data+ran) = 3559.64165
############################
13 columns: k_central k_mean P_0(k) sigma^{lin}_{P_0(k)} P^img_1(k) sigma^{lin}_{P_1(k)} P_2(k) sigma^{lin}_{P_2(k)} P^img_3(k) sigma^{lin}_{P_3(k)} P_4(k) sigma^{lin}_{P_4(k)} N_modes
### header ###
0.00050000 0 0 0 0 0 0 0 0 0 0 0 0
0.00150000 0.00179520 25115.46510938 0 -35933.79079669 0 25925.51639312 0 -150884.78476866 0 19090.68100581 0 3
0.00250000 0.00253879 43690.72939489 0 -29026.43168183 0 -27394.37100356 0 32109.29908108 0 -5162.39394042 0 6
0.00350000 0.00331552 72453.30757629 0 -32151.48463864 0 31144.56741963 0 -52442.51637804 0 -10199.07270485 0 7
0.00450000 0.00420575 84621.34965899 0 -8556.98050030 0 32505.24541660 0 -15191.00820469 0 37892.48505711 0 24
0.00550000 0.00557378 85519.20447853 0 29829.39667767 0 53583.74089710 0 14060.41311745 0 27313.54303238 0 45
0.00650000 0.00659388 65141.91932879 0 21649.82744115 0 51729.12648998 0 21355.74649396 0 66413.68655746 0 40
0.00750000 0.00754703 56078.66784849 0 16277.64616239 0 69401.99630276 0 61573.86265598 0 19597.35058951 0 57
0.00850000 0.00846663 62824.70319074 0 -10572.54222098 0 62338.84957770 0 44995.38142827 0 8839.38014479 0 75
0.00950000 0.00948925 59665.65819674 0 -5272.35319819 0 55702.31952790 0 35841.11543796 0 14423.69609475 0 112
0.01050000 0.01054430 65807.36605039 0 2589.26315884 0 42597.44804230 0 33207.67370309 0 36690.80564454 0 105
0.01150000 0.01145670 67680.36051671 0 -3075.85861765 0 38962.07163459 0 11982.35919549 0 38192.54505969 0 144
0.01250000 0.01249090 71155.29893780 0 -4015.45610176 0 38090.56894811 0 11367.40227506 0 27974.78227055 0 169
0.01350000 0.01339930 76137.18076670 0 -1888.91646941 0 39040.02080131 0 11066.94366878 0 19837.50931483 0 180
0.01450000 0.01448870 69005.38562776 0 4906.65645408 0 25061.87505726 0 -45.66448202 0 16044.90589470 0 267
0.01550000 0.01550050 71854.07335710 0 7485.19053018 0 31041.48407557 0 9476.66994438 0 15027.24852062 0 238
0.01650000 0.01653350 65637.73803417 0 -1757.59869706 0 21560.58450311 0 -750.46003156 0 19948.78617926 0 315
0.01750000 0.01747870 66421.88007783 0 -4503.50203511 0 33278.97947492 0 5612.04105131 0 7720.55493884 0 297
0.01850000 0.01844180 70194.22114354 0 -6413.72165747 0 21551.17302701 0 13189.68549372 0 1621.55304202 0 388
0.01950000 0.01947590 72731.88726872 0 992.77675298 0 20904.99215060 0 2096.51148744 0 7620.89294315 0 399
0.02050000 0.02045430 73218.29449801 0 2389.75093793 0 17282.79180943 0 -7075.38164399 0 7940.76133484 0 462
0.02150000 0.02154770 71082.44304049 0 4356.51692314 0 21025.34832138 0 -50.16261397 0 3322.98183527 0 571
0.02250000 0.02255340 72265.74239386 0 7349.16701978 0 30257.89564816 0 -5249.62171534 0 7345.41350166 0 510
0.02350000 0.02348930 64006.23097214 0 3509.73873799 0 27319.18991804 0 -4835.70499665 0 1163.25844545 0 555
0.02450000 0.02439640 65901.14864160 0 665.75674670 0 33087.53897881 0 1451.23854166 0 -919.22551368 0 592
0.02550000 0.02547300 64847.61693511 0 -2801.53069794 0 31641.38263425 0 1096.99943927 0 -12934.91129964 0 837
0.02650000 0.02652900 68959.87837276 0 2533.00467644 0 33844.33238016 0 -955.84169185 0 -20578.13712195 0 723
0.02750000 0.02749970 65022.33822075 0 3291.66930069 0 31344.53360586 0 -3197.78705855 0 -13859.89331499 0 826
0.02850000 0.02848090 63755.33209175 0 3126.55879299 0 33261.81737145 0 436.74010184 0 -10368.47927457 0 831
0.02950000 0.02946900 63904.69775355 0 -91.06599632 0 32678.08440702 0 -769.85210125 0 -20839.99760391 0 996
0.03050000 0.03053250 62514.12447958 0 1459.81959339 0 37574.70933481 0 7532.46935715 0 -8842.17037065 0 1041
0.03150000 0.03150510 60679.55098038 0 3886.56316854 0 32656.82554336 0 4197.81729152 0 -9507.03025903 0 1036
0.03250000 0.03246190 57011.95410745 0 3085.10400887 0 32579.42999288 0 4664.00645568 0 -13579.54205058 0 1059
0.03350000 0.03345080 56704.80781698 0 1672.90648452 0 33631.30085065 0 7845.84936649 0 26.28569912 0 1302
0.03450000 0.03451200 55542.76732726 0 -669.63648931 0 26446.35855258 0 6437.18391377 0 1169.84647871 0 1339
0.03550000 0.03553350 54257.93475531 0 377.58399204 0 21310.90357845 0 9700.72950941 0 5681.88527626 0 1365
0.03650000 0.03647120 56104.46636531 0 -1252.97749345 0 23040.51143837 0 1575.96828074 0 -10063.44779815 0 1308
0.03750000 0.03744890 53312.35821580 0 2347.33286155 0 20773.34220850 0 67.10050287 0 -3158.72389659 0 1579
0.03850000 0.03847530 52222.39856065 0 5800.55845367 0 22654.08730220 0 -615.84159918 0 1872.50728403 0 1662
0.03950000 0.03950240 49366.07092718 0 1571.09645782 0 26835.88293970 0 -1934.97734066 0 6349.87863257 0 1683
0.04050000 0.04050350 47503.59516944 0 1132.01234481 0 27189.20082467 0 4203.27594765 0 5655.76566201 0 1822
0.04150000 0.04152450 45950.59089037 0 3558.46803952 0 27696.64547111 0 3723.00278632 0 5906.59810846 0 1887
0.04250000 0.04250150 44028.54602511 0 3301.41294653 0 24635.92272149 0 7540.57429892 0 10324.82109781 0 1920
0.04350000 0.04349210 41755.06557009 0 -716.60307673 0 25155.87909497 0 3425.41191217 0 10680.96242561 0 2005
0.04450000 0.04448520 41614.44704490 0 -244.42489207 0 18801.58260480 0 8923.18657135 0 4705.09585309 0 2151
0.04550000 0.04548030 41627.06949519 0 -85.33994354 0 15510.33405246 0 6182.88582966 0 5673.24886290 0 2274
0.04650000 0.04648670 40108.61086956 0 226.81768114 0 9434.93835214 0 3979.51533539 0 2535.70632369 0 2311
0.04750000 0.04749250 40062.99289131 0 484.49946772 0 7257.78712305 0 1493.87806453 0 1796.90545017 0 2568
0.04850000 0.04851840 38706.52237778 0 614.84619718 0 7983.65552119 0 252.08029745 0 -3140.89745363 0 2493
0.04950000 0.04949480 37532.96667025 0 2526.33913690 0 5911.63601625 0 -1312.24764821 0 -1332.62072587 0 2644
0.05050000 0.05050630 36092.56793459 0 1721.63578605 0 6126.76021515 0 -4550.93587464 0 -4191.31783685 0 2829
0.05150000 0.05149060 35934.01224319 0 -57.07451274 0 8121.42845890 0 -564.07958789 0 -3648.17601520 0 2784
0.05250000 0.05249300 35940.10202184 0 -457.56382313 0 10752.85503065 0 -2640.17370836 0 -4359.81647594 0 3055
0.05350000 0.05348950 36295.63437176 0 384.68799564 0 10202.26153440 0 563.07311356 0 -4752.23073984 0 3009
0.05450000 0.05448610 35911.75687030 0 175.58049804 0 10590.40188091 0 -1077.91739467 0 -4271.18251577 0 3336
0.05550000 0.05550870 36083.82079798 0 714.37975390 0 9928.37650768 0 1324.40506086 0 -4811.77770271 0 3349
0.05650000 0.05647670 35149.98092278 0 462.58955137 0 14021.10636435 0 769.39370700 0 -2603.49109623 0 3324
0.05750000 0.05747970 35237.23084235 0 868.93944328 0 11105.98468610 0 3073.14589806 0 -3413.86347738 0 3639
0.05850000 0.05849280 33969.44965061 0 858.27236555 0 11797.56209427 0 1372.59181847 0 -1557.83181268 0 3846
0.05950000 0.05951020 33307.54607296 0 347.23917864 0 11280.70597173 0 -466.45157826 0 -398.82624720 0 3787
0.06050000 0.06049470 34148.48914293 0 -185.06837318 0 12614.25677289 0 594.51519435 0 -527.42465657 0 3930
0.06150000 0.06148310 33534.97162473 0 153.33176855 0 12265.36781786 0 -697.50442365 0 -368.98411735 0 4083
0.06250000 0.06249100 33153.30858823 0 571.23230972 0 11581.20886731 0 -697.28408438 0 476.05017665 0 4303
0.06350000 0.06350600 32647.63551376 0 1391.14903486 0 12808.79751995 0 -733.98773393 0 -2248.33520535 0 4470
0.06450000 0.06451750 32097.78386327 0 996.31878969 0 12515.71308201 0 -665.43897097 0 -2051.24782358 0 4479
0.06550000 0.06550280 31342.76203389 0 -435.48228574 0 13941.82851865 0 385.15081882 0 -3738.58154734 0 4636
0.06650000 0.06648880 30872.07750585 0 932.85333106 0 11998.85695947 0 338.46325399 0 -2659.66100004 0 4653
0.06750000 0.06749660 30790.36374868 0 303.97074771 0 12122.97772069 0 1876.94728628 0 -5232.13851445 0 5220
0.06850000 0.06852730 29902.91691447 0 859.62983257 0 10773.30561459 0 298.04926840 0 -6668.35191133 0 5029
0.06950000 0.06949320 29172.58636943 0 1126.57583332 0 10464.60919865 0 -122.48205714 0 -5761.68352123 0 5040
0.07050000 0.07048030 28365.52461340 0 992.62949106 0 10100.48472466 0 -680.60141258 0 -4837.43227932 0 5475
0.07150000 0.07148790 27518.15959503 0 157.24029921 0 9788.90950427 0 1000.03909083 0 -2440.07465423 0 5509
0.07250000 0.07249820 28251.36894452 0 323.10926116 0 11831.00051522 0 939.79124979 0 -1769.04748092 0 5916
0.07350000 0.07351270 27597.43744073 0 975.13078892 0 10544.50709454 0 1566.13605630 0 -471.84712215 0 5721
0.07450000 0.07449140 26360.10514225 0 340.97888619 0 10162.78869642 0 1583.38673837 0 -9.96046411 0 6028
0.07550000 0.07549160 26283.26320801 0 532.79584134 0 10669.01538713 0 1088.77159469 0 364.13333185 0 6183
0.07650000 0.07648840 26373.05976229 0 224.10274710 0 10409.36937013 0 -66.05771131 0 -763.48662171 0 6330
0.07750000 0.07749960 25772.27541763 0 187.27840922 0 8174.92993243 0 -9.33227576 0 -1369.94553284 0 6583
0.07850000 0.07848650 25899.05353680 0 88.11234295 0 8901.41838075 0 -120.28198620 0 -1543.31599485 0 6549
0.07950000 0.07947320 25206.59034264 0 190.86030629 0 7276.06753133 0 357.88854065 0 -3940.93935573 0 6828
0.08050000 0.08048110 25359.27770189 0 237.90107829 0 7493.17367637 0 -242.53263176 0 -4573.74486376 0 7147
0.08150000 0.08149960 24757.60757124 0 1097.43015270 0 7438.26601759 0 -16.31684219 0 -4554.34615068 0 7386
0.08250000 0.08250610 24186.60778035 0 864.27245837 0 7813.06421270 0 -631.69052493 0 -2822.62347672 0 7227
0.08350000 0.08350160 23377.22083610 0 567.73345508 0 7790.24415125 0 72.66589621 0 -2185.01257971 0 7798
0.08450000 0.08449610 23265.05818569 0 449.83755487 0 8677.51382827 0 1453.55265754 0 -1424.97498719 0 7371
0.08550000 0.08548940 23140.27308499 0 -332.21181939 0 7648.65126147 0 2580.38315434 0 -480.70719647 0 8256
0.08650000 0.08650700 22507.60044485 0 -314.55367577 0 6022.80215743 0 2153.33465841 0 -1320.05363720 0 8037
0.08750000 0.08749060 22381.59738841 0 603.37526867 0 6125.21008968 0 1410.68061584 0 -90.75530689 0 8155
0.08850000 0.08849210 22102.24263324 0 791.24936896 0 5391.21460512 0 180.81438599 0 -840.31859086 0 8718
0.08950000 0.08949900 20948.72783363 0 827.39829503 0 5576.59853956 0 -488.77449233 0 1210.81408054 0 8571
0.09050000 0.09049190 20461.87771135 0 548.46318096 0 5650.49523540 0 100.73235733 0 -116.30591436 0 8932
0.09150000 0.09150830 20303.43274320 0 210.88682019 0 6145.02955110 0 -444.83950745 0 23.77848189 0 9285
0.09250000 0.09250820 20340.08213835 0 363.23979523 0 6163.67534610 0 -362.90098209 0 -476.37791746 0 9204
0.09350000 0.09350330 19891.54225995 0 153.56539461 0 5758.47254703 0 -395.47908341 0 -6.78113461 0 9349
0.09450000 0.09448040 20040.79719850 0 160.98828117 0 6453.43808660 0 -27.54395811 0 -11.03027213 0 9564
0.09550000 0.09549270 19823.00456932 0 46.69631197 0 6235.49044487 0 4.38057708 0 -1586.86344836 0 10155
0.09650000 0.09649430 19370.36793073 0 718.41229460 0 6015.50549537 0 952.36941079 0 -1183.69795706 0 9913
0.09750000 0.09749140 18745.00302498 0 704.90959449 0 5392.46577783 0 -207.03365116 0 -1381.62683552 0 10476
0.09850000 0.09850240 18223.38580277 0 694.33552428 0 4875.07818370 0 513.56432037 0 -811.36113976 0 10575
0.09950000 0.09950330 17715.49826334 0 31.11555793 0 5050.40844720 0 1044.91743779 0 -303.17464756 0 10882
0.10050000 0.10051200 17736.75712699 0 -80.34599288 0 3967.91153898 0 575.79410754 0 -1412.10894575 0 10875
0.10150000 0.10150300 17540.55553120 0 446.76941366 0 4490.79100622 0 617.01415838 0 -771.32804214 0 11118
0.10250000 0.10250800 17218.79377197 0 698.85524728 0 4902.74792342 0 -712.42991750 0 -493.88104854 0 11575
0.10350000 0.10349800 16716.33167170 0 302.11059714 0 4598.55794368 0 -44.69831095 0 258.16786163 0 11364
0.10450000 0.10450100 16560.21189176 0 234.70781981 0 4952.18585374 0 15.64685582 0 -155.20631315 0 12093
0.10550000 0.10551000 16764.27483817 0 65.30324310 0 5992.57471067 0 -89.16941780 0 -222.19055660 0 12067
0.10650000 0.10649700 16468.64376551 0 187.31826958 0 5569.16900961 0 98.71929796 0 -108.70620277 0 12054
0.10750000 0.10749900 16308.53794863 0 262.79166448 0 5430.79816635 0 22.58366732 0 36.13840736 0 12807
0.10850000 0.10850100 16252.84415479 0 250.92656120 0 5271.22382106 0 733.38872115 0 693.62578826 0 12736
0.10950000 0.10950300 15936.95072772 0 196.14623416 0 5304.21934902 0 216.72414984 0 259.36699441 0 12933
0.11050000 0.11050200 15666.56455565 0 355.15035472 0 4909.55740319 0 708.18257370 0 279.25731872 0 13428
0.11150000 0.11150900 15519.74552855 0 159.70389149 0 4416.67286388 0 649.06853873 0 -244.18572985 0 13453
0.11250000 0.11250000 15209.49898713 0 -56.17322550 0 4059.74540103 0 662.72071523 0 -438.81173382 0 13668
0.11350000 0.11349100 15119.03809337 0 -57.89607924 0 3681.29333873 0 273.04795896 0 -889.51846619 0 13791
0.11450000 0.11448600 15189.67952571 0 177.16494773 0 3365.58814118 0 -95.31810122 0 -887.68931813 0 14205
0.11550000 0.11549300 14918.85046064 0 210.14497443 0 3460.96514716 0 -328.09180733 0 -863.77863268 0 14776
0.11650000 0.11649800 14782.43941888 0 292.64375942 0 3505.61983316 0 -225.98172062 0 -419.48277638 0 14553
0.11750000 0.11747300 14494.66969684 0 534.34043066 0 4286.89414468 0 526.40268099 0 124.33888602 0 14568
0.11850000 0.11849100 14234.13789386 0 373.66881798 0 3992.15993034 0 170.13402147 0 629.79383568 0 16015
0.11950000 0.11950300 13975.82055584 0 364.93053923 0 4578.62775901 0 -178.20685349 0 1112.73542730 0 15270
0.12050000 0.12050700 13822.46885710 0 320.94794336 0 4830.86639070 0 -240.40453093 0 1195.54534462 0 15999
0.12150000 0.12150000 13604.34405817 0 159.97405621 0 5070.60436767 0 -112.09732370 0 777.25948655 0 15670
0.12250000 0.12250700 13371.82523698 0 96.62507844 0 4850.33153773 0 -199.01618076 0 855.90731697 0 16887
0.12350000 0.12352200 13445.34547378 0 106.84084821 0 4664.93653097 0 129.12102311 0 546.61410272 0 16407
0.12450000 0.12449800 13294.31896325 0 12.08267446 0 4350.96968841 0 412.61682776 0 247.67019047 0 16306
0.12550000 0.12549900 13331.74342114 0 102.21870622 0 3889.30910510 0 420.34198879 0 -188.55061934 0 17523
0.12650000 0.12650100 13077.96573630 0 88.70869837 0 3635.06638261 0 156.00019883 0 -882.70566473 0 17154
0.12750000 0.12750600 13049.95275450 0 144.91680169 0 3648.78499306 0 153.29965881 0 -840.71608732 0 18007
0.12850000 0.12850300 12813.11572663 0 412.83827426 0 4011.52542645 0 -567.57069190 0 -1312.44695005 0 17496
0.12950000 0.12949900 12615.14255888 0 399.63563414 0 3830.47077101 0 -188.01804051 0 -416.60175746 0 18405
0.13050000 0.13049000 12311.42868910 0 213.44563446 0 4074.39408677 0 108.35443501 0 -635.29345942 0 18100
0.13150000 0.13148800 12112.01611912 0 95.06620583 0 3921.48528102 0 516.18181795 0 -751.21737858 0 19059
0.13250000 0.13249300 12212.44210522 0 42.96571357 0 4198.00552104 0 296.86231518 0 -564.49590730 0 18957
0.13350000 0.13349100 11940.94870067 0 120.00185638 0 3445.41960312 0 598.43258287 0 -296.64419038 0 19468
0.13450000 0.13450700 12021.77667185 0 -14.83901900 0 3294.62561141 0 563.57026094 0 -530.38982516 0 19953
0.13550000 0.13551000 11795.79052230 0 45.90275845 0 3013.18925917 0 325.54517262 0 -434.52563688 0 19956
0.13650000 0.13649900 11583.53405552 0 122.54184770 0 2797.63323960 0 211.47365341 0 -768.18793083 0 19723
0.13750000 0.13749600 11713.30170240 0 386.73194680 0 2841.51286286 0 -35.85528801 0 -357.29838574 0 20946
0.13850000 0.13851100 11211.94683461 0 259.89735877 0 2472.19546853 0 40.71969248 0 -467.79465126 0 20955
0.13950000 0.13949800 11002.03770070 0 294.26031885 0 2402.82735354 0 437.72664599 0 -565.31304487 0 20506
0.14050000 0.14048300 10842.15333032 0 67.91797261 0 2606.03773094 0 260.60377309 0 -507.27856157 0 21447
0.14150000 0.14148400 10871.90466710 0 3.05807646 0 2369.48858352 0 174.82536549 0 146.28534104 0 21771
0.14250000 0.14249400 10849.38355842 0 99.17990667 0 2369.15641377 0 -75.80667187 0 -134.12571392 0 22470
0.14350000 0.14350900 10912.51795454 0 12.93568636 0 2623.15554511 0 -243.55903627 0 530.34996479 0 22519
0.14450000 0.14449900 10956.36436082 0 -3.20062157 0 3051.79845581 0 -284.68275788 0 513.99614103 0 22218
0.14550000 0.14550500 10740.57582243 0 335.13712761 0 3113.80347480 0 -159.99287916 0 611.57432520 0 23559
0.14650000 0.14650700 10752.21283581 0 335.26999551 0 3605.07145468 0 -79.35812006 0 747.13833411 0 23044
0.14750000 0.14750500 10400.64437817 0 199.98390194 0 3382.81667859 0 -125.49705119 0 801.18124432 0 23649
0.14850000 0.14849900 10356.02290915 0 159.58984654 0 3797.69668955 0 103.83006165 0 594.44100977 0 23640
0.14950000 0.14949500 10261.28809801 0 51.36739364 0 3742.18005291 0 168.03027975 0 415.62296395 0 24457
0.15050000 0.15050000 10096.33260286 0 130.17067950 0 3734.83910155 0 -49.79512351 0 509.68347052 0 24591
0.15150000 0.15149900 9958.67038839 0 270.11711458 0 3521.96258459 0 86.17579334 0 451.49065297 0 25020
0.15250000 0.15250500 9812.72607495 0 180.68262532 0 3597.40940590 0 186.98167091 0 541.54187072 0 25297
0.15350000 0.15350100 9708.62407701 0 73.54858195 0 3336.64508410 0 222.64673638 0 100.86157136 0 25452
0.15450000 0.15450400 9505.22547009 0 133.97955924 0 3278.60395740 0 246.25071843 0 357.67152308 0 26061
0.15550000 0.15549900 9509.93120814 0 148.25178593 0 2917.73474691 0 20.43176099 0 341.50925054 0 26128
0.15650000 0.15649500 9382.23408600 0 44.58847349 0 3114.24636779 0 73.25771197 0 522.29595572 0 26331
0.15750000 0.15749700 9339.64992475 0 64.83709823 0 3129.95799671 0 228.25708337 0 518.59226307 0 27345
0.15850000 0.15849900 9359.58010942 0 48.70848556 0 3001.77369228 0 394.66969646 0 501.67153628 0 26980
0.15950000 0.15949700 9311.63694296 0 -20.45855601 0 2984.23512977 0 131.12511390 0 527.34825753 0 27777
0.16050000 0.16050000 9196.97194714 0 231.38612236 0 2821.82626933 0 275.87029455 0 696.84894202 0 28224
0.16150000 0.16150500 9020.42372790 0 238.86104885 0 2880.69782039 0 223.91451758 0 1047.61133441 0 28075
0.16250000 0.16249700 8879.24051414 0 165.81692202 0 2535.40737092 0 351.87183934 0 1517.87179241 0 28590
0.16350000 0.16349900 8711.51693779 0 21.50898747 0 2366.21117537 0 462.02597003 0 1099.92031855 0 29163
0.16450000 0.16449100 8726.74138441 0 16.34408011 0 2392.12041544 0 221.27487534 0 1158.76308157 0 28996
0.16550000 0.16550500 8661.64718681 0 106.69115038 0 2273.87905871 0 -9.23130723 0 695.23348983 0 30777
0.16650000 0.16650700 8533.88363072 0 125.97980455 0 2132.92836376 0 -55.37635029 0 782.18888556 0 29211
0.16750000 0.16749900 8555.24214530 0 8.48868640 0 2042.29031280 0 -76.02568246 0 621.34454462 0 30922
0.16850000 0.16850800 8584.11876843 0 -40.98465321 0 2091.44036267 0 -111.08974214 0 501.50988034 0 30867
0.16950000 0.16949900 8556.64833055 0 97.54408140 0 2162.07072269 0 -138.59007529 0 141.02598675 0 30852
0.17050000 0.17049200 8504.87413970 0 255.63894265 0 2047.22856967 0 -90.94121122 0 107.48758270 0 31257
0.17150000 0.17149500 8252.18154269 0 262.78945001 0 2204.12341235 0 -103.72221720 0 98.49884797 0 32608
0.17250000 0.17250900 8039.05036225 0 228.58593142 0 2083.24684230 0 -18.78309182 0 22.16480127 0 32361
0.17350000 0.17350400 7939.62088538 0 151.03536839 0 2434.93709552 0 -46.57019819 0 -77.83290731 0 32508
0.17450000 0.17449800 7803.80774916 0 84.77824450 0 2280.44494732 0 -3.26208405 0 16.23125312 0 32791
0.17550000 0.17549800 7794.80594908 0 84.35074204 0 2095.75856935 0 282.51811838 0 -14.96889737 0 33633
0.17650000 0.17650100 7782.46030691 0 40.62701712 0 2038.33749284 0 198.62422046 0 125.40847259 0 33984
0.17750000 0.17750300 7715.72740522 0 55.62824567 0 2073.92394481 0 315.08404013 0 84.36281087 0 34069
0.17850000 0.17849800 7678.10364549 0 32.45287332 0 1926.27449335 0 206.08143122 0 118.00662345 0 34536
