### header ###
fiducial parameters:
Omega_m = 0.31
Omega_nu = 0
Omega_de = 0.69
Omega_k = 0
H_0 = 100
w_de = -1
zeff = 0
beta = 0
fgrowth = 0
b_1 = 2
gamma = 0.55
Lx = 3500 Ly = 3500 Lz = 3500
nx = 700 ny = 700 nz = 700
xoffset = -685.467585 yoffset = -31.7331281 zoffset = 572.489161
bins = 400 dk = 0.001
kx_ny = 0.628318531 ky_ny = 0.628318531 kz_ny = 0.628318531
############################
A(data) = 8.0187905 (not used)
A(ran) = 8.00395866 (used)
Ngal = 476259
weighted Ngal = 0
Nran = 23820508
weighted Nran = 0
SN(data) = 3502.87372
SN(ran) = 69.7173827
SN(data+ran) = 3572.5911
############################
13 columns: k_central k_mean P_0(k) sigma^{lin}_{P_0(k)} P^img_1(k) sigma^{lin}_{P_1(k)} P_2(k) sigma^{lin}_{P_2(k)} P^img_3(k) sigma^{lin}_{P_3(k)} P_4(k) sigma^{lin}_{P_4(k)} N_modes
### header ###
0.00050000 0 0 0 0 0 0 0 0 0 0 0 0
0.00150000 0.00179520 48606.28799813 0 -31557.34368887 0 29787.76473636 0 31013.69254028 0 -63360.05009573 0 3
0.00250000 0.00253879 74895.08736854 0 -21711.61101364 0 30855.46901862 0 -17479.43629820 0 55335.71485316 0 6
0.00350000 0.00331552 74961.41059421 0 8411.89982820 0 28570.80551554 0 -27107.37634426 0 5456.29773041 0 7
0.00450000 0.00420575 66827.34861268 0 31533.64891376 0 30920.57428855 0 -13767.32867950 0 41512.91382631 0 24
0.00550000 0.00557378 49329.20008554 0 13406.92450666 0 45912.61281625 0 3017.10886216 0 1756.13715019 0 45
0.00650000 0.00659388 52542.27802466 0 -5344.24580324 0 46466.78267342 0 26135.89056467 0 18908.76270904 0 40
0.00750000 0.00754703 58991.79650827 0 -8371.28654076 0 55089.13417944 0 20553.44583760 0 -40474.44048157 0 57
0.00850000 0.00846663 74374.90954856 0 -15929.97516308 0 34735.43308157 0 10900.43804816 0 -18055.97225151 0 75
0.00950000 0.00948925 73206.22566395 0 -1706.36705013 0 43180.73811374 0 691.20648529 0 -16219.51645709 0 112
0.01050000 0.01054430 64149.50685529 0 14561.10364575 0 38071.63527267 0 18120.30245871 0 15660.69622349 0 105
0.01150000 0.01145670 61995.27533858 0 15303.28157835 0 35185.74453194 0 16560.87623125 0 8721.17200503 0 144
0.01250000 0.01249090 47073.98896647 0 3754.72499693 0 22645.67233534 0 35737.92137065 0 28934.42066258 0 169
0.01350000 0.01339930 50344.53227141 0 -9404.61125446 0 13396.84869107 0 23404.01586217 0 11010.54124616 0 180
0.01450000 0.01448870 60898.78301179 0 -11733.01044057 0 16342.08709283 0 12885.97162394 0 17918.56470051 0 267
0.01550000 0.01550050 71944.42352762 0 -3748.69057990 0 10051.98794196 0 -9032.35969406 0 14219.96531809 0 238
0.01650000 0.01653350 73372.75342923 0 75.46653005 0 18996.78769135 0 -20246.29954714 0 32143.29111827 0 315
0.01750000 0.01747870 75435.08464995 0 6016.87846365 0 27611.72073975 0 -16794.50228492 0 16901.23949617 0 297
0.01850000 0.01844180 70114.50040484 0 5609.47227195 0 36146.82232620 0 -12140.91488689 0 7308.48729839 0 388
0.01950000 0.01947590 66783.61292965 0 6441.77892857 0 30526.06735526 0 6300.68429340 0 5356.00461220 0 399
0.02050000 0.02045430 63629.10758882 0 -2627.51804109 0 29013.14489204 0 14605.94656127 0 5669.10781342 0 462
0.02150000 0.02154770 67151.76772987 0 -4286.62840889 0 19025.02211964 0 14036.05400285 0 -9776.22062003 0 571
0.02250000 0.02255340 68465.38834635 0 -1937.90043441 0 17636.33114088 0 12973.88588300 0 -8554.51137186 0 510
0.02350000 0.02348930 67306.66955408 0 4045.68354851 0 10575.59818263 0 3882.53284231 0 -4816.29521124 0 555
0.02450000 0.02439640 61414.86407159 0 7862.91181904 0 8981.26091502 0 1725.01284512 0 12721.43687714 0 592
0.02550000 0.02547300 57801.07869728 0 6024.91697147 0 13280.03566424 0 6692.51172408 0 13962.09087306 0 837
0.02650000 0.02652900 54285.39412086 0 -3778.03224067 0 9325.35555341 0 12565.09565070 0 17738.63942221 0 723
0.02750000 0.02749970 59326.06999455 0 -5992.80722949 0 12014.24749097 0 10842.70694656 0 13783.27282724 0 826
0.02850000 0.02848090 63988.07235944 0 -3603.14487016 0 5739.62745019 0 3803.06676708 0 9754.91746707 0 831
0.02950000 0.02946900 65634.08416698 0 1224.14515962 0 12809.01896645 0 -4539.35422287 0 11436.27213544 0 996
0.03050000 0.03053250 63244.56574787 0 4550.37118607 0 11244.16729983 0 -11885.25490683 0 17406.58040090 0 1041
0.03150000 0.03150510 61336.47201187 0 6541.33020101 0 20981.94480809 0 -5543.41478208 0 15151.81217483 0 1036
0.03250000 0.03246190 55197.64296267 0 2062.22049747 0 18155.18028189 0 -109.65089353 0 10774.81145077 0 1059
0.03350000 0.03345080 56082.76460867 0 -1002.49825417 0 22718.30678615 0 8094.72201144 0 9947.12195360 0 1302
0.03450000 0.03451200 56726.95246662 0 750.80327363 0 21070.41268339 0 3726.92238931 0 3632.65261580 0 1339
0.03550000 0.03553350 55594.47508417 0 2064.71177056 0 22545.02490273 0 24.41835154 0 7269.66772758 0 1365
0.03650000 0.03647120 55479.87652229 0 2180.71651768 0 19573.43436791 0 -5558.90496450 0 3605.47005837 0 1308
0.03750000 0.03744890 52224.94519536 0 1781.93566701 0 21533.78947705 0 -7765.89610898 0 4530.07561468 0 1579
0.03850000 0.03847530 53131.65787476 0 97.93947412 0 25880.89492410 0 -3814.24981515 0 -5351.74176714 0 1662
0.03950000 0.03950240 50066.28474871 0 1390.26324888 0 27858.74430645 0 -1895.67058755 0 -5005.18907264 0 1683
0.04050000 0.04050350 50634.51645841 0 4322.41416270 0 27644.71626771 0 798.07767167 0 -7475.71262013 0 1822
0.04150000 0.04152450 46050.24181374 0 1126.05543406 0 24992.56230390 0 2635.54547658 0 -8052.03819927 0 1887
0.04250000 0.04250150 45903.53350990 0 2104.42819968 0 24498.62589374 0 8422.41853677 0 -5287.55550017 0 1920
0.04350000 0.04349210 44900.60232782 0 687.08647323 0 23199.28857627 0 3525.39500528 0 -7082.87760789 0 2005
0.04450000 0.04448520 42050.47519625 0 1028.91128503 0 18581.79695715 0 5428.88265416 0 -928.45097472 0 2151
0.04550000 0.04548030 42652.36677340 0 1174.30862562 0 19644.29724675 0 3130.00228601 0 780.35973750 0 2274
0.04650000 0.04648670 41515.57118427 0 419.25357926 0 17475.56098452 0 2297.11986850 0 538.68078198 0 2311
0.04750000 0.04749250 40631.33532425 0 953.10350592 0 16832.03746606 0 2086.85642019 0 -2465.85102641 0 2568
0.04850000 0.04851840 37948.73246719 0 3495.63259617 0 18534.40740692 0 -1903.60944445 0 -2548.15161679 0 2493
0.04950000 0.04949480 37400.09877242 0 2772.18903717 0 15006.76471970 0 512.70842966 0 -2827.77210776 0 2644
0.05050000 0.05050630 34989.54293616 0 514.38477963 0 17064.11339426 0 1328.74541219 0 313.34900683 0 2829
0.05150000 0.05149060 35461.88831292 0 -2610.62167342 0 12357.93245334 0 5513.69666227 0 -1197.95911143 0 2784
0.05250000 0.05249300 38392.73269242 0 -2516.26332131 0 12592.44429300 0 4243.08095538 0 -4679.85095250 0 3055
0.05350000 0.05348950 38424.84243439 0 852.43835760 0 12829.50276737 0 444.61363202 0 -191.55121936 0 3009
0.05450000 0.05448610 37403.75263961 0 2335.54083562 0 12610.49218245 0 -1374.89486203 0 106.80696690 0 3336
0.05550000 0.05550870 35923.49353461 0 2087.37681946 0 12513.27717054 0 -54.11897708 0 2585.04460308 0 3349
0.05650000 0.05647670 33672.26845248 0 1212.88460528 0 14521.68616940 0 480.28755536 0 4664.61543355 0 3324
0.05750000 0.05747970 33541.39357313 0 1319.67717816 0 12915.64545445 0 1574.65067408 0 2838.05829752 0 3639
0.05850000 0.05849280 32186.14101532 0 -280.47748891 0 12578.05027073 0 1087.02881077 0 2663.10449306 0 3846
0.05950000 0.05951020 32860.44559678 0 -748.88665420 0 10064.42216273 0 2229.39045758 0 1305.86998911 0 3787
0.06050000 0.06049470 33268.68221284 0 -553.57970226 0 10777.32486850 0 2011.91892582 0 1497.78659519 0 3930
0.06150000 0.06148310 33930.36434400 0 -3.79616871 0 8397.67189080 0 1278.06738149 0 2104.31747643 0 4083
0.06250000 0.06249100 33041.92100056 0 -93.47522348 0 8884.00161381 0 -123.97349930 0 272.13559939 0 4303
0.06350000 0.06350600 34080.17289880 0 1304.64096106 0 9493.95384342 0 -2175.03641505 0 -2481.92804205 0 4470
0.06450000 0.06451750 32812.28098382 0 836.09560617 0 10213.94283708 0 -2936.69056700 0 -1222.93827622 0 4479
0.06550000 0.06550280 32054.71251973 0 687.00785972 0 11591.61685264 0 -2208.48590833 0 -1233.71164827 0 4636
0.06650000 0.06648880 31644.92577819 0 211.10937392 0 13311.92395971 0 552.03068402 0 -3198.75035081 0 4653
0.06750000 0.06749660 31508.51473642 0 762.38271092 0 13294.42968650 0 868.90511907 0 -2001.37807259 0 5220
0.06850000 0.06852730 30217.48166257 0 1189.27840877 0 10538.99307678 0 1554.21116247 0 -2841.06996987 0 5029
0.06950000 0.06949320 30747.29240514 0 175.03795413 0 10482.88960693 0 3625.54418327 0 -2420.19983118 0 5040
0.07050000 0.07048030 29005.28354142 0 17.96351834 0 9127.49310890 0 1958.68318809 0 -2438.80133688 0 5475
0.07150000 0.07148790 29316.96948507 0 402.29520657 0 9371.63787115 0 1277.60234385 0 -1856.50777467 0 5509
0.07250000 0.07249820 28744.41956869 0 634.69112495 0 8942.10917446 0 312.39235797 0 -2539.14981671 0 5916
0.07350000 0.07351270 28350.46625165 0 975.88702870 0 9289.85768004 0 600.01038915 0 -843.42769967 0 5721
0.07450000 0.07449140 26989.01319195 0 1044.22320302 0 8658.82374398 0 -239.39584214 0 -74.71283690 0 6028
0.07550000 0.07549160 26694.93224476 0 730.93177228 0 9757.59696968 0 219.64724359 0 -151.34871518 0 6183
0.07650000 0.07648840 26625.17659841 0 -10.76429274 0 9437.95002449 0 337.28405139 0 135.83749534 0 6330
0.07750000 0.07749960 26359.10863301 0 694.56693587 0 11040.31472760 0 -806.83477337 0 176.96786034 0 6583
0.07850000 0.07848650 25629.99604371 0 807.00971610 0 8912.20282513 0 340.37987341 0 127.88092273 0 6549
0.07950000 0.07947320 25236.26417316 0 157.58354128 0 10100.71724349 0 767.62877842 0 -1297.92005989 0 6828
0.08050000 0.08048110 24983.15082780 0 -112.10618156 0 9084.72071813 0 740.59901907 0 -441.91419923 0 7147
0.08150000 0.08149960 25087.23068110 0 480.17904657 0 8805.52097550 0 1095.91324420 0 -1197.83731586 0 7386
0.08250000 0.08250610 24755.72527603 0 768.37948204 0 8726.34278072 0 313.86386994 0 360.45953447 0 7227
0.08350000 0.08350160 24273.19336043 0 691.28952773 0 8948.67506308 0 178.95644988 0 698.96043436 0 7798
0.08450000 0.08449610 23494.47675593 0 894.46558092 0 9352.29451969 0 191.13268548 0 1411.68819740 0 7371
0.08550000 0.08548940 22959.90491369 0 747.75395537 0 10155.87956573 0 10.82318644 0 1434.44182491 0 8256
0.08650000 0.08650700 22552.33263712 0 716.43367016 0 10805.55929679 0 397.71237132 0 3194.64251830 0 8037
0.08750000 0.08749060 21910.13779763 0 280.21175312 0 10978.32078094 0 1269.98458437 0 2755.49197134 0 8155
0.08850000 0.08849210 21822.33426182 0 110.20583845 0 9993.19389717 0 1522.56645814 0 3064.62020795 0 8718
0.08950000 0.08949900 21905.70886771 0 -15.34269905 0 9817.89685064 0 941.27161962 0 2007.56750217 0 8571
0.09050000 0.09049190 21358.62529842 0 491.23808460 0 8085.87522391 0 1152.71759222 0 2595.79583048 0 8932
0.09150000 0.09150830 20651.54663550 0 487.80677114 0 7710.10266422 0 759.44522315 0 2289.40245810 0 9285
0.09250000 0.09250820 20415.26322387 0 308.99647595 0 6813.96405502 0 980.53740513 0 1829.63524233 0 9204
0.09350000 0.09350330 19817.80057665 0 607.77541055 0 6832.93094743 0 389.08370859 0 299.27054583 0 9349
0.09450000 0.09448040 19544.42487688 0 691.87193201 0 6498.55781024 0 -87.00522119 0 978.93634696 0 9564
0.09550000 0.09549270 18598.95906062 0 338.51640115 0 6549.95554204 0 63.12874923 0 1417.44580631 0 10155
0.09650000 0.09649430 18537.17548813 0 208.90487405 0 5915.19023252 0 606.72575416 0 -303.84784491 0 9913
0.09750000 0.09749140 18038.36725505 0 569.06767022 0 6257.12576756 0 245.96505245 0 -214.89278731 0 10476
0.09850000 0.09850240 17618.28325143 0 691.94611659 0 5664.87818534 0 524.80937345 0 -564.84579276 0 10575
0.09950000 0.09950330 17056.80565988 0 505.99085019 0 5983.77221244 0 -119.79591114 0 -364.33041923 0 10882
0.10050000 0.10051200 16900.79660318 0 290.69613749 0 5493.07999345 0 225.59308202 0 536.49289060 0 10875
0.10150000 0.10150300 16616.34857859 0 -97.68060317 0 5629.46889057 0 272.91841276 0 23.90636724 0 11118
0.10250000 0.10250800 16744.56609999 0 49.45797122 0 5934.06854633 0 713.01896518 0 709.73269918 0 11575
0.10350000 0.10349800 16828.71576861 0 118.46833940 0 6088.36139268 0 577.19586387 0 1601.19103667 0 11364
0.10450000 0.10450100 16414.94299014 0 298.25742810 0 6002.06369304 0 945.85888380 0 2305.78949883 0 12093
0.10550000 0.10551000 16471.19040022 0 158.35528232 0 6408.86090688 0 341.55907601 0 3068.61731721 0 12067
0.10650000 0.10649700 16707.03091886 0 -84.38373757 0 6379.22029334 0 113.99069124 0 2841.44642891 0 12054
0.10750000 0.10749900 16420.81132229 0 -44.56057123 0 6246.99459036 0 -200.73349833 0 2787.33597752 0 12807
0.10850000 0.10850100 16333.67212597 0 105.85441479 0 5778.91205865 0 325.83305307 0 2753.82005030 0 12736
0.10950000 0.10950300 16577.81688822 0 102.80742173 0 5947.02316637 0 263.09726064 0 2098.16126383 0 12933
0.11050000 0.11050200 16063.83957014 0 149.73769192 0 5174.66207632 0 433.73064396 0 1314.84964454 0 13428
0.11150000 0.11150900 16029.07247021 0 555.10657585 0 5169.21449251 0 294.46183516 0 282.12505084 0 13453
0.11250000 0.11250000 15423.96991887 0 542.12648947 0 4489.68377374 0 -300.78634709 0 194.13660721 0 13668
0.11350000 0.11349100 15119.81315610 0 269.17928867 0 4910.97466076 0 -200.85197221 0 319.02689500 0 13791
0.11450000 0.11448600 15136.42164333 0 -254.13642817 0 4855.77912154 0 -188.70673912 0 642.49489948 0 14205
0.11550000 0.11549300 15299.73843441 0 -185.77368027 0 4536.32040587 0 374.81258913 0 22.88572034 0 14776
0.11650000 0.11649800 15521.84927027 0 -27.64006589 0 4628.99576461 0 200.03040571 0 310.98174379 0 14553
0.11750000 0.11747300 15504.57644355 0 383.55197511 0 4995.12432938 0 115.13556963 0 377.23410657 0 14568
0.11850000 0.11849100 15083.82810044 0 567.48432777 0 4816.25092194 0 95.16663182 0 738.39894813 0 16015
0.11950000 0.11950300 14493.78391086 0 535.22510941 0 4843.43347937 0 326.88492392 0 878.86246078 0 15270
0.12050000 0.12050700 14186.96979013 0 214.39563993 0 4449.91198299 0 516.94913006 0 684.40697062 0 15999
0.12150000 0.12150000 14204.13189360 0 -144.63335018 0 4913.90882684 0 264.44033364 0 620.35689324 0 15670
0.12250000 0.12250700 14094.62660114 0 -26.35157945 0 4495.14242987 0 99.85686861 0 130.20611094 0 16887
0.12350000 0.12352200 14083.55427633 0 93.22653906 0 3874.19538172 0 239.74351314 0 331.23745481 0 16407
0.12450000 0.12449800 14167.59322170 0 219.25306883 0 4266.86430909 0 -376.06597630 0 10.68516991 0 16306
0.12550000 0.12549900 13834.42696791 0 196.36546619 0 3929.06982352 0 -571.62980618 0 -142.85734928 0 17523
0.12650000 0.12650100 13559.39041941 0 610.63096312 0 4471.59159498 0 -151.08630108 0 76.02180714 0 17154
0.12750000 0.12750600 13374.70404144 0 377.34482982 0 4570.43423864 0 -362.65628372 0 -174.62717088 0 18007
0.12850000 0.12850300 12969.01406008 0 239.69036598 0 4664.92545864 0 368.52129417 0 236.82595555 0 17496
0.12950000 0.12949900 12922.28884935 0 65.47264967 0 4623.53710847 0 785.78849836 0 54.08764240 0 18405
0.13050000 0.13049000 12636.84431552 0 142.94924957 0 4408.50148817 0 838.22592147 0 169.25598611 0 18100
0.13150000 0.13148800 12679.47276607 0 336.73486408 0 4087.11618798 0 228.94467474 0 -577.16596859 0 19059
0.13250000 0.13249300 12349.62820973 0 80.55769573 0 3743.01047727 0 155.36243293 0 -91.11537889 0 18957
0.13350000 0.13349100 12387.93845360 0 41.90852799 0 3862.02689674 0 -246.92834471 0 -113.79803279 0 19468
0.13450000 0.13450700 12359.48257881 0 12.49390060 0 3980.31254278 0 -220.03920389 0 -836.81973621 0 19953
0.13550000 0.13551000 12477.95645437 0 142.28269562 0 3886.21992647 0 -70.74362990 0 -393.74072841 0 19956
0.13650000 0.13649900 12168.26352920 0 115.78108616 0 3682.99847675 0 440.77485701 0 -191.17143862 0 19723
0.13750000 0.13749600 12275.22218694 0 57.29031235 0 3780.31313958 0 655.80272668 0 224.84459286 0 20946
0.13850000 0.13851100 12060.08691572 0 145.83469742 0 3212.80113100 0 667.41870265 0 53.86874254 0 20955
0.13950000 0.13949800 11938.62351246 0 313.43869266 0 3443.89162229 0 483.64579147 0 139.78256467 0 20506
0.14050000 0.14048300 11585.41635074 0 286.78317790 0 3283.67508217 0 -35.04468311 0 489.24949506 0 21447
0.14150000 0.14148400 11362.19828240 0 238.78686427 0 3316.28307876 0 -176.78405975 0 1004.22000068 0 21771
0.14250000 0.14249400 11141.96974176 0 146.32630864 0 3379.69428299 0 100.23144536 0 1049.56781421 0 22470
0.14350000 0.14350900 11114.84254595 0 77.52022486 0 3371.54505193 0 97.65303308 0 1065.48871007 0 22519
0.14450000 0.14449900 10970.83588936 0 44.37621702 0 3257.47796165 0 327.67438068 0 793.03976388 0 22218
0.14550000 0.14550500 10994.98462979 0 163.67110547 0 3402.74686327 0 236.92449924 0 459.92665725 0 23559
0.14650000 0.14650700 10792.47180886 0 321.22475148 0 3170.60450112 0 -119.47924265 0 513.78244516 0 23044
0.14750000 0.14750500 10412.87929710 0 318.71576267 0 3250.83456675 0 -99.16639843 0 315.50921740 0 23649
0.14850000 0.14849900 10400.79939072 0 109.18928831 0 3180.25956836 0 93.88921770 0 748.83461427 0 23640
0.14950000 0.14949500 10340.90918578 0 -90.39468127 0 3178.66515359 0 261.89812787 0 289.34974279 0 24457
0.15050000 0.15050000 10344.26410020 0 116.15533074 0 3202.21598848 0 -46.82165068 0 362.29311146 0 24591
0.15150000 0.15149900 10320.21501069 0 145.21243276 0 3351.94703700 0 42.12742785 0 83.46329521 0 25020
0.15250000 0.15250500 10112.30996757 0 283.31311130 0 3400.46596435 0 -195.54389969 0 373.42079790 0 25297
0.15350000 0.15350100 10029.45576095 0 179.90091919 0 3524.30991745 0 -163.20385336 0 467.17681554 0 25452
0.15450000 0.15450400 9893.29938266 0 151.00990204 0 3655.20694146 0 97.73441466 0 611.62193619 0 26061
0.15550000 0.15549900 9817.45395765 0 77.64567430 0 3608.11634400 0 108.30350232 0 700.23264448 0 26128
0.15650000 0.15649500 9725.11076866 0 112.20029632 0 3622.31106442 0 310.76804792 0 452.60563608 0 26331
0.15750000 0.15749700 9607.13514772 0 119.95424539 0 3519.13914176 0 92.26535054 0 397.35252077 0 27345
0.15850000 0.15849900 9565.60285732 0 162.91708015 0 3428.40143987 0 94.01544220 0 437.39336901 0 26980
0.15950000 0.15949700 9252.76539190 0 173.25863153 0 3363.48439946 0 149.84620070 0 579.80118190 0 27777
0.16050000 0.16050000 9297.35364394 0 103.10803535 0 3176.58355652 0 -39.08674601 0 400.27229282 0 28224
0.16150000 0.16150500 9131.87774953 0 110.71018284 0 3285.41343716 0 348.73615695 0 468.60735990 0 28075
0.16250000 0.16249700 9185.45672933 0 37.15695052 0 3095.94381487 0 199.37713854 0 540.43242377 0 28590
0.16350000 0.16349900 8900.46616082 0 188.54286871 0 2955.96748451 0 407.18031628 0 617.44376458 0 29163
0.16450000 0.16449100 8845.33705555 0 181.19638119 0 2702.69912661 0 430.46098644 0 726.06216382 0 28996
0.16550000 0.16550500 8690.43523133 0 34.97891350 0 2649.34159331 0 371.51082187 0 899.28979284 0 30777
0.16650000 0.16650700 8689.12869701 0 85.10808906 0 2596.68161647 0 63.41740474 0 818.95121842 0 29211
0.16750000 0.16749900 8497.13458465 0 223.41072680 0 2423.92013232 0 39.86834142 0 511.88907762 0 30922
0.16850000 0.16850800 8391.05064056 0 121.98712422 0 2342.57176188 0 -42.34743495 0 826.41064365 0 30867
0.16950000 0.16949900 8373.57851200 0 -12.37033346 0 2241.53679791 0 28.22933502 0 506.73491042 0 30852
0.17050000 0.17049200 8397.49473361 0 45.49042507 0 2287.47587358 0 -4.90748688 0 345.61597582 0 31257
0.17150000 0.17149500 8345.88662763 0 140.25203125 0 2286.12504996 0 -77.06304857 0 57.95609124 0 32608
0.17250000 0.17250900 8175.78250144 0 150.48728831 0 2347.26642760 0 -24.05938677 0 241.43868607 0 32361
0.17350000 0.17350400 8166.26030209 0 78.77748734 0 2343.38004159 0 122.88398253 0 319.85953383 0 32508
0.17450000 0.17449800 8093.96909335 0 49.14794613 0 2327.05943481 0 184.40292646 0 419.41080627 0 32791
0.17550000 0.17549800 8156.41700533 0 -51.80929012 0 2252.74199063 0 279.74892994 0 317.62403145 0 33633
0.17650000 0.17650100 8216.29613795 0 -58.20222903 0 2316.44107531 0 64.21571936 0 338.79320927 0 33984
0.17750000 0.17750300 8268.67930667 0 138.04088798 0 2321.74471890 0 -37.48236615 0 601.25048953 0 34069
0.17850000 0.17849800 7980.47776396 0 315.23351652 0 2228.12821256 0 -39.89148258 0 720.89360259 0 34536
