### header ###
fiducial parameters:
Omega_m = 0.31
Omega_nu = 0
Omega_de = 0.69
Omega_k = 0
H_0 = 100
w_de = -1
zeff = 0
beta = 0
fgrowth = 0
b_1 = 2
gamma = 0.55
Lx = 3500 Ly = 3500 Lz = 3500
nx = 700 ny = 700 nz = 700
xoffset = -685.467585 yoffset = -31.7331281 zoffset = 572.489161
bins = 400 dk = 0.001
kx_ny = 0.628318531 ky_ny = 0.628318531 kz_ny = 0.628318531
############################
A(data) = 8.02264492 (not used)
A(ran) = 8.01778332 (used)
Ngal = 476765
weighted Ngal = 0
Nran = 23820508
weighted Nran = 0
SN(data) = 3492.16658
SN(ran) = 69.8378005
SN(data+ran) = 3562.00438
############################
13 columns: k_central k_mean P_0(k) sigma^{lin}_{P_0(k)} P^img_1(k) sigma^{lin}_{P_1(k)} P_2(k) sigma^{lin}_{P_2(k)} P^img_3(k) sigma^{lin}_{P_3(k)} P_4(k) sigma^{lin}_{P_4(k)} N_modes
### header ###
0.00050000 0 0 0 0 0 0 0 0 0 0 0 0
0.00150000 0.00179520 36285.33710968 0 -63577.73200166 0 -12567.75300865 0 -38978.34795207 0 14525.45075984 0 3
0.00250000 0.00253879 51862.21583430 0 -42104.06524838 0 -34156.79338655 0 20635.71321101 0 64797.68075018 0 6
0.00350000 0.00331552 107004.60789612 0 -74744.17158126 0 -41428.43198794 0 -43904.31454064 0 -66699.13109128 0 7
0.00450000 0.00420575 121079.19358934 0 -49683.51447973 0 -57134.52474319 0 -18933.34327014 0 -13520.85872904 0 24
0.00550000 0.00557378 144390.86626252 0 7700.63582650 0 -29672.72328149 0 -38699.65753639 0 8846.49964965 0 45
0.00650000 0.00659388 117010.11421849 0 3778.94017130 0 -80574.41493777 0 -34328.19297474 0 30318.12909517 0 40
0.00750000 0.00754703 103713.58079027 0 33914.75236601 0 -23643.73169449 0 -31319.95304476 0 49050.17750011 0 57
0.00850000 0.00846663 92054.31203299 0 7994.91607553 0 -67656.11212536 0 -13885.58110857 0 14803.80900578 0 75
0.00950000 0.00948925 83911.83508461 0 -1638.17260157 0 -34805.63162092 0 -9035.86962103 0 8785.13682551 0 112
0.01050000 0.01054430 78952.43007509 0 3943.89566645 0 -13801.09927020 0 -34561.37613542 0 7136.72232348 0 105
0.01150000 0.01145670 72584.29317889 0 13563.59790284 0 -9190.72715594 0 -22638.58604745 0 22690.95814384 0 144
0.01250000 0.01249090 64497.06713135 0 14893.16266706 0 9969.05622907 0 -10019.20278817 0 19761.77461307 0 169
0.01350000 0.01339930 51266.85692880 0 13259.10897033 0 10374.03758163 0 -2177.77127928 0 13661.58797749 0 180
0.01450000 0.01448870 50276.32675052 0 2556.79910247 0 15285.23368889 0 17403.70159644 0 7724.62955438 0 267
0.01550000 0.01550050 48553.58373199 0 -7683.13048096 0 9368.53762020 0 16668.05633549 0 22424.66873196 0 238
0.01650000 0.01653350 58792.27321504 0 -11808.74514233 0 -483.82848483 0 18564.96702342 0 9647.21696356 0 315
0.01750000 0.01747870 66768.00095166 0 -14653.66828124 0 -9559.62380192 0 2835.04662516 0 6972.49760177 0 297
0.01850000 0.01844180 73839.67336683 0 -559.66837368 0 -5406.94837869 0 -320.23045671 0 5675.89514853 0 388
0.01950000 0.01947590 77087.96129888 0 7495.52100923 0 -10410.94164025 0 -9106.72142754 0 20964.00764188 0 399
0.02050000 0.02045430 72704.64934967 0 3129.84727346 0 761.59989756 0 -18224.93592824 0 16092.18472168 0 462
0.02150000 0.02154770 70587.28867460 0 4866.33104709 0 16133.92738624 0 -5821.47407525 0 23127.09701845 0 571
0.02250000 0.02255340 68639.11312276 0 1218.77508209 0 27168.38485401 0 9283.43573165 0 22590.08926475 0 510
0.02350000 0.02348930 66311.26755289 0 2630.28612229 0 34250.35453126 0 2962.19013106 0 20849.96269625 0 555
0.02450000 0.02439640 64558.29708760 0 7248.85175692 0 35959.70003677 0 14813.22048187 0 14285.07058802 0 592
0.02550000 0.02547300 55178.15567099 0 8056.52249082 0 27978.32541449 0 3188.10984666 0 13568.35900251 0 837
0.02650000 0.02652900 53855.89864114 0 1121.57114250 0 28348.03034019 0 -1936.08457314 0 14382.83921617 0 723
0.02750000 0.02749970 55012.73513820 0 -6856.16068490 0 27068.73393064 0 -2896.04406259 0 8749.07426357 0 826
0.02850000 0.02848090 61680.93203698 0 -4444.89621985 0 26388.11812404 0 433.95319769 0 1745.13125932 0 831
0.02950000 0.02946900 61043.94119016 0 -3389.57079673 0 14926.26891827 0 -194.45549016 0 -6806.19128300 0 996
0.03050000 0.03053250 64814.39996065 0 -1310.32106369 0 20671.36609692 0 5188.34746980 0 -6546.67813390 0 1041
0.03150000 0.03150510 63448.40724778 0 1974.76020373 0 16998.12233834 0 1708.92475716 0 -9356.93382379 0 1036
0.03250000 0.03246190 61833.39794973 0 1196.08788853 0 14554.23880437 0 899.37947867 0 -18724.96211705 0 1059
0.03350000 0.03345080 56492.55135021 0 4189.82307300 0 12050.34326988 0 -1441.31773862 0 -9671.81966931 0 1302
0.03450000 0.03451200 55227.31679318 0 4048.91666736 0 15122.58123731 0 -6702.70933524 0 -14990.37767897 0 1339
0.03550000 0.03553350 50017.89868926 0 3409.88851277 0 13301.51597438 0 -174.16656216 0 -8062.20259345 0 1365
0.03650000 0.03647120 49799.44172058 0 2457.02638353 0 11659.37948053 0 4533.48589072 0 -11207.40718143 0 1308
0.03750000 0.03744890 47797.23322363 0 -2184.25966162 0 6155.22716226 0 6153.68810911 0 -5300.42154161 0 1579
0.03850000 0.03847530 49787.81577953 0 -483.06449442 0 3738.03900342 0 7458.93804803 0 -11751.50122302 0 1662
0.03950000 0.03950240 50088.98301459 0 -552.06057930 0 3548.91262320 0 1125.04785250 0 -7510.18076729 0 1683
0.04050000 0.04050350 49683.84664948 0 2114.20506250 0 9121.58048745 0 1087.48277609 0 -1332.96396794 0 1822
0.04150000 0.04152450 47426.86395845 0 3133.52328530 0 7999.16784826 0 -1833.88701506 0 2364.24030155 0 1887
0.04250000 0.04250150 47221.69377956 0 2051.87894609 0 12759.41495126 0 -2340.56767109 0 5409.97112337 0 1920
0.04350000 0.04349210 43602.26151959 0 3452.14050428 0 12788.75661203 0 -2358.39411405 0 6697.08459423 0 2005
0.04450000 0.04448520 43256.80498525 0 2032.43594371 0 15711.51819441 0 -2686.43388145 0 5373.19993264 0 2151
0.04550000 0.04548030 40713.71342090 0 -905.37182086 0 15257.10998385 0 -380.11844719 0 3612.64492485 0 2274
0.04650000 0.04648670 41534.83702945 0 118.83815505 0 16817.53272055 0 290.34514479 0 535.25721915 0 2311
0.04750000 0.04749250 42659.23161478 0 1097.90294097 0 15777.84142007 0 1400.75981281 0 -3576.49378432 0 2568
0.04850000 0.04851840 40449.85992047 0 908.19637092 0 15902.40507428 0 918.50249087 0 -5826.75557419 0 2493
0.04950000 0.04949480 39262.90669991 0 1489.94738922 0 12439.42476400 0 1809.55004511 0 -1675.39775761 0 2644
0.05050000 0.05050630 39665.38570707 0 402.21105690 0 12367.12248294 0 3175.85278308 0 -3628.21261355 0 2829
0.05150000 0.05149060 39161.48420457 0 893.66948076 0 12719.33313542 0 3388.96181887 0 -2065.92972629 0 2784
0.05250000 0.05249300 37306.31618121 0 1632.84681333 0 9869.78176474 0 1459.03345833 0 -107.36002952 0 3055
0.05350000 0.05348950 36497.48285321 0 2192.67462849 0 12603.29517132 0 -846.45155157 0 1828.89339657 0 3009
0.05450000 0.05448610 34675.19963455 0 1435.22795997 0 14091.74779669 0 -1269.34238953 0 1589.24399819 0 3336
0.05550000 0.05550870 33729.51237179 0 1367.47640440 0 14323.71300164 0 -1306.93293229 0 2877.71936502 0 3349
0.05650000 0.05647670 33862.82316261 0 -173.86539493 0 16543.04978829 0 -279.09123384 0 4872.67548922 0 3324
0.05750000 0.05747970 34006.87410850 0 -863.40660257 0 17669.65883859 0 -641.15514818 0 4875.19997927 0 3639
0.05850000 0.05849280 35702.37920798 0 -72.25655236 0 18777.55565994 0 1201.41367677 0 4196.21180442 0 3846
0.05950000 0.05951020 35145.10909986 0 519.58877230 0 16824.72973168 0 1693.67816588 0 4378.35154769 0 3787
0.06050000 0.06049470 33277.76151919 0 1421.36540929 0 17446.99438649 0 2273.17042992 0 4129.75571086 0 3930
0.06150000 0.06148310 35107.68464197 0 239.73908421 0 17398.82977352 0 423.48985073 0 4884.50073212 0 4083
0.06250000 0.06249100 33822.51990027 0 -543.59689420 0 15910.48787140 0 2767.83761352 0 2762.63362085 0 4303
0.06350000 0.06350600 33866.58775305 0 513.73926310 0 13400.05966527 0 1738.51000907 0 3593.04690992 0 4470
0.06450000 0.06451750 33021.21575315 0 980.30710077 0 13572.34503945 0 3169.69657048 0 2617.04362181 0 4479
0.06550000 0.06550280 32132.21879346 0 888.40237585 0 12390.81725805 0 2288.74919094 0 1649.12313081 0 4636
0.06650000 0.06648880 30803.09692223 0 1119.00236315 0 10611.25106855 0 1687.14549424 0 2121.04775923 0 4653
0.06750000 0.06749660 29749.56521573 0 968.92696532 0 10244.42494731 0 2395.34246197 0 3077.64126194 0 5220
0.06850000 0.06852730 29421.27078486 0 -330.32288078 0 8861.32549259 0 1921.57982763 0 2817.51913498 0 5029
0.06950000 0.06949320 29533.43343527 0 -625.24421742 0 7697.04839325 0 1850.45121299 0 2796.84710454 0 5040
0.07050000 0.07048030 29630.98061692 0 29.99503866 0 7394.89572128 0 1219.76051900 0 2861.57591543 0 5475
0.07150000 0.07148790 29273.78741827 0 888.48098935 0 7272.01506044 0 20.79360456 0 1586.78594209 0 5509
0.07250000 0.07249820 28700.35171592 0 1000.16088640 0 6881.27271759 0 -637.74708660 0 3233.79425886 0 5916
0.07350000 0.07351270 27907.90542865 0 1193.49696453 0 7258.58433044 0 -1134.48147324 0 2715.27728760 0 5721
0.07450000 0.07449140 27524.02792718 0 140.09923316 0 8211.38002573 0 590.72403033 0 5811.76364638 0 6028
0.07550000 0.07549160 27216.21729723 0 -720.87920857 0 7631.07948199 0 2477.99736674 0 6322.36390540 0 6183
0.07650000 0.07648840 27949.86953971 0 -309.33086016 0 8200.86131715 0 2386.55103606 0 6346.70087535 0 6330
0.07750000 0.07749960 28108.31450786 0 1008.13185304 0 7384.32165108 0 1312.35837145 0 6863.83380600 0 6583
0.07850000 0.07848650 27749.34973724 0 929.47516476 0 8031.16686698 0 -239.02381202 0 8251.04109323 0 6549
0.07950000 0.07947320 25706.28436171 0 702.91879048 0 8311.80601184 0 -1751.49784609 0 7730.61968211 0 6828
0.08050000 0.08048110 25918.87299822 0 956.76955267 0 9583.81683165 0 -932.46469246 0 5196.52991784 0 7147
0.08150000 0.08149960 24959.67749919 0 1245.06078121 0 9415.49534976 0 -1323.05423723 0 4049.82459799 0 7386
0.08250000 0.08250610 23901.60613952 0 714.85032771 0 9115.49070880 0 -658.18438375 0 3194.08890206 0 7227
0.08350000 0.08350160 23398.47969976 0 452.32772072 0 9307.88342485 0 1394.59252788 0 3151.29436663 0 7798
0.08450000 0.08449610 23221.65467240 0 -358.68353357 0 8074.57038027 0 2397.95553062 0 2170.40818328 0 7371
0.08550000 0.08548940 23833.95423487 0 -354.22138667 0 7815.67728136 0 1956.94483310 0 2041.75884121 0 8256
0.08650000 0.08650700 23165.29653908 0 284.74144120 0 7064.08787267 0 301.36210798 0 798.13192606 0 8037
0.08750000 0.08749060 22641.35412866 0 603.94992233 0 7458.04118972 0 -598.73596457 0 2177.67162836 0 8155
0.08850000 0.08849210 22619.76309526 0 959.73472126 0 7667.29705647 0 -713.40096039 0 1762.21585651 0 8718
0.08950000 0.08949900 22059.61418269 0 353.03775515 0 7729.86676402 0 -131.19265508 0 2393.92520439 0 8571
0.09050000 0.09049190 21394.72107733 0 504.18163231 0 8100.13637828 0 -84.85940464 0 1070.94404450 0 8932
0.09150000 0.09150830 20678.45238481 0 1035.30887431 0 7705.17547967 0 1165.46183809 0 1777.01955479 0 9285
0.09250000 0.09250820 20276.19482415 0 462.90954155 0 7467.44159349 0 464.34340762 0 857.12970163 0 9204
0.09350000 0.09350330 19535.45629378 0 371.09450246 0 7718.27403993 0 237.24338219 0 1326.71917674 0 9349
0.09450000 0.09448040 19394.39487559 0 320.49508527 0 8073.08668875 0 -271.17784330 0 998.46239178 0 9564
0.09550000 0.09549270 19554.94358546 0 139.76706342 0 7419.71987352 0 -112.52692990 0 1824.36481572 0 10155
0.09650000 0.09649430 19244.47559754 0 281.19054663 0 8212.47618589 0 573.06145778 0 2817.04302501 0 9913
0.09750000 0.09749140 19145.37829042 0 426.07302411 0 7250.74512446 0 162.35017712 0 1965.58124646 0 10476
0.09850000 0.09850240 18569.17450686 0 735.06728560 0 7936.66457466 0 998.41478078 0 1325.33513614 0 10575
0.09950000 0.09950330 18042.13184549 0 579.71813946 0 7235.90820921 0 133.45030211 0 1374.55161996 0 10882
0.10050000 0.10051200 17233.63068723 0 628.67331641 0 6783.16084737 0 519.23556514 0 1385.55751083 0 10875
0.10150000 0.10150300 16773.24342127 0 152.79918973 0 6814.60624986 0 243.92110129 0 1363.12498075 0 11118
0.10250000 0.10250800 16701.16258670 0 35.27830917 0 5674.06821494 0 1034.22710817 0 871.25023747 0 11575
0.10350000 0.10349800 16484.14502026 0 174.99145036 0 5466.30711204 0 1102.50459917 0 904.95107252 0 11364
0.10450000 0.10450100 16326.69656133 0 307.56593158 0 4515.40478429 0 411.88162539 0 22.17775589 0 12093
0.10550000 0.10551000 15973.04650663 0 353.81613958 0 4332.00279600 0 461.27415918 0 999.20313031 0 12067
0.10650000 0.10649700 15586.95454020 0 256.06854885 0 4204.30567386 0 506.56771831 0 346.33567693 0 12054
0.10750000 0.10749900 15455.96893760 0 -51.74728510 0 3941.84728636 0 79.46662884 0 366.19721319 0 12807
0.10850000 0.10850100 15718.71520554 0 -69.61292409 0 4434.45501754 0 -77.21806112 0 -159.84672448 0 12736
0.10950000 0.10950300 15448.21831022 0 312.12219324 0 4300.97814185 0 -54.65941725 0 -304.55315200 0 12933
0.11050000 0.11050200 15305.49604331 0 435.71369733 0 4309.82492938 0 -465.24358762 0 168.63482869 0 13428
0.11150000 0.11150900 14927.15470426 0 444.49183645 0 4809.31964660 0 271.42143444 0 499.54454268 0 13453
0.11250000 0.11250000 14746.78653296 0 120.30855978 0 4634.90838606 0 857.98005617 0 1015.09302365 0 13668
0.11350000 0.11349100 15036.99216646 0 -195.68783991 0 4582.50307269 0 308.43178738 0 -98.83555737 0 13791
0.11450000 0.11448600 14740.58603106 0 97.24911467 0 4872.29903017 0 -80.98796627 0 1184.52838142 0 14205
0.11550000 0.11549300 14833.59355954 0 385.91923816 0 5200.03984480 0 -427.20683018 0 702.24116421 0 14776
0.11650000 0.11649800 14758.41247402 0 282.92115100 0 5435.38210882 0 -516.80961877 0 1444.29619399 0 14553
0.11750000 0.11747300 14503.30611020 0 64.32378525 0 5290.16856883 0 -362.40383471 0 1039.71233789 0 14568
0.11850000 0.11849100 14467.43177779 0 45.84429657 0 5773.64163203 0 -230.01204685 0 948.79858603 0 16015
0.11950000 0.11950300 14541.17346108 0 170.52598176 0 6024.36335523 0 281.95564427 0 813.79040782 0 15270
0.12050000 0.12050700 14448.83027209 0 114.54209302 0 5866.41664169 0 370.39694600 0 986.53639071 0 15999
0.12150000 0.12150000 14123.30392242 0 266.57839957 0 5644.84834974 0 416.37366757 0 825.52707213 0 15670
0.12250000 0.12250700 14099.49842406 0 138.76058909 0 5328.15771528 0 1069.43820833 0 800.58666048 0 16887
0.12350000 0.12352200 13800.98854695 0 5.45724995 0 4676.16386833 0 615.12189807 0 1253.04392740 0 16407
0.12450000 0.12449800 13818.70426666 0 232.42470643 0 4699.54861835 0 766.98215465 0 1050.45581466 0 16306
0.12550000 0.12549900 13688.49372680 0 185.37286211 0 4337.69397095 0 159.51566196 0 828.87866485 0 17523
0.12650000 0.12650100 13276.71396679 0 244.13701162 0 4248.51746686 0 -8.57667817 0 846.75493327 0 17154
0.12750000 0.12750600 13065.45400925 0 310.58978349 0 4495.38602102 0 -519.51348049 0 436.69802701 0 18007
0.12850000 0.12850300 12941.88686427 0 418.51062626 0 4316.68977077 0 26.55785686 0 525.89224682 0 17496
0.12950000 0.12949900 12703.49971093 0 108.06677602 0 4508.62852150 0 -226.19652372 0 482.87626490 0 18405
0.13050000 0.13049000 12649.68821231 0 -122.20746349 0 4173.41388762 0 184.97204396 0 170.85704428 0 18100
0.13150000 0.13148800 12876.11725485 0 13.81704342 0 4351.66724487 0 183.96889133 0 -298.16109888 0 19059
0.13250000 0.13249300 12592.44429300 0 -4.46523608 0 4063.90859516 0 98.74343563 0 -623.14933356 0 18957
0.13350000 0.13349100 12610.93507545 0 195.37449312 0 4151.51282913 0 -154.10461683 0 -1040.29584941 0 19468
0.13450000 0.13450700 12463.34098561 0 254.78858810 0 4004.39484926 0 -489.46208370 0 -807.53675877 0 19953
0.13550000 0.13551000 12261.16033442 0 425.30349754 0 4412.50966975 0 216.54256371 0 -855.11564574 0 19956
0.13650000 0.13649900 11843.73368876 0 503.96682921 0 4196.72113136 0 -376.46679446 0 -773.53143478 0 19723
0.13750000 0.13749600 11858.01698778 0 166.76692749 0 4334.19511631 0 158.51693827 0 -544.96764802 0 20946
0.13850000 0.13851100 11583.31260903 0 108.63367905 0 4457.44116387 0 150.50721849 0 -134.17664662 0 20955
0.13950000 0.13949800 11523.52205501 0 149.43320298 0 4723.17695951 0 546.99941962 0 -304.42914196 0 20506
0.14050000 0.14048300 11340.27507926 0 74.29075988 0 4490.45883648 0 349.73820235 0 129.02137218 0 21447
0.14150000 0.14148400 11330.42071017 0 159.15027525 0 4286.52875797 0 400.72072198 0 1.42780950 0 21771
0.14250000 0.14249400 11252.91443644 0 -1.43164053 0 4269.33343752 0 468.83766426 0 412.26804953 0 22470
0.14350000 0.14350900 11052.23962143 0 80.92828644 0 3893.59409480 0 152.80583312 0 309.69513964 0 22519
0.14450000 0.14449900 11058.75014842 0 159.02072905 0 3750.37357327 0 -64.42243966 0 181.16870038 0 22218
0.14550000 0.14550500 11009.11291626 0 187.68254907 0 3863.53273292 0 -66.08716370 0 304.31731148 0 23559
0.14650000 0.14650700 10740.70869033 0 158.63873384 0 3853.27976014 0 -41.38425341 0 282.41957468 0 23044
0.14750000 0.14750500 10602.22712382 0 191.94428689 0 3612.70028648 0 551.99303811 0 463.42661912 0 23649
0.14850000 0.14849900 10459.87024363 0 56.51547106 0 3574.36789796 0 461.42474279 0 172.16911477 0 23640
0.14950000 0.14949500 10313.09550583 0 213.49324546 0 3156.74195045 0 811.88043179 0 5.15334785 0 24457
0.15050000 0.15050000 10154.39587421 0 131.58240091 0 3122.47310513 0 291.57970901 0 -77.08508249 0 24591
0.15150000 0.15149900 10011.28607593 0 49.87971608 0 2707.34950303 0 9.80395679 0 289.41949843 0 25020
0.15250000 0.15250500 9894.69449558 0 112.22244097 0 2681.32953971 0 93.15512257 0 194.84080707 0 25297
0.15350000 0.15350100 9993.33783739 0 90.62941455 0 2770.66105634 0 -18.44682532 0 560.72356623 0 25452
0.15450000 0.15450400 9929.50588481 0 -30.86333037 0 2825.97839114 0 200.08023117 0 351.58838783 0 26061
0.15550000 0.15549900 9970.07488295 0 128.10347645 0 2835.11305911 0 107.36888738 0 850.90373338 0 26128
0.15650000 0.15649500 9823.68767652 0 275.62338171 0 2853.69242016 0 204.84133084 0 992.28957069 0 26331
0.15750000 0.15749700 9737.94359313 0 113.40275079 0 2988.30974530 0 193.65606831 0 1267.63725151 0 27345
0.15850000 0.15849900 9698.64791235 0 205.13585468 0 2922.49584658 0 227.74000580 0 903.70875768 0 26980
0.15950000 0.15949700 9305.71324918 0 270.02632151 0 2945.02802759 0 -122.53520430 0 794.69286198 0 27777
0.16050000 0.16050000 9143.49261826 0 310.54106526 0 2718.20038135 0 -118.79386575 0 670.61639006 0 28224
0.16150000 0.16150500 8989.29942284 0 33.15164774 0 2755.70234551 0 -267.17187618 0 834.79017907 0 28075
0.16250000 0.16249700 9078.61986715 0 27.99327305 0 2635.08043894 0 149.97131797 0 387.59115921 0 28590
0.16350000 0.16349900 8976.58839395 0 27.09143220 0 2586.47293299 0 -106.15646782 0 -356.70823082 0 29163
0.16450000 0.16449100 8943.78109551 0 181.28717426 0 2565.34693723 0 -137.55481292 0 -404.40226998 0 28996
0.16550000 0.16550500 8664.41526801 0 260.93594284 0 2549.32528322 0 5.36846098 0 -286.98137251 0 30777
0.16650000 0.16650700 8521.87015830 0 130.51170710 0 2674.32075810 0 166.92304727 0 -325.57285343 0 29211
0.16750000 0.16749900 8451.76019754 0 48.97300340 0 2470.12494379 0 150.95343318 0 -453.71729749 0 30922
0.16850000 0.16850800 8403.03089602 0 164.96435301 0 2540.57814661 0 89.01196934 0 -461.88756597 0 30867
0.16950000 0.16949900 8222.67379705 0 91.10563524 0 2364.02992738 0 261.74532978 0 -163.34225742 0 30852
0.17050000 0.17049200 8286.58325590 0 -46.96714103 0 2148.87251150 0 270.02410705 0 162.61259122 0 31257
0.17150000 0.17149500 8273.44040634 0 -159.78471946 0 2202.36291270 0 373.59131171 0 69.99226194 0 32608
0.17250000 0.17250900 8435.50602471 0 -3.71779879 0 2252.53161646 0 296.66190610 0 -61.39759124 0 32361
0.17350000 0.17350400 8408.19059938 0 191.86124446 0 2208.40840205 0 -162.46643653 0 340.52381364 0 32508
0.17450000 0.17449800 8241.80677433 0 170.90354804 0 2183.39602029 0 -120.37942266 0 340.10970869 0 32791
0.17550000 0.17549800 8208.11368991 0 24.45787974 0 2254.05959728 0 -183.73637251 0 654.45411752 0 33633
0.17650000 0.17650100 8222.05374686 0 104.87130307 0 2528.14392584 0 0.22234889 0 42.07295202 0 33984
0.17750000 0.17750300 8195.74590309 0 144.11405814 0 2413.08032633 0 -14.76140200 0 187.25958626 0 34069
0.17850000 0.17849800 8000.72904606 0 168.43995577 0 2275.86100485 0 -22.18628158 0 -168.13435960 0 34536
