### header ###
fiducial parameters:
Omega_m = 0.31
Omega_nu = 0
Omega_de = 0.69
Omega_k = 0
H_0 = 100
w_de = -1
zeff = 0
beta = 0
fgrowth = 0
b_1 = 2
gamma = 0.55
Lx = 3500 Ly = 3500 Lz = 3500
nx = 700 ny = 700 nz = 700
xoffset = -685.467585 yoffset = -31.7331281 zoffset = 572.489161
bins = 400 dk = 0.001
kx_ny = 0.628318531 ky_ny = 0.628318531 kz_ny = 0.628318531
############################
A(data) = 8.00030734 (not used)
A(ran) = 7.99866641 (used)
Ngal = 475738
weighted Ngal = 0
Nran = 23820508
weighted Nran = 0
SN(data) = 3487.78517
SN(ran) = 69.6712853
SN(data+ran) = 3557.45645
############################
13 columns: k_central k_mean P_0(k) sigma^{lin}_{P_0(k)} P^img_1(k) sigma^{lin}_{P_1(k)} P_2(k) sigma^{lin}_{P_2(k)} P^img_3(k) sigma^{lin}_{P_3(k)} P_4(k) sigma^{lin}_{P_4(k)} N_modes
### header ###
0.00050000 0 0 0 0 0 0 0 0 0 0 0 0
0.00150000 0.00179520 19109.39323476 0 -37740.12986760 0 9653.96000938 0 -29880.55081834 0 -18977.96473916 0 3
0.00250000 0.00253879 40514.74374391 0 -49853.25321920 0 7337.88432079 0 -31342.42986414 0 25783.23701920 0 6
0.00350000 0.00331552 52828.38689797 0 -20379.05672171 0 18959.14178697 0 -7474.55002602 0 -17459.28466703 0 7
0.00450000 0.00420575 76002.98418990 0 -956.16943267 0 29547.27384130 0 -1121.98081852 0 37976.19183274 0 24
0.00550000 0.00557378 75812.98309601 0 6518.57657351 0 16707.14164210 0 9203.77035458 0 24901.54779389 0 45
0.00650000 0.00659388 82454.71713847 0 14075.47147921 0 22266.22376380 0 17051.93383696 0 44182.56206333 0 40
0.00750000 0.00754703 65280.98772851 0 1843.47564836 0 27859.51936919 0 21062.32988627 0 4346.49646918 0 57
0.00850000 0.00846663 75610.35955183 0 -589.03992972 0 7305.50884302 0 42740.39175570 0 20358.13002780 0 75
0.00950000 0.00948925 75788.40253491 0 -4965.30655865 0 -5317.07431814 0 17898.30234609 0 33434.76708512 0 112
0.01050000 0.01054430 70754.14860962 0 6284.86194124 0 56.18573723 0 11054.33229082 0 14137.14432845 0 105
0.01150000 0.01145670 62640.79187551 0 5823.97642066 0 -10426.88578799 0 -193.10798823 0 26727.81704947 0 144
0.01250000 0.01249090 56839.66873327 0 3946.57516906 0 6003.42558899 0 -5681.69704674 0 17126.89347598 0 169
0.01350000 0.01339930 69626.65377333 0 -10499.08841814 0 14451.26618355 0 -14981.96271211 0 6609.48036027 0 180
0.01450000 0.01448870 67551.14648608 0 -2724.01335188 0 22305.08762391 0 -21679.16910192 0 -5328.12449831 0 267
0.01550000 0.01550050 69982.40756976 0 1402.57567408 0 32321.55554786 0 -18334.44122070 0 578.88771510 0 238
0.01650000 0.01653350 71519.57842433 0 122.64703478 0 37578.25247876 0 -8066.46543850 0 -12213.21716796 0 315
0.01750000 0.01747870 75792.61001834 0 1958.98214086 0 44031.75699930 0 11116.06050168 0 -23404.01586217 0 297
0.01850000 0.01844180 73663.18050922 0 1748.29794421 0 39609.35974349 0 3322.17355556 0 -19034.21214924 0 388
0.01950000 0.01947590 71617.01488273 0 6815.85742256 0 24144.64366928 0 13993.75772205 0 -8263.38673540 0 399
0.02050000 0.02045430 67080.90485103 0 -872.56784412 0 21247.12698749 0 13069.44004619 0 7663.86463577 0 462
0.02150000 0.02154770 65753.88672152 0 -1647.29619722 0 14542.72358655 0 13396.95941432 0 4492.02003428 0 571
0.02250000 0.02255340 69408.30752791 0 1052.38682811 0 12373.32298484 0 6772.08852255 0 -9467.15881736 0 510
0.02350000 0.02348930 60242.85848953 0 4186.68960508 0 8892.17298953 0 447.85117980 0 7952.57550542 0 555
0.02450000 0.02439640 61705.95549107 0 3287.87149327 0 13897.64994262 0 -3297.60406679 0 4735.91013306 0 592
0.02550000 0.02547300 61110.48586232 0 184.89121598 0 19676.62843522 0 -3821.64612813 0 9847.32709001 0 837
0.02650000 0.02652900 61019.47135231 0 -620.26831464 0 21342.45970418 0 -1056.66849612 0 16103.36776974 0 723
0.02750000 0.02749970 61678.82829526 0 1308.23946662 0 19773.95417037 0 7507.60091561 0 14684.67079073 0 826
0.02850000 0.02848090 62509.91699615 0 514.69923366 0 26954.02464552 0 6269.46033741 0 21876.47793019 0 831
0.02950000 0.02946900 60795.69966773 0 1140.82591536 0 25959.06553732 0 5421.77422162 0 15314.35390317 0 996
0.03050000 0.03053250 59372.24158904 0 2386.10814307 0 25726.87888587 0 434.92756227 0 26246.28164311 0 1041
0.03150000 0.03150510 58377.61465058 0 1936.46103218 0 24731.47688467 0 6452.36407109 0 25437.11614537 0 1036
0.03250000 0.03246190 57628.35043010 0 -377.90951839 0 25368.91062448 0 -4580.45469260 0 14628.97699689 0 1059
0.03350000 0.03345080 57415.65107034 0 2310.74990035 0 25346.54452835 0 5069.64107541 0 16170.35533490 0 1302
0.03450000 0.03451200 55422.96477273 0 3602.50267532 0 23910.02110638 0 -1180.74164634 0 11064.48561267 0 1339
0.03550000 0.03553350 54133.37110110 0 515.95926422 0 19084.03761092 0 2687.79577740 0 10555.09223707 0 1365
0.03650000 0.03647120 52294.25794872 0 -2152.58174032 0 18533.52162094 0 6203.67965566 0 8137.16223247 0 1308
0.03750000 0.03744890 51239.39756325 0 1985.77716692 0 17553.39942799 0 6529.67104298 0 2742.08338599 0 1579
0.03850000 0.03847530 50880.43279263 0 1594.85766688 0 14889.95169287 0 6273.70103782 0 3632.26508443 0 1662
0.03950000 0.03950240 47921.79687784 0 2342.67141280 0 13805.63892338 0 1467.16054474 0 10910.00453680 0 1683
0.04050000 0.04050350 46255.19054614 0 4493.11619443 0 13730.67928436 0 -875.56622968 0 14121.08945746 0 1822
0.04150000 0.04152450 43421.45045530 0 2799.82555992 0 10213.74353523 0 711.33486458 0 9485.93748025 0 1887
0.04250000 0.04250150 40340.13318152 0 1821.58566219 0 14645.03186788 0 -404.83630511 0 15389.53498868 0 1920
0.04350000 0.04349210 39962.23473546 0 807.46368142 0 14952.39960484 0 1213.87004219 0 8341.54627630 0 2005
0.04450000 0.04448520 40780.59026280 0 -926.92742282 0 18310.52499909 0 826.09065346 0 6535.89368952 0 2151
0.04550000 0.04548030 39466.85892307 0 883.64016894 0 12334.34840148 0 -731.56843095 0 3214.49519670 0 2274
0.04650000 0.04648670 40288.53614786 0 -205.03952546 0 14328.14193157 0 -2297.92814821 0 3585.97169437 0 2311
0.04750000 0.04749250 40762.09948036 0 -461.16454316 0 17169.07903354 0 -512.80365165 0 2563.50893131 0 2568
0.04850000 0.04851840 41467.62801780 0 820.50023666 0 19462.82184297 0 -2945.42663128 0 1632.65858381 0 2493
0.04950000 0.04949480 39998.77340736 0 911.25454704 0 17712.73018213 0 2312.84256974 0 3749.83102936 0 2644
0.05050000 0.05050630 40159.76501022 0 2359.18024911 0 19509.65777695 0 2606.74635973 0 6825.72286398 0 2829
0.05150000 0.05149060 38859.76335327 0 711.65264030 0 17630.35208548 0 4739.28719213 0 8238.15290714 0 2784
0.05250000 0.05249300 36775.17675966 0 1321.91378777 0 16661.74511035 0 4078.63478717 0 3756.13118218 0 3055
0.05350000 0.05348950 36202.18395029 0 1614.94286410 0 14611.26127718 0 2818.23883609 0 8544.88952159 0 3009
0.05450000 0.05448610 36000.44619210 0 -334.60565602 0 13754.81695246 0 1278.38847891 0 2555.78044859 0 3336
0.05550000 0.05550870 34942.04266268 0 -292.95157005 0 14030.18567070 0 -375.62086885 0 4066.32236197 0 3349
0.05650000 0.05647670 35559.10332483 0 -798.57371183 0 12445.40381941 0 -1335.10092663 0 5303.45535861 0 3324
0.05750000 0.05747970 35946.74541673 0 -81.46186177 0 13068.99715319 0 3215.29240409 0 2075.68444445 0 3639
0.05850000 0.05849280 35857.50247869 0 328.19035102 0 12718.00445644 0 1666.60633170 0 2905.14551359 0 3846
0.05950000 0.05951020 35810.66654471 0 769.90635564 0 11139.42310705 0 4369.47154318 0 2659.98209746 0 3787
0.06050000 0.06049470 36320.87927235 0 106.71971698 0 11837.20101712 0 -129.23506805 0 7583.56813619 0 3930
0.06150000 0.06148310 34666.56322120 0 1223.75762826 0 11510.89960471 0 -1219.27333670 0 6634.88027340 0 4083
0.06250000 0.06249100 34375.25035522 0 2805.09598653 0 13141.96377375 0 -1871.96474011 0 7312.98266227 0 4303
0.06350000 0.06350600 32022.27060801 0 1779.32259836 0 13317.23867563 0 -716.88431378 0 7735.08182901 0 4470
0.06450000 0.06451750 30967.52094578 0 559.20887220 0 11753.16207174 0 813.61435786 0 4096.29514526 0 4479
0.06550000 0.06550280 30789.47796270 0 -690.57314831 0 12513.60934029 0 2057.01650481 0 1897.19856838 0 4636
0.06650000 0.06648880 30995.97682057 0 -467.06830675 0 11853.80950435 0 1176.55630755 0 1845.35794357 0 4653
0.06750000 0.06749660 31433.11220441 0 -23.04028999 0 10567.09463717 0 388.87001272 0 89.76533032 0 5220
0.06850000 0.06852730 31087.87711656 0 -142.79866595 0 11213.27551359 0 599.80444391 0 402.62626908 0 5029
0.06950000 0.06949320 31022.99329312 0 814.93750067 0 10437.54843679 0 1355.13076223 0 450.06675200 0 5040
0.07050000 0.07048030 30342.70965627 0 685.65371439 0 10159.01303366 0 1054.38538274 0 1989.09886437 0 5475
0.07150000 0.07148790 29627.65891948 0 488.13451195 0 10552.29093889 0 2272.49501810 0 4996.40871906 0 5509
0.07250000 0.07249820 29664.08686813 0 -266.75998569 0 10450.21517639 0 1313.58739951 0 3714.18921577 0 5916
0.07350000 0.07351270 30072.65565394 0 356.26201613 0 10560.32944671 0 1124.54959788 0 5040.66480136 0 5721
0.07450000 0.07449140 28958.55833069 0 1132.39987618 0 9728.04493474 0 -942.76306178 0 4741.33557222 0 6028
0.07550000 0.07549160 28171.42675933 0 1567.77476037 0 10017.53086712 0 -721.33981729 0 5053.87408487 0 6183
0.07650000 0.07648840 26990.56331742 0 938.58104469 0 10635.18943481 0 142.64918957 0 3916.81275995 0 6330
0.07750000 0.07749960 26207.63922949 0 449.43120055 0 10184.96656303 0 645.18436718 0 2333.32637066 0 6583
0.07850000 0.07848650 26102.45214372 0 -81.07410896 0 9312.84382636 0 1655.53400688 0 1653.88423049 0 6549
0.07950000 0.07947320 25423.60790909 0 476.21736875 0 8052.20428414 0 1102.31747688 0 451.25038352 0 6828
0.08050000 0.08048110 25695.10131364 0 401.20236811 0 7062.18343280 0 726.00680220 0 651.16452982 0 7147
0.08150000 0.08149960 24519.55258764 0 958.23109955 0 7488.27970880 0 -334.05868317 0 866.70947706 0 7386
0.08250000 0.08250610 24019.63712208 0 853.05730056 0 7981.72893667 0 -253.63817355 0 1373.23401331 0 7227
0.08350000 0.08350160 23304.25421555 0 636.81479685 0 8702.02795542 0 -506.71608747 0 902.94366003 0 7798
0.08450000 0.08449610 22614.33765610 0 480.06721609 0 9368.31617371 0 889.59597246 0 649.92664390 0 7371
0.08550000 0.08548940 23097.75535768 0 67.65267970 0 9243.84109810 0 351.76775949 0 1817.94286732 0 8256
0.08650000 0.08650700 22298.77639877 0 111.96002687 0 8957.20075319 0 1116.87647678 0 1327.84855388 0 8037
0.08750000 0.08749060 22871.76920813 0 392.38215416 0 7955.16642943 0 1072.60378599 0 2404.26675577 0 8155
0.08850000 0.08849210 21701.86736779 0 459.34536019 0 7629.19718677 0 1245.11614283 0 2393.98056601 0 8718
0.08950000 0.08949900 22039.68399801 0 409.05818257 0 7222.14530946 0 887.06041008 0 1835.95753980 0 8571
0.09050000 0.09049190 21226.42174008 0 512.04187570 0 6823.91807503 0 491.15061324 0 3007.66416909 0 8932
0.09150000 0.09150830 20668.59801572 0 562.01570654 0 6692.02454179 0 -213.72687151 0 2432.78906450 0 9285
0.09250000 0.09250820 20486.34754920 0 376.15012597 0 6875.31580684 0 57.16696665 0 2057.38189153 0 9204
0.09350000 0.09350330 19788.34819264 0 528.46988404 0 5779.22208374 0 400.82923076 0 1359.60398146 0 9349
0.09450000 0.09448040 19606.98351211 0 149.37784136 0 6438.15827835 0 321.73075672 0 1897.91826949 0 9564
0.09550000 0.09549270 19262.19131725 0 14.51017095 0 5022.04115102 0 637.89213406 0 -377.41237100 0 10155
0.09650000 0.09649430 19087.91292461 0 354.87022490 0 4548.07921483 0 592.84770223 0 -659.85298310 0 9913
0.09750000 0.09749140 19103.96779560 0 91.09279135 0 4368.71862509 0 -83.08783267 0 -1593.55113255 0 10476
0.09850000 0.09850240 19008.63507891 0 -78.95696973 0 5161.97319208 0 -156.11092208 0 -387.92886511 0 10575
0.09950000 0.09950330 19092.78474753 0 472.50371101 0 5087.55609697 0 -426.46055548 0 -85.99210347 0 10882
0.10050000 0.10051200 18498.64379776 0 506.06503477 0 5040.98589878 0 342.98962037 0 1301.42998686 0 10875
0.10150000 0.10150300 18355.14646811 0 527.23421259 0 5489.88009158 0 890.66002288 0 1395.61118177 0 11118
0.10250000 0.10250800 17810.16664054 0 123.97349930 0 5583.43016397 0 597.96975969 0 702.15037114 0 11575
0.10350000 0.10349800 17624.48375333 0 373.00337126 0 5907.00778447 0 448.33393316 0 868.14777206 0 11364
0.10450000 0.10450100 17077.06801429 0 925.27100303 0 5100.47750003 0 -371.88174475 0 703.67835197 0 12093
0.10550000 0.10551000 16631.07477060 0 458.24477111 0 5098.37375832 0 -89.78061013 0 1348.15519759 0 12067
0.10650000 0.10649700 16188.29250110 0 231.99731469 0 4638.06399863 0 132.25559826 0 296.57775643 0 12054
0.10750000 0.10749900 16063.17523065 0 28.59106787 0 4916.53296782 0 -90.00106012 0 148.31489818 0 12807
0.10850000 0.10850100 15862.87687468 0 442.58739658 0 5924.95602301 0 -112.27780259 0 -495.17429607 0 12736
0.10950000 0.10950300 15659.03537477 0 553.66828086 0 6060.49235111 0 -444.11648464 0 11.80309826 0 12933
0.11050000 0.11050200 15313.91101017 0 200.06030099 0 6089.32468494 0 -455.06590665 0 834.11587449 0 13428
0.11150000 0.11150900 15281.35837521 0 218.74817081 0 6852.77255351 0 434.72050980 0 958.33850110 0 13453
0.11250000 0.11250000 15570.34605297 0 -335.29546186 0 6789.02917953 0 361.36414341 0 1073.33898836 0 13668
0.11350000 0.11349100 15311.80726846 0 72.52704926 0 6064.62232827 0 1026.65474523 0 653.27823662 0 13791
0.11450000 0.11448600 15568.24231126 0 324.95612494 0 5672.31878762 0 287.62246012 0 557.92558975 0 14205
0.11550000 0.11549300 15022.70886744 0 152.67185799 0 4954.55533125 0 860.06829664 0 557.41737004 0 14776
0.11650000 0.11649800 14558.88918079 0 283.34189934 0 4651.53901794 0 305.88183097 0 19.03531938 0 14553
0.11750000 0.11747300 14505.07768217 0 10.85488650 0 3880.13014782 0 558.30426326 0 224.34412378 0 14568
0.11850000 0.11849100 14434.98986607 0 20.41714552 0 3828.54418649 0 454.43035521 0 83.09126509 0 16015
0.11950000 0.11950300 14373.64918657 0 103.72996783 0 3658.34040938 0 437.76761359 0 334.17051365 0 15270
0.12050000 0.12050700 14430.11804315 0 -71.82517459 0 3374.40171173 0 684.21099047 0 156.89816438 0 15999
0.12150000 0.12150000 14253.07156930 0 171.48263063 0 3873.03278761 0 239.49217136 0 983.72180575 0 15670
0.12250000 0.12250700 14139.24807016 0 313.02901665 0 3219.31165800 0 140.81229088 0 864.62455830 0 16887
0.12350000 0.12352200 13946.36817182 0 153.02506516 0 3095.34590933 0 78.56412364 0 1217.36889684 0 16407
0.12450000 0.12449800 13902.07887255 0 45.23310424 0 3301.67868232 0 99.30602045 0 888.26618625 0 16306
0.12550000 0.12549900 13832.98756568 0 93.27415006 0 3228.41310900 0 -144.03212294 0 737.44451373 0 17523
0.12650000 0.12650100 13771.20399319 0 376.71592177 0 3168.08001106 0 -416.43235089 0 172.14918458 0 17154
0.12750000 0.12750600 13392.97337739 0 346.73206616 0 3020.99524817 0 -1.72640796 0 313.01019369 0 18007
0.12850000 0.12850300 13432.61230024 0 95.97325068 0 3074.88425306 0 179.78244531 0 -271.32621245 0 17496
0.12950000 0.12949900 12985.06893107 0 311.77120055 0 3137.07750157 0 -179.74258494 0 -580.79326220 0 18405
0.13050000 0.13049000 12854.96911445 0 499.69291183 0 3396.74566321 0 -675.17929512 0 -770.56848066 0 18100
0.13150000 0.13148800 12464.44821809 0 405.37884903 0 3574.09108983 0 -622.77508898 0 -765.82509671 0 19059
0.13250000 0.13249300 12349.29603998 0 137.81833425 0 3923.10184044 0 -58.85560691 0 -297.84664485 0 18957
0.13350000 0.13349100 12435.43872707 0 -211.44486536 0 3886.88426596 0 311.66933516 0 -444.85943763 0 19468
0.13450000 0.13450700 12496.11506708 0 -137.63342643 0 3882.69892718 0 895.75550676 0 -631.82450006 0 19953
0.13550000 0.13551000 12556.56996059 0 -126.11488692 0 3330.93176449 0 697.44574033 0 -451.46186492 0 19956
0.13650000 0.13649900 12620.45727479 0 -37.32491769 0 3030.35136264 0 693.65457631 0 -419.67543483 0 19723
0.13750000 0.13749600 12376.86612878 0 330.53104049 0 2481.52943836 0 282.86800384 0 45.53792534 0 20946
0.13850000 0.13851100 12168.04208270 0 545.89661607 0 2555.23790467 0 -42.34976014 0 -318.40573758 0 20955
0.13950000 0.13949800 11522.08265278 0 638.52547104 0 2613.40082695 0 -406.57023118 0 124.64780388 0 20506
0.14050000 0.14048300 11279.26656951 0 399.09309023 0 2714.83439461 0 -362.12481212 0 104.86344172 0 21447
0.14150000 0.14148400 11098.89839821 0 -108.32077515 0 3153.74135042 0 -264.16131106 0 146.05282222 0 21771
0.14250000 0.14249400 11304.17930035 0 -138.82370134 0 3110.31569248 0 188.72888377 0 -331.03704573 0 22470
0.14350000 0.14350900 11465.61379620 0 -138.65650924 0 3503.84826119 0 -222.57587350 0 -410.14437763 0 22519
0.14450000 0.14449900 11347.80426013 0 176.74419938 0 3341.25117122 0 45.37405494 0 -390.66483658 0 22218
0.14550000 0.14550500 11242.50645111 0 309.86011728 0 3577.82246330 0 -60.73125874 0 54.28107591 0 23559
0.14650000 0.14650700 10912.66189476 0 174.57513095 0 3216.63215539 0 331.86636286 0 -126.62753556 0 23044
0.14750000 0.14750500 10817.49526295 0 185.80800448 0 3136.45745138 0 735.95307158 0 -207.12112252 0 23649
0.14850000 0.14849900 10713.26039710 0 120.77138296 0 2893.44206626 0 289.43942862 0 -408.48685060 0 23640
0.14950000 0.14949500 10382.81793521 0 205.80905203 0 2697.91588229 0 93.90992295 0 -417.82524936 0 24457
0.15050000 0.15050000 10258.29857030 0 297.29081415 0 2815.92472020 0 -305.12448396 0 -115.67922078 0 24591
0.15150000 0.15149900 10133.20344450 0 291.91298598 0 3047.65740633 0 -230.92551365 0 -286.36242955 0 25020
0.15250000 0.15250500 9924.14687960 0 173.99715560 0 3056.06130087 0 -293.16858762 0 -238.23435526 0 25297
0.15350000 0.15350100 9762.70131142 0 123.32466106 0 3239.48543382 0 -61.40179873 0 -206.99932695 0 25452
0.15450000 0.15450400 9848.66684131 0 33.72929093 0 3677.80555641 0 -56.75562979 0 -253.42115598 0 26061
0.15550000 0.15549900 9732.99426393 0 -43.45012778 0 3339.83391365 0 352.85063286 0 -232.93735507 0 26128
0.15650000 0.15649500 9827.90623228 0 174.31382408 0 3421.68053871 0 278.45457517 0 -418.44419231 0 26331
0.15750000 0.15749700 9495.60361982 0 293.50629353 0 2989.52770103 0 298.64606671 0 38.09067967 0 27345
0.15850000 0.15849900 9312.74417544 0 149.23057944 0 2833.10896832 0 409.43796331 0 -213.57185896 0 26980
0.15950000 0.15949700 9150.77820799 0 96.27906829 0 2455.13301599 0 416.72133857 0 287.88598145 0 27777
0.16050000 0.16050000 9134.30258866 0 80.69654268 0 2438.79026456 0 362.73268276 0 -111.20267985 0 28224
0.16150000 0.16150500 9009.76107910 0 87.84594282 0 2404.97538456 0 96.33431919 0 52.91242584 0 28075
0.16250000 0.16249700 9080.11463100 0 62.60746418 0 2281.34180563 0 23.69488584 0 292.66258237 0 28590
0.16350000 0.16349900 9020.93305485 0 -16.66440247 0 2329.38462302 0 -153.65840214 0 79.90642158 0 29163
0.16450000 0.16449100 9013.30422305 0 138.77609035 0 2402.38446055 0 10.26765468 0 293.62587463 0 28996
0.16550000 0.16550500 8919.95345250 0 245.06597968 0 2517.08267335 0 32.07829657 0 476.92710477 0 30777
0.16650000 0.16650700 8800.01803006 0 145.19914597 0 2504.62630793 0 21.45063632 0 448.63510040 0 29211
0.16750000 0.16749900 8672.90774115 0 124.68766425 0 2598.44211612 0 65.09353327 0 471.83383536 0 30922
0.16850000 0.16850800 8730.07415419 0 3.27396465 0 2834.50408125 0 -127.93739158 0 416.76452064 0 30867
0.16950000 0.16949900 8565.26259926 0 133.40047665 0 3113.71489620 0 -237.42939725 0 362.99952578 0 30852
0.17050000 0.17049200 8652.83361625 0 89.84460817 0 3047.75705726 0 -129.14648945 0 592.80562740 0 31257
0.17150000 0.17149500 8558.34239625 0 55.33305750 0 3221.11644694 0 -2.17983073 0 657.61969519 0 32608
0.17250000 0.17250900 8516.71045493 0 94.58455970 0 2740.09036752 0 505.87791248 0 470.76978494 0 32361
0.17350000 0.17350400 8420.19299949 0 63.06419758 0 2811.26327145 0 328.09180733 0 441.59420904 0 32508
0.17450000 0.17449800 8255.95720545 0 133.25321473 0 2499.04585622 0 341.96210863 0 212.29743438 0 32791
0.17550000 0.17549800 8193.13283443 0 76.47676897 0 2307.47249221 0 208.43097855 0 256.66091823 0 33633
0.17650000 0.17650100 8093.96909335 0 100.27495959 0 2034.38467288 0 92.15584525 0 240.86071071 0 33984
0.17750000 0.17750300 8018.28975322 0 96.61223454 0 2072.80564000 0 67.39580177 0 313.13198927 0 34069
0.17850000 0.17849800 7996.79837075 0 6.80497333 0 2059.12024652 0 -39.24020843 0 252.79335517 0 34536
