### header ###
fiducial parameters:
Omega_m = 0.31
Omega_nu = 0
Omega_de = 0.69
Omega_k = 0
H_0 = 100
w_de = -1
zeff = 0
beta = 0
fgrowth = 0
b_1 = 2
gamma = 0.55
Lx = 3500 Ly = 3500 Lz = 3500
nx = 700 ny = 700 nz = 700
xoffset = -685.467585 yoffset = -31.7331281 zoffset = 572.489161
bins = 400 dk = 0.001
kx_ny = 0.628318531 ky_ny = 0.628318531 kz_ny = 0.628318531
############################
A(data) = 8.02640927 (not used)
A(ran) = 8.03760228 (used)
Ngal = 477748
weighted Ngal = 0
Nran = 23820508
weighted Nran = 0
SN(data) = 3470.32897
SN(ran) = 70.0104308
SN(data+ran) = 3540.3394
############################
13 columns: k_central k_mean P_0(k) sigma^{lin}_{P_0(k)} P^img_1(k) sigma^{lin}_{P_1(k)} P_2(k) sigma^{lin}_{P_2(k)} P^img_3(k) sigma^{lin}_{P_3(k)} P_4(k) sigma^{lin}_{P_4(k)} N_modes
### header ###
0.00050000 0 0 0 0 0 0 0 0 0 0 0 0
0.00150000 0.00179520 24199.56240039 0 -16534.19192844 0 4061.95986599 0 1363.01425750 0 -124720.88122220 0 3
0.00250000 0.00253879 36665.45002071 0 -14334.67460321 0 3109.30811092 0 -9016.09444890 0 42912.01279039 0 6
0.00350000 0.00331552 34007.09555500 0 4026.62807750 0 2210.26855262 0 -8535.43375620 0 58757.28466861 0 7
0.00450000 0.00420575 28508.68977331 0 15478.44575698 0 7046.57145481 0 -18369.76193687 0 16078.56576215 0 24
0.00550000 0.00557378 29425.81043803 0 -21709.39654867 0 -16221.73092205 0 30892.33986026 0 8307.94177047 0 45
0.00650000 0.00659388 32000.90102111 0 -20500.74157147 0 -3594.64132470 0 17548.85977482 0 34084.04821249 0 40
0.00750000 0.00754703 78610.62740794 0 -36332.94810640 0 -28405.49570600 0 8387.52964127 0 -35916.96086297 0 57
0.00850000 0.00846663 85026.59674735 0 -22699.70528045 0 -16100.82113503 0 -7994.29602534 0 -3291.61393906 0 75
0.00950000 0.00948925 93877.48103763 0 17289.10303457 0 -12602.63083183 0 -48183.76808305 0 25910.79020111 0 112
0.01050000 0.01054430 76168.84761568 0 11028.45626771 0 10139.27107850 0 -26608.56811118 0 48292.49831277 0 105
0.01150000 0.01145670 86818.54179600 0 2834.41550265 0 6974.39096932 0 -4596.06667060 0 41969.97939482 0 144
0.01250000 0.01249090 81672.23594354 0 -2501.13852561 0 31603.40456012 0 -5325.37856175 0 8083.25108293 0 169
0.01350000 0.01339930 95697.99268431 0 -1217.88929610 0 30670.11830115 0 10827.98075455 0 -3018.40432416 0 180
0.01450000 0.01448870 84997.03364008 0 4999.76363348 0 32945.92394438 0 -6133.27074214 0 -13849.92822265 0 267
0.01550000 0.01550050 81734.24096252 0 11318.68404586 0 29769.71684690 0 2930.05824443 0 -504.10634051 0 238
0.01650000 0.01653350 77198.13093082 0 -3737.60718276 0 30188.25072505 0 9554.79626830 0 -9424.81824726 0 315
0.01750000 0.01747870 77091.50444282 0 -4218.00213966 0 21096.87553970 0 11352.01174357 0 -32176.84026248 0 297
0.01850000 0.01844180 82749.13025540 0 -1519.39977324 0 16804.79954700 0 11440.47961887 0 -24970.19620776 0 388
0.01950000 0.01947590 77200.89901203 0 3652.51636653 0 7010.49782055 0 6856.16068490 0 -14830.93620158 0 399
0.02050000 0.02045430 75911.30534040 0 8724.18367738 0 1786.85177923 0 -9826.74363817 0 -4109.61515201 0 462
0.02150000 0.02154770 68044.41855675 0 4039.84843333 0 8767.96364971 0 -6636.88436419 0 -8481.54475131 0 571
0.02250000 0.02255340 72967.72778736 0 1502.82450299 0 19056.57824537 0 -951.91765994 0 246.41680330 0 510
0.02350000 0.02348930 67759.41691592 0 3413.39843974 0 21615.39251096 0 -7585.68295023 0 -2263.81431545 0 555
0.02450000 0.02439640 69833.26335445 0 3653.64574366 0 29698.30035182 0 -7891.41198312 0 -1218.22146585 0 592
0.02550000 0.02547300 64384.79375769 0 3665.96924118 0 37381.49726673 0 -1848.15924175 0 -640.98020545 0 837
0.02650000 0.02652900 64285.03211108 0 790.63264047 0 38840.05461509 0 773.23580371 0 -4339.63162780 0 723
0.02750000 0.02749970 64268.09145410 0 2274.13372218 0 42251.32716847 0 4135.42474117 0 -1382.29117501 0 826
0.02850000 0.02848090 61713.26322545 0 2129.85025747 0 39457.11527723 0 6574.45859687 0 -8684.83263498 0 831
0.02950000 0.02946900 61068.63247451 0 3643.52563877 0 35998.56389688 0 7626.14122512 0 263.33863732 0 996
0.03050000 0.03053250 60833.67774185 0 1444.88302721 0 34420.97905672 0 5608.75257083 0 -10213.17884667 0 1041
0.03150000 0.03150510 52862.93255141 0 1837.57409923 0 31874.34434843 0 6183.35086730 0 4307.96477881 0 1036
0.03250000 0.03246190 56270.10834460 0 5362.49299454 0 26983.80919928 0 3107.42581570 0 -3187.34585624 0 1059
0.03350000 0.03345080 49345.36567977 0 2450.78159233 0 31632.08188140 0 5367.81878278 0 8157.22528504 0 1302
0.03450000 0.03451200 48199.49078429 0 -186.89973571 0 23154.99927699 0 5792.69710305 0 -270.46700004 0 1339
0.03550000 0.03553350 48375.76219540 0 1364.32079183 0 26178.29756873 0 5201.98857397 0 1755.16278560 0 1365
0.03650000 0.03647120 48278.21501375 0 -1546.34981185 0 22354.24874611 0 2403.80171813 0 1408.93118852 0 1308
0.03750000 0.03744890 51662.02820158 0 -3091.43737867 0 24073.44862070 0 -1254.10687058 0 1673.74798121 0 1579
0.03850000 0.03847530 52758.96342136 0 1122.86660451 0 23873.59315772 0 504.59020110 0 22.54480346 0 1662
0.03950000 0.03950240 51147.38654401 0 2920.31459859 0 27436.44583787 0 -323.69830884 0 2300.58550617 0 1683
0.04050000 0.04050350 47699.35387223 0 5243.42121344 0 21115.91993839 0 5311.96997640 0 1692.41592085 0 1822
0.04150000 0.04152450 45067.24081634 0 854.26861290 0 24903.98370535 0 5234.77372776 0 5048.28256084 0 1887
0.04250000 0.04250150 43024.72905705 0 652.80434112 0 20811.32028263 0 7269.57914898 0 1433.60032822 0 1920
0.04350000 0.04349210 41120.39991149 0 1464.40353586 0 16785.09080883 0 7839.58243065 0 4704.79690032 0 2005
0.04450000 0.04448520 41649.32486808 0 300.35784812 0 12836.36760875 0 5664.52387095 0 9474.68799824 0 2151
0.04550000 0.04548030 39636.04404630 0 -763.89851219 0 10885.61220523 0 2398.45378524 0 6256.94861037 0 2274
0.04650000 0.04648670 42834.28507017 0 -949.71980346 0 10501.26966612 0 1446.02347667 0 -138.06746156 0 2311
0.04750000 0.04749250 40830.30500124 0 -146.21779986 0 9749.54738954 0 -4119.09306206 0 -499.76156025 0 2568
0.04850000 0.04851840 41156.05279740 0 2004.95443351 0 11308.82967677 0 -4595.01479974 0 -3053.33750896 0 2493
0.04950000 0.04949480 41111.20988189 0 567.32710076 0 13493.84225648 0 -3052.39636135 0 -1073.03339220 0 2644
0.05050000 0.05050630 40473.88686533 0 557.68199861 0 13215.04111755 0 1651.04971533 0 -3428.65610334 0 2829
0.05150000 0.05149060 40721.68549477 0 654.96787339 0 11043.35961692 0 1265.62208840 0 -1977.65008051 0 2784
0.05250000 0.05249300 39146.31511957 0 609.78171581 0 12271.56831975 0 3264.24315211 0 -3039.00992065 0 3055
0.05350000 0.05348950 37843.76682791 0 1590.32908603 0 11190.13435472 0 3198.44032571 0 2381.85637034 0 3009
0.05450000 0.05448610 36743.06701769 0 1587.20669043 0 12480.39236583 0 2534.27799379 0 -1538.64347377 0 3336
0.05550000 0.05550870 35457.23793650 0 1679.46130082 0 12354.61075589 0 -1217.65677728 0 3684.29393875 0 3349
0.05650000 0.05647670 34019.27511230 0 1769.92219459 0 13449.11006422 0 -263.19469710 0 4520.63092161 0 3324
0.05750000 0.05747970 33573.06042211 0 725.45982935 0 13787.70175717 0 -1901.10709904 0 4317.70842466 0 3639
0.05850000 0.05849280 33266.02485489 0 -57.66998237 0 15029.35226233 0 1386.32150124 0 3024.19515004 0 3846
0.05950000 0.05951020 32827.67151532 0 -75.83579209 0 15611.53510130 0 858.96327862 0 2085.09592055 0 3787
0.06050000 0.06049470 34273.27424364 0 93.58373226 0 13953.01156671 0 508.36364940 0 1845.29150963 0 3930
0.06150000 0.06148310 32247.70314131 0 1522.02391422 0 13781.16908553 0 321.13174395 0 2297.20844710 0 4083
0.06250000 0.06249100 32170.63976058 0 960.75891130 0 13825.45838480 0 1963.74324054 0 4266.98610466 0 4303
0.06350000 0.06350600 31751.88443594 0 -981.94912654 0 12781.11670791 0 1615.96151798 0 1609.25168914 0 4470
0.06450000 0.06451750 32572.45442825 0 -333.29358553 0 13007.32430395 0 1385.22534109 0 1552.62782002 0 4479
0.06550000 0.06550280 32314.91215296 0 777.38128212 0 13481.77342243 0 -861.06037694 0 1572.29226890 0 4636
0.06650000 0.06648880 31659.98413994 0 1724.49244585 0 12605.73108278 0 269.64211184 0 4846.78839379 0 4653
0.06750000 0.06749660 30946.59425188 0 276.10392061 0 13974.60260011 0 1436.71165149 0 7000.73203006 0 5220
0.06850000 0.06852730 30408.58998894 0 443.49089829 0 13378.02573888 0 3416.56512464 0 5344.76620251 0 5029
0.06950000 0.06949320 30458.74762037 0 1175.08368835 0 13016.95722655 0 1879.40534239 0 4913.58772942 0 5040
0.07050000 0.07048030 29201.37441396 0 1208.72141115 0 11477.01829077 0 1155.79569852 0 4632.64963180 0 5475
0.07150000 0.07148790 28146.40330524 0 339.11430669 0 11181.71938785 0 -279.19088477 0 4419.82847646 0 5509
0.07250000 0.07249820 27609.17410504 0 206.95614488 0 9945.57182813 0 512.60434980 0 4319.22533316 0 5916
0.07350000 0.07351270 26920.69694782 0 535.50745369 0 10000.22482343 0 1913.36416261 0 2696.90830073 0 5721
0.07450000 0.07449140 27091.32147327 0 656.13489643 0 8111.86197026 0 100.55066048 0 1285.62977934 0 6028
0.07550000 0.07549160 26241.96343643 0 378.51738902 0 8285.35422784 0 994.00135211 0 685.69468200 0 6183
0.07650000 0.07648840 25840.70238500 0 313.09987952 0 8258.71421433 0 -19.96473033 0 296.20240462 0 6330
0.07750000 0.07749960 24863.34827326 0 888.18535828 0 8374.07676662 0 -469.29162958 0 -489.42333056 0 6583
0.07850000 0.07848650 25040.06257737 0 628.81725664 0 10180.62621170 0 -499.71394925 0 -207.83639471 0 6549
0.07950000 0.07947320 23720.46290548 0 1124.04027094 0 9140.52523521 0 -923.72752095 0 -1658.52353459 0 6828
0.08050000 0.08048110 23881.12233860 0 273.20297151 0 9746.26998139 0 -652.43452547 0 -84.86239417 0 7147
0.08150000 0.08149960 23348.87568457 0 546.61410272 0 10437.37127960 0 -731.23847567 0 228.23272425 0 7386
0.08250000 0.08250610 23427.82136053 0 858.23471965 0 11018.59082630 0 -35.47417859 0 -1677.01431703 0 7227
0.08350000 0.08350160 22385.14053235 0 385.80630045 0 10713.99117054 0 326.38113314 0 -1080.73862304 0 7798
0.08450000 0.08449610 22281.83574180 0 460.61646308 0 10136.92374564 0 1312.38051610 0 -607.92710140 0 7371
0.08550000 0.08548940 21987.53334812 0 -131.54032608 0 9634.86024907 0 1641.71574551 0 127.12800464 0 8256
0.08650000 0.08650700 22213.74094416 0 -506.21672562 0 8825.16327973 0 2090.11168369 0 -557.79604355 0 8037
0.08750000 0.08749060 22398.09515239 0 59.69643926 0 7393.30130651 0 2130.37065673 0 911.74505103 0 8155
0.08850000 0.08849210 21777.26989981 0 185.18131089 0 6899.46454727 0 988.39321959 0 299.57503476 0 8718
0.08950000 0.08949900 21736.63446773 0 401.89106671 0 6547.79643870 0 301.11187344 0 270.57993776 0 8571
0.09050000 0.09049190 21278.46166673 0 855.17322183 0 7457.46542883 0 -1120.14281260 0 325.13438937 0 8932
0.09150000 0.09150830 20599.39598560 0 1113.59906864 0 7530.35454311 0 -475.19539317 0 805.25475262 0 9285
0.09250000 0.09250820 19575.87027937 0 941.83520096 0 8102.06296280 0 -742.95188810 0 1498.86061070 0 9204
0.09350000 0.09350330 19058.12837085 0 339.63027702 0 7079.64448904 0 1032.67366100 0 949.58029217 0 9349
0.09450000 0.09448040 18988.37272449 0 -371.06017825 0 7444.12327742 0 1485.21950652 0 1157.06901587 0 9564
0.09550000 0.09549270 19093.67053351 0 -7.07778434 0 7000.27806474 0 1611.42186481 0 387.85135884 0 10155
0.09650000 0.09649430 18976.08244394 0 -199.44800142 0 5621.20893626 0 524.07195662 0 -399.69763916 0 9913
0.09750000 0.09749140 18918.83852463 0 252.95833281 0 5849.53134634 0 -534.00715368 0 354.98537708 0 10476
0.09850000 0.09850240 18858.38363112 0 333.94242376 0 6360.18696698 0 -678.31276304 0 974.70450441 0 10575
0.09950000 0.09950330 18399.98938363 0 342.34631830 0 6785.75177138 0 -133.13916978 0 -307.83498907 0 10882
0.10050000 0.10051200 18352.59983340 0 626.81316584 0 6914.40111345 0 -74.30936139 0 -51.49682912 0 10875
0.10150000 0.10150300 17855.34172580 0 527.13123997 0 8032.29624411 0 -861.16445679 0 451.09315651 0 11118
0.10250000 0.10250800 17493.05525773 0 462.50429446 0 7915.62715750 0 -48.03285230 0 82.44574856 0 11575
0.10350000 0.10349800 17265.74042920 0 486.90880560 0 8752.36274404 0 -424.05896823 0 630.86785119 0 11364
0.10450000 0.10450100 16893.48886880 0 455.12237551 0 8620.42492151 0 495.45996205 0 854.81890744 0 12093
0.10550000 0.10551000 16611.25530917 0 100.68563212 0 8186.10190817 0 1128.98960013 0 659.89505794 0 12067
0.10650000 0.10649700 16322.82124765 0 87.53248530 0 7725.36032782 0 939.63070108 0 355.30204557 0 12054
0.10750000 0.10749900 16557.55453380 0 33.63163302 0 7221.01593233 0 1071.59066827 0 254.46749068 0 12807
0.10850000 0.10850100 16332.23272374 0 61.65203327 0 6664.94163528 0 747.89014497 0 242.53595346 0 12736
0.10950000 0.10950300 16087.42362200 0 456.58170792 0 6232.04695185 0 -188.55947720 0 -203.99872692 0 12933
0.11050000 0.11050200 15824.67735406 0 337.89635096 0 5822.94669445 0 -177.04868832 0 902.27821331 0 13428
0.11150000 0.11150900 15341.25965248 0 290.36507497 0 5940.78944750 0 898.49479992 0 1095.10496449 0 13453
0.11250000 0.11250000 15240.83366637 0 37.62154527 0 5461.93354374 0 668.25909210 0 1130.34042376 0 13668
0.11350000 0.11349100 15035.10987124 0 171.22796716 0 5443.95208823 0 1459.42098970 0 1254.00721966 0 13791
0.11450000 0.11448600 14907.66741258 0 253.43665724 0 4735.13507032 0 967.89613188 0 1389.60998171 0 14205
0.11550000 0.11549300 14655.88274620 0 82.48206578 0 4459.53383326 0 496.70449136 0 1563.71121716 0 14776
0.11650000 0.11649800 14506.84925414 0 97.39859105 0 4545.78724359 0 268.16284925 0 1397.53776628 0 14553
0.11750000 0.11747300 14473.52155644 0 -13.23873589 0 4353.35023825 0 47.97284030 0 1398.37926297 0 14568
0.11850000 0.11849100 14471.63926122 0 320.73867642 0 4117.36577939 0 -425.96562256 0 917.48605145 0 16015
0.11950000 0.11950300 14170.69347265 0 510.34559554 0 4451.47318079 0 -171.99860097 0 409.21208788 0 15270
0.12050000 0.12050700 13902.96465853 0 283.93980488 0 4244.04424764 0 -324.20099239 0 816.45108748 0 15999
0.12150000 0.12150000 13611.09817631 0 269.12946320 0 4394.62786517 0 144.65549483 0 1088.25562436 0 15670
0.12250000 0.12250700 13685.28275260 0 -63.21467047 0 4364.10146565 0 552.69834520 0 405.89481936 0 16887
0.12350000 0.12352200 13655.94109183 0 -243.48374446 0 3923.11291277 0 839.09067003 0 583.69310407 0 16407
0.12450000 0.12449800 13784.04788998 0 58.33288246 0 3945.97726352 0 34.38122941 0 234.12762999 0 16306
0.12550000 0.12549900 13874.28733725 0 29.71136570 0 4126.88797873 0 16.62974609 0 393.35762597 0 17523
0.12650000 0.12650100 13472.02977659 0 443.53850928 0 4522.21426406 0 -608.49068273 0 428.65287580 0 17154
0.12750000 0.12750600 13260.65909580 0 481.98937168 0 3993.98686393 0 290.42597276 0 762.34838672 0 18007
0.12850000 0.12850300 13106.64305758 0 135.51750515 0 3905.57435026 0 562.74980168 0 666.09334537 0 17496
0.12950000 0.12949900 12966.46742537 0 57.43679921 0 3607.06447314 0 519.56773488 0 150.94900425 0 18405
0.13050000 0.13049000 12900.69781595 0 106.85413500 0 3395.16232077 0 421.36396437 0 -107.79816142 0 18100
0.13150000 0.13148800 12368.78333166 0 284.81894747 0 3065.51706626 0 -53.71550156 0 292.59836289 0 19059
0.13250000 0.13249300 12536.63977591 0 340.81723024 0 3570.24899312 0 -267.39221544 0 99.32783293 0 18957
0.13350000 0.13349100 12199.04459219 0 161.76998730 0 3879.59867623 0 -188.90271927 0 1015.69092919 0 19468
0.13450000 0.13450700 12238.24062205 0 122.66253604 0 3773.40400890 0 472.28005005 0 1205.73188345 0 19953
0.13550000 0.13551000 12009.48639130 0 113.73602777 0 3792.31553969 0 229.82603180 0 1270.60463456 0 19956
0.13650000 0.13649900 12379.63420998 0 -61.30535878 0 3989.01539009 0 342.24998907 0 1402.70854198 0 19723
0.13750000 0.13749600 12031.29887119 0 49.76124220 0 3704.00267693 0 113.63194792 0 1460.07425686 0 20946
0.13850000 0.13851100 11883.37261161 0 392.48180508 0 3789.89070055 0 -303.89324144 0 884.36097729 0 20955
0.13950000 0.13949800 11635.02036593 0 314.66550625 0 3773.66974469 0 6.74672183 0 1049.10941996 0 20506
0.14050000 0.14048300 11383.12497631 0 201.86287547 0 3298.42341883 0 -74.53446175 0 -55.59104266 0 21447
0.14150000 0.14148400 11118.93930613 0 67.81721445 0 3223.85131117 0 140.34614601 0 59.74770412 0 21771
0.14250000 0.14249400 11391.31849667 0 -56.92060743 0 3287.72755305 0 -101.11822785 0 -437.13206214 0 22470
0.14350000 0.14350900 11307.72244429 0 103.94720684 0 3517.46722071 0 -180.80552813 0 -442.06589008 0 22519
0.14450000 0.14449900 11022.20040419 0 507.97390356 0 3482.33473406 0 -145.94320620 0 135.10561467 0 22218
0.14550000 0.14550500 10847.31303368 0 259.32491958 0 3622.12283490 0 21.80727590 0 293.89936106 0 23559
0.14650000 0.14650700 10626.80768492 0 165.28545043 0 3673.04445674 0 83.36707670 0 636.61106608 0 23044
0.14750000 0.14750500 10629.79721262 0 65.99924944 0 3852.43826345 0 212.28082589 0 185.00968986 0 23649
0.14850000 0.14849900 10309.04303495 0 146.67619411 0 3778.63014621 0 369.66395809 0 114.94734010 0 23640
0.14950000 0.14949500 10252.26415328 0 294.23374527 0 3702.54113006 0 30.22334999 0 214.24394908 0 24457
0.15050000 0.15050000 10148.84863947 0 22.23123522 0 3364.11552197 0 366.72757755 0 437.86283558 0 24591
0.15150000 0.15149900 10042.99721421 0 -29.73528192 0 3380.27004388 0 61.60065768 0 255.73748634 0 25020
0.15250000 0.15250500 10049.26415005 0 124.74191864 0 3308.83140415 0 347.15392174 0 -96.85892594 0 25297
0.15350000 0.15350100 9996.21664185 0 197.90230488 0 3356.98494479 0 -42.17448523 0 -15.11339121 0 25452
0.15450000 0.15450400 9775.98810120 0 105.80126763 0 3032.36652576 0 81.18682522 0 37.45590329 0 26061
0.15550000 0.15549900 9726.61660484 0 151.75506950 0 3373.59343202 0 -36.38177706 0 593.85749825 0 26128
0.15650000 0.15649500 9730.45870155 0 143.19505518 0 3159.96399697 0 4.54019572 0 75.11609097 0 26331
0.15750000 0.15749700 9464.36859151 0 234.07669729 0 3169.03223099 0 157.62118719 0 91.99640377 0 27345
0.15850000 0.15849900 9413.87879034 0 189.46187167 0 3310.38152963 0 46.51361861 0 -205.54110177 0 26980
0.15950000 0.15949700 9069.57377777 0 201.85180314 0 2979.11971570 0 103.03750464 0 26.45698798 0 27777
0.16050000 0.16050000 9064.11512164 0 246.31604515 0 3235.06757621 0 162.42104000 0 89.81515578 0 28224
0.16150000 0.16150500 8847.05326589 0 89.38012414 0 2593.24919578 0 559.07046814 0 448.08480585 0 28075
0.16250000 0.16249700 8769.73522169 0 -111.39090937 0 2443.49600260 0 603.96210188 0 123.49185317 0 28590
0.16350000 0.16349900 8922.76582300 0 -71.49843028 0 2113.92825438 0 400.24571924 0 207.06354643 0 29163
0.16450000 0.16449100 8788.80176502 0 153.37716509 0 2161.29565995 0 348.21575769 0 87.21625970 0 28996
0.16550000 0.16550500 8721.41559618 0 146.45806931 0 1839.31245422 0 107.72032297 0 520.82665821 0 30777
0.16650000 0.16650700 8595.74470949 0 122.05466541 0 1768.81496210 0 259.73238113 0 819.03426086 0 29211
0.16750000 0.16749900 8494.20041857 0 50.80846268 0 1711.00635423 0 49.82679036 0 611.90760217 0 30922
0.16850000 0.16850800 8400.80535873 0 108.53491391 0 1897.28714697 0 -7.95942927 0 436.94383262 0 30867
0.16950000 0.16949900 8317.35324657 0 208.27153707 0 2072.49561490 0 -18.23589753 0 442.76233931 0 30852
0.17050000 0.17049200 8298.09847371 0 98.86954941 0 2106.86411114 0 -232.30291086 0 849.93379773 0 31257
0.17150000 0.17149500 8145.42218679 0 16.34197637 0 2209.57099616 0 -13.93219560 0 733.89915533 0 32608
0.17250000 0.17250900 8283.66016215 0 -29.73661060 0 2167.16399210 0 6.60671228 0 367.75287483 0 32361
0.17350000 0.17350400 8228.03280226 0 45.71486109 0 2126.39569212 0 41.62064755 0 234.56277235 0 32508
0.17450000 0.17449800 8279.75163149 0 104.16599598 0 2002.49637740 0 -210.99090005 0 130.48181183 0 32791
0.17550000 0.17549800 8050.77595424 0 260.93040668 0 2209.63743011 0 -387.43836112 0 -240.39124414 0 33633
0.17650000 0.17650100 7972.91536611 0 282.94993904 0 2132.87300214 0 -389.62403804 0 -320.41204283 0 33984
0.17750000 0.17750300 7715.28451223 0 147.40807478 0 2280.59995987 0 -72.88523897 0 -395.18123787 0 34069
0.17850000 0.17849800 7629.51828419 0 125.57012854 0 2189.62973916 0 8.91706358 0 -392.03005423 0 34536
