### header ###
fiducial parameters:
Omega_m = 0.31
Omega_nu = 0
Omega_de = 0.69
Omega_k = 0
H_0 = 100
w_de = -1
zeff = 0
beta = 0
fgrowth = 0
b_1 = 2
gamma = 0.55
Lx = 3500 Ly = 3500 Lz = 3500
nx = 700 ny = 700 nz = 700
xoffset = -685.467585 yoffset = -31.7331281 zoffset = 572.489161
bins = 400 dk = 0.001
kx_ny = 0.628318531 ky_ny = 0.628318531 kz_ny = 0.628318531
############################
A(data) = 8.07094668 (not used)
A(ran) = 8.07057986 (used)
Ngal = 479055
weighted Ngal = 0
Nran = 23820508
weighted Nran = 0
SN(data) = 3485.40557
SN(ran) = 70.2976775
SN(data+ran) = 3555.70325
############################
13 columns: k_central k_mean P_0(k) sigma^{lin}_{P_0(k)} P^img_1(k) sigma^{lin}_{P_1(k)} P_2(k) sigma^{lin}_{P_2(k)} P^img_3(k) sigma^{lin}_{P_3(k)} P_4(k) sigma^{lin}_{P_4(k)} N_modes
### header ###
0.00050000 0 0 0 0 0 0 0 0 0 0 0 0
0.00150000 0.00179520 105583.03211265 0 -72542.10762133 0 29296.59640740 0 66984.13273212 0 -232775.69912737 0 3
0.00250000 0.00253879 173832.17795530 0 -47582.43012215 0 19303.60181208 0 -71595.97746558 0 100773.65710443 0 6
0.00350000 0.00331552 147529.87034861 0 16222.61670804 0 -3476.88715025 0 -46636.18924315 0 149826.27051599 0 7
0.00450000 0.00420575 111847.08915556 0 46714.80274936 0 -11510.01381873 0 -45482.67444354 0 58426.66504953 0 24
0.00550000 0.00557378 69753.43189251 0 15903.73375326 0 6515.43203326 0 15322.76887003 0 21518.73111529 0 45
0.00650000 0.00659388 62836.88274804 0 1774.53935403 0 10421.75930160 0 30983.90798651 0 54751.31754923 0 40
0.00750000 0.00754703 59376.89196547 0 -10948.30370835 0 1414.29019374 0 19690.24739474 0 38383.32121632 0 57
0.00850000 0.00846663 99776.70497776 0 -17706.19751049 0 44650.81067991 0 492.23127214 0 49825.57240716 0 75
0.00950000 0.00948925 104028.14553837 0 -6595.73960517 0 24606.69178397 0 19956.64752988 0 33137.14299400 0 112
0.01050000 0.01054430 110059.13014384 0 -271.51222751 0 57064.65837359 0 -26192.13797475 0 64120.16519453 0 105
0.01150000 0.01145670 123477.45914506 0 4108.78472765 0 83176.30054690 0 34143.50659676 0 42922.86366872 0 144
0.01250000 0.01249090 102843.51750603 0 11966.30432450 0 85394.19793133 0 32967.62570102 0 50313.64048516 0 169
0.01350000 0.01339930 97046.49112397 0 15471.02729935 0 45808.86513270 0 43266.43790784 0 17576.87275661 0 180
0.01450000 0.01448870 82084.34787329 0 9110.65210285 0 40825.87607131 0 40005.08463251 0 14538.40537988 0 267
0.01550000 0.01550050 78068.52638482 0 3474.84984249 0 22741.11577527 0 16027.19017499 0 32525.61849426 0 238
0.01650000 0.01653350 75137.90345182 0 -2665.92793588 0 12773.91969678 0 6547.69678778 0 19677.40349795 0 315
0.01750000 0.01747870 75117.53037415 0 -4659.51109181 0 11061.26356615 0 1709.51159037 0 30044.08905591 0 297
0.01850000 0.01844180 82428.14355891 0 96.97518535 0 13258.99824708 0 -7501.28969046 0 10110.31694910 0 388
0.01950000 0.01947590 79859.91781722 0 3659.81302858 0 21911.02358362 0 -10947.05253565 0 11564.48965684 0 399
0.02050000 0.02045430 72260.75984769 0 14902.24197342 0 33751.65702143 0 -9218.45225729 0 14818.86736753 0 462
0.02150000 0.02154770 61232.05998883 0 11375.92796517 0 37982.28161139 0 5919.22055875 0 19262.85565674 0 571
0.02250000 0.02255340 60811.75453871 0 -2210.86645816 0 35967.11849439 0 13789.03043615 0 5867.24706605 0 510
0.02350000 0.02348930 58925.36255936 0 -4402.48921579 0 36459.06188609 0 3657.08923668 0 -15273.82919433 0 555
0.02450000 0.02439640 60819.28371959 0 3918.97186329 0 29809.90938599 0 -3013.23354847 0 -12110.46599364 0 592
0.02550000 0.02547300 57367.15428763 0 1521.28206846 0 24997.65557331 0 -7543.66347754 0 -21522.93859873 0 837
0.02650000 0.02652900 58270.54526959 0 -1811.33268941 0 26315.26222673 0 -9.37616645 0 -21071.96280886 0 723
0.02750000 0.02749970 60664.16044888 0 -2167.38543860 0 18565.52063967 0 5166.24710946 0 -24606.69178397 0 826
0.02850000 0.02848090 62497.07309936 0 -459.76832300 0 22862.57917853 0 3079.87787155 0 -32312.36551826 0 831
0.02950000 0.02946900 59426.05308766 0 1778.72469282 0 18014.00814045 0 2897.99279176 0 -21017.70841725 0 996
0.03050000 0.03053250 61043.27685067 0 1402.89677150 0 25608.95862655 0 1241.29619077 0 -21241.48010184 0 1041
0.03150000 0.03150510 56822.06373681 0 1208.56639860 0 23163.85713685 0 -1916.14331614 0 -14743.90772851 0 1036
0.03250000 0.03246190 59565.23221063 0 2960.44070374 0 21258.64220530 0 -492.33867369 0 -12051.11833261 0 1059
0.03350000 0.03345080 53352.66147814 0 1294.94160452 0 26583.54465709 0 851.30344431 0 -8633.93315778 0 1302
0.03450000 0.03451200 53952.33859031 0 2653.31655792 0 22730.15417370 0 5002.75316118 0 -11074.09639062 0 1339
0.03550000 0.03553350 51584.52192785 0 1552.50602445 0 20635.38104126 0 7527.09927961 0 -7872.04648701 0 1365
0.03650000 0.03647120 49218.14466761 0 1847.41739599 0 14108.79917691 0 5029.80285072 0 -12088.09989751 0 1308
0.03750000 0.03744890 48905.13004498 0 -56.92913312 0 12019.11931389 0 7061.92876933 0 -7120.84460969 0 1579
0.03850000 0.03847530 49923.56248180 0 -1350.38073488 0 9932.53970181 0 2304.93692982 0 -6441.28067395 0 1662
0.03950000 0.03950240 50268.24395341 0 143.71988338 0 9807.43350369 0 -2411.88451525 0 -3791.36331975 0 1683
0.04050000 0.04050350 49302.51578272 0 188.95697366 0 9658.94255555 0 251.77802298 0 -3680.07538300 0 1822
0.04150000 0.04152450 50404.65499517 0 2963.60738863 0 13450.32801995 0 -4212.23345843 0 -7282.58913064 0 1887
0.04250000 0.04250150 48121.98451056 0 2702.66590963 0 12360.70053454 0 -2626.52153186 0 -2779.62963945 0 1920
0.04350000 0.04349210 46267.59154993 0 2508.97773158 0 14887.29433491 0 -4434.56574079 0 -5526.33018488 0 2005
0.04450000 0.04448520 43102.67822377 0 2361.29506315 0 17418.98140469 0 1308.22839430 0 -3408.50447217 0 2151
0.04550000 0.04548030 43062.59640793 0 1690.15716659 0 17667.22292713 0 3160.96050620 0 -8106.15972298 0 2274
0.04650000 0.04648670 39443.38559446 0 1618.53029734 0 14873.89682188 0 4598.13719534 0 -5330.94794113 0 2311
0.04750000 0.04749250 40227.08474512 0 -230.79486022 0 12548.59788672 0 2799.09478648 0 -5596.20762681 0 2568
0.04850000 0.04851840 39859.48356114 0 -352.13314621 0 12323.82969290 0 3537.48598398 0 -3384.78755241 0 2493
0.04950000 0.04949480 39448.25741738 0 489.74110629 0 11746.85084660 0 2629.78786768 0 28.61343397 0 2644
0.05050000 0.05050630 37868.12594251 0 952.89202452 0 12689.54858166 0 -1479.89371829 0 875.17094769 0 2829
0.05150000 0.05149060 37524.99459638 0 1774.86045145 0 12387.82773035 0 781.50793758 0 2218.93818296 0 2784
0.05250000 0.05249300 37692.96176388 0 497.99441721 0 15652.94559612 0 -1077.72916515 0 634.49293034 0 3055
0.05350000 0.05348950 36129.99239248 0 774.73388926 0 14607.16451700 0 37.64047894 0 3891.33534054 0 3009
0.05450000 0.05448610 36793.11392587 0 1609.35134007 0 15998.29140721 0 -1790.92639477 0 -43.14663535 0 3336
0.05550000 0.05550870 34901.18578410 0 317.35829565 0 16637.38599575 0 -1325.35728079 0 1077.24309009 0 3349
0.05650000 0.05647670 34891.10996852 0 -218.93861480 0 15153.80519330 0 1822.00641053 0 1002.43403469 0 3324
0.05750000 0.05747970 35769.03460339 0 -406.14837560 0 15718.38303580 0 1508.02849565 0 -2265.13192210 0 3639
0.05850000 0.05849280 34685.60761988 0 -21.84625048 0 13914.03698335 0 2934.99650130 0 -2343.31360764 0 3846
0.05950000 0.05951020 36224.10715344 0 633.41780760 0 14850.09132352 0 -220.74561821 0 -2605.26266820 0 3787
0.06050000 0.06049470 33890.06108166 0 -19.47212260 0 11423.20679215 0 1300.51098390 0 -910.07755891 0 3930
0.06150000 0.06148310 35419.92420186 0 -26.67145892 0 12859.50876762 0 2028.46097910 0 -1447.79504864 0 4083
0.06250000 0.06249100 34063.78585807 0 473.07393574 0 11782.61445576 0 1965.43730623 0 601.67566681 0 4303
0.06350000 0.06350600 33290.93758573 0 1993.79353009 0 10616.47720586 0 281.44963903 0 -793.58784396 0 4470
0.06450000 0.06451750 32283.68819698 0 1354.61036296 0 10874.44022949 0 1482.51785927 0 2075.05332194 0 4479
0.06550000 0.06550280 30871.52388961 0 620.88836483 0 9782.04466288 0 588.02238307 0 745.01466221 0 4636
0.06650000 0.06648880 31419.05035189 0 522.09111771 0 11587.52009246 0 -1580.48578926 0 297.53994146 0 4653
0.06750000 0.06749660 30529.38905271 0 1108.83796896 0 12768.93715061 0 -1768.43850306 0 1289.73761185 0 5220
0.06850000 0.06852730 29739.71084664 0 1133.99429095 0 13803.64590491 0 -2566.95242433 0 1335.15628826 0 5029
0.06950000 0.06949320 30491.74314833 0 245.12466300 0 14844.00154487 0 -21.01626902 0 83.50448425 0 5040
0.07050000 0.07048030 29257.40037754 0 -661.22152245 0 13599.80440500 0 1807.74525617 0 -1343.53803814 0 5475
0.07150000 0.07148790 29727.97418234 0 -439.96104113 0 13461.28962152 0 2081.20953454 0 -982.57249843 0 5509
0.07250000 0.07249820 30908.50545450 0 -300.97125492 0 10618.75810478 0 2772.60978551 0 -3942.96559117 0 5916
0.07350000 0.07351270 29450.61244563 0 321.74293628 0 9931.69820513 0 1035.09517844 0 -3335.91431066 0 5721
0.07450000 0.07449140 29217.42928495 0 1886.87916164 0 9446.77466737 0 307.94571232 0 -2420.95274927 0 6028
0.07550000 0.07549160 27908.23759839 0 1095.51464051 0 9097.89678466 0 1283.38209740 0 -925.63306805 0 6183
0.07650000 0.07648840 26958.34285220 0 803.88178434 0 8016.55139822 0 287.86937296 0 -1167.42163958 0 6330
0.07750000 0.07749960 26316.36945921 0 347.54034587 0 10177.51488843 0 194.90502655 0 138.19036436 0 6583
0.07850000 0.07848650 26365.75202791 0 -121.78228622 0 8306.33628338 0 1170.63261378 0 -471.49280775 0 6549
0.07950000 0.07947320 26781.18565510 0 -176.21937119 0 10305.68812053 0 542.99898866 0 526.50343915 0 6828
0.08050000 0.08048110 26800.00860729 0 65.50630954 0 8056.35640594 0 181.11001706 0 -359.35783815 0 7147
0.08150000 0.08149960 26227.23724442 0 477.99115519 0 9760.91866713 0 10.81655412 0 -190.16053537 0 7386
0.08250000 0.08250610 25421.28272087 0 1198.31342582 0 7999.06819733 0 36.35852518 0 -41.71830545 0 7227
0.08350000 0.08350160 24291.24124988 0 1509.94400784 0 9090.73299050 0 1556.42562743 0 -960.28390857 0 7798
0.08450000 0.08449610 23241.25268733 0 748.24888829 0 6322.89537699 0 1788.45726633 0 714.83814815 0 7371
0.08550000 0.08548940 22522.32663686 0 97.35972719 0 6823.72984551 0 1410.85777304 0 0.35952171 0 8256
0.08650000 0.08650700 22425.55451794 0 347.85701436 0 6043.27488602 0 725.77096168 0 -25.67295666 0 8037
0.08750000 0.08749060 22214.40528365 0 503.31688375 0 5905.26942948 0 332.85401423 0 1780.16409504 0 8155
0.08850000 0.08849210 21598.23040749 0 -5.13962924 0 5442.94450667 0 405.36999117 0 1385.25855806 0 8718
0.08950000 0.08949900 22069.13638203 0 -277.68172689 0 5370.18826029 0 296.62979636 0 942.46853794 0 8571
0.09050000 0.09049190 21863.19114040 0 753.82158937 0 5663.05125174 0 43.35878110 0 -130.07545750 0 8932
0.09150000 0.09150830 21341.24174845 0 1020.58046783 0 5844.01732858 0 -860.00296992 0 791.71994276 0 9285
0.09250000 0.09250820 20181.63717019 0 485.40739835 0 6271.07689684 0 -121.44679477 0 1200.97078378 0 9204
0.09350000 0.09350330 20270.10504550 0 453.46817018 0 5953.97658635 0 172.88770865 0 -143.07879577 0 9349
0.09450000 0.09448040 19328.40381967 0 773.91896615 0 6405.24025666 0 -1.21850935 0 -235.81837399 0 9564
0.09550000 0.09549270 18913.96670171 0 964.76820012 0 6780.47027244 0 -349.69612751 0 -1057.66832705 0 10155
0.09650000 0.09649430 18572.16403456 0 296.23451436 0 6751.68222791 0 101.34842149 0 423.34480328 0 9913
0.09750000 0.09749140 18045.01064994 0 -220.39794721 0 6732.38316576 0 367.98539365 0 37.13657744 0 10476
0.09850000 0.09850240 18537.17548813 0 16.10823959 0 6827.09583225 0 1020.99014385 0 776.43238389 0 10575
0.09950000 0.09950330 18494.98993057 0 219.80889953 0 6112.55442241 0 1486.54818550 0 877.18721804 0 10882
0.10050000 0.10051200 18063.61215564 0 114.29185848 0 5663.28377057 0 819.20366743 0 1646.38826658 0 10875
0.10150000 0.10150300 17695.34663217 0 467.96295060 0 6054.45793408 0 359.60032207 0 1269.32024488 0 11118
0.10250000 0.10250800 17339.70355899 0 673.48633665 0 6209.04973320 0 195.38445821 0 1618.53029734 0 11575
0.10350000 0.10349800 16834.25193102 0 557.03869653 0 5687.10034125 0 -577.21357959 0 1409.46266011 0 11364
0.10450000 0.10450100 16060.96076569 0 560.80439420 0 5821.25262875 0 88.35837001 0 1828.87125192 0 12093
0.10550000 0.10551000 15973.26795312 0 386.59464997 0 5360.46675910 0 -22.41647521 0 1122.21333734 0 12067
0.10650000 0.10649700 15597.36252553 0 -106.39352629 0 5268.01284687 0 527.83211813 0 587.31707598 0 12054
0.10750000 0.10749900 15768.42994398 0 226.08137154 0 5332.21018616 0 206.51546635 0 344.47552636 0 12807
0.10850000 0.10850100 15463.71956497 0 299.17975276 0 4773.11314445 0 287.17070926 0 370.88412829 0 12736
0.10950000 0.10950300 15372.70505496 0 156.81844364 0 4704.35400732 0 47.94992058 0 553.85651038 0 12933
0.11050000 0.11050200 15037.98867569 0 25.05102418 0 5075.84157731 0 -14.17822265 0 958.59870073 0 13428
0.11150000 0.11150900 15537.23980177 0 14.85651327 0 5378.93539690 0 626.01928015 0 627.55833330 0 13453
0.11250000 0.11250000 15280.69403572 0 -155.40450776 0 5468.85374675 0 -126.09938566 0 723.53656653 0 13668
0.11350000 0.11349100 15352.77487029 0 201.31922432 0 5462.84147437 0 -28.44336306 0 906.05609054 0 13791
0.11450000 0.11448600 15523.95301198 0 215.45747588 0 6318.27821754 0 -296.84017053 0 1950.17964263 0 14205
0.11550000 0.11549300 15442.68214781 0 154.94500628 0 5961.68292443 0 274.07879240 0 1919.83040031 0 14776
0.11650000 0.11649800 15200.53040403 0 -1.93217604 0 5720.42803896 0 451.62905703 0 2063.31665763 0 14553
0.11750000 0.11747300 15238.61920141 0 92.35049672 0 5566.09090331 0 268.05987663 0 672.86296476 0 14568
0.11850000 0.11849100 15272.72196185 0 166.42147095 0 5817.89771433 0 -69.38040527 0 313.88380012 0 16015
0.11950000 0.11950300 14676.03437737 0 655.56577893 0 5985.51056744 0 29.83083608 0 551.89117273 0 15270
0.12050000 0.12050700 14192.72739904 0 430.02695131 0 5421.41990723 0 -418.24156877 0 -43.00922780 0 15999
0.12150000 0.12150000 13862.21850320 0 379.28913006 0 5634.49572604 0 500.50894217 0 -11.05196281 0 15670
0.12250000 0.12250700 13678.41791121 0 57.79941785 0 5030.16823744 0 544.47492956 0 -160.16007127 0 16887
0.12350000 0.12352200 13588.62135693 0 117.55044367 0 5022.37332076 0 815.69706216 0 -115.71243775 0 16407
0.12450000 0.12449800 13674.87476727 0 -11.26885858 0 4888.58641998 0 105.25772721 0 -96.80876831 0 16306
0.12550000 0.12549900 13623.49918011 0 212.37272618 0 5284.59918944 0 -64.69681187 0 283.30868237 0 17523
0.12650000 0.12650100 13333.95788610 0 266.15100783 0 4940.38275548 0 -247.21290346 0 500.77910690 0 17154
0.12750000 0.12750600 13498.04973992 0 171.67086015 0 5836.29991818 0 -760.71743327 0 837.95464951 0 18007
0.12850000 0.12850300 13193.11791441 0 157.13621936 0 5747.56630709 0 246.60503283 0 1165.41754879 0 17496
0.12950000 0.12949900 13071.98668089 0 136.71774516 0 5654.01623469 0 477.20612736 0 980.47429288 0 18405
0.13050000 0.13049000 13086.49142641 0 190.89905943 0 5548.84022124 0 779.11631542 0 611.26208564 0 18100
0.13150000 0.13148800 12796.61796265 0 190.44398688 0 5214.02419105 0 642.38196177 0 656.60879193 0 19059
0.13250000 0.13249300 12339.33094764 0 284.65618430 0 4442.60424861 0 793.44943990 0 490.84058814 0 18957
0.13350000 0.13349100 12352.28556768 0 145.26447269 0 3944.78145244 0 607.63922095 0 904.97764610 0 19468
0.13450000 0.13450700 12056.10087878 0 -27.19086167 0 3339.74533505 0 879.14369783 0 406.81825125 0 19953
0.13550000 0.13551000 11914.92873735 0 148.98920276 0 2941.60667922 0 438.76633729 0 436.93497476 0 19956
0.13650000 0.13649900 11766.78103127 0 258.43802636 0 2647.32643019 0 343.28303698 0 -50.10459499 0 19723
0.13750000 0.13749600 11504.69910281 0 244.89435864 0 2662.58409379 0 -268.98330852 0 154.66819816 0 20946
0.13850000 0.13851100 11344.26111619 0 50.26924046 0 2468.32015485 0 -470.25160014 0 115.55078181 0 20955
0.13950000 0.13949800 11367.07010532 0 39.00348213 0 2816.58905969 0 -358.29710943 0 -78.46070813 0 20506
0.14050000 0.14048300 11542.12356070 0 -46.97533455 0 3274.68435441 0 -251.04171338 0 -69.44207812 0 21447
0.14150000 0.14148400 11594.49565709 0 162.26270575 0 3292.37792947 0 23.46280991 0 -48.33678761 0 21771
0.14250000 0.14249400 11424.20330138 0 283.93426872 0 3667.72974083 0 -257.06727255 0 442.83320219 0 22470
0.14350000 0.14350900 11311.15486498 0 211.50354869 0 3866.00186135 0 390.79991894 0 434.44591614 0 22519
0.14450000 0.14449900 11169.76127705 0 -14.24598528 0 3618.17001494 0 358.14320412 0 595.07766845 0 22218
0.14550000 0.14550500 10972.37494251 0 75.09261764 0 3505.67519478 0 171.74061580 0 187.78219999 0 23559
0.14650000 0.14650700 11010.36408896 0 285.62833442 0 3346.84269526 0 283.10495159 0 29.98607007 0 23044
0.14750000 0.14750500 10541.82759194 0 510.89921178 0 3274.42969094 0 -129.31921772 0 -87.66457814 0 23649
0.14850000 0.14849900 10289.92112999 0 388.01633648 0 3212.45788893 0 66.08428489 0 207.82310792 0 23640
0.14950000 0.14949500 9927.08104568 0 70.25733340 0 3285.55737739 0 63.18743255 0 206.66937167 0 24457
0.15050000 0.15050000 10011.96148774 0 -24.80488640 0 2973.81607212 0 733.70981857 0 224.22122097 0 24591
0.15150000 0.15149900 10036.81885696 0 -80.08601469 0 3042.44234134 0 423.42120232 0 370.15556931 0 25020
0.15250000 0.15250500 10034.43830712 0 184.52140034 0 2694.60525717 0 270.94643171 0 600.38020480 0 25297
0.15350000 0.15350100 9925.30947371 0 192.63187826 0 2723.12756590 0 -65.53011504 0 688.69417479 0 25452
0.15450000 0.15450400 9628.64867484 0 227.95037997 0 2866.39237673 0 -381.90662764 0 707.97662846 0 26061
0.15550000 0.15549900 9686.66765689 0 103.34963347 0 2800.88850310 0 -352.01356510 0 567.25070171 0 26128
0.15650000 0.15649500 9419.55889297 0 158.54572631 0 2931.58622526 0 -258.52106880 0 37.30388027 0 26331
0.15750000 0.15749700 9423.37884503 0 118.65546169 0 2967.87023369 0 -193.57966927 0 198.85784651 0 27345
0.15850000 0.15849900 9401.92067953 0 -10.01430882 0 3117.24696782 0 94.58489187 0 302.56566969 0 26980
0.15950000 0.15949700 9354.14359794 0 118.34211489 0 3184.09059275 0 206.73248392 0 -92.15949912 0 27777
0.16050000 0.16050000 9352.85920826 0 145.16592900 0 3211.51674132 0 138.91006548 0 -2.83174707 0 28224
0.16150000 0.16150500 9191.12575963 0 189.82836562 0 3180.96819715 0 278.65719871 0 502.08785569 0 28075
0.16250000 0.16249700 9011.67659130 0 125.71739046 0 3031.64682464 0 107.05321540 0 399.16727480 0 28590
0.16350000 0.16349900 9020.35729396 0 39.73259472 0 2947.25356488 0 281.71980376 0 286.24174121 0 29163
0.16450000 0.16449100 8897.28840360 0 120.13361705 0 2898.16994896 0 -103.40289136 0 178.23231984 0 28996
0.16550000 0.16550500 8778.24983947 0 161.37470530 0 2750.26583403 0 -158.85132248 0 158.03861383 0 30777
0.16650000 0.16650700 8717.45170389 0 -45.51046598 0 2688.47118922 0 42.92640681 0 51.61618878 0 29211
0.16750000 0.16749900 8745.60862591 0 1.95873855 0 2599.12860025 0 202.76194824 0 -210.52475517 0 30922
0.16850000 0.16850800 8740.31605464 0 55.40425254 0 2400.82326275 0 222.30681601 0 -167.81769111 0 30867
0.16950000 0.16949900 8655.43561258 0 164.05310068 0 2325.64217723 0 425.62238049 0 -330.11582831 0 30852
0.17050000 0.17049200 8488.68640081 0 185.35071746 0 2113.07568536 0 317.48894908 0 -14.20191743 0 31257
0.17150000 0.17149500 8343.09640177 0 134.69261695 0 1994.42465261 0 130.22714835 0 -222.22377358 0 32608
0.17250000 0.17250900 8219.68426934 0 160.30622596 0 1983.38554476 0 179.93192170 0 -134.79116064 0 32361
0.17350000 0.17350400 8213.26232095 0 105.68545112 0 1979.79811152 0 -115.50538528 0 -188.52072406 0 32508
0.17450000 0.17449800 7965.70728265 0 169.56379674 0 1928.64397086 0 -126.16028345 0 -303.14143058 0 32791
0.17550000 0.17549800 7873.27551507 0 227.29379111 0 2028.22846028 0 -257.67071425 0 -199.15015589 0 33633
0.17650000 0.17650100 7842.16228233 0 200.76782254 0 2133.93594532 0 -116.83849318 0 -2.25469072 0 33984
0.17750000 0.17750300 7667.64029854 0 53.89321238 0 2061.62259193 0 158.72620521 0 57.80030363 0 34069
0.17850000 0.17849800 7649.12737144 0 -31.24820438 0 2181.85696714 0 302.26782415 0 209.32230070 0 34536
