### header ###
fiducial parameters:
Omega_m = 0.31
Omega_nu = 0
Omega_de = 0.69
Omega_k = 0
H_0 = 100
w_de = -1
zeff = 0
beta = 0
fgrowth = 0
b_1 = 2
gamma = 0.55
Lx = 3500 Ly = 3500 Lz = 3500
nx = 700 ny = 700 nz = 700
xoffset = -685.467585 yoffset = -31.7331281 zoffset = 572.489161
bins = 400 dk = 0.001
kx_ny = 0.628318531 ky_ny = 0.628318531 kz_ny = 0.628318531
############################
A(data) = 8.06430549 (not used)
A(ran) = 8.05990535 (used)
Ngal = 478992
weighted Ngal = 0
Nran = 23820508
weighted Nran = 0
SN(data) = 3493.08432
SN(ran) = 70.2046987
SN(data+ran) = 3563.28902
############################
13 columns: k_central k_mean P_0(k) sigma^{lin}_{P_0(k)} P^img_1(k) sigma^{lin}_{P_1(k)} P_2(k) sigma^{lin}_{P_2(k)} P^img_3(k) sigma^{lin}_{P_3(k)} P_4(k) sigma^{lin}_{P_4(k)} N_modes
### header ###
0.00050000 0 0 0 0 0 0 0 0 0 0 0 0
0.00150000 0.00179520 5607.53461510 0 -1888.72823989 0 19004.31687223 0 1309.09203563 0 -2858.97391910 0 3
0.00250000 0.00253879 17242.93144008 0 -5951.80641069 0 -2464.41162419 0 19958.08693211 0 16739.69427707 0 6
0.00350000 0.00331552 19510.65428618 0 -7561.33490795 0 5886.11430754 0 -27941.78674259 0 -14126.62561987 0 7
0.00450000 0.00420575 24750.63200661 0 -5753.58965179 0 -2105.19219009 0 -17956.09988165 0 10224.46154566 0 24
0.00550000 0.00557378 28465.39698327 0 -8846.64358988 0 920.17662638 0 -7052.21834047 0 8489.69398237 0 45
0.00650000 0.00659388 31904.35034869 0 -10801.04178826 0 -24080.09201559 0 23307.90808274 0 4320.85296490 0 40
0.00750000 0.00754703 58955.70072936 0 -30496.39352475 0 -8329.16741715 0 13694.14061245 0 -6725.49617972 0 57
0.00850000 0.00846663 61506.54292108 0 -21697.99205411 0 -35147.87718106 0 27694.09883640 0 -12031.85248743 0 75
0.00950000 0.00948925 66527.28861010 0 4915.08249327 0 -34409.13166916 0 3187.13548207 0 -6239.02251649 0 112
0.01050000 0.01054430 73214.97280056 0 -6227.71767285 0 -53585.06957608 0 -15407.36143164 0 -10670.32192146 0 105
0.01150000 0.01145670 68977.37264597 0 -5416.29342084 0 -44089.44381161 0 -23253.65369113 0 7619.51997487 0 144
0.01250000 0.01249090 70677.63884512 0 6272.91490276 0 -26928.55829844 0 -40351.98056907 0 4482.54212423 0 169
0.01350000 0.01339930 73863.36814194 0 5290.23500278 0 -22601.38303606 0 -38277.69123755 0 14976.75871945 0 180
0.01450000 0.01448870 69746.45632787 0 4560.32520608 0 1891.64026132 0 -22368.86421487 0 18796.82150513 0 267
0.01550000 0.01550050 76588.37800306 0 1302.82509979 0 12120.87397897 0 -4166.89228830 0 15421.20183767 0 238
0.01650000 0.01653350 73049.44154452 0 7.70775533 0 27571.63892390 0 6244.43688332 0 4106.18273132 0 315
0.01750000 0.01747870 82154.43568939 0 -116.98907680 0 31088.54145605 0 6111.81257664 0 3671.97044123 0 297
0.01850000 0.01844180 73003.71284302 0 1684.16703887 0 21229.85416078 0 10672.95713476 0 5074.47968136 0 388
0.01950000 0.01947590 80381.97793242 0 -2256.57301501 0 25510.19348917 0 9629.91091987 0 1775.33656142 0 399
0.02050000 0.02045430 71874.77860451 0 -2109.69862630 0 23283.43824489 0 5580.86138462 0 -8683.69218552 0 462
0.02150000 0.02154770 77064.15580052 0 -51.05847578 0 8431.25425198 0 10266.69139252 0 -6752.14726556 0 571
0.02250000 0.02255340 78384.64125839 0 -2089.14839143 0 10108.81111293 0 552.94304358 0 -13918.13374353 0 510
0.02350000 0.02348930 76175.49101057 0 3194.88610945 0 6252.11000442 0 -6466.17126014 0 -15040.97820339 0 555
0.02450000 0.02439640 75470.07319638 0 7812.17842672 0 21461.15502624 0 -9406.93644267 0 -9642.09047717 0 592
0.02550000 0.02547300 68681.07723382 0 4176.68022344 0 18081.66004509 0 -6599.45990631 0 5612.83825869 0 837
0.02650000 0.02652900 68896.65539804 0 -1743.79150801 0 26867.88195843 0 -612.75684949 0 -3452.24015521 0 723
0.02750000 0.02749970 68950.90978965 0 649.28002013 0 30740.98117999 0 10171.07079538 0 4672.28855465 0 826
0.02850000 0.02848090 71837.35414663 0 1993.18455223 0 30734.78067809 0 2673.22459794 0 1112.94580147 0 831
0.02950000 0.02946900 62343.61067737 0 5285.70642193 0 23319.31257730 0 1965.95770550 0 8219.83928189 0 996
0.03050000 0.03053250 60403.85009239 0 4791.89180734 0 22699.04094096 0 8365.52893186 0 14053.88044581 0 1041
0.03150000 0.03150510 56843.65477021 0 1144.69015673 0 19746.49480482 0 5418.66289835 0 10362.41164057 0 1036
0.03250000 0.03246190 55046.94862189 0 3204.29758554 0 15224.44662564 0 10712.34139414 0 5546.04999539 0 1059
0.03350000 0.03345080 52383.16871702 0 2041.29380357 0 10259.39473046 0 4647.71906587 0 686.38559507 0 1302
0.03450000 0.03451200 48966.91361747 0 1345.88537101 0 7023.29742804 0 1547.15809156 0 3739.50055030 0 1339
0.03550000 0.03553350 49749.50553565 0 565.74154384 0 8347.07136638 0 356.83224086 0 2150.02403328 0 1365
0.03650000 0.03647120 48438.43155388 0 -2113.46321673 0 7288.52389675 0 1812.46206654 0 5135.94215643 0 1308
0.03750000 0.03744890 49423.09340000 0 905.10276337 0 6604.57532037 0 242.63338991 0 3598.32840886 0 1579
0.03850000 0.03847530 52196.60004382 0 375.52896855 0 8524.37250370 0 -3495.97583824 0 1825.82636259 0 1662
0.03950000 0.03950240 49995.86476287 0 2232.43534691 0 12828.28481164 0 -492.52025982 0 3886.03169695 0 1683
0.04050000 0.04050350 48085.88873165 0 2482.33771807 0 12235.02964785 0 -4955.59612978 0 1120.55248862 0 1822
0.04150000 0.04152450 48248.76262973 0 90.05287860 0 16382.27963192 0 -3785.11852855 0 -4887.19130705 0 1887
0.04250000 0.04250150 47111.63487086 0 687.62901714 0 17166.20022908 0 -324.46562095 0 -1307.94051385 0 1920
0.04350000 0.04349210 47992.54903343 0 -175.40998424 0 19849.46742564 0 -1498.16305424 0 -8598.04775305 0 2005
0.04450000 0.04448520 48159.51969169 0 569.00455797 0 19023.47199416 0 474.27417575 0 -10007.68757036 0 2151
0.04550000 0.04548030 45464.51583084 0 3261.25362441 0 19193.43218013 0 -3275.14939206 0 -8506.15852938 0 2274
0.04650000 0.04648670 43775.54340300 0 1962.43670621 0 19666.55261963 0 -1283.75855645 0 -10410.88627863 0 2311
0.04750000 0.04749250 42135.73209736 0 1409.99413171 0 20275.86265440 0 1405.43233388 0 -8076.24230132 0 2568
0.04850000 0.04851840 42571.53880222 0 945.88656461 0 18116.09497528 0 1343.41624257 0 -13753.26682699 0 2493
0.04950000 0.04949480 40782.14038828 0 660.28037484 0 16284.95389677 0 2046.55315785 0 -8886.71433339 0 2644
0.05050000 0.05050630 40068.52905372 0 702.07618657 0 14488.80136469 0 2783.79283358 0 -9932.41790624 0 2829
0.05150000 0.05149060 38716.81963986 0 557.17599336 0 13241.83614361 0 4118.94912184 0 -8121.30666333 0 2784
0.05250000 0.05249300 38073.73901439 0 450.81745562 0 9991.33374660 0 3640.07107343 0 -6089.44648051 0 3055
0.05350000 0.05348950 37809.11045122 0 1878.01022947 0 10466.01538390 0 1935.32058273 0 -6924.49907368 0 3009
0.05450000 0.05448610 36769.86204375 0 1347.31370091 0 13366.28907457 0 -1273.64952389 0 -7532.67973132 0 3336
0.05550000 0.05550870 34239.83582269 0 2496.04525619 0 13792.79502659 0 -5614.52125206 0 -449.63825303 0 3349
0.05650000 0.05647670 34496.16014224 0 459.21027783 0 17658.69723702 0 -52.61247656 0 1197.26155497 0 3324
0.05750000 0.05747970 34492.17410530 0 -901.17762422 0 17227.09801559 0 1404.53547557 0 39.52078114 0 3639
0.05850000 0.05849280 35861.59923887 0 -703.36943410 0 19211.14789984 0 2628.70277984 0 735.42602892 0 3846
0.05950000 0.05951020 36719.48296582 0 -234.19406394 0 18826.49533564 0 2356.17964908 0 555.30919940 0 3787
0.06050000 0.06049470 35428.78206171 0 536.84941946 0 15573.33558067 0 1841.23903874 0 2638.34677476 0 3930
0.06150000 0.06148310 35208.99641406 0 409.43907054 0 15839.29282282 0 2134.41205529 0 2309.60945090 0 4083
0.06250000 0.06249100 34537.90280680 0 308.70859550 0 13085.38419392 0 1409.27443059 0 891.79715064 0 4303
0.06350000 0.06350600 34437.69826719 0 395.80018083 0 11771.20996120 0 2443.07525426 0 1927.89105277 0 4470
0.06450000 0.06451750 33614.58164018 0 1112.11537711 0 9801.80876268 0 1076.68504492 0 -3035.90966970 0 4479
0.06550000 0.06550280 32082.83622477 0 1625.79374242 0 9829.95461237 0 558.75933581 0 -2777.74734423 0 4636
0.06650000 0.06648880 30631.69733403 0 1649.32243266 0 9015.97265333 0 -1032.09568565 0 -1795.95323023 0 4653
0.06750000 0.06749660 29732.29238901 0 590.37635933 0 9092.51563480 0 1697.77492607 0 1796.61756972 0 5220
0.06850000 0.06852730 29860.06701742 0 -593.94496962 0 9443.18723413 0 2979.10864338 0 96.59961209 0 5029
0.06950000 0.06949320 29860.06701742 0 448.73142962 0 9108.73659066 0 1910.23069469 0 751.64477031 0 5040
0.07050000 0.07048030 29570.52572341 0 827.65185126 0 9473.17108974 0 -433.26449908 0 498.49377906 0 5475
0.07150000 0.07148790 29410.64135303 0 841.33613751 0 9619.97904451 0 -1926.47379520 0 2727.22432608 0 5509
0.07250000 0.07249820 28403.50268753 0 553.22538787 0 11828.23243402 0 -1175.61515994 0 4146.87352503 0 5916
0.07350000 0.07351270 28391.76602322 0 -121.73578245 0 11876.83993997 0 469.14547489 0 4767.25588462 0 5721
0.07450000 0.07449140 28658.05543511 0 292.86077699 0 11379.80327886 0 1975.53526647 0 3280.12086590 0 6028
0.07550000 0.07549160 27958.28450657 0 94.77544658 0 11093.91585204 0 964.86563658 0 2892.32376145 0 6183
0.07650000 0.07648840 27705.28188447 0 927.07689921 0 9505.50227821 0 1808.07742591 0 1922.52097524 0 6330
0.07750000 0.07749960 26615.76512231 0 1037.54216222 0 9722.58627860 0 -185.70171016 0 1525.96566186 0 6583
0.07850000 0.07848650 25725.99309988 0 801.98066617 0 9581.69094529 0 -684.11909017 0 1314.24066667 0 6549
0.07950000 0.07947320 24844.85749082 0 1054.75076946 0 10609.83381097 0 -574.44771285 0 1533.22910694 0 6828
0.08050000 0.08048110 24188.15790582 0 761.98300000 0 9656.15232969 0 1233.00301948 0 2393.34944350 0 7147
0.08150000 0.08149960 23656.24342153 0 146.96518178 0 8872.09886463 0 2358.07301663 0 3043.20633176 0 7386
0.08250000 0.08250610 23624.02295631 0 55.80197045 0 8295.80650247 0 2129.00876078 0 1831.41788663 0 7227
0.08350000 0.08350160 23680.27036639 0 -268.43190674 0 8662.12329677 0 1690.76614446 0 2357.19830297 0 7798
0.08450000 0.08449610 23757.99808662 0 -149.16635996 0 7689.18704263 0 571.99630013 0 2931.95161198 0 7371
0.08550000 0.08548940 24113.64115979 0 -301.66770415 0 7621.01473873 0 -626.33816311 0 3395.10695914 0 8256
0.08650000 0.08650700 24010.11492274 0 472.28337174 0 8073.73995591 0 -492.43168122 0 2300.40834897 0 8037
0.08750000 0.08749060 24118.95587571 0 694.93785876 0 8017.24895469 0 -570.96325223 0 2012.56112066 0 8155
0.08850000 0.08849210 22822.94025568 0 943.43072296 0 8185.84724470 0 -1071.81322200 0 617.05844768 0 8718
0.08950000 0.08949900 22023.40768053 0 1153.58123356 0 8242.41575220 0 23.50189521 0 466.25670535 0 8571
0.09050000 0.09049190 21124.55635175 0 649.12722205 0 7849.07141302 0 -117.27031385 0 -398.20176808 0 8932
0.09150000 0.09150830 20951.60663808 0 294.72978542 0 7764.39027280 0 660.12314783 0 44.48450436 0 9285
0.09250000 0.09250820 20607.58950597 0 114.49669648 0 7261.51849651 0 873.52338576 0 -1215.73019276 0 9204
0.09350000 0.09350330 19937.93530094 0 847.80901860 0 6703.70584447 0 1388.18165181 0 -272.52202353 0 9349
0.09450000 0.09448040 19487.51312731 0 855.74123210 0 6039.97533322 0 828.87866485 0 -230.75389262 0 9564
0.09550000 0.09549270 18660.29974011 0 480.69612414 0 6130.43622699 0 1257.02996434 0 -116.33580964 0 10155
0.09650000 0.09649430 18099.81865779 0 109.13060498 0 5896.97625819 0 664.78238211 0 335.94651456 0 9913
0.09750000 0.09749140 18186.18279138 0 263.75274227 0 5598.00134344 0 115.67479185 0 -363.73140645 0 10476
0.09850000 0.09850240 17795.10827878 0 377.26732355 0 5996.95935130 0 -427.53678545 0 1164.73106465 0 10575
0.09950000 0.09950330 17958.75723960 0 92.09948712 0 6057.72426991 0 -348.59996736 0 1561.16458245 0 10882
0.10050000 0.10051200 17769.64193170 0 64.30075481 0 6246.36346784 0 40.24181094 0 2287.32086104 0 10875
0.10150000 0.10150300 17917.90036102 0 364.34924218 0 6831.92336587 0 405.84499390 0 2118.29075035 0 11118
0.10250000 0.10250800 17194.76682712 0 673.01465561 0 6708.74375227 0 600.28941174 0 1652.71056406 0 11575
0.10350000 0.10349800 16620.88823177 0 941.08781903 0 6306.70763810 0 895.58610019 0 2762.37895738 0 11364
0.10450000 0.10450100 15829.88134672 0 715.34636786 0 6023.74330504 0 550.77729685 0 3147.85087362 0 12093
0.10550000 0.10551000 15386.21329124 0 -256.88900812 0 5421.80743860 0 1100.04432859 0 2487.91816978 0 12067
0.10650000 0.10649700 15419.54098894 0 -36.57410334 0 4886.05085760 0 709.73823534 0 1580.99511620 0 12054
0.10750000 0.10749900 15341.25965248 0 136.27485217 0 4068.86899668 0 220.99142382 0 919.13472061 0 12807
0.10850000 0.10850100 15018.61210726 0 79.99367150 0 4113.15829596 0 -98.43484993 0 330.48896565 0 12736
0.10950000 0.10950300 15058.91536960 0 41.50383452 0 4237.84374574 0 -736.99608458 0 -402.89421934 0 12933
0.11050000 0.11050200 15006.65399646 0 197.08184561 0 4449.52445162 0 -756.90412460 0 -620.51412025 0 13428
0.11150000 0.11150900 15336.94144580 0 46.80515292 0 5328.37916178 0 -1370.13376236 0 -1271.86687959 0 13453
0.11250000 0.11250000 14863.71028305 0 344.94388570 0 5620.73282629 0 -513.88873948 0 -658.64056353 0 13668
0.11350000 0.11349100 15202.41269925 0 254.38334101 0 6116.46295307 0 -741.06516395 0 -1010.38064221 0 13791
0.11450000 0.11448600 14932.24797367 0 -48.46201561 0 6677.42014536 0 587.89837304 0 -521.91063881 0 14205
0.11550000 0.11549300 15168.75283180 0 200.58291472 0 6720.28111473 0 351.98699152 0 -669.98969647 0 14776
0.11650000 0.11649800 14728.84936676 0 432.87586048 0 6371.65789549 0 926.63179175 0 -232.49889101 0 14553
0.11750000 0.11747300 14566.19691517 0 357.34821120 0 6311.87841379 0 237.45597083 0 609.63002496 0 14568
0.11850000 0.11849100 14025.86746402 0 258.41366724 0 6131.52131482 0 576.28350430 0 818.51607606 0 16015
0.11950000 0.11950300 14072.03905851 0 126.19903659 0 5813.66808625 0 777.49532707 0 601.88825544 0 15270
0.12050000 0.12050700 13712.29922516 0 -40.15123932 0 4910.42104452 0 812.60899077 0 483.98017568 0 15999
0.12150000 0.12150000 13898.09283561 0 -46.00407022 0 4777.82995482 0 269.16268018 0 408.25101009 0 15670
0.12250000 0.12250700 13861.66488696 0 -3.31901794 0 4560.19233818 0 202.55046684 0 67.67139193 0 16887
0.12350000 0.12352200 13712.52067165 0 177.07747636 0 4530.51850767 0 -31.96768405 0 -483.69450970 0 16407
0.12450000 0.12449800 13513.77244116 0 385.03898834 0 4197.82836384 0 -520.67718183 0 83.40095802 0 16306
0.12550000 0.12549900 13379.68658760 0 250.70622194 0 4610.70428401 0 60.19137218 0 -357.71913408 0 17523
0.12650000 0.12650100 13214.48750131 0 -121.57412651 0 4514.25326251 0 252.82214321 0 -136.93808443 0 17154
0.12750000 0.12750600 13437.26267666 0 111.11631572 0 4662.51169183 0 583.23803152 0 -205.76808443 0 18007
0.12850000 0.12850300 13213.26954558 0 342.68956037 0 4057.92953976 0 161.45221158 0 291.40587351 0 17496
0.12950000 0.12949900 12830.94216959 0 466.34860564 0 4489.62841211 0 509.40444793 0 746.50942606 0 18405
0.13050000 0.13049000 12520.14201193 0 380.51815811 0 4205.12502590 0 467.54109502 0 1050.26869237 0 18100
0.13150000 0.13148800 12339.66311739 0 -45.04531761 0 4098.56497184 0 789.76014127 0 519.61866758 0 19059
0.13250000 0.13249300 12275.88652643 0 -3.82811237 0 3706.82611976 0 338.52968794 0 1103.31398611 0 18957
0.13350000 0.13349100 12120.87397897 0 170.37429091 0 3459.47038331 0 508.79547007 0 1124.48316393 0 19468
0.13450000 0.13450700 12037.16720334 0 200.46001191 0 3228.05879460 0 133.82897562 0 1422.78266687 0 19953
0.13550000 0.13551000 11963.31479680 0 -32.07984670 0 2896.77483603 0 97.29395758 0 974.29261393 0 19956
0.13650000 0.13649900 11935.30181501 0 -32.27361238 0 3079.87787155 0 -31.17579138 0 10.14412076 0 19723
0.13750000 0.13749600 11882.59754887 0 344.92174105 0 3118.67529772 0 -609.86807994 0 357.21091437 0 20946
0.13850000 0.13851100 11783.94313474 0 192.18566357 0 3265.50539714 0 -268.43744290 0 7.92149549 0 20955
0.13950000 0.13949800 11617.08319972 0 139.13151197 0 3369.05377884 0 -310.67614762 0 252.78671177 0 20506
0.14050000 0.14048300 11564.37893359 0 248.57369218 0 3848.95048113 0 -146.27648318 0 183.26469147 0 21447
0.14150000 0.14148400 11495.95196621 0 132.13490992 0 4033.83616095 0 212.45909032 0 300.28919971 0 21771
0.14250000 0.14249400 11188.03061300 0 242.51713050 0 3730.78663067 0 263.47814862 0 516.69003766 0 22470
0.14350000 0.14350900 11144.29492997 0 303.63525627 0 3655.36195400 0 332.10773954 0 668.69755617 0 22519
0.14450000 0.14449900 10838.06764246 0 151.30664034 0 3782.94835289 0 336.42816068 0 669.17366613 0 22218
0.14550000 0.14550500 10618.99062360 0 168.45324256 0 3477.19717535 0 329.63639664 0 1250.16512295 0 23559
0.14650000 0.14650700 10461.46465840 0 212.35943939 0 3415.73470028 0 321.53477657 0 1075.96534381 0 23044
0.14750000 0.14750500 10255.95123744 0 70.10442459 0 3093.43039713 0 357.45561275 0 761.13043099 0 23649
0.14850000 0.14849900 10331.09910599 0 134.78673171 0 3103.65015294 0 64.34094735 0 881.16218265 0 23640
0.14950000 0.14949500 10136.53621427 0 106.61098675 0 3052.46279530 0 -120.40821071 0 583.60120377 0 24457
0.15050000 0.15050000 10116.04134103 0 92.76072636 0 3137.93007058 0 -47.52319318 0 621.58481406 0 24591
0.15150000 0.15149900 10113.83794840 0 -12.47740284 0 2963.78454583 0 64.62650261 0 460.97742087 0 25020
0.15250000 0.15250500 10121.28962300 0 -47.78139980 0 2804.76381679 0 422.67382039 0 -118.50709253 0 25297
0.15350000 0.15350100 10084.05339463 0 19.20206859 0 2494.78301116 0 128.03039911 0 145.70847292 0 25452
0.15450000 0.15450400 9987.39199897 0 205.09931601 0 2360.98503805 0 114.91965929 0 -163.28689580 0 26061
0.15550000 0.15549900 9909.97430383 0 165.73609405 0 2350.02343648 0 -100.46695371 0 -108.69679130 0 26128
0.15650000 0.15649500 9554.70768970 0 362.47691205 0 2058.14588194 0 211.85897031 0 159.19345731 0 26331
0.15750000 0.15749700 9394.94511490 0 145.22461232 0 2208.00979836 0 109.43741911 0 92.65985748 0 27345
0.15850000 0.15849900 9290.45558558 0 86.11423121 0 2128.80945893 0 190.99871035 0 -33.69895276 0 26980
0.15950000 0.15949700 9284.39902391 0 75.77688732 0 2306.28775345 0 106.36739560 0 -111.32558266 0 27777
0.16050000 0.16050000 9193.49523714 0 134.77565939 0 2365.12608754 0 -257.27653949 0 -205.42262790 0 28224
0.16150000 0.16150500 9172.22530117 0 72.06776923 0 2518.09025491 0 -303.65961538 0 -61.18223453 0 28075
0.16250000 0.16249700 9144.93202049 0 69.84212121 0 2760.98384445 0 -240.84742392 0 -59.79996550 0 28590
0.16350000 0.16349900 9125.46687346 0 57.31201411 0 2709.55289567 0 47.52740067 0 -95.06853102 0 29163
0.16450000 0.16449100 8997.44865391 0 160.49556271 0 2752.03740600 0 191.84906490 0 -81.39066672 0 28996
0.16550000 0.16550500 8897.50985009 0 184.77274211 0 2644.74657851 0 115.44116579 0 -318.81209190 0 30777
0.16650000 0.16650700 8712.19234960 0 145.15928560 0 2547.77515774 0 355.17914277 0 80.90215575 0 29211
0.16750000 0.16749900 8820.78971142 0 83.52219997 0 2767.82654119 0 -196.71202996 0 -108.71295689 0 30922
0.16850000 0.16850800 8504.85199505 0 97.59457120 0 2472.22868551 0 -25.01913588 0 224.01749020 0 30867
0.16950000 0.16949900 8649.16867674 0 74.09954083 0 2747.18772773 0 177.80271364 0 231.40826701 0 30852
0.17050000 0.17049200 8465.29057847 0 108.16310524 0 2406.38156981 0 354.15384549 0 -83.67776614 0 31257
0.17150000 0.17149500 8439.07131330 0 158.12940690 0 2401.56510851 0 267.16855448 0 -36.99252650 0 32608
0.17250000 0.17250900 8189.89971558 0 143.36556898 0 2022.57050230 0 320.55598306 0 18.81619807 0 32361
0.17350000 0.17350400 8120.45409432 0 16.98273181 0 1848.61320707 0 293.41107153 0 117.53272795 0 32508
0.17450000 0.17449800 8039.33824270 0 31.20003977 0 1820.96561200 0 372.77195967 0 -226.42129191 0 32791
0.17550000 0.17549800 7994.58390578 0 223.23910576 0 1611.92011942 0 5.15039154 0 -224.26108134 0 33633
0.17650000 0.17650100 7806.19937132 0 69.36446112 0 1448.28223093 0 92.91153142 0 35.32702740 0 33984
0.17750000 0.17750300 7851.58483075 0 -88.72242805 0 1440.26586776 0 198.02852938 0 142.60047134 0 34069
0.17850000 0.17849800 7914.98496266 0 41.81928505 0 1499.54709484 0 39.18617549 0 61.27933882 0 34536
