### header ###
fiducial parameters:
Omega_m = 0.31
Omega_nu = 0
Omega_de = 0.69
Omega_k = 0
H_0 = 100
w_de = -1
zeff = 0
beta = 0
fgrowth = 0
b_1 = 2
gamma = 0.55
Lx = 3500 Ly = 3500 Lz = 3500
nx = 700 ny = 700 nz = 700
xoffset = -685.467585 yoffset = -31.7331281 zoffset = 572.489161
bins = 400 dk = 0.001
kx_ny = 0.628318531 ky_ny = 0.628318531 kz_ny = 0.628318531
############################
A(data) = 8.02001071 (not used)
A(ran) = 8.01535321 (used)
Ngal = 476861
weighted Ngal = 0
Nran = 23820508
weighted Nran = 0
SN(data) = 3489.94134
SN(ran) = 69.8166333
SN(data+ran) = 3559.75798
############################
13 columns: k_central k_mean P_0(k) sigma^{lin}_{P_0(k)} P^img_1(k) sigma^{lin}_{P_1(k)} P_2(k) sigma^{lin}_{P_2(k)} P^img_3(k) sigma^{lin}_{P_3(k)} P_4(k) sigma^{lin}_{P_4(k)} N_modes
### header ###
0.00050000 0 0 0 0 0 0 0 0 0 0 0 0
0.00150000 0.00179520 128745.67129377 0 -78999.93034856 0 116815.24130168 0 189221.60222074 0 -223621.10096731 0 3
0.00250000 0.00253879 225218.83743864 0 -59171.83250982 0 107683.89502374 0 -67797.06282030 0 144905.72936659 0 6
0.00350000 0.00331552 191371.84770052 0 25366.58543627 0 32790.24705743 0 -102643.77276630 0 98294.67430078 0 7
0.00450000 0.00420575 149322.47973675 0 85773.53577961 0 15762.34016533 0 -53297.41057729 0 125799.32565953 0 24
0.00550000 0.00557378 78135.40322672 0 45947.26919293 0 47408.70534574 0 -5916.80679194 0 41706.67951064 0 45
0.00650000 0.00659388 58782.41884595 0 17563.36452033 0 73732.05036959 0 44479.63253822 0 -6524.55562891 0 40
0.00750000 0.00754703 49976.37747119 0 2215.19573717 0 46407.32428914 0 57271.15723146 0 12318.18280724 0 57
0.00850000 0.00846663 43852.93895348 0 -8109.90216877 0 47922.46121733 0 39303.54213200 0 -7134.25319505 0 75
0.00950000 0.00948925 57851.90066819 0 -13536.35998379 0 29171.03624396 0 30792.68893690 0 -17241.71348435 0 112
0.01050000 0.01054430 64293.44707794 0 -5881.26462927 0 17438.69014287 0 10082.49219683 0 -14204.57478659 0 105
0.01150000 0.01145670 70571.12308037 0 2519.34142761 0 25434.12661766 0 -4445.01801542 0 -5438.07268375 0 144
0.01250000 0.01249090 70968.84098785 0 1766.52299087 0 32989.54890416 0 -16504.40737467 0 20792.82950018 0 169
0.01350000 0.01339930 71606.71762065 0 611.27869412 0 34672.76372309 0 -2477.52125677 0 10543.73203180 0 180
0.01450000 0.01448870 72212.37378823 0 -3558.33517162 0 31942.32842282 0 14090.41911771 0 13618.07374095 0 267
0.01550000 0.01550050 71681.34508993 0 -2558.12778145 0 45027.04827725 0 14409.63424223 0 7601.56066402 0 238
0.01650000 0.01653350 77547.68422535 0 -890.30238679 0 23352.19738201 0 21277.02226450 0 650.95526288 0 315
0.01750000 0.01747870 80222.20428529 0 -1679.11805875 0 44343.55366620 0 -5113.95251934 0 1526.40855485 0 297
0.01850000 0.01844180 78521.16302340 0 5926.65008870 0 34858.33588706 0 -5401.04682956 0 6357.35245182 0 388
0.01950000 0.01947590 76390.07266556 0 3519.33844361 0 26933.98373760 0 9315.96622196 0 17639.43139183 0 399
0.02050000 0.02045430 75550.12610481 0 2738.27450625 0 28697.36218822 0 3290.48456193 0 7031.46880376 0 462
0.02150000 0.02154770 75285.05464866 0 -2058.43376238 0 32216.81135507 0 7433.56027955 0 9503.03314977 0 571
0.02250000 0.02255340 78310.67812860 0 4930.79412219 0 36633.00810899 0 7876.67471879 0 1717.74940004 0 510
0.02350000 0.02348930 70654.05479326 0 4900.22343336 0 27098.29703791 0 1763.48917387 0 11089.92981511 0 555
0.02450000 0.02439640 66355.55685216 0 4144.00579290 0 27198.72302401 0 12906.56614810 0 16762.61398945 0 592
0.02550000 0.02547300 65175.68991949 0 1834.50706525 0 23420.07073315 0 9873.12560684 0 14846.10528659 0 837
0.02650000 0.02652900 61722.45325505 0 -2148.82822220 0 15933.62903027 0 14033.61809139 0 11397.74044507 0 723
0.02750000 0.02749970 61609.40481865 0 3457.42200322 0 18647.45584332 0 7130.48860461 0 9001.22431667 0 826
0.02850000 0.02848090 61099.19209101 0 -951.77704141 0 11828.78605026 0 -1197.39442286 0 7400.59796856 0 831
0.02950000 0.02946900 63317.08947543 0 2725.97315338 0 16772.80052828 0 -5516.80798554 0 6682.60199337 0 996
0.03050000 0.03053250 59286.65251819 0 5209.80563529 0 18333.00181847 0 -12348.74242374 0 10904.50159137 0 1041
0.03150000 0.03150510 58509.70748567 0 2784.93328304 0 28766.34277184 0 -1983.68449753 0 16856.28585741 0 1036
0.03250000 0.03246190 58729.49313332 0 839.31322376 0 25251.43325816 0 -2175.52359734 0 15232.19725301 0 1059
0.03350000 0.03345080 58276.52432499 0 240.28605705 0 33957.93443280 0 5054.49413506 0 9278.27602828 0 1302
0.03450000 0.03451200 55935.39196533 0 2771.10394934 0 35727.07049233 0 4992.01300611 0 12027.97717374 0 1339
0.03550000 0.03553350 55578.75238293 0 3467.04385349 0 36937.82921125 0 9979.19847860 0 17578.97649832 0 1365
0.03650000 0.03647120 52907.77546692 0 258.47456503 0 33070.59832184 0 4997.82597664 0 18843.54671586 0 1308
0.03750000 0.03744890 52408.30289435 0 66.56604175 0 29974.55485605 0 13085.82708692 0 18194.26558850 0 1579
0.03850000 0.03847530 53142.39802983 0 -51.22444992 0 25642.17560101 0 8239.19370568 0 12088.43206725 0 1662
0.03950000 0.03950240 50808.79485105 0 3936.33326860 0 21271.59682534 0 2201.85358576 0 12185.75780241 0 1683
0.04050000 0.04050350 47443.91533867 0 3136.22493256 0 18702.92819066 0 2195.04410600 0 11394.08657788 0 1822
0.04150000 0.04152450 45305.29579994 0 438.09535440 0 19412.55348829 0 3530.68757655 0 10434.21566702 0 1887
0.04250000 0.04250150 42273.25037161 0 1367.62034462 0 13332.07559088 0 -606.58181393 0 2948.00648296 0 1920
0.04350000 0.04349210 43560.96174801 0 1622.00700733 0 15577.10017111 0 1633.89868419 0 -235.24704203 0 2005
0.04450000 0.04448520 40391.39804543 0 1782.54464488 0 13712.18850191 0 -1031.74137125 0 3826.16363666 0 2151
0.04550000 0.04548030 39944.51901575 0 1993.89318102 0 15887.34671253 0 834.26202918 0 -290.61309505 0 2274
0.04650000 0.04648670 38641.41710784 0 187.93167638 0 14835.36513151 0 467.54109502 0 523.25814074 0 2311
0.04750000 0.04749250 39121.07021899 0 308.07858022 0 18555.66627058 0 -159.04508816 0 -1041.37429384 0 2568
0.04850000 0.04851840 39136.57147373 0 756.62953095 0 18937.77220007 0 -2755.44768204 0 -293.13869234 0 2493
0.04950000 0.04949480 38250.89621149 0 549.33457292 0 21567.33862125 0 -231.14917461 0 1594.39262924 0 2644
0.05050000 0.05050630 38650.82858394 0 471.19828391 0 19738.30128446 0 -663.84344897 0 947.02147790 0 2829
0.05150000 0.05149060 40147.91762267 0 394.12161638 0 22849.18166550 0 3660.37771715 0 1832.12651542 0 2784
0.05250000 0.05249300 37824.94387571 0 255.01889246 0 17625.48026256 0 3384.72111846 0 2507.44975076 0 3055
0.05350000 0.05348950 38587.27343948 0 859.43053073 0 18626.30770292 0 5000.92622759 0 3411.82616962 0 3009
0.05450000 0.05448610 37317.72067577 0 51.44689293 0 14332.12796850 0 4137.07451756 0 1996.03013971 0 3336
0.05550000 0.05550870 35669.93729626 0 2192.78535173 0 15733.33067430 0 4265.60206406 0 5196.56313481 0 3349
0.05650000 0.05647670 34251.68321024 0 1268.12443380 0 12986.72977979 0 2363.95242111 0 5008.65471031 0 3324
0.05750000 0.05747970 33265.58196189 0 1305.78141051 0 13138.86352280 0 2504.73703117 0 6947.08661631 0 3639
0.05850000 0.05849280 32668.34076118 0 286.91383133 0 9747.33292457 0 2276.60285061 0 7605.91208767 0 3846
0.05950000 0.05951020 32130.22577499 0 -642.18265992 0 9785.32207103 0 2372.82135329 0 5168.62765929 0 3787
0.06050000 0.06049470 33406.42193359 0 -318.39134356 0 9962.27996628 0 -214.87728606 0 4130.67471382 0 3930
0.06150000 0.06148310 32846.27302101 0 93.79255631 0 9273.75851976 0 -1174.00967285 0 3654.49831267 0 4083
0.06250000 0.06249100 31996.36136793 0 2214.69748255 0 9621.66203788 0 -2335.10901495 0 2014.66486238 0 4303
0.06350000 0.06350600 31053.11001663 0 1044.63730797 0 9125.24542696 0 -1179.87800500 0 -468.03713518 0 4470
0.06450000 0.06451750 30119.27014143 0 60.86146928 0 9959.06899208 0 -1368.07430994 0 -2223.82107820 0 4479
0.06550000 0.06550280 30877.72439150 0 -189.21274436 0 10144.78509626 0 -454.11590118 0 -3680.29682950 0 4636
0.06650000 0.06648880 30323.44381108 0 -330.06157391 0 10940.05482636 0 858.40412622 0 -4492.47399959 0 4653
0.06750000 0.06749660 31018.78580969 0 -80.09664412 0 9813.95510301 0 1006.85078506 0 -3517.36756979 0 5220
0.06850000 0.06852730 30816.05154226 0 658.49551608 0 9691.72770933 0 1122.80017056 0 -3665.17203379 0 5029
0.06950000 0.06949320 30733.67344561 0 776.12789495 0 10329.89222258 0 1431.70696068 0 53.56126408 0 5040
0.07050000 0.07048030 29389.49321263 0 926.85213101 0 9833.97386628 0 839.64871520 0 830.81189277 0 5475
0.07150000 0.07148790 29238.24525561 0 48.99924481 0 10066.64770002 0 878.21362255 0 751.06568773 0 5509
0.07250000 0.07249820 29086.33295909 0 90.59819060 0 10434.83571721 0 1581.28299665 0 814.95964532 0 5916
0.07350000 0.07351270 28648.53323577 0 930.07528477 0 9876.49159358 0 711.01930332 0 3247.69002651 0 5721
0.07450000 0.07449140 28361.64929971 0 816.31046895 0 10332.06239825 0 850.91923464 0 3717.26732206 0 6028
0.07550000 0.07549160 26905.52786281 0 1060.69217895 0 9143.39296734 0 412.32784008 0 4281.95588782 0 6183
0.07650000 0.07648840 26523.08976358 0 1048.72742476 0 8906.50057785 0 1946.79151124 0 4695.96118511 0 6330
0.07750000 0.07749960 25104.28206132 0 433.72621503 0 7473.21027472 0 1073.23380128 0 3612.98816692 0 6583
0.07850000 0.07848650 24981.15780933 0 139.32638489 0 7844.53175984 0 1270.69321316 0 3064.23267659 0 6549
0.07950000 0.07947320 24490.21092687 0 141.74679510 0 6725.10864835 0 479.38848258 0 790.90723412 0 6828
0.08050000 0.08048110 24276.51505787 0 288.57689452 0 6453.19449545 0 -112.81923927 0 1925.53264759 0 7147
0.08150000 0.08149960 24112.42320406 0 501.32718698 0 5824.93971292 0 -999.85086131 0 204.15263224 0 7386
0.08250000 0.08250610 23778.14971779 0 245.37489754 0 6882.00349103 0 211.17137894 0 1066.67787775 0 7227
0.08350000 0.08350160 23976.89794828 0 94.52532276 0 6519.97168643 0 -693.72543919 0 -655.56356447 0 7798
0.08450000 0.08449610 23288.31006781 0 814.68062274 0 7475.90084965 0 -555.62918958 0 -414.91433516 0 7371
0.08550000 0.08548940 23140.60525473 0 883.55269758 0 7983.72195513 0 -819.59562773 0 248.26366708 0 8256
0.08650000 0.08650700 21959.40964308 0 603.24793693 0 8013.86082329 0 -222.59358922 0 266.95818031 0 8037
0.08750000 0.08749060 21963.61712651 0 418.42979829 0 8630.16856735 0 267.88382666 0 1449.93200733 0 8155
0.08850000 0.08849210 21730.87685882 0 334.01993004 0 8700.66605947 0 537.81824788 0 127.90306738 0 8718
0.08950000 0.08949900 20982.83059407 0 384.54959158 0 8105.65039604 0 1046.56942865 0 177.78831961 0 8571
0.09050000 0.09049190 20616.22591933 0 587.48980425 0 8197.00814812 0 603.06302911 0 -14.65466479 0 8932
0.09150000 0.09150830 20404.08017580 0 500.94408454 0 7594.36365289 0 676.34188922 0 590.42507756 0 9285
0.09250000 0.09250820 19859.43251797 0 568.44429833 0 7695.33218291 0 400.93109615 0 646.67691657 0 9204
0.09350000 0.09350330 19291.97587102 0 322.87784957 0 6955.46836620 0 538.93876715 0 957.64980249 0 9349
0.09450000 0.09448040 19289.20778981 0 309.89776319 0 6957.17350422 0 754.91332060 0 1895.57093663 0 9564
0.09550000 0.09549270 18964.78867263 0 55.86497198 0 6074.16667226 0 1589.87512071 0 1421.60900044 0 10155
0.09650000 0.09649430 18949.73031087 0 -269.79601716 0 6116.64011027 0 1551.89704658 0 3174.62375503 0 9913
0.09750000 0.09749140 19154.56832002 0 -91.57465892 0 5094.85275903 0 1215.58625254 0 1042.40844898 0 10476
0.09850000 0.09850240 19098.09946344 0 -41.55498866 0 5323.37447096 0 470.12537564 0 2566.49845901 0 10575
0.09950000 0.09950330 18760.83644947 0 617.06730554 0 4840.14499890 0 21.89087195 0 1833.27803720 0 10882
0.10050000 0.10051200 18265.34991383 0 1214.41258611 0 5694.74024538 0 -1141.32416998 0 2548.31770166 0 10875
0.10150000 0.10150300 17225.76933661 0 1124.21742814 0 5937.85528142 0 -681.60345798 0 2328.04487172 0 11118
0.10250000 0.10250800 16398.99884240 0 459.41290138 0 6613.58819278 0 -174.78439789 0 2918.88626869 0 11575
0.10350000 0.10349800 16129.83062606 0 281.99107571 0 6248.06860586 0 649.24348146 0 2539.20517834 0 11364
0.10450000 0.10450100 16112.44707609 0 216.81272844 0 6190.06069614 0 1274.41351430 0 2337.22382899 0 12093
0.10550000 0.10551000 15604.89170641 0 277.88545767 0 5265.12297009 0 283.91212407 0 2031.26227728 0 12067
0.10650000 0.10649700 15702.99250430 0 134.80334020 0 5148.70854694 0 -316.42379143 0 1872.66229658 0 12054
0.10750000 0.10749900 15043.96773109 0 323.38828375 0 4862.11249134 0 -280.44095024 0 1297.14499715 0 12807
0.10850000 0.10850100 15194.32990213 0 318.03038577 0 5568.75933359 0 -142.64808234 0 501.50545141 0 12736
0.10950000 0.10950300 14891.61254159 0 6.80217203 0 5045.44804569 0 -165.26109131 0 221.42767342 0 12933
0.11050000 0.11050200 14904.78860812 0 -65.47154244 0 5009.52942397 0 -179.82894908 0 169.74981179 0 13428
0.11150000 0.11150900 14933.13375966 0 135.45439290 0 5229.11576978 0 323.69166545 0 -593.15772732 0 13453
0.11250000 0.11250000 14829.05390636 0 176.07543096 0 4840.13392657 0 284.73147611 0 -180.71473506 0 13668
0.11350000 0.11349100 14780.88929340 0 223.75618333 0 5260.86012503 0 545.41054101 0 -197.90119765 0 13791
0.11450000 0.11448600 14587.12360908 0 75.29291600 0 4710.96418524 0 -262.51817806 0 -371.95039317 0 14205
0.11550000 0.11549300 14482.71158604 0 179.58203623 0 5255.46790285 0 397.74005214 0 -20.20090302 0 14776
0.11650000 0.11649800 14437.20433103 0 187.32602021 0 5116.94204704 0 -1.23073319 0 -28.08240527 0 14553
0.11750000 0.11747300 14321.94142967 0 245.86429430 0 5458.39039980 0 153.43252671 0 110.51630644 0 14568
0.11850000 0.11849100 14197.26705221 0 175.40001915 0 5150.19223847 0 11.92279009 0 29.02809253 0 16015
0.11950000 0.11950300 13770.87182345 0 495.93053586 0 5313.47581257 0 156.28254312 0 243.94878210 0 15270
0.12050000 0.12050700 13799.77059122 0 65.03473922 0 4959.07283978 0 32.05626265 0 541.73563640 0 15999
0.12150000 0.12150000 13772.64339542 0 -361.80039301 0 4736.15372420 0 682.72619171 0 808.36386143 0 15670
0.12250000 0.12250700 14118.65354600 0 -321.96327554 0 4517.10992231 0 538.69074708 0 -129.40336739 0 16887
0.12350000 0.12352200 14158.73536184 0 178.85126280 0 4409.11046603 0 529.25491187 0 -152.68514478 0 16407
0.12450000 0.12449800 13638.44681862 0 471.42083764 0 4130.15431455 0 100.03513304 0 -294.61020431 0 16306
0.12550000 0.12549900 13471.25471385 0 581.57607556 0 3896.55040553 0 131.02657021 0 434.48466928 0 17523
0.12650000 0.12650100 12975.43600848 0 204.83690191 0 3888.66691026 0 355.86341244 0 119.28436974 0 17154
0.12750000 0.12750600 12931.36815570 0 -94.46597510 0 4132.91132343 0 125.93440802 0 104.83243921 0 18007
0.12850000 0.12850300 13067.55775097 0 -52.95405778 0 3859.35846646 0 13.68716505 0 55.72413201 0 17496
0.12950000 0.12949900 13046.74178031 0 314.69650876 0 4363.61428335 0 -272.76229298 0 -160.66718375 0 18405
0.13050000 0.13049000 12822.41647948 0 249.26017632 0 4073.50830078 0 -109.91895451 0 379.98890099 0 18100
0.13150000 0.13148800 12680.57999855 0 174.49319575 0 4164.21278569 0 227.06680845 0 192.37167863 0 19059
0.13250000 0.13249300 12424.25567900 0 127.77130671 0 3807.89430071 0 489.02804857 0 283.07727078 0 18957
0.13350000 0.13349100 12316.18978877 0 237.99851474 0 3698.59938242 0 890.40425217 0 -393.58571586 0 19468
0.13450000 0.13450700 11984.24149071 0 294.97780549 0 3258.55197715 0 166.26867287 0 191.92657117 0 19953
0.13550000 0.13551000 11912.49282589 0 159.47690883 0 3138.50583147 0 171.97977801 0 281.03442685 0 19956
0.13650000 0.13649900 11657.49718531 0 119.33530243 0 3133.34612810 0 -116.91932115 0 649.40624464 0 19723
0.13750000 0.13749600 11766.78103127 0 -13.29110799 0 3065.86030833 0 -43.00856346 0 651.65724827 0 20946
0.13850000 0.13851100 11766.55958478 0 51.25777762 0 3580.15872384 0 12.91132725 0 460.94752560 0 20955
0.13950000 0.13949800 11634.57747294 0 171.51031144 0 3487.83767950 0 -184.06189886 0 349.06168330 0 20506
0.14050000 0.14048300 11600.80688224 0 140.59748778 0 3792.02765924 0 -108.28678311 0 17.96185749 0 21447
0.14150000 0.14148400 11331.97083564 0 283.07837801 0 3527.58732560 0 112.89674555 0 387.41621647 0 21771
0.14250000 0.14249400 11189.69146172 0 301.10523005 0 3617.85998984 0 -122.95041648 0 176.86820942 0 22470
0.14350000 0.14350900 10969.79509083 0 330.08593303 0 3372.66335673 0 334.52372082 0 413.14940659 0 22519
0.14450000 0.14449900 10814.45037362 0 -6.03984247 0 3275.41512785 0 110.02702040 0 68.51222428 0 22218
0.14550000 0.14550500 10774.73394450 0 -51.97105679 0 3456.19297517 0 400.33540507 0 373.33886270 0 23559
0.14650000 0.14650700 10820.09725928 0 210.85138875 0 3384.89827566 0 -80.62523691 0 370.50988371 0 23044
0.14750000 0.14750500 10641.04669464 0 166.52665804 0 3425.62228634 0 241.13198267 0 551.17811501 0 23649
0.14850000 0.14849900 10625.15790852 0 58.06770028 0 3475.15986758 0 201.12988756 0 1122.83338753 0 23640
0.14950000 0.14949500 10454.31193657 0 86.55657059 0 3223.80702187 0 394.21351668 0 1025.95608153 0 24457
0.15050000 0.15050000 10467.70944960 0 175.42105657 0 3231.04832230 0 523.39100864 0 1186.98643753 0 24591
0.15150000 0.15149900 10391.02252791 0 165.08061242 0 3152.67840724 0 -79.98879968 0 703.78353905 0 25020
0.15250000 0.15250500 10119.30767686 0 207.17094798 0 3165.69946122 0 -75.02075826 0 861.11463133 0 25297
0.15350000 0.15350100 9909.46497689 0 241.04894023 0 2922.96088422 0 -28.55962247 0 728.34084827 0 25452
0.15450000 0.15450400 9783.88266880 0 -11.60180339 0 2767.38364820 0 60.59861229 0 496.18519933 0 26061
0.15550000 0.15549900 9863.42625030 0 -134.11242713 0 2470.26888401 0 514.79888458 0 301.64223780 0 26128
0.15650000 0.15649500 9774.81443477 0 60.15848737 0 2366.73157464 0 227.06237952 0 258.06267455 0 26331
0.15750000 0.15749700 9705.44631978 0 312.78763996 0 2329.96038391 0 26.19014496 0 260.53733915 0 27345
0.15850000 0.15849900 9358.22928580 0 360.18826251 0 2501.80286510 0 169.83949763 0 609.12291248 0 26980
0.15950000 0.15949700 9302.20332221 0 277.38055966 0 2462.50718432 0 -128.23745158 0 620.19302283 0 27777
0.16050000 0.16050000 9006.81584070 0 105.52922061 0 2774.55851468 0 -97.45096315 0 560.89961620 0 28224
0.16150000 0.16150500 8972.42519982 0 114.71260682 0 2892.32376145 0 -126.69286227 0 780.91446097 0 28075
0.16250000 0.16249700 8837.50892190 0 201.62592772 0 2921.15609528 0 -1.07307879 0 741.39511923 0 28590
0.16350000 0.16349900 8740.21640372 0 126.52899187 0 2638.20283454 0 -10.02914574 0 580.89955652 0 29163
0.16450000 0.16449100 8653.13256902 0 62.93974465 0 2669.20534403 0 166.58091243 0 801.50677067 0 28996
0.16550000 0.16550500 8686.22774790 0 -0.32365845 0 2415.67125033 0 389.17339442 0 321.70750484 0 30777
0.16650000 0.16650700 8636.23620135 0 15.33815940 0 2361.40578640 0 64.99797911 0 -90.53275316 0 29211
0.16750000 0.16749900 8519.85499518 0 187.62829468 0 2242.90976619 0 37.32048876 0 41.88815491 0 30922
0.16850000 0.16850800 8461.24917991 0 186.06820411 0 2784.08071402 0 -100.28547830 0 224.57332090 0 30867
0.16950000 0.16949900 8326.62078244 0 125.86686684 0 2503.92875146 0 -111.77622628 0 306.93038014 0 30852
0.17050000 0.17049200 8286.38395405 0 112.52250097 0 2881.10749641 0 109.54470993 0 438.65672127 0 31257
0.17150000 0.17149500 8322.52402226 0 121.32389197 0 2961.78045504 0 -178.35632988 0 616.00879129 0 32608
0.17250000 0.17250900 8216.37364422 0 35.39434713 0 2936.72378397 0 239.61950310 0 886.20451937 0 32361
0.17350000 0.17350400 8311.47384209 0 18.92847145 0 2899.55398956 0 143.21719983 0 909.43647130 0 32508
0.17450000 0.17449800 8291.62116369 0 -52.52755183 0 2496.12276247 0 334.70641418 0 842.07355434 0 32791
0.17550000 0.17549800 8206.60785373 0 121.93508430 0 2624.62816431 0 287.75200632 0 836.38237938 0 33633
0.17650000 0.17650100 8082.60888809 0 127.58086272 0 2356.89935020 0 88.54715315 0 487.46795800 0 33984
0.17750000 0.17750300 7934.15115692 0 50.86714600 0 2248.56772417 0 394.63647949 0 602.50276947 0 34069
0.17850000 0.17849800 7919.11493982 0 140.15127309 0 1981.31502002 0 121.74242585 0 360.36099078 0 34536
