### header ###
fiducial parameters:
Omega_m = 0.31
Omega_nu = 0
Omega_de = 0.69
Omega_k = 0
H_0 = 100
w_de = -1
zeff = 0
beta = 0
fgrowth = 0
b_1 = 2
gamma = 0.55
Lx = 3500 Ly = 3500 Lz = 3500
nx = 700 ny = 700 nz = 700
xoffset = -685.467585 yoffset = -31.7331281 zoffset = 572.489161
bins = 400 dk = 0.001
kx_ny = 0.628318531 ky_ny = 0.628318531 kz_ny = 0.628318531
############################
A(data) = 8.02733501 (not used)
A(ran) = 8.02712577 (used)
Ngal = 477118
weighted Ngal = 0
Nran = 23820508
weighted Nran = 0
SN(data) = 3486.64363
SN(ran) = 69.9191767
SN(data+ran) = 3556.56281
############################
13 columns: k_central k_mean P_0(k) sigma^{lin}_{P_0(k)} P^img_1(k) sigma^{lin}_{P_1(k)} P_2(k) sigma^{lin}_{P_2(k)} P^img_3(k) sigma^{lin}_{P_3(k)} P_4(k) sigma^{lin}_{P_4(k)} N_modes
### header ###
0.00050000 0 0 0 0 0 0 0 0 0 0 0 0
0.00150000 0.00179520 86246.87766561 0 -80339.79237486 0 15724.47281445 0 69630.86125677 0 -163156.24236516 0 3
0.00250000 0.00253879 149900.45509228 0 -72582.85377666 0 10099.24462428 0 -48799.50006621 0 88818.42510474 0 6
0.00350000 0.00331552 139649.69677518 0 7978.06399715 0 28708.65595953 0 -130908.09633086 0 98673.34780958 0 7
0.00450000 0.00420575 116752.12905022 0 63052.35018902 0 2119.78551421 0 -58967.10522393 0 78598.55857388 0 24
0.00550000 0.00557378 59477.98229106 0 20574.81542450 0 14004.49787712 0 2999.35992547 0 24481.35306702 0 45
0.00650000 0.00659388 51108.74413039 0 870.68997783 0 33773.13733158 0 15051.71835847 0 12105.37272423 0 40
0.00750000 0.00754703 51058.03288272 0 1029.51583396 0 31391.59098634 0 28273.51359416 0 -15724.36209120 0 57
0.00850000 0.00846663 41030.04974097 0 8853.94025193 0 15594.70516757 0 32073.64619517 0 20492.76949760 0 75
0.00950000 0.00948925 49564.48698793 0 -9545.36264756 0 11242.06355812 0 12865.26637653 0 5135.96430108 0 112
0.01050000 0.01054430 50651.34639213 0 -9100.48770867 0 -3984.52002621 0 13385.88708950 0 3306.48407129 0 105
0.01150000 0.01145670 63124.43102358 0 -4370.95523471 0 8705.39394216 0 -30365.62936864 0 -2617.75225060 0 144
0.01250000 0.01249090 69284.18676669 0 -8226.01763914 0 6817.34111409 0 -16748.44141368 0 867.65837530 0 169
0.01350000 0.01339930 76825.87937042 0 -1849.12253401 0 29205.24972765 0 -20760.05541872 0 5734.00270918 0 180
0.01450000 0.01448870 79014.76726382 0 4307.74333232 0 19489.94903877 0 -5364.64102556 0 -12567.53156216 0 267
0.01550000 0.01550050 84629.87534910 0 -9785.43279427 0 35934.01224319 0 -6961.44742160 0 -9585.94271802 0 238
0.01650000 0.01653350 89870.18523927 0 -2212.72660873 0 41220.60445110 0 -8353.89191847 0 -32467.26734247 0 315
0.01750000 0.01747870 89894.32290737 0 16392.46617076 0 52500.31391360 0 -7770.91187212 0 -16976.53130494 0 297
0.01850000 0.01844180 76008.63107555 0 13447.00632250 0 43908.07913108 0 4777.69708692 0 -13959.76568485 0 388
0.01950000 0.01947590 67789.42291618 0 -1233.02516413 0 44566.55028804 0 16569.40192136 0 -5806.30499025 0 399
0.02050000 0.02045430 73818.08233343 0 -7802.30191298 0 39509.70882012 0 28698.02652770 0 -17786.58258867 0 462
0.02150000 0.02154770 75395.88862009 0 1207.51452775 0 28523.41596531 0 12370.55490363 0 -21944.01911158 0 571
0.02250000 0.02255340 72677.85432361 0 2901.74630987 0 17446.77293999 0 -3830.36004776 0 -2267.73391843 0 510
0.02350000 0.02348930 69957.82700866 0 3436.21850119 0 19760.66738059 0 -2281.96185582 0 8959.52594140 0 555
0.02450000 0.02439640 69073.03753240 0 -1199.28779041 0 19824.44397155 0 9666.57138735 0 18305.09955993 0 592
0.02550000 0.02547300 69945.97962110 0 -3293.46301731 0 18881.52478999 0 9661.61098583 0 -7166.11934588 0 837
0.02650000 0.02652900 69609.27022337 0 2685.01662387 0 10795.95959117 0 8059.51201852 0 1279.62857929 0 723
0.02750000 0.02749970 69629.20040804 0 2458.63187063 0 13508.56844849 0 -8138.90058747 0 -11610.88269783 0 826
0.02850000 0.02848090 63768.84032803 0 2650.95815273 0 13676.97850898 0 -14436.31854505 0 -5040.47657184 0 831
0.02950000 0.02946900 64504.48558898 0 3981.90695756 0 19952.99366269 0 -12134.60366175 0 -12152.20865821 0 996
0.03050000 0.03053250 58901.88923075 0 6275.15151237 0 25186.32798822 0 -10586.05045726 0 -12826.62396291 0 1041
0.03150000 0.03150510 57141.94320082 0 6162.09200365 0 31190.62829088 0 -3108.27838471 0 -5832.21423032 0 1036
0.03250000 0.03246190 53992.75257590 0 2603.49109623 0 29379.41739704 0 10154.86091185 0 -4849.92186171 0 1059
0.03350000 0.03345080 54476.83461697 0 154.74348997 0 32480.00051601 0 10138.78389621 0 -2110.25224254 0 1302
0.03450000 0.03451200 51405.59315878 0 290.74707018 0 28574.79155247 0 14088.97971549 0 2336.20517511 0 1339
0.03550000 0.03553350 54082.77057668 0 -636.92994903 0 27464.12664991 0 10631.82344806 0 8654.49446497 0 1365
0.03650000 0.03647120 50032.62488127 0 1343.50482117 0 24779.19860464 0 4399.26716927 0 14257.27905273 0 1308
0.03750000 0.03744890 52918.51562200 0 2830.54018896 0 20637.59550623 0 2779.62963945 0 8031.56547068 0 1579
0.03850000 0.03847530 48285.19057839 0 2002.61817297 0 21028.78074207 0 -103.58204157 0 8102.26226464 0 1662
0.03950000 0.03950240 43958.34748576 0 4026.40663100 0 18737.69529060 0 -3478.88016872 0 2412.96960308 0 1683
0.04050000 0.04050350 42810.59029506 0 2193.72649934 0 18492.77546561 0 436.80653579 0 1105.44430141 0 1822
0.04150000 0.04152450 41737.57129688 0 173.48450696 0 17356.31204622 0 589.44517681 0 -2820.34257781 0 1887
0.04250000 0.04250150 40942.24620516 0 514.54311388 0 16271.33493724 0 1688.72883669 0 -5012.40822843 0 1920
0.04350000 0.04349210 40297.72617746 0 173.62623271 0 17716.16260283 0 798.20389618 0 -4345.67711715 0 2005
0.04450000 0.04448520 39975.96441823 0 1354.05674672 0 17861.09933470 0 592.88756260 0 -2735.38462947 0 2151
0.04550000 0.04548030 40986.53550443 0 539.58871262 0 20506.05628738 0 224.74051301 0 -1803.72600226 0 2274
0.04650000 0.04648670 39783.74885938 0 -514.23862495 0 21424.06273810 0 -273.02138538 0 -4555.08799644 0 2311
0.04750000 0.04749250 39762.15782599 0 778.95244501 0 19172.94837922 0 1116.43358379 0 620.24063383 0 2568
0.04850000 0.04851840 39938.87213009 0 109.32082752 0 18345.29209902 0 2876.85572368 0 -474.39154239 0 2493
0.04950000 0.04949480 37908.20775835 0 586.87196853 0 14767.38105712 0 2996.23752987 0 -37.95781177 0 2644
0.05050000 0.05050630 39676.67947839 0 1548.53105984 0 15566.02784629 0 4981.61609311 0 -788.34066923 0 2829
0.05150000 0.05149060 36822.34486339 0 1436.91095334 0 13900.19657733 0 879.27545850 0 -1778.32608912 0 2784
0.05250000 0.05249300 35937.11249414 0 1730.44935661 0 14501.86670797 0 -260.77096520 0 -769.72809121 0 3055
0.05350000 0.05348950 34447.88480603 0 969.49165389 0 16160.39024256 0 -331.91951002 0 3263.76704214 0 3009
0.05450000 0.05448610 35066.60631689 0 -1030.88548054 0 15975.48241809 0 972.56533126 0 1817.06815366 0 3336
0.05550000 0.05550870 33919.95635867 0 -530.17834376 0 14849.75915378 0 3896.12965719 0 1535.64287375 0 3349
0.05650000 0.05647670 36148.04028193 0 606.81876169 0 13587.18195471 0 2637.51635040 0 -1158.59699670 0 3324
0.05750000 0.05747970 34994.74692882 0 -440.44158003 0 12212.22065873 0 2218.20740952 0 1218.53149094 0 3639
0.05850000 0.05849280 34696.34777496 0 119.13932228 0 8980.81802203 0 1538.39988263 0 -2822.64562137 0 3846
0.05950000 0.05951020 35644.80311892 0 735.46588929 0 10015.38283611 0 -77.18794439 0 -1124.59388718 0 3787
0.06050000 0.06049470 34121.91556337 0 1626.03733357 0 7060.03540179 0 -995.65887913 0 -7013.03338293 0 3930
0.06150000 0.06148310 32677.08789778 0 1599.56340493 0 10994.47530285 0 -2807.19972825 0 -4215.83196400 0 4083
0.06250000 0.06249100 31504.97159248 0 2104.39498271 0 11465.83524270 0 -1127.77164440 0 -6533.16989762 0 4303
0.06350000 0.06350600 29348.30416430 0 935.99676408 0 11487.20482960 0 -1004.01405544 0 -5670.17075660 0 4470
0.06450000 0.06451750 29118.55342432 0 119.14042951 0 10548.24954033 0 974.99017039 0 -5494.47510638 0 4479
0.06550000 0.06550280 29639.17413729 0 122.50088010 0 12574.83929654 0 559.24651810 0 -3894.96706308 0 4636
0.06650000 0.06648880 29983.74488565 0 -1246.35624321 0 10644.42375370 0 2321.98831004 0 -3960.47093671 0 4653
0.06750000 0.06749660 30543.45090523 0 -516.78193796 0 11773.75659591 0 168.60493341 0 -3872.11378465 0 5220
0.06850000 0.06852730 30932.08950636 0 745.44205395 0 11239.07403042 0 -1331.48027642 0 -4381.93898093 0 5029
0.06950000 0.06949320 30121.81677613 0 1298.86120750 0 13337.39030680 0 -1439.20292458 0 -3764.78974019 0 5040
0.07050000 0.07048030 29553.03145020 0 1059.14869687 0 12704.16405042 0 -715.65417849 0 -1518.87937397 0 5475
0.07150000 0.07148790 28516.77257042 0 631.05608071 0 13407.69956940 0 -106.18215561 0 -3296.40825571 0 5509
0.07250000 0.07249820 28491.19550009 0 514.87196193 0 13321.11398931 0 1934.43479674 0 -3124.17824315 0 5916
0.07350000 0.07351270 27707.49634943 0 63.25419867 0 12615.14255888 0 2066.95945250 0 -365.16527252 0 5721
0.07450000 0.07449140 27458.14759451 0 315.88235475 0 11618.96549494 0 3118.85245492 0 91.51420403 0 6028
0.07550000 0.07549160 27019.01919221 0 533.27195131 0 10470.74326660 0 3478.01652738 0 -390.24076654 0 6183
0.07650000 0.07648840 26359.66224925 0 758.70559185 0 9502.59025678 0 2435.69001361 0 1542.03160517 0 6330
0.07750000 0.07749960 25911.67598709 0 274.11754554 0 9132.86318644 0 973.97705267 0 2011.70855165 0 6583
0.07850000 0.07848650 25619.80950487 0 -106.78803322 0 8635.58293418 0 -92.97730103 0 2195.67522851 0 6549
0.07950000 0.07947320 25532.11669231 0 -56.96290371 0 8800.73773118 0 -285.85531708 0 2319.29773511 0 6828
0.08050000 0.08048110 26230.22677212 0 341.53693136 0 8280.08380123 0 -20.64545686 0 1363.12498075 0 7147
0.08150000 0.08149960 25185.88509523 0 421.91647338 0 7823.88187405 0 265.49441897 0 882.14983402 0 7386
0.08250000 0.08250610 25185.33147899 0 459.40625798 0 7513.48032009 0 402.83332155 0 -102.55342260 0 7227
0.08350000 0.08350160 24766.90832409 0 730.02827057 0 7234.77883208 0 -152.01194744 0 -677.25092709 0 7798
0.08450000 0.08449610 23683.59206384 0 1014.09429996 0 7703.06066563 0 660.47856945 0 -498.98981921 0 7371
0.08550000 0.08548940 23404.23730866 0 641.74308863 0 7946.21999097 0 162.25052619 0 228.24711828 0 8256
0.08650000 0.08650700 22614.11620960 0 333.23158051 0 7879.19920885 0 -312.46764978 0 -729.58648481 0 8037
0.08750000 0.08749060 22657.29827640 0 343.69935639 0 8290.59143748 0 19.01959668 0 -98.29755311 0 8155
0.08850000 0.08849210 22030.71541491 0 613.61606189 0 8678.02315521 0 -350.90411815 0 -694.38092082 0 8718
0.08950000 0.08949900 21895.96522187 0 295.76947672 0 8790.17473330 0 -627.75763515 0 -357.64827120 0 8571
0.09050000 0.09049190 21608.63839282 0 266.71458916 0 8478.71023615 0 289.08954316 0 -1102.72826013 0 8932
0.09150000 0.09150830 21312.34298067 0 405.65565715 0 8242.69256032 0 311.56414807 0 -1733.30601641 0 9285
0.09250000 0.09250820 20796.04047438 0 388.18131412 0 7480.31870725 0 1279.36284350 0 -1584.92579152 0 9204
0.09350000 0.09350330 20417.80985858 0 630.42495820 0 7826.84925710 0 592.37823566 0 -911.83805856 0 9349
0.09450000 0.09448040 20171.56135461 0 503.82621069 0 7452.61575056 0 489.30817839 0 -89.96197481 0 9564
0.09550000 0.09549270 19469.68668436 0 447.59540910 0 7894.34614920 0 317.94955779 0 238.63628065 0 10155
0.09650000 0.09649430 18985.82608978 0 965.65620057 0 8192.21383147 0 -125.50148012 0 1252.15814142 0 9913
0.09750000 0.09749140 18771.79805104 0 623.60108441 0 8893.86705523 0 215.57262806 0 1089.41268230 0 10476
0.09850000 0.09850240 17828.98959273 0 486.60210220 0 8419.04147770 0 269.04309907 0 2000.24869546 0 10575
0.09950000 0.09950330 17784.92173995 0 96.20001189 0 8300.18007078 0 1088.55679159 0 1939.86023590 0 10882
0.10050000 0.10051200 17500.36299211 0 15.57798596 0 7231.53464090 0 2006.21667854 0 2116.56346768 0 10875
0.10150000 0.10150300 17389.75046717 0 -61.93039152 0 6528.64131677 0 1879.90359701 0 1594.78016060 0 11118
0.10250000 0.10250800 17275.04118205 0 143.45082589 0 6013.95536990 0 689.10163634 0 1182.42463971 0 11575
0.10350000 0.10349800 16745.45188598 0 623.47485991 0 6063.74761461 0 -74.71073316 0 2019.31523880 0 11364
0.10450000 0.10450100 16579.58846019 0 658.12680766 0 5941.16590654 0 -920.30395811 0 1496.90080921 0 12093
0.10550000 0.10551000 16136.25257445 0 450.06675200 0 6442.24396621 0 -892.99074725 0 1496.66829039 0 12067
0.10650000 0.10649700 15884.68935457 0 96.75661766 0 6190.68074633 0 -831.58141934 0 1226.13817809 0 12054
0.10750000 0.10749900 15847.81851293 0 -42.47233077 0 7055.34073607 0 407.50252093 0 918.04963278 0 12807
0.10850000 0.10850100 15826.44892603 0 128.98040458 0 6012.88135439 0 836.73005038 0 28.58508881 0 12736
0.10950000 0.10950300 15544.32608965 0 269.18261036 0 5789.34218863 0 923.17722640 0 135.04028795 0 12933
0.11050000 0.11050200 15537.57197151 0 231.33851137 0 5509.01306887 0 347.75957790 0 -955.04337723 0 13428
0.11150000 0.11150900 15124.35280928 0 256.67641948 0 5408.13311745 0 44.75345113 0 -407.32757820 0 13453
0.11250000 0.11250000 15049.94678650 0 10.15791687 0 5185.14756792 0 -302.54020334 0 -19.97657771 0 13668
0.11350000 0.11349100 15157.68050698 0 59.77715651 0 5587.33869463 0 535.18967797 0 677.92744614 0 13791
0.11450000 0.11448600 14960.59312521 0 70.78681197 0 5111.14014883 0 454.71269949 0 1220.84560683 0 14205
0.11550000 0.11549300 15005.43604073 0 327.95672497 0 5578.90158312 0 1521.40386403 0 1083.83001613 0 14776
0.11650000 0.11649800 14551.69216966 0 178.63978139 0 5280.18133184 0 633.21961298 0 1626.73489003 0 14553
0.11750000 0.11747300 14330.91001277 0 254.42541585 0 5009.37441143 0 677.37825883 0 1625.42835570 0 14568
0.11850000 0.11849100 14284.95986478 0 213.46556464 0 4990.76183341 0 116.96803938 0 1964.45186932 0 16015
0.11950000 0.11950300 14132.71539852 0 113.90875604 0 5094.62024021 0 -581.10771622 0 2437.25121141 0 15270
0.12050000 0.12050700 14026.86397325 0 170.28349785 0 5216.02828184 0 -308.41850059 0 2865.01940845 0 15999
0.12150000 0.12150000 14232.80921488 0 123.36452143 0 5471.12357334 0 -22.12925911 0 2204.72131789 0 15670
0.12250000 0.12250700 13974.71332336 0 204.18031305 0 4890.85624657 0 238.64846021 0 1919.39857964 0 16887
0.12350000 0.12352200 13810.17857655 0 257.45369668 0 5397.94657861 0 13.69402989 0 1517.46211640 0 16407
0.12450000 0.12449800 13515.43328988 0 467.06277059 0 5252.72196629 0 56.88362586 0 1155.46352877 0 16306
0.12550000 0.12549900 13263.64862350 0 242.24253685 0 5248.73592936 0 -377.24960783 0 1010.94643801 0 17523
0.12650000 0.12650100 13025.70436315 0 139.93536276 0 5108.80388830 0 -4.30793156 0 868.65820623 0 17154
0.12750000 0.12750600 13158.90443072 0 -69.42657686 0 5043.69861836 0 443.61601556 0 798.36998105 0 18007
0.12850000 0.12850300 13075.30837834 0 37.63383555 0 5301.91630546 0 518.45607347 0 1001.85273764 0 17496
0.12950000 0.12949900 12954.73076106 0 300.03564347 0 4988.86846586 0 429.18988355 0 593.35592194 0 18405
0.13050000 0.13049000 12834.92820653 0 296.29762661 0 4891.78632185 0 156.21500194 0 1424.65388977 0 18100
0.13150000 0.13148800 12584.91511212 0 264.57984494 0 4983.27694183 0 367.39856043 0 1792.02255492 0 19059
0.13250000 0.13249300 12516.04525175 0 -71.36534094 0 4924.49396937 0 288.51821119 0 2047.10677410 0 18957
0.13350000 0.13349100 12619.01787256 0 -118.74182582 0 4820.13730795 0 170.57027106 0 1541.93195424 0 19468
0.13450000 0.13450700 12667.95754826 0 98.77410597 0 4885.91798970 0 -39.06969463 0 1366.30273797 0 19953
0.13550000 0.13551000 12532.21084598 0 264.41265283 0 4902.05036696 0 -193.16667155 0 1569.19201795 0 19956
0.13650000 0.13649900 12254.95983253 0 325.82087351 0 4867.21683308 0 117.67334648 0 1025.46779201 0 19723
0.13750000 0.13749600 12134.27149200 0 208.94805612 0 4413.91585500 0 343.30850333 0 1236.10327043 0 20946
0.13850000 0.13851100 11936.07687775 0 92.73149542 0 4209.95255952 0 550.09634887 0 685.59060214 0 20955
0.13950000 0.13949800 11850.59853015 0 40.93582426 0 3616.06627322 0 561.96034492 0 362.63081737 0 20506
0.14050000 0.14048300 11613.42933253 0 50.76539134 0 3463.29033537 0 547.54749970 0 359.13528442 0 21447
0.14150000 0.14148400 11493.73750124 0 236.46056883 0 2894.36106922 0 385.40548229 0 -90.13625320 0 21771
0.14250000 0.14249400 11205.63560946 0 196.83936170 0 2589.80570276 0 -18.81664097 0 -230.45715431 0 22470
0.14350000 0.14350900 11160.46052420 0 132.52576299 0 2349.41445862 0 -32.03522523 0 -268.34332814 0 22519
0.14450000 0.14449900 10835.58744170 0 139.03075382 0 2392.89547818 0 -24.27286119 0 -599.20210944 0 22218
0.14550000 0.14550500 10897.55924371 0 132.94429687 0 2521.83270069 0 -197.53802539 0 -868.47329841 0 23559
0.14650000 0.14650700 10786.61454903 0 154.03375395 0 2705.41184619 0 -322.95424861 0 -691.01825577 0 23044
0.14750000 0.14750500 10562.07887403 0 278.78231598 0 2934.06642602 0 -124.35660174 0 -715.00201856 0 23649
0.14850000 0.14849900 10512.33091862 0 167.87083827 0 3174.73447828 0 3.87725134 0 -242.49720032 0 23640
0.14950000 0.14949500 10398.75101063 0 129.93151728 0 3219.84312959 0 210.25459045 0 -230.08512420 0 24457
0.15050000 0.15050000 10337.31068021 0 0.73498756 0 3339.40209298 0 367.69419151 0 347.50159274 0 24591
0.15150000 0.15149900 10268.61797704 0 42.30181697 0 3404.33020572 0 275.46172577 0 392.54491733 0 25020
0.15250000 0.15250500 10371.52416390 0 244.98847340 0 3423.49639998 0 269.86355834 0 598.83229379 0 25297
0.15350000 0.15350100 10018.08448336 0 354.50262372 0 3370.84749546 0 -15.00908991 0 786.17935142 0 25452
0.15450000 0.15450400 9842.30025454 0 218.78913842 0 3286.25493385 0 31.78443707 0 1276.81620879 0 26061
0.15550000 0.15549900 9668.75263534 0 69.10536872 0 3445.08743337 0 145.00759475 0 933.18660804 0 26128
0.15650000 0.15649500 9520.52742299 0 70.05792083 0 3269.98968869 0 154.98265218 0 729.50787130 0 26331
0.15750000 0.15749700 9548.48504316 0 44.99427420 0 3117.25804014 0 282.07079645 0 308.70527380 0 27345
0.15850000 0.15849900 9466.49447787 0 105.15719050 0 2851.89870354 0 -0.79914615 0 484.43524823 0 26980
0.15950000 0.15949700 9395.50980346 0 90.41594013 0 2940.39979581 0 99.38618408 0 414.29871390 0 27777
0.16050000 0.16050000 9334.81131881 0 90.00648556 0 2721.48886182 0 -27.57750726 0 213.91067210 0 28224
0.16150000 0.16150500 9292.09428965 0 59.27502658 0 2572.74325021 0 3.76321747 0 -213.76894634 0 28075
0.16250000 0.16249700 9285.32909919 0 140.98391192 0 2883.84236064 0 -35.70315427 0 282.86357491 0 28590
0.16350000 0.16349900 9161.06439775 0 101.56765352 0 2705.72187128 0 87.55396561 0 315.39738692 0 29163
0.16450000 0.16449100 9139.03047136 0 149.36123287 0 2954.09626161 0 99.51960560 0 367.51371261 0 28996
0.16550000 0.16550500 8945.20942541 0 163.30128982 0 2731.23250767 0 524.29340312 0 609.02658325 0 30777
0.16650000 0.16650700 8847.59580981 0 67.97887039 0 2655.12134686 0 353.47068305 0 445.32779697 0 29211
0.16750000 0.16749900 8837.63071747 0 158.40067886 0 2675.67158173 0 22.79337715 0 652.72904931 0 30922
0.16850000 0.16850800 8661.32608939 0 178.40947704 0 2896.16585816 0 82.74824447 0 1003.82804038 0 30867
0.16950000 0.16949900 8592.96555596 0 184.43392897 0 2653.21690699 0 -45.16179847 0 838.41415099 0 30852
0.17050000 0.17049200 8394.25054244 0 155.04797890 0 2772.18903717 0 -14.42269959 0 1042.78933696 0 31257
0.17150000 0.17149500 8341.91166302 0 208.58156217 0 2710.41653701 0 76.64861145 0 721.46493456 0 32608
0.17250000 0.17250900 8016.19708383 0 181.74889020 0 2539.99131340 0 -146.04285713 0 491.15061324 0 32361
0.17350000 0.17350400 8083.22893828 0 119.39066405 0 2732.51689734 0 74.38664621 0 655.23028749 0 32508
0.17450000 0.17449800 7905.79493306 0 53.56536084 0 2667.20125324 0 -23.97224757 0 403.60616982 0 32791
0.17550000 0.17549800 7859.72298949 0 105.92727069 0 2681.80564967 0 271.93186862 0 387.77385257 0 33633
0.17650000 0.17650100 7757.42578049 0 10.40098762 0 2289.36924113 0 333.89481277 0 310.78244194 0 33984
0.17750000 0.17750300 7717.88650856 0 12.73029474 0 2272.07426976 0 697.18000453 0 483.78419553 0 34069
0.17850000 0.17849800 7688.65557104 0 27.10748707 0 1789.64200509 0 189.47183676 0 195.72437859 0 34536
