### header ###
fiducial parameters:
Omega_m = 0.31
Omega_nu = 0
Omega_de = 0.69
Omega_k = 0
H_0 = 100
w_de = -1
zeff = 0
beta = 0
fgrowth = 0
b_1 = 2
gamma = 0.55
Lx = 3500 Ly = 3500 Lz = 3500
nx = 700 ny = 700 nz = 700
xoffset = -685.467585 yoffset = -31.7331281 zoffset = 572.489161
bins = 400 dk = 0.001
kx_ny = 0.628318531 ky_ny = 0.628318531 kz_ny = 0.628318531
############################
A(data) = 8.07088294 (not used)
A(ran) = 8.06760972 (used)
Ngal = 479489
weighted Ngal = 0
Nran = 23820508
weighted Nran = 0
SN(data) = 3489.9815
SN(ran) = 70.2718065
SN(data+ran) = 3560.2533
############################
13 columns: k_central k_mean P_0(k) sigma^{lin}_{P_0(k)} P^img_1(k) sigma^{lin}_{P_1(k)} P_2(k) sigma^{lin}_{P_2(k)} P^img_3(k) sigma^{lin}_{P_3(k)} P_4(k) sigma^{lin}_{P_4(k)} N_modes
### header ###
0.00050000 0 0 0 0 0 0 0 0 0 0 0 0
0.00150000 0.00179520 53019.38450110 0 -40272.25983038 0 66865.65885656 0 -61691.78291530 0 -84541.07530405 0 3
0.00250000 0.00253879 92844.32240880 0 -34455.85687990 0 20506.94207337 0 -43093.48819417 0 27879.33883061 0 6
0.00350000 0.00331552 82808.14574668 0 6853.45903765 0 -5722.37676812 0 29192.29510761 0 79584.43837574 0 7
0.00450000 0.00420575 69934.68584979 0 31575.05940858 0 -1056.43044113 0 -23733.74969526 0 31499.43543007 0 24
0.00550000 0.00557378 71069.04552746 0 -15970.16770217 0 20653.76110046 0 -3701.85464592 0 -35691.08543667 0 45
0.00650000 0.00659388 66213.38820149 0 -19448.64926720 0 27129.52099390 0 6131.02306020 0 9678.06446051 0 40
0.00750000 0.00754703 75719.20050479 0 13590.72509865 0 28863.55778374 0 -7221.65812717 0 -50127.95759795 0 57
0.00850000 0.00846663 75425.45172736 0 6892.77686308 0 8733.60622580 0 2060.62608270 0 -10292.30167982 0 75
0.00950000 0.00948925 71994.24898931 0 -11326.76684298 0 10092.72302497 0 -15085.04605617 0 -45428.86294492 0 112
0.01050000 0.01054430 79363.21332586 0 10.49802547 0 2380.83771645 0 -2691.81503131 0 -26332.42433020 0 105
0.01150000 0.01145670 83898.65901807 0 1020.29590909 0 13664.90967493 0 -21226.64318658 0 -62720.29116770 0 144
0.01250000 0.01249090 68840.07581822 0 9521.28034108 0 3688.81144728 0 -13096.89941174 0 -8898.06346633 0 169
0.01350000 0.01339930 79526.97300993 0 -2335.86193304 0 17103.53087061 0 -20183.40874217 0 -47334.63149271 0 180
0.01450000 0.01448870 73589.21737943 0 -791.37116453 0 14615.24731412 0 -1147.34751468 0 -23579.84438029 0 267
0.01550000 0.01550050 80040.72888151 0 5055.56815057 0 20403.63728281 0 912.06171952 0 -18981.50788310 0 238
0.01650000 0.01653350 68336.17431572 0 3047.01521149 0 10305.72133750 0 2121.06990388 0 -15889.56117749 0 315
0.01750000 0.01747870 68665.46525583 0 2183.76140701 0 17685.93515607 0 8800.82630978 0 -20586.77353531 0 297
0.01850000 0.01844180 70807.07432225 0 -2663.66918162 0 9925.53092020 0 7057.18981431 0 -29085.11500336 0 388
0.01950000 0.01947590 66808.52566049 0 1626.91204723 0 7600.27627434 0 -1806.25049232 0 -11893.44842720 0 399
0.02050000 0.02045430 67016.79609033 0 1048.12398305 0 1961.07481025 0 -6586.49421394 0 -10615.87930032 0 462
0.02150000 0.02154770 69052.99662448 0 -2202.13039388 0 5563.12352026 0 2219.40322060 0 -4711.27421033 0 571
0.02250000 0.02255340 70146.49942357 0 -1097.89740481 0 -3521.54183625 0 1673.05042475 0 -13850.81400864 0 510
0.02350000 0.02348930 68076.63902197 0 2435.32462689 0 2260.52583497 0 -4858.84615552 0 -10490.31913688 0 555
0.02450000 0.02439640 68051.61556788 0 7447.59998742 0 5503.26653229 0 -9649.85217687 0 -9399.57334667 0 592
0.02550000 0.02547300 63733.85178160 0 1472.61920088 0 11126.02559402 0 -10477.98456703 0 -16809.56064668 0 837
0.02650000 0.02652900 61888.98102032 0 4717.80688198 0 13266.19525821 0 -10195.23060814 0 -8703.53379159 0 723
0.02750000 0.02749970 59834.84331996 0 2022.90267204 0 19726.56462015 0 -7654.58602758 0 -19110.38974399 0 826
0.02850000 0.02848090 60895.01842135 0 1154.88776788 0 19259.09106631 0 1503.44455318 0 -18194.59775824 0 831
0.02950000 0.02946900 59778.70663313 0 -839.04195180 0 21154.00873577 0 -1116.81004283 0 -25864.28643687 0 996
0.03050000 0.03053250 58367.09594200 0 2810.72072754 0 21062.66205601 0 5600.20473607 0 -24090.72144742 0 1041
0.03150000 0.03150510 55122.01898416 0 2298.65892165 0 16051.21711985 0 2332.15270423 0 -13477.34449250 0 1036
0.03250000 0.03246190 53635.33793076 0 1553.71290785 0 13568.24827927 0 6465.69515017 0 -17367.71654078 0 1059
0.03350000 0.03345080 54142.33968420 0 -2370.05327208 0 13056.81759589 0 4835.43926085 0 -7619.73034905 0 1302
0.03450000 0.03451200 54688.09457451 0 -206.27851860 0 11670.34108210 0 5039.79008770 0 -7820.36087476 0 1339
0.03550000 0.03553350 55076.29028266 0 1743.54791687 0 14794.28680643 0 -2507.77084818 0 2874.45302919 0 1365
0.03650000 0.03647120 52147.43892163 0 4190.76422061 0 15065.55876449 0 749.06159693 0 768.49684869 0 1308
0.03750000 0.03744890 50894.60536840 0 4346.88400055 0 18816.75168980 0 2561.16159845 0 3920.51091644 0 1579
0.03850000 0.03847530 47133.22590425 0 1300.56634552 0 20368.98090613 0 866.35626990 0 11356.77284324 0 1662
0.03950000 0.03950240 46864.05768791 0 1096.62962362 0 20505.05977815 0 5003.19605418 0 13017.84301253 0 1683
0.04050000 0.04050350 46784.55839572 0 -1482.88324599 0 19595.80046404 0 4669.71977529 0 9389.07678274 0 1822
0.04150000 0.04152450 47896.10908426 0 238.79572213 0 17587.05929544 0 1425.01927648 0 4405.08013980 0 1887
0.04250000 0.04250150 45739.10948634 0 2295.19328398 0 18299.23122778 0 -543.71647531 0 9042.20299082 0 1920
0.04350000 0.04349210 45034.13456514 0 2936.18124006 0 16005.26697185 0 -2991.55393648 0 -400.74729556 0 2005
0.04450000 0.04448520 43170.33012841 0 1083.67057465 0 17529.48320638 0 -1962.23740436 0 1306.11358026 0 2151
0.04550000 0.04548030 42184.33960331 0 -338.12997701 0 16686.87928769 0 1281.88733355 0 -1466.20832481 0 2274
0.04650000 0.04648670 43140.87774440 0 160.56310389 0 17235.51298245 0 1386.58723704 0 -2129.21913495 0 2311
0.04750000 0.04749250 42543.74726693 0 -682.68190241 0 15334.28408784 0 4965.83803024 0 -1721.58042443 0 2568
0.04850000 0.04851840 43026.50062902 0 1071.14334635 0 13542.22831594 0 2878.76016355 0 -1345.13245292 0 2493
0.04950000 0.04949480 41751.19025641 0 1808.40959566 0 14670.94110795 0 1289.22828491 0 -4064.13004166 0 2644
0.05050000 0.05050630 39062.16545095 0 2177.42803721 0 12470.20582700 0 3235.77620500 0 -1483.39257293 0 2829
0.05150000 0.05149060 37937.21724938 0 1844.74896571 0 10461.58645397 0 -1170.80977097 0 554.52417157 0 2784
0.05250000 0.05249300 36084.15296773 0 -552.18791103 0 10095.54646779 0 2578.40120819 0 -1756.34752436 0 3055
0.05350000 0.05348950 36976.25017837 0 -497.30571860 0 10601.97246035 0 3447.04723487 0 -2717.36995699 0 3009
0.05450000 0.05448610 35638.49189378 0 90.18397492 0 7358.43455565 0 2099.17991772 0 -4617.49161912 0 3336
0.05550000 0.05550870 36786.58125422 0 744.14437748 0 7771.34369279 0 787.89999070 0 -2510.16247034 0 3349
0.05650000 0.05647670 35654.87893451 0 1292.84893512 0 7613.90630619 0 -2748.28388789 0 -2845.73141861 0 3324
0.05750000 0.05747970 34832.98026322 0 1286.19446791 0 9766.46590186 0 -1981.61397279 0 -197.16820974 0 3639
0.05850000 0.05849280 34446.33468055 0 1336.03100192 0 10976.21703922 0 -2170.48568955 0 -1084.49657008 0 3846
0.05950000 0.05951020 33579.15020076 0 598.24103165 0 12514.38440303 0 -720.84156267 0 -2883.99737319 0 3787
0.06050000 0.06049470 33908.55186411 0 -27.02710199 0 12541.73304533 0 714.42072151 0 -3567.71343074 0 3930
0.06150000 0.06148310 33543.71876134 0 -451.90586515 0 10513.38278948 0 940.49212796 0 -2828.65789374 0 4083
0.06250000 0.06249100 34176.94501772 0 -413.89900298 0 10394.68746742 0 511.88354146 0 -4777.12132603 0 4303
0.06350000 0.06350600 34182.14901038 0 -6.35601270 0 10929.11536944 0 806.17707728 0 -4697.63310616 0 4470
0.06450000 0.06451750 33737.92733866 0 564.72067549 0 9014.93185479 0 1009.41513549 0 -4062.29203574 0 4479
0.06550000 0.06550280 32606.22501894 0 2185.41118341 0 9670.21418221 0 -1656.82946889 0 -4984.27345106 0 4636
0.06650000 0.06648880 31589.01053785 0 1473.08423852 0 10601.81744780 0 -1084.68590684 0 -3944.37177642 0 4653
0.06750000 0.06749660 30385.22738357 0 1215.76340974 0 11961.43250158 0 -1454.37200958 0 -3383.15992066 0 5220
0.06850000 0.06852730 29575.61899283 0 1212.47492927 0 12108.36225193 0 -1849.05610006 0 -3814.34946607 0 5029
0.06950000 0.06949320 28581.98856361 0 -157.79280822 0 11373.49205371 0 1517.81643079 0 -3252.15217341 0 5040
0.07050000 0.07048030 29809.68793950 0 -1212.51921857 0 11372.71699098 0 2099.29064097 0 -3850.07985826 0 5475
0.07150000 0.07148790 30740.31684050 0 -396.69703914 0 11352.01174357 0 1474.08074776 0 -6146.91184632 0 5509
0.07250000 0.07249820 30703.44599886 0 413.80599545 0 10722.22898021 0 1124.43887463 0 -4087.30441750 0 5916
0.07350000 0.07351270 30584.63995355 0 626.68472688 0 10287.18626576 0 -307.37216590 0 -1874.38957925 0 5721
0.07450000 0.07449140 29485.15809906 0 1155.82891549 0 10843.03911630 0 -890.49061631 0 -2443.08632658 0 6028
0.07550000 0.07549160 29748.56870650 0 1157.29046237 0 11632.69517772 0 -8.75137731 0 -2543.58981896 0 6183
0.07650000 0.07648840 28049.96335607 0 891.93887639 0 13533.48117934 0 -470.69560037 0 83.83355375 0 6330
0.07750000 0.07749960 27827.18818072 0 526.69499037 0 12337.67009892 0 2460.51416585 0 139.71613072 0 6583
0.07850000 0.07848650 26962.66105888 0 -57.58195739 0 11763.01644083 0 3087.82780077 0 2033.76462269 0 6549
0.07950000 0.07947320 27087.77832933 0 706.51508159 0 10317.28084461 0 2707.37164768 0 -329.61093029 0 6828
0.08050000 0.08048110 25936.14582494 0 373.06980521 0 10134.23317071 0 768.59760684 0 1969.31261992 0 7147
0.08150000 0.08149960 26004.24062258 0 591.82461942 0 10591.17694365 0 117.61244869 0 644.21996769 0 7386
0.08250000 0.08250610 24546.56906020 0 864.28020900 0 8852.82194712 0 -1246.43374948 0 1542.79559558 0 7227
0.08350000 0.08350160 24184.83620838 0 1146.42851172 0 10822.63282166 0 -507.81446209 0 -584.40062563 0 7798
0.08450000 0.08449610 23570.43290419 0 62.27152984 0 9499.25748701 0 -37.86513641 0 -1307.25402971 0 7371
0.08550000 0.08548940 23399.91910198 0 233.23077168 0 10069.84760189 0 -142.15093495 0 -2123.30651350 0 8256
0.08650000 0.08650700 23383.53206125 0 348.56785762 0 9390.97015029 0 -667.31905173 0 -3438.52154476 0 8037
0.08750000 0.08749060 22860.36471357 0 343.72039381 0 9635.08169556 0 1135.14581273 0 -2317.96905613 0 8155
0.08850000 0.08849210 22500.40343372 0 499.58329582 0 8672.08838911 0 520.07263289 0 -3429.03256239 0 8718
0.08950000 0.08949900 21841.15721401 0 806.37748636 0 8496.14914774 0 1041.91130160 0 -2072.21880678 0 8571
0.09050000 0.09049190 21315.66467812 0 57.32341860 0 7863.64259248 0 1957.07770100 0 -1816.03842746 0 8932
0.09150000 0.09150830 20986.70590776 0 169.71327312 0 7515.60620645 0 1205.13397791 0 -647.72325126 0 9285
0.09250000 0.09250820 21269.16091388 0 206.77898769 0 7701.21158739 0 1203.63921406 0 -740.62891435 0 9204
0.09350000 0.09350330 20849.96269625 0 353.65891257 0 7007.84046259 0 437.35683034 0 162.79417734 0 9349
0.09450000 0.09448040 20496.53408804 0 590.45608007 0 6630.55099440 0 166.68942121 0 1566.22463490 0 9564
0.09550000 0.09549270 19982.77821645 0 352.02574466 0 6411.17502277 0 823.25060215 0 1311.59438104 0 10155
0.09650000 0.09649430 19649.94413240 0 603.34758786 0 5824.02070996 0 704.60842725 0 523.82947271 0 9913
0.09750000 0.09749140 18687.42693592 0 935.02461396 0 5684.84158699 0 586.28070638 0 771.25717927 0 10476
0.09850000 0.09850240 18090.51790495 0 575.39439662 0 5565.21618965 0 289.88564331 0 1310.48714856 0 10575
0.09950000 0.09950330 17791.56513484 0 22.02484708 0 5156.85777801 0 -111.23368236 0 539.86884244 0 10882
0.10050000 0.10051200 17591.48822537 0 212.87430250 0 5263.47319369 0 394.34084842 0 727.26240383 0 10875
0.10150000 0.10150300 17702.76508980 0 348.95206729 0 5429.89023571 0 69.32172195 0 1186.13386852 0 11118
0.10250000 0.10250800 17075.29644232 0 391.10440787 0 5885.90393337 0 -117.51279777 0 1754.45415681 0 11575
0.10350000 0.10349800 17172.73290073 0 1.87114539 0 6262.68407462 0 506.78362865 0 1650.31894189 0 11364
0.10450000 0.10450100 16782.98706711 0 381.51356011 0 6570.29540274 0 306.24832493 0 2244.22737284 0 12093
0.10550000 0.10551000 16876.21604208 0 458.05100542 0 6437.13962447 0 133.09155879 0 2103.47597975 0 12067
0.10650000 0.10649700 16264.35937261 0 359.28143911 0 6489.16847879 0 304.47564572 0 2841.28034404 0 12054
0.10750000 0.10749900 16193.38577052 0 383.13787016 0 5698.16159374 0 505.56456568 0 2527.40208008 0 12807
0.10850000 0.10850100 15833.86738366 0 -69.71777901 0 5662.95160082 0 749.95734801 0 1923.29603797 0 12736
0.10950000 0.10950300 15910.70931790 0 -30.48100299 0 4956.62585599 0 338.61273037 0 1000.36572441 0 12933
0.11050000 0.11050200 15753.15013573 0 154.94611351 0 5017.77830596 0 -311.95832284 0 470.47304664 0 13428
0.11150000 0.11150900 15412.67614756 0 445.21596649 0 5223.64604132 0 -537.99319061 0 138.23243920 0 13453
0.11250000 0.11250000 15147.93686114 0 487.07046154 0 5556.32511282 0 -1017.74816715 0 370.24857684 0 13668
0.11350000 0.11349100 15065.22659475 0 264.83118671 0 5690.94243796 0 23.91887897 0 63.79541391 0 13791
0.11450000 0.11448600 14803.69828253 0 190.87580755 0 5902.97745824 0 246.12449393 0 227.56063414 0 14205
0.11550000 0.11549300 15046.95725880 0 88.55102846 0 6002.38479046 0 -83.39951862 0 51.53369996 0 14776
0.11650000 0.11649800 14703.27229643 0 284.27861802 0 6777.84613146 0 196.61237904 0 970.33647227 0 14553
0.11750000 0.11747300 14648.02139558 0 179.24211586 0 6228.24914444 0 210.94328905 0 641.69879933 0 14568
0.11850000 0.11849100 14513.60337228 0 77.29313148 0 6630.07488443 0 548.66137558 0 1257.96003962 0 16015
0.11950000 0.11950300 14585.24131386 0 136.68009926 0 6256.41713878 0 311.91181907 0 1106.24040156 0 15270
0.12050000 0.12050700 14397.78685468 0 91.61451929 0 6099.48907912 0 602.31343272 0 1106.43859618 0 15999
0.12150000 0.12150000 14238.89899353 0 48.03562038 0 5481.00008708 0 526.17016217 0 1054.99103891 0 15670
0.12250000 0.12250700 14053.54827607 0 225.46021412 0 5436.91008965 0 182.82512017 0 43.49474925 0 16887
0.12350000 0.12352200 13856.46089429 0 331.43011326 0 4691.58761681 0 91.79079070 0 122.21521412 0 16407
0.12450000 0.12449800 13415.67164326 0 171.58560325 0 4632.82678899 0 469.54075689 0 140.41700889 0 16306
0.12550000 0.12549900 13541.78542295 0 -94.59873228 0 4065.32585274 0 278.90411155 0 274.36999454 0 17523
0.12650000 0.12650100 13572.67720919 0 -103.61736229 0 3969.94884675 0 954.60602040 0 -368.80585292 0 17154
0.12750000 0.12750600 13434.16242571 0 233.36806851 0 3864.05313219 0 438.22268614 0 -450.63254779 0 18007
0.12850000 0.12850300 13224.78476339 0 350.69374398 0 3815.03595021 0 71.26867954 0 76.22642370 0 17496
0.12950000 0.12949900 12902.02649493 0 328.12170261 0 4072.38999597 0 -181.33257079 0 503.83174685 0 18405
0.13050000 0.13049000 12767.05485539 0 134.99156972 0 4088.21234814 0 -177.80492810 0 189.77854016 0 18100
0.13150000 0.13148800 12620.90016778 0 275.12512709 0 4180.61089875 0 -33.51659157 0 -13.84394917 0 19059
0.13250000 0.13249300 12420.49108856 0 195.86610434 0 3951.13696688 0 87.38721640 0 359.75312015 0 18957
0.13350000 0.13349100 12242.78027523 0 190.04206149 0 3710.97824157 0 291.76572406 0 332.02912603 0 19468
0.13450000 0.13450700 12231.92939690 0 69.99868389 0 3562.56479970 0 699.17413023 0 -211.64748891 0 19953
0.13550000 0.13551000 11975.82652385 0 -54.82461634 0 3265.60504806 0 612.30066970 0 -74.52837197 0 19956
0.13650000 0.13649900 12075.14527747 0 91.16155048 0 2936.88986885 0 660.84617064 0 -48.57628200 0 19723
0.13750000 0.13749600 11875.95415398 0 145.20689660 0 2609.37050071 0 293.83957050 0 -6.49215801 0 20946
0.13850000 0.13851100 11791.36159237 0 100.71862765 0 2604.78655824 0 21.58516506 0 122.61381781 0 20955
0.13950000 0.13949800 11740.09672846 0 132.12715929 0 2416.30237285 0 -138.07078326 0 363.68379546 0 20506
0.14050000 0.14048300 11574.45474917 0 202.41427724 0 2455.69770455 0 -106.85424573 0 262.88799370 0 21447
0.14150000 0.14148400 11520.42180406 0 94.15174252 0 2568.40289888 0 79.30951255 0 515.29713920 0 21771
0.14250000 0.14249400 11521.30759004 0 99.06652606 0 2841.10318684 0 -255.14179526 0 758.53729251 0 22470
0.14350000 0.14350900 11431.06814277 0 300.96128983 0 3060.51237545 0 -184.87792919 0 357.39250050 0 22519
0.14450000 0.14449900 11193.45605216 0 334.56468842 0 3530.54363632 0 -424.14201067 0 982.57028396 0 22218
0.14550000 0.14550500 11079.74327627 0 54.83513505 0 3477.75079159 0 74.82522100 0 923.97554102 0 23559
0.14650000 0.14650700 10933.52215472 0 65.08766494 0 3837.66778214 0 -30.31868271 0 1076.11482019 0 23044
0.14750000 0.14750500 10838.10085943 0 306.64028523 0 3619.64263414 0 381.28436299 0 912.87442816 0 23649
0.14850000 0.14849900 10686.53180499 0 335.42390082 0 3820.83784842 0 266.54850429 0 1296.86818903 0 23640
0.14950000 0.14949500 10376.24097427 0 194.11889149 0 3260.44534470 0 402.85546620 0 1125.70111966 0 24457
0.15050000 0.15050000 10289.02427168 0 130.80401648 0 3484.88136877 0 221.30698508 0 1315.66899658 0 24591
0.15150000 0.15149900 10227.71680916 0 161.59283010 0 3057.60035402 0 -123.97128483 0 792.55368882 0 25020
0.15250000 0.15250500 9833.03271867 0 317.90637573 0 3437.29251670 0 -194.94488692 0 835.12234882 0 25297
0.15350000 0.15350100 9812.19460336 0 177.22805998 0 3403.07903301 0 -231.75815248 0 863.70776980 0 25452
0.15450000 0.15450400 9595.08845832 0 15.43714599 0 3386.54805206 0 290.66624221 0 455.42464998 0 26061
0.15550000 0.15549900 9589.58551288 0 136.04897674 0 3567.95702189 0 335.20799049 0 222.26917011 0 26128
0.15650000 0.15649500 9451.00429545 0 -36.73985604 0 3017.26387471 0 430.58831817 0 93.26673160 0 26331
0.15750000 0.15749700 9582.72067149 0 53.24348836 0 3132.10602772 0 242.81054711 0 474.61631058 0 27345
0.15850000 0.15849900 9412.66083460 0 130.21829049 0 2859.08464235 0 307.93242553 0 784.88610388 0 26980
0.15950000 0.15949700 9413.01514900 0 130.13303359 0 2737.06762284 0 198.61093367 0 1234.66386820 0 27777
0.16050000 0.16050000 9380.10819964 0 23.13905513 0 2660.04853141 0 210.22469517 0 1168.99390970 0 28224
0.16150000 0.16150500 9247.71641178 0 24.82437369 0 2821.81519701 0 237.96861947 0 1076.23550853 0 28075
0.16250000 0.16249700 9380.11927196 0 11.12370041 0 3105.52137583 0 -20.63825985 0 1492.94798925 0 28590
0.16350000 0.16349900 9205.79659002 0 140.07487405 0 2788.55393325 0 119.42830996 0 1292.93751372 0 29163
0.16450000 0.16449100 9236.44478512 0 163.79622274 0 2963.19771262 0 -67.51361130 0 1289.67117790 0 28996
0.16550000 0.16550500 8935.53221352 0 198.76151728 0 2760.37486659 0 39.38337359 0 1396.28659358 0 30777
0.16650000 0.16650700 9019.01754265 0 120.59201130 0 2724.25694303 0 352.07224842 0 1324.32755458 0 29211
0.16750000 0.16749900 8770.83138184 0 28.20962628 0 2238.66906578 0 246.63049917 0 1047.98890069 0 30922
0.16850000 0.16850800 8783.36525354 0 20.84874474 0 2352.24897377 0 204.24453253 0 918.25004186 0 30867
0.16950000 0.16949900 8664.60349753 0 121.25524355 0 1927.24885793 0 -57.40911840 0 847.42591616 0 30852
0.17050000 0.17049200 8620.72387428 0 144.94116081 0 2252.77520760 0 -59.32939169 0 850.62360357 0 31257
0.17150000 0.17149500 8538.01360788 0 10.61311122 0 2082.08424820 0 -143.72652677 0 831.52052156 0 32608
0.17250000 0.17250900 8556.49331800 0 104.57091090 0 2384.60230689 0 -54.03261295 0 495.10121873 0 32361
0.17350000 0.17350400 8454.32897690 0 126.53563526 0 2407.32271742 0 -168.28051429 0 466.51469051 0 32508
0.17450000 0.17449800 8413.12885625 0 181.66806223 0 2429.53380101 0 -58.83191214 0 293.39778474 0 32791
0.17550000 0.17549800 8231.06661926 0 134.12128499 0 2315.00167308 0 77.79027886 0 370.77340504 0 33633
0.17650000 0.17650100 8253.54343864 0 54.48934634 0 2410.09079863 0 -42.28664788 0 72.37701926 0 33984
0.17750000 0.17750300 8102.97089343 0 155.98359035 0 2206.53717916 0 218.67620070 0 345.18969131 0 34069
