### header ###
fiducial parameters:
Omega_m = 0.31
Omega_nu = 0
Omega_de = 0.69
Omega_k = 0
H_0 = 100
w_de = -1
zeff = 0
beta = 0
fgrowth = 0
b_1 = 2
gamma = 0.55
Lx = 3500 Ly = 3500 Lz = 3500
nx = 700 ny = 700 nz = 700
xoffset = -685.467585 yoffset = -31.7331281 zoffset = 572.489161
bins = 400 dk = 0.001
kx_ny = 0.628318531 ky_ny = 0.628318531 kz_ny = 0.628318531
############################
A(data) = 8.07036138 (not used)
A(ran) = 8.06683568 (used)
Ngal = 479204
weighted Ngal = 0
Nran = 23820508
weighted Nran = 0
SN(data) = 3489.62166
SN(ran) = 70.2650644
SN(data+ran) = 3559.88673
############################
13 columns: k_central k_mean P_0(k) sigma^{lin}_{P_0(k)} P^img_1(k) sigma^{lin}_{P_1(k)} P_2(k) sigma^{lin}_{P_2(k)} P^img_3(k) sigma^{lin}_{P_3(k)} P_4(k) sigma^{lin}_{P_4(k)} N_modes
### header ###
0.00050000 0 0 0 0 0 0 0 0 0 0 0 0
0.00150000 0.00179520 54562.53441107 0 -75730.27282961 0 -11782.28228602 0 -11554.41384125 0 -120565.43771776 0 3
0.00250000 0.00253879 84094.52844412 0 -69184.53584333 0 -35247.30665793 0 -28421.55057698 0 39379.94117325 0 6
0.00350000 0.00331552 88844.77723781 0 -6711.98794344 0 -10422.37935179 0 -43880.84121203 0 38323.75210880 0 7
0.00450000 0.00420575 88385.82937408 0 21942.80115585 0 -33501.75465027 0 -47379.47440822 0 12531.21433675 0 24
0.00550000 0.00557378 62148.40559082 0 -2814.68461982 0 -40663.11289648 0 -21893.19714066 0 1986.16469829 0 45
0.00650000 0.00659388 63085.01354723 0 1596.27492445 0 -51901.63331065 0 -43886.93099068 0 621.08988114 0 40
0.00750000 0.00754703 62940.40898510 0 -6424.82719927 0 -22937.09592456 0 -24862.13031753 0 -18242.98381770 0 57
0.00850000 0.00846663 64073.88287678 0 2287.22121011 0 -24520.65982013 0 -39851.29004078 0 -10326.53730816 0 75
0.00950000 0.00948925 71586.01237324 0 -6703.63941053 0 -8034.48856443 0 -26032.47505086 0 5926.21826803 0 112
0.01050000 0.01054430 70398.72698294 0 -6011.23157799 0 -6772.99645319 0 -12899.14769047 0 -3628.50049399 0 105
0.01150000 0.01145670 74953.54924359 0 4791.82537339 0 3643.13810740 0 -20619.54761677 0 -909.87604260 0 144
0.01250000 0.01249090 86504.08777115 0 -4728.41416915 0 19060.56428231 0 -18491.55750988 0 -29171.03624396 0 169
0.01350000 0.01339930 79387.12954747 0 -1752.18433023 0 39315.05734981 0 -4681.57823517 0 5372.80132895 0 180
0.01450000 0.01448870 77050.53684099 0 15087.26052114 0 32291.10665460 0 -5874.94233180 0 -2914.85594246 0 267
0.01550000 0.01550050 70584.18842365 0 13700.89473059 0 35393.90423853 0 13080.62309425 0 20280.51303083 0 238
0.01650000 0.01653350 71799.37607250 0 -7509.17318573 0 30209.73103519 0 18095.50045111 0 -14466.65671505 0 315
0.01750000 0.01747870 63487.27110789 0 2613.24581440 0 32911.26756770 0 14473.41083319 0 1218.50934629 0 297
0.01850000 0.01844180 66107.20460648 0 8793.90610676 0 24921.47797856 0 6926.77997260 0 -9404.66661609 0 388
0.01950000 0.01947590 60609.57388753 0 -2393.84769812 0 14686.44236270 0 9066.34065893 0 -4952.73946998 0 399
0.02050000 0.02045430 63462.91199329 0 -8050.83131586 0 11805.64489139 0 5763.53259947 0 -16984.94627180 0 462
0.02150000 0.02154770 67660.98394828 0 -2095.17173613 0 13290.77581931 0 -50.57738326 0 -22192.26063401 0 571
0.02250000 0.02255340 67443.96638183 0 4469.45463629 0 9810.82163508 0 -10125.65211898 0 -15623.38248885 0 510
0.02350000 0.02348930 66295.10195865 0 4391.98157954 0 9418.73954093 0 -5135.07851509 0 -7060.03540179 0 555
0.02450000 0.02439640 57329.39766000 0 2279.68095691 0 8327.20761566 0 6682.83451219 0 -5234.35297942 0 592
0.02550000 0.02547300 62697.37145533 0 -4404.96941655 0 7656.30223792 0 7923.99783506 0 -10398.41884088 0 837
0.02650000 0.02652900 67023.43948522 0 -1810.03722740 0 9469.69437975 0 3074.30849217 0 -16552.12909464 0 723
0.02750000 0.02749970 66036.23100439 0 -1000.79422338 0 3928.67121983 0 -10043.55083045 0 -17834.63647839 0 826
0.02850000 0.02848090 69164.82710515 0 1519.92017251 0 10445.16619627 0 -7053.58023642 0 -9475.76201375 0 831
0.02950000 0.02946900 67241.67500740 0 523.62463470 0 11245.71742531 0 -14890.72675560 0 -14016.23454143 0 996
0.03050000 0.03053250 66524.85269864 0 4607.39365889 0 18823.28436144 0 1758.63949560 0 -18834.24596301 0 1041
0.03150000 0.03150510 61615.16242755 0 3200.31154861 0 17064.00267101 0 602.44962231 0 -17865.97115762 0 1036
0.03250000 0.03246190 60959.12718205 0 5365.20571412 0 10805.69216469 0 4603.24153708 0 -17536.01587803 0 1059
0.03350000 0.03345080 56519.78926926 0 2191.88849342 0 8640.45475710 0 4722.23581190 0 -17013.84503958 0 1302
0.03450000 0.03451200 51549.42265817 0 4186.42386928 0 7886.99412552 0 3540.02154637 0 -7679.33267355 0 1339
0.03550000 0.03553350 50028.41739783 0 2265.19835605 0 5588.15804667 0 3930.08847740 0 -2925.48537428 0 1365
0.03650000 0.03647120 48813.67264198 0 -445.92127358 0 11123.58968256 0 4869.49773199 0 3001.97299413 0 1308
0.03750000 0.03744890 49222.13070454 0 -234.38118623 0 8736.75076605 0 3851.67427304 0 -909.76310489 0 1579
0.03850000 0.03847530 49845.50259183 0 4003.30976143 0 14274.55187945 0 -808.02504829 0 3557.87013398 0 1662
0.03950000 0.03950240 45685.07654122 0 2737.53266049 0 17332.17437812 0 -1852.99784770 0 9722.67485720 0 1683
0.04050000 0.04050350 44013.26621686 0 1451.06138446 0 19602.99747517 0 1636.87713956 0 17522.28619525 0 1822
0.04150000 0.04152450 43840.31650319 0 227.88505325 0 19222.99528740 0 3087.45134173 0 12178.45006803 0 1887
0.04250000 0.04250150 43277.62095591 0 -1811.14445989 0 17163.98576412 0 7810.70580752 0 13246.37579679 0 1920
0.04350000 0.04349210 43400.08086840 0 -126.37619378 0 12680.57999855 0 4769.23783076 0 7666.05695609 0 2005
0.04450000 0.04448520 44335.47086908 0 1587.14025648 0 12795.95362316 0 -2081.39776406 0 6492.99950318 0 2151
0.04550000 0.04548030 41127.92909237 0 4229.29591098 0 12255.07055577 0 -6263.64736688 0 6140.71134442 0 2274
0.04650000 0.04648670 38993.95993007 0 3065.91566996 0 9103.51045334 0 -1423.67952518 0 9200.79189920 0 2311
0.04750000 0.04749250 37905.55040039 0 -1678.94090155 0 14651.67526277 0 -24.43894606 0 4571.72970064 0 2568
0.04850000 0.04851840 39439.51028077 0 -700.62571201 0 16208.11196253 0 -792.33888572 0 -1570.67570947 0 2493
0.04950000 0.04949480 39489.88935869 0 2938.14104155 0 20539.60543158 0 -875.57951647 0 -1535.91968187 0 2644
0.05050000 0.05050630 37074.90459250 0 1794.59133428 0 18081.10642885 0 -4553.28320750 0 -1998.14495375 0 2829
0.05150000 0.05149060 36600.12330428 0 -683.00078537 0 18835.79608849 0 -2243.74019055 0 969.27685079 0 2784
0.05250000 0.05249300 39005.69659438 0 -1157.40118562 0 22750.52725137 0 596.47499584 0 -4321.46194277 0 3055
0.05350000 0.05348950 39170.45278768 0 -65.31763712 0 18682.77655949 0 93.68626199 0 -7337.31963222 0 3009
0.05450000 0.05448610 38551.06693732 0 858.22475455 0 18961.35625193 0 3137.98543220 0 -8610.62591404 0 3336
0.05550000 0.05550870 37802.13488659 0 59.40424061 0 15626.37201656 0 -499.69844800 0 -11005.27081954 0 3349
0.05650000 0.05647670 38175.38295623 0 803.61051239 0 16806.68184222 0 1334.13763437 0 -11778.96058857 0 3324
0.05750000 0.05747970 37036.37290213 0 2080.52305040 0 16724.63591532 0 -447.61423205 0 -9484.85239242 0 3639
0.05850000 0.05849280 34936.06360728 0 1324.52685643 0 16424.79735923 0 1245.75833767 0 -5789.26468235 0 3846
0.05950000 0.05951020 34626.14923561 0 699.08665886 0 17474.23230554 0 2296.01263602 0 -6980.39216937 0 3787
0.06050000 0.06049470 33717.66498424 0 675.64543999 0 19039.41614190 0 1815.90555956 0 -3112.37514490 0 3930
0.06150000 0.06148310 33731.72683676 0 856.65580613 0 18581.90768040 0 2460.63596142 0 -3031.89041579 0 4083
0.06250000 0.06249100 32712.51933720 0 777.06239917 0 17918.45397726 0 872.78707615 0 1200.77148193 0 4303
0.06350000 0.06350600 32317.90168066 0 338.37024646 0 16714.56009973 0 4694.80966333 0 1369.38084427 0 4470
0.06450000 0.06451750 31389.37652137 0 -469.48096633 0 14312.30850708 0 4470.61723040 0 2477.21123168 0 4479
0.06550000 0.06550280 32155.02778258 0 -66.09092829 0 13042.20212713 0 2321.13574103 0 -1281.30050034 0 4636
0.06650000 0.06648880 31560.11177008 0 425.17173687 0 11136.65502584 0 670.32961685 0 -2981.77707366 0 4653
0.06750000 0.06749660 30801.76824325 0 838.88251033 0 11769.88128222 0 -2539.10552741 0 -1463.80563032 0 5220
0.06850000 0.06852730 30909.94485673 0 363.71479797 0 11280.37380199 0 -1978.85696391 0 -817.04013516 0 5029
0.06950000 0.06949320 30790.91736493 0 249.12620119 0 13637.11813964 0 -1657.29450653 0 -2576.95073364 0 5040
0.07050000 0.07048030 30935.07903406 0 235.56592498 0 12818.76261229 0 1523.26401460 0 -1666.42917451 0 5475
0.07150000 0.07148790 30599.25542231 0 462.84753653 0 13161.34034218 0 933.14121151 0 -3445.33102452 0 5509
0.07250000 0.07249820 29776.69241154 0 1167.85346025 0 11907.28883322 0 2397.42405903 0 -2542.68188833 0 5916
0.07350000 0.07351270 28681.41804048 0 436.77442605 0 10177.78062422 0 1819.17189538 0 -2180.77187931 0 5721
0.07450000 0.07449140 27310.44278143 0 823.31814333 0 8573.20145615 0 1366.88957119 0 -3386.97987272 0 6028
0.07550000 0.07549160 27712.81106534 0 758.24276867 0 8886.47074225 0 -1178.98114669 0 -2747.55311445 0 6183
0.07650000 0.07648840 26423.43884021 0 805.32782996 0 8654.50553730 0 -540.88306739 0 -4207.67166061 0 6330
0.07750000 0.07749960 26012.87703593 0 1105.09441594 0 8220.89115275 0 -767.10616469 0 -4031.01271813 0 6583
0.07850000 0.07848650 24886.71087863 0 858.49270481 0 9717.26049037 0 -698.04032417 0 -1630.10087678 0 6549
0.07950000 0.07947320 24581.66832988 0 299.45323919 0 9658.73218137 0 1781.97995631 0 -3152.81127514 0 6828
0.08050000 0.08048110 24147.52247374 0 392.02008913 0 9779.46481120 0 2153.43430933 0 -2368.32598941 0 7147
0.08150000 0.08149960 23807.60210181 0 621.06220033 0 8560.02538962 0 1899.49053961 0 -1197.43871216 0 7386
0.08250000 0.08250610 22817.29337003 0 718.19859873 0 8102.37298789 0 1023.34190564 0 -1267.42687734 0 7227
0.08350000 0.08350160 22295.01180833 0 530.99105240 0 7670.80698343 0 1350.72397695 0 -293.69895198 0 7798
0.08450000 0.08449610 21760.99358233 0 292.89510120 0 7392.03906148 0 441.52888233 0 -49.24615765 0 7371
0.08550000 0.08548940 21373.13004393 0 604.24887510 0 6656.48237912 0 844.45188971 0 1296.08205397 0 8256
0.08650000 0.08650700 21069.08400441 0 -17.75690876 0 5695.98034576 0 1054.34773683 0 170.60348804 0 8037
0.08750000 0.08749060 21242.47661107 0 -316.15473394 0 5774.97031101 0 1080.57696710 0 1119.99887238 0 8155
0.08850000 0.08849210 21321.64373352 0 -283.63531595 0 5885.10672598 0 1014.35671405 0 230.12498457 0 8718
0.08950000 0.08949900 21374.34799966 0 441.89205458 0 5414.88723558 0 82.36093455 0 -217.75830498 0 8571
0.09050000 0.09049190 21061.66554678 0 743.05486072 0 5579.53270564 0 -2113.18640861 0 -586.52097583 0 8932
0.09150000 0.09150830 20405.74102452 0 532.93867433 0 6031.34999219 0 -975.26254958 0 -511.94554648 0 9285
0.09250000 0.09250820 20195.47757622 0 232.06707034 0 5692.85795016 0 -224.95088718 0 -932.86440339 0 9204
0.09350000 0.09350330 20108.22765665 0 -297.47240028 0 6237.60525891 0 252.34160431 0 -1884.26609299 0 9349
0.09450000 0.09448040 20195.69902271 0 -22.71421003 0 6125.32081292 0 254.06556529 0 -1874.76603829 0 9564
0.09550000 0.09549270 20365.32703894 0 654.96676616 0 6876.95451091 0 523.19059956 0 -2153.88827465 0 10155
0.09650000 0.09649430 19408.45672811 0 491.29787516 0 6144.14376512 0 471.89251868 0 -292.01595860 0 9913
0.09750000 0.09749140 19036.31589095 0 709.07389585 0 6399.54908171 0 -167.70253894 0 -142.38013208 0 10476
0.09850000 0.09850240 18788.62798476 0 393.66432937 0 6654.64437320 0 179.98174716 0 -809.16217605 0 10575
0.09950000 0.09950330 18580.91117116 0 177.96658404 0 7215.56834852 0 42.12133808 0 -243.81591420 0 10882
0.10050000 0.10051200 17986.99166789 0 539.24879225 0 6361.28312713 0 51.14694365 0 68.32643067 0 10875
0.10150000 0.10150300 18122.07403068 0 110.58384762 0 7037.52536543 0 -225.96511213 0 -368.34302974 0 11118
0.10250000 0.10250800 17514.53556788 0 476.00588735 0 6744.06446844 0 404.75215544 0 -637.98403435 0 11575
0.10350000 0.10349800 17265.29753621 0 496.05897483 0 6554.84950961 0 -35.35581544 0 -365.53398094 0 11364
0.10450000 0.10450100 16736.15113313 0 417.64809216 0 6006.76943109 0 780.25676488 0 -506.18240141 0 12093
0.10550000 0.10551000 16607.82288848 0 92.70204303 0 5709.42214809 0 1248.55963585 0 92.23833407 0 12067
0.10650000 0.10649700 16274.87808118 0 112.58229152 0 5342.34136337 0 1046.79308961 0 -344.61282319 0 12054
0.10750000 0.10749900 15933.29686053 0 370.04373883 0 4444.48654383 0 642.61558782 0 23.81546345 0 12807
0.10850000 0.10850100 15816.70528019 0 301.40307559 0 4183.82187295 0 598.36725615 0 -17.68881396 0 12736
0.10950000 0.10950300 15285.78730513 0 246.30054389 0 3940.92828340 0 362.27650297 0 229.80167268 0 12933
0.11050000 0.11050200 15268.73592491 0 276.92327264 0 4066.47737452 0 -82.64361100 0 -433.94544706 0 13428
0.11150000 0.11150900 15135.20368760 0 213.85641771 0 4014.64782204 0 447.13590762 0 339.06558846 0 13453
0.11250000 0.11250000 14974.21208474 0 37.75684908 0 4277.30551139 0 -93.99983023 0 1201.51332770 0 13668
0.11350000 0.11349100 14977.86595193 0 219.08919842 0 4137.37347033 0 388.66960364 0 1156.47111033 0 13791
0.11450000 0.11448600 14954.06045357 0 102.41966891 0 4778.26177549 0 110.84725822 0 1318.55887335 0 14205
0.11550000 0.11549300 15031.23455755 0 168.55732241 0 5212.86159694 0 -356.66172706 0 1462.95306131 0 14776
0.11650000 0.11649800 14858.50629038 0 206.61622451 0 5916.09816315 0 -638.42139118 0 1690.81043376 0 14553
0.11750000 0.11747300 14841.12274042 0 218.99951259 0 5800.11556067 0 -737.61392030 0 1449.83235640 0 14568
0.11850000 0.11849100 14790.41149275 0 -54.87565976 0 6034.64954498 0 -299.68132908 0 1644.66098391 0 16015
0.11950000 0.11950300 14953.83900707 0 175.74215399 0 6203.45820917 0 334.70198525 0 1260.51774665 0 15270
0.12050000 0.12050700 14651.12164653 0 206.40363587 0 5902.46813130 0 578.82460285 0 910.27464629 0 15999
0.12150000 0.12150000 14399.77987315 0 377.49430620 0 5455.29014885 0 603.89013177 0 552.96518823 0 15670
0.12250000 0.12250700 13972.94175139 0 213.28065682 0 4916.13436413 0 666.17195888 0 102.27052470 0 16887
0.12350000 0.12352200 13857.67885002 0 36.93140726 0 4941.55642191 0 836.10667850 0 39.54846196 0 16407
0.12450000 0.12449800 13709.19897421 0 -0.21004754 0 4253.93183370 0 172.98846680 0 -387.80042615 0 16306
0.12550000 0.12549900 13597.03632379 0 245.28078278 0 4070.37483286 0 46.54860715 0 -521.75451903 0 17523
0.12650000 0.12650100 13398.84170954 0 369.75585839 0 4272.79907519 0 -387.53026142 0 -504.49830080 0 17154
0.12750000 0.12750600 13146.72487342 0 264.63852826 0 4436.39267439 0 -190.24357780 0 -112.45828149 0 18007
0.12850000 0.12850300 13010.31383165 0 158.25673863 0 4639.76913666 0 -172.47581817 0 415.63071458 0 17496
0.12950000 0.12949900 13065.01111626 0 161.44888988 0 4688.25484704 0 176.58254344 0 579.89308219 0 18405
0.13050000 0.13049000 12815.10874510 0 203.91789895 0 4806.96124142 0 61.93725636 0 1429.60321896 0 18100
0.13150000 0.13148800 12692.42738611 0 310.10038673 0 5290.58931717 0 337.47449538 0 1631.20810926 0 19059
0.13250000 0.13249300 12417.83373061 0 411.73325624 0 5269.13115167 0 405.67337287 0 1535.21105308 0 18957
0.13350000 0.13349100 12061.41559470 0 171.81369314 0 4947.92300868 0 607.58828826 0 1730.31648871 0 19468
0.13450000 0.13450700 12026.09487852 0 -65.05788038 0 4727.05227320 0 291.18110531 0 1371.70603248 0 19953
0.13550000 0.13551000 12043.14625875 0 -44.90680283 0 4160.73607570 0 279.77661075 0 725.68016861 0 19956
0.13650000 0.13649900 12051.45050236 0 162.48304502 0 3932.70154606 0 299.32147852 0 70.81249976 0 19723
0.13750000 0.13749600 11720.05582054 0 149.58378660 0 3272.52525107 0 99.98984723 0 547.78112575 0 20946
0.13850000 0.13851100 11700.23635911 0 3.01992123 0 3004.10995282 0 377.26400185 0 -207.29827972 0 20955
0.13950000 0.13949800 11665.02636619 0 -120.08489882 0 2987.88899696 0 553.59741798 0 -439.01767906 0 20506
0.14050000 0.14048300 11539.68764924 0 303.25768999 0 2556.06832903 0 318.85195227 0 -984.83346716 0 21447
0.14150000 0.14148400 11348.91149262 0 525.77488018 0 2484.59647233 0 -187.05142656 0 -501.04816439 0 21771
0.14250000 0.14249400 10978.30970861 0 308.44285971 0 2788.03353398 0 -541.82089330 0 30.08461376 0 22470
0.14350000 0.14350900 10854.39932157 0 62.99765290 0 2983.37148844 0 -181.22516924 0 -151.55023149 0 22519
0.14450000 0.14449900 11033.88170688 0 -51.42563407 0 3225.19106247 0 20.95658918 0 -27.41020443 0 22218
0.14550000 0.14550500 10968.67678602 0 -83.63901300 0 3208.97010662 0 469.35695629 0 98.72073736 0 23559
0.14650000 0.14650700 11138.75876756 0 -110.94469468 0 3037.49301215 0 446.98643123 0 19.26064119 0 23044
0.14750000 0.14750500 11066.79972856 0 112.72401728 0 2833.19754692 0 366.62681940 0 20.27298385 0 23649
0.14850000 0.14849900 10858.26356293 0 508.18538497 0 3012.65778758 0 86.00240073 0 413.69527220 0 23640
0.14950000 0.14949500 10506.31864624 0 390.36477657 0 3222.23475175 0 -206.10025417 0 507.33392319 0 24457
0.15050000 0.15050000 10151.63886533 0 237.51908308 0 3030.62817076 0 -78.43014851 0 426.25018131 0 24591
0.15150000 0.15149900 10008.58442867 0 222.62127004 0 3139.07052004 0 -59.18788738 0 582.09315313 0 25020
0.15250000 0.15250500 9875.49508435 0 54.02353364 0 3161.01586783 0 86.49301545 0 451.85603969 0 25297
0.15350000 0.15350100 10008.89445376 0 -103.15586779 0 3100.70491454 0 103.02443929 0 174.51091147 0 25452
0.15450000 0.15450400 9867.62266140 0 112.56900473 0 2887.46301086 0 108.98821489 0 127.58529165 0 26061
0.15550000 0.15549900 9813.06931702 0 196.51383535 0 2799.17229275 0 -229.42078471 0 203.20484123 0 26128
0.15650000 0.15649500 9774.07258901 0 159.79247009 0 2949.89985051 0 71.04346846 0 447.29424186 0 26331
0.15750000 0.15749700 9658.20070978 0 -22.03614085 0 2797.11284034 0 411.26600413 0 497.49837705 0 27345
0.15850000 0.15849900 9656.32948689 0 13.42452950 0 2744.28677863 0 452.37201002 0 -32.20906073 0 26980
0.15950000 0.15949700 9526.89400976 0 125.87240300 0 2821.89270328 0 196.11523165 0 140.91969243 0 27777
0.16050000 0.16050000 9450.01885854 0 401.95196450 0 2462.52932897 0 71.40885518 0 92.98715540 0 28224
0.16150000 0.16150500 9074.87742136 0 241.65570363 0 2593.94675224 0 79.93698120 0 517.59464660 0 28075
0.16250000 0.16249700 8889.27204043 0 147.56530179 0 2428.40442388 0 -42.80416835 0 294.52605464 0 28590
0.16350000 0.16349900 8862.76489481 0 129.98798614 0 2476.24793942 0 282.03647225 0 360.09968391 0 29163
0.16450000 0.16449100 8728.45759476 0 -2.22906936 0 2613.45618857 0 -151.36200197 0 381.66525096 0 28996
0.16550000 0.16550500 8613.06182550 0 140.12691397 0 2497.80575584 0 316.58544738 0 392.30907681 0 30777
0.16650000 0.16650700 8645.43730327 0 142.79755872 0 2554.35211869 0 40.15854705 0 378.28044127 0 29211
0.16750000 0.16749900 8348.52184093 0 296.53457436 0 2432.46796708 0 64.88592718 0 239.75679993 0 30922
0.16850000 0.16850800 8327.28512193 0 251.59200792 0 2518.78781137 0 -203.75845748 0 462.23302251 0 30867
0.16950000 0.16949900 8045.49445530 0 80.25298535 0 2371.24908316 0 -88.24698242 0 367.27565763 0 30852
0.17050000 0.17049200 8070.20788429 0 1.70186061 0 2497.67288794 0 213.98153498 0 407.13159805 0 31257
0.17150000 0.17149500 8060.59710635 0 -63.80637551 0 2416.46845772 0 47.00777646 0 196.93901262 0 32608
0.17250000 0.17250900 8093.44869409 0 43.73313640 0 2247.36084077 0 261.43973362 0 61.29118620 0 32361
0.17350000 0.17350400 8137.95943986 0 57.57509255 0 2381.78993639 0 -69.92217412 0 106.62039822 0 32508
0.17450000 0.17449800 7974.96374620 0 134.22536485 0 2134.82173131 0 13.23574636 0 -110.88379690 0 32791
0.17550000 0.17549800 7967.99925389 0 74.25001372 0 2278.81731558 0 -79.44315551 0 -179.46688406 0 33633
0.17650000 0.17650100 7924.04212436 0 -26.12282522 0 2055.48852398 0 178.33972139 0 -129.68681890 0 33984
0.17750000 0.17750300 7941.09350458 0 20.67114465 0 1966.34523687 0 202.73758913 0 92.90289501 0 34069
