### header ###
fiducial parameters:
Omega_m = 0.31
Omega_nu = 0
Omega_de = 0.69
Omega_k = 0
H_0 = 100
w_de = -1
zeff = 0
beta = 0
fgrowth = 0
b_1 = 2
gamma = 0.55
Lx = 3500 Ly = 3500 Lz = 3500
nx = 700 ny = 700 nz = 700
xoffset = -685.467585 yoffset = -31.7331281 zoffset = 572.489161
bins = 400 dk = 0.001
kx_ny = 0.628318531 ky_ny = 0.628318531 kz_ny = 0.628318531
############################
A(data) = 8.04543421 (not used)
A(ran) = 8.03988839 (used)
Ngal = 478138
weighted Ngal = 0
Nran = 23820508
weighted Nran = 0
SN(data) = 3491.75576
SN(ran) = 70.0303437
SN(data+ran) = 3561.7861
############################
13 columns: k_central k_mean P_0(k) sigma^{lin}_{P_0(k)} P^img_1(k) sigma^{lin}_{P_1(k)} P_2(k) sigma^{lin}_{P_2(k)} P^img_3(k) sigma^{lin}_{P_3(k)} P_4(k) sigma^{lin}_{P_4(k)} N_modes
### header ###
0.00050000 0 0 0 0 0 0 0 0 0 0 0 0
0.00150000 0.00179520 33183.75748148 0 -10096.50976005 0 40897.07111990 0 -3173.66046277 0 -14353.82972515 0 3
0.00250000 0.00253879 54773.13002912 0 1213.24999200 0 18200.57681364 0 -8242.08358245 0 -2639.48722422 0 6
0.00350000 0.00331552 45782.40227638 0 7310.44709989 0 15135.75730384 0 9379.46600480 0 50600.74586771 0 7
0.00450000 0.00420575 55121.79753766 0 -18835.90681174 0 -1740.41444894 0 17968.39016220 0 15086.92835139 0 24
0.00550000 0.00557378 71875.88583699 0 -16475.06571390 0 5092.67151104 0 12239.01568479 0 -31262.48767895 0 45
0.00650000 0.00659388 117743.10212148 0 -9013.20457212 0 32567.69332857 0 -16828.71576861 0 -1.79687223 0 40
0.00750000 0.00754703 98667.25803093 0 -5059.50989821 0 -5729.39662206 0 -40.03010809 0 26109.98132459 0 57
0.00850000 0.00846663 95054.91205884 0 12318.62570023 0 8164.62159802 0 -861.09580838 0 -14781.00001665 0 75
0.00950000 0.00948925 83831.00711343 0 16910.20807928 0 -4741.71203126 0 -12256.84212775 0 -4722.22473958 0 112
0.01050000 0.01054430 74380.44571097 0 16167.36580719 0 22503.83585441 0 3841.34379398 0 18999.22360281 0 105
0.01150000 0.01145670 64076.42951149 0 1511.04016800 0 17840.28336404 0 8038.45245671 0 16285.95040600 0 144
0.01250000 0.01249090 61788.77648071 0 -1877.12444348 0 17379.34248184 0 9975.79927488 0 1798.21198450 0 169
0.01350000 0.01339930 61009.83842972 0 1735.48726440 0 21910.13779763 0 13467.93301641 0 8526.56482402 0 180
0.01450000 0.01448870 70419.98584659 0 -7625.17793286 0 12552.03030741 0 12655.66726771 0 22903.65750361 0 267
0.01550000 0.01550050 73231.91345753 0 -8063.57556173 0 3941.68120149 0 18177.21420828 0 33077.57388647 0 238
0.01650000 0.01653350 82391.71561026 0 -1512.98889717 0 1721.14860376 0 5232.82499859 0 9230.47680204 0 315
0.01750000 0.01747870 76219.66958660 0 -697.43134630 0 -5249.26740095 0 16401.98837010 0 31850.87101981 0 297
0.01850000 0.01844180 80134.84364247 0 -3204.28651322 0 -13086.60214965 0 4142.43352278 0 11340.38580251 0 388
0.01950000 0.01947590 79097.69897671 0 -2625.11534660 0 -7298.30075956 0 10258.42036588 0 25566.33017600 0 399
0.02050000 0.02045430 82600.87182608 0 1605.38744778 0 -5149.46146503 0 195.55386478 0 22179.41673722 0 462
0.02150000 0.02154770 79291.90755403 0 4491.74322615 0 -12547.37993099 0 539.94745594 0 30483.99252095 0 571
0.02250000 0.02255340 77100.14085618 0 2668.31955805 0 3251.29960440 0 -8506.57927772 0 27273.68266303 0 510
0.02350000 0.02348930 75234.89701723 0 7301.60031236 0 12546.16197526 0 -8569.08255132 0 25604.19752688 0 555
0.02450000 0.02439640 70924.33024208 0 6712.23153459 0 24744.21005821 0 -11759.47329689 0 35967.22921764 0 592
0.02550000 0.02547300 65725.76301648 0 4156.03033765 0 29526.23642414 0 7828.99728812 0 26367.63432312 0 837
0.02650000 0.02652900 66086.83152881 0 1714.91488489 0 32987.00226946 0 9428.94822441 0 24733.24845664 0 723
0.02750000 0.02749970 61838.04832615 0 2513.29593826 0 31827.95130744 0 6716.40580104 0 10583.01664026 0 826
0.02850000 0.02848090 60946.83690150 0 5656.78431590 0 30938.73290125 0 3111.40078031 0 13615.41638299 0 831
0.02950000 0.02946900 57506.33341060 0 3546.27740989 0 25651.25490736 0 -911.09067663 0 10372.13314176 0 996
0.03050000 0.03053250 49756.37037704 0 2595.91762606 0 22915.28344467 0 3990.97519158 0 18223.49652602 0 1041
0.03150000 0.03150510 52171.68731298 0 268.82165257 0 20661.06883484 0 6348.58317057 0 12171.91739639 0 1036
0.03250000 0.03246190 53914.13906969 0 -5030.98758947 0 23132.52245761 0 5169.61309620 0 3315.40836510 0 1059
0.03350000 0.03345080 54031.06281977 0 -133.85001304 0 25951.97924943 0 4296.05095731 0 1856.68493186 0 1302
0.03450000 0.03451200 52626.87058627 0 6396.67027725 0 23644.39603398 0 -8183.52205649 0 4669.39867787 0 1339
0.03550000 0.03553350 50158.96010745 0 4733.11990720 0 26199.88860212 0 -2225.93589224 0 14272.66958423 0 1365
0.03650000 0.03647120 47603.35681605 0 -969.05429706 0 26657.06489388 0 1118.83627827 0 12552.36247715 0 1308
0.03750000 0.03744890 48111.24435549 0 -2638.43535336 0 25575.40948235 0 8647.92857636 0 8012.83109708 0 1579
0.03850000 0.03847530 49849.48862876 0 -188.86839506 0 23723.89532618 0 6132.73927055 0 2002.05348441 0 1662
0.03950000 0.03950240 48999.90914543 0 1605.60889428 0 18025.30191176 0 5259.04426376 0 -525.56893493 0 1683
0.04050000 0.04050350 46232.60300351 0 2158.31720457 0 14193.72390827 0 3062.08464557 0 810.28490979 0 1822
0.04150000 0.04152450 45794.13894069 0 265.26632908 0 13732.22940983 0 -44.86406366 0 -3459.01641799 0 1887
0.04250000 0.04250150 44322.95914203 0 1005.51214099 0 10848.22096432 0 372.59812417 0 -674.72090087 0 1920
0.04350000 0.04349210 44787.55389142 0 714.04758416 0 11916.14669308 0 1158.32018858 0 -3233.05241310 0 2005
0.04450000 0.04448520 43008.12056982 0 -281.06321489 0 10880.37499559 0 1488.87337371 0 817.81076897 0 2151
0.04550000 0.04548030 43999.53653408 0 1974.33945539 0 13945.37166259 0 481.74024437 0 -3544.16259585 0 2274
0.04650000 0.04648670 42446.53225502 0 1519.23368837 0 12520.03128868 0 -1946.80258356 0 -683.75813239 0 2311
0.04750000 0.04749250 40497.13874745 0 1691.26439907 0 14534.30861969 0 -2798.81797836 0 -923.61458323 0 2568
0.04850000 0.04851840 40429.26539631 0 788.07382620 0 14736.48927088 0 -2299.67757553 0 1219.39513228 0 2493
0.04950000 0.04949480 40359.50974995 0 991.06497156 0 17865.19609489 0 -1578.86922984 0 -770.50647564 0 2644
0.05050000 0.05050630 39058.51158376 0 1880.82259997 0 18496.98294904 0 4.94701508 0 2267.02528964 0 2829
0.05150000 0.05149060 38307.69723781 0 1421.96331483 0 18934.33977937 0 2762.99900757 0 -521.23301254 0 2784
0.05250000 0.05249300 36133.31408992 0 572.10923784 0 18314.40031278 0 3621.42527843 0 1145.44307481 0 3055
0.05350000 0.05348950 36078.06318908 0 594.51297988 0 18135.69299021 0 5673.27100755 0 -100.97262678 0 3009
0.05450000 0.05448610 34317.67426616 0 799.29452017 0 15446.11456851 0 2174.80389623 0 -427.18800722 0 3336
0.05550000 0.05550870 33926.48903032 0 482.31600526 0 11536.14450530 0 1248.08352588 0 1041.89690757 0 3349
0.05650000 0.05647670 33918.73840294 0 -294.45851346 0 12184.09695369 0 1918.26920251 0 -158.99415547 0 3324
0.05750000 0.05747970 34161.77593271 0 -333.94906716 0 10069.40470890 0 84.81157220 0 39.52222055 0 3639
0.05850000 0.05849280 34402.59899752 0 165.49361013 0 10899.93979354 0 -1507.65203661 0 -661.08644009 0 3846
0.05950000 0.05951020 33909.10548035 0 753.74629756 0 10667.00022401 0 -176.25148093 0 -543.33226564 0 3787
0.06050000 0.06049470 33023.98383435 0 459.83586418 0 12608.60988723 0 1613.04949655 0 3451.04434413 0 3930
0.06150000 0.06148310 34249.91163827 0 -210.92778780 0 11735.44635204 0 2154.03221487 0 2448.17959600 0 4083
0.06250000 0.06249100 33850.86505181 0 148.39794061 0 15015.17968657 0 1536.66152763 0 6255.50920814 0 4303
0.06350000 0.06350600 34215.03381509 0 1286.21661256 0 15272.50051535 0 1727.33803333 0 5691.59570513 0 4470
0.06450000 0.06451750 32279.25926705 0 2129.08626705 0 16524.22683610 0 -1114.60665019 0 8935.06717588 0 4479
0.06550000 0.06550280 31573.17711336 0 2001.83203791 0 16859.16466186 0 -1118.12764949 0 8499.99124445 0 4636
0.06650000 0.06648880 29916.75732049 0 1009.93110582 0 18700.38155596 0 1084.75787695 0 9580.80515930 0 4653
0.06750000 0.06749660 29531.32969356 0 292.40570444 0 16129.38773307 0 1472.86279203 0 7321.91802840 0 5220
0.06850000 0.06852730 29081.79330592 0 -859.13932858 0 14760.18404599 0 1501.99407862 0 6159.96611728 0 5029
0.06950000 0.06949320 29879.99720210 0 -433.97312787 0 13010.20310841 0 2428.05010948 0 2544.03271196 0 5040
0.07050000 0.07048030 29554.36012918 0 -79.67124540 0 11847.71972570 0 -113.52454637 0 1335.06770966 0 5475
0.07150000 0.07148790 29821.42460380 0 921.92826816 0 11436.38285868 0 -233.10565441 0 436.84750339 0 5509
0.07250000 0.07249820 29010.37681084 0 244.70612912 0 11096.01959376 0 -215.46301204 0 624.13034154 0 5916
0.07350000 0.07351270 28594.72173715 0 936.98220099 0 11919.46839052 0 380.72188889 0 977.66192237 0 5721
0.07450000 0.07449140 27973.23214508 0 1180.08837917 0 11840.63343781 0 1828.58337147 0 2000.93517960 0 6028
0.07550000 0.07549160 26788.93628247 0 233.58397884 0 9551.87317455 0 3206.31274866 0 2803.29119758 0 6183
0.07650000 0.07648840 26956.68200348 0 7.79979957 0 9039.45705427 0 3586.37029806 0 3110.80287477 0 6330
0.07750000 0.07749960 26806.65200218 0 -85.19688910 0 8907.23135128 0 1655.19076481 0 3685.55618378 0 6583
0.07850000 0.07848650 26459.53461912 0 1091.84748653 0 8547.74618140 0 -215.91587013 0 4070.08695241 0 6549
0.07950000 0.07947320 24871.87396337 0 1670.19376494 0 9174.87158680 0 -1215.63054184 0 5537.19213553 0 6828
0.08050000 0.08048110 24378.82333920 0 792.42414262 0 9937.86549005 0 -992.04819401 0 4976.41210044 0 7147
0.08150000 0.08149960 23670.41599730 0 -31.06683970 0 9492.49229655 0 507.58747943 0 2687.33073976 0 7386
0.08250000 0.08250610 23957.07848686 0 93.82167652 0 9186.13214114 0 389.70486601 0 2364.02992738 0 7227
0.08350000 0.08350160 23863.96023513 0 -27.19329758 0 8640.36617850 0 326.44645986 0 1197.09547009 0 7798
0.08450000 0.08449610 22911.40813098 0 365.87168684 0 7794.65093653 0 324.88194036 0 -205.18678738 0 7371
0.08550000 0.08548940 22761.59957619 0 915.41331224 0 7408.57004243 0 677.07598436 0 625.80558428 0 8256
0.08650000 0.08650700 21896.29739161 0 601.20620024 0 6544.95085123 0 1132.08985108 0 -763.20427742 0 8037
0.08750000 0.08749060 21209.03819012 0 771.70893012 0 5788.67784914 0 962.29685722 0 -58.36853534 0 8155
0.08850000 0.08849210 20657.74713740 0 200.76892977 0 6163.06636823 0 -358.36243615 0 336.31633020 0 8718
0.08950000 0.08949900 20269.88359900 0 691.29617112 0 7219.03398618 0 -556.68770384 0 820.44598227 0 8571
0.09050000 0.09049190 20253.60728152 0 822.45339476 0 6974.45740327 0 -549.99005455 0 1163.67919379 0 8932
0.09150000 0.09150830 19384.09761351 0 502.23068868 0 7658.43919661 0 -125.53026817 0 1472.94029830 0 9285
0.09250000 0.09250820 19034.10142599 0 442.63057865 0 6940.03354540 0 1201.33617050 0 1225.52920023 0 9204
0.09350000 0.09350330 18994.01961015 0 -503.37888877 0 6422.70131290 0 1197.57158006 0 158.53908292 0 9349
0.09450000 0.09448040 19019.81812697 0 -438.06545912 0 5876.92427794 0 1317.34091762 0 -556.08204767 0 9564
0.09550000 0.09549270 19214.35887404 0 406.96883487 0 6079.91320884 0 262.43956455 0 -457.89599288 0 10155
0.09650000 0.09649430 18385.37391487 0 1018.78453675 0 5585.45639942 0 -457.70333442 0 -432.81828439 0 9913
0.09750000 0.09749140 17599.23885274 0 1010.35296140 0 6064.33444782 0 -589.05543098 0 731.79873531 0 10476
0.09850000 0.09850240 17315.23372114 0 362.38279729 0 6695.56768573 0 202.07657134 0 1335.90920634 0 10575
0.09950000 0.09950330 17434.37193619 0 -177.77392559 0 7260.06802196 0 593.26069995 0 1263.88373340 0 10882
0.10050000 0.10051200 17631.45931796 0 -147.68599013 0 7316.88012061 0 323.54661799 0 1682.35117759 0 10875
0.10150000 0.10150300 17865.52826463 0 -101.98087268 0 6533.84530943 0 460.86448316 0 1760.00139155 0 11118
0.10250000 0.10250800 17886.56568179 0 -728.98304311 0 6167.43993653 0 747.93443427 0 1545.61903841 0 11575
0.10350000 0.10349800 18425.45573071 0 -280.39223201 0 5980.69410614 0 396.07034555 0 1438.53858509 0 11364
0.10450000 0.10450100 18283.39780329 0 723.79123000 0 5853.45094933 0 534.68477996 0 298.41244065 0 12093
0.10550000 0.10551000 17054.92336466 0 1188.60299696 0 5009.38548375 0 165.94536099 0 699.38561163 0 12067
0.10650000 0.10649700 16376.52202302 0 1023.75047443 0 5049.23478077 0 288.10521348 0 696.33075722 0 12054
0.10750000 0.10749900 15783.04541274 0 354.57791553 0 5040.45442719 0 12.21587453 0 481.51769064 0 12807
0.10850000 0.10850100 15496.82581618 0 420.66640790 0 5399.13131737 0 211.22120440 0 1067.23703015 0 12736
0.10950000 0.10950300 15175.50694994 0 332.40115615 0 5452.98710529 0 -358.34582766 0 1625.59444057 0 12933
0.11050000 0.11050200 15159.34135571 0 67.10758915 0 5916.54105614 0 224.48584954 0 1955.58293714 0 13428
0.11150000 0.11150900 15230.53640429 0 -277.50124800 0 5253.30879951 0 524.13617610 0 959.85651683 0 13453
0.11250000 0.11250000 15325.53695123 0 -120.01514317 0 4956.47084344 0 590.73842435 0 537.45064670 0 13668
0.11350000 0.11349100 15471.80236209 0 183.88252719 0 5230.72125688 0 -240.55622178 0 -150.40756757 0 13791
0.11450000 0.11448600 15189.12590947 0 329.77480070 0 4830.40135306 0 177.09962101 0 521.82981084 0 14205
0.11550000 0.11549300 14781.88580264 0 229.68430604 0 4490.38133020 0 -77.33797439 0 -40.89828908 0 14776
0.11650000 0.11649800 14681.34909328 0 267.49075913 0 4575.07354274 0 187.97596568 0 -11.51698938 0 14553
0.11750000 0.11747300 14615.13659087 0 212.17120987 0 4800.98218601 0 -134.63393363 0 -903.64453819 0 14568
0.11850000 0.11849100 14131.05454980 0 402.07818900 0 4876.96047892 0 -32.44866584 0 -12.41650505 0 16015
0.11950000 0.11950300 14163.49646152 0 155.52741057 0 4682.84048020 0 42.48273876 0 64.21505502 0 15270
0.12050000 0.12050700 14259.38279445 0 -339.08330418 0 4951.85368399 0 674.96227755 0 96.19491862 0 15999
0.12150000 0.12150000 14246.42817441 0 -162.91818738 0 4645.61532416 0 667.28140582 0 -100.99311058 0 15670
0.12250000 0.12250700 14324.26661788 0 172.05064089 0 4372.58286646 0 377.09459528 0 -345.87396099 0 16887
0.12350000 0.12352200 14117.10342053 0 336.29086386 0 4055.29432645 0 188.07672383 0 195.69669777 0 16407
0.12450000 0.12449800 13729.68277512 0 300.37334938 0 4016.72941911 0 430.86291183 0 270.97411252 0 16306
0.12550000 0.12549900 13472.02977659 0 422.16006452 0 4134.26214706 0 220.75558330 0 354.97873369 0 17523
0.12650000 0.12650100 13278.92843175 0 338.33370779 0 4219.06508285 0 -84.47253761 0 383.20430411 0 17154
0.12750000 0.12750600 12893.27935832 0 93.99097237 0 3881.56955005 0 180.69148318 0 518.86021333 0 18007
0.12850000 0.12850300 12928.15718150 0 89.08106065 0 4121.72827537 0 66.77198699 0 776.39473798 0 17496
0.12950000 0.12949900 13036.66596472 0 -79.61101196 0 3833.53780499 0 447.82682069 0 361.48593898 0 18405
0.13050000 0.13049000 13131.00217218 0 41.57757620 0 3653.25821229 0 218.83674941 0 356.52664470 0 18100
0.13150000 0.13148800 12806.58305499 0 378.22175795 0 3655.43946028 0 -64.83643389 0 51.06356905 0 19059
0.13250000 0.13249300 12459.90856492 0 354.29778571 0 3531.91660460 0 76.52083682 0 489.06126554 0 18957
0.13350000 0.13349100 12429.90256466 0 63.32340070 0 3629.31984603 0 55.77639338 0 178.42387106 0 19468
0.13450000 0.13450700 12268.68951530 0 39.99644822 0 3493.24097401 0 179.75476450 0 514.60068997 0 19953
0.13550000 0.13551000 12204.13786161 0 178.84240494 0 3507.00387376 0 28.09314542 0 16.46255399 0 19956
0.13650000 0.13649900 12064.73729214 0 439.49932519 0 3959.78445257 0 -320.01897530 0 508.50426792 0 19723
0.13750000 0.13749600 11820.81397639 0 310.07049145 0 3625.93171464 0 -237.96751223 0 1064.09581160 0 20946
0.13850000 0.13851100 11637.45627739 0 94.74023659 0 4178.42965076 0 14.84322648 0 870.61136433 0 20955
0.13950000 0.13949800 11748.17952558 0 -78.71581449 0 4173.13707950 0 159.62084905 0 888.54631607 0 20506
0.14050000 0.14048300 11631.58794524 0 175.38230343 0 4324.31860257 0 262.60343496 0 929.91030713 0 21447
0.14150000 0.14148400 11493.29460825 0 342.46589941 0 4141.42594122 0 -39.11575550 0 597.18362463 0 21771
0.14250000 0.14249400 11216.48648779 0 266.12443425 0 4261.01812158 0 179.07935269 0 857.28803587 0 22470
0.14350000 0.14350900 10888.54637131 0 251.98728992 0 3737.74005065 0 386.00560229 0 626.34812820 0 22519
0.14450000 0.14449900 10832.83043282 0 -27.83228145 0 3384.30037012 0 838.91240560 0 380.72078166 0 22218
0.14550000 0.14550500 10700.43864496 0 -106.31480206 0 3243.07286706 0 604.10604211 0 153.97507063 0 23559
0.14650000 0.14650700 10783.82432317 0 104.68296283 0 2958.72449339 0 49.42807595 0 -188.68680893 0 23044
0.14750000 0.14750500 10500.07385504 0 286.85957694 0 2789.28470669 0 23.26361878 0 -16.73725837 0 23649
0.14850000 0.14849900 10293.45320160 0 353.94236408 0 2804.94097398 0 -188.48307816 0 276.26779102 0 23640
0.14950000 0.14949500 10066.78056792 0 146.30084229 0 2808.88272162 0 95.16519241 0 381.00091147 0 24457
0.15050000 0.15050000 9979.91817971 0 20.33377091 0 2848.43306587 0 260.32253604 0 588.53724618 0 24591
0.15150000 0.15149900 10002.16248027 0 30.49871871 0 2843.40623040 0 307.16954235 0 427.88999262 0 25020
0.15250000 0.15250500 9907.90377909 0 116.17636816 0 2823.66427525 0 197.01208996 0 623.09065024 0 25297
0.15350000 0.15350100 9891.48352139 0 195.76977512 0 2705.43399084 0 23.88754429 0 646.18641258 0 25452
0.15450000 0.15450400 9799.52786377 0 56.35746899 0 2723.36008472 0 -351.88734060 0 678.71468843 0 26061
0.15550000 0.15549900 9817.81934437 0 107.51183110 0 3119.55001138 0 -335.29546186 0 360.84152968 0 26128
0.15650000 0.15649500 9671.43213794 0 221.91042678 0 3301.65653767 0 -471.65003476 0 398.58044159 0 26331
0.15750000 0.15749700 9528.84273893 0 168.27387090 0 3299.48636201 0 24.68718759 0 263.50250773 0 27345
0.15850000 0.15849900 9392.05523812 0 92.93644415 0 3059.51586621 0 267.27817049 0 174.80986424 0 26980
0.15950000 0.15949700 9404.67768841 0 67.73915456 0 3101.50212193 0 415.82337303 0 -111.48280967 0 27777
0.16050000 0.16050000 9294.61877971 0 31.53553121 0 3071.52933864 0 583.31110886 0 -7.10878685 0 28224
0.16150000 0.16150500 9194.23708291 0 146.74041359 0 2834.19405615 0 41.42499957 0 391.46979459 0 28075
0.16250000 0.16249700 9191.71259285 0 17.35066516 0 2662.04154987 0 410.16762951 0 291.40365904 0 28590
0.16350000 0.16349900 9040.83002255 0 88.71600610 0 2426.95394932 0 281.03885578 0 520.71261327 0 29163
0.16450000 0.16449100 9068.59941319 0 99.10727222 0 2190.77018862 0 321.78944004 0 369.67060149 0 28996
0.16550000 0.16550500 8959.40414583 0 67.25662265 0 2139.61604796 0 29.13759782 0 434.13921274 0 30777
0.16650000 0.16650700 8878.46545140 0 206.52543145 0 2055.13420959 0 -73.42512553 0 260.88833184 0 29211
0.16750000 0.16749900 8695.30705425 0 248.38546266 0 2190.70375467 0 -289.88232161 0 137.79397514 0 30922
0.16850000 0.16850800 8488.77497941 0 165.90660785 0 2053.71695201 0 -15.64508425 0 298.06255519 0 30867
0.16950000 0.16949900 8484.00280742 0 -46.52192285 0 2217.37698516 0 153.52664147 0 -54.98892964 0 30852
0.17050000 0.17049200 8440.21176276 0 51.00732164 0 2217.96381837 0 34.71926749 0 -72.23540422 0 31257
0.17150000 0.17149500 8417.10382086 0 229.00889422 0 2469.48274895 0 -137.09088251 0 31.09097737 0 32608
0.17250000 0.17250900 8175.92644166 0 380.39193361 0 2373.46354813 0 -56.51547106 0 559.52886239 0 32361
0.17350000 0.17350400 8125.18197702 0 68.82523890 0 2386.06385377 0 102.58608595 0 497.80286599 0 32508
0.17450000 0.17449800 8022.46401968 0 -68.91558907 0 2284.23168241 0 309.59659595 0 538.57891660 0 32791
0.17550000 0.17549800 8060.07670708 0 16.21896284 0 2363.66454066 0 298.40136833 0 659.88287838 0 33633
0.17650000 0.17650100 8080.91482239 0 11.14462710 0 2254.04852496 0 351.97591919 0 419.78062192 0 33984
0.17750000 0.17750300 7894.49008942 0 96.16834504 0 1886.14838821 0 54.19792275 0 477.16405252 0 34069
0.17850000 0.17849800 7907.92081943 0 164.40630784 0 2024.50815914 0 -174.74785922 0 7.18672494 0 34536
