### header ###
fiducial parameters:
Omega_m = 0.31
Omega_nu = 0
Omega_de = 0.69
Omega_k = 0
H_0 = 100
w_de = -1
zeff = 0
beta = 0
fgrowth = 0
b_1 = 2
gamma = 0.55
Lx = 3500 Ly = 3500 Lz = 3500
nx = 700 ny = 700 nz = 700
xoffset = -685.467585 yoffset = -31.7331281 zoffset = 572.489161
bins = 400 dk = 0.001
kx_ny = 0.628318531 ky_ny = 0.628318531 kz_ny = 0.628318531
############################
A(data) = 7.9725802 (not used)
A(ran) = 7.96590483 (used)
Ngal = 473634
weighted Ngal = 0
Nran = 23820508
weighted Nran = 0
SN(data) = 3491.10968
SN(ran) = 69.3859201
SN(data+ran) = 3560.4956
############################
13 columns: k_central k_mean P_0(k) sigma^{lin}_{P_0(k)} P^img_1(k) sigma^{lin}_{P_1(k)} P_2(k) sigma^{lin}_{P_2(k)} P^img_3(k) sigma^{lin}_{P_3(k)} P_4(k) sigma^{lin}_{P_4(k)} N_modes
### header ###
0.00050000 0 0 0 0 0 0 0 0 0 0 0 0
0.00150000 0.00179520 7314.99782539 0 -4420.94678126 0 4660.33044384 0 -12760.52218375 0 -3363.42903784 0 3
0.00250000 0.00253879 13724.14661271 0 -3320.60128544 0 5686.82353313 0 -228.63575688 0 -13005.88490173 0 6
0.00350000 0.00331552 14934.57316189 0 537.14726500 0 2475.10748996 0 323.53776013 0 10136.39227405 0 7
0.00450000 0.00420575 19244.80776729 0 -987.80417191 0 12261.71395067 0 1830.14456927 0 11321.00923407 0 24
0.00550000 0.00557378 25177.47012837 0 -6857.03539856 0 18095.61117436 0 14889.39807663 0 5332.63093451 0 45
0.00650000 0.00659388 47156.03489338 0 -11399.29057054 0 40151.01787362 0 9152.71586484 0 10750.65163802 0 40
0.00750000 0.00754703 45358.66440557 0 -2080.47876110 0 27670.62550778 0 9004.24706134 0 18912.63802273 0 57
0.00850000 0.00846663 54306.09936827 0 6455.60826226 0 40684.92537637 0 14079.12534640 0 21126.77081671 0 75
0.00950000 0.00948925 51885.24626992 0 2184.68040997 0 34763.88895635 0 22071.57229349 0 20006.91588456 0 112
0.01050000 0.01054430 55430.49395360 0 -3504.74511950 0 26553.42793358 0 25828.30138121 0 12694.19895808 0 105
0.01150000 0.01145670 58637.37139083 0 -6857.71081038 0 24712.32176274 0 20072.79621723 0 518.07186380 0 144
0.01250000 0.01249090 70030.35073622 0 -8967.01083298 0 6961.65779577 0 13120.26201710 0 -8222.36377195 0 169
0.01350000 0.01339930 75354.47812527 0 -7778.35247440 0 17846.81603569 0 3844.70978073 0 8563.85641401 0 180
0.01450000 0.01448870 78465.46922956 0 2218.57279624 0 -1427.43304330 0 -3742.92189867 0 -20539.93760133 0 267
0.01550000 0.01550050 76014.49940771 0 8008.81184317 0 1290.03656462 0 -20538.94109209 0 -22266.55593355 0 238
0.01650000 0.01653350 70253.90097431 0 7320.79972359 0 14934.13026889 0 -16398.22377966 0 -17282.90253267 0 315
0.01750000 0.01747870 60829.69170492 0 7525.53808181 0 27152.77287601 0 -4732.72130351 0 -18055.30791202 0 297
0.01850000 0.01844180 60622.52850756 0 -6146.57967658 0 15079.84206351 0 1745.60736928 0 -7769.00743225 0 388
0.01950000 0.01947590 67726.42138796 0 -6725.62904762 0 21193.64765862 0 20172.11497085 0 -12779.45585919 0 399
0.02050000 0.02045430 74722.69127112 0 -3963.10615001 0 18805.67936498 0 2468.12085300 0 -16696.06931728 0 462
0.02150000 0.02154770 71569.07171627 0 4029.41830335 0 12514.05223328 0 461.91524678 0 -10573.49444092 0 571
0.02250000 0.02255340 70539.78840113 0 9346.51476614 0 19213.69453455 0 -15521.95999352 0 -11540.01981899 0 510
0.02350000 0.02348930 62113.52776764 0 5895.48149434 0 22771.45394528 0 -6487.93945073 0 -7291.67950932 0 555
0.02450000 0.02439640 58688.08263850 0 5821.49621990 0 36278.14009855 0 -10491.97998560 0 -7123.42446138 0 592
0.02550000 0.02547300 56006.25484417 0 2004.12400915 0 33308.21041244 0 4064.20754793 0 -12146.56177255 0 837
0.02650000 0.02652900 57526.92793477 0 -3318.76327952 0 28942.83562945 0 6160.76332467 0 -17168.74686379 0 723
0.02750000 0.02749970 57985.98652175 0 1038.33272622 0 26844.40862982 0 10443.42784127 0 -5951.26386677 0 826
0.02850000 0.02848090 62823.59595826 0 -4700.40118736 0 26562.06434694 0 5277.56826318 0 -7307.09218547 0 831
0.02950000 0.02946900 61830.51914528 0 892.92984946 0 20494.98396256 0 5701.38364027 0 -4629.99227384 0 996
0.03050000 0.03053250 63875.02392304 0 558.33194407 0 19756.12772741 0 6303.60738715 0 263.68741556 0 1041
0.03150000 0.03150510 55409.89942944 0 1056.33521914 0 22244.41128391 0 10846.44939235 0 4356.49477849 0 1036
0.03250000 0.03246190 56320.04452953 0 7173.57102048 0 14922.17215809 0 1584.83721292 0 -6195.02109766 0 1059
0.03350000 0.03345080 51942.04729624 0 3724.25395903 0 19804.84595662 0 3411.56043382 0 4014.69211134 0 1302
0.03450000 0.03451200 47718.61971742 0 932.26760508 0 15202.08052951 0 -1681.81970600 0 -2087.41003644 0 1339
0.03550000 0.03553350 50334.56717907 0 -2704.81394065 0 10524.07865525 0 1202.26624578 0 -4742.80819142 0 1365
0.03650000 0.03647120 49984.68171480 0 -2622.90088164 0 12278.43316114 0 -479.42945018 0 -10214.70682749 0 1308
0.03750000 0.03744890 50241.22748085 0 2908.52257266 0 10684.85988394 0 -4014.43744787 0 -10879.02417196 0 1579
0.03850000 0.03847530 48186.64688750 0 4056.46799288 0 9008.21095363 0 -399.13184337 0 -5244.91597729 0 1662
0.03950000 0.03950240 45030.92359094 0 1560.54453226 0 7140.87444529 0 3758.48958736 0 407.39290491 0 1683
0.04050000 0.04050350 44163.40694140 0 398.26155863 0 8463.57436813 0 2928.33096176 0 -2633.54138579 0 1822
0.04150000 0.04152450 44816.89555219 0 -276.86348209 0 9528.98667915 0 2655.14349151 0 -8257.76199440 0 1887
0.04250000 0.04250150 43964.43726441 0 1963.39999847 0 11581.98393005 0 -5662.05474251 0 -2379.63083305 0 1920
0.04350000 0.04349210 42721.12591052 0 3971.37717665 0 13845.49929272 0 -4589.03574434 0 2090.52135971 0 2005
0.04450000 0.04448520 40936.82076600 0 842.97816328 0 15213.04213108 0 -776.01385001 0 3585.98276669 0 2151
0.04550000 0.04548030 40507.10383978 0 282.06858199 0 15657.26380280 0 2846.41790275 0 2009.31692949 0 2274
0.04650000 0.04648670 41304.75411972 0 -305.57734204 0 15409.46517336 0 2119.73015258 0 1604.08091345 0 2311
0.04750000 0.04749250 41417.13821663 0 -992.97162590 0 15807.29380409 0 3611.93629607 0 -549.72099706 0 2568
0.04850000 0.04851840 41681.98822629 0 -303.36509154 0 15416.99435423 0 66.54068612 0 -1719.02271739 0 2493
0.04950000 0.04949480 40728.32888966 0 597.03304101 0 15251.90599119 0 -1129.34391453 0 -1602.18754591 0 2644
0.05050000 0.05050630 40054.57792445 0 1552.52816910 0 14529.21535028 0 -1216.97029314 0 -2487.60814468 0 2829
0.05150000 0.05149060 39581.23603845 0 1427.90915326 0 15348.67811010 0 1607.48011717 0 176.21051333 0 2784
0.05250000 0.05249300 38798.42267377 0 1168.37385951 0 12909.11278281 0 609.16388008 0 -4366.32700293 0 3055
0.05350000 0.05348950 36489.06788635 0 2184.73577159 0 12397.79282269 0 463.52184112 0 -4216.21949537 0 3009
0.05450000 0.05448610 35248.30316717 0 1731.10262377 0 10461.33179050 0 1584.15072878 0 -6285.22732795 0 3336
0.05550000 0.05550870 33916.74538448 0 1095.35852073 0 11518.42878559 0 1467.33770194 0 -5068.44526433 0 3349
0.05650000 0.05647670 33714.12184030 0 -909.34678547 0 10939.26869130 0 2121.68995407 0 -3591.36391655 0 3324
0.05750000 0.05747970 33998.68058814 0 -354.44726209 0 10000.78951200 0 1560.58882156 0 -3508.50970993 0 3639
0.05850000 0.05849280 33842.00719195 0 201.47423687 0 10165.53463297 0 1321.82520917 0 -650.47029505 0 3846
0.05950000 0.05951020 34342.25482726 0 507.86982371 0 8684.72191173 0 1585.46833543 0 -1788.96659327 0 3787
0.06050000 0.06049470 33514.15565407 0 731.18089958 0 8495.63982080 0 1266.44144043 0 2488.07318232 0 3930
0.06150000 0.06148310 32937.84114726 0 832.13171389 0 9324.34797185 0 -16.54083532 0 -2264.81082468 0 4083
0.06250000 0.06249100 32835.97575893 0 474.91747782 0 8621.77574513 0 -2492.77892037 0 905.35742684 0 4303
0.06350000 0.06350600 31781.22609671 0 1164.28817166 0 11698.46478714 0 -1679.80454289 0 -556.27027719 0 4470
0.06450000 0.06451750 31649.02253837 0 926.41920311 0 13240.83963438 0 -2569.08938302 0 244.57436845 0 4479
0.06550000 0.06550280 31135.82028303 0 260.38011213 0 14926.04747178 0 -90.34972763 0 -2215.00750765 0 4636
0.06650000 0.06648880 31293.93308144 0 23.86384951 0 15126.34582775 0 882.28934531 0 -3634.14737965 0 4653
0.06750000 0.06749660 30825.46301836 0 297.65066470 0 14987.16670478 0 912.39942543 0 1165.55041668 0 5220
0.06850000 0.06852730 31310.65229191 0 473.50354194 0 13861.88633346 0 4032.90608567 0 784.76320108 0 5029
0.06950000 0.06949320 30054.05414824 0 837.73873917 0 11807.85935635 0 4290.85803697 0 2188.47821738 0 5040
0.07050000 0.07048030 29735.83553296 0 -94.15949315 0 9028.19649993 0 4747.21497670 0 311.59072165 0 5475
0.07150000 0.07148790 29038.50051588 0 110.95355254 0 7835.87320183 0 1577.16409182 0 -425.77296411 0 5509
0.07250000 0.07249820 28575.01299897 0 1139.51938104 0 7546.89659639 0 -790.36690467 0 -322.55896662 0 5916
0.07350000 0.07351270 27642.61252599 0 1401.80061134 0 9354.34289979 0 -2491.26201187 0 1000.61153002 0 5721
0.07450000 0.07449140 26582.32670136 0 821.62407763 0 9117.27335309 0 -1147.58003350 0 3236.41839984 0 6028
0.07550000 0.07549160 26868.10340493 0 143.09097533 0 9691.30696099 0 908.07014642 0 3415.03714382 0 6183
0.07650000 0.07648840 26517.33215467 0 4.59544662 0 9186.56396181 0 2141.38761993 0 2937.03380907 0 6330
0.07750000 0.07749960 27112.35889043 0 -55.68305368 0 9524.98956989 0 2366.91980416 0 2820.49759035 0 6583
0.07850000 0.07848650 26042.99375944 0 96.11287270 0 8905.16082654 0 1272.73052093 0 3257.51117862 0 6549
0.07950000 0.07947320 26068.01721353 0 780.61440097 0 8051.48458302 0 380.39414807 0 2611.56282103 0 6828
0.08050000 0.08048110 25448.96353292 0 736.96508207 0 7792.07108485 0 -679.58386593 0 1926.81703727 0 7147
0.08150000 0.08149960 24318.03627594 0 1024.38048971 0 8044.28757189 0 -1021.94679272 0 2171.48219878 0 7386
0.08250000 0.08250610 23588.37007040 0 716.56210913 0 7946.03176145 0 -962.84161560 0 1042.66864861 0 7227
0.08350000 0.08350160 23678.38807117 0 382.18675746 0 8013.94940189 0 -586.97051222 0 -764.52077685 0 7798
0.08450000 0.08449610 23378.10662209 0 246.94716766 0 8500.12411235 0 -942.88817905 0 -1881.84125385 0 7371
0.08550000 0.08548940 22771.89683827 0 791.49849627 0 8975.60295704 0 -42.23626881 0 -1128.66850271 0 8256
0.08650000 0.08650700 22586.65684405 0 543.49724328 0 9031.23031693 0 369.00847646 0 -373.86479813 0 8037
0.08750000 0.08749060 22083.64112754 0 -94.38813666 0 7956.26258958 0 2338.99540096 0 555.03128404 0 8155
0.08850000 0.08849210 22141.88155609 0 -422.55977545 0 8052.96827455 0 2580.46066061 0 -479.01977416 0 8718
0.08950000 0.08949900 22412.26772816 0 316.97076428 0 7577.58908079 0 1711.47139187 0 291.31175875 0 8571
0.09050000 0.09049190 21320.09360805 0 953.42238888 0 7438.02242645 0 655.20039221 0 498.10846215 0 8932
0.09150000 0.09150830 20575.14759425 0 1273.64952389 0 7708.94007011 0 -1189.38913202 0 2518.16776118 0 9285
0.09250000 0.09250820 19703.53418453 0 1022.49930172 0 8583.49871824 0 -430.49420341 0 3068.39587072 0 9204
0.09350000 0.09350330 19380.22229982 0 553.72253525 0 8511.13000322 0 1112.15966641 0 3152.80020281 0 9349
0.09450000 0.09448040 18628.85433763 0 337.75130350 0 8322.76761341 0 -310.58867626 0 3017.18636843 0 9564
0.09550000 0.09549270 18634.27977679 0 384.40565136 0 8390.04305900 0 772.40095042 0 1661.35804974 0 10155
0.09650000 0.09649430 18153.40870992 0 274.27698701 0 7752.46537897 0 960.47213809 0 2314.60306939 0 9913
0.09750000 0.09749140 17597.02438778 0 153.59971881 0 6969.07625340 0 485.60559297 0 1300.10130788 0 10476
0.09850000 0.09850240 17747.94017506 0 -39.50738363 0 6311.47981010 0 881.99260701 0 617.00972945 0 10575
0.09950000 0.09950330 17777.17111258 0 99.86174043 0 5120.54055261 0 -323.64848338 0 -246.20532190 0 10882
0.10050000 0.10051200 17134.31193361 0 527.74575399 0 4604.61450536 0 202.53053665 0 -649.25676825 0 10875
0.10150000 0.10150300 17058.90940159 0 126.40830352 0 4753.08330885 0 -510.00899687 0 -1041.65220920 0 11118
0.10250000 0.10250800 16646.13313235 0 200.87854579 0 4243.51277605 0 95.10794849 0 -1772.86743299 0 11575
0.10350000 0.10349800 16360.68859853 0 424.13536727 0 4398.96821650 0 130.86823596 0 -2475.08534531 0 11364
0.10450000 0.10450100 16214.20174118 0 619.31720194 0 5086.67031099 0 -215.96901729 0 -1513.88575548 0 12093
0.10550000 0.10551000 15759.23991438 0 335.09837447 0 4666.07698042 0 81.23355043 0 -267.39000098 0 12067
0.10650000 0.10649700 15648.40594294 0 203.75513578 0 5429.39198110 0 603.00988195 0 -73.21264761 0 12054
0.10750000 0.10749900 15542.44379443 0 199.75802652 0 5513.45307112 0 829.95046590 0 899.86112480 0 12807
0.10850000 0.10850100 15431.16693000 0 134.97496124 0 5806.18319468 0 680.94576188 0 1503.14560040 0 12736
0.10950000 0.10950300 15352.66414704 0 119.64532753 0 5796.47276581 0 538.65420840 0 1926.10840848 0 12933
0.11050000 0.11050200 15087.81413738 0 353.65337641 0 5831.23986574 0 63.95629479 0 2067.08124807 0 13428
0.11150000 0.11150900 14909.32826130 0 508.82093641 0 5589.24313450 0 -108.27172475 0 2076.31556697 0 13453
0.11250000 0.11250000 14438.53301001 0 405.99114859 0 5416.84703708 0 359.37001771 0 2553.36668178 0 13668
0.11350000 0.11349100 14172.46504462 0 -130.62685928 0 4893.98971449 0 272.33268677 0 1474.31326658 0 13791
0.11450000 0.11448600 14687.10670219 0 -401.12375460 0 4831.27606672 0 934.78213005 0 1123.82989677 0 14205
0.11550000 0.11549300 14538.73754962 0 -288.08749776 0 4306.53644891 0 529.37117128 0 523.11862945 0 14776
0.11650000 0.11649800 14852.97012797 0 97.18821688 0 3479.79917168 0 229.95779246 0 80.39116796 0 14553
0.11750000 0.11747300 14439.19734950 0 461.30626892 0 3784.39882744 0 15.79312123 0 475.23082461 0 14568
0.11850000 0.11849100 14293.70700138 0 427.91324450 0 4082.99728315 0 -225.54325656 0 132.96644151 0 16015
0.11950000 0.11950300 13961.98014982 0 335.55123256 0 4315.16178995 0 -36.99972351 0 421.75813913 0 15270
0.12050000 0.12050700 13572.45576270 0 230.34089490 0 4139.41077810 0 -214.95368510 0 476.22401215 0 15999
0.12150000 0.12150000 13739.64786746 0 85.63169930 0 4294.52297648 0 181.87068577 0 771.19738871 0 15670
0.12250000 0.12250700 13602.01886996 0 -181.86847131 0 4423.09481228 0 429.11569897 0 -23.19818134 0 16887
0.12350000 0.12352200 13811.39653228 0 139.17580127 0 4284.65753507 0 108.04762089 0 779.66218103 0 16407
0.12450000 0.12449800 13574.67022766 0 312.87954026 0 4383.73269755 0 -107.89504426 0 -7.71262715 0 16306
0.12550000 0.12549900 13354.88458001 0 155.51523101 0 4124.78423702 0 169.62026559 0 652.15107396 0 17523
0.12650000 0.12650100 13378.57935512 0 106.46073530 0 4435.45152678 0 395.42704348 0 623.50918412 0 17154
0.12750000 0.12750600 13040.54127841 0 161.32930877 0 4281.70122434 0 277.16354209 0 100.02693952 0 18007
0.12850000 0.12850300 12774.36258977 0 405.16847486 0 3965.94066517 0 430.00259219 0 614.07556337 0 17496
0.12950000 0.12949900 12586.02234460 0 471.39980022 0 3821.92293625 0 295.25572085 0 640.82851460 0 18405
0.13050000 0.13049000 12303.89950822 0 1.55534054 0 3779.03982223 0 -75.59740493 0 976.51482952 0 18100
0.13150000 0.13148800 12307.33192892 0 -46.75377733 0 3771.32241183 0 101.39747188 0 341.30441253 0 19059
0.13250000 0.13249300 12465.44472733 0 170.61013143 0 3741.28319460 0 -248.98336820 0 773.36867161 0 18957
0.13350000 0.13349100 12398.45716218 0 129.58052459 0 4143.92828663 0 -577.15268180 0 491.24472800 0 19468
0.13450000 0.13450700 12266.03215734 0 370.29729507 0 4405.03585050 0 -549.31574997 0 515.44550835 0 19953
0.13550000 0.13551000 11908.94968194 0 279.15988226 0 4550.30475212 0 -110.75092900 0 191.75162844 0 19956
0.13650000 0.13649900 11867.76063362 0 210.34095458 0 4543.29597051 0 556.39207276 0 -44.13439745 0 19723
0.13750000 0.13749600 11461.84920577 0 111.85373255 0 4121.32967167 0 637.97185480 0 190.07749293 0 20946
0.13850000 0.13851100 11408.92349313 0 53.51343163 0 3738.92478941 0 989.05313015 0 -495.77884501 0 20955
0.13950000 0.13949800 11236.19522596 0 123.73765878 0 3428.39036755 0 852.92332543 0 -87.66801056 0 20506
0.14050000 0.14048300 11124.58619179 0 75.81309382 0 2912.54182657 0 152.74382811 0 -235.88702240 0 21447
0.14150000 0.14148400 10934.58509790 0 336.30082895 0 2648.51116895 0 144.04540973 0 330.00289059 0 21771
0.14250000 0.14249400 10718.51975139 0 177.17823452 0 3043.90388822 0 -19.29629408 0 468.16335968 0 22470
0.14350000 0.14350900 10615.28139478 0 99.74581319 0 2603.23643276 0 -45.42155521 0 137.20603469 0 22519
0.14450000 0.14449900 10748.50360700 0 32.99087758 0 3122.99350440 0 -29.36413759 0 115.45445258 0 22218
0.14550000 0.14550500 10664.79683137 0 -63.57330307 0 2904.08257041 0 -22.18307060 0 121.22756274 0 23559
0.14650000 0.14650700 10632.22205175 0 214.32920598 0 2898.87857774 0 108.04784234 0 170.86479490 0 23044
0.14750000 0.14750500 10500.49460339 0 207.43004039 0 2881.36215988 0 -33.28551215 0 235.45630897 0 23649
0.14850000 0.14849900 10310.55994345 0 87.80508594 0 2778.67741951 0 433.07405510 0 337.70922867 0 23640
0.14950000 0.14949500 10298.40253080 0 116.83295702 0 2804.26556217 0 465.19486940 0 363.45238387 0 24457
0.15050000 0.15050000 10123.64802818 0 78.75567486 0 2529.47260482 0 156.07881234 0 492.54572616 0 24591
0.15150000 0.15149900 10181.16875562 0 80.73928185 0 2436.89689701 0 199.36274452 0 305.31271348 0 25020
0.15250000 0.15250500 9962.27996628 0 70.86852572 0 2321.74471890 0 28.35378795 0 611.04285360 0 25297
0.15350000 0.15350100 10017.99590477 0 105.33301902 0 2334.63290499 0 227.38015524 0 741.02419635 0 25452
0.15450000 0.15450400 9962.85572717 0 -13.12280865 0 2037.08632013 0 313.60256307 0 331.93279681 0 26061
0.15550000 0.15549900 9793.13913235 0 159.96630558 0 1964.78403907 0 118.72632457 0 540.68819447 0 26128
0.15650000 0.15649500 9737.40104921 0 362.67732113 0 1973.25436756 0 134.22979378 0 414.24224505 0 26331
0.15750000 0.15749700 9355.12903485 0 244.56551059 0 2043.14288181 0 -149.29922785 0 791.25269066 0 27345
0.15850000 0.15849900 9227.34333412 0 243.46159981 0 2212.11763087 0 -12.78200249 0 737.17767071 0 26980
0.15950000 0.15949700 9127.60383215 0 75.96135225 0 2177.32838629 0 -27.89472936 0 1097.81214791 0 27777
0.16050000 0.16050000 9129.86258641 0 65.33646008 0 2531.06701959 0 61.80095604 0 802.22757902 0 28224
0.16150000 0.16150500 8941.47805195 0 275.70199522 0 2570.35162805 0 -242.76736504 0 680.93358232 0 28075
0.16250000 0.16249700 8759.62618913 0 293.83735604 0 2738.47380810 0 -208.35679397 0 499.28323581 0 28590
0.16350000 0.16349900 8555.03177113 0 230.05855062 0 2626.43295326 0 -132.15594734 0 667.31905173 0 29163
0.16450000 0.16449100 8457.49566180 0 49.80121329 0 2725.09843972 0 -151.70856574 0 347.55473989 0 28996
0.16550000 0.16550500 8485.23183547 0 -88.91176480 0 2878.28405358 0 199.80895921 0 79.75207337 0 30777
0.16650000 0.16650700 8573.48933660 0 8.86598694 0 2825.56871512 0 -109.99059245 0 90.47296260 0 29211
0.16750000 0.16749900 8526.03335243 0 101.05489415 0 2729.06233200 0 73.22682019 0 43.52032632 0 30922
0.16850000 0.16850800 8568.09711441 0 36.09522529 0 2778.30096047 0 202.48181842 0 149.47970675 0 30867
0.16950000 0.16949900 8427.58931246 0 148.33815006 0 2767.11791240 0 271.36828728 0 123.14196770 0 30852
0.17050000 0.17049200 8356.69321665 0 139.63198106 0 2649.56303980 0 133.59202787 0 338.81203222 0 31257
0.17150000 0.17149500 8336.25370504 0 80.21777536 0 2660.82359414 0 -4.79685221 0 244.21230343 0 32608
0.17250000 0.17250900 8187.79597387 0 143.93690094 0 2632.16841751 0 17.50290963 0 232.84877647 0 32361
0.17350000 0.17350400 8173.96664017 0 94.46320702 0 2418.88222453 0 87.53314964 0 276.61103308 0 32508
0.17450000 0.17449800 8168.78479215 0 -8.72829151 0 2403.31453584 0 76.98786748 0 13.39341627 0 32791
0.17550000 0.17549800 8069.12279646 0 104.12137451 0 2427.26397442 0 38.03033550 0 -13.04563455 0 33633
0.17650000 0.17650100 7985.52674408 0 151.20366772 0 2383.10754304 0 -90.18430709 0 -248.74752768 0 33984
0.17750000 0.17750300 7901.34385848 0 125.89454765 0 2331.53265404 0 68.33728155 0 -119.51799579 0 34069
0.17850000 0.17849800 7794.87238303 0 50.50962063 0 2280.68853847 0 190.85477013 0 28.74541608 0 34536
