### header ###
fiducial parameters:
Omega_m = 0.31
Omega_nu = 0
Omega_de = 0.69
Omega_k = 0
H_0 = 100
w_de = -1
zeff = 0
beta = 0
fgrowth = 0
b_1 = 2
gamma = 0.55
Lx = 3500 Ly = 3500 Lz = 3500
nx = 700 ny = 700 nz = 700
xoffset = -685.467585 yoffset = -31.7331281 zoffset = 572.489161
bins = 400 dk = 0.001
kx_ny = 0.628318531 ky_ny = 0.628318531 kz_ny = 0.628318531
############################
A(data) = 8.09681524 (not used)
A(ran) = 8.10020929 (used)
Ngal = 481073
weighted Ngal = 0
Nran = 23820508
weighted Nran = 0
SN(data) = 3487.99442
SN(ran) = 70.5557606
SN(data+ran) = 3558.55018
############################
13 columns: k_central k_mean P_0(k) sigma^{lin}_{P_0(k)} P^img_1(k) sigma^{lin}_{P_1(k)} P_2(k) sigma^{lin}_{P_2(k)} P^img_3(k) sigma^{lin}_{P_3(k)} P_4(k) sigma^{lin}_{P_4(k)} N_modes
### header ###
0.00050000 0 0 0 0 0 0 0 0 0 0 0 0
0.00150000 0.00179520 3144.29665735 0 248.67002140 0 1589.89726536 0 -7105.97447746 0 -29532.65837253 0 3
0.00250000 0.00253879 17713.94813786 0 -16478.71958109 0 -21006.19319944 0 13959.76568485 0 7051.62043493 0 6
0.00350000 0.00331552 26924.12936851 0 -24382.14503664 0 1594.44799086 0 -24136.45014892 0 -1465.77650414 0 7
0.00450000 0.00420575 39238.10469232 0 -15324.98333499 0 7398.90390286 0 1873.83596301 0 16480.26970657 0 24
0.00550000 0.00557378 45528.73531478 0 6149.83494007 0 11883.81550460 0 5706.73157315 0 19062.22513103 0 45
0.00650000 0.00659388 42094.98594203 0 6480.64278868 0 -2239.73200897 0 19743.94817011 0 50089.86880058 0 40
0.00750000 0.00754703 58891.59196866 0 -17703.09725954 0 20460.65975562 0 16210.10498099 0 -3622.54358324 0 57
0.00850000 0.00846663 72968.39212685 0 -23332.37792059 0 18614.79248511 0 26957.56778946 0 61983.53867427 0 75
0.00950000 0.00948925 85166.88310280 0 672.08568756 0 30087.49256920 0 6257.12576756 0 7615.79967374 0 112
0.01050000 0.01054430 99619.81013508 0 -5724.38085892 0 13321.99977530 0 16580.58496943 0 18351.49260092 0 105
0.01150000 0.01145670 101333.03095427 0 -16317.06363874 0 25479.19097968 0 -5145.45328345 0 8798.72256806 0 144
0.01250000 0.01249090 106019.50315701 0 3397.69788315 0 35941.87359381 0 -10849.52749865 0 -25807.81758029 0 169
0.01350000 0.01339930 110006.31515446 0 15483.20685665 0 44353.07586554 0 -10114.00403327 0 6851.18921106 0 180
0.01450000 0.01448870 86249.97791656 0 25560.35112060 0 46030.20090582 0 -2328.91958538 0 31561.32972581 0 267
0.01550000 0.01550050 74013.17669674 0 -212.03944921 0 18030.39518118 0 17955.76771190 0 2643.68363532 0 238
0.01650000 0.01653350 92509.60602953 0 -16035.71586510 0 40817.35038120 0 30284.69067422 0 -936.28907345 0 315
0.01750000 0.01747870 81408.05027337 0 -1465.82079344 0 26536.15510686 0 -2013.36940037 0 -9315.20223155 0 297
0.01850000 0.01844180 86103.82322895 0 5494.68548055 0 32547.98459040 0 3777.27932258 0 12096.18269463 0 388
0.01950000 0.01947590 87233.42180695 0 7422.00077244 0 21893.75075690 0 3749.84210168 0 19416.42880198 0 399
0.02050000 0.02045430 76221.44115857 0 511.05422433 0 22111.54338608 0 11506.02778179 0 6033.94091620 0 462
0.02150000 0.02154770 72344.13445357 0 6803.73322689 0 23535.44435776 0 9383.11987199 0 -11286.13141089 0 571
0.02250000 0.02255340 67006.60955150 0 6610.00075953 0 26226.68362818 0 230.96758848 0 847.35948221 0 510
0.02350000 0.02348930 62240.74877981 0 1912.87698032 0 10540.19996019 0 -5136.28539850 0 6255.38741257 0 555
0.02450000 0.02439640 64905.08230092 0 -98.82802819 0 19291.09008503 0 -5889.50243894 0 3584.23333937 0 592
0.02550000 0.02547300 70502.25321999 0 -6944.27424581 0 18052.65055407 0 -2847.00473597 0 -12363.69006225 0 837
0.02650000 0.02652900 70559.82930905 0 -3831.51156954 0 20082.09697008 0 -1359.61505378 0 -12780.56309167 0 723
0.02750000 0.02749970 76848.90980604 0 6197.96633606 0 25898.83209030 0 -6144.54236881 0 -10098.02666855 0 826
0.02850000 0.02848090 67637.73206616 0 6525.69607837 0 27950.64460245 0 2828.86826792 0 979.49771383 0 831
0.02950000 0.02946900 63747.69218763 0 4452.87936604 0 17756.24441867 0 10787.97644498 0 319.94036180 0 996
0.03050000 0.03053250 59119.34969018 0 -621.68557222 0 15771.86236467 0 10769.72925368 0 -6099.45586215 0 1041
0.03150000 0.03150510 60938.53265789 0 -484.88257016 0 17447.43727948 0 5536.51672372 0 -10862.00600872 0 1036
0.03250000 0.03246190 55309.58416658 0 5743.34775133 0 16128.39122383 0 -4100.91230471 0 -6782.03147024 0 1059
0.03350000 0.03345080 54577.59277282 0 5142.98415501 0 13697.24086340 0 -14606.61090076 0 -6608.50599568 0 1302
0.03450000 0.03451200 50717.11600155 0 -1355.81724637 0 12014.46893746 0 -412.88809972 0 -3397.00032669 0 1339
0.03550000 0.03553350 52587.56383317 0 -1127.36196838 0 19165.30847509 0 -5388.90048924 0 -10326.29371702 0 1365
0.03650000 0.03647120 55492.05607960 0 610.85351685 0 21031.32737678 0 608.18840827 0 -18554.44831485 0 1308
0.03750000 0.03744890 50614.69699698 0 2677.75317879 0 20395.66520894 0 1794.61347893 0 -14373.09557033 0 1579
0.03850000 0.03847530 50075.47477831 0 3555.98783876 0 16973.09888425 0 1513.06640344 0 -12771.81595506 0 1662
0.03950000 0.03950240 47306.17561792 0 265.91184561 0 16001.83455116 0 7236.77185054 0 -8508.01867995 0 1683
0.04050000 0.04050350 47008.21935705 0 1254.59405288 0 13503.80734882 0 9674.54346122 0 -3475.20415688 0 1822
0.04150000 0.04152450 45475.80960215 0 149.74101361 0 9088.73997204 0 12530.21782752 0 -3886.93962759 0 1887
0.04250000 0.04250150 43219.82342035 0 479.49699136 0 4222.86289026 0 3127.69924245 0 -404.76101330 0 1920
0.04350000 0.04349210 43016.53553668 0 2981.31203602 0 7053.45844085 0 -1010.70063240 0 518.04750468 0 2005
0.04450000 0.04448520 42139.38596455 0 2003.95792428 0 9731.23376429 0 -6640.12855537 0 4153.93766826 0 2151
0.04550000 0.04548030 40039.07666970 0 1911.01682975 0 11172.30791176 0 -4772.34915403 0 8366.24863297 0 2274
0.04650000 0.04648670 40012.94598313 0 -0.11575783 0 12728.96605801 0 -1233.64521432 0 9717.18298409 0 2311
0.04750000 0.04749250 41471.72477798 0 -456.09452563 0 15531.81436260 0 514.70809152 0 3561.73437534 0 2568
0.04850000 0.04851840 40682.82163466 0 1489.86988295 0 16975.31334921 0 1621.17658297 0 -808.30849981 0 2493
0.04950000 0.04949480 40187.55654552 0 1778.53646329 0 17984.66647968 0 -965.33953208 0 2952.31361732 0 2644
0.05050000 0.05050630 37764.71042870 0 1668.09002323 0 15858.89083775 0 1356.24906704 0 2666.96873442 0 2829
0.05150000 0.05149060 36928.52845840 0 853.38725584 0 14521.90761590 0 3127.49994060 0 1706.74350917 0 2784
0.05250000 0.05249300 36110.06220780 0 12.28529800 0 12406.76140579 0 2447.13879747 0 339.08773311 0 3055
0.05350000 0.05348950 35665.50836633 0 568.97134099 0 11654.61838086 0 2122.77504191 0 1780.90594081 0 3009
0.05450000 0.05448610 35184.19440647 0 867.07929271 0 9687.33199638 0 2678.49502455 0 -38.23628074 0 3336
0.05550000 0.05550870 33948.85512645 0 -671.45677951 0 6160.46437190 0 2948.74832873 0 857.83390149 0 3349
0.05650000 0.05647670 35077.23574872 0 -723.32287066 0 6727.47812586 0 787.51356656 0 -528.92052766 0 3324
0.05750000 0.05747970 34337.49372759 0 75.33576590 0 6273.84497804 0 736.28524133 0 579.41697222 0 3639
0.05850000 0.05849280 35003.60478868 0 858.19596651 0 7845.80507719 0 -1901.74929388 0 1602.07682266 0 3846
0.05950000 0.05951020 33947.19427773 0 949.46513999 0 8925.16851749 0 -1902.86759868 0 1048.01215257 0 3787
0.06050000 0.06049470 34408.02443668 0 962.39650814 0 11613.54005578 0 -1129.97503704 0 3259.90280078 0 3930
0.06150000 0.06148310 33544.82599382 0 -186.38376537 0 11780.28926755 0 783.30386867 0 3693.51718533 0 4083
0.06250000 0.06249100 34059.68909789 0 -397.62157826 0 11088.15824314 0 3553.91731402 0 1039.55400364 0 4303
0.06350000 0.06350600 34628.69587032 0 -990.20686639 0 11531.16195913 0 890.73420745 0 445.72418620 0 4470
0.06450000 0.06451750 33952.17682390 0 1495.04065864 0 9291.00920182 0 1834.16382318 0 -907.38809121 0 4479
0.06550000 0.06550280 32394.07927542 0 2411.66306875 0 8000.51867188 0 -235.27472284 0 715.73611369 0 4636
0.06650000 0.06648880 30488.97506712 0 1154.14592212 0 7484.85836043 0 1018.67049180 0 -439.60672674 0 4653
0.06750000 0.06749660 29428.46779599 0 931.59219327 0 6846.09594164 0 -248.07211586 0 -936.80836549 0 5220
0.06850000 0.06852730 29044.47957128 0 891.43951454 0 6577.14917180 0 285.40467346 0 -2286.74510015 0 5029
0.06950000 0.06949320 27727.09436436 0 644.68832703 0 7597.48604849 0 -81.15405114 0 1209.15323182 0 5040
0.07050000 0.07048030 28504.15012013 0 240.77766827 0 7686.52968468 0 -1013.71341198 0 129.48087366 0 5475
0.07150000 0.07148790 27955.62714861 0 -337.27630077 0 9679.66994761 0 -57.08137758 0 537.45175393 0 5509
0.07250000 0.07249820 28836.76275768 0 470.32135579 0 10912.35186967 0 -1069.23779925 0 345.65140726 0 5916
0.07350000 0.07351270 28052.17782103 0 329.10824675 0 11115.72833194 0 -905.41832463 0 1196.61936013 0 5721
0.07450000 0.07449140 28243.50759390 0 946.81442543 0 11619.29766469 0 931.68630803 0 1259.68732229 0 6028
0.07550000 0.07549160 27708.49285866 0 88.31618445 0 11680.52762093 0 508.23188873 0 2675.20654408 0 6183
0.07650000 0.07648840 27182.33598328 0 311.80884645 0 10487.99394867 0 2195.13268460 0 2169.78813309 0 6330
0.07750000 0.07749960 26924.24009176 0 604.99957872 0 9743.31367066 0 2400.91184135 0 1407.27033980 0 6583
0.07850000 0.07848650 26063.58828360 0 575.90150909 0 8788.41423365 0 2093.86520180 0 2068.35456542 0 6549
0.07950000 0.07947320 25783.34774244 0 307.64233062 0 8134.36093429 0 694.46174879 0 1125.50181782 0 6828
0.08050000 0.08048110 25279.66768644 0 388.94641176 0 8434.96348079 0 937.69193701 0 2957.26294651 0 7147
0.08150000 0.08149960 25203.37936844 0 303.83345088 0 8077.58205262 0 3.96807762 0 1727.08336986 0 7386
0.08250000 0.08250610 24934.32187535 0 149.37451966 0 7215.83408431 0 1218.46505699 0 1180.34304264 0 7227
0.08350000 0.08350160 24190.70454053 0 221.23612220 0 6760.49579847 0 -57.62823971 0 1518.58042120 0 7798
0.08450000 0.08449610 24595.73018240 0 436.69359808 0 6835.49972679 0 326.24826525 0 685.40126539 0 7371
0.08550000 0.08548940 24000.92489314 0 365.45758189 0 6166.28841475 0 59.20471731 0 910.97441722 0 8256
0.08650000 0.08650700 23397.81536027 0 943.24802960 0 6991.54200046 0 -443.81753187 0 516.25710976 0 8037
0.08750000 0.08749060 22308.52004461 0 1121.81473365 0 6466.91310590 0 563.40639054 0 302.14049242 0 8155
0.08850000 0.08849210 22073.12241896 0 516.13309972 0 6052.86351931 0 62.50094841 0 -362.41490703 0 8718
0.08950000 0.08949900 21527.03535891 0 299.18528892 0 6040.05283949 0 392.68110693 0 -335.19027477 0 8571
0.09050000 0.09049190 21067.64460218 0 129.99241507 0 6016.95596992 0 -957.66308928 0 -965.28859939 0 8932
0.09150000 0.09150830 21121.67754730 0 297.13026544 0 6128.63143804 0 25.65668035 0 -1676.54927939 0 9285
0.09250000 0.09250820 20526.31864180 0 689.47255922 0 5920.78175655 0 -242.84044239 0 -1099.56932586 0 9204
0.09350000 0.09350330 19990.08595083 0 293.97576010 0 5308.91401475 0 764.21628791 0 -2343.14752277 0 9349
0.09450000 0.09448040 19530.91664060 0 368.39064074 0 5091.01066231 0 847.35837498 0 -1920.24007632 0 9564
0.09550000 0.09549270 19094.66704275 0 562.42427533 0 4672.84217089 0 303.95746092 0 -2525.13225349 0 10155
0.09650000 0.09649430 18691.96658909 0 463.07230473 0 4675.52167349 0 305.74231968 0 -1746.07240693 0 9913
0.09750000 0.09749140 18385.26319162 0 880.36718973 0 5235.17233145 0 -181.45768806 0 -1330.31768231 0 10476
0.09850000 0.09850240 17797.54419024 0 551.18365117 0 5278.81943589 0 -271.36607282 0 -267.66238017 0 10575
0.09950000 0.09950330 17277.36637026 0 93.08392752 0 5536.87103811 0 804.61698671 0 293.99569028 0 10882
0.10050000 0.10051200 17625.59098581 0 -65.94798458 0 5174.90566747 0 1069.14147002 0 884.13731633 0 10875
0.10150000 0.10150300 17690.03191625 0 -100.87319730 0 5571.82636756 0 1210.54834475 0 1283.99107527 0 11118
0.10250000 0.10250800 17441.45822408 0 404.17750178 0 5176.61080549 0 1136.89524005 0 1174.39720421 0 11575
0.10350000 0.10349800 16951.50785085 0 526.65180830 0 4344.53666769 0 137.83272827 0 2131.01285157 0 11364
0.10450000 0.10450100 16726.18604079 0 316.51901343 0 4685.30960863 0 -77.05175480 0 1818.29718172 0 12093
0.10550000 0.10551000 16344.30155780 0 278.38703399 0 5032.59307657 0 237.04850927 0 2003.79183940 0 12067
0.10650000 0.10649700 16345.63023677 0 -4.95834207 0 4711.04169151 0 -22.24297188 0 1811.75343775 0 12054
0.10750000 0.10749900 16411.84273919 0 -41.25415360 0 5161.16491237 0 346.84278941 0 1931.74422181 0 12807
0.10850000 0.10850100 16278.97484137 0 373.25803473 0 4508.15241154 0 -788.08046959 0 1534.32526709 0 12736
0.10950000 0.10950300 15991.86945882 0 446.07628613 0 5172.22616486 0 22.36498890 0 748.95751708 0 12933
0.11050000 0.11050200 15555.06624472 0 491.15172047 0 4816.48344076 0 -423.03809988 0 1305.53781937 0 13428
0.11150000 0.11150900 15078.07049154 0 267.21948717 0 4940.34953851 0 447.95858135 0 653.17083507 0 13453
0.11250000 0.11250000 14878.54719830 0 194.15210846 0 4410.06268597 0 541.30160127 0 583.05312370 0 13668
0.11350000 0.11349100 14712.79449577 0 167.80440432 0 4329.02434062 0 154.98708111 0 -593.07247042 0 13791
0.11450000 0.11448600 14732.17106420 0 35.05365170 0 3998.28292596 0 39.64999518 0 -197.98756178 0 14205
0.11550000 0.11549300 14581.03383043 0 40.98465321 0 4068.60326089 0 125.96098160 0 -889.60261586 0 14776
0.11650000 0.11649800 14642.37450992 0 17.08581515 0 3820.31744915 0 -70.90307138 0 -498.96878179 0 14553
0.11750000 0.11747300 14666.06928503 0 3.13929197 0 3854.94060886 0 75.55488720 0 -785.31903178 0 14568
0.11850000 0.11849100 14720.87729289 0 164.46166946 0 4388.23913375 0 -396.05373707 0 -1112.58041475 0 16015
0.11950000 0.11950300 14407.53050052 0 408.02956359 0 4497.12437602 0 -255.49943135 0 -1059.21291636 0 15270
0.12050000 0.12050700 14203.46755411 0 270.85563864 0 4596.50956359 0 -105.86748014 0 -281.76077136 0 15999
0.12150000 0.12150000 13935.51729350 0 261.87376875 0 4490.08237743 0 130.04224053 0 -762.10701003 0 15670
0.12250000 0.12250700 13948.69336003 0 150.60022602 0 4513.64428465 0 269.03534844 0 -316.50351217 0 16887
0.12350000 0.12352200 13715.28875286 0 15.29265215 0 4435.24115261 0 379.65008785 0 -674.90913039 0 16407
0.12450000 0.12449800 13714.84585986 0 -13.46494349 0 4151.85607120 0 169.36338766 0 -432.04986505 0 16306
0.12550000 0.12549900 13682.51467139 0 91.49383095 0 4350.02854080 0 399.51826750 0 -728.17808509 0 17523
0.12650000 0.12650100 13781.16908553 0 88.11023921 0 4025.91944871 0 185.79803939 0 -765.67119139 0 17154
0.12750000 0.12750600 13458.41081706 0 177.83371614 0 3919.93515555 0 303.22779472 0 -450.96139584 0 18007
0.12850000 0.12850300 13448.77789447 0 40.93228111 0 3598.94845905 0 168.91385127 0 -452.54805999 0 17496
0.12950000 0.12949900 13209.17278540 0 289.18919408 0 3956.93886509 0 336.93748763 0 -408.92420743 0 18405
0.13050000 0.13049000 13164.44059313 0 375.29977143 0 3641.45511403 0 3.17040520 0 -148.16542179 0 18100
0.13150000 0.13148800 12803.15063430 0 267.14530260 0 3829.04244111 0 -350.32282110 0 -418.05001755 0 19059
0.13250000 0.13249300 12561.10961376 0 166.11919649 0 3461.64055898 0 140.63734815 0 -418.52723475 0 18957
0.13350000 0.13349100 12457.80482320 0 179.54992649 0 3678.52525752 0 -83.06225560 0 -233.08793869 0 19468
0.13450000 0.13450700 12418.27662360 0 68.28845260 0 3607.18626872 0 467.64296041 0 -365.45426020 0 19953
0.13550000 0.13551000 12324.82620213 0 109.77025319 0 3579.79333712 0 312.65698653 0 -884.57467316 0 19956
0.13650000 0.13649900 12176.23560307 0 285.26516216 0 3255.70638967 0 21.32717990 0 -995.25031035 0 19723
0.13750000 0.13749600 11908.39606570 0 275.37093270 0 3405.79175259 0 -96.20277997 0 -461.23540604 0 20946
0.13850000 0.13851100 11876.61849347 0 109.89083081 0 3541.01805560 0 -139.81910334 0 -281.56811291 0 20955
0.13950000 0.13949800 11692.37500849 0 207.78324755 0 3787.28870422 0 -66.23243260 0 -442.90185061 0 20506
0.14050000 0.14048300 11584.30911826 0 97.17659094 0 3425.60014169 0 193.37926019 0 69.99646942 0 21447
0.14150000 0.14148400 11476.13250478 0 86.29482083 0 3502.19848479 0 321.00994837 0 -278.31063494 0 21771
0.14250000 0.14249400 11462.18137551 0 135.17204862 0 3727.89675389 0 184.53136543 0 -641.03778154 0 22470
0.14350000 0.14350900 11343.37533021 0 357.56301430 0 3581.75313861 0 119.11496317 0 -149.02020527 0 22519
0.14450000 0.14449900 10914.20094791 0 274.08432856 0 3443.29371675 0 -92.18529764 0 -99.79707806 0 22218
0.14550000 0.14550500 10977.31319938 0 148.46216010 0 3527.15550493 0 249.69088975 0 111.51381218 0 23559
0.14650000 0.14650700 10669.01538713 0 -36.26850718 0 3179.26305913 0 660.41877890 0 195.50403932 0 23044
0.14750000 0.14750500 10730.40035592 0 6.26709086 0 2952.67900404 0 690.82559732 0 296.14815023 0 23649
0.14850000 0.14849900 10803.62163995 0 14.57405827 0 2454.26937465 0 354.81264881 0 90.71954328 0 23640
0.14950000 0.14949500 10590.19150674 0 208.36122290 0 2559.79970250 0 13.49306719 0 -204.05298132 0 24457
0.15050000 0.15050000 10451.23383027 0 387.13608666 0 2588.25557728 0 -270.20015701 0 218.18458948 0 24591
0.15150000 0.15149900 10148.28395091 0 335.49697817 0 2639.36542864 0 -399.05655156 0 296.20904801 0 25020
0.15250000 0.15250500 9977.51548523 0 108.52705256 0 2717.69105441 0 3.54068589 0 206.73580562 0 25297
0.15350000 0.15350100 9979.14311698 0 109.91884379 0 2986.57139031 0 -84.91830941 0 -10.51608444 0 25452
0.15450000 0.15450400 9854.91163251 0 66.82435908 0 2922.85016098 0 79.18417383 0 -199.01728799 0 26061
0.15550000 0.15549900 9892.76791107 0 -10.22295571 0 2981.47812089 0 -16.19681819 0 0.59999489 0 26128
0.15650000 0.15649500 9724.66787567 0 133.34511502 0 2849.29670721 0 116.87503186 0 50.45160165 0 26331
0.15750000 0.15749700 9838.67960433 0 33.25118794 0 3221.39325506 0 114.11248681 0 169.85721335 0 27345
0.15850000 0.15849900 9713.30767041 0 68.07099214 0 3317.08028614 0 76.09001266 0 -93.73852336 0 26980
0.15950000 0.15949700 9658.67681975 0 263.88561017 0 3045.11077162 0 193.35600831 0 -108.85944375 0 27777
0.16050000 0.16050000 9433.58752851 0 246.96931231 0 2874.51946314 0 225.91307220 0 306.57938744 0 28224
0.16150000 0.16150500 9297.59723509 0 46.59987202 0 2779.56320550 0 175.85841340 0 164.32437263 0 28075
0.16250000 0.16249700 9229.81246255 0 98.35546136 0 2638.18068989 0 81.99776229 0 -21.06797677 0 28590
0.16350000 0.16349900 9062.80858731 0 261.31461635 0 2557.23092314 0 149.55499856 0 -324.48555114 0 29163
0.16450000 0.16449100 8778.40485202 0 319.61372822 0 2293.45492899 0 -97.66155877 0 43.50615374 0 28996
0.16550000 0.16550500 8615.09913327 0 165.67519626 0 2189.79582403 0 220.38466042 0 -190.52924378 0 30777
0.16650000 0.16650700 8484.04709671 0 98.93089008 0 2194.26904326 0 418.12198766 0 18.73182696 0 29211
0.16750000 0.16749900 8401.64685541 0 82.10616035 0 2036.65449947 0 68.66922985 0 -391.59159016 0 30922
0.16850000 0.16850800 8318.52691300 0 23.03242864 0 1896.76674771 0 342.80581978 0 12.32792645 0 30867
0.16950000 0.16949900 8215.57643684 0 114.91190867 0 1863.69371347 0 69.71002838 0 87.50856908 0 30852
0.17050000 0.17049200 8293.28201241 0 -38.23517351 0 1780.16409504 0 60.30132036 0 290.87883085 0 31257
0.17150000 0.17149500 8259.64428962 0 -30.85768348 0 1910.67358768 0 219.05598144 0 314.74522699 0 32608
0.17250000 0.17250900 8364.85352004 0 70.91724395 0 1723.31877942 0 158.27113266 0 103.28917858 0 32361
0.17350000 0.17350400 8185.12754359 0 114.98720047 0 1748.45295676 0 -282.91340037 0 157.20043885 0 32508
0.17450000 0.17449800 8176.87866160 0 130.71875958 0 1819.81409022 0 -179.39712841 0 381.08506114 0 32791
0.17550000 0.17549800 8152.32024515 0 154.08247218 0 2098.10590221 0 148.87405058 0 556.76631734 0 33633
0.17650000 0.17650100 7981.09781415 0 38.68592785 0 2017.88690890 0 131.55250564 0 357.85753814 0 33984
0.17750000 0.17750300 7919.28102469 0 91.10187065 0 2018.59553769 0 259.47550320 0 406.55251546 0 34069
0.17850000 0.17849800 7866.51032460 0 134.54203334 0 1963.17855197 0 395.39936267 0 508.68031789 0 34536
