### header ###
fiducial parameters:
Omega_m = 0.31
Omega_nu = 0
Omega_de = 0.69
Omega_k = 0
H_0 = 100
w_de = -1
zeff = 0
beta = 0
fgrowth = 0
b_1 = 2
gamma = 0.55
Lx = 3500 Ly = 3500 Lz = 3500
nx = 700 ny = 700 nz = 700
xoffset = -685.467585 yoffset = -31.7331281 zoffset = 572.489161
bins = 400 dk = 0.001
kx_ny = 0.628318531 ky_ny = 0.628318531 kz_ny = 0.628318531
############################
A(data) = 8.08116302 (not used)
A(ran) = 8.07459405 (used)
Ngal = 479838
weighted Ngal = 0
Nran = 23820508
weighted Nran = 0
SN(data) = 3494.08578
SN(ran) = 70.3326426
SN(data+ran) = 3564.41843
############################
13 columns: k_central k_mean P_0(k) sigma^{lin}_{P_0(k)} P^img_1(k) sigma^{lin}_{P_1(k)} P_2(k) sigma^{lin}_{P_2(k)} P^img_3(k) sigma^{lin}_{P_3(k)} P_4(k) sigma^{lin}_{P_4(k)} N_modes
### header ###
0.00050000 0 0 0 0 0 0 0 0 0 0 0 0
0.00150000 0.00179520 22166.24067069 0 -24299.43477025 0 6049.33144769 0 -26310.05823407 0 -48392.81357562 0 3
0.00250000 0.00253879 42784.23816199 0 -25911.56526384 0 -13539.01734174 0 -332.34579452 0 17051.71239046 0 6
0.00350000 0.00331552 51178.72122324 0 -19238.49654214 0 -13193.45008415 0 -24768.23700307 0 22539.26729383 0 7
0.00450000 0.00420575 56279.07692770 0 -7708.98435941 0 -24557.97355476 0 -17971.04752015 0 17541.44131719 0 24
0.00550000 0.00557378 53912.92111396 0 -247.36348708 0 -28437.38400147 0 -11300.30398666 0 2845.01171750 0 45
0.00650000 0.00659388 45027.82333999 0 -1216.66026805 0 -45404.94672331 0 4821.69850575 0 13121.14780309 0 40
0.00750000 0.00754703 51620.83915325 0 -6247.55927892 0 -34447.99552928 0 1953.34632753 0 1954.88538068 0 57
0.00850000 0.00846663 58520.00474775 0 -17397.05820155 0 -56117.97460159 0 -9482.87044628 0 -14640.93510770 0 75
0.00950000 0.00948925 63382.52691511 0 -7635.84058166 0 -37923.81973635 0 -28978.59923861 0 -21735.30578875 0 112
0.01050000 0.01054430 73730.16807437 0 -1239.10387045 0 -23151.34540980 0 -45490.53579416 0 -8652.06962584 0 105
0.01150000 0.01145670 71807.90176261 0 8564.26609003 0 -14304.22570996 0 -41781.30697991 0 16442.29163244 0 144
0.01250000 0.01249090 68804.31220905 0 2881.71647428 0 8488.87463034 0 -21354.86070798 0 31791.96625178 0 169
0.01350000 0.01339930 76379.88612672 0 -5692.38184019 0 10736.13582018 0 13254.45859391 0 15835.74967888 0 180
0.01450000 0.01448870 93572.65993537 0 -18814.53722484 0 17417.09910948 0 27122.54542926 0 8204.79199246 0 267
0.01550000 0.01550050 88478.94762580 0 -623.24677002 0 10135.28504157 0 19933.61709426 0 25494.47078793 0 238
0.01650000 0.01653350 99196.29371076 0 10845.71861891 0 21074.95233656 0 -6113.76130581 0 6704.14873747 0 315
0.01750000 0.01747870 81963.88097926 0 8428.14292871 0 15758.35412839 0 -9295.15025130 0 21325.07615422 0 297
0.01850000 0.01844180 77170.22867228 0 9570.88435626 0 31549.81450800 0 -2847.74658173 0 4826.21601428 0 388
0.01950000 0.01947590 69568.96696103 0 4984.76063335 0 32938.39476350 0 -5532.23173401 0 8570.17871148 0 399
0.02050000 0.02045430 72509.00137012 0 89.64453126 0 29735.39263996 0 -575.55383810 0 -10812.35770423 0 462
0.02150000 0.02154770 68084.83254234 0 -941.46427807 0 27398.02487075 0 -118.08966589 0 -12687.00194695 0 571
0.02250000 0.02255340 74309.47210888 0 -2933.91141347 0 19500.79991710 0 -8499.95802748 0 -24936.64706356 0 510
0.02350000 0.02348930 74520.17845018 0 -5358.06406462 0 23266.49758792 0 4424.55635916 0 -15839.07137632 0 555
0.02450000 0.02439640 75984.71485395 0 -127.46792501 0 21173.05313446 0 -6508.16858818 0 -22894.68892051 0 592
0.02550000 0.02547300 79491.98446350 0 1488.89551836 0 18849.41504802 0 -3321.37634817 0 -20811.76317562 0 837
0.02650000 0.02652900 75189.16831573 0 4591.53808975 0 27179.34645558 0 -8561.79696159 0 -20017.32386989 0 723
0.02750000 0.02749970 72265.41022411 0 8934.02637734 0 30192.12603873 0 -7358.63385750 0 -14866.36764100 0 826
0.02850000 0.02848090 66793.02440575 0 6230.84006845 0 34092.13100960 0 2781.20190957 0 -5649.19977340 0 831
0.02950000 0.02946900 62591.40930681 0 4037.73361929 0 35599.07441742 0 9064.14833861 0 -8411.06940384 0 996
0.03050000 0.03053250 59609.74295640 0 2007.48999589 0 32669.55871691 0 11958.66442038 0 -4599.60981454 0 1041
0.03150000 0.03150510 56115.31724364 0 1694.26499910 0 30226.67169217 0 12021.33377885 0 -6838.62212239 0 1036
0.03250000 0.03246190 54856.61535825 0 4142.53317370 0 27743.59212834 0 8550.89072164 0 -2861.63127705 0 1059
0.03350000 0.03345080 50756.09058492 0 3162.80958445 0 23074.39275231 0 -962.60245339 0 -640.84401585 0 1302
0.03450000 0.03451200 49198.87882242 0 2796.69209199 0 25658.89481148 0 -2082.32783934 0 810.94814204 0 1339
0.03550000 0.03553350 47250.59254733 0 93.13641034 0 20896.13429074 0 3892.33184977 0 3932.43581027 0 1365
0.03650000 0.03647120 49371.05347335 0 -2620.23245136 0 27231.82927522 0 2516.14152574 0 1652.82128730 0 1308
0.03750000 0.03744890 51656.27059267 0 -2555.69186999 0 22814.74673532 0 7813.08635735 0 3167.67033504 0 1579
0.03850000 0.03847530 54587.55786516 0 -2036.32232972 0 25146.68906537 0 1845.28043730 0 1747.45644753 0 1662
0.03950000 0.03950240 53573.00074203 0 1102.86002079 0 20997.77823258 0 3014.00861121 0 4256.81063815 0 1683
0.04050000 0.04050350 53888.22982961 0 3231.21440718 0 26153.38483788 0 2782.63023947 0 7439.49504565 0 1822
0.04150000 0.04152450 49790.58386073 0 3226.96263445 0 21120.57031482 0 4038.64154993 0 7180.10369212 0 1887
0.04250000 0.04250150 48719.11498803 0 731.36027125 0 18919.17069437 0 3132.22782330 0 6709.08699434 0 1920
0.04350000 0.04349210 45699.80273323 0 1586.37626607 0 16519.79790617 0 3289.14481063 0 2593.57029319 0 2005
0.04450000 0.04448520 45234.98653735 0 996.89787228 0 17080.16826524 0 5496.87780087 0 2993.63553354 0 2151
0.04550000 0.04548030 44144.91615895 0 973.14219938 0 15012.85449835 0 -852.61772926 0 1364.95191434 0 2274
0.04650000 0.04648670 42322.30077055 0 2634.26108690 0 14077.13232793 0 678.43345138 0 3054.90977909 0 2311
0.04750000 0.04749250 40851.01024865 0 2650.96922505 0 17980.56971950 0 -2805.45030092 0 6677.97376160 0 2568
0.04850000 0.04851840 39418.36214037 0 2508.22481349 0 19600.00794747 0 563.49496914 0 8553.96882794 0 2493
0.04950000 0.04949480 38956.31402568 0 -554.64707437 0 23190.65216291 0 1238.71633909 0 9116.16612061 0 2644
0.05050000 0.05050630 40083.25524573 0 -1083.64510830 0 22330.44324775 0 3908.96248165 0 5421.97352347 0 2829
0.05150000 0.05149060 40278.34960903 0 -25.25785521 0 22048.32041137 0 2311.77962656 0 10307.20502903 0 2784
0.05250000 0.05249300 40288.86831761 0 1186.83142499 0 18137.90745517 0 3983.74496348 0 5130.59422354 0 3055
0.05350000 0.05348950 38319.43390212 0 43.81197135 0 15830.87785596 0 2782.10984021 0 6745.70317251 0 3009
0.05450000 0.05448610 37580.24549722 0 1774.93795773 0 14408.19484001 0 2521.27908445 0 3073.45592316 0 3336
0.05550000 0.05550870 34779.72238084 0 2033.63175479 0 12377.08757528 0 -867.28302349 0 2799.11693113 0 3349
0.05650000 0.05647670 34066.00032303 0 1657.53809768 0 12285.29800253 0 1806.73767461 0 1122.36834989 0 3324
0.05750000 0.05747970 33414.72617720 0 684.69817276 0 11573.01534695 0 -305.01929687 0 3457.53272647 0 3639
0.05850000 0.05849280 32408.58402093 0 233.61055242 0 12514.60584952 0 1517.35139315 0 1419.16201666 0 3846
0.05950000 0.05951020 32392.41842669 0 -265.44016457 0 10905.49810060 0 1637.78507020 0 1982.17866136 0 3787
0.06050000 0.06049470 32529.38308470 0 -72.70066331 0 9691.49519051 0 2733.66841913 0 1233.11374273 0 3930
0.06150000 0.06148310 31922.17679165 0 283.42383455 0 10395.81684455 0 -431.29583973 0 -577.41509590 0 4083
0.06250000 0.06249100 32575.99757219 0 635.50383359 0 11051.23203987 0 -1606.24001679 0 619.95828955 0 4303
0.06350000 0.06350600 31960.59775877 0 577.76719583 0 9881.45199510 0 -1720.91608494 0 355.50024018 0 4470
0.06450000 0.06451750 32044.85815064 0 -207.60830481 0 10633.27392261 0 963.84919716 0 2421.99354781 0 4479
0.06550000 0.06550280 32083.83273400 0 -397.13439597 0 11023.03082855 0 1635.63703918 0 -540.90299758 0 4636
0.06650000 0.06648880 32591.72027343 0 53.83320038 0 9192.06690724 0 2176.58654052 0 -669.99744710 0 4653
0.06750000 0.06749660 31703.83054622 0 966.30282434 0 9729.31825209 0 1905.19278689 0 690.00070912 0 5220
0.06850000 0.06852730 31262.70912545 0 959.07702516 0 8763.66758768 0 -590.15934176 0 180.79556303 0 5029
0.06950000 0.06949320 30186.36842983 0 282.54137026 0 9901.24931188 0 1482.19676185 0 1773.76429130 0 5040
0.07050000 0.07048030 29564.76811451 0 956.31226566 0 10283.99743621 0 435.69044545 0 503.49957711 0 5475
0.07150000 0.07148790 28740.32280851 0 1197.12868707 0 9921.23485818 0 -193.40472654 0 1895.42699640 0 5509
0.07250000 0.07249820 28264.87718080 0 798.63903854 0 9947.12195360 0 264.17238338 0 1583.47531696 0 5916
0.07350000 0.07351270 27968.24959891 0 515.54294481 0 10871.72750991 0 175.03352520 0 2496.43278756 0 5721
0.07450000 0.07449140 27179.78934857 0 -128.01046893 0 10327.79955319 0 -1395.94335151 0 598.42372501 0 6028
0.07550000 0.07549160 28244.61482638 0 -11.74817953 0 11466.61030544 0 150.57918860 0 -740.51819110 0 6183
0.07650000 0.07648840 27814.12283743 0 608.71212923 0 10632.08918386 0 489.88393928 0 891.06194827 0 6330
0.07750000 0.07749960 27196.06566606 0 984.71720775 0 10419.05765435 0 -26.42000642 0 337.99157295 0 6583
0.07850000 0.07848650 26459.64534237 0 546.44580338 0 10054.16918995 0 1021.99440371 0 1806.58266206 0 6549
0.07950000 0.07947320 26054.95187025 0 668.76288288 0 9704.10656848 0 1671.11276790 0 475.75897451 0 6828
0.08050000 0.08048110 25336.13654302 0 440.67963501 0 9780.78241785 0 1154.50023652 0 997.25329391 0 7147
0.08150000 0.08149960 25117.01523486 0 681.13731310 0 9409.71559620 0 -38.90338831 0 730.80997670 0 7386
0.08250000 0.08250610 24878.96025126 0 420.73284185 0 9753.81023459 0 -5.51255621 0 3485.62321453 0 7227
0.08350000 0.08350160 24474.70967213 0 72.07020514 0 10327.35666020 0 233.32820814 0 2255.14468511 0 7798
0.08450000 0.08449610 24539.03987932 0 426.03427098 0 10863.98795486 0 507.46568386 0 2927.74412855 0 7371
0.08550000 0.08548940 24359.11460102 0 533.99275966 0 10718.36473884 0 799.37534814 0 3082.81203763 0 8256
0.08650000 0.08650700 23538.87677846 0 332.79311645 0 10856.09338726 0 1260.55096363 0 4234.64384387 0 8037
0.08750000 0.08749060 23529.24385586 0 822.15665646 0 10918.39735902 0 894.47222431 0 3470.54270813 0 8155
0.08850000 0.08849210 23096.09450896 0 639.87961636 0 11266.20122622 0 80.91201012 0 3312.56277762 0 8718
0.08950000 0.08949900 21634.10473990 0 1182.92289432 0 10777.80097847 0 104.40549037 0 4605.68852086 0 8571
0.09050000 0.09049190 21033.54184174 0 689.76376137 0 9947.80843774 0 757.64043420 0 3952.76459863 0 8932
0.09150000 0.09150830 21383.20585951 0 -388.80357877 0 10605.63739987 0 1884.80863690 0 3630.79246523 0 9285
0.09250000 0.09250820 20816.30282880 0 -400.61553489 0 9173.46540155 0 1544.55609523 0 2399.49458377 0 9204
0.09350000 0.09350330 20790.39358872 0 582.48400620 0 8166.50389324 0 871.45286101 0 775.01180461 0 9349
0.09450000 0.09448040 20241.20627772 0 714.92340505 0 7398.32814197 0 -618.10699684 0 1669.93910147 0 9564
0.09550000 0.09549270 19238.93943514 0 952.62518149 0 7532.39185088 0 260.91379819 0 935.60701825 0 10155
0.09650000 0.09649430 18746.22098071 0 876.38115279 0 6508.14644353 0 -793.18038241 0 532.25440466 0 9913
0.09750000 0.09749140 18328.68361179 0 605.69934965 0 7367.48064503 0 -206.87310245 0 -243.69190417 0 10476
0.09850000 0.09850240 17924.87592566 0 60.31815030 0 7112.17497936 0 -692.02805179 0 -141.49988225 0 10575
0.09950000 0.09950330 18061.95130691 0 -398.64687554 0 7423.98271858 0 811.96679593 0 -1153.42622101 0 10882
0.10050000 0.10051200 18053.64706330 0 102.08594904 0 7542.23514764 0 292.52750001 0 -922.89156042 0 10875
0.10150000 0.10150300 18055.64008177 0 649.24126700 0 7620.66042433 0 598.25764014 0 -781.05729396 0 11118
0.10250000 0.10250800 17450.20536068 0 292.15657713 0 7570.59137150 0 612.41582188 0 774.26663715 0 11575
0.10350000 0.10349800 17337.15692428 0 157.64111737 0 7974.08903254 0 729.47797603 0 1341.35679015 0 11364
0.10450000 0.10450100 17414.10958177 0 145.59774967 0 7768.07735697 0 1291.22130338 0 895.75107783 0 12093
0.10550000 0.10551000 17128.88649445 0 90.58567887 0 7134.23105040 0 722.27653596 0 1794.76849148 0 12067
0.10650000 0.10649700 17101.64857539 0 414.35518276 0 6914.98794666 0 -45.98746173 0 1497.57622102 0 12054
0.10750000 0.10749900 16200.69350490 0 652.79216157 0 6261.35539565 0 -161.16654560 0 1863.17331421 0 12807
0.10850000 0.10850100 15819.14119165 0 485.94440611 0 6146.90077399 0 779.52931314 0 1480.04873083 0 12736
0.10950000 0.10950300 15373.48011770 0 292.99807382 0 5549.44919911 0 511.79939179 0 1168.11919604 0 12933
0.11050000 0.11050200 15524.72807472 0 -172.08164340 0 5240.77492781 0 373.27796491 0 73.85218509 0 13428
0.11150000 0.11150900 14914.75370046 0 328.36529375 0 4674.93484028 0 654.83057656 0 491.15061324 0 13453
0.11250000 0.11250000 15242.82668484 0 299.59053601 0 4614.95605674 0 -71.07624254 0 314.52931666 0 13668
0.11350000 0.11349100 14811.89180290 0 84.11833394 0 4820.17052493 0 98.42599207 0 1049.27882653 0 13791
0.11450000 0.11448600 15157.34833724 0 -18.51635952 0 5204.46877473 0 357.43457533 0 1229.10556114 0 14205
0.11550000 0.11549300 14892.94122057 0 39.16303433 0 5375.58048248 0 -27.66730381 0 1419.17308898 0 14776
0.11650000 0.11649800 15100.99020391 0 433.57230971 0 5755.23942818 0 268.42858504 0 1633.51115282 0 14553
0.11750000 0.11747300 14689.98550664 0 228.76862478 0 5687.29964310 0 -215.01126119 0 1999.92759804 0 14568
0.11850000 0.11849100 14483.37592553 0 100.12050066 0 5773.23195602 0 -247.56278892 0 1939.49484918 0 16015
0.11950000 0.11950300 14698.28975026 0 71.38294594 0 5525.97587049 0 193.46783879 0 1597.86933923 0 15270
0.12050000 0.12050700 14357.70503884 0 112.97425182 0 5842.27897358 0 -349.76256146 0 393.78501771 0 15999
0.12150000 0.12150000 14460.01332016 0 202.43642189 0 5553.88920136 0 -180.51654045 0 214.02360981 0 15670
0.12250000 0.12250700 14105.36675622 0 335.63427500 0 5090.03629773 0 47.53980167 0 -626.03478141 0 16887
0.12350000 0.12352200 13774.52569064 0 312.07901118 0 5181.59335166 0 231.46362864 0 -884.86919700 0 16407
0.12450000 0.12449800 13479.78040396 0 139.37842482 0 4923.58603873 0 396.35822600 0 -1046.65025662 0 16306
0.12550000 0.12549900 13305.28056482 0 433.54130720 0 5070.22790863 0 751.36242603 0 -1344.12487136 0 17523
0.12650000 0.12650100 12831.82795558 0 188.29374140 0 4413.53939596 0 712.45759832 0 -780.62990222 0 17154
0.12750000 0.12750600 12876.44942460 0 74.06056625 0 4399.78756854 0 476.91492522 0 -333.14743084 0 18007
0.12850000 0.12850300 12717.89373319 0 71.89393373 0 3982.36092287 0 383.88303762 0 249.87911927 0 17496
0.12950000 0.12949900 12896.49033252 0 50.33445646 0 3793.09060242 0 360.58243728 0 -29.87678623 0 18405
0.13050000 0.13049000 12575.50363603 0 -4.85750640 0 4109.99161106 0 -128.52643926 0 316.02740221 0 18100
0.13150000 0.13148800 12717.11867046 0 105.59266504 0 3858.50589745 0 -6.67224937 0 -150.21490912 0 19059
0.13250000 0.13249300 12672.82937118 0 197.48819993 0 3981.86266826 0 88.96026159 0 220.41455570 0 18957
0.13350000 0.13349100 12499.10459478 0 5.08422333 0 3569.48500271 0 246.87962648 0 -112.97093012 0 19468
0.13450000 0.13450700 12619.46076556 0 -226.84314749 0 3734.72837830 0 172.83456149 0 -597.07511585 0 19953
0.13550000 0.13551000 12601.85576909 0 189.13855978 0 3338.82633209 0 -4.36320461 0 -754.02089122 0 19956
0.13650000 0.13649900 12347.96736100 0 565.03070059 0 3427.48243691 0 -37.53839211 0 -623.09729363 0 19723
0.13750000 0.13749600 12016.90484893 0 372.30027863 0 3093.58540968 0 117.91472316 0 -32.11826766 0 20946
0.13850000 0.13851100 11762.46282459 0 119.55453446 0 3058.66329720 0 528.97810375 0 -154.74791890 0 20955
0.13950000 0.13949800 11603.68568669 0 126.42934094 0 2780.93617378 0 491.39641885 0 -218.45143251 0 20506
0.14050000 0.14048300 11440.92251186 0 156.31686732 0 2783.15063874 0 373.07977030 0 -412.27247846 0 21447
0.14150000 0.14148400 11357.43718273 0 82.24478586 0 2494.91587906 0 272.96823822 0 383.60622950 0 21771
0.14250000 0.14249400 11253.68949918 0 87.41168624 0 2726.20567220 0 0.12281866 0 195.02128596 0 22470
0.14350000 0.14350900 11218.25805976 0 94.48103346 0 2730.49066190 0 114.19774371 0 171.70518436 0 22519
0.14450000 0.14449900 11061.36321708 0 346.68888409 0 3032.47724901 0 -306.42880382 0 199.42807124 0 22218
0.14550000 0.14550500 10881.51544505 0 287.75311355 0 2984.19084047 0 -245.83218455 0 -121.71474503 0 23559
0.14650000 0.14650700 10509.34139092 0 159.77253990 0 3018.67005996 0 -150.21712358 0 263.57447784 0 23044
0.14750000 0.14750500 10790.92168338 0 90.25993107 0 3090.30800153 0 -61.74094404 0 -370.79887139 0 23649
0.14850000 0.14849900 10590.49045951 0 49.48188744 0 3080.70829592 0 -5.34674815 0 -139.04957677 0 23640
0.14950000 0.14949500 10542.49193142 0 73.16714036 0 2922.70622075 0 23.67174468 0 -443.62044449 0 24457
0.15050000 0.15050000 10398.06452649 0 221.89713999 0 3063.14758875 0 153.21772361 0 -301.70313559 0 24591
0.15150000 0.15149900 10260.15872087 0 310.20114489 0 3111.61115448 0 17.51841088 0 -275.60566599 0 25020
0.15250000 0.15250500 10146.51237894 0 185.29757031 0 3322.93754597 0 310.58978349 0 339.38004248 0 25297
0.15350000 0.15350100 9825.21565735 0 98.79447904 0 3304.13673843 0 58.19326044 0 358.13213179 0 25452
0.15450000 0.15450400 9845.11262505 0 264.36172014 0 3498.87678734 0 455.06258495 0 327.00118333 0 26061
0.15550000 0.15549900 9679.71423691 0 76.09676678 0 3270.67617283 0 48.04425679 0 381.15038786 0 26128
0.15650000 0.15649500 9466.98166017 0 199.06822068 0 3122.63919000 0 23.44786227 0 575.91147419 0 26331
0.15750000 0.15749700 9515.83275727 0 62.26289343 0 3103.27369390 0 43.76236734 0 242.97995368 0 27345
0.15850000 0.15849900 9327.20463165 0 62.03779307 0 2865.03048077 0 145.70293675 0 -100.58409890 0 26980
0.15950000 0.15949700 9225.83749794 0 224.54231839 0 2659.28454099 0 -161.99475549 0 -273.08560486 0 27777
0.16050000 0.16050000 8985.61233867 0 211.40389776 0 2762.24608948 0 38.98244471 0 -347.79833104 0 28224
0.16150000 0.16150500 8905.40441769 0 70.74252267 0 2523.49354942 0 175.86505679 0 -472.38855883 0 28075
0.16250000 0.16249700 8826.80198380 0 31.85685008 0 2506.96256846 0 440.83243310 0 -442.27626425 0 28590
0.16350000 0.16349900 8874.20260635 0 124.03439708 0 2351.06423502 0 303.99510683 0 -401.77037837 0 29163
0.16450000 0.16449100 8748.94139568 0 -24.92967150 0 2035.00472307 0 407.50141370 0 92.26058944 0 28996
0.16550000 0.16550500 8784.12924395 0 -16.70293416 0 1992.57557436 0 257.63860451 0 241.60919987 0 30777
0.16650000 0.16650700 8838.36149091 0 101.84944418 0 1908.20445925 0 84.21732053 0 133.43258639 0 29211
0.16750000 0.16749900 8648.96937489 0 147.74799515 0 2062.74089674 0 -168.95924780 0 -272.57627792 0 30922
0.16850000 0.16850800 8513.80950583 0 278.30731325 0 2112.87638352 0 -402.87982532 0 -14.28728505 0 30867
0.16950000 0.16949900 8278.42295251 0 165.11382939 0 2348.84977005 0 -186.52770559 0 -236.66540684 0 30852
0.17050000 0.17049200 8439.45884467 0 -75.19614388 0 2373.02065513 0 -91.80485255 0 83.67278359 0 31257
0.17150000 0.17149500 8415.36546586 0 -143.53054662 0 2404.15603252 0 184.78381443 0 -311.89410335 0 32608
0.17250000 0.17250900 8529.59864102 0 66.69824531 0 2464.07945444 0 136.11983962 0 -273.21404383 0 32361
0.17350000 0.17350400 8439.39241072 0 254.10653289 0 2710.51618793 0 -139.78477914 0 -112.14161300 0 32508
0.17450000 0.17449800 8208.13583456 0 391.75656780 0 2578.15761705 0 9.10685430 0 198.71833522 0 32791
0.17550000 0.17549800 8014.85733252 0 158.07183081 0 2594.94326147 0 302.62878194 0 551.33202032 0 33633
0.17650000 0.17650100 7974.14439417 0 -98.57502557 0 2352.04967193 0 461.98610966 0 196.19716686 0 33984
0.17750000 0.17750300 7908.26406150 0 61.45871048 0 2167.80618694 0 452.07748618 0 240.56065071 0 34069
0.17850000 0.17849800 7862.47999837 0 108.65216983 0 1865.43206847 0 305.76003540 0 120.50564716 0 34536
