### header ###
fiducial parameters:
Omega_m = 0.31
Omega_nu = 0
Omega_de = 0.69
Omega_k = 0
H_0 = 100
w_de = -1
zeff = 0
beta = 0
fgrowth = 0
b_1 = 2
gamma = 0.55
Lx = 3500 Ly = 3500 Lz = 3500
nx = 700 ny = 700 nz = 700
xoffset = -685.467585 yoffset = -31.7331281 zoffset = 572.489161
bins = 400 dk = 0.001
kx_ny = 0.628318531 ky_ny = 0.628318531 kz_ny = 0.628318531
############################
A(data) = 8.0555156 (not used)
A(ran) = 8.05072491 (used)
Ngal = 478408
weighted Ngal = 0
Nran = 23820508
weighted Nran = 0
SN(data) = 3493.5185
SN(ran) = 70.1247337
SN(data+ran) = 3563.64323
############################
13 columns: k_central k_mean P_0(k) sigma^{lin}_{P_0(k)} P^img_1(k) sigma^{lin}_{P_1(k)} P_2(k) sigma^{lin}_{P_2(k)} P^img_3(k) sigma^{lin}_{P_3(k)} P_4(k) sigma^{lin}_{P_4(k)} N_modes
### header ###
0.00050000 0 0 0 0 0 0 0 0 0 0 0 0
0.00150000 0.00179520 20422.01734201 0 -19771.07536592 0 8210.71568624 0 10930.10080635 0 -51152.25836693 0 3
0.00250000 0.00253879 28493.07779531 0 -7689.78494817 0 8464.31621389 0 -2959.20060336 0 35209.21786056 0 6
0.00350000 0.00331552 28192.90706948 0 5151.84201487 0 9337.71226791 0 -26047.64413587 0 -3409.27953491 0 7
0.00450000 0.00420575 22943.96076595 0 7796.32285758 0 -3040.54897380 0 1976.77536685 0 22857.04301612 0 24
0.00550000 0.00557378 20453.35202124 0 -716.44695695 0 -3232.31056733 0 9058.28000646 0 -1720.03029895 0 45
0.00650000 0.00659388 21356.96444969 0 -7298.84330348 0 -8883.94625219 0 16955.71533428 0 13073.09391338 0 40
0.00750000 0.00754703 30679.52977725 0 -16001.39165816 0 -16235.68205133 0 14942.21306601 0 -12936.12925537 0 57
0.00850000 0.00846663 40282.22492272 0 -16568.95902837 0 -39003.37140616 0 16801.92074255 0 -641.44413586 0 75
0.00950000 0.00948925 53454.52686647 0 -13216.36979653 0 -31095.40629744 0 -13315.13493391 0 -12475.63126616 0 112
0.01050000 0.01054430 62617.76143988 0 -5366.87763517 0 -28659.93773033 0 -17512.98544240 0 -13360.97435866 0 105
0.01150000 0.01145670 57003.20697084 0 3120.04826600 0 -20252.50004903 0 -28634.47138325 0 16259.93044268 0 144
0.01250000 0.01249090 71666.95106767 0 -10366.88485980 0 -18097.93636257 0 -12846.88631733 0 5393.27405754 0 169
0.01350000 0.01339930 72925.54222980 0 -11713.85531864 0 4374.57588492 0 -16234.02120260 0 10354.57243460 0 180
0.01450000 0.01448870 92391.13215398 0 -4597.14068610 0 6239.85294085 0 -10052.40869030 0 -12495.11855784 0 267
0.01550000 0.01550050 85925.33735288 0 -270.78366853 0 14339.87859588 0 10937.82928907 0 27387.61688542 0 238
0.01650000 0.01653350 88074.91849317 0 15403.26467146 0 24084.52094552 0 -20211.64317045 0 -12646.80940786 0 315
0.01750000 0.01747870 74493.93704036 0 10601.73994153 0 21381.87718054 0 2458.25541159 0 -8397.86012033 0 297
0.01850000 0.01844180 69147.44355518 0 4359.92719919 0 25188.43172994 0 14568.74354988 0 -10700.02896894 0 388
0.01950000 0.01947590 65504.64868985 0 -452.19153113 0 13928.54172886 0 8156.66059648 0 -3756.33048403 0 399
0.02050000 0.02045430 63874.02741381 0 -3849.84733944 0 15245.59476604 0 13852.36413411 0 -17285.67061388 0 462
0.02150000 0.02154770 67841.57356607 0 5218.06558961 0 11791.91520861 0 -4140.96090358 0 -9498.10596523 0 571
0.02250000 0.02255340 61461.14638933 0 7354.78068846 0 15510.88766870 0 -4001.41639389 0 6647.53594067 0 510
0.02350000 0.02348930 59491.49052734 0 1101.86794049 0 26594.17408891 0 -13767.43940275 0 17666.00497140 0 555
0.02450000 0.02439640 60568.05266946 0 -3464.96225642 0 31334.56851352 0 6136.43742704 0 25081.91596518 0 592
0.02550000 0.02547300 71503.41283010 0 -4540.20679189 0 40621.14878542 0 7466.11291451 0 13092.47048181 0 837
0.02650000 0.02652900 70527.49812058 0 -255.13515187 0 47942.94501824 0 1446.77639475 0 19961.29790630 0 723
0.02750000 0.02749970 75319.15740910 0 4514.51899831 0 43790.82321125 0 5342.62924382 0 20503.73109917 0 826
0.02850000 0.02848090 69067.05847700 0 3215.28133176 0 42085.79591243 0 3056.33810899 0 20467.19242727 0 831
0.02950000 0.02946900 67274.33836561 0 2282.65941229 0 35485.91525778 0 7459.07091593 0 11601.13905198 0 996
0.03050000 0.03053250 67300.46905219 0 -1191.81397115 0 35128.50061263 0 4327.57386607 0 -7564.08084451 0 1041
0.03150000 0.03150510 64637.24276356 0 2345.63879586 0 26456.54509142 0 -2225.14975718 0 -16419.81481306 0 1036
0.03250000 0.03246190 64131.45896584 0 1098.19192865 0 20675.57358035 0 -2639.07754820 0 -11228.66604509 0 1059
0.03350000 0.03345080 60576.57835957 0 -1714.99239116 0 20088.85108821 0 1602.51971565 0 -12771.04089232 0 1302
0.03450000 0.03451200 65522.69657930 0 -3645.44115097 0 16281.18930633 0 9055.63372083 0 -20747.43296843 0 1339
0.03550000 0.03553350 63730.53008416 0 279.82422175 0 14881.42600276 0 11509.68164898 0 -14713.56955851 0 1365
0.03650000 0.03647120 61769.28918903 0 5543.49228835 0 8176.15896048 0 5794.83406174 0 -16676.36057911 0 1308
0.03750000 0.03744890 56970.76505913 0 4704.58652614 0 7553.69500383 0 1439.21399690 0 -4827.37860838 0 1579
0.03850000 0.03847530 52897.69965134 0 4723.45376763 0 6329.25089143 0 321.21921531 0 -1871.67685967 0 1662
0.03950000 0.03950240 49374.92878704 0 2408.93927684 0 8703.35663440 0 -1555.59520307 0 479.27443763 0 1683
0.04050000 0.04050350 48685.56584383 0 699.92704832 0 11693.03934798 0 -1812.29598167 0 -1331.39169782 0 1822
0.04150000 0.04152450 47683.74189424 0 1295.93811375 0 8927.75944150 0 -1317.00874788 0 -2691.05104090 0 1887
0.04250000 0.04250150 48352.39959004 0 1975.25845835 0 14989.82406273 0 -1201.84549744 0 1896.03597427 0 1920
0.04350000 0.04349210 46381.74721881 0 1506.81053992 0 13391.09108217 0 -1207.94634842 0 -170.11409128 0 2005
0.04450000 0.04448520 44782.23917551 0 1110.94171068 0 17953.77469344 0 -1196.78544500 0 -3309.66182852 0 2151
0.04550000 0.04548030 43814.51798636 0 2178.62384829 0 15871.73473454 0 -243.74505133 0 -4298.40936250 0 2274
0.04650000 0.04648670 41810.87008718 0 1657.26128956 0 20190.27358355 0 -2709.03249640 0 -4228.59835451 0 2311
0.04750000 0.04749250 41374.17759633 0 1336.11958052 0 19577.53112809 0 56.74289661 0 -3409.61170465 0 2568
0.04850000 0.04851840 39810.54388544 0 343.63070798 0 17658.91868351 0 371.34473700 0 -5364.85139973 0 2493
0.04950000 0.04949480 39463.20505588 0 2266.16164831 0 18202.45910886 0 1508.80355839 0 -3269.41392780 0 2644
0.05050000 0.05050630 38195.86675714 0 1101.83029459 0 18397.33202567 0 2229.12472179 0 1133.65104888 0 2829
0.05150000 0.05149060 37410.17458801 0 281.08535954 0 17634.00595267 0 4564.43303859 0 5470.70282500 0 2784
0.05250000 0.05249300 37010.79583180 0 -338.96372307 0 17042.19019112 0 5442.00335907 0 2121.11419318 0 3055
0.05350000 0.05348950 38362.39452241 0 -220.88291504 0 17738.19652922 0 2305.19159329 0 4675.86491556 0 3009
0.05450000 0.05448610 37905.66112364 0 622.26022588 0 15798.43594424 0 -886.83453465 0 3364.89058471 0 3336
0.05550000 0.05550870 37927.91649653 0 447.15251610 0 16604.72263753 0 -785.84496721 0 3495.98691056 0 3349
0.05650000 0.05647670 37580.79911346 0 372.40435849 0 17321.43422304 0 -4468.28096986 0 1515.77912302 0 3324
0.05750000 0.05747970 37856.50000145 0 -312.43000387 0 16760.17807798 0 -1382.23581339 0 -978.09817197 0 3639
0.05850000 0.05849280 36977.46813410 0 1188.28189954 0 16353.49158740 0 1422.81588385 0 -610.40398046 0 3846
0.05950000 0.05951020 37109.22879944 0 1279.47356674 0 15819.03046840 0 2362.45765726 0 -1972.31321995 0 3787
0.06050000 0.06049470 35097.94099613 0 937.54799679 0 14052.66249008 0 2452.70817685 0 -425.32342772 0 3930
0.06150000 0.06148310 34385.99051029 0 1515.50231490 0 13934.63150751 0 3793.01309615 0 1849.39934213 0 4083
0.06250000 0.06249100 33688.54476997 0 377.60945838 0 14214.09698594 0 1584.54933247 0 1785.15771354 0 4303
0.06350000 0.06350600 32997.85314778 0 1021.79399463 0 13679.63586694 0 442.81105754 0 2491.25093955 0 4470
0.06450000 0.06451750 32045.52249013 0 816.33704253 0 15582.74705677 0 -819.33653533 0 3311.59948536 0 4479
0.06550000 0.06550280 31648.91181512 0 19.10618226 0 14317.62322299 0 1015.12070447 0 3265.10679345 0 4636
0.06650000 0.06648880 31550.92174048 0 743.70702065 0 15436.37092267 0 -572.62963711 0 1499.38100997 0 4653
0.06750000 0.06749660 30828.89543905 0 966.11348759 0 14785.20750008 0 211.69509991 0 -1634.96162737 0 5220
0.06850000 0.06852730 29546.27733206 0 1057.37158874 0 13253.90497766 0 1244.15285057 0 -1184.00798216 0 5029
0.06950000 0.06949320 29067.17783716 0 942.76416901 0 13075.19765509 0 2010.77847637 0 1057.81558897 0 5040
0.07050000 0.07048030 29092.53346099 0 -535.88059104 0 12037.38864984 0 1648.59165922 0 388.65631685 0 5475
0.07150000 0.07148790 29345.53608310 0 -594.67906475 0 12460.68362766 0 2133.14981026 0 1444.80552094 0 5509
0.07250000 0.07249820 29731.29587978 0 -132.86346889 0 11861.56013172 0 1409.41837082 0 1649.37779428 0 5916
0.07350000 0.07351270 29339.88919744 0 535.17306948 0 11965.41853852 0 1097.90958437 0 2675.14011013 0 5721
0.07450000 0.07449140 29603.74269787 0 368.79145890 0 11633.47024046 0 657.51672257 0 3080.01073945 0 6028
0.07550000 0.07549160 28518.21197265 0 402.35610435 0 12231.48650391 0 418.36114988 0 3774.93198972 0 6183
0.07650000 0.07648840 28295.76896704 0 1915.55648293 0 10821.68060173 0 -291.54317033 0 1823.34616184 0 6330
0.07750000 0.07749960 26793.47593565 0 1142.70821058 0 11498.27715442 0 395.60530791 0 3619.28831974 0 6583
0.07850000 0.07848650 25540.86382892 0 866.41052429 0 10269.66984789 0 579.03165532 0 2673.98858835 0 6549
0.07950000 0.07947320 25964.49097648 0 -114.12909530 0 10099.10068406 0 1803.81458086 0 513.22661446 0 6828
0.08050000 0.08048110 25005.29547744 0 -312.64259251 0 9199.52965417 0 -104.86355245 0 -1658.10278624 0 7147
0.08150000 0.08149960 25631.43544593 0 662.49594704 0 9564.31846765 0 -114.39040217 0 -1955.23969508 0 7386
0.08250000 0.08250610 24536.49324462 0 728.96532739 0 8708.37239754 0 -717.35599482 0 -1311.80475521 0 7227
0.08350000 0.08350160 24019.30495234 0 456.22628629 0 8644.93904865 0 530.04769032 0 -1498.63916420 0 7798
0.08450000 0.08449610 23798.41207221 0 196.46179542 0 8602.31059810 0 1614.04600579 0 -3107.42581570 0 7371
0.08550000 0.08548940 23488.27625404 0 409.66826766 0 8325.97858760 0 717.33827910 0 -2032.22556954 0 8256
0.08650000 0.08650700 22975.95978468 0 620.62373627 0 8783.13273472 0 292.09346488 0 -2999.60351662 0 8037
0.08750000 0.08749060 22533.73113142 0 473.10604548 0 8485.43113732 0 354.67756645 0 -180.00057011 0 8155
0.08850000 0.08849210 22661.28431333 0 45.73113741 0 8953.74618785 0 -456.88287515 0 -972.87646359 0 8718
0.08950000 0.08949900 21894.74726614 0 859.08285973 0 9077.97767231 0 347.10631074 0 102.66536380 0 8571
0.09050000 0.09049190 21675.84740447 0 821.33730442 0 10147.89641954 0 568.05676696 0 2448.58927202 0 8932
0.09150000 0.09150830 21033.65256499 0 393.36316213 0 9322.35495338 0 804.23831320 0 1297.41073295 0 9285
0.09250000 0.09250820 20695.06087204 0 330.00067613 0 8949.48334279 0 1016.13271495 0 2080.77771387 0 9204
0.09350000 0.09350330 20500.96301796 0 585.07160851 0 9039.62313914 0 634.48739418 0 475.98927886 0 9349
0.09450000 0.09448040 19674.08180051 0 576.46841213 0 8158.03356475 0 -97.30037953 0 1135.89873082 0 9564
0.09550000 0.09549270 19489.17397604 0 281.32895069 0 8022.19828388 0 136.41436346 0 -39.50871231 0 10155
0.09650000 0.09649430 18977.41112292 0 212.33618751 0 7780.78838586 0 -531.74175602 0 -742.25876057 0 9913
0.09750000 0.09749140 19418.75399019 0 93.73044056 0 8653.26543692 0 -323.30081238 0 -1505.05004027 0 10476
0.09850000 0.09850240 18539.38995309 0 354.29778571 0 8377.07736664 0 128.91950679 0 -980.92382926 0 10575
0.09950000 0.09950330 18497.53656528 0 160.76572744 0 7733.64242678 0 595.96677613 0 -1018.66384841 0 10882
0.10050000 0.10051200 18461.44078637 0 -197.50591565 0 7744.63724533 0 1206.63981409 0 -1448.81370252 0 10875
0.10150000 0.10150300 18280.29755234 0 407.01201694 0 8248.59410945 0 1055.46050548 0 -1073.77966689 0 11118
0.10250000 0.10250800 18102.69746225 0 614.33133408 0 6984.65501442 0 225.27862799 0 -1175.64837692 0 11575
0.10350000 0.10349800 17219.67955796 0 505.37744339 0 7240.63609191 0 354.90344188 0 252.62394860 0 11364
0.10450000 0.10450100 16987.49290651 0 216.17385529 0 6835.52187144 0 596.05535473 0 -308.12286952 0 12093
0.10550000 0.10551000 16680.67878579 0 389.33947930 0 6839.56327000 0 184.47157487 0 166.28971029 0 12067
0.10650000 0.10649700 16212.87306220 0 836.10667850 0 6995.02978278 0 344.71579581 0 72.74749925 0 12054
0.10750000 0.10749900 15726.02293992 0 434.35290861 0 6226.44435549 0 820.13374271 0 1298.04185546 0 12807
0.10850000 0.10850100 15562.92759534 0 -212.91416287 0 6199.21750876 0 973.84197031 0 886.87107332 0 12736
0.10950000 0.10950300 15771.86236467 0 -112.08957307 0 5654.71379116 0 958.26985268 0 1428.73957762 0 12933
0.11050000 0.11050200 15966.07094199 0 -215.51726643 0 5306.68847746 0 681.71861015 0 1312.91198770 0 13428
0.11150000 0.11150900 15760.12570036 0 190.58239094 0 4909.86742828 0 400.81151504 0 1845.02577383 0 13453
0.11250000 0.11250000 16098.93883982 0 -154.95054244 0 4888.44247976 0 292.21747492 0 1911.30471019 0 13668
0.11350000 0.11349100 15727.90523514 0 296.44267407 0 5163.09149688 0 -28.36009917 0 874.73359086 0 13791
0.11450000 0.11448600 15800.98257895 0 666.71339556 0 5538.03363222 0 8.86686165 0 1078.64373918 0 14205
0.11550000 0.11549300 14924.05445331 0 407.17145842 0 5577.59504879 0 -14.28396336 0 1556.40348278 0 14776
0.11650000 0.11649800 14758.96609026 0 312.85407391 0 4864.41553490 0 717.96386545 0 2343.70113901 0 14553
0.11750000 0.11747300 14631.19146186 0 -297.65509363 0 4747.94575013 0 1149.40696710 0 2410.10187095 0 14568
0.11850000 0.11849100 15054.81860942 0 -312.54847775 0 4544.24819044 0 807.77924268 0 1137.23848212 0 16015
0.11950000 0.11950300 14901.79908042 0 331.39689629 0 4383.25658758 0 -233.00600348 0 975.25922789 0 15270
0.12050000 0.12050700 14433.66118709 0 842.70689132 0 4456.88754763 0 -1320.50760252 0 1152.93903872 0 15999
0.12150000 0.12150000 14207.45359105 0 455.24749278 0 4531.09426856 0 -1127.82700603 0 1699.63507664 0 15670
0.12250000 0.12250700 13906.61852572 0 -209.49392173 0 4955.05358587 0 -41.21872216 0 714.37532497 0 16887
0.12350000 0.12352200 13971.83451891 0 -119.78816052 0 5049.15727450 0 293.75984976 0 -244.68509170 0 16407
0.12450000 0.12449800 14235.13440309 0 312.04357974 0 4510.73226322 0 331.35039252 0 -941.73665727 0 16306
0.12550000 0.12549900 13668.56354212 0 353.46846858 0 4373.52401407 0 275.86918732 0 -666.41001386 0 17523
0.12650000 0.12650100 13554.18642675 0 135.41674700 0 3972.73907261 0 126.85562545 0 -226.09355110 0 17154
0.12750000 0.12750600 13333.51499311 0 160.88641578 0 4120.52139196 0 502.78873385 0 166.67834889 0 18007
0.12850000 0.12850300 13200.31492554 0 137.15620923 0 3696.79459348 0 698.72680831 0 -143.40321489 0 17496
0.12950000 0.12949900 13196.55033510 0 161.48985748 0 3720.06862024 0 149.70004601 0 -4.28356137 0 18405
0.13050000 0.13049000 12992.04449570 0 216.11627921 0 3453.08165189 0 3.68777065 0 -80.84745847 0 18100
0.13150000 0.13148800 12879.77112204 0 -40.74770546 0 3658.79437470 0 -151.89679526 0 702.73388266 0 19059
0.13250000 0.13249300 13150.15729411 0 -62.27208346 0 3772.55143988 0 14.29171398 0 -86.00350797 0 18957
0.13350000 0.13349100 13226.77778186 0 -49.38566894 0 3810.13091032 0 -68.66756900 0 696.17353020 0 19468
0.13450000 0.13450700 13094.35277703 0 190.47388216 0 3885.00197074 0 172.23665595 0 16.65000845 0 19953
0.13550000 0.13551000 12816.65887058 0 269.80598225 0 3813.93979006 0 181.72674555 0 566.91078134 0 19956
0.13650000 0.13649900 12812.11921740 0 230.89561837 0 3928.54942425 0 133.26317982 0 67.76041343 0 19723
0.13750000 0.13749600 12466.88412955 0 346.17512822 0 3935.65785679 0 421.04508141 0 576.69871648 0 20946
0.13850000 0.13851100 12104.26549174 0 372.72324144 0 3546.41027779 0 -87.62870380 0 226.44343656 0 20955
0.13950000 0.13949800 11773.09225642 0 305.74674861 0 3650.81122850 0 269.71629642 0 398.44757369 0 20506
0.14050000 0.14048300 11655.94705984 0 159.41158211 0 3270.12255659 0 226.74460380 0 -400.41069688 0 21447
0.14150000 0.14148400 11357.10501298 0 242.22703559 0 3252.51756013 0 16.43254799 0 -195.49296700 0 21771
0.14250000 0.14249400 11252.69298994 0 236.26680314 0 2947.04319071 0 93.68493331 0 -457.44867095 0 22470
0.14350000 0.14350900 11074.53928361 0 131.76730874 0 2983.05039102 0 374.34201533 0 22.44205228 0 22519
0.14450000 0.14449900 10890.89370417 0 138.83034474 0 2777.29337891 0 66.75039596 0 -178.34082862 0 22218
0.14550000 0.14550500 10953.12016965 0 1.27531037 0 2855.87366815 0 195.72880752 0 -16.70370922 0 23559
0.14650000 0.14650700 10901.91066736 0 3.13396618 0 3051.96454069 0 426.72850574 0 585.74037693 0 23044
0.14750000 0.14750500 10937.92894000 0 26.53582294 0 2940.87590578 0 279.39350831 0 998.90639200 0 23649
0.14850000 0.14849900 10896.24163706 0 47.13234012 0 3162.34454680 0 176.41978027 0 655.73518550 0 23640
0.14950000 0.14949500 10848.22096432 0 165.24116113 0 2953.97446604 0 191.94317966 0 869.13099450 0 24457
0.15050000 0.15050000 10598.88328173 0 293.70338091 0 3219.67704471 0 -142.20961827 0 1518.34790238 0 24591
0.15150000 0.15149900 10503.09659972 0 261.43087576 0 3177.52470413 0 -66.17264205 0 1227.84331611 0 25020
0.15250000 0.15250500 10233.99481733 0 194.07570942 0 3400.42167505 0 -24.18904369 0 1516.19987137 0 25297
0.15350000 0.15350100 10137.47736188 0 197.46494805 0 3316.24986178 0 331.97154995 0 1777.52888174 0 25452
0.15450000 0.15450400 9928.07755491 0 148.02812497 0 3465.61552359 0 109.45513482 0 1394.38215371 0 26061
0.15550000 0.15549900 9801.22192947 0 210.88239126 0 3403.51085368 0 356.81784684 0 1495.69392580 0 26128
0.15650000 0.15649500 9685.38326721 0 239.19100413 0 3360.35093154 0 75.23113243 0 1407.15961655 0 26331
0.15750000 0.15749700 9437.85037357 0 196.70538657 0 3166.68489813 0 170.99544834 0 1921.90092505 0 27345
0.15850000 0.15849900 9366.40066151 0 -12.23104361 0 3137.55361153 0 2.09590251 0 1074.80828587 0 26980
0.15950000 0.15949700 9318.16961460 0 37.88263069 0 2905.86521470 0 235.07984992 0 1544.93255427 0 27777
0.16050000 0.16050000 9392.64207133 0 47.28104144 0 2757.08638612 0 192.57983834 0 669.94872887 0 28224
0.16150000 0.16150500 9255.26773731 0 114.48340969 0 2467.25721166 0 28.13311652 0 820.64860582 0 28075
0.16250000 0.16249700 9188.51269098 0 274.84499728 0 2615.06167567 0 -84.08888156 0 590.81260893 0 28590
0.16350000 0.16349900 8880.42525290 0 309.05737373 0 2467.11327144 0 -315.03642914 0 598.00408390 0 29163
0.16450000 0.16449100 8664.51491893 0 183.63007819 0 2475.62788923 0 -1.45313191 0 630.74605562 0 28996
0.16550000 0.16550500 8574.40833956 0 52.91430814 0 2471.60863532 0 125.70963983 0 358.28271541 0 30777
0.16650000 0.16650700 8506.57927772 0 41.46596717 0 2493.07787314 0 317.08370199 0 363.84323694 0 29211
0.16750000 0.16749900 8427.55609549 0 37.70292686 0 2359.77815465 0 336.21557205 0 231.00966332 0 30922
0.16850000 0.16850800 8418.80895888 0 161.56625652 0 2303.70790177 0 225.05164533 0 563.27684434 0 30867
0.16950000 0.16949900 8390.80704942 0 111.36765749 0 1960.10044567 0 148.92387604 0 754.55900621 0 30852
0.17050000 0.17049200 8351.27884981 0 8.17612574 0 2071.38838242 0 292.00710074 0 895.98359665 0 31257
0.17150000 0.17149500 8330.86148285 0 51.73355542 0 1835.04960917 0 248.74974214 0 1132.65453965 0 32608
0.17250000 0.17250900 8284.95562415 0 88.73505050 0 1957.63131724 0 244.55775997 0 1166.39191337 0 32361
0.17350000 0.17350400 8188.50460266 0 95.24945281 0 1758.42912142 0 186.29075784 0 1115.22670038 0 32508
0.17450000 0.17449800 8230.02582073 0 -44.89517689 0 1551.45415359 0 170.59352295 0 1067.26913990 0 32791
0.17550000 0.17549800 8103.15912295 0 92.37817753 0 1597.73647133 0 -40.36006337 0 906.88651490 0 33633
0.17650000 0.17650100 8122.61319766 0 34.89631396 0 1439.05898435 0 -87.85590791 0 712.74215706 0 33984
0.17750000 0.17750300 8022.33115178 0 120.15465447 0 1655.73330873 0 -105.62521767 0 287.92473458 0 34069
