### header ###
fiducial parameters:
Omega_m = 0.31
Omega_nu = 0
Omega_de = 0.69
Omega_k = 0
H_0 = 100
w_de = -1
zeff = 0
beta = 0
fgrowth = 0
b_1 = 2
gamma = 0.55
Lx = 3500 Ly = 3500 Lz = 3500
nx = 700 ny = 700 nz = 700
xoffset = -685.467585 yoffset = -31.7331281 zoffset = 572.489161
bins = 400 dk = 0.001
kx_ny = 0.628318531 ky_ny = 0.628318531 kz_ny = 0.628318531
############################
A(data) = 8.01725865 (not used)
A(ran) = 8.01808934 (used)
Ngal = 476279
weighted Ngal = 0
Nran = 23820508
weighted Nran = 0
SN(data) = 3486.59113
SN(ran) = 69.840466
SN(data+ran) = 3556.43159
############################
13 columns: k_central k_mean P_0(k) sigma^{lin}_{P_0(k)} P^img_1(k) sigma^{lin}_{P_1(k)} P_2(k) sigma^{lin}_{P_2(k)} P^img_3(k) sigma^{lin}_{P_3(k)} P_4(k) sigma^{lin}_{P_4(k)} N_modes
### header ###
0.00050000 0 0 0 0 0 0 0 0 0 0 0 0
0.00150000 0.00179520 98519.77466434 0 -70943.70681051 0 70355.76636264 0 131494.92954624 0 -160099.17348273 0 3
0.00250000 0.00253879 162010.25674643 0 -46221.75212518 0 80435.45726130 0 -83888.47247924 0 84559.56608650 0 6
0.00350000 0.00331552 136249.38582337 0 24411.59742066 0 7405.25941731 0 -50931.25476355 0 101930.82577122 0 7
0.00450000 0.00420575 92910.75635771 0 71403.65118348 0 -1362.42742428 0 -35366.22342649 0 66638.45475128 0 24
0.00550000 0.00557378 44596.99918130 0 12490.68962791 0 3922.99111720 0 301.70092112 0 -1079.68896665 0 45
0.00650000 0.00659388 29575.61899283 0 -13364.18533286 0 13372.04668348 0 27594.22646653 0 -4653.79777220 0 40
0.00750000 0.00754703 62206.75674262 0 -28971.29150423 0 -22253.49059026 0 1283.22708486 0 -48069.28024442 0 57
0.00850000 0.00846663 60314.05353812 0 -18851.18661999 0 -29790.08992457 0 -5007.51426086 0 -47291.00653292 0 75
0.00950000 0.00948925 89535.24741350 0 -5501.82713006 0 -22179.19529073 0 -43023.73254781 0 -57339.36275234 0 112
0.01050000 0.01054430 84284.19736826 0 16646.02240910 0 -19886.78116027 0 -56018.76657122 0 -35531.86540577 0 105
0.01150000 0.01145670 74642.41691618 0 13844.28133699 0 23991.95631004 0 -58306.97321824 0 -13114.61513145 0 144
0.01250000 0.01249090 72287.99776674 0 3940.47431808 0 37470.74020477 0 -20733.92473215 0 7824.64586447 0 169
0.01350000 0.01339930 72749.71371168 0 -3390.86625874 0 58256.59414031 0 43858.69656239 0 -5846.99578396 0 180
0.01450000 0.01448870 89887.34734273 0 -13913.59409036 0 44680.81668017 0 45203.09824187 0 3951.15911153 0 267
0.01550000 0.01550050 94327.23887176 0 -14488.69064144 0 39981.94347364 0 57659.57438609 0 11291.33540356 0 238
0.01650000 0.01653350 102790.14890040 0 9380.18570591 0 22755.06690454 0 15177.61069166 0 -5172.12651394 0 315
0.01750000 0.01747870 96568.72030805 0 11510.12454198 0 13192.45357492 0 -3725.08438339 0 22372.85025180 0 297
0.01850000 0.01844180 81604.47331565 0 8872.14315393 0 7758.55515762 0 -7601.00704778 0 28953.24361477 0 388
0.01950000 0.01947590 74080.60715488 0 3534.13106956 0 7650.24567625 0 2414.09898021 0 7461.29645322 0 399
0.02050000 0.02045430 73363.89556937 0 1373.56618305 0 8577.27607169 0 -3140.02273997 0 -5312.40179706 0 462
0.02150000 0.02154770 68139.86199669 0 5529.49686978 0 9940.82180078 0 5716.75202712 0 -13833.65190517 0 571
0.02250000 0.02255340 66974.27836303 0 3404.69559243 0 17115.71042791 0 -9279.26146519 0 -7550.09649826 0 510
0.02350000 0.02348930 62195.68441780 0 1329.12187123 0 13158.24009123 0 19.98587847 0 -5316.48748492 0 555
0.02450000 0.02439640 64838.31618226 0 3116.99230435 0 26778.08540415 0 6762.69919111 0 4766.71334070 0 592
0.02550000 0.02547300 60689.29462622 0 4060.88585049 0 19661.57007346 0 3456.92374860 0 459.91115599 0 837
0.02650000 0.02652900 58977.29176276 0 3479.38949566 0 25485.39148157 0 6123.18385423 0 2197.70146395 0 723
0.02750000 0.02749970 53976.91915141 0 1893.97652185 0 13522.18740802 0 325.65921757 0 -3277.75138839 0 826
0.02850000 0.02848090 53996.18499660 0 2163.77586071 0 18744.67085523 0 -1451.83644720 0 -5691.21924608 0 831
0.02950000 0.02946900 52161.61149739 0 2282.01721745 0 14779.44989118 0 -2313.39618598 0 -9918.95395926 0 996
0.03050000 0.03053250 48197.60848907 0 3078.39418003 0 15151.92289808 0 -5408.37670859 0 -6732.63782923 0 1041
0.03150000 0.03150510 46396.80558057 0 1298.11936174 0 14469.64624275 0 680.40321797 0 -7739.41110801 0 1036
0.03250000 0.03246190 48070.49820015 0 -1538.31130403 0 16634.17502155 0 2986.56031798 0 -6292.84508743 0 1059
0.03350000 0.03345080 48363.69336135 0 -2196.77138867 0 17321.32349979 0 4953.93528106 0 -6640.37214651 0 1302
0.03450000 0.03451200 51955.77697902 0 302.40290652 0 17771.63495017 0 1948.65166181 0 -8183.18988674 0 1339
0.03550000 0.03553350 49812.72851037 0 1006.60940838 0 16550.57896917 0 1536.60616601 0 -1339.45235029 0 1365
0.03650000 0.03647120 50103.81992985 0 709.70058944 0 15071.20565015 0 1129.75359055 0 -2553.16737993 0 1308
0.03750000 0.03744890 48809.46515855 0 106.72636037 0 15691.14511674 0 -870.36998765 0 -2926.95799348 0 1579
0.03850000 0.03847530 50094.85134675 0 958.56880545 0 18727.06585877 0 -950.42178885 0 -4250.07866466 0 1662
0.03950000 0.03950240 48153.76208279 0 162.96801284 0 21546.85482033 0 -1262.24502933 0 -3587.69897704 0 1683
0.04050000 0.04050350 48812.23323975 0 2281.33073331 0 22535.94559638 0 -1609.83852236 0 -3420.44043833 0 1822
0.04150000 0.04152450 46998.80788096 0 1697.19916518 0 24688.51626438 0 1341.36786248 0 -567.78328054 0 1887
0.04250000 0.04250150 46452.16720466 0 1576.55511395 0 25008.06355864 0 -869.36351332 0 4467.89343850 0 1920
0.04350000 0.04349210 47632.47703033 0 -846.28546670 0 28511.79002426 0 3687.49384063 0 5141.60011441 0 2005
0.04450000 0.04448520 45924.23875731 0 1916.46441356 0 28372.94307103 0 2623.27734068 0 8531.29270672 0 2151
0.04550000 0.04548030 44989.40237287 0 2909.81803467 0 25453.39246285 0 4298.25434995 0 7098.04669289 0 2274
0.04650000 0.04648670 44068.29567121 0 498.57792872 0 25587.58903965 0 5532.48639748 0 9676.33717784 0 2311
0.04750000 0.04749250 42021.57642848 0 1254.83764402 0 23926.07597736 0 2699.39957381 0 9159.23746416 0 2568
0.04850000 0.04851840 42990.62629661 0 1037.08155351 0 21737.63097696 0 2437.33979000 0 7204.75068717 0 2493
0.04950000 0.04949480 40883.78433011 0 1317.04196485 0 25027.55085032 0 -986.90842083 0 8689.07333538 0 2644
0.05050000 0.05050630 41031.59986644 0 1855.92094145 0 23188.99131419 0 -1074.88025598 0 6052.58671119 0 2829
0.05150000 0.05149060 40576.63803964 0 -588.61585968 0 23733.52824877 0 886.82124786 0 6705.34454855 0 2784
0.05250000 0.05249300 39185.40042618 0 -681.37536808 0 22430.86923385 0 3092.63318975 0 940.86637253 0 3055
0.05350000 0.05348950 40831.63368022 0 -31.69010086 0 20243.42074268 0 2563.48678666 0 766.28459819 0 3009
0.05450000 0.05448610 39863.02670508 0 354.96987583 0 19883.79163257 0 3747.12938210 0 -1672.31965131 0 3336
0.05550000 0.05550870 38837.28653388 0 757.44888298 0 16507.06473263 0 2099.15777307 0 -177.37864359 0 3349
0.05650000 0.05647670 37995.34695467 0 1732.78561714 0 16107.24308343 0 2557.18663384 0 -3214.32911183 0 3324
0.05750000 0.05747970 35801.25506861 0 2222.48132690 0 14226.27654324 0 55.50755733 0 540.87531676 0 3639
0.05850000 0.05849280 35367.77355196 0 1167.02303589 0 14306.99379117 0 2734.24418002 0 956.18382669 0 3846
0.05950000 0.05951020 34202.96498104 0 247.27269401 0 14069.04953081 0 -565.32411720 0 2130.53674160 0 3787
0.06050000 0.06049470 33392.02791132 0 723.68825738 0 13245.49001080 0 2066.78229530 0 1318.94640472 0 3930
0.06150000 0.06148310 34308.59495981 0 733.95783865 0 14180.32639524 0 -669.85239965 0 -263.22016345 0 4083
0.06250000 0.06249100 32399.17254483 0 1226.78037293 0 15109.62661727 0 287.80293901 0 1070.15680221 0 4303
0.06350000 0.06350600 32076.08210663 0 -184.04750483 0 14239.56333302 0 613.13441576 0 1644.98208133 0 4470
0.06450000 0.06451750 32127.90058678 0 -342.72056288 0 14247.86757663 0 3448.15446735 0 229.26687939 0 4479
0.06550000 0.06550280 32780.61413484 0 -1150.75779073 0 12134.38221525 0 2874.96235614 0 1435.13938137 0 4636
0.06650000 0.06648880 33383.17005147 0 -905.34635452 0 11745.96506061 0 3286.95249031 0 1470.15007245 0 4653
0.06750000 0.06749660 33657.43153722 0 906.73925298 0 10519.45042348 0 666.38786921 0 3223.85131117 0 5220
0.06850000 0.06852730 33127.62079465 0 1624.13289370 0 9784.69094851 0 -6.30035212 0 5410.69082448 0 5029
0.06950000 0.06949320 31530.88083256 0 847.43809571 0 10518.55356517 0 -992.59405962 0 4652.77911832 0 5040
0.07050000 0.07048030 30763.12582963 0 2107.96027130 0 11657.38646206 0 -506.22779794 0 5721.93387513 0 5475
0.07150000 0.07148790 29270.57644408 0 1190.11990546 0 12951.51978687 0 148.48098305 0 5425.85990948 0 5509
0.07250000 0.07249820 27749.90335348 0 1354.71001389 0 13014.18914534 0 858.56799662 0 3603.25559341 0 5916
0.07350000 0.07351270 26715.30532243 0 929.64014240 0 12743.80297327 0 -279.58505953 0 5203.60513340 0 5721
0.07450000 0.07449140 26478.02540157 0 346.09097855 0 11814.17058150 0 1027.20282531 0 2233.19933732 0 6028
0.07550000 0.07549160 26050.30149382 0 -108.91978792 0 11835.42944515 0 -214.93154045 0 1668.58827785 0 6183
0.07650000 0.07648840 26018.19175185 0 466.24784749 0 12209.34185427 0 -29.01203766 0 2220.61010400 0 6330
0.07750000 0.07749960 26305.85075064 0 -106.01341338 0 12286.73740476 0 -238.94409128 0 1206.96091151 0 6583
0.07850000 0.07848650 25955.07950038 0 505.13163778 0 13003.55971351 0 389.46681103 0 744.17205829 0 6549
0.07950000 0.07947320 25058.44263657 0 1407.50285862 0 12442.85718470 0 -283.45040812 0 123.45752896 0 6828
0.08050000 0.08048110 24912.06650247 0 289.85906973 0 12666.40742279 0 1282.26379260 0 1994.18106146 0 7147
0.08150000 0.08149960 24829.79912906 0 -96.71033534 0 13070.43655542 0 1477.71247030 0 652.52974747 0 7386
0.08250000 0.08250610 24364.65076343 0 573.00609615 0 11759.58402014 0 1428.44062485 0 1478.99685998 0 7227
0.08350000 0.08350160 23995.94234697 0 589.11300707 0 12228.49697621 0 903.45630867 0 1186.33317037 0 7798
0.08450000 0.08449610 23087.56881885 0 692.74221674 0 10557.02989391 0 1557.56607689 0 2852.80663417 0 7371
0.08550000 0.08548940 22875.20162883 0 650.59319786 0 10730.94289984 0 1240.33289851 0 3112.81803789 0 8256
0.08650000 0.08650700 22044.66654418 0 419.03988339 0 9402.69574227 0 1148.94192946 0 3087.47348638 0 8037
0.08750000 0.08749060 21527.92114489 0 841.12465610 0 9289.29299148 0 1887.53242881 0 4073.74081960 0 8155
0.08850000 0.08849210 20344.95396127 0 765.82288224 0 7989.82280611 0 1471.92164442 0 3871.70410864 0 8718
0.08950000 0.08949900 19924.31634141 0 429.11569897 0 7376.47137278 0 1666.50668078 0 4145.35661653 0 8571
0.09050000 0.09049190 19558.48672940 0 -109.36478465 0 6289.18014791 0 1580.16469184 0 4286.00835870 0 8932
0.09150000 0.09150830 19441.67370256 0 -110.81625571 0 5126.26494454 0 968.13307963 0 3881.95708142 0 9285
0.09250000 0.09250820 19567.56603575 0 74.34822525 0 5064.53673367 0 109.67503120 0 2798.76261673 0 9204
0.09350000 0.09350330 19233.29254948 0 625.48780856 0 5197.17211268 0 -681.70975229 0 2326.72726507 0 9349
0.09450000 0.09448040 18680.56209453 0 688.47494276 0 5916.62963474 0 -436.69802701 0 2668.50778757 0 9564
0.09550000 0.09549270 18254.83120525 0 622.16611112 0 5785.36722402 0 -546.61410272 0 2732.37295712 0 10155
0.09650000 0.09649430 18201.79476937 0 -103.28552471 0 7003.93193193 0 -256.81482354 0 2838.12473146 0 9913
0.09750000 0.09749140 18010.13282676 0 158.37078358 0 7198.83806572 0 451.27031370 0 1949.99141311 0 10476
0.09850000 0.09850240 18068.92687155 0 319.23173301 0 7173.63745443 0 -62.12725745 0 2403.93458603 0 10575
0.09950000 0.09950330 17719.48430027 0 167.40137170 0 6676.11361103 0 196.71535166 0 2784.50146237 0 10882
0.10050000 0.10051200 17796.65840426 0 495.59061549 0 7165.04533037 0 283.23671226 0 3352.55601486 0 10875
0.10150000 0.10150300 17377.12801688 0 255.98439918 0 6367.35076113 0 579.97944633 0 2594.55573010 0 11118
0.10250000 0.10250800 17105.96678207 0 228.94910367 0 6649.24107869 0 458.22594815 0 2546.02573042 0 11575
0.10350000 0.10349800 17218.24015573 0 89.26209316 0 6764.86936677 0 745.92148562 0 2481.36335348 0 11364
0.10450000 0.10450100 16933.01706840 0 -171.68525417 0 6082.23839705 0 650.85007579 0 2190.39372957 0 12093
0.10550000 0.10551000 17186.46258350 0 -102.36862549 0 5837.96076691 0 446.58229138 0 1940.02632077 0 12067
0.10650000 0.10649700 16969.22357056 0 285.14890275 0 5658.92127459 0 -400.60224810 0 1236.07005345 0 12054
0.10750000 0.10749900 16735.26534714 0 699.00804536 0 5491.60737425 0 -97.35175512 0 1471.32373888 0 12807
0.10850000 0.10850100 16374.30755806 0 403.69474842 0 5620.14599307 0 -468.73026271 0 1062.40396037 0 12736
0.10950000 0.10950300 15962.85996779 0 122.11556319 0 5618.83945874 0 291.37929993 0 1629.27045241 0 12933
0.11050000 0.11050200 16084.43409430 0 203.07529503 0 5467.95688844 0 481.49333153 0 521.97264383 0 13428
0.11150000 0.11150900 15669.66480660 0 362.22224858 0 5713.23102782 0 265.86534185 0 86.26636496 0 13453
0.11250000 0.11250000 15421.97690040 0 583.54805661 0 5842.65543263 0 -47.90839936 0 884.75293759 0 13668
0.11350000 0.11349100 14911.87489601 0 564.62323903 0 5633.65422935 0 -396.96388217 0 1077.27187814 0 13791
0.11450000 0.11448600 14591.55253900 0 431.49957051 0 6549.26905790 0 90.94486509 0 1144.55728883 0 14205
0.11550000 0.11549300 14409.08062599 0 3.84354719 0 6375.06817153 0 289.03971769 0 933.27075771 0 14776
0.11650000 0.11649800 14387.71103909 0 -63.76884033 0 6367.78258180 0 89.30527523 0 1335.72097682 0 14553
0.11750000 0.11747300 14237.01669831 0 121.22091935 0 6357.92821271 0 292.26508591 0 830.88275565 0 14568
0.11850000 0.11849100 14201.25308915 0 346.03118800 0 6390.20403956 0 149.58267937 0 745.30254266 0 16015
0.11950000 0.11950300 13985.23203194 0 68.63036599 0 5781.70228450 0 241.49626215 0 390.72241267 0 15270
0.12050000 0.12050700 13898.64645185 0 -9.28770965 0 5577.10786650 0 280.07667075 0 -203.14726515 0 15999
0.12150000 0.12150000 13944.37515335 0 -51.92997846 0 5357.96441369 0 226.65159627 0 -160.52877969 0 15670
0.12250000 0.12250700 13905.28984675 0 72.18956480 0 4825.07556482 0 210.03425118 0 -1270.51605597 0 16887
0.12350000 0.12352200 13752.38104100 0 275.28789027 0 4786.43315120 0 -12.80802246 0 -818.47178676 0 16407
0.12450000 0.12449800 13445.45619703 0 567.20973411 0 4783.93080579 0 -94.55145345 0 -1173.79929867 0 16306
0.12550000 0.12549900 12962.48138844 0 399.69874640 0 4929.56509413 0 159.95412603 0 -1100.29788483 0 17523
0.12650000 0.12650100 12789.86384451 0 162.09883534 0 4809.14248941 0 257.89548244 0 -1030.04398386 0 17154
0.12750000 0.12750600 12644.70566614 0 30.50491921 0 4832.61581802 0 46.76628906 0 -1092.67569643 0 18007
0.12850000 0.12850300 12757.53265604 0 -136.02351040 0 4662.53383648 0 662.61331368 0 -884.56249360 0 17496
0.12950000 0.12949900 12816.43742408 0 -7.99430710 0 4711.47351218 0 170.12184191 0 -666.26164471 0 18405
0.13050000 0.13049000 12804.70075977 0 336.70829050 0 4349.47492456 0 199.34059987 0 -243.29219324 0 18100
0.13150000 0.13148800 12442.52501495 0 481.10247846 0 4372.25069671 0 95.29961044 0 -619.94832446 0 19059
0.13250000 0.13249300 12057.76172751 0 120.34842015 0 4562.65039429 0 20.62940199 0 546.03391290 0 18957
0.13350000 0.13349100 12189.85456259 0 -69.61414205 0 4516.29057028 0 579.37600462 0 618.46574016 0 19468
0.13450000 0.13450700 12279.42967038 0 -174.83754505 0 4237.02439370 0 750.50653532 0 514.89742827 0 19953
0.13550000 0.13551000 12391.37087429 0 -126.35294190 0 4216.25271234 0 436.41568273 0 493.06169650 0 19956
0.13650000 0.13649900 12432.55992262 0 139.84567692 0 4261.68246107 0 -204.36743534 0 120.05168185 0 19723
0.13750000 0.13749600 12011.59013301 0 447.97629707 0 4196.52182952 0 -279.18534860 0 790.82197722 0 20946
0.13850000 0.13851100 12000.62853144 0 398.33463598 0 4483.54970579 0 -263.32092160 0 629.69197030 0 20955
0.13950000 0.13949800 11584.86273450 0 112.41509942 0 4409.92981807 0 109.61911596 0 895.19303266 0 20506
0.14050000 0.14048300 11475.80033504 0 198.33634001 0 4205.00323033 0 565.10488516 0 652.74565780 0 21447
0.14150000 0.14148400 11488.75495508 0 -54.72086866 0 3912.54991489 0 702.64862576 0 559.25537596 0 21771
0.14250000 0.14249400 11501.70957511 0 -36.52837464 0 3664.81771940 0 421.11926599 0 407.23899960 0 22470
0.14350000 0.14350900 11357.65862922 0 119.17696819 0 3481.95827502 0 215.78743116 0 72.77230125 0 22519
0.14450000 0.14449900 11205.96777921 0 317.40479941 0 3543.71970286 0 -191.08728895 0 484.39206617 0 22218
0.14550000 0.14550500 10998.70493093 0 362.82790475 0 3178.22226059 0 -205.61417911 0 253.58724086 0 23559
0.14650000 0.14650700 10788.96188189 0 89.34934308 0 3349.84329528 0 45.82724519 0 474.72481937 0 23044
0.14750000 0.14750500 10580.94611552 0 183.69319044 0 3368.68839212 0 272.02044721 0 81.35722830 0 23649
0.14850000 0.14849900 10542.23726795 0 222.98554952 0 3385.67333840 0 221.26269578 0 191.82027686 0 23640
0.14950000 0.14949500 10357.98271065 0 131.98875523 0 3369.37487626 0 348.82916448 0 434.34405075 0 24457
0.15050000 0.15050000 10317.73480993 0 54.65044867 0 3113.94741502 0 149.53506837 0 922.72658278 0 24591
0.15150000 0.15149900 10115.45450782 0 111.97442089 0 3216.05639450 0 266.76995079 0 954.76656911 0 25020
0.15250000 0.15250500 10285.74686353 0 36.82489150 0 3417.36233203 0 204.50030324 0 1087.44291572 0 25297
0.15350000 0.15350100 10146.71168078 0 176.49175038 0 3354.88120308 0 126.13038817 0 1120.16495725 0 25452
0.15450000 0.15450400 9878.76142017 0 402.48011439 0 3274.38540164 0 -354.29114231 0 1152.97225569 0 26061
0.15550000 0.15549900 9743.86728691 0 223.60559971 0 3169.84051071 0 32.36407328 0 1204.97896536 0 26128
0.15650000 0.15649500 9598.12227532 0 -58.34639069 0 3180.32600231 0 55.22554522 0 693.39659114 0 26331
0.15750000 0.15749700 9447.62723638 0 169.17294367 0 3170.03981255 0 125.31325060 0 249.49601684 0 27345
0.15850000 0.15849900 9332.61899849 0 389.80451694 0 3081.89303467 0 -112.78048614 0 -165.80917139 0 26980
0.15950000 0.15949700 8998.68875429 0 323.64073275 0 2980.86914303 0 -54.02984486 0 97.46635368 0 27777
0.16050000 0.16050000 8815.37534459 0 180.68041086 0 3107.96835962 0 -69.74103089 0 431.31355545 0 28224
0.16150000 0.16150500 8805.39917993 0 25.07361172 0 3240.95805302 0 212.77908050 0 658.35157586 0 28075
0.16250000 0.16249700 8893.65668106 0 -116.07339554 0 3216.55464912 0 436.96487004 0 753.58242716 0 28590
0.16350000 0.16349900 8884.99812305 0 -72.66955008 0 3009.98935730 0 417.77542389 0 718.79539704 0 29163
0.16450000 0.16449100 8857.53875750 0 108.60012990 0 2992.09648039 0 333.04888715 0 931.54347504 0 28996
0.16550000 0.16550500 8835.47161413 0 93.85766158 0 2658.09980224 0 188.46868413 0 858.15056998 0 30777
0.16650000 0.16650700 8704.86247057 0 73.79626985 0 2543.74483151 0 439.70194873 0 1018.74135468 0 29211
0.16750000 0.16749900 8689.25049258 0 21.92298169 0 2426.81000910 0 -109.82816145 0 616.86136030 0 30922
0.16850000 0.16850800 8496.69169166 0 194.11778426 0 2187.66993767 0 65.09906943 0 455.56305404 0 30867
0.16950000 0.16949900 8636.20298437 0 139.25662924 0 2363.93027646 0 -226.67374092 0 328.22135353 0 30852
0.17050000 0.17049200 8278.50045878 0 215.88597485 0 2320.39389527 0 -103.56543308 0 552.52340247 0 31257
0.17150000 0.17149500 8203.97264043 0 263.23012854 0 2485.59298156 0 -71.31440825 0 315.77163150 0 32608
0.17250000 0.17250900 8028.12197766 0 226.36260859 0 2569.72050554 0 11.73821443 0 106.71528805 0 32361
0.17350000 0.17350400 7839.46063507 0 74.04063606 0 2557.34164639 0 44.20160646 0 365.07226499 0 32508
0.17450000 0.17449800 7803.17662664 0 92.28782736 0 2437.78268300 0 350.67713549 0 297.57315843 0 32791
0.17550000 0.17549800 7774.20035259 0 -45.74010600 0 2236.72033661 0 326.29809071 0 407.66860580 0 33633
0.17650000 0.17650100 7698.43243386 0 -88.02332146 0 2146.45874469 0 475.94388233 0 247.24722767 0 33984
0.17750000 0.17750300 7866.00099766 0 -84.11146910 0 1819.81409022 0 95.54187290 0 36.55029784 0 34069
0.17850000 0.17849800 7857.51959685 0 49.00090565 0 1889.49223030 0 -8.92855665 0 24.90055128 0 34536
