### header ###
fiducial parameters:
Omega_m = 0.31
Omega_nu = 0
Omega_de = 0.69
Omega_k = 0
H_0 = 100
w_de = -1
zeff = 0
beta = 0
fgrowth = 0
b_1 = 2
gamma = 0.55
Lx = 3500 Ly = 3500 Lz = 3500
nx = 700 ny = 700 nz = 700
xoffset = -685.467585 yoffset = -31.7331281 zoffset = 572.489161
bins = 400 dk = 0.001
kx_ny = 0.628318531 ky_ny = 0.628318531 kz_ny = 0.628318531
############################
A(data) = 8.07946771 (not used)
A(ran) = 8.07540409 (used)
Ngal = 479761
weighted Ngal = 0
Nran = 23820508
weighted Nran = 0
SN(data) = 3488.22055
SN(ran) = 70.3396983
SN(data+ran) = 3558.56025
############################
13 columns: k_central k_mean P_0(k) sigma^{lin}_{P_0(k)} P^img_1(k) sigma^{lin}_{P_1(k)} P_2(k) sigma^{lin}_{P_2(k)} P^img_3(k) sigma^{lin}_{P_3(k)} P_4(k) sigma^{lin}_{P_4(k)} N_modes
### header ###
0.00050000 0 0 0 0 0 0 0 0 0 0 0 0
0.00150000 0.00179520 6775.27735210 0 -3100.66062524 0 14004.38715387 0 10460.43493219 0 -12829.28132087 0 3
0.00250000 0.00253879 28855.14281688 0 -24382.25575989 0 3630.13919807 0 35309.86529316 0 27405.88622137 0 6
0.00350000 0.00331552 40257.42291512 0 -24067.24811880 0 16307.09854641 0 -7278.41486419 0 -3257.89870999 0 7
0.00450000 0.00420575 66766.78299593 0 -20701.26137393 0 1362.58243683 0 12057.76172751 0 -17247.80326300 0 24
0.00550000 0.00557378 73641.81092232 0 -4108.62971510 0 1624.53149739 0 4588.41569415 0 -15466.04475318 0 45
0.00650000 0.00659388 71403.31901373 0 16743.12669776 0 8922.62188278 0 -14990.93129521 0 10727.35546660 0 40
0.00750000 0.00754703 62985.25190061 0 2599.85937369 0 6975.42069552 0 -6909.71752005 0 -10503.45091411 0 57
0.00850000 0.00846663 49880.04824526 0 13802.53867243 0 15366.72599956 0 -17048.61213951 0 16139.35282540 0 75
0.00950000 0.00948925 52087.53764436 0 5996.62718156 0 17378.56741911 0 -14301.56835200 0 8321.01818608 0 112
0.01050000 0.01054430 45639.56928622 0 580.99367128 0 18808.22599969 0 -9163.67746641 0 5960.34317313 0 105
0.01150000 0.01145670 46473.86896130 0 2395.67463171 0 27454.05083433 0 -7359.51964348 0 1871.47755782 0 144
0.01250000 0.01249090 52829.38340721 0 -6419.41283243 0 12561.44178351 0 22475.49070287 0 11799.44438949 0 169
0.01350000 0.01339930 55921.99445230 0 -6747.00970684 0 -751.19191223 0 31645.03650144 0 8204.78092014 0 180
0.01450000 0.01448870 66180.28195028 0 -11495.06618022 0 -5483.71280666 0 18557.43784255 0 -12963.47789767 0 267
0.01550000 0.01550050 70848.92771006 0 -4891.44307978 0 -12011.25796327 0 3947.95920966 0 3447.47905553 0 238
0.01650000 0.01653350 67925.61251145 0 8530.00831704 0 -12394.36040199 0 -10862.90286703 0 -12703.38898768 0 315
0.01750000 0.01747870 63963.38107509 0 1761.69545725 0 -14176.22963506 0 -7093.70634156 0 8133.40871436 0 297
0.01850000 0.01844180 69137.36773960 0 -4032.52962663 0 423.95599561 0 -13145.06402470 0 -22931.00614591 0 388
0.01950000 0.01947590 69236.68649322 0 1610.11533048 0 6110.47282534 0 -12736.05234590 0 -3675.18141543 0 399
0.02050000 0.02045430 71738.03539300 0 25.69609782 0 6921.01129137 0 -8001.43767484 0 -15764.77607679 0 462
0.02150000 0.02154770 69248.97677377 0 2016.89039967 0 14455.58439023 0 -2699.34421219 0 -8288.74235924 0 571
0.02250000 0.02255340 70313.69152833 0 5258.52386450 0 23222.20828864 0 121.65052555 0 -9641.14932956 0 510
0.02350000 0.02348930 64432.07258467 0 4151.45746750 0 18350.16392194 0 4034.88803181 0 -7521.95064857 0 555
0.02450000 0.02439640 62441.37930552 0 2580.99213220 0 15316.12547514 0 6943.58776167 0 -7864.72768031 0 592
0.02550000 0.02547300 61715.47769041 0 -733.75964403 0 11526.17941296 0 6.52300550 0 -18992.58020792 0 837
0.02650000 0.02652900 63029.43047664 0 520.13685238 0 12399.67511791 0 -7336.21239974 0 -14405.09458906 0 723
0.02750000 0.02749970 57805.28618071 0 4836.35826381 0 12751.66432389 0 -7705.45228779 0 -16434.65172832 0 826
0.02850000 0.02848090 59561.35689694 0 4069.85443359 0 18192.71546302 0 -8251.76079434 0 -9979.94032436 0 831
0.02950000 0.02946900 55854.78544065 0 -2108.75747869 0 21669.75762582 0 -178.99631025 0 -19829.20507122 0 996
0.03050000 0.03053250 58115.75416862 0 -2426.44462238 0 20162.48204826 0 3846.82459477 0 -19190.44265243 0 1041
0.03150000 0.03150510 60142.10033368 0 -1133.06421567 0 26402.29069981 0 2905.89843168 0 -14968.67592233 0 1036
0.03250000 0.03246190 60389.23462363 0 571.36074869 0 19842.15969126 0 4858.35897322 0 -14116.21763454 0 1059
0.03350000 0.03345080 57889.21440283 0 1856.38597909 0 21965.61014498 0 4923.67461733 0 -7632.80676466 0 1302
0.03450000 0.03451200 56687.20282052 0 1710.78490773 0 14359.47661081 0 6084.88468269 0 -6352.84601562 0 1339
0.03550000 0.03553350 55931.29520515 0 -93.44588182 0 17831.53622744 0 6837.03877994 0 -730.41912364 0 1365
0.03650000 0.03647120 56681.11304187 0 2816.76621689 0 16829.60155460 0 -599.19878775 0 -3563.25128384 0 1308
0.03750000 0.03744890 54864.69815537 0 146.33516650 0 13599.80440500 0 3658.82759167 0 6710.93607258 0 1579
0.03850000 0.03847530 54419.25852792 0 648.31119171 0 13113.72934546 0 4500.00318047 0 4179.83583601 0 1662
0.03950000 0.03950240 54584.56833746 0 947.53634101 0 12448.17190061 0 3656.29202929 0 3810.03125940 0 1683
0.04050000 0.04050350 53865.31011724 0 1244.71753914 0 11408.92349313 0 -569.07984977 0 -1250.95125801 0 1822
0.04150000 0.04152450 51425.52334345 0 2985.94026779 0 15531.03929987 0 213.40134516 0 3618.28073819 0 1887
0.04250000 0.04250150 49665.35586703 0 3117.95559661 0 14016.67743442 0 -5000.06258625 0 1676.20603732 0 1920
0.04350000 0.04349210 44772.60625292 0 4122.52548275 0 12901.91577168 0 130.29690400 0 2782.78525202 0 2005
0.04450000 0.04448520 43396.42700121 0 2514.49174934 0 13542.44976244 0 2279.80275248 0 1389.99751308 0 2151
0.04550000 0.04548030 41198.34907821 0 -405.09761198 0 12630.20092063 0 2801.51962561 0 812.96551962 0 2274
0.04650000 0.04648670 41611.78968694 0 -681.40858506 0 13713.29573439 0 4733.10883488 0 2539.54842040 0 2311
0.04750000 0.04749250 41070.46372656 0 1467.06089382 0 14139.13734691 0 -1296.25921117 0 70.46228213 0 2568
0.04850000 0.04851840 40749.58775331 0 1277.50269293 0 12370.22273389 0 -1930.64806165 0 1423.79024843 0 2493
0.04950000 0.04949480 39866.34840253 0 2113.39678278 0 17031.45003604 0 -3217.75046020 0 3178.58764731 0 2644
0.05050000 0.05050630 38853.00923513 0 -154.75124060 0 14062.07396618 0 -2615.10596497 0 385.52506340 0 2829
0.05150000 0.05149060 38983.88411448 0 167.88523230 0 16735.48679364 0 1328.61254429 0 -6498.80140138 0 2784
0.05250000 0.05249300 38357.52269949 0 1084.97710898 0 14326.81325259 0 -1345.88537101 0 -5063.39628422 0 3055
0.05350000 0.05348950 36492.94320003 0 1120.10959563 0 13862.99356594 0 696.35843803 0 -5935.48580391 0 3009
0.05450000 0.05448610 36313.90370771 0 1206.55123549 0 12210.33836351 0 1461.42508049 0 -8485.95153658 0 3336
0.05550000 0.05550870 34730.67198190 0 466.11276512 0 11631.03432900 0 203.39417799 0 -6616.03517656 0 3349
0.05650000 0.05647670 34807.07102314 0 987.62590748 0 12531.54650650 0 727.01438375 0 -7789.74589664 0 3324
0.05750000 0.05747970 34425.74015639 0 163.59027750 0 12322.83318366 0 1716.35428711 0 -2968.27990971 0 3639
0.05850000 0.05849280 33699.17420179 0 391.95808412 0 12106.14778696 0 2971.63482413 0 -905.16476839 0 3846
0.05950000 0.05951020 34031.45466960 0 -458.19273118 0 10042.56539354 0 3818.05869489 0 -299.18307446 0 3787
0.06050000 0.06049470 34587.50682199 0 -789.59959256 0 11879.16512818 0 3437.20393810 0 -740.53147789 0 3930
0.06150000 0.06148310 33361.13612508 0 1102.00080839 0 9331.13530697 0 598.62745579 0 302.37744017 0 4083
0.06250000 0.06249100 34598.57914681 0 758.64580130 0 10371.76775505 0 -676.48250775 0 2756.25596176 0 4303
0.06350000 0.06350600 32101.10556072 0 1300.79886434 0 10807.06513297 0 -1637.30896023 0 1580.20898114 0 4470
0.06450000 0.06451750 32344.91815322 0 895.02805502 0 10708.02318746 0 -1634.95055505 0 4405.41230954 0 4479
0.06550000 0.06550280 31048.90253320 0 789.16555743 0 12355.05364889 0 511.30002994 0 1381.50503995 0 4636
0.06650000 0.06648880 31259.38742800 0 827.90208580 0 11674.88073528 0 655.49713052 0 2821.39444866 0 4653
0.06750000 0.06749660 30264.87121279 0 948.64357349 0 11768.33115675 0 2263.20533758 0 2892.77772677 0 5220
0.06850000 0.06852730 29831.50041939 0 473.17469389 0 12086.66049528 0 2657.74548784 0 3657.94180569 0 5029
0.06950000 0.06949320 29021.22768916 0 226.10683789 0 10843.88061299 0 2367.96060269 0 5711.52588980 0 5040
0.07050000 0.07048030 29818.76724585 0 -652.59950311 0 10750.58520407 0 1855.64413333 0 3188.89598172 0 5475
0.07150000 0.07148790 29442.30820201 0 -118.72078840 0 9539.07356706 0 -395.85000629 0 6253.75978082 0 5509
0.07250000 0.07249820 29955.28901086 0 18.49321836 0 11212.61117410 0 -133.47687569 0 3852.32754020 0 5916
0.07350000 0.07351270 29708.37616741 0 91.49205938 0 10360.75079185 0 -1948.89525295 0 5019.60523956 0 5721
0.07450000 0.07449140 30086.82822971 0 811.89371858 0 11458.30606182 0 -1716.47608269 0 3268.92674551 0 6028
0.07550000 0.07549160 28675.21753858 0 1471.64483630 0 10584.33424691 0 98.76657678 0 1197.73766493 0 6183
0.07650000 0.07648840 28046.42021213 0 1263.33011716 0 10041.30314851 0 662.59670519 0 -347.28678963 0 6330
0.07750000 0.07749960 26460.97402135 0 402.15790974 0 9968.66869770 0 1500.46609780 0 -791.25158342 0 6583
0.07850000 0.07848650 26036.46108780 0 148.75446947 0 7732.88950869 0 2603.51324088 0 -706.12312129 0 6549
0.07950000 0.07947320 25532.78103180 0 57.94623688 0 7489.82983427 0 2304.01792686 0 -1694.50859025 0 6828
0.08050000 0.08048110 25447.08123770 0 819.12283946 0 5742.81627974 0 1624.13289370 0 315.55904287 0 7147
0.08150000 0.08149960 24425.10565694 0 759.15069931 0 6490.58573637 0 319.70562851 0 427.81691527 0 7386
0.08250000 0.08250610 23917.88245700 0 562.94467459 0 6295.70174723 0 -525.93653612 0 1908.69164154 0 7227
0.08350000 0.08350160 23460.59544199 0 564.77935881 0 7718.37369086 0 -874.39367049 0 1946.19360570 0 7798
0.08450000 0.08449610 23523.04335397 0 546.08927452 0 7825.81953090 0 -1160.85575096 0 1585.57905868 0 7371
0.08550000 0.08548940 23010.94833110 0 176.98668330 0 8195.69054146 0 -738.71229493 0 1754.23271032 0 8256
0.08650000 0.08650700 23383.75350775 0 360.69980392 0 9528.48842453 0 -884.79944135 0 -117.55265813 0 8037
0.08750000 0.08749060 22652.98006972 0 1139.61903196 0 9259.47522074 0 -385.14306819 0 -216.67321714 0 8155
0.08850000 0.08849210 21909.91635114 0 796.62166096 0 9163.44494759 0 -99.22120644 0 -1414.25697676 0 8718
0.08950000 0.08949900 20999.54980455 0 220.61717924 0 9009.31818611 0 493.28425023 0 -1503.35597458 0 8571
0.09050000 0.09049190 20945.40613619 0 362.89101700 0 8443.19021813 0 1342.78512006 0 -2783.60460406 0 8932
0.09150000 0.09150830 21027.56278634 0 -100.66625555 0 8366.66938131 0 1022.71299759 0 -2543.57874664 0 9285
0.09250000 0.09250820 20402.97294332 0 120.14247491 0 7408.82470590 0 1095.28987232 0 -1180.99630981 0 9204
0.09350000 0.09350330 20714.21599397 0 130.73647530 0 6827.50550827 0 515.72120924 0 -1438.61609136 0 9349
0.09450000 0.09448040 20486.12610271 0 199.49782688 0 6948.33778902 0 674.49170374 0 -176.63126167 0 9564
0.09550000 0.09549270 20159.60324381 0 383.91625460 0 6652.76207798 0 1210.38225988 0 -524.90016652 0 10155
0.09650000 0.09649430 19544.31415363 0 407.09395214 0 6721.24440699 0 435.29294899 0 -264.74482258 0 9913
0.09750000 0.09749140 19321.76042478 0 459.86133053 0 5836.98640232 0 228.84502382 0 -696.03069721 0 10476
0.09850000 0.09850240 19061.00717530 0 382.64515171 0 5720.00729061 0 -15.52638892 0 -693.25265092 0 10575
0.09950000 0.09950330 18394.56394447 0 602.42747766 0 6093.21107095 0 -480.66179993 0 -277.63854483 0 10882
0.10050000 0.10051200 18230.80426040 0 403.12341646 0 6040.65074504 0 -64.99244294 0 491.80055870 0 10875
0.10150000 0.10150300 17542.88071942 0 526.91532963 0 6362.84432493 0 391.95586965 0 -659.48981085 0 11118
0.10250000 0.10250800 17397.39037130 0 310.44473603 0 6419.71178520 0 441.43698203 0 468.87973910 0 11575
0.10350000 0.10349800 17275.70552154 0 107.80602277 0 6520.27063920 0 361.81478703 0 -127.58529165 0 11364
0.10450000 0.10450100 17018.82758575 0 149.53506837 0 6575.62119097 0 355.34079871 0 1189.14554087 0 12093
0.10550000 0.10551000 17020.82060422 0 196.69763594 0 6305.83292444 0 208.41658453 0 605.14241171 0 12067
0.10650000 0.10649700 17045.29044207 0 355.47366661 0 6524.30096544 0 14.17490096 0 287.96127326 0 12054
0.10750000 0.10749900 16140.68150438 0 503.78635032 0 6481.11889865 0 -334.62447897 0 726.25814397 0 12807
0.10850000 0.10850100 16163.93338650 0 610.54792068 0 6612.03806730 0 333.29026383 0 162.48636671 0 12736
0.10950000 0.10950300 15486.41783085 0 250.58553360 0 6021.92744377 0 579.71592499 0 310.42148415 0 12933
0.11050000 0.11050200 15541.00439220 0 6.10413946 0 5464.62411867 0 1160.03639892 0 -29.11157786 0 13428
0.11150000 0.11150900 15514.09864289 0 109.12418304 0 5113.49855402 0 663.12596232 0 -174.88515605 0 13453
0.11250000 0.11250000 15152.14434457 0 90.05199281 0 4672.77573694 0 575.14084038 0 300.12532930 0 13668
0.11350000 0.11349100 15470.25223661 0 321.39747974 0 5161.54137141 0 -229.98768774 0 -180.47557285 0 13791
0.11450000 0.11448600 15118.37375388 0 260.69456616 0 5272.81823584 0 -993.39458871 0 -70.50590709 0 14205
0.11550000 0.11549300 14762.28778771 0 419.01884597 0 5866.33913542 0 -225.85328165 0 526.33181811 0 14776
0.11650000 0.11649800 14724.19899033 0 234.71335597 0 5911.70245020 0 -513.56542760 0 238.50562722 0 14553
0.11750000 0.11747300 14585.57348360 0 -47.41656670 0 6081.52976827 0 263.76160013 0 194.58725083 0 14568
0.11850000 0.11849100 14718.10921168 0 130.21607603 0 6730.48979821 0 -101.44729735 0 -357.88743342 0 16015
0.11950000 0.11950300 14431.11455238 0 154.25187875 0 6762.17879184 0 25.65346937 0 153.80787852 0 15270
0.12050000 0.12050700 14497.99139429 0 199.24759234 0 6982.37411551 0 -718.11887800 0 -531.41733690 0 15999
0.12150000 0.12150000 14235.57729609 0 393.41520206 0 7118.66336170 0 -16.26225563 0 601.72549227 0 15670
0.12250000 0.12250700 14137.80866794 0 77.47416399 0 7007.40864193 0 -64.10876070 0 25.05047056 0 16887
0.12350000 0.12352200 14003.72281438 0 119.26886848 0 6525.00959423 0 1059.91047282 0 210.76834632 0 16407
0.12450000 0.12449800 13937.28886547 0 -124.11190336 0 6037.00795017 0 877.65004121 0 -76.51906525 0 16306
0.12550000 0.12549900 13920.12676200 0 -54.31263204 0 5380.83983677 0 1577.16409182 0 -419.20596826 0 17523
0.12650000 0.12650100 13744.40896713 0 -100.40649881 0 4443.85542131 0 862.07238743 0 -649.37192043 0 17154
0.12750000 0.12750600 13749.61295979 0 117.66005969 0 3719.39320843 0 986.84198688 0 -909.94026208 0 18007
0.12850000 0.12850300 13611.20889956 0 151.57791230 0 3532.28199132 0 -133.93084101 0 -659.24954140 0 17496
0.12950000 0.12949900 13517.64775484 0 69.48005619 0 3387.46705502 0 148.54852423 0 -363.22429398 0 18405
0.13050000 0.13049000 13491.95996127 0 173.83217796 0 3723.97715090 0 -365.68013562 0 -10.78806502 0 18100
0.13150000 0.13148800 13213.60171532 0 485.29556787 0 3998.07255179 0 93.29297301 0 -414.48694342 0 19059
0.13250000 0.13249300 12779.34513594 0 632.28843047 0 4461.12824803 0 -395.95408614 0 189.96123352 0 18957
0.13350000 0.13349100 12397.46065294 0 479.22571941 0 4516.57845072 0 -411.56163521 0 60.93875410 0 19468
0.13450000 0.13450700 12111.79467262 0 58.12250829 0 4543.27382586 0 78.55825531 0 359.01016715 0 19953
0.13550000 0.13551000 12069.38766857 0 -55.82322931 0 4353.05128548 0 423.98810535 0 -372.66677258 0 19956
0.13650000 0.13649900 12061.85848769 0 22.38691210 0 4141.81347259 0 217.74833988 0 -201.94148897 0 19723
0.13750000 0.13749600 12085.11036981 0 72.85611875 0 4070.02051846 0 328.85136881 0 -228.23161702 0 20946
0.13850000 0.13851100 12077.13829594 0 -2.15805147 0 3861.21861703 0 807.13151168 0 161.03921386 0 20955
0.13950000 0.13949800 11868.09280336 0 197.16378081 0 3607.08661779 0 387.36749825 0 337.78341324 0 20506
0.14050000 0.14048300 11751.94411601 0 205.01627357 0 3476.64355911 0 576.29014770 0 179.94188679 0 21447
0.14150000 0.14148400 11640.88869808 0 181.44883020 0 3742.50115033 0 255.04214434 0 431.38774003 0 21771
0.14250000 0.14249400 11485.76542737 0 305.26620972 0 3535.42653157 0 -541.25288304 0 248.69105882 0 22470
0.14350000 0.14350900 11058.91623329 0 422.65499744 0 3482.98800123 0 -421.35621374 0 433.37965126 0 22519
0.14450000 0.14449900 11005.87979741 0 265.87087801 0 3706.01784005 0 -135.44664227 0 344.82541183 0 22218
0.14550000 0.14550500 10728.61771163 0 34.52572325 0 3367.95761869 0 266.63929735 0 312.82750033 0 23559
0.14650000 0.14650700 10770.91399243 0 231.33297520 0 3399.22586397 0 360.04764399 0 -473.44596585 0 23044
0.14750000 0.14750500 10507.29301083 0 134.15782367 0 2905.58840658 0 344.38473330 0 -570.21144137 0 23649
0.14850000 0.14849900 10358.54739921 0 195.19179976 0 3269.87896544 0 102.23088577 0 -438.87816777 0 23640
0.14950000 0.14949500 10077.17748092 0 257.93977174 0 2787.94495539 0 249.73517905 0 -419.05317018 0 24457
0.15050000 0.15050000 10092.44621685 0 -52.01833561 0 2731.81934088 0 170.63006162 0 -806.81595042 0 24591
0.15150000 0.15149900 9943.04733807 0 -7.94386159 0 2486.12445315 0 208.10102327 0 -850.60145892 0 25020
0.15250000 0.15250500 9998.19858799 0 142.33916447 0 2626.47724256 0 -226.63609502 0 -978.38273072 0 25297
0.15350000 0.15350100 9835.42434083 0 234.48748054 0 2446.48553030 0 -173.28299064 0 -566.01835196 0 25452
0.15450000 0.15450400 9846.76240144 0 73.97088042 0 2664.63247388 0 -87.90672988 0 -668.90903757 0 26061
0.15550000 0.15549900 9735.87306839 0 30.14816891 0 2542.91440715 0 392.10645327 0 -180.70919890 0 26128
0.15650000 0.15649500 9751.51826335 0 191.27330401 0 2687.89542832 0 221.19515460 0 -275.88801027 0 26331
0.15750000 0.15749700 9554.56374948 0 253.06130543 0 2787.50206239 0 -85.37293907 0 229.17719356 0 27345
0.15850000 0.15849900 9336.41680590 0 370.71361449 0 3010.26616542 0 -168.61711297 0 417.31038625 0 26980
0.15950000 0.15949700 9164.30858892 0 177.00993518 0 3168.89936310 0 -3.85287008 0 407.27553827 0 27777
0.16050000 0.16050000 9122.23375461 0 -179.84666480 0 3118.49814052 0 80.18190102 0 473.31420519 0 28224
0.16150000 0.16150500 9299.08092662 0 -147.19770060 0 2927.50053740 0 24.18428259 0 161.86853099 0 28075
0.16250000 0.16249700 9456.82833831 0 -39.36322196 0 3151.82583823 0 71.50728814 0 -188.52183129 0 28590
0.16350000 0.16349900 9329.23086710 0 72.75037805 0 2947.84039809 0 -47.42044201 0 -32.64630683 0 29163
0.16450000 0.16449100 9225.51640052 0 272.92394892 0 2808.49519025 0 116.07561000 0 117.32456824 0 28996
0.16550000 0.16550500 9076.66006566 0 170.00668973 0 2737.04547819 0 184.71073709 0 -227.05019996 0 30777
0.16650000 0.16650700 8919.47734253 0 148.37690320 0 2742.91381035 0 436.53747830 0 -102.96442729 0 29211
0.16750000 0.16749900 8816.33863685 0 144.32775401 0 2537.17894289 0 287.03894860 0 -33.23192209 0 30922
0.16850000 0.16850800 8596.86301429 0 197.70743196 0 2488.41642439 0 121.63723876 0 -61.12476916 0 30867
0.16950000 0.16949900 8535.21230970 0 146.03732096 0 2533.02682109 0 -21.83661756 0 -61.26882011 0 30852
0.17050000 0.17049200 8343.52822244 0 107.82495644 0 2483.89891587 0 72.71583240 0 -200.63716911 0 31257
0.17150000 0.17149500 8231.77524805 0 245.36825414 0 2407.11234325 0 -78.07195881 0 -18.72075463 0 32608
0.17250000 0.17250900 8231.42093365 0 13.39784520 0 2414.85189830 0 87.53481049 0 -180.10575720 0 32361
0.17350000 0.17350400 8155.86338909 0 -82.50587128 0 2358.33875242 0 99.38983795 0 -191.06514430 0 32508
0.17450000 0.17449800 8316.87713660 0 -24.75162852 0 2467.43436886 0 -72.78193418 0 -165.40060261 0 32791
0.17550000 0.17549800 8239.00547615 0 51.29863450 0 2504.59309095 0 220.93606220 0 -100.90674645 0 33633
0.17650000 0.17650100 8234.57654623 0 186.56756596 0 2432.49011173 0 37.60017568 0 -94.11930061 0 33984
0.17750000 0.17750300 8083.29537223 0 177.02432920 0 2369.13426912 0 -93.69146598 0 1.74247390 0 34069
0.17850000 0.17849800 8027.30262562 0 211.21788271 0 2684.45193531 0 -25.25541930 0 365.95140758 0 34536
