### header ###
fiducial parameters:
Omega_m = 0.31
Omega_nu = 0
Omega_de = 0.69
Omega_k = 0
H_0 = 100
w_de = -1
zeff = 0
beta = 0
fgrowth = 0
b_1 = 2
gamma = 0.55
Lx = 3500 Ly = 3500 Lz = 3500
nx = 700 ny = 700 nz = 700
xoffset = -685.467585 yoffset = -31.7331281 zoffset = 572.489161
bins = 400 dk = 0.001
kx_ny = 0.628318531 ky_ny = 0.628318531 kz_ny = 0.628318531
############################
A(data) = 8.05374289 (not used)
A(ran) = 8.05142694 (used)
Ngal = 478988
weighted Ngal = 0
Nran = 23820508
weighted Nran = 0
SN(data) = 3489.89054
SN(ran) = 70.1308487
SN(data+ran) = 3560.02139
############################
13 columns: k_central k_mean P_0(k) sigma^{lin}_{P_0(k)} P^img_1(k) sigma^{lin}_{P_1(k)} P_2(k) sigma^{lin}_{P_2(k)} P^img_3(k) sigma^{lin}_{P_3(k)} P_4(k) sigma^{lin}_{P_4(k)} N_modes
### header ###
0.00050000 0 0 0 0 0 0 0 0 0 0 0 0
0.00150000 0.00179520 7038.96476766 0 -7625.41045168 0 12886.30379369 0 1150.70242910 0 25219.87713242 0 3
0.00250000 0.00253879 13269.51695566 0 -5541.56570383 0 4913.47700617 0 -22814.74673532 0 -54620.66411637 0 6
0.00350000 0.00331552 15127.78522997 0 -770.15991188 0 -9756.91048554 0 23551.83139849 0 12355.71798838 0 7
0.00450000 0.00420575 22311.17740257 0 -9394.02611194 0 -8820.14751658 0 -13145.50691769 0 -19327.73948018 0 24
0.00550000 0.00557378 44117.23534690 0 -23062.76681125 0 -14489.68715067 0 -36572.88538522 0 -43395.98410822 0 45
0.00650000 0.00659388 83028.26356408 0 -24103.56534421 0 19197.63966356 0 -82471.10417921 0 -78105.28650321 0 40
0.00750000 0.00754703 80491.92611787 0 2719.55120498 0 29642.60655798 0 -80994.38821814 0 -39677.67598762 0 57
0.00850000 0.00846663 94885.50548912 0 -993.87623484 0 47456.64851221 0 -52914.30813857 0 -39086.96745854 0 75
0.00950000 0.00948925 89429.28526499 0 -7764.64493627 0 44669.85507860 0 -18822.73074520 0 -58764.48167975 0 112
0.01050000 0.01054430 101916.98536520 0 -7801.17253585 0 52941.98895061 0 -3089.74331297 0 -80392.38591775 0 105
0.01150000 0.01145670 99634.20415734 0 5008.61042101 0 40336.14714458 0 15322.32597704 0 -71077.34977107 0 144
0.01250000 0.01249090 106036.55453723 0 6154.95035414 0 33336.66628723 0 -4769.74715770 0 -50704.93644425 0 169
0.01350000 0.01339930 93048.38535521 0 4787.21928627 0 13695.58001468 0 10468.94954998 0 -30478.01346555 0 180
0.01450000 0.01448870 97811.81021544 0 -11170.97923278 0 12291.05561143 0 20567.61841337 0 -45884.82128095 0 267
0.01550000 0.01550050 104583.53335128 0 -4358.43243534 0 7028.36855281 0 -8056.87680521 0 -26063.14539061 0 238
0.01650000 0.01653350 100731.80371661 0 11363.74840787 0 20675.90575010 0 -15871.18111830 0 -24249.49858532 0 315
0.01750000 0.01747870 100311.94115949 0 14587.78794857 0 8222.45235055 0 3651.91846099 0 -19834.85195687 0 297
0.01850000 0.01844180 84441.97799692 0 7318.93957302 0 25782.24050996 0 -8406.77334181 0 -9282.89318773 0 388
0.01950000 0.01947590 81949.48695700 0 2106.18869933 0 40395.16263587 0 7147.88322690 0 -3290.50670658 0 399
0.02050000 0.02045430 81539.70021546 0 3334.26453426 0 28740.76570150 0 11365.40925660 0 -5807.65581388 0 462
0.02150000 0.02154770 78348.87764922 0 5336.72769469 0 34682.50736893 0 15730.23042335 0 1850.93839528 0 571
0.02250000 0.02255340 66356.11046840 0 5698.80378858 0 16368.10705616 0 11897.76663388 0 4562.72790057 0 510
0.02350000 0.02348930 67669.62036164 0 3332.30473277 0 24193.25117524 0 11614.75801151 0 9673.01548039 0 555
0.02450000 0.02439640 64564.38686625 0 -145.97531594 0 11528.06170818 0 12534.64675744 0 10874.71703761 0 592
0.02550000 0.02547300 64034.02250744 0 1319.73253978 0 14676.25582387 0 8116.16910462 0 7620.62720736 0 837
0.02650000 0.02652900 65369.23415732 0 522.03686332 0 17522.83981149 0 -2751.07411374 0 15509.33754322 0 723
0.02750000 0.02749970 65627.99438833 0 657.27866758 0 24809.31532815 0 -567.44889633 0 14385.60729738 0 826
0.02850000 0.02848090 66578.99636700 0 3722.58203798 0 21456.17248007 0 -2578.14654472 0 18552.67674288 0 831
0.02950000 0.02946900 62990.67733978 0 4987.91624593 0 21950.66250647 0 -4648.46091164 0 14612.25778642 0 996
0.03050000 0.03053250 58919.38350396 0 4461.95867239 0 21975.13234432 0 -1275.62039771 0 5352.07393689 0 1041
0.03150000 0.03150510 56880.63633510 0 4424.96603517 0 22107.55734915 0 1599.50804330 0 7853.55570457 0 1036
0.03250000 0.03246190 53131.43642826 0 3181.73218756 0 23305.14000153 0 8230.52407534 0 -6713.88131098 0 1059
0.03350000 0.03345080 46572.30192894 0 628.01672755 0 17816.69931218 0 5383.68542425 0 -1354.39998879 0 1302
0.03450000 0.03451200 49594.16081845 0 -1213.19463038 0 15173.29248498 0 10465.01887467 0 -9583.09713054 0 1339
0.03550000 0.03553350 48517.37722983 0 -711.47326864 0 12861.39106284 0 2438.72383061 0 -3781.71932483 0 1365
0.03650000 0.03647120 47889.57641262 0 907.31833557 0 6544.45259661 0 5020.02598790 0 -2051.46927007 0 1308
0.03750000 0.03744890 47611.10744343 0 -984.87332753 0 9158.24095492 0 289.21023150 0 1758.93844837 0 1579
0.03850000 0.03847530 48830.61329895 0 290.72824723 0 10406.44627638 0 4294.89943553 0 3311.77664256 0 1662
0.03950000 0.03950240 48959.49515984 0 -1456.13250922 0 9376.43218780 0 -1512.24705141 0 600.94046444 0 1683
0.04050000 0.04050350 50658.10051027 0 133.69500049 0 14328.03120832 0 -799.39417109 0 5072.98491751 0 1822
0.04150000 0.04152450 49208.73319151 0 2958.83521664 0 12005.61107761 0 -6778.57690490 0 983.86242427 0 1887
0.04250000 0.04250150 47281.15216383 0 3331.67361026 0 17873.27889200 0 -2151.40807389 0 3058.81830975 0 1920
0.04350000 0.04349210 44435.67540869 0 1771.33945216 0 14375.19931205 0 147.65941655 0 1742.46282904 0 2005
0.04450000 0.04448520 43683.31093726 0 1594.74694363 0 18189.72593532 0 4069.89872289 0 1015.28568211 0 2151
0.04550000 0.04548030 42431.69533976 0 1419.26166758 0 13883.36664360 0 3729.33615612 0 -695.47708097 0 2274
0.04650000 0.04648670 40398.48433331 0 1113.37762214 0 12110.35527039 0 5902.63421617 0 -1468.11276468 0 2311
0.04750000 0.04749250 38473.78211009 0 1732.48666437 0 10958.45703021 0 3090.85054545 0 -3167.43781622 0 2568
0.04850000 0.04851840 37667.49541679 0 567.56183404 0 9428.42782515 0 1885.15187897 0 360.03878613 0 2493
0.04950000 0.04949480 36646.18417552 0 140.70599656 0 6907.04908977 0 -142.82856123 0 -400.83365969 0 2644
0.05050000 0.05050630 36925.20676095 0 -505.24678996 0 8948.38718263 0 -763.66377890 0 -519.27099658 0 2829
0.05150000 0.05149060 37273.65282299 0 916.80731794 0 11225.01217790 0 -1938.01115766 0 -1032.08793502 0 2784
0.05250000 0.05249300 36768.31191827 0 1863.18438653 0 9887.68571397 0 -1267.46009432 0 1527.36077478 0 3055
0.05350000 0.05348950 36099.98639222 0 759.52605112 0 10947.99368326 0 -2069.19606211 0 5569.61190260 0 3009
0.05450000 0.05448610 35746.11489101 0 99.72134335 0 12219.97128610 0 1114.88345831 0 2751.37306651 0 3336
0.05550000 0.05550870 36034.99184553 0 -841.83882105 0 13112.17921999 0 1813.31463555 0 2755.75770714 0 3349
0.05650000 0.05647670 36099.10060623 0 60.55531950 0 13151.70741959 0 1031.74469295 0 3146.72149648 0 3324
0.05750000 0.05747970 36756.35380747 0 360.04985845 0 11888.90877402 0 2068.78638609 0 3205.63733684 0 3639
0.05850000 0.05849280 35371.09524941 0 131.29784216 0 13555.51510572 0 874.45678274 0 4268.23727737 0 3846
0.05950000 0.05951020 35951.17434666 0 1876.58189956 0 13156.02562627 0 112.02978252 0 4072.31248970 0 3787
0.06050000 0.06049470 34589.61056371 0 2232.78966130 0 13661.36653099 0 -301.34328503 0 2209.60421313 0 3930
0.06150000 0.06148310 33028.52348753 0 540.07035875 0 13055.15674717 0 -363.83105738 0 6385.44293989 0 4083
0.06250000 0.06249100 32606.88935843 0 11.32267008 0 14822.85340447 0 47.14883788 0 3362.33287768 0 4303
0.06350000 0.06350600 34624.59911013 0 90.65576669 0 14194.49897101 0 756.18995965 0 2563.13247227 0 4470
0.06450000 0.06451750 32468.37457495 0 637.31083700 0 12744.46731276 0 1514.31757615 0 709.47692847 0 4479
0.06550000 0.06550280 32557.83895948 0 482.84194069 0 13044.08442235 0 -191.45156844 0 2735.67250992 0 4636
0.06650000 0.06648880 31764.94977922 0 80.80073326 0 11483.66168566 0 -331.30942492 0 -534.60063029 0 4653
0.06750000 0.06749660 32256.67172442 0 311.04928497 0 13725.58601494 0 -378.55835662 0 -2510.76037588 0 5220
0.06850000 0.06852730 30974.71795691 0 1348.49843966 0 12371.88358261 0 -933.13788981 0 -1536.58402136 0 5029
0.06950000 0.06949320 30174.18887253 0 1416.96969634 0 13049.06696852 0 -960.96596378 0 -610.64535714 0 5040
0.07050000 0.07048030 29350.85079901 0 304.05932631 0 12750.66781466 0 1207.95742074 0 775.84997960 0 5475
0.07150000 0.07148790 29424.37103581 0 151.48269031 0 13763.45336582 0 3617.87106217 0 -199.65283943 0 5509
0.07250000 0.07249820 28677.21055705 0 314.36544625 0 12423.25916977 0 2065.71935212 0 975.55818066 0 5916
0.07350000 0.07351270 28014.86408639 0 956.71419105 0 11270.07653991 0 2388.25617408 0 1177.97356513 0 5721
0.07450000 0.07449140 26820.71385470 0 1413.36011845 0 10908.28832646 0 344.31165596 0 2710.41653701 0 6028
0.07550000 0.07549160 26510.13514354 0 937.37969745 0 11236.52739571 0 155.60602407 0 2134.21275344 0 6183
0.07650000 0.07648840 24907.74829579 0 1204.31462587 0 12192.95481354 0 -745.34461749 0 4140.11940689 0 6330
0.07750000 0.07749960 24975.17875393 0 670.97513338 0 11825.02145982 0 -1076.33515946 0 2069.67217208 0 6583
0.07850000 0.07848650 24021.18724756 0 391.46093673 0 11997.08538750 0 1314.93822314 0 3623.97191314 0 6549
0.07950000 0.07947320 24000.03910715 0 -4.76521858 0 11012.33496278 0 1638.23903552 0 1695.78190760 0 6828
0.08050000 0.08048110 24000.37127690 0 -412.54928658 0 10164.70420861 0 2496.04525619 0 2461.83177250 0 7147
0.08150000 0.08149960 23798.85496520 0 40.16795853 0 9204.22431989 0 1835.23783869 0 1085.67909437 0 7386
0.08250000 0.08250610 23552.05284499 0 437.40887026 0 7405.42550218 0 273.96585469 0 480.47024872 0 7227
0.08350000 0.08350160 22929.45602044 0 944.49920231 0 8013.41793030 0 -143.44861142 0 40.05491009 0 7798
0.08450000 0.08449610 22386.57993458 0 902.88829841 0 7856.48987064 0 -1357.57774601 0 447.89879080 0 7371
0.08550000 0.08548940 21646.94863669 0 565.49352377 0 8670.51611899 0 -56.03836459 0 1101.46158617 0 8256
0.08650000 0.08650700 21459.93707051 0 281.30902050 0 8808.74302202 0 293.68898688 0 703.21663602 0 8037
0.08750000 0.08749060 21084.80670565 0 15.39329958 0 9027.55430509 0 1146.15170360 0 1135.23439133 0 8155
0.08850000 0.08849210 21428.15949828 0 -12.19328698 0 8764.26549323 0 937.50481472 0 858.75511891 0 8718
0.08950000 0.08949900 21131.53191639 0 281.96671660 0 8230.10332700 0 1328.80077381 0 2192.85178568 0 8571
0.09050000 0.09049190 20902.00262290 0 269.69858070 0 7435.16576664 0 757.98256904 0 1111.48425459 0 8932
0.09150000 0.09150830 20717.86986116 0 -93.21646325 0 7498.97557457 0 895.00812483 0 2676.32484889 0 9285
0.09250000 0.09250820 20420.35649328 0 411.54281225 0 6220.83068681 0 662.51587722 0 1180.77486331 0 9204
0.09350000 0.09350330 20238.88108951 0 498.09960429 0 6408.22978436 0 4.17362426 0 318.86302459 0 9349
0.09450000 0.09448040 19734.97958701 0 829.64265527 0 6437.23927539 0 -947.18977724 0 966.06255489 0 9564
0.09550000 0.09549270 19080.93735997 0 592.52881927 0 6805.12833981 0 -583.85365278 0 -161.14993711 0 10155
0.09650000 0.09649430 18580.57900142 0 800.75053088 0 6802.38240326 0 -603.00766748 0 -615.75855674 0 9913
0.09750000 0.09749140 18088.41416323 0 200.86858070 0 6944.93858530 0 279.71460573 0 -650.98626539 0 10476
0.09850000 0.09850240 18041.68895250 0 146.39274259 0 6717.73448002 0 271.95069157 0 -1625.05189666 0 10575
0.09950000 0.09950330 17534.46575255 0 338.73231148 0 6378.12413318 0 1240.13359666 0 -1186.64319546 0 10882
0.10050000 0.10051200 17168.74686379 0 287.14635015 0 5810.44603973 0 852.89010846 0 -1219.67194040 0 10875
0.10150000 0.10150300 16966.23404286 0 407.05852070 0 4818.79755665 0 1345.99609425 0 -814.84006422 0 11118
0.10250000 0.10250800 16869.24047745 0 -22.43518744 0 4538.81167896 0 376.46347276 0 -692.86069062 0 11575
0.10350000 0.10349800 16449.15647383 0 -74.19354487 0 4257.74071344 0 372.34678240 0 -277.48021058 0 11364
0.10450000 0.10450100 16521.12658515 0 230.36193232 0 4480.70411831 0 363.63507723 0 -270.24112462 0 12093
0.10550000 0.10551000 16397.22727043 0 268.73639567 0 4509.91291118 0 -302.51141530 0 83.21106765 0 12067
0.10650000 0.10649700 16271.66710699 0 354.85804535 0 4959.90326414 0 -32.95921073 0 70.28213540 0 12054
0.10750000 0.10749900 15921.11730323 0 376.06376184 0 5223.28065460 0 -16.90577915 0 643.09391226 0 12807
0.10850000 0.10850100 15796.22147927 0 130.96677965 0 5044.60654900 0 -133.54220241 0 -218.55329790 0 12736
0.10950000 0.10950300 15885.79658706 0 -212.74364907 0 5100.71001886 0 -90.22029215 0 441.24875251 0 12933
0.11050000 0.11050200 15854.12973808 0 164.02209817 0 5323.73985768 0 294.19831383 0 340.02998795 0 13428
0.11150000 0.11150900 15930.52877932 0 203.65659209 0 4591.19484768 0 -183.32005309 0 -346.73317339 0 13453
0.11250000 0.11250000 15494.83279771 0 436.96929897 0 4849.33502850 0 237.30538721 0 -797.13209513 0 13668
0.11350000 0.11349100 15154.91242578 0 584.43273537 0 4537.31691511 0 -192.52226225 0 -1001.67890214 0 13791
0.11450000 0.11448600 14858.94918338 0 259.59729877 0 4355.33218439 0 -91.75845951 0 -315.84027992 0 14205
0.11550000 0.11549300 14521.35399965 0 358.91494516 0 4634.24404657 0 288.35212632 0 -1242.60272510 0 14776
0.11650000 0.11649800 14063.84553815 0 207.36803537 0 4087.78052747 0 691.22973717 0 -551.98860918 0 14553
0.11750000 0.11747300 14037.71485158 0 349.76699039 0 4065.76874573 0 768.65629017 0 -1058.17101059 0 14568
0.11850000 0.11849100 13601.02236073 0 245.19884757 0 3657.79786546 0 476.13764801 0 -219.21542292 0 16015
0.11950000 0.11950300 13530.15948189 0 -0.37437855 0 3418.50278148 0 564.63763306 0 129.33029004 0 15270
0.12050000 0.12050700 13408.14246239 0 114.03719500 0 3488.50201899 0 161.32820154 0 568.08001884 0 15999
0.12150000 0.12150000 13642.21140905 0 -48.11390171 0 3539.37935153 0 116.42660270 0 499.78038320 0 15670
0.12250000 0.12250700 13510.22929722 0 81.49585381 0 4137.05237291 0 -114.87758446 0 1077.23201777 0 16887
0.12350000 0.12352200 13424.52950312 0 303.17907649 0 3921.29705150 0 -54.92725679 0 812.06312515 0 16407
0.12450000 0.12449800 13401.27762100 0 47.41202704 0 4393.42098177 0 288.09303392 0 931.71177437 0 16306
0.12550000 0.12549900 13289.66858683 0 114.17338460 0 4029.90548564 0 118.47276833 0 1330.83808158 0 17523
0.12650000 0.12650100 13157.02213550 0 89.02868855 0 4231.46608664 0 462.64380576 0 1077.10800773 0 17154
0.12750000 0.12750600 13162.66902116 0 78.60143738 0 3875.88944742 0 375.16026013 0 1186.85356964 0 18007
0.12850000 0.12850300 12847.88282656 0 251.65844187 0 3763.36141028 0 447.51458113 0 941.31480169 0 17496
0.12950000 0.12949900 12511.83776832 0 606.73461202 0 3720.71081508 0 -85.39906975 0 875.08236909 0 18405
0.13050000 0.13049000 12166.82412697 0 380.61780904 0 3616.16592415 0 -0.04320133 0 1095.20350818 0 18100
0.13150000 0.13148800 12055.65798579 0 108.08305233 0 3614.05111011 0 227.43773133 0 938.14700956 0 19059
0.13250000 0.13249300 11910.83197716 0 -14.43343974 0 3662.64754373 0 14.08067547 0 1463.99385985 0 18957
0.13350000 0.13349100 12064.29439915 0 -41.46020956 0 3819.26557829 0 266.45106783 0 946.44239531 0 19468
0.13450000 0.13450700 12201.92339664 0 -179.41595136 0 3524.56458092 0 257.57770672 0 1435.92551643 0 19953
0.13550000 0.13551000 12162.61664354 0 122.42005212 0 3216.82038491 0 244.41935591 0 1044.76131801 0 19956
0.13650000 0.13649900 11905.96015424 0 179.55878435 0 2894.83717919 0 223.38636768 0 496.26934900 0 19723
0.13750000 0.13749600 11938.51278921 0 210.38302941 0 3384.73219079 0 -272.97709608 0 215.31796459 0 20946
0.13850000 0.13851100 11633.91313345 0 315.18147659 0 2988.35403460 0 -191.65862091 0 110.76200132 0 20955
0.13950000 0.13949800 11385.00727152 0 145.15928560 0 3068.37372607 0 -64.20497920 0 231.17796266 0 20506
0.14050000 0.14048300 11275.72342556 0 -1.72656297 0 2984.22405745 0 16.10037824 0 94.38082892 0 21447
0.14150000 0.14148400 11347.69353689 0 13.58386026 0 3097.36107244 0 396.20210622 0 -258.46017101 0 21771
0.14250000 0.14249400 11132.00464942 0 160.51438566 0 2652.39755496 0 211.22231164 0 -133.16795783 0 22470
0.14350000 0.14350900 11397.07610558 0 -7.78997842 0 2939.20398473 0 267.89711345 0 283.91101684 0 22519
0.14450000 0.14449900 11060.28920157 0 38.91800378 0 2519.47429551 0 240.92825189 0 533.17230039 0 22218
0.14550000 0.14550500 11294.10348476 0 80.89318717 0 2460.07127286 0 258.06821071 0 111.59685461 0 23559
0.14650000 0.14650700 10988.42981350 0 154.42903594 0 2560.92907963 0 11.95844297 0 252.89079163 0 23044
0.14750000 0.14750500 10918.54129924 0 170.66549306 0 2294.47358287 0 -234.24167493 0 -34.85080671 0 23649
0.14850000 0.14849900 10780.51369805 0 260.17084519 0 2729.41664639 0 -64.90264639 0 8.84335511 0 23640
0.14950000 0.14949500 10506.42936949 0 213.94499631 0 2305.01443610 0 -391.69345555 0 -292.07685639 0 24457
0.15050000 0.15050000 10330.83337019 0 409.29402308 0 2678.32893968 0 -4.31247122 0 -519.65409902 0 24591
0.15150000 0.15149900 10158.07188605 0 129.36461425 0 2501.95787765 0 -132.12826653 0 -104.13300045 0 25020
0.15250000 0.15250500 9964.06261057 0 116.86395953 0 2857.24663643 0 206.23422930 0 -394.48257417 0 25297
0.15350000 0.15350100 9982.66411627 0 180.51654045 0 2813.02377110 0 4.36871863 0 -453.51135225 0 25452
0.15450000 0.15450400 9723.20632879 0 320.28028217 0 2932.11769685 0 -101.43832876 0 -210.44503443 0 26061
0.15550000 0.15549900 9528.24483339 0 234.09884194 0 3037.10548078 0 -57.35242810 0 -88.42546830 0 26128
0.15650000 0.15649500 9421.44118819 0 110.99230568 0 3018.64791531 0 -152.43158855 0 75.54016101 0 26331
0.15750000 0.15749700 9327.19355933 0 172.36288045 0 3211.53888597 0 90.89570396 0 -46.03009018 0 27345
0.15850000 0.15849900 9147.99905446 0 139.39281884 0 2715.33264923 0 403.16992023 0 -75.46331908 0 26980
0.15950000 0.15949700 9138.49899977 0 55.59270351 0 2878.37263218 0 400.92445275 0 256.91890339 0 27777
0.16050000 0.16050000 9023.13644748 0 -31.83282313 0 2359.08059819 0 582.68220081 0 167.44566100 0 28224
0.16150000 0.16150500 9071.41178369 0 110.33261657 0 2277.93152959 0 456.56399220 0 205.75147594 0 28075
0.16250000 0.16249700 8930.48323340 0 105.45005349 0 1972.34643692 0 499.38067227 0 517.64447206 0 28590
0.16350000 0.16349900 8852.97695967 0 90.65897766 0 1812.05239052 0 182.45751899 0 434.53006581 0 29163
0.16450000 0.16449100 8859.39890807 0 29.70128988 0 1928.36716274 0 -206.67047890 0 811.86603777 0 28996
0.16550000 0.16550500 8791.89094365 0 141.73904447 0 2245.10208650 0 -251.77248682 0 725.72777961 0 30777
0.16650000 0.16650700 8657.18503990 0 159.78250499 0 2283.03587133 0 61.83871267 0 1107.30998814 0 29211
0.16750000 0.16749900 8647.07600734 0 -17.72601697 0 2174.74853460 0 110.57476831 0 974.11434950 0 30922
0.16850000 0.16850800 8642.84637926 0 -111.46509395 0 2109.76506024 0 359.92474118 0 680.23491863 0 30867
0.16950000 0.16949900 8683.38216042 0 187.91617512 0 2119.13224704 0 195.42431858 0 432.04211442 0 30852
0.17050000 0.17049200 8519.54497008 0 162.41107490 0 2017.16720779 0 -106.32033822 0 391.24613363 0 31257
0.17150000 0.17149500 8378.68285374 0 138.55907278 0 1822.38286958 0 -112.43724407 0 350.37707549 0 32608
0.17250000 0.17250900 8284.25806769 0 130.20057477 0 1968.54862951 0 -406.47168749 0 36.25533111 0 32361
0.17350000 0.17350400 8192.41313332 0 234.39558025 0 2230.75235354 0 -18.15075135 0 254.59150072 0 32508
0.17450000 0.17449800 8091.45567562 0 50.95173856 0 2110.07508534 0 -84.56554514 0 218.65073436 0 32791
0.17550000 0.17549800 8063.64199568 0 55.79632357 0 2245.71106437 0 230.71513948 0 635.51601315 0 33633
0.17650000 0.17650100 8119.62366996 0 38.19309868 0 2271.44314725 0 306.39226515 0 206.25083779 0 33984
0.17750000 0.17750300 8073.70673894 0 -41.90288111 0 2121.67888175 0 266.56400554 0 333.70658324 0 34069
0.17850000 0.17849800 8021.86611413 0 197.52141690 0 2175.99970731 0 41.91572500 0 451.46297216 0 34536
