### header ###
fiducial parameters:
Omega_m = 0.31
Omega_nu = 0
Omega_de = 0.69
Omega_k = 0
H_0 = 100
w_de = -1
zeff = 0
beta = 0
fgrowth = 0
b_1 = 2
gamma = 0.55
Lx = 3500 Ly = 3500 Lz = 3500
nx = 700 ny = 700 nz = 700
xoffset = -685.467585 yoffset = -31.7331281 zoffset = 572.489161
bins = 400 dk = 0.001
kx_ny = 0.628318531 ky_ny = 0.628318531 kz_ny = 0.628318531
############################
A(data) = 7.98373541 (not used)
A(ran) = 7.97958549 (used)
Ngal = 474609
weighted Ngal = 0
Nran = 23820508
weighted Nran = 0
SN(data) = 3488.32825
SN(ran) = 69.5050835
SN(data+ran) = 3557.83333
############################
13 columns: k_central k_mean P_0(k) sigma^{lin}_{P_0(k)} P^img_1(k) sigma^{lin}_{P_1(k)} P_2(k) sigma^{lin}_{P_2(k)} P^img_3(k) sigma^{lin}_{P_3(k)} P_4(k) sigma^{lin}_{P_4(k)} N_modes
### header ###
0.00050000 0 0 0 0 0 0 0 0 0 0 0 0
0.00150000 0.00179520 36909.04116672 0 -51479.33484207 0 -36276.03635683 0 -31184.75995872 0 -44536.21211804 0 3
0.00250000 0.00253879 58006.02742967 0 -38839.39027560 0 -21577.30371359 0 -39925.91751005 0 -13459.29660305 0 6
0.00350000 0.00331552 79137.00572981 0 -29708.26544416 0 -29701.06843303 0 -6682.90094614 0 56846.64429791 0 7
0.00450000 0.00420575 79657.07282655 0 -5020.26957905 0 -17483.31161189 0 -31724.20362389 0 24853.60462742 0 24
0.00550000 0.00557378 72002.66395617 0 10870.09987816 0 -10266.86854971 0 -16706.58802586 0 3361.01527102 0 45
0.00650000 0.00659388 46403.44897546 0 2661.46578898 0 -10113.08503031 0 18810.10829491 0 44661.99372798 0 40
0.00750000 0.00754703 59689.79586484 0 -2763.99551680 0 -8840.09984591 0 7742.92103498 0 27038.17431414 0 57
0.00850000 0.00846663 53001.33661164 0 -10160.83996725 0 -22252.93697402 0 9620.94233677 0 23373.89913866 0 75
0.00950000 0.00948925 71362.68358165 0 -18179.53939649 0 -33649.01657036 0 16037.15526733 0 30520.97408585 0 112
0.01050000 0.01054430 83255.91056235 0 -3742.21326988 0 -22676.23195184 0 -8300.63403609 0 27146.90454386 0 105
0.01150000 0.01145670 83383.24229777 0 -567.25955957 0 -34026.25067693 0 -4129.56748134 0 37036.48362538 0 144
0.01250000 0.01249090 81114.74438892 0 1488.06509400 0 -13239.40023215 0 -8379.66829065 0 26757.04798700 0 169
0.01350000 0.01339930 84167.60578792 0 4896.42562595 0 -24036.46705581 0 -8814.83280067 0 13693.58699621 0 180
0.01450000 0.01448870 82116.01472227 0 -3451.93013011 0 -781.80910482 0 -24125.48854735 0 -16030.84404218 0 267
0.01550000 0.01550050 75903.11182003 0 5072.09913152 0 2384.83482571 0 -23150.57034707 0 -7019.43318668 0 238
0.01650000 0.01653350 85144.95989966 0 -1935.64168015 0 23061.54885552 0 -34168.86222060 0 -25539.86731968 0 315
0.01750000 0.01747870 83342.27469594 0 -4309.64777219 0 27369.45827272 0 -19541.21390268 0 -6913.22744702 0 297
0.01850000 0.01844180 93128.54898690 0 2387.64719622 0 24553.87679458 0 2526.56058339 0 -19143.71744169 0 388
0.01950000 0.01947590 90038.92746950 0 -3012.04880972 0 39484.79608928 0 4380.87603775 0 -13371.82523698 0 399
0.02050000 0.02045430 93853.67553927 0 10043.97157879 0 31885.52739650 0 24078.76333661 0 -6715.16570066 0 462
0.02150000 0.02154770 80252.32100880 0 11388.77186196 0 27436.22439137 0 15109.51589402 0 4611.39076815 0 571
0.02250000 0.02255340 70841.61997568 0 4135.66833231 0 9725.74189118 0 25837.15924106 0 7010.78570100 0 510
0.02350000 0.02348930 65270.13685019 0 -308.40964273 0 -274.95129159 0 18367.43674866 0 12472.53101521 0 555
0.02450000 0.02439640 65476.08209182 0 -2676.43557214 0 -238.69496398 0 17431.60385499 0 15110.18023351 0 592
0.02550000 0.02547300 70498.59935280 0 -4344.20449795 0 -14572.95103331 0 1870.42568696 0 2883.25552743 0 837
0.02650000 0.02652900 66501.82226302 0 -88.28595700 0 -15095.34331825 0 -9550.41162767 0 9408.22083235 0 723
0.02750000 0.02749970 67972.44844543 0 9000.87000227 0 -13026.81159563 0 -13370.60728125 0 -3675.26999403 0 826
0.02850000 0.02848090 61040.84093921 0 5564.69579038 0 -6378.15735016 0 -13359.31350994 0 6348.20671152 0 831
0.02950000 0.02946900 56832.91461513 0 2818.73709071 0 2927.69983925 0 -7719.19304289 0 1104.59616133 0 996
0.03050000 0.03053250 56299.45000537 0 -211.04515444 0 5010.86917528 0 -927.91064526 0 -6940.98576534 0 1041
0.03150000 0.03150510 55744.83725520 0 -927.05475456 0 6221.31786910 0 241.04672577 0 -15626.70418630 0 1036
0.03250000 0.03246190 54418.92635817 0 2775.78754274 0 2627.72841526 0 -3930.12169438 0 -14405.53748205 0 1059
0.03350000 0.03345080 51829.66319933 0 2550.46573268 0 1126.36545915 0 -4042.06289830 0 -7906.51463417 0 1302
0.03450000 0.03451200 50727.41326364 0 -574.93821684 0 5616.96823585 0 -2355.72568377 0 -15630.57949999 0 1339
0.03550000 0.03553350 51181.48930445 0 1729.23140088 0 5527.17168157 0 -5135.95322875 0 -13130.22710944 0 1365
0.03650000 0.03647120 49040.32313102 0 5652.41074759 0 11900.09182209 0 -8191.88166173 0 -13830.33020772 0 1308
0.03750000 0.03744890 48419.05498544 0 700.51166707 0 13850.37111564 0 -3743.17656214 0 -4759.01807495 0 1579
0.03850000 0.03847530 49927.76996523 0 -2821.72661841 0 19899.40361057 0 4208.52422962 0 -1176.61166918 0 1662
0.03950000 0.03950240 51925.10663927 0 -1310.74181203 0 18989.14778723 0 3004.81858161 0 -3738.43760712 0 1683
0.04050000 0.04050350 51205.40552606 0 901.83642755 0 21099.75434416 0 4538.36878597 0 -319.17415692 0 1822
0.04150000 0.04152450 50994.80990801 0 1838.53739149 0 18436.30660903 0 966.16220582 0 -2388.07901689 0 1887
0.04250000 0.04250150 49207.07234279 0 815.14898208 0 18992.13731493 0 493.38722285 0 -27.07338431 0 1920
0.04350000 0.04349210 47557.40666806 0 2994.38845163 0 20511.26028005 0 -2655.29850406 0 -1553.80148645 0 2005
0.04450000 0.04448520 47065.13110662 0 2376.06554446 0 20463.20639033 0 2145.15221036 0 1007.36896986 0 2151
0.04550000 0.04548030 44866.27812088 0 1486.32673901 0 18438.63179724 0 1248.50427423 0 2036.61021017 0 2274
0.04650000 0.04648670 43412.03897920 0 879.93094013 0 16605.94059326 0 7219.55438545 0 6435.58949899 0 2311
0.04750000 0.04749250 41470.61754550 0 801.68171340 0 16883.30232997 0 5774.71564754 0 4676.80606317 0 2568
0.04850000 0.04851840 41650.21065406 0 692.79757837 0 13870.96563981 0 4332.62284619 0 5891.40687880 0 2493
0.04950000 0.04949480 40670.64207736 0 986.33598163 0 14414.06317216 0 -398.73545414 0 6111.94544454 0 2644
0.05050000 0.05050630 41532.06894825 0 -821.26865601 0 14486.14400673 0 -1667.33710514 0 10680.99564258 0 2829
0.05150000 0.05149060 41425.11029050 0 260.07673043 0 17307.48309377 0 -3006.47943033 0 6672.03899549 0 2784
0.05250000 0.05249300 41030.60335721 0 2126.30711352 0 18217.29602412 0 -2276.92394803 0 5507.19720760 0 3055
0.05350000 0.05348950 39083.20286811 0 3006.02546501 0 19003.20963975 0 1620.94406415 0 11025.57746326 0 3009
0.05450000 0.05448610 36148.04028193 0 2083.86689249 0 19257.20877109 0 2776.80619662 0 7090.27392087 0 3336
0.05550000 0.05550870 35875.10747515 0 1412.90615313 0 19641.75061204 0 4025.34368782 0 10458.68550487 0 3349
0.05650000 0.05647670 32957.54988544 0 1360.05794677 0 16074.24755547 0 6011.07656544 0 6069.70452536 0 3324
0.05750000 0.05747970 31840.02014149 0 1349.07420055 0 15598.24831152 0 1402.04420249 0 8098.97378417 0 3639
0.05850000 0.05849280 30795.01412511 0 112.50589248 0 12889.18259814 0 1073.99889892 0 4052.91377662 0 3846
0.05950000 0.05951020 30427.74511087 0 -54.49598974 0 12808.46535021 0 -797.89608555 0 2088.53941357 0 3787
0.06050000 0.06049470 31027.75439280 0 266.99914791 0 10502.75335765 0 -768.28647452 0 842.64599353 0 3930
0.06150000 0.06148310 31258.94453501 0 -691.68480972 0 10080.57668464 0 508.25846231 0 196.25142125 0 4083
0.06250000 0.06249100 31471.75461802 0 -577.14271671 0 9812.64856868 0 1274.96713054 0 -314.50606478 0 4303
0.06350000 0.06350600 31933.35983971 0 -4.76260551 0 9227.81944408 0 1034.14295850 0 -885.98971627 0 4470
0.06450000 0.06451750 32727.35625246 0 -405.97564734 0 12181.88248872 0 1249.85509785 0 1926.89454354 0 4479
0.06550000 0.06550280 32701.55773563 0 260.34800239 0 11485.54398088 0 -804.00136545 0 1778.06035333 0 4636
0.06650000 0.06648880 33051.33247665 0 384.64924250 0 15610.53859206 0 -1630.90915649 0 3918.59540424 0 4653
0.06750000 0.06749660 32642.21007460 0 788.90314333 0 15413.67265679 0 -680.43643494 0 5923.53876543 0 5220
0.06850000 0.06852730 32312.47624150 0 433.59556160 0 16486.13803872 0 1457.20652473 0 5156.10485992 0 5029
0.06950000 0.06949320 32219.69015952 0 413.94550674 0 15436.03875292 0 2166.04568730 0 3866.95408129 0 5040
0.07050000 0.07048030 31441.19500152 0 793.92776433 0 14305.55438894 0 2543.00298575 0 3614.33899055 0 5475
0.07150000 0.07148790 30752.71784430 0 1038.43348437 0 12487.92154671 0 792.52490078 0 3236.17480869 0 5509
0.07250000 0.07249820 29282.20238514 0 1441.98207811 0 11444.24420930 0 1463.65061778 0 1825.97030282 0 5916
0.07350000 0.07351270 27817.99815112 0 759.78846522 0 9608.50811600 0 692.90276545 0 1230.60032499 0 5721
0.07450000 0.07449140 27549.82644401 0 516.16520947 0 9034.97276272 0 465.38088445 0 609.57244887 0 6028
0.07550000 0.07549160 26625.39804490 0 1069.64526080 0 9372.99976710 0 -57.74892805 0 69.35305663 0 6183
0.07650000 0.07648840 26039.11844576 0 608.11865262 0 9659.18614669 0 -397.21300947 0 1483.24863271 0 6330
0.07750000 0.07749960 25610.28730553 0 669.83136223 0 9144.36733192 0 1014.66009575 0 772.33340924 0 6583
0.07850000 0.07848650 25092.54539701 0 -159.07609067 0 8920.15275435 0 1487.86579216 0 617.34854259 0 6549
0.07950000 0.07947320 25481.29472139 0 175.67461281 0 8336.86268290 0 1508.36066539 0 -200.96380269 0 6828
0.08050000 0.08048110 24797.46794059 0 474.06712327 0 6890.51810882 0 1727.34910566 0 1299.58090861 0 7147
0.08150000 0.08149960 24706.56415383 0 -2.51596437 0 6297.66154873 0 672.82642609 0 692.62152840 0 7386
0.08250000 0.08250610 24030.59872365 0 381.00091147 0 6326.67103975 0 1550.64587388 0 1404.79013904 0 7227
0.08350000 0.08350160 23717.47337778 0 933.13456811 0 5872.61714359 0 -123.80187826 0 60.92912118 0 7798
0.08450000 0.08449610 22657.18755315 0 743.74023763 0 5646.07737780 0 -553.14566713 0 204.58002398 0 7371
0.08550000 0.08548940 22440.50215645 0 442.77341164 0 7271.26214235 0 -699.79196596 0 715.72504137 0 8256
0.08650000 0.08650700 21965.27797523 0 539.82012421 0 7024.16106938 0 -82.83793030 0 63.74226675 0 8037
0.08750000 0.08749060 21876.14576044 0 404.01252415 0 7731.94836108 0 605.33174846 0 818.83606624 0 8155
0.08850000 0.08849210 20585.00196334 0 907.85645055 0 6338.61807823 0 861.69149945 0 743.78563416 0 8718
0.08950000 0.08949900 20799.36217183 0 134.35269658 0 6258.85305024 0 800.43607686 0 1083.50338255 0 8571
0.09050000 0.09049190 20478.81836833 0 -129.59491861 0 6025.16056261 0 1259.57659904 0 1132.52167175 0 8932
0.09150000 0.09150830 20598.28875312 0 224.93538592 0 5547.93229061 0 80.43224629 0 660.51400089 0 9285
0.09250000 0.09250820 20132.58677125 0 478.75403837 0 5482.76058672 0 65.13627244 0 247.17747202 0 9204
0.09350000 0.09350330 19927.52731561 0 192.75478107 0 4756.99183951 0 -360.01221255 0 307.51832058 0 9349
0.09450000 0.09448040 19251.00826919 0 428.24098531 0 4837.87517231 0 463.17638458 0 -32.17750460 0 9564
0.09550000 0.09549270 19224.43468962 0 383.46007482 0 4518.68219244 0 479.22350494 0 -630.85899333 0 10155
0.09650000 0.09649430 18740.79554154 0 652.88184740 0 4037.57860674 0 1177.71890166 0 -502.32923237 0 9913
0.09750000 0.09749140 17843.27289174 0 1001.17068243 0 4369.53797713 0 -224.57553537 0 -390.20644233 0 10476
0.09850000 0.09850240 17033.00016152 0 896.82730780 0 4301.74213227 0 -155.92601426 0 -304.67051864 0 10575
0.09950000 0.09950330 16946.63602793 0 163.98002333 0 5606.80384167 0 -539.44920133 0 619.38474312 0 10882
0.10050000 0.10051200 16423.57940350 0 5.27467839 0 5452.02381303 0 493.21560181 0 722.79361353 0 10875
0.10150000 0.10150300 16960.58715720 0 -294.25035375 0 5922.36509900 0 64.49142025 0 478.10962906 0 11118
0.10250000 0.10250800 17134.53338010 0 -598.12255777 0 5165.72671019 0 30.38257003 0 -199.25091404 0 11575
0.10350000 0.10349800 17827.10729751 0 16.26768107 0 5874.49943881 0 -716.87102699 0 -138.64322245 0 11364
0.10450000 0.10450100 17423.29961137 0 695.91443780 0 5706.72050083 0 -773.90125043 0 -1163.84527866 0 12093
0.10550000 0.10551000 16778.44741394 0 944.95870379 0 5711.84698722 0 -639.25403001 0 -1772.78992671 0 12067
0.10650000 0.10649700 16086.31638952 0 619.17769065 0 5721.86744118 0 -394.71177130 0 -1255.67914071 0 12054
0.10750000 0.10749900 15775.73767836 0 100.32777458 0 6159.15783757 0 668.89907248 0 -1570.53176925 0 12807
0.10850000 0.10850100 15709.41445270 0 -125.23020816 0 5881.09854440 0 1068.92445246 0 -1534.90102798 0 12736
0.10950000 0.10950300 15853.68684508 0 -136.94583505 0 5407.87845397 0 925.62531742 0 -1176.87740497 0 12933
0.11050000 0.11050200 15788.24940540 0 -22.95868696 0 5583.06477725 0 463.57388104 0 -61.42516133 0 13428
0.11150000 0.11150900 15981.01858050 0 155.24728075 0 5577.25180673 0 -207.13773101 0 -69.12839916 0 13453
0.11250000 0.11250000 15631.68673247 0 583.30778717 0 5833.12216096 0 -375.53229025 0 1042.97756648 0 13668
0.11350000 0.11349100 15559.38445140 0 455.28513868 0 6455.39788809 0 142.34470064 0 1093.07319289 0 13791
0.11450000 0.11448600 15054.04354668 0 144.27792855 0 6428.31498159 0 321.61781901 0 2072.90529092 0 14205
0.11550000 0.11549300 15199.75534129 0 -53.08703641 0 6493.67491499 0 864.51162059 0 1900.26560235 0 14776
0.11650000 0.11649800 15009.64352416 0 201.16642624 0 5946.05987411 0 1005.17443508 0 1670.23805424 0 14553
0.11750000 0.11747300 15054.59716292 0 178.20574626 0 6088.48318825 0 411.48745063 0 2372.76599166 0 14568
0.11850000 0.11849100 14457.46668545 0 519.35846794 0 5688.45116488 0 256.05969099 0 1924.19289628 0 16015
0.11950000 0.11950300 14268.24065430 0 367.30333844 0 5366.03613848 0 155.34028828 0 1960.48797704 0 15270
0.12050000 0.12050700 13700.78400734 0 43.16424035 0 4921.18334425 0 248.25702369 0 1584.97008081 0 15999
0.12150000 0.12150000 14062.95975216 0 -25.49214560 0 5001.66807335 0 489.35689661 0 1125.90042151 0 15670
0.12250000 0.12250700 13843.61699751 0 -77.42677444 0 4427.55695918 0 283.60099174 0 766.52265317 0 16887
0.12350000 0.12352200 14032.17868917 0 48.09751467 0 4206.52013883 0 327.04879433 0 982.80058832 0 16407
0.12450000 0.12449800 13858.23246627 0 136.40993453 0 4087.73623817 0 161.08350316 0 786.80161608 0 16306
0.12550000 0.12549900 13848.37809718 0 88.72951434 0 4006.94148397 0 330.01285568 0 796.23855852 0 17523
0.12650000 0.12650100 13584.63532000 0 169.78967216 0 4201.83654543 0 410.70685173 0 1217.31353521 0 17154
0.12750000 0.12750600 13612.31613204 0 188.98354724 0 4032.14209526 0 55.13984543 0 1086.94687556 0 18007
0.12850000 0.12850300 13314.35987117 0 153.96953446 0 3875.56835000 0 504.82604162 0 1388.55811086 0 17496
0.12950000 0.12949900 13307.05213679 0 352.16525595 0 4114.81914468 0 86.25994301 0 1081.85249892 0 18405
0.13050000 0.13049000 12844.22895937 0 491.39309715 0 3656.77921158 0 205.15910656 0 1537.28157782 0 18100
0.13150000 0.13148800 12553.13753989 0 322.82580964 0 3505.09943389 0 91.83640868 0 1344.12487136 0 19059
0.13250000 0.13249300 12199.70893168 0 13.55075401 0 3421.35944129 0 102.05937546 0 1405.13338111 0 18957
0.13350000 0.13349100 12344.20277056 0 36.10065073 0 3652.19526911 0 180.97493470 0 1041.40861805 0 19468
0.13450000 0.13450700 12181.32887248 0 33.81941965 0 3216.58786609 0 357.02379208 0 1323.57463650 0 19953
0.13550000 0.13551000 12335.12346421 0 197.67200052 0 3602.65768787 0 180.26187698 0 1503.85422919 0 19956
0.13650000 0.13649900 12034.17767564 0 140.53216106 0 3147.43012527 0 219.34164742 0 1572.05975008 0 19723
0.13750000 0.13749600 12211.00270300 0 44.08036451 0 3723.34602839 0 346.09319302 0 1959.74613128 0 20946
0.13850000 0.13851100 11857.90626453 0 166.54990992 0 3206.79993095 0 10.58956038 0 1845.95584912 0 20955
0.13950000 0.13949800 11844.95164449 0 377.40129868 0 3590.09059920 0 -153.37605785 0 1974.47232329 0 20506
0.14050000 0.14048300 11444.68710230 0 402.48454332 0 3642.40733397 0 94.29191816 0 1614.21209066 0 21447
0.14150000 0.14148400 11128.79367522 0 230.27667542 0 3577.00311126 0 -60.69925972 0 1780.67342198 0 21771
0.14250000 0.14249400 11071.72691311 0 46.79430204 0 3434.52443550 0 50.34276070 0 1333.18541444 0 22470
0.14350000 0.14350900 11247.37827403 0 -181.92604740 0 3683.50780369 0 372.90704203 0 1098.18749972 0 22519
0.14450000 0.14449900 11125.58270102 0 -28.38722637 0 3584.62087074 0 -28.53548480 0 794.07391902 0 22218
0.14550000 0.14550500 11283.25260644 0 213.64936524 0 3333.43410990 0 -14.42137091 0 1142.18781132 0 23559
0.14650000 0.14650700 10938.42719461 0 361.70406378 0 3198.15244527 0 34.28346078 0 1355.57365522 0 23044
0.14750000 0.14750500 10764.92386471 0 215.40211425 0 3310.89085657 0 438.29687071 0 1592.83143144 0 23649
0.14850000 0.14849900 10540.21103251 0 101.43888238 0 2881.52824475 0 330.21105030 0 1425.81648387 0 23640
0.14950000 0.14949500 10514.02498432 0 169.04561194 0 3065.71636811 0 627.54726098 0 1446.26706781 0 24457
0.15050000 0.15050000 10348.72624710 0 54.88894655 0 2696.77543283 0 89.57023596 0 1321.81413685 0 24591
0.15150000 0.15149900 10123.72553446 0 236.71191060 0 2660.01531443 0 213.69808346 0 1528.57873051 0 25020
0.15250000 0.15250500 10141.95058111 0 176.40095731 0 2522.87349923 0 -80.77637414 0 1471.43446212 0 25297
0.15350000 0.15350100 9879.30396409 0 11.18681266 0 2649.82877560 0 144.61120553 0 1518.65792748 0 25452
0.15450000 0.15450400 10074.25438717 0 -52.96856253 0 2495.54700158 0 23.26904422 0 1099.74316136 0 26061
0.15550000 0.15549900 10014.93994312 0 97.62679167 0 2700.73932511 0 -112.27558813 0 1121.48256391 0 26128
0.15650000 0.15649500 9956.17911530 0 217.15154158 0 2699.83139448 0 -472.18261359 0 963.10292247 0 26331
0.15750000 0.15749700 9842.45526709 0 296.82466927 0 2813.18985597 0 -367.91231631 0 1110.43238374 0 27345
0.15850000 0.15849900 9536.43835375 0 277.06499840 0 2993.76840144 0 -75.92359562 0 775.70603938 0 26980
0.15950000 0.15949700 9430.13296317 0 138.97207050 0 2874.72983731 0 435.07371696 0 845.25684773 0 27777
0.16050000 0.16050000 9233.08987070 0 201.33361834 0 2868.89472214 0 214.52518613 0 328.40847582 0 28224
0.16150000 0.16150500 9117.26228077 0 36.34988876 0 2613.46726089 0 70.16344008 0 384.10891305 0 28075
0.16250000 0.16249700 8883.28191270 0 126.05731083 0 2699.13383802 0 177.05533171 0 627.68234334 0 28590
0.16350000 0.16349900 8906.99883246 0 147.29513706 0 2356.67790370 0 205.17460782 0 301.97108585 0 29163
0.16450000 0.16449100 8819.71569592 0 9.07698116 0 2455.18837761 0 166.28528136 0 327.41639551 0 28996
0.16550000 0.16550500 8804.86770834 0 123.39663117 0 2361.37256942 0 -7.85736458 0 -98.08618242 0 30777
0.16650000 0.16650700 8589.56635224 0 156.35672769 0 2323.73773736 0 -82.89295975 0 75.71432868 0 29211
0.16750000 0.16749900 8607.71389261 0 -2.08210639 0 2134.58921249 0 89.51786386 0 241.16962857 0 30922
0.16850000 0.16850800 8640.34403385 0 18.90333727 0 2223.21210034 0 121.86754312 0 20.43729715 0 30867
0.16950000 0.16949900 8615.34272441 0 20.08552939 0 2162.29216918 0 241.10651632 0 49.24693271 0 30852
0.17050000 0.17049200 8571.24165466 0 106.54566003 0 2052.49899628 0 59.33337773 0 22.63006036 0 31257
0.17150000 0.17149500 8461.60349431 0 172.47913986 0 1874.63317040 0 77.11331692 0 186.90305740 0 32608
0.17250000 0.17250900 8378.26210540 0 145.19360981 0 2133.18302724 0 28.26520935 0 127.25312191 0 32361
0.17350000 0.17350400 8157.28064667 0 108.38477318 0 1995.60939136 0 -48.12652416 0 109.87134351 0 32508
0.17450000 0.17449800 8161.46598545 0 97.22021590 0 1930.88058047 0 47.77962823 0 -10.93152914 0 32791
0.17550000 0.17549800 8014.81304323 0 175.64914646 0 2067.16982667 0 15.90251580 0 38.78845758 0 33633
0.17650000 0.17650100 7833.65873687 0 179.33180169 0 1882.71596751 0 -21.13983616 0 47.69614290 0 33984
0.17750000 0.17750300 7779.80294895 0 116.16972476 0 1842.97739374 0 43.20288276 0 -97.65657622 0 34069
0.17850000 0.17849800 7694.61248179 0 75.43419886 0 1677.63436722 0 -82.50088873 0 -93.86496931 0 34536
