### header ###
fiducial parameters:
Omega_m = 0.31
Omega_nu = 0
Omega_de = 0.69
Omega_k = 0
H_0 = 100
w_de = -1
zeff = 0
beta = 0
fgrowth = 0
b_1 = 2
gamma = 0.55
Lx = 3500 Ly = 3500 Lz = 3500
nx = 700 ny = 700 nz = 700
xoffset = -685.467585 yoffset = -31.7331281 zoffset = 572.489161
bins = 400 dk = 0.001
kx_ny = 0.628318531 ky_ny = 0.628318531 kz_ny = 0.628318531
############################
A(data) = 8.0699345 (not used)
A(ran) = 8.06447757 (used)
Ngal = 478738
weighted Ngal = 0
Nran = 23820508
weighted Nran = 0
SN(data) = 3492.43732
SN(ran) = 70.2445243
SN(data+ran) = 3562.68185
############################
13 columns: k_central k_mean P_0(k) sigma^{lin}_{P_0(k)} P^img_1(k) sigma^{lin}_{P_1(k)} P_2(k) sigma^{lin}_{P_2(k)} P^img_3(k) sigma^{lin}_{P_3(k)} P_4(k) sigma^{lin}_{P_4(k)} N_modes
### header ###
0.00050000 0 0 0 0 0 0 0 0 0 0 0 0
0.00150000 0.00179520 37111.11109466 0 -19159.66158943 0 18298.45616504 0 20210.20376823 0 5398.83236460 0 3
0.00250000 0.00253879 66749.84233895 0 -11239.62764666 0 15234.41171798 0 -9865.33069017 0 4382.72511599 0 6
0.00350000 0.00331552 69602.62682848 0 -8216.87189884 0 6192.04264228 0 -25101.62470336 0 94187.50613255 0 7
0.00450000 0.00420575 63421.61222172 0 3140.21096949 0 7811.43658096 0 4739.56400025 0 31200.26121347 0 24
0.00550000 0.00557378 68116.49939132 0 162.36900007 0 4888.46462441 0 22804.00658024 0 -15291.54491404 0 45
0.00650000 0.00659388 66132.56023031 0 -3190.97757878 0 19728.55763862 0 16876.99110482 0 -31953.51147088 0 40
0.00750000 0.00754703 84121.10202368 0 -3502.30920804 0 5282.65046028 0 -788.47907329 0 -10345.71457475 0 57
0.00850000 0.00846663 69092.19265434 0 143.42093061 0 1269.84064415 0 -25175.69855640 0 -14400.77638238 0 75
0.00950000 0.00948925 76942.80312050 0 3707.23579578 0 3538.55999949 0 -21424.50563109 0 -29161.95693761 0 112
0.01050000 0.01054430 73975.19862261 0 -4902.41575368 0 14585.24131386 0 3200.56621208 0 -25178.57736085 0 105
0.01150000 0.01145670 74420.08463382 0 -2756.93137357 0 42.62856128 0 -6897.02863581 0 -49341.37964284 0 144
0.01250000 0.01249090 74229.75137019 0 -766.16169538 0 -97.40014118 0 2281.40823958 0 -38957.42125817 0 169
0.01350000 0.01339930 79171.99427624 0 -6029.79986671 0 -6136.88032003 0 -8941.35625637 0 -39982.82925962 0 180
0.01450000 0.01448870 77979.61561652 0 5607.41281953 0 4359.39572760 0 -5364.05419234 0 -23751.24396848 0 267
0.01550000 0.01550050 69965.57763603 0 6582.23136889 0 464.42091389 0 -6890.89456786 0 -9328.93191433 0 238
0.01650000 0.01653350 65205.14230350 0 6358.68113080 0 15324.20827225 0 2573.16399855 0 -15442.57142457 0 315
0.01750000 0.01747870 67081.67991377 0 -556.17284073 0 24006.90394854 0 -14027.86048249 0 -24757.82901774 0 297
0.01850000 0.01844180 61802.94905648 0 9689.91184806 0 19979.45651901 0 -7639.06262818 0 -22362.22081998 0 388
0.01950000 0.01947590 55363.61711170 0 6925.97169288 0 15156.46255125 0 -10716.84783034 0 -16023.97920079 0 399
0.02050000 0.02045430 52489.68448177 0 -1931.30132882 0 17447.10510973 0 3717.57734716 0 -24303.19936069 0 462
0.02150000 0.02154770 55598.57184435 0 -8725.46806706 0 8039.05036225 0 7304.80021423 0 -32975.48705164 0 571
0.02250000 0.02255340 65458.25564886 0 -4060.64225934 0 7735.23684155 0 1108.78260734 0 -44921.63974498 0 510
0.02350000 0.02348930 64067.01803540 0 -1653.43026517 0 4496.49325350 0 -5671.52158023 0 -23024.45656738 0 555
0.02450000 0.02439640 68692.03883539 0 3275.35976623 0 11462.51354526 0 -7911.85149474 0 -12126.18869489 0 592
0.02550000 0.02547300 66308.72091818 0 2675.04045921 0 18419.14450556 0 -9676.22645459 0 -1363.50143979 0 837
0.02650000 0.02652900 70261.65160168 0 -563.60679962 0 32891.22665977 0 342.68956037 0 3083.04455645 0 723
0.02750000 0.02749970 68984.01604086 0 -1659.06607850 0 33111.45520042 0 5368.46097762 0 -1659.84114124 0 826
0.02850000 0.02848090 73118.20068165 0 -4882.23090553 0 37547.02852277 0 13407.92101589 0 6577.49241387 0 831
0.02950000 0.02946900 75644.01941928 0 -316.01965158 0 31761.29591203 0 6576.18587954 0 324.35046877 0 996
0.03050000 0.03053250 72561.70563626 0 1521.45922566 0 26391.88271448 0 4805.69899639 0 3152.83341978 0 1041
0.03150000 0.03150510 72671.54309846 0 4723.88558830 0 25816.23254716 0 5170.12242314 0 5211.78758144 0 1036
0.03250000 0.03246190 67440.97685413 0 7207.98380602 0 25584.48878870 0 929.69218233 0 3439.73950049 0 1059
0.03350000 0.03345080 63275.90042710 0 4182.51533862 0 21773.50530937 0 4752.80650073 0 443.43664389 0 1302
0.03450000 0.03451200 60834.89569758 0 660.91924798 0 23387.18592844 0 3539.88867847 0 -1192.74404644 0 1339
0.03550000 0.03553350 58510.26110191 0 2786.83772290 0 26116.73544273 0 -385.47080900 0 3331.95041838 0 1365
0.03650000 0.03647120 58541.15288815 0 3131.75171333 0 20956.81063075 0 3446.82578837 0 3330.52208847 0 1308
0.03750000 0.03744890 51687.71599516 0 3965.50884450 0 18751.53569662 0 3884.73623495 0 8160.73521201 0 1579
0.03850000 0.03847530 51151.04041120 0 1699.79008918 0 15271.83617586 0 6127.38026534 0 6489.30134669 0 1662
0.03950000 0.03950240 50194.39154687 0 -1560.31201344 0 15148.04758439 0 10740.28794198 0 3736.18992518 0 1683
0.04050000 0.04050350 49601.13638308 0 941.41334538 0 13484.54150364 0 3120.08148297 0 4000.89599462 0 1822
0.04150000 0.04152450 48063.30118902 0 2313.67299410 0 10636.48489681 0 -1513.95218943 0 1152.40756712 0 1887
0.04250000 0.04250150 45313.71076681 0 3287.08535821 0 16267.34890031 0 -4641.06459866 0 5547.24580647 0 1920
0.04350000 0.04349210 44509.85998497 0 3464.14290439 0 18835.68536524 0 -4335.24698717 0 6649.38501891 0 2005
0.04450000 0.04448520 41452.90182579 0 770.73899446 0 18706.69278110 0 1338.62192592 0 6100.89526437 0 2151
0.04550000 0.04548030 41191.92712982 0 644.34840666 0 17732.54964356 0 4531.75860805 0 6860.24637276 0 2274
0.04650000 0.04648670 41934.76940190 0 -761.90327926 0 15310.92148247 0 2668.51885989 0 8338.66747185 0 2311
0.04750000 0.04749250 41676.78423363 0 -361.09287145 0 12479.94947284 0 6054.29184921 0 5195.34517908 0 2568
0.04850000 0.04851840 41353.14017918 0 75.34971703 0 11172.08646526 0 -1560.32308577 0 2115.92127284 0 2493
0.04950000 0.04949480 42028.21982337 0 338.64262565 0 12399.78584115 0 -311.13897080 0 -989.83926521 0 2644
0.05050000 0.05050630 40741.61567944 0 410.20527542 0 11488.09061559 0 -4138.92359581 0 -1003.12273329 0 2829
0.05150000 0.05149060 42049.58941027 0 -739.01124770 0 12317.51846775 0 -1357.71061391 0 341.78938036 0 2784
0.05250000 0.05249300 42960.95246609 0 -1531.77863239 0 13020.61109374 0 -54.37341910 0 -3068.56195559 0 3055
0.05350000 0.05348950 42065.97645100 0 1599.17587356 0 12489.02877919 0 3581.28810097 0 -2508.72306811 0 3009
0.05450000 0.05448610 42326.72970048 0 2389.96131210 0 10777.50202570 0 1330.77164763 0 -5628.78240643 0 3336
0.05550000 0.05550870 38614.73280503 0 2861.17731174 0 13408.25318564 0 -887.90965739 0 -188.43214546 0 3349
0.05650000 0.05647670 36605.88091318 0 2992.24042062 0 13506.35398353 0 -321.42073163 0 -1089.58541057 0 3324
0.05750000 0.05747970 34209.71909918 0 1609.12989357 0 15232.41869951 0 -591.69950215 0 -1138.22391903 0 3639
0.05850000 0.05849280 32719.71634833 0 1631.58456830 0 13625.49219858 0 2111.95738056 0 3816.12103805 0 3846
0.05950000 0.05951020 32468.37457495 0 188.45982627 0 14007.48740482 0 1737.81245261 0 1691.96195554 0 3787
0.06050000 0.06049470 31991.15737527 0 94.32004186 0 13801.54216319 0 3077.85163611 0 4434.42180057 0 3930
0.06150000 0.06148310 32543.11276748 0 -534.52312402 0 13092.69192830 0 1222.46216625 0 -665.56851717 0 4083
0.06250000 0.06249100 31679.80360137 0 1044.21655962 0 13072.09740414 0 161.71019674 0 1962.02703019 0 4303
0.06350000 0.06350600 31445.95610120 0 754.17036760 0 12986.39761005 0 -611.88767199 0 2334.36716919 0 4470
0.06450000 0.06451750 31215.76246822 0 -415.57203126 0 13383.22973155 0 543.32119332 0 1072.24061374 0 4479
0.06550000 0.06550280 32182.37642488 0 -748.86450955 0 12175.23909383 0 1913.89563420 0 1365.68268778 0 4636
0.06650000 0.06648880 32854.57726462 0 -1369.81266494 0 11049.21687675 0 2001.61059142 0 -1392.41127989 0 4653
0.06750000 0.06749660 33341.98100314 0 -1479.03007695 0 10868.04042574 0 2131.19000877 0 94.43729778 0 5220
0.06850000 0.06852730 34228.98494436 0 858.26461492 0 11014.37227055 0 78.54197899 0 -1928.54431994 0 5029
0.06950000 0.06949320 32920.01470430 0 2314.58092474 0 10580.20426976 0 -1361.33126413 0 372.06886704 0 5040
0.07050000 0.07048030 30855.57974187 0 3002.90306942 0 11753.05134850 0 -837.15301319 0 78.61018451 0 5475
0.07150000 0.07148790 28672.44945737 0 1847.37310669 0 10403.98822027 0 1139.19828362 0 3978.55204314 0 5509
0.07250000 0.07249820 27699.63499881 0 481.52876297 0 10949.04555412 0 2296.43338436 0 1739.90512200 0 5916
0.07350000 0.07351270 27869.04156853 0 -966.28067969 0 9416.02682135 0 3208.27255015 0 2186.00908895 0 5721
0.07450000 0.07449140 28053.06360702 0 -420.30323565 0 9472.50675025 0 962.96230394 0 1786.66354971 0 6028
0.07550000 0.07549160 27440.21042831 0 947.84636610 0 8457.46244483 0 93.05358935 0 1494.64205494 0 6183
0.07650000 0.07648840 27414.30118823 0 556.61794819 0 8119.02576442 0 100.81207807 0 3459.06070729 0 6330
0.07750000 0.07749960 26629.16263534 0 433.80150684 0 8804.14800722 0 -207.01814990 0 1756.01535461 0 6583
0.07850000 0.07848650 26951.14584107 0 839.04084457 0 8566.84594171 0 102.27240699 0 588.55274743 0 6549
0.07950000 0.07947320 25220.98436491 0 943.85700747 0 8757.23456697 0 -825.13954076 0 225.08375508 0 6828
0.08050000 0.08048110 25078.92643748 0 1187.59541540 0 8492.82745030 0 109.91662932 0 2771.95651835 0 7147
0.08150000 0.08149960 24355.46073383 0 -202.37552411 0 8930.78218617 0 782.06266106 0 1231.86257002 0 7386
0.08250000 0.08250610 24824.70585965 0 26.48621892 0 9114.54956119 0 1326.23199445 0 1100.65662815 0 7227
0.08350000 0.08350160 23635.98106712 0 1055.95100947 0 9110.88462167 0 597.96422353 0 2135.58572172 0 7798
0.08450000 0.08449610 23347.43628234 0 891.16492089 0 8950.10339298 0 617.17027816 0 3584.37727959 0 7371
0.08550000 0.08548940 22692.95116231 0 156.19507175 0 9291.17528669 0 1389.38853522 0 4130.02144665 0 8256
0.08650000 0.08650700 22874.20511959 0 -372.64130624 0 8177.47656714 0 1114.41842067 0 2842.94119276 0 8037
0.08750000 0.08749060 22607.80498446 0 358.37683017 0 7890.03901484 0 265.30729668 0 1728.97673741 0 8155
0.08850000 0.08849210 22468.62586149 0 576.63006807 0 7735.59115595 0 90.13215644 0 804.26267232 0 8718
0.08950000 0.08949900 21634.32618640 0 617.01194391 0 6676.43470845 0 -649.11504249 0 1090.71368047 0 8571
0.09050000 0.09049190 21335.70558604 0 348.02863540 0 6541.98346817 0 98.27430122 0 -532.55225020 0 8932
0.09150000 0.09150830 21087.13189386 0 -93.81879772 0 6025.35986446 0 11.72968874 0 -1605.66425590 0 9285
0.09250000 0.09250820 21247.45915724 0 280.03902485 0 6946.44442147 0 235.20053826 0 -1198.06983468 0 9204
0.09350000 0.09350330 20918.94327987 0 439.30002334 0 6600.74429599 0 -922.77197932 0 -1552.94891744 0 9349
0.09450000 0.09448040 20474.16799190 0 827.94526787 0 7385.76105330 0 15.66390720 0 -1151.59928741 0 9564
0.09550000 0.09549270 20055.63411376 0 803.78213342 0 7747.72642395 0 -606.19981873 0 -1217.01458244 0 10155
0.09650000 0.09649430 19423.07219687 0 351.22853727 0 7820.53803196 0 364.19976579 0 -54.29834874 0 9913
0.09750000 0.09749140 19193.76434988 0 307.56482435 0 7886.20799046 0 305.88625990 0 -737.77557625 0 10476
0.09850000 0.09850240 18424.23777498 0 608.27920133 0 7298.57756768 0 1153.08297894 0 293.58933596 0 10575
0.09950000 0.09950330 18570.61390908 0 142.84295525 0 6928.09757925 0 1326.97384022 0 133.96627245 0 10882
0.10050000 0.10051200 17607.65381960 0 391.05679687 0 6221.24036283 0 1303.17941418 0 859.41724394 0 10875
0.10150000 0.10150300 17689.25685352 0 660.06335727 0 6854.96487382 0 176.94682293 0 274.86824916 0 11118
0.10250000 0.10250800 16654.43737597 0 407.46044609 0 5998.95236977 0 466.85461089 0 740.56580210 0 11575
0.10350000 0.10349800 16557.11164081 0 357.46004168 0 6699.70873522 0 45.82503073 0 1841.11724317 0 11364
0.10450000 0.10450100 16604.27974454 0 -94.57426244 0 6486.67720570 0 168.19968632 0 1244.42965869 0 12093
0.10550000 0.10551000 16318.94593396 0 64.71419542 0 6131.26665135 0 753.03434708 0 1098.98581434 0 12067
0.10650000 0.10649700 16581.13858567 0 13.30184814 0 5815.28464568 0 -16.54404630 0 448.80229250 0 12054
0.10750000 0.10749900 16451.03876905 0 141.91177274 0 5946.71314127 0 -48.74015241 0 969.85593337 0 12807
0.10850000 0.10850100 16120.19770347 0 465.59015139 0 5569.51225168 0 -44.76839877 0 -150.91689451 0 12736
0.10950000 0.10950300 15777.73069683 0 479.75054760 0 5897.66274233 0 -393.70086804 0 46.55203957 0 12933
0.11050000 0.11050200 15708.63938996 0 70.69867626 0 5803.30439022 0 -115.37030291 0 -315.32984574 0 13428
0.11150000 0.11150900 15201.08402027 0 145.27222332 0 5996.39466274 0 178.56781128 0 160.67161268 0 13453
0.11250000 0.11250000 15583.30067301 0 226.58959125 0 5761.99354632 0 850.00908954 0 554.20861031 0 13668
0.11350000 0.11349100 15242.93740809 0 100.21118300 0 5834.16295949 0 868.00715353 0 593.24409146 0 13791
0.11450000 0.11448600 15357.42524671 0 358.80754361 0 5351.86356272 0 882.45653742 0 1783.28649064 0 14205
0.11550000 0.11549300 15197.54087633 0 -24.27717940 0 4990.61789318 0 656.11607348 0 1932.76287569 0 14776
0.11650000 0.11649800 15130.33186468 0 -200.81543354 0 5256.71907555 0 853.79582463 0 2819.50108112 0 14553
0.11750000 0.11747300 15204.51644097 0 65.51649608 0 4910.87500984 0 201.48752365 0 2019.01628603 0 14568
0.11850000 0.11849100 15100.76875741 0 402.52329646 0 5020.49102554 0 -369.08598274 0 1693.44564706 0 16015
0.11950000 0.11950300 14392.91503176 0 672.64151827 0 4612.35406040 0 -553.35271960 0 2042.57819324 0 15270
0.12050000 0.12050700 14282.08106032 0 174.12448733 0 4774.87364409 0 85.37061388 0 1228.54087258 0 15999
0.12150000 0.12150000 13984.56769245 0 155.35246783 0 5161.16491237 0 -95.64805650 0 887.10580661 0 15670
0.12250000 0.12250700 14028.74626847 0 128.44450406 0 4802.73161334 0 528.08899606 0 300.50289558 0 16887
0.12350000 0.12352200 13620.84182215 0 236.24908742 0 4498.86273101 0 296.80031016 0 -82.69897262 0 16407
0.12450000 0.12449800 13594.82185883 0 282.34428288 0 4284.64646275 0 -63.57894996 0 440.24006372 0 16306
0.12550000 0.12549900 13450.10657345 0 164.18375411 0 4331.51561370 0 -370.77672674 0 618.82559072 0 17523
0.12650000 0.12650100 13405.26365794 0 -63.31764309 0 4769.39284331 0 380.93447753 0 825.11850335 0 17154
0.12750000 0.12750600 13430.95145151 0 -54.64325166 0 4608.01370908 0 80.34045671 0 342.57883712 0 18007
0.12850000 0.12850300 13374.48259494 0 117.66227415 0 4548.55532480 0 453.62318273 0 93.86408352 0 17496
0.12950000 0.12949900 13307.27358329 0 107.87456046 0 3918.16358357 0 423.82644941 0 139.24334245 0 18405
0.13050000 0.13049000 12994.25896067 0 80.63442694 0 3825.92004551 0 607.99685705 0 -47.00999093 0 18100
0.13150000 0.13148800 13030.68690932 0 81.68895515 0 3467.40924021 0 350.48558427 0 -255.21930153 0 19059
0.13250000 0.13249300 12801.60050882 0 365.35350204 0 3310.12686616 0 -74.76033718 0 -153.37827232 0 18957
0.13350000 0.13349100 12495.22928109 0 567.45996865 0 3576.94774964 0 -403.06916207 0 274.30688229 0 19468
0.13450000 0.13450700 12045.13927721 0 415.02284394 0 3652.08454586 0 -475.76672513 0 653.33359825 0 19953
0.13550000 0.13551000 11903.85641253 0 193.57081141 0 4341.12639165 0 99.36381799 0 994.41434982 0 19956
0.13650000 0.13649900 11820.70325314 0 127.79455859 0 4268.66909803 0 194.70683194 0 325.26725727 0 19723
0.13750000 0.13749600 11600.69615899 0 255.37652855 0 4458.76984284 0 34.03112250 0 780.91335374 0 20946
0.13850000 0.13851100 11429.29657080 0 265.82105255 0 4153.71622177 0 287.51616580 0 824.65568017 0 20955
0.13950000 0.13949800 11085.39016193 0 91.81780717 0 4135.59082604 0 507.23205780 0 963.74733177 0 20506
0.14050000 0.14048300 11144.51637646 0 101.62987998 0 3590.03523757 0 390.69473185 0 733.28021237 0 21447
0.14150000 0.14148400 11122.70389657 0 2.83873371 0 3684.32715573 0 494.48116854 0 1111.41782065 0 21771
0.14250000 0.14249400 11156.91738026 0 -99.38286238 0 3404.24162712 0 379.21383825 0 776.19432890 0 22470
0.14350000 0.14350900 11211.83611136 0 37.39998805 0 3711.43220689 0 -153.98725018 0 349.24437666 0 22519
0.14450000 0.14449900 11021.35890751 0 219.22206632 0 3965.50884450 0 -403.22860355 0 975.35223541 0 22218
0.14550000 0.14550500 10874.70596528 0 220.32044094 0 3483.20944772 0 -4.24021322 0 667.23047313 0 23559
0.14650000 0.14650700 10840.72500041 0 105.44119563 0 3757.11661909 0 206.21319189 0 1159.72637383 0 23044
0.14750000 0.14750500 10675.63663737 0 218.39717812 0 3888.68905491 0 -44.13406528 0 8.74632833 0 23649
0.14850000 0.14849900 10496.34248158 0 405.61911848 0 3684.42680665 0 93.50644743 0 158.08954653 0 23640
0.14950000 0.14949500 10131.38758323 0 286.85404077 0 3454.88644084 0 -184.17040764 0 105.08699196 0 24457
0.15050000 0.15050000 10076.65708165 0 169.10429526 0 3558.75591996 0 25.25564074 0 216.20042887 0 24591
0.15150000 0.15149900 9930.75705752 0 -33.86381967 0 3621.98996700 0 252.20430749 0 528.16207341 0 25020
0.15250000 0.15250500 10019.62353651 0 60.50095438 0 3686.47518674 0 664.18004764 0 913.47676263 0 25297
0.15350000 0.15350100 10023.99710482 0 -26.24794249 0 3511.24457416 0 607.39341534 0 1223.82406220 0 25452
0.15450000 0.15450400 10040.24020533 0 79.73092523 0 3556.71861219 0 450.93371503 0 935.73767168 0 26061
0.15550000 0.15549900 9879.51433826 0 294.28689242 0 3517.82153511 0 -8.00605483 0 1366.32488262 0 26128
0.15650000 0.15649500 9539.12892868 0 356.42588654 0 3379.33996860 0 -320.26588815 0 1234.84102540 0 26331
0.15750000 0.15749700 9374.00734866 0 103.02776099 0 3468.61612361 0 61.92640548 0 1327.28386531 0 27345
0.15850000 0.15849900 9396.69454222 0 -113.41050142 0 3203.89898185 0 46.93503129 0 719.34679882 0 26980
0.15950000 0.15949700 9456.91691691 0 -39.05917592 0 3211.06277601 0 -65.77990668 0 244.24219871 0 27777
0.16050000 0.16050000 9398.92007951 0 140.45133309 0 3048.67606022 0 88.87899072 0 -120.69830562 0 28224
0.16150000 0.16150500 9189.95209320 0 175.52181472 0 2760.62953006 0 -73.86037861 0 -150.87039075 0 28075
0.16250000 0.16249700 9227.63121456 0 89.61707189 0 2829.16722069 0 25.93824957 0 -99.68203660 0 28590
0.16350000 0.16349900 9144.06837915 0 102.72902967 0 2703.48526167 0 272.67814331 0 50.01823086 0 29163
0.16450000 0.16449100 9070.78066118 0 82.70561602 0 2751.66094696 0 442.91181570 0 68.59504527 0 28996
0.16550000 0.16550500 8973.99746994 0 56.48003962 0 2354.69595756 0 321.80937023 0 266.08457388 0 30777
0.16650000 0.16650700 8938.27815007 0 9.72615157 0 2301.08376079 0 442.96828455 0 154.09575897 0 29211
0.16750000 0.16749900 8830.54442959 0 122.94488032 0 2168.81376850 0 164.80048260 0 208.96909353 0 30922
0.16850000 0.16850800 8735.53281032 0 152.72943408 0 2126.39569212 0 139.83460460 0 206.51878805 0 30867
0.16950000 0.16949900 8627.47799242 0 204.12716589 0 2247.12832194 0 -169.95354257 0 321.40855207 0 30852
0.17050000 0.17049200 8524.64931182 0 95.69799268 0 2225.99125387 0 -194.80869732 0 329.73272587 0 31257
0.17150000 0.17149500 8447.61914806 0 174.82536549 0 2456.01880197 0 -341.21361947 0 185.99291230 0 32608
0.17250000 0.17250900 8371.85122933 0 93.74538820 0 2385.93098587 0 -199.67387685 0 103.62356279 0 32361
0.17350000 0.17350400 8370.95437102 0 166.17234365 0 2752.29206947 0 -95.44255415 0 246.40794544 0 32508
0.17450000 0.17449800 8303.10316453 0 35.50451676 0 2501.85822672 0 81.34670959 0 172.81352407 0 32791
0.17550000 0.17549800 8232.69425101 0 -77.24120227 0 2604.17758037 0 274.82506709 0 -49.34492279 0 33633
0.17650000 0.17650100 8324.67205328 0 107.37353776 0 2416.45738540 0 100.75915236 0 -244.91650329 0 33984
0.17750000 0.17750300 8169.47127629 0 196.73528184 0 2553.05665668 0 100.35202298 0 28.62616714 0 34069
0.17850000 0.17849800 7994.63926741 0 220.90727415 0 2567.36210035 0 -59.24158816 0 58.98005984 0 34536
