### header ###
fiducial parameters:
Omega_m = 0.31
Omega_nu = 0
Omega_de = 0.69
Omega_k = 0
H_0 = 100
w_de = -1
zeff = 0
beta = 0
fgrowth = 0
b_1 = 2
gamma = 0.55
Lx = 3500 Ly = 3500 Lz = 3500
nx = 700 ny = 700 nz = 700
xoffset = -685.467585 yoffset = -31.7331281 zoffset = 572.489161
bins = 400 dk = 0.001
kx_ny = 0.628318531 ky_ny = 0.628318531 kz_ny = 0.628318531
############################
A(data) = 8.0329625 (not used)
A(ran) = 8.0256497 (used)
Ngal = 476867
weighted Ngal = 0
Nran = 23820508
weighted Nran = 0
SN(data) = 3497.69962
SN(ran) = 69.9063196
SN(data+ran) = 3567.60594
############################
13 columns: k_central k_mean P_0(k) sigma^{lin}_{P_0(k)} P^img_1(k) sigma^{lin}_{P_1(k)} P_2(k) sigma^{lin}_{P_2(k)} P^img_3(k) sigma^{lin}_{P_3(k)} P_4(k) sigma^{lin}_{P_4(k)} N_modes
### header ###
0.00050000 0 0 0 0 0 0 0 0 0 0 0 0
0.00150000 0.00179520 31425.58302353 0 -3105.05633819 0 78128.98127832 0 -9922.78498365 0 -5738.95203838 0 3
0.00250000 0.00253879 58771.56796763 0 2524.71150515 0 41450.35519108 0 14576.93707024 0 34514.42947819 0 6
0.00350000 0.00331552 50243.10977607 0 5206.81610759 0 -13317.57084537 0 55595.80376315 0 24036.79922555 0 7
0.00450000 0.00420575 45636.35831202 0 755.85336098 0 -4512.06094220 0 -10962.94132176 0 -15237.62269217 0 24
0.00550000 0.00557378 55972.15208373 0 -6637.02830442 0 13880.70928565 0 8251.98224084 0 -24400.30364935 0 45
0.00650000 0.00659388 74901.84148668 0 -9654.25896215 0 40659.79119903 0 -17079.28247926 0 -1418.65268971 0 40
0.00750000 0.00754703 59127.98610354 0 9777.97004735 0 13528.05574017 0 -18637.93364398 0 -17148.59523262 0 57
0.00850000 0.00846663 71951.06692251 0 667.49510169 0 27973.12142183 0 12234.69747811 0 5567.45279926 0 75
0.00950000 0.00948925 64893.78852960 0 -695.27113573 0 19407.01732588 0 -2649.17550843 0 -18660.85335635 0 112
0.01050000 0.01054430 70733.55408545 0 -5808.70768473 0 26206.64272026 0 13235.41419522 0 -2771.24788956 0 105
0.01150000 0.01145670 74428.83177043 0 -11489.97291081 0 -5084.65514787 0 27773.37668210 0 -26515.33913621 0 144
0.01250000 0.01249090 79042.55879911 0 -2487.19846866 0 -4127.66304147 0 12811.12270817 0 -16898.13924523 0 169
0.01350000 0.01339930 77495.64429870 0 3862.22619859 0 -14989.38116974 0 -4536.37576750 0 -20355.80483959 0 180
0.01450000 0.01448870 73948.29287330 0 -99.20803038 0 -25602.64740140 0 -2018.57339304 0 -8410.21683482 0 267
0.01550000 0.01550050 67356.05212277 0 1267.48223896 0 -24094.48603786 0 -15019.71933974 0 -3461.61841433 0 238
0.01650000 0.01653350 78228.07858545 0 -4760.10316278 0 -17121.13586707 0 -13687.94011056 0 -14616.24382335 0 315
0.01750000 0.01747870 70967.06941588 0 -1873.79167371 0 -6038.05982103 0 -22919.60165135 0 -14940.33077079 0 297
0.01850000 0.01844180 71520.68565681 0 5704.90463956 0 -105.71113891 0 -16438.74848850 0 -10705.91944575 0 388
0.01950000 0.01947590 71787.19651520 0 1594.51442481 0 -525.37627648 0 -682.36744839 0 5298.12957037 0 399
0.02050000 0.02045430 75621.76404639 0 -4043.13691380 0 11821.03542288 0 1488.05402168 0 -602.88808638 0 462
0.02150000 0.02154770 79280.17088972 0 -2541.06532890 0 12053.77569057 0 12281.64413534 0 11629.81637327 0 571
0.02250000 0.02255340 84371.44728783 0 -1549.48327977 0 2785.71941810 0 8315.41558973 0 17958.53579311 0 510
0.02350000 0.02348930 82182.00577819 0 3198.99394195 0 15107.74432205 0 873.80019388 0 19447.65275797 0 555
0.02450000 0.02439640 82304.68713718 0 3055.08693629 0 8334.77001351 0 -3536.83271682 0 26362.98394670 0 592
0.02550000 0.02547300 75866.90531788 0 7231.94431692 0 26417.79195455 0 -5804.25661016 0 16228.04214720 0 837
0.02650000 0.02652900 70521.07617218 0 11278.04861378 0 24196.57287268 0 -7124.35453666 0 18066.49096009 0 723
0.02750000 0.02749970 62334.97426402 0 3772.48500594 0 29784.11086917 0 961.71223847 0 10740.79726893 0 826
0.02850000 0.02848090 60988.35811957 0 -981.02458742 0 26811.19165536 0 331.35371422 0 5388.20293277 0 831
0.02950000 0.02946900 65113.68490050 0 -2040.04263086 0 30496.50424800 0 5892.29266479 0 -11934.63747552 0 996
0.03050000 0.03053250 63551.93348483 0 538.29546508 0 23487.72263779 0 4656.15617739 0 -6121.76659666 0 1041
0.03150000 0.03150510 62867.88525754 0 3782.18436248 0 22278.29259785 0 10295.23584590 0 4783.11145376 0 1036
0.03250000 0.03246190 59195.30583844 0 869.49195229 0 8076.30873527 0 11799.66583598 0 -352.63472252 0 1059
0.03350000 0.03345080 58733.25772376 0 272.27178899 0 15443.56793380 0 10068.09817457 0 4260.19876955 0 1302
0.03450000 0.03451200 59778.04229365 0 1216.21737505 0 13540.12457423 0 514.09247026 0 -3833.31635849 0 1339
0.03550000 0.03553350 57588.15789101 0 3133.51221298 0 17239.27757289 0 -1661.77879808 0 3821.90079160 0 1365
0.03650000 0.03647120 54167.91675453 0 2597.14665411 0 15224.00373265 0 -5910.65057934 0 10046.85038324 0 1308
0.03750000 0.03744890 52499.87102060 0 1246.26766461 0 20986.59518451 0 -3493.06381681 0 7494.74594649 0 1579
0.03850000 0.03847530 52110.45735673 0 1815.17478612 0 19928.63454809 0 5604.39007486 0 3566.29617316 0 1662
0.03950000 0.03950240 50610.93240654 0 470.80743085 0 19197.97183331 0 5453.31927503 0 4556.90385771 0 1683
0.04050000 0.04050350 48801.49308468 0 894.15555582 0 14261.70798266 0 6561.41539823 0 4130.50862895 0 1822
0.04150000 0.04152450 48742.47759340 0 1823.93299505 0 14422.14596928 0 4047.79836255 0 -2532.19639673 0 1887
0.04250000 0.04250150 46678.81769370 0 1517.35139315 0 9188.19159356 0 1860.89241530 0 2892.54520795 0 1920
0.04350000 0.04349210 45737.78080736 0 631.63627053 0 7524.95124860 0 -1176.11341456 0 -3047.13700707 0 2005
0.04450000 0.04448520 46547.72136784 0 -558.84016378 0 7882.05586865 0 -4360.87941912 0 -2735.19639995 0 2151
0.04550000 0.04548030 46004.73455874 0 312.12551494 0 11283.03115995 0 -7632.13135284 0 -10770.26072527 0 2274
0.04650000 0.04648670 45788.38133178 0 2846.37361345 0 14105.80964921 0 -5146.33906943 0 -9145.50778138 0 2311
0.04750000 0.04749250 42156.99096101 0 3785.32890273 0 16399.22028890 0 -3351.99132630 0 -7716.36960006 0 2568
0.04850000 0.04851840 40758.22416667 0 2450.07296355 0 17847.70182167 0 1685.04175253 0 -7800.40854544 0 2493
0.04950000 0.04949480 38178.15103743 0 1087.54035217 0 19727.33968289 0 4481.41274710 0 -2806.75683525 0 2644
0.05050000 0.05050630 37255.93710328 0 1852.68782260 0 15981.24002699 0 7424.80207061 0 -2710.12865656 0 2829
0.05150000 0.05149060 35998.23172713 0 -552.12922771 0 13466.71506068 0 5159.52620829 0 1731.33514259 0 2784
0.05250000 0.05249300 37456.01401276 0 -391.86175489 0 13415.56092002 0 1631.29668786 0 -831.80286584 0 3055
0.05350000 0.05348950 36672.75775509 0 473.55115294 0 12022.21956484 0 -42.76785112 0 -152.70175327 0 3009
0.05450000 0.05448610 35235.79144012 0 2226.15733874 0 13051.05998699 0 -3160.35152834 0 -610.68853921 0 3336
0.05550000 0.05550870 35059.96292200 0 682.31983739 0 10898.14607692 0 487.57535955 0 1804.29069082 0 3349
0.05650000 0.05647670 35214.97546946 0 -985.85544274 0 12226.06106475 0 1660.15116633 0 103.83050454 0 3324
0.05750000 0.05747970 35926.92595530 0 -1156.70362915 0 11527.06519895 0 1279.38498814 0 -5396.17500664 0 3639
0.05850000 0.05849280 35212.98245100 0 656.00535023 0 11707.10120050 0 1062.22569594 0 -4543.88280373 0 3846
0.05950000 0.05951020 35905.11347541 0 1624.80830551 0 9671.06675122 0 -749.53659967 0 -4736.56340022 0 3787
0.06050000 0.06049470 33881.20322181 0 571.14705282 0 10653.89059142 0 -803.93603873 0 -2831.18238380 0 3930
0.06150000 0.06148310 34008.75640372 0 667.33344575 0 10810.46433669 0 160.67936330 0 -3626.19745043 0 4083
0.06250000 0.06249100 33580.47887974 0 1341.25713923 0 12704.93911316 0 218.65627052 0 -1017.77474072 0 4303
0.06350000 0.06350600 32445.67630907 0 891.46055196 0 11408.03770715 0 661.74081448 0 975.69879918 0 4470
0.06450000 0.06451750 32065.78484454 0 213.87302620 0 13757.69575691 0 2237.28502518 0 1070.16123114 0 4479
0.06550000 0.06550280 30985.67955849 0 554.77329888 0 13092.35975856 0 2091.75038776 0 2742.81415943 0 4636
0.06650000 0.06648880 31168.37291799 0 1490.37920989 0 15044.52134734 0 29.19196294 0 4808.16812482 0 4653
0.06750000 0.06749660 30129.23523376 0 -63.92938904 0 13400.05966527 0 1637.26467093 0 5831.32844434 0 5220
0.06850000 0.06852730 30220.69263677 0 -701.25572730 0 13973.71681412 0 2715.89733779 0 6363.42008582 0 5029
0.06950000 0.06949320 30576.55715644 0 -46.37244647 0 11275.83414881 0 2444.90218785 0 6208.04215164 0 5040
0.07050000 0.07048030 31057.53894656 0 -158.96204572 0 12196.71940398 0 1071.94387544 0 5657.84725908 0 5475
0.07150000 0.07148790 30251.25225326 0 1307.78550130 0 10709.93869966 0 751.12769274 0 6246.50740806 0 5509
0.07250000 0.07249820 28715.96369391 0 1831.84970730 0 10444.90046047 0 -515.47761809 0 5061.03787903 0 5916
0.07350000 0.07351270 27720.45096947 0 747.04754105 0 10658.14236416 0 750.46999665 0 5207.33650686 0 5721
0.07450000 0.07449140 26873.41812084 0 421.57766024 0 10741.49482539 0 105.54538621 0 3603.86457127 0 6028
0.07550000 0.07549160 27337.68070049 0 318.06249551 0 11469.93200288 0 -111.28461505 0 2921.07858901 0 6183
0.07650000 0.07648840 26781.29637835 0 45.51223755 0 11656.38995283 0 -511.67095282 0 2840.80423407 0 6330
0.07750000 0.07749960 26739.22154404 0 899.53227675 0 12431.45269014 0 -469.74891659 0 1703.02320803 0 6583
0.07850000 0.07848650 25588.91771863 0 953.82209980 0 11714.40893488 0 -491.99543162 0 2030.29898502 0 6549
0.07950000 0.07947320 24695.82399876 0 1034.34668928 0 11550.20635782 0 1579.22354423 0 1444.45120654 0 6828
0.08050000 0.08048110 24130.36037027 0 902.05676681 0 11206.85356519 0 961.10990400 0 1214.43473076 0 7147
0.08150000 0.08149960 23038.07552691 0 217.77934239 0 10349.23557404 0 2831.35954100 0 1459.98567826 0 7386
0.08250000 0.08250610 22677.56063081 0 417.86178803 0 8573.72185542 0 1395.22365040 0 758.88274905 0 7227
0.08350000 0.08350160 22061.60720115 0 481.82328681 0 7474.47251975 0 1200.18464872 0 1381.40538902 0 7798
0.08450000 0.08449610 21796.53574499 0 546.22989305 0 7162.35475544 0 359.57485572 0 1357.97634971 0 7371
0.08550000 0.08548940 21331.16593287 0 298.93616162 0 6574.49181384 0 -90.55877312 0 2364.99321964 0 8256
0.08650000 0.08650700 21161.64863989 0 20.98294132 0 7243.18272661 0 -629.12174557 0 1202.21088416 0 8037
0.08750000 0.08749060 21492.04681248 0 191.98193280 0 7245.50791483 0 447.04732902 0 1440.79733935 0 8155
0.08850000 0.08849210 21076.61318529 0 262.80273680 0 7237.76835978 0 -463.44876377 0 845.10515688 0 8718
0.08950000 0.08949900 21102.96531835 0 893.54989965 0 8107.89807798 0 -847.62964693 0 988.88704527 0 8571
0.09050000 0.09049190 20500.18795523 0 378.36901987 0 8337.28343124 0 -559.39931619 0 1062.82470871 0 8932
0.09150000 0.09150830 20008.13384029 0 342.41607395 0 8693.33618044 0 -391.82743068 0 781.04843610 0 9285
0.09250000 0.09250820 20078.44310289 0 46.06673958 0 8437.28866901 0 641.27583652 0 1147.18142981 0 9204
0.09350000 0.09350330 20044.89395868 0 225.69605464 0 8285.17707065 0 1236.35793390 0 -396.88859036 0 9349
0.09450000 0.09448040 19518.18346706 0 348.15375267 0 7712.21747826 0 740.93118882 0 84.93945755 0 9564
0.09550000 0.09549270 19108.39672552 0 559.23323131 0 8029.61674151 0 67.43222972 0 249.69310422 0 10155
0.09650000 0.09649430 18606.93113449 0 697.28408438 0 7585.45043141 0 208.82626054 0 149.62586144 0 9913
0.09750000 0.09749140 18537.17548813 0 344.21532673 0 7733.77529468 0 171.03752317 0 326.26930266 0 10476
0.09850000 0.09850240 17759.56611612 0 96.68697274 0 7472.83381568 0 143.88043209 0 142.90053134 0 10575
0.09950000 0.09950330 18052.53983082 0 135.69798405 0 7673.58613696 0 1024.91196130 0 33.68444801 0 10882
0.10050000 0.10051200 17463.71359696 0 425.19277429 0 7871.49287077 0 160.86870006 0 -276.61878371 0 10875
0.10150000 0.10150300 17048.27996977 0 619.57297264 0 6791.73082678 0 1091.72679819 0 402.32399461 0 11118
0.10250000 0.10250800 16819.30429252 0 371.31927065 0 7062.82562764 0 97.19486028 0 145.43387926 0 11575
0.10350000 0.10349800 16651.00495527 0 -175.72222380 0 6029.97702391 0 1335.95349564 0 1562.60398468 0 11364
0.10450000 0.10450100 16565.41588442 0 -296.85899348 0 6022.92395300 0 931.71620330 0 602.92462505 0 12093
0.10550000 0.10551000 16837.79507496 0 74.95078116 0 5547.22366182 0 1197.40549519 0 1866.45072235 0 12067
0.10650000 0.10649700 16559.87972202 0 269.38744837 0 4848.53782111 0 405.81066970 0 224.02524082 0 12054
0.10750000 0.10749900 16277.97833213 0 326.95800127 0 4307.63260907 0 400.96763482 0 1274.40244198 0 12807
0.10850000 0.10850100 16127.94833084 0 23.11967856 0 4795.83355497 0 156.04670260 0 1277.83486267 0 12736
0.10950000 0.10950300 15871.62401129 0 602.80947287 0 4173.29209205 0 -262.73962455 0 1128.33633297 0 12933
0.11050000 0.11050200 15493.83628848 0 574.02475004 0 4914.91640840 0 137.62567580 0 838.47726324 0 13428
0.11150000 0.11150900 14943.65246824 0 157.44624446 0 4153.31761807 0 21.28488362 0 775.20335583 0 13453
0.11250000 0.11250000 15239.61571064 0 -77.38326020 0 4814.77830274 0 83.37073057 0 435.48117851 0 13668
0.11350000 0.11349100 15089.36426285 0 25.92795230 0 4967.58745756 0 -124.66662683 0 -325.81090842 0 13791
0.11450000 0.11448600 15345.35641266 0 -2.58442455 0 5116.08947803 0 -938.06839605 0 125.19145503 0 14205
0.11550000 0.11549300 15027.35924387 0 151.64323902 0 5131.84539625 0 -288.71862027 0 206.47006982 0 14776
0.11650000 0.11649800 15238.17630841 0 198.57771669 0 5482.87130997 0 -143.83392832 0 -438.21604274 0 14553
0.11750000 0.11747300 14813.10975863 0 369.03726451 0 5145.81867017 0 134.15450197 0 -1005.46895892 0 14568
0.11850000 0.11849100 14436.98288454 0 659.84855417 0 5370.94117838 0 122.74447124 0 -1040.39328586 0 16015
0.11950000 0.11950300 14076.35726519 0 219.15563237 0 4654.27388217 0 321.30447221 0 -559.91307206 0 15270
0.12050000 0.12050700 13803.86735141 0 34.78725156 0 4877.14870844 0 575.06665580 0 -614.06116935 0 15999
0.12150000 0.12150000 13989.10734562 0 -47.78084618 0 5084.36726742 0 424.82738757 0 -149.56828535 0 15670
0.12250000 0.12250700 13909.05443718 0 92.33787427 0 4642.10539719 0 428.68055661 0 -231.63303521 0 16887
0.12350000 0.12352200 13746.06981585 0 52.75265220 0 4972.50356978 0 -173.17005293 0 266.28498296 0 16407
0.12450000 0.12449800 13919.90531551 0 340.06763385 0 4800.89360742 0 179.29194132 0 740.81714387 0 16306
0.12550000 0.12549900 13598.69717252 0 300.43756886 0 4999.07714935 0 124.41971399 0 838.04433534 0 17523
0.12650000 0.12650100 13493.17791700 0 200.24077988 0 4968.65040074 0 190.33437087 0 1145.76417223 0 17154
0.12750000 0.12750600 13183.92788481 0 46.69642269 0 4749.49587561 0 539.38387461 0 1482.20783417 0 18007
0.12850000 0.12850300 13154.58622404 0 -57.71061780 0 4430.93401825 0 561.50637960 0 931.60437282 0 17496
0.12950000 0.12949900 13086.49142641 0 34.88568453 0 4330.87341886 0 704.33936976 0 839.03420118 0 18405
0.13050000 0.13049000 12974.55022249 0 332.38897659 0 3923.87690318 0 219.52655525 0 476.25501466 0 18100
0.13150000 0.13148800 12718.00445644 0 360.04653676 0 3941.05007897 0 290.83121985 0 878.82924381 0 19059
0.13250000 0.13249300 12429.45967167 0 227.49309296 0 3788.55094925 0 37.27121691 0 1447.72861469 0 18957
0.13350000 0.13349100 12316.52195852 0 216.04873802 0 3429.42009375 0 442.67708241 0 1234.06596266 0 19468
0.13450000 0.13450700 12073.37370550 0 210.93000226 0 3709.33953749 0 179.02620553 0 1669.98339077 0 19953
0.13550000 0.13551000 12086.32832554 0 214.68684207 0 3703.43798837 0 208.11098836 0 1424.29957537 0 19956
0.13650000 0.13649900 11736.88575426 0 194.08235282 0 3406.54467068 0 276.73947205 0 1700.60944122 0 19723
0.13750000 0.13749600 11565.59688932 0 171.50477528 0 3187.91054481 0 402.60412443 0 1389.28888429 0 20946
0.13850000 0.13851100 11451.66266693 0 137.68657358 0 3095.00266726 0 99.87281276 0 997.03849080 0 20955
0.13950000 0.13949800 11288.89949210 0 147.03936636 0 3049.07466391 0 -66.47569158 0 604.28984270 0 20506
0.14050000 0.14048300 11122.15028033 0 228.40545252 0 3060.01412083 0 -254.42541585 0 731.48428128 0 21447
0.14150000 0.14148400 11091.59066383 0 93.73996276 0 3221.88043735 0 -167.79776093 0 790.50641596 0 21771
0.14250000 0.14249400 11055.83812699 0 41.94152352 0 3177.19253439 0 298.83429623 0 373.82050883 0 22470
0.14350000 0.14350900 11084.50437595 0 6.48291262 0 3183.52590418 0 132.18473538 0 877.89584683 0 22519
0.14450000 0.14449900 11039.52859253 0 197.08516731 0 3277.48565259 0 209.94677982 0 540.56418444 0 22218
0.14550000 0.14550500 10895.56622524 0 86.19594497 0 3110.08317366 0 -29.78710040 0 649.37302766 0 23559
0.14650000 0.14650700 10716.23885248 0 152.33193762 0 3237.70278952 0 -100.79823767 0 510.20165532 0 23044
0.14750000 0.14750500 10688.67983601 0 219.08144779 0 3204.12042834 0 -10.75969773 0 782.40590312 0 23649
0.14850000 0.14849900 10472.76950204 0 158.37521251 0 2975.24440202 0 166.78796491 0 234.94366033 0 23640
0.14950000 0.14949500 10308.44512941 0 70.02226794 0 2893.07667954 0 489.71453271 0 325.80205056 0 24457
0.15050000 0.15050000 10220.49765337 0 89.18713352 0 2723.57045889 0 338.77217185 0 178.90551719 0 24591
0.15150000 0.15149900 10253.01707137 0 195.48189467 0 2692.51258777 0 6.92398975 0 -275.62116725 0 25020
0.15250000 0.15250500 9920.54837404 0 425.63123835 0 2743.37884799 0 -348.96646131 0 239.79998199 0 25297
0.15350000 0.15350100 9679.21598229 0 361.75721094 0 2689.20196265 0 -135.03475179 0 428.57426229 0 25452
0.15450000 0.15450400 9499.41249956 0 -4.65884675 0 2880.70889272 0 -178.62649460 0 390.56518565 0 26061
0.15550000 0.15549900 9598.01155207 0 -188.46646967 0 2590.62505479 0 632.13563238 0 333.66340118 0 26128
0.15650000 0.15649500 9667.55682426 0 -1.57351022 0 2889.04635331 0 291.49113041 0 136.12205409 0 26331
0.15750000 0.15749700 9622.70283641 0 131.74294962 0 2281.35287796 0 -58.26844153 0 357.95054567 0 27345
0.15850000 0.15849900 9649.77467060 0 158.22462889 0 2711.86701156 0 100.81672845 0 295.47384565 0 26980
0.15950000 0.15949700 9537.02518697 0 48.87844574 0 2598.55283936 0 -251.15354386 0 695.93215352 0 27777
0.16050000 0.16050000 9505.69050773 0 72.95820559 0 2889.58889722 0 157.88360129 0 547.72022797 0 28224
0.16150000 0.16150500 9460.03931250 0 126.77036855 0 2619.50167792 0 -144.82379416 0 587.19306594 0 28075
0.16250000 0.16249700 9395.76446693 0 138.09403514 0 2814.23065451 0 145.12606863 0 547.33491106 0 28590
0.16350000 0.16349900 9181.44854774 0 245.24756580 0 2643.17430838 0 -3.60855924 0 524.82708917 0 29163
0.16450000 0.16449100 9016.30482307 0 195.30030855 0 2620.30995763 0 185.89326138 0 594.24392239 0 28996
0.16550000 0.16550500 8785.09253621 0 188.17526753 0 2467.87726185 0 145.70958015 0 486.89551881 0 30777
0.16650000 0.16650700 8558.67456599 0 197.43837447 0 2350.10094276 0 485.84364795 0 696.85226372 0 29211
0.16750000 0.16749900 8370.51147802 0 68.23231591 0 2071.14479128 0 611.51896357 0 501.31722188 0 30922
0.16850000 0.16850800 8377.79706776 0 15.10940517 0 1722.72087388 0 590.60777092 0 528.73783430 0 30867
0.16950000 0.16949900 8277.73646837 0 23.66532273 0 1673.51546239 0 339.93476595 0 123.38666608 0 30852
0.17050000 0.17049200 8209.64167073 0 219.00837045 0 1491.51965935 0 -55.58240625 0 721.11947802 0 31257
0.17150000 0.17149500 8016.55139822 0 208.29146726 0 1487.56683939 0 -120.84446030 0 945.32187604 0 32608
0.17250000 0.17250900 8033.87958656 0 2.27092275 0 1325.11368965 0 80.33791008 0 937.19257516 0 32361
0.17350000 0.17350400 8005.29084388 0 -73.25106858 0 1404.96729624 0 195.27594943 0 734.32322537 0 32508
0.17450000 0.17449800 8090.25986454 0 -40.74283364 0 1389.69856031 0 -91.27515254 0 197.32543676 0 32791
0.17550000 0.17549800 8148.09061707 0 10.55892326 0 1502.49233324 0 -226.04372564 0 304.34609952 0 33633
0.17650000 0.17650100 8192.71208609 0 153.81230745 0 1582.08020404 0 -514.44567742 0 125.88679703 0 33984
0.17750000 0.17750300 8035.16397624 0 126.25218374 0 2023.35663736 0 -555.15861578 0 17.88844798 0 34069
0.17850000 0.17849800 7964.53361622 0 208.09216541 0 2187.76958859 0 -166.43143605 0 19.20882271 0 34536
