### header ###
fiducial parameters:
Omega_m = 0.31
Omega_nu = 0
Omega_de = 0.69
Omega_k = 0
H_0 = 100
w_de = -1
zeff = 0
beta = 0
fgrowth = 0
b_1 = 2
gamma = 0.55
Lx = 3500 Ly = 3500 Lz = 3500
nx = 700 ny = 700 nz = 700
xoffset = -685.467585 yoffset = -31.7331281 zoffset = 572.489161
bins = 400 dk = 0.001
kx_ny = 0.628318531 ky_ny = 0.628318531 kz_ny = 0.628318531
############################
A(data) = 8.06775536 (not used)
A(ran) = 8.06966182 (used)
Ngal = 479658
weighted Ngal = 0
Nran = 23820508
weighted Nran = 0
SN(data) = 3481.24214
SN(ran) = 70.289681
SN(data+ran) = 3551.53183
############################
13 columns: k_central k_mean P_0(k) sigma^{lin}_{P_0(k)} P^img_1(k) sigma^{lin}_{P_1(k)} P_2(k) sigma^{lin}_{P_2(k)} P^img_3(k) sigma^{lin}_{P_3(k)} P_4(k) sigma^{lin}_{P_4(k)} N_modes
### header ###
0.00050000 0 0 0 0 0 0 0 0 0 0 0 0
0.00150000 0.00179520 39884.28556874 0 -35071.03524682 0 31943.76782504 0 -23935.70889996 0 41372.62747086 0 3
0.00250000 0.00253879 69546.49014165 0 -23640.63144354 0 10551.93662449 0 -44944.11656436 0 -10085.68102638 0 6
0.00350000 0.00331552 73378.62176138 0 1320.24186673 0 10643.47153377 0 -23437.45428312 0 88392.80493871 0 7
0.00450000 0.00420575 68616.74702663 0 17242.15637734 0 8265.81157454 0 -34113.38987326 0 43999.53653408 0 24
0.00550000 0.00557378 53002.00095113 0 6023.74330504 0 14132.27250553 0 15389.97788168 0 18691.19152636 0 45
0.00650000 0.00659388 55305.48740640 0 -23049.25857498 0 5502.14822748 0 53658.25764313 0 -10781.99738958 0 40
0.00750000 0.00754703 68451.76938683 0 -22088.07005747 0 1009.36198833 0 33964.24565795 0 -15392.41379314 0 57
0.00850000 0.00846663 87642.76565550 0 -25391.94106011 0 -12298.80623881 0 8824.52108489 0 -19759.22797836 0 75
0.00950000 0.00948925 83625.06187180 0 3300.26142474 0 -1967.12029961 0 -15345.24568941 0 -21414.65126200 0 112
0.01050000 0.01054430 91557.27537188 0 16355.70605236 0 -17763.33070655 0 -31866.92589080 0 -4448.14041102 0 105
0.01150000 0.01145670 71412.28759684 0 13982.57467398 0 -13861.99705670 0 -14992.70286718 0 16028.74030047 0 144
0.01250000 0.01249090 65917.86785208 0 6466.87988893 0 -5546.71433488 0 -4970.52162364 0 12192.84409029 0 169
0.01350000 0.01339930 67710.14507048 0 -11486.65121336 0 -6713.17268219 0 20620.76557250 0 1860.89241530 0 180
0.01450000 0.01448870 73246.63964954 0 -13719.71768278 0 -10798.28477938 0 17281.13096070 0 -5762.99005556 0 267
0.01550000 0.01550050 93489.94966898 0 -10009.87989067 0 -8009.68655683 0 13908.94371394 0 -3770.23732400 0 238
0.01650000 0.01653350 87503.80797902 0 -1867.84583528 0 -10374.31438975 0 -14192.17378280 0 -13757.58503366 0 315
0.01750000 0.01747870 87990.10448506 0 9198.09025194 0 9103.28900685 0 -27188.75793168 0 13118.26899864 0 297
0.01850000 0.01844180 86390.59644176 0 12229.93637844 0 15788.69229840 0 -8429.06193167 0 22734.47238038 0 388
0.01950000 0.01947590 73536.40239005 0 10922.97022917 0 15584.62935199 0 -11798.66932675 0 29412.08075526 0 399
0.02050000 0.02045430 76025.46100928 0 4125.03890049 0 22309.29510735 0 9402.98362271 0 27403.56103316 0 462
0.02150000 0.02154770 67438.31949618 0 -1767.13196873 0 15855.34769381 0 11063.21229532 0 2518.57743720 0 571
0.02250000 0.02255340 66697.47024256 0 5504.11910130 0 22513.57950025 0 13282.91446869 0 10744.62829331 0 510
0.02350000 0.02348930 67039.16218647 0 1995.34365557 0 9929.79376526 0 1916.05473754 0 2693.14371029 0 555
0.02450000 0.02439640 60708.89264115 0 2332.24128283 0 8912.09210188 0 1505.34899304 0 9251.84638894 0 592
0.02550000 0.02547300 62602.37090839 0 616.41957454 0 8802.87468987 0 -3990.55444324 0 4608.67804856 0 837
0.02650000 0.02652900 58453.46007559 0 -203.40414308 0 11402.94443773 0 3457.85382389 0 2325.08856099 0 723
0.02750000 0.02749970 59290.86000162 0 2806.15892971 0 15024.59116266 0 3742.40149940 0 12737.60247137 0 826
0.02850000 0.02848090 59155.55619234 0 -327.46289928 0 17639.32066859 0 6175.71096317 0 15113.72337745 0 831
0.02950000 0.02946900 58815.08220417 0 1863.63835185 0 17071.64257513 0 4849.82221079 0 21929.84653581 0 996
0.03050000 0.03053250 58154.50730549 0 1284.31217269 0 19011.62460661 0 6503.64000733 0 28067.90052228 0 1041
0.03150000 0.03150510 57641.08360365 0 2660.41391813 0 27088.99628506 0 -642.15719358 0 40740.39772371 0 1036
0.03250000 0.03246190 54057.52567609 0 5464.95628841 0 26684.96715243 0 5985.59914604 0 38163.64629192 0 1059
0.03350000 0.03345080 52043.58051483 0 1812.22954772 0 30120.70954365 0 563.97661527 0 38288.20994613 0 1302
0.03450000 0.03451200 51556.73039255 0 1637.50826208 0 29062.30601424 0 2957.91621368 0 29422.15657084 0 1339
0.03550000 0.03553350 49788.48011901 0 3855.85961182 0 34791.34832190 0 -3948.59033218 0 27505.64786798 0 1365
0.03650000 0.03647120 46605.51890340 0 4222.82967328 0 28840.97024111 0 -805.65778524 0 25575.07731261 0 1308
0.03750000 0.03744890 45283.48332005 0 630.98300337 0 34025.25416770 0 1341.01354809 0 26697.25743298 0 1579
0.03850000 0.03847530 46757.43119991 0 -3860.10031223 0 26804.76970696 0 6939.74566496 0 18181.86458470 0 1662
0.03950000 0.03950240 50156.63491923 0 -3771.75423250 0 29558.23544287 0 9470.34764691 0 14807.01997998 0 1683
0.04050000 0.04050350 53304.71831167 0 -2450.09510819 0 21346.33501787 0 5883.14692449 0 9948.73851302 0 1822
0.04150000 0.04152450 53285.00957349 0 1527.75937848 0 24712.98610223 0 -79.64566833 0 6795.20753678 0 1887
0.04250000 0.04250150 53254.33923375 0 3165.84340145 0 24597.05886137 0 -6013.58998318 0 7463.30054401 0 1920
0.04350000 0.04349210 47563.60716996 0 3776.26066870 0 22890.14926733 0 -3552.30075459 0 5226.21482067 0 2005
0.04450000 0.04448520 47780.51401315 0 2759.50015293 0 24121.83468016 0 -736.66170037 0 666.77540058 0 2151
0.04550000 0.04548030 45173.86730435 0 -82.86550039 0 23405.67671089 0 2785.85228600 0 -2432.00292944 0 2274
0.04650000 0.04648670 44895.17688866 0 -115.35037273 0 21409.89016233 0 6036.48755090 0 -6254.64556681 0 2311
0.04750000 0.04749250 44413.97365204 0 2080.23516995 0 20662.50823707 0 2.25196693 0 -9952.40345254 0 2568
0.04850000 0.04851840 41014.65920947 0 4004.52771716 0 18381.60932443 0 -1239.21459370 0 -7090.42893342 0 2493
0.04950000 0.04949480 38230.08024083 0 2407.18984952 0 19514.52959987 0 1318.02740176 0 -2633.31993929 0 2644
0.05050000 0.05050630 36948.90153606 0 90.42978054 0 15810.06188530 0 3415.12572241 0 -2529.22901367 0 2829
0.05150000 0.05149060 38469.90679640 0 -942.08543550 0 16134.59172573 0 5623.81093259 0 -2656.47217049 0 2784
0.05250000 0.05249300 38702.42561759 0 -1643.52053446 0 13464.94348871 0 3117.76736708 0 -6603.83347461 0 3055
0.05350000 0.05348950 40242.36455337 0 -1421.65328974 0 11728.36006415 0 945.58761184 0 -5917.49327608 0 3009
0.05450000 0.05448610 39656.41712397 0 328.95655590 0 11153.92785256 0 -152.71504006 0 -5864.62292507 0 3336
0.05550000 0.05550870 39310.84986638 0 1963.72109589 0 12057.31883451 0 -225.53439870 0 -2294.37393195 0 3349
0.05650000 0.05647670 39019.09410741 0 1369.17047010 0 12236.46905008 0 1064.88305390 0 -1902.01502967 0 3324
0.05750000 0.05747970 36686.81960761 0 576.99656202 0 9985.83080117 0 4342.24469645 0 -1934.05833770 0 3639
0.05850000 0.05849280 36254.88821643 0 11.34525763 0 11091.36921733 0 2627.32981157 0 -2263.86967707 0 3846
0.05950000 0.05951020 36791.67452364 0 1750.78921730 0 12084.11386057 0 -400.66203866 0 -1608.02266109 0 3787
0.06050000 0.06049470 34777.61863913 0 2018.88341813 0 12603.95951081 0 -560.98487310 0 1730.95868355 0 3930
0.06150000 0.06148310 32664.24400099 0 1048.52147951 0 11553.97094826 0 -202.19725968 0 5315.77885613 0 4083
0.06250000 0.06249100 32911.93190719 0 -390.33820299 0 11713.41242565 0 1850.61729786 0 2893.56386183 0 4303
0.06350000 0.06350600 32866.20320568 0 684.97055195 0 11374.26711645 0 2884.36275991 0 2662.08583917 0 4470
0.06450000 0.06451750 31235.24975990 0 1446.45529733 0 9961.16166147 0 2063.67097202 0 5207.60224265 0 4479
0.06550000 0.06550280 31087.43422357 0 1253.45360342 0 9991.11230011 0 807.91432504 0 5296.33585375 0 4636
0.06650000 0.06648880 29832.05403563 0 607.70565490 0 10740.81941358 0 705.15872180 0 9578.21423529 0 4653
0.06750000 0.06749660 29922.51492940 0 725.07561968 0 12032.62755017 0 -962.43304682 0 7278.31521326 0 5220
0.06850000 0.06852730 30088.04618544 0 -128.41239432 0 12318.73642348 0 492.05300771 0 8397.98191590 0 5029
0.06950000 0.06949320 30035.45264255 0 48.84356792 0 11537.58390753 0 60.46773741 0 6723.86854797 0 5040
0.07050000 0.07048030 30549.98357687 0 -135.11336530 0 12377.41974502 0 -91.97459129 0 4342.90903594 0 5475
0.07150000 0.07148790 30721.16171857 0 -723.06709996 0 10952.63298736 0 553.60406138 0 2927.06871673 0 5509
0.07250000 0.07249820 31065.62174368 0 -174.25956969 0 11344.37183944 0 735.51460752 0 985.81004621 0 5916
0.07350000 0.07351270 30613.87089108 0 1112.11537711 0 10905.63096850 0 196.87479314 0 -764.30043758 0 5721
0.07450000 0.07449140 29314.75502010 0 1672.00962621 0 9614.46502675 0 -695.15044739 0 -197.51255904 0 6028
0.07550000 0.07549160 28508.46832681 0 895.62928226 0 10412.48069340 0 199.50668474 0 1319.48894864 0 6183
0.07650000 0.07648840 27062.97632174 0 530.42193490 0 10862.09458731 0 1204.85716979 0 2376.98454742 0 6330
0.07750000 0.07749960 27921.85655792 0 837.89707342 0 11899.20603610 0 2138.33165828 0 1330.67199670 0 6583
0.07850000 0.07848650 26267.54050676 0 957.90557320 0 9984.81214728 0 2196.37278498 0 5144.65607606 0 6549
0.07950000 0.07947320 25778.14374978 0 544.77388233 0 9683.89957569 0 1452.66687156 0 4294.29045766 0 6828
0.08050000 0.08048110 24954.58422977 0 181.76660592 0 7968.26498969 0 1490.32384826 0 4414.50268822 0 7147
0.08150000 0.08149960 24712.21103949 0 176.72980536 0 8510.73139953 0 1186.33317037 0 2375.39013264 0 7386
0.08250000 0.08250610 24346.82432047 0 327.82496430 0 6503.15282503 0 -478.48608811 0 2007.45677892 0 7227
0.08350000 0.08350160 23655.57908205 0 1072.67021994 0 6533.57957364 0 -950.35314044 0 1485.16414490 0 7798
0.08450000 0.08449610 22948.72186562 0 795.25201438 0 6193.94708215 0 437.47751868 0 1164.43211188 0 7371
0.08550000 0.08548940 22427.21536666 0 129.94258961 0 6288.85905049 0 674.02445164 0 1190.02025453 0 8256
0.08650000 0.08650700 22000.70941465 0 -178.46926759 0 6122.16520035 0 1109.19228336 0 -281.76741475 0 8037
0.08750000 0.08749060 22308.85221435 0 205.57764044 0 6082.69236237 0 1483.82439360 0 1723.81703404 0 8155
0.08850000 0.08849210 21918.33131800 0 604.92982307 0 5469.90561761 0 427.37070058 0 940.63828264 0 8718
0.08950000 0.08949900 21504.44781628 0 303.41491701 0 5085.52986153 0 466.33864055 0 3168.76649520 0 8571
0.09050000 0.09049190 21317.87914308 0 490.92363058 0 5833.57612628 0 1099.58925604 0 2609.50336861 0 8932
0.09150000 0.09150830 20595.52067192 0 785.07101171 0 5026.79117837 0 -621.89262469 0 2650.91386343 0 9285
0.09250000 0.09250820 20153.07057216 0 578.35513627 0 5530.67053621 0 300.44753395 0 2880.32136135 0 9204
0.09350000 0.09350330 19456.95351081 0 538.50694648 0 6262.26332628 0 -168.41891835 0 1257.56143593 0 9349
0.09450000 0.09448040 19290.64719204 0 332.34247283 0 5576.62068421 0 -372.12976483 0 2066.73800600 0 9564
0.09550000 0.09549270 19019.59668048 0 -99.35230277 0 6019.71297880 0 -284.09371020 0 1160.98861886 0 10155
0.09650000 0.09649430 19394.83776858 0 167.59845908 0 6023.49971389 0 -682.81477031 0 1528.53444121 0 9913
0.09750000 0.09749140 19358.07765018 0 122.15320910 0 6651.57733923 0 -250.03856075 0 332.67353534 0 10476
0.09850000 0.09850240 18694.40250055 0 730.05152245 0 6326.99213717 0 -134.53760441 0 788.93857477 0 10575
0.09950000 0.09950330 18593.42289821 0 680.85607605 0 7009.72275781 0 -68.86742446 0 598.12920117 0 10882
0.10050000 0.10051200 17835.63298762 0 321.34543982 0 6683.63171958 0 169.12533267 0 94.54359210 0 10875
0.10150000 0.10150300 17856.55968153 0 373.93344654 0 6995.91556876 0 346.61912845 0 284.95624430 0 11118
0.10250000 0.10250800 17270.16935913 0 289.04193216 0 6959.73121126 0 697.51106704 0 884.27682762 0 11575
0.10350000 0.10349800 17101.98074514 0 317.87869492 0 6575.55475702 0 748.96748217 0 536.98118012 0 11364
0.10450000 0.10450100 16966.78765910 0 309.06733883 0 6270.35719572 0 603.88127391 0 978.42702002 0 12093
0.10550000 0.10551000 16743.90176050 0 474.74917848 0 6313.93786621 0 234.79307671 0 542.59595604 0 12067
0.10650000 0.10649700 16018.11086864 0 600.59943684 0 6197.21341797 0 -596.29673141 0 -0.35787525 0 12054
0.10750000 0.10749900 15682.84087313 0 416.30501916 0 6635.54461289 0 -161.67255084 0 911.80262712 0 12807
0.10850000 0.10850100 15260.21023480 0 379.53382844 0 6407.60973417 0 203.11736987 0 -29.50165586 0 12736
0.10950000 0.10950300 15129.22463220 0 89.81703808 0 6258.06691517 0 406.38975228 0 834.48679737 0 12933
0.11050000 0.11050200 15323.10103977 0 -243.90006387 0 6176.69640008 0 918.55010186 0 875.86850415 0 13428
0.11150000 0.11150900 15244.70898006 0 -9.62472907 0 5945.56161949 0 749.85658986 0 832.93667190 0 13453
0.11250000 0.11250000 15288.22321659 0 61.43047605 0 5456.47488760 0 671.47892416 0 1069.52346523 0 13668
0.11350000 0.11349100 15244.59825681 0 84.92362413 0 5741.21079264 0 292.87627824 0 1216.58276177 0 13791
0.11450000 0.11448600 15314.57534966 0 43.50405000 0 5204.76772750 0 238.71710863 0 1658.72283643 0 14205
0.11550000 0.11549300 15165.65258085 0 -38.85278779 0 5277.66791411 0 325.69797070 0 2037.72851497 0 14776
0.11650000 0.11649800 15372.59433171 0 131.95885996 0 5177.02048151 0 444.79078922 0 991.19230330 0 14553
0.11750000 0.11747300 14998.34975284 0 481.08144105 0 4866.95109728 0 -609.73742651 0 625.59188842 0 14568
0.11850000 0.11849100 14652.22887901 0 631.57537275 0 5197.47106545 0 -322.62318610 0 303.22336579 0 16015
0.11950000 0.11950300 14024.42806179 0 428.99390340 0 5319.11162590 0 -356.37273938 0 394.48146694 0 15270
0.12050000 0.12050700 13872.29431879 0 317.43801639 0 4919.26783205 0 638.93403982 0 -433.90890839 0 15999
0.12150000 0.12150000 13489.41332656 0 133.59645680 0 4592.77819012 0 370.98820814 0 -330.04828712 0 15670
0.12250000 0.12250700 13366.62124432 0 189.25703366 0 4643.67766732 0 455.15780695 0 -609.18270303 0 16887
0.12350000 0.12352200 13310.26311099 0 -7.71468661 0 4823.96833234 0 -33.77989145 0 -278.39699908 0 16407
0.12450000 0.12449800 13310.70600398 0 -63.46058681 0 4612.18797553 0 452.52370087 0 -496.33467572 0 16306
0.12550000 0.12549900 13377.80429238 0 -14.73726433 0 4682.16506839 0 73.66174111 0 74.37335942 0 17523
0.12650000 0.12650100 13250.91544996 0 277.00742231 0 4354.11422866 0 143.12972847 0 131.08746799 0 17154
0.12750000 0.12750600 13384.22624078 0 -23.81823153 0 4792.94367820 0 189.99777219 0 728.05407506 0 18007
0.12850000 0.12850300 13035.89090199 0 31.66164499 0 4379.01588718 0 616.29002834 0 868.71024616 0 17496
0.12950000 0.12949900 13407.58884615 0 -4.12378773 0 4622.56274389 0 219.97276994 0 337.25194165 0 18405
0.13050000 0.13049000 13060.80363283 0 -36.16376298 0 3961.99891753 0 574.25173270 0 1167.24448238 0 18100
0.13150000 0.13148800 13247.26158277 0 289.21687489 0 4274.88067226 0 -7.81687309 0 1248.31604470 0 19059
0.13250000 0.13249300 12999.79512308 0 235.81948122 0 4157.55831848 0 -306.12874382 0 907.46781195 0 18957
0.13350000 0.13349100 12908.00555033 0 235.45963066 0 4543.83851443 0 289.14047585 0 824.90148578 0 19468
0.13450000 0.13450700 12477.84573113 0 279.60388248 0 4104.07898960 0 -39.57392830 0 950.79160450 0 19953
0.13550000 0.13551000 12457.91554645 0 155.67910142 0 4011.12682275 0 283.85786968 0 235.35112188 0 19956
0.13650000 0.13649900 12283.19426081 0 -31.97997433 0 3947.98135431 0 337.35712874 0 235.88370070 0 19723
0.13750000 0.13749600 12034.50984539 0 357.01161252 0 3476.53283586 0 383.06811452 0 288.92677998 0 20946
0.13850000 0.13851100 11680.52762093 0 427.99075077 0 3246.12882871 0 373.74964595 0 375.25105320 0 20955
0.13950000 0.13949800 11337.83916780 0 255.51382537 0 3196.93448954 0 631.52444005 0 845.34764079 0 20506
0.14050000 0.14048300 11195.44907063 0 110.56757130 0 2749.46862664 0 459.44279665 0 438.70543950 0 21447
0.14150000 0.14148400 11217.92589001 0 -44.53012234 0 2928.06522597 0 223.51591388 0 433.76275370 0 21771
0.14250000 0.14249400 11152.48845033 0 -2.62787236 0 2572.10105537 0 63.55304072 0 669.70735219 0 22470
0.14350000 0.14350900 11275.72342556 0 93.86696233 0 2876.68963881 0 -377.60060052 0 796.27066826 0 22519
0.14450000 0.14449900 11158.35678249 0 166.61745110 0 2982.36390688 0 -55.39251588 0 865.85801528 0 22218
0.14550000 0.14550500 11030.54893711 0 134.65829275 0 2836.98428201 0 -28.28403230 0 606.59067179 0 23559
0.14650000 0.14650700 10916.59257007 0 139.37731758 0 2862.58349699 0 106.98877447 0 532.98517810 0 23044
0.14750000 0.14750500 10974.14651448 0 68.28081269 0 2846.06358836 0 153.75473136 0 177.69974101 0 23649
0.14850000 0.14849900 10681.49389720 0 182.46637685 0 3148.17197104 0 -160.10360241 0 403.06362591 0 23640
0.14950000 0.14949500 10720.91137355 0 197.06966605 0 3087.68386055 0 -122.98584792 0 301.95004843 0 24457
0.15050000 0.15050000 10453.89118823 0 294.31125154 0 3321.53136072 0 -14.72242742 0 677.67721160 0 24591
0.15150000 0.15149900 10354.46171135 0 324.13788014 0 3371.33467776 0 -195.55386478 0 387.73842113 0 25020
0.15250000 0.15250500 10030.78443993 0 279.27060551 0 3591.50785677 0 -283.96194953 0 1026.01587209 0 25297
0.15350000 0.15350100 9954.79507470 0 296.07950181 0 3698.67688869 0 -52.93512411 0 1048.02433213 0 25452
0.15450000 0.15450400 9718.84383281 0 191.81474069 0 3832.85132085 0 84.31475698 0 1066.63026675 0 26061
0.15550000 0.15549900 9603.41484658 0 -5.14845388 0 3615.92233300 0 412.57364569 0 695.59001869 0 26128
0.15650000 0.15649500 9563.24445214 0 -73.07745453 0 3359.38763928 0 519.28428337 0 626.98589411 0 26331
0.15750000 0.15749700 9647.90344770 0 -97.73297526 0 2904.87977780 0 699.89715304 0 802.99710559 0 27345
0.15850000 0.15849900 9544.37721065 0 -70.44246267 0 2325.77504513 0 613.24292455 0 372.73763546 0 26980
0.15950000 0.15949700 9583.31857703 0 129.00033476 0 2101.39438268 0 314.95560116 0 164.97099640 0 27777
0.16050000 0.16050000 9431.07411078 0 326.66015573 0 2017.70975170 0 -7.00075417 0 381.00312594 0 28224
0.16150000 0.16150500 9036.92149188 0 315.54464884 0 1981.09357353 0 14.89659509 0 567.26509574 0 28075
0.16250000 0.16249700 8792.72136801 0 298.23417622 0 2061.55615798 0 -108.88690312 0 481.48779537 0 28590
0.16350000 0.16349900 8732.34398077 0 -14.11533185 0 2264.61152283 0 -6.37052852 0 236.31773584 0 29163
0.16450000 0.16449100 8763.13611609 0 49.52097275 0 2273.07077899 0 -344.84977094 0 352.56718134 0 28996
0.16550000 0.16550500 8668.91063189 0 198.73051477 0 2480.85402654 0 -247.86838509 0 564.40843593 0 30777
0.16650000 0.16650700 8613.17254875 0 112.69412200 0 2809.70207365 0 -172.64079580 0 840.09935883 0 29211
0.16750000 0.16749900 8587.45153820 0 99.53455323 0 2648.05720363 0 132.22238129 0 505.45162797 0 30922
0.16850000 0.16850800 8341.60163792 0 169.17626537 0 3102.80865625 0 201.84958868 0 499.90217877 0 30867
0.16950000 0.16949900 8425.19769030 0 216.69314733 0 2821.35015936 0 204.37407874 0 501.13563576 0 30852
0.17050000 0.17049200 8077.82564377 0 170.50272988 0 2664.83177573 0 460.22339555 0 433.11059377 0 31257
0.17150000 0.17149500 8078.24639211 0 53.07895361 0 2277.00145430 0 211.28099496 0 758.02132218 0 32608
0.17250000 0.17250900 8044.19899329 0 -46.96924477 0 2313.80586200 0 319.54618703 0 707.13513178 0 32361
0.17350000 0.17350400 8039.52647222 0 11.36042671 0 1864.11446182 0 315.86796073 0 797.10109262 0 32508
0.17450000 0.17449800 8105.51752814 0 -6.73470835 0 1795.17816750 0 115.13446239 0 559.24651810 0 32791
0.17550000 0.17549800 8007.59388744 0 3.78015813 0 1678.17691114 0 164.61557478 0 636.48262711 0 33633
0.17650000 0.17650100 8021.36785952 0 120.77027573 0 1692.83666920 0 31.79462361 0 546.36054648 0 33984
0.17750000 0.17750300 7879.16599187 0 158.50365148 0 1694.43108397 0 -49.03844084 0 612.75795672 0 34069
0.17850000 0.17849800 7831.57713980 0 88.93723115 0 1716.84146940 0 -137.97777573 0 468.67600832 0 34536
