### header ###
fiducial parameters:
Omega_m = 0.31
Omega_nu = 0
Omega_de = 0.69
Omega_k = 0
H_0 = 100
w_de = -1
zeff = 0
beta = 0
fgrowth = 0
b_1 = 2
gamma = 0.55
Lx = 3500 Ly = 3500 Lz = 3500
nx = 700 ny = 700 nz = 700
xoffset = -685.467585 yoffset = -31.7331281 zoffset = 572.489161
bins = 400 dk = 0.001
kx_ny = 0.628318531 ky_ny = 0.628318531 kz_ny = 0.628318531
############################
A(data) = 8.00164529 (not used)
A(ran) = 8.00127653 (used)
Ngal = 475726
weighted Ngal = 0
Nran = 23820508
weighted Nran = 0
SN(data) = 3487.92067
SN(ran) = 69.6940204
SN(data+ran) = 3557.61469
############################
13 columns: k_central k_mean P_0(k) sigma^{lin}_{P_0(k)} P^img_1(k) sigma^{lin}_{P_1(k)} P_2(k) sigma^{lin}_{P_2(k)} P^img_3(k) sigma^{lin}_{P_3(k)} P_4(k) sigma^{lin}_{P_4(k)} N_modes
### header ###
0.00050000 0 0 0 0 0 0 0 0 0 0 0 0
0.00150000 0.00179520 35287.05630403 0 -52103.26034560 0 -421.66845330 0 -82927.61613148 0 19288.54345032 0 3
0.00250000 0.00253879 60842.31415521 0 -54466.42663164 0 -35424.68530153 0 -13585.07821299 0 -38766.09148530 0 6
0.00350000 0.00331552 79112.64661521 0 -35125.28963843 0 -40503.89286559 0 17054.14830192 0 72603.55902408 0 7
0.00450000 0.00420575 87911.15880910 0 -20051.09446058 0 -47857.46667064 0 -38560.81058316 0 -22205.65814704 0 24
0.00550000 0.00557378 77053.30492219 0 547.87302605 0 -39000.04970872 0 -42710.82864844 0 -22765.58561312 0 45
0.00650000 0.00659388 76851.01354776 0 -4234.48883132 0 -68223.23660257 0 -48230.93618678 0 -18523.55652860 0 40
0.00750000 0.00754703 69789.41694817 0 -1594.31512296 0 -20060.17376693 0 -73803.35614142 0 -15086.26401190 0 57
0.00850000 0.00846663 84775.47642046 0 -2029.29140346 0 -16803.58159127 0 -76827.65094239 0 2773.69487334 0 75
0.00950000 0.00948925 84399.57099287 0 -2500.86171749 0 7780.02439545 0 -51818.14798152 0 -2056.50717787 0 112
0.01050000 0.01054430 90438.85984195 0 15908.60557618 0 38810.15933808 0 -36671.65052260 0 27849.44355360 0 105
0.01150000 0.01145670 83784.61407244 0 14149.65605549 0 36862.53740248 0 -3853.91088265 0 5448.08206539 0 144
0.01250000 0.01249090 73781.87583128 0 9339.66099708 0 43794.25563194 0 23243.91004529 0 12736.93813188 0 169
0.01350000 0.01339930 72642.20143769 0 -561.87065908 0 21308.91055998 0 39956.25568006 0 -13654.61241285 0 180
0.01450000 0.01448870 74782.70327163 0 -11061.76182077 0 19193.54290338 0 29026.32095858 0 -6236.29872458 0 267
0.01550000 0.01550050 79415.14252926 0 -8014.27049931 0 6562.21260562 0 26606.79653921 0 -8778.01732065 0 238
0.01650000 0.01653350 81875.30238071 0 -1718.42481185 0 -11534.48365658 0 -1570.97466224 0 -8349.10867415 0 315
0.01750000 0.01747870 83741.09983590 0 5462.56466625 0 -15739.42045295 0 -10808.64847542 0 -1108.46150992 0 297
0.01850000 0.01844180 71925.15768244 0 5396.83934613 0 -24696.59906149 0 -1597.08320417 0 10463.21408572 0 388
0.01950000 0.01947590 77738.57110522 0 466.36632136 0 -5888.68308690 0 -5514.52708663 0 12148.44406777 0 399
0.02050000 0.02045430 76185.34537966 0 372.50290218 0 -5081.51060762 0 -3495.03469063 0 1555.87201119 0 462
0.02150000 0.02154770 73947.84998031 0 9662.38604856 0 10232.63292137 0 -6680.69755350 0 16129.94134931 0 571
0.02250000 0.02255340 64368.84960995 0 10733.52275152 0 14566.19691517 0 -6576.51804928 0 21924.08892691 0 510
0.02350000 0.02348930 65224.85104168 0 2423.33329911 0 18148.31544050 0 8684.77727335 0 30480.89227000 0 555
0.02450000 0.02439640 61269.92733971 0 -1721.14860376 0 23628.00899325 0 10306.56283419 0 26112.97085230 0 592
0.02550000 0.02547300 63868.04835840 0 -164.83702127 0 13728.13264965 0 7635.09873589 0 17009.30538640 0 837
0.02650000 0.02652900 61390.39423374 0 3497.47060209 0 14306.88306792 0 444.70553232 0 13042.75574337 0 723
0.02750000 0.02749970 60799.24281167 0 2563.07711064 0 7457.41006721 0 -2267.31317009 0 9978.53413911 0 826
0.02850000 0.02848090 58811.31761373 0 960.26176392 0 18963.01710065 0 -5108.53815250 0 11023.04190088 0 831
0.02950000 0.02946900 58627.62774499 0 1902.63507986 0 19939.81759616 0 -7415.08056942 0 1697.19916518 0 996
0.03050000 0.03053250 59653.92153243 0 999.34596330 0 27272.02181431 0 2099.09133912 0 11373.15988397 0 1041
0.03150000 0.03150510 58751.08416672 0 -1283.47067600 0 27677.93324216 0 746.49613927 0 1962.14882576 0 1036
0.03250000 0.03246190 61893.40995025 0 1424.68710674 0 32735.54977282 0 6704.63591976 0 9706.35425042 0 1059
0.03350000 0.03345080 59580.84418862 0 1656.34228660 0 31402.10969491 0 5052.34610405 0 10485.10407189 0 1302
0.03450000 0.03451200 55190.44595154 0 6689.85436613 0 28878.39469900 0 7647.56617364 0 14883.30829798 0 1339
0.03550000 0.03553350 51995.85879486 0 1124.84855065 0 21799.63599594 0 7651.99510357 0 15521.29565403 0 1365
0.03650000 0.03647120 49943.60338972 0 -22.11896184 0 21410.77594831 0 8163.63616111 0 11403.16588423 0 1308
0.03750000 0.03744890 49369.61407112 0 447.18794754 0 16267.57034680 0 5836.73173885 0 2167.55152347 0 1579
0.03850000 0.03847530 48935.13604524 0 -706.43425361 0 17445.44426101 0 -3866.61083922 0 -441.95848853 0 1662
0.03950000 0.03950240 50005.16551572 0 2126.69464489 0 18674.80448563 0 -8764.79696482 0 -2268.97401881 0 1683
0.04050000 0.04050350 46955.07219792 0 3910.10293111 0 21228.52548180 0 -7887.78026058 0 3146.25645884 0 1822
0.04150000 0.04152450 46186.65285551 0 1346.05145588 0 26293.67119334 0 1494.26559590 0 -665.62277157 0 1887
0.04250000 0.04250150 44985.74850568 0 -439.13615293 0 24421.89468274 0 4354.77856815 0 4002.32432452 0 1920
0.04350000 0.04349210 46062.31064780 0 1485.42988070 0 22953.37224205 0 12129.62111558 0 511.33435415 0 2005
0.04450000 0.04448520 42853.88308510 0 862.56732035 0 16219.18428735 0 9708.31405191 0 5453.29713038 0 2151
0.04550000 0.04548030 41093.60488543 0 1702.05991577 0 12176.78921931 0 5070.50471675 0 2993.22585752 0 2274
0.04650000 0.04648670 40582.39564855 0 1579.30105051 0 10313.17301211 0 1136.96167400 0 6379.91784980 0 2311
0.04750000 0.04749250 36954.99131471 0 933.51213439 0 10903.73760096 0 823.48644267 0 7827.36965637 0 2568
0.04850000 0.04851840 37972.98085854 0 438.96896083 0 11618.52260195 0 -3230.74936953 0 5499.01475956 0 2493
0.04950000 0.04949480 39443.93921070 0 -551.89892335 0 14753.98354409 0 -2841.82288795 0 5823.53352767 0 2644
0.05050000 0.05050630 39729.38374452 0 1539.61783836 0 19697.00151288 0 -2892.99917327 0 6733.96650820 0 2829
0.05150000 0.05149060 38792.22217187 0 1112.72435497 0 21209.70252961 0 -933.79337144 0 10966.82770777 0 2784
0.05250000 0.05249300 39338.41995518 0 -353.90803988 0 22779.20457265 0 1462.29979415 0 8747.85630784 0 3055
0.05350000 0.05348950 39296.56656736 0 128.42125218 0 22357.90261330 0 2328.96387468 0 8260.55222025 0 3009
0.05450000 0.05448610 38981.33747977 0 1440.66447145 0 23695.43945139 0 2833.35255947 0 8363.27017759 0 3336
0.05550000 0.05550870 36922.77084949 0 1750.77814497 0 18747.10676669 0 4134.97077585 0 8935.88652791 0 3349
0.05650000 0.05647670 36083.59935149 0 -122.70793257 0 15394.40681160 0 4516.94383744 0 5838.80226359 0 3324
0.05750000 0.05747970 35004.37985141 0 -648.14289237 0 15643.53412002 0 2203.97947213 0 3753.45167957 0 3639
0.05850000 0.05849280 35557.66392260 0 796.38692767 0 11680.85979068 0 2007.99932284 0 1127.26231746 0 3846
0.05950000 0.05951020 34745.73034365 0 560.96272845 0 10538.53911146 0 -8.83190633 0 1459.70887014 0 3787
0.06050000 0.06049470 34182.14901038 0 1434.33110166 0 8065.16997650 0 239.23640066 0 1210.23831965 0 3930
0.06150000 0.06148310 33069.71253585 0 172.60757883 0 10200.98821704 0 47.36508039 0 -343.33064798 0 4083
0.06250000 0.06249100 32540.78757926 0 824.31908149 0 9456.52938554 0 604.29759332 0 208.62363700 0 4303
0.06350000 0.06350600 31338.11165746 0 1360.24617630 0 10612.02613129 0 -92.62719412 0 -2002.75104087 0 4470
0.06450000 0.06451750 31223.40237234 0 556.21270110 0 10436.95053125 0 258.24426068 0 -889.48303475 0 4479
0.06550000 0.06550280 30116.61278347 0 481.18773536 0 10165.20246323 0 -14.32061275 0 -923.25583991 0 4636
0.06650000 0.06648880 30489.86085311 0 585.39713486 0 10314.36882319 0 -146.71826894 0 -111.43076974 0 4653
0.06750000 0.06749660 29453.26980358 0 775.86658809 0 11386.22522725 0 814.02624834 0 786.00551592 0 5220
0.06850000 0.06852730 29604.96065360 0 53.89786275 0 10664.08820258 0 -118.44619475 0 -502.67579614 0 5029
0.06950000 0.06949320 28901.09296488 0 322.67190433 0 12137.03957321 0 154.22641240 0 -747.87021478 0 5040
0.07050000 0.07048030 29137.81926950 0 676.55447786 0 12251.85958158 0 1231.61897888 0 -673.81407747 0 5475
0.07150000 0.07148790 28678.64995927 0 168.16425488 0 11933.97313603 0 563.36874463 0 862.45548987 0 5509
0.07250000 0.07249820 27880.33533985 0 527.80333008 0 11887.24792530 0 1813.50286507 0 628.71317678 0 5916
0.07350000 0.07351270 28456.31767691 0 204.25449763 0 10803.96488202 0 2037.63993638 0 2200.91243815 0 5721
0.07450000 0.07449140 27834.16374535 0 316.47140243 0 10486.20023205 0 1763.20129342 0 2696.43219076 0 6028
0.07550000 0.07549160 27587.58307164 0 356.89535311 0 9536.41620910 0 657.92972028 0 1835.81359958 0 6183
0.07650000 0.07648840 27176.68909762 0 115.81873207 0 8532.10098643 0 1452.73330551 0 2806.92292013 0 6330
0.07750000 0.07749960 26529.40098872 0 895.05019967 0 7929.43434655 0 552.31413553 0 1628.80541477 0 6583
0.07850000 0.07848650 25950.09695421 0 939.77021238 0 7557.84712563 0 -573.83652052 0 1643.75305328 0 6549
0.07950000 0.07947320 25725.32876039 0 537.21037725 0 8052.50323691 0 -545.56887525 0 343.50891241 0 6828
0.08050000 0.08048110 24246.61978086 0 710.20105852 0 8162.85002605 0 598.41154545 0 1754.27699962 0 7147
0.08150000 0.08149960 24565.72418214 0 453.89334745 0 8485.57507754 0 424.93036019 0 489.67799403 0 7386
0.08250000 0.08250610 23798.07990246 0 530.07204944 0 8168.16474196 0 901.15769404 0 2970.04040935 0 7227
0.08350000 0.08350160 23523.04335397 0 497.92244709 0 8230.90053439 0 1397.33846444 0 1941.77574810 0 7798
0.08450000 0.08449610 23043.05807308 0 261.36776351 0 8442.48158935 0 779.46730812 0 2154.75191598 0 7371
0.08550000 0.08548940 22841.20959163 0 683.08493504 0 7391.87297660 0 882.03357461 0 2657.07007603 0 8256
0.08650000 0.08650700 21563.57403081 0 815.68598983 0 7398.21741872 0 -465.30669988 0 2590.63612712 0 8037
0.08750000 0.08749060 21344.56344590 0 435.08257482 0 6978.35486160 0 -395.86329308 0 2250.43894707 0 8155
0.08850000 0.08849210 20594.30271619 0 426.81929881 0 7681.66893408 0 297.66062980 0 414.19241958 0 8718
0.08950000 0.08949900 20291.03173940 0 1016.23900927 0 7819.12077438 0 -140.56759250 0 988.29356866 0 8571
0.09050000 0.09049190 19940.37121240 0 435.18886914 0 8183.67706903 0 -145.98860273 0 1206.92769453 0 8932
0.09150000 0.09150830 19923.31983218 0 -191.55232660 0 8028.46521973 0 57.37368696 0 2095.09422986 0 9285
0.09250000 0.09250820 19974.47397284 0 -210.05528860 0 8592.66660319 0 489.54844783 0 1618.72959919 0 9204
0.09350000 0.09350330 20315.50157725 0 606.28064670 0 8438.59520333 0 674.83494581 0 2225.80302434 0 9349
0.09450000 0.09448040 19326.07863146 0 454.31409580 0 8011.38062253 0 1204.71322957 0 2772.43262832 0 9564
0.09550000 0.09549270 19101.64260738 0 207.59391079 0 8098.05478121 0 1791.81218075 0 3020.80701865 0 10155
0.09650000 0.09649430 18804.90430224 0 258.52992666 0 6800.14579365 0 1007.00579761 0 1677.63436722 0 9913
0.09750000 0.09749140 18866.46642824 0 471.63010458 0 6728.40820115 0 215.29471270 0 2216.21439105 0 10476
0.09850000 0.09850240 18293.47361887 0 551.83138217 0 6340.83254319 0 -736.46350575 0 2560.56369291 0 10575
0.09950000 0.09950330 17701.43641082 0 539.42705668 0 6556.73180483 0 -817.31362158 0 1428.65099903 0 10882
0.10050000 0.10051200 17350.55443732 0 537.30117031 0 7245.27539600 0 -923.58025903 0 1244.98327493 0 10875
0.10150000 0.10150300 16874.77663986 0 701.85252560 0 7900.96739944 0 -77.49531213 0 1030.11041781 0 11118
0.10250000 0.10250800 16369.43573513 0 115.13778409 0 7541.23863841 0 349.27427194 0 1151.05674350 0 11575
0.10350000 0.10349800 16433.21232609 0 -430.36244275 0 7130.76541273 0 1678.46479158 0 733.25363879 0 11364
0.10450000 0.10450100 16658.97702914 0 -55.66600230 0 6536.51373971 0 1858.54508243 0 -384.34364634 0 12093
0.10550000 0.10551000 16561.54057074 0 151.50483496 0 5427.46539658 0 944.53574098 0 183.80502092 0 12067
0.10650000 0.10649700 16332.12200050 0 -71.82462097 0 4367.77747749 0 230.39957822 0 -475.70029118 0 12054
0.10750000 0.10749900 16469.75099799 0 38.22520842 0 4542.46554615 0 -303.28537080 0 -209.92242070 0 12807
0.10850000 0.10850100 16510.49715332 0 33.80203610 0 4319.21426083 0 -369.75696562 0 -919.63629693 0 12736
0.10950000 0.10950300 15983.89738495 0 588.17628839 0 4401.02766892 0 100.67610992 0 -886.49239982 0 12933
0.11050000 0.11050200 15672.32216455 0 439.47275161 0 4729.94214998 0 -54.29336619 0 -1088.50696613 0 13428
0.11150000 0.11150900 15272.83268510 0 347.94337850 0 4776.72272234 0 46.34775518 0 -829.94935866 0 13453
0.11250000 0.11250000 15105.30841059 0 537.54254699 0 5269.93943138 0 308.79495963 0 -386.21929816 0 13668
0.11350000 0.11349100 14697.40396427 0 316.37618044 0 5299.69076817 0 -480.88878259 0 129.55727270 0 13791
0.11450000 0.11448600 14389.59333431 0 367.20258029 0 5075.16616550 0 277.57211088 0 249.10737823 0 14205
0.11550000 0.11549300 14398.78336391 0 207.71792083 0 5598.03456041 0 -84.42481589 0 723.91413281 0 14776
0.11650000 0.11649800 14249.52842536 0 87.66302801 0 5304.61795272 0 752.36114973 0 781.76481552 0 14553
0.11750000 0.11747300 14094.95877089 0 -34.38421894 0 5254.78141871 0 380.31221287 0 1043.07057401 0 14568
0.11850000 0.11849100 14122.86102943 0 -33.36069323 0 5271.05773619 0 654.53715996 0 26.58210525 0 16015
0.11950000 0.11950300 13984.56769245 0 24.30984276 0 4816.77132121 0 223.00769417 0 570.87910256 0 15270
0.12050000 0.12050700 13918.02302029 0 366.58585179 0 5023.46948092 0 -503.83396132 0 388.56773826 0 15999
0.12150000 0.12150000 13840.07385356 0 496.51958354 0 5133.59482357 0 -258.03942267 0 858.37090924 0 15670
0.12250000 0.12250700 13541.56397645 0 -68.29498527 0 5244.62809685 0 91.45817806 0 651.82001145 0 16887
0.12350000 0.12352200 13485.64873612 0 -131.63886977 0 4958.69638073 0 369.30632200 0 888.97038611 0 16407
0.12450000 0.12449800 13845.38856948 0 185.41272248 0 5034.79646921 0 342.68070251 0 120.18897867 0 16306
0.12550000 0.12549900 13631.24980748 0 -43.73213989 0 4534.01736231 0 409.20987342 0 211.82132441 0 17523
0.12650000 0.12650100 13282.80374544 0 251.34177338 0 4370.87772843 0 163.93573403 0 -73.86203946 0 17154
0.12750000 0.12750600 13385.88708950 0 209.48949280 0 4048.14160462 0 162.27045638 0 -257.30089860 0 18007
0.12850000 0.12850300 13012.08540362 0 277.40159708 0 4299.74911380 0 -447.07722429 0 -1052.27499763 0 17496
0.12950000 0.12949900 12901.14070894 0 396.30729330 0 4206.85230857 0 -305.89068883 0 -957.34420633 0 18405
0.13050000 0.13049000 12331.80176677 0 319.06454090 0 4060.79727189 0 -120.05721801 0 -355.41276882 0 18100
0.13150000 0.13148800 12464.78038784 0 164.64768452 0 4056.02509989 0 324.30617947 0 -1115.91318452 0 19059
0.13250000 0.13249300 12024.65547630 0 -80.03829297 0 4113.03650038 0 883.82839846 0 -647.67785473 0 18957
0.13350000 0.13349100 12357.37883710 0 24.72848736 0 4086.76187359 0 554.85080515 0 -962.37879242 0 19468
0.13450000 0.13450700 12267.02866658 0 277.46028040 0 4127.57446287 0 1.53324018 0 -559.02839330 0 19953
0.13550000 0.13551000 11961.76467133 0 204.21242279 0 4207.64951596 0 -281.04439194 0 -182.82069124 0 19956
0.13650000 0.13649900 11837.09029387 0 263.46818352 0 4198.85809005 0 -409.59740478 0 -107.55600967 0 19723
0.13750000 0.13749600 11837.86535661 0 286.85846970 0 4418.16762773 0 -94.30287976 0 48.03860990 0 20946
0.13850000 0.13851100 11505.80633530 0 196.24809955 0 4099.26252831 0 70.06533928 0 -391.92708161 0 20955
0.13950000 0.13949800 11461.40631277 0 112.51253588 0 4486.06312352 0 -161.19865534 0 -396.90519884 0 20506
0.14050000 0.14048300 11513.99985566 0 -74.78680003 0 4209.72004070 0 257.28318288 0 -913.91965562 0 21447
0.14150000 0.14148400 11432.61826825 0 104.92212504 0 4503.20308234 0 -27.36901538 0 -688.37750630 0 21771
0.14250000 0.14249400 11276.16631856 0 389.68050690 0 4293.53753958 0 -202.85495577 0 -787.93210044 0 22470
0.14350000 0.14350900 11164.33583789 0 175.09885191 0 4507.35520415 0 -109.79571954 0 -830.66130915 0 22519
0.14450000 0.14449900 10894.62507763 0 194.37909112 0 4726.26613814 0 180.54975742 0 -450.55836322 0 22218
0.14550000 0.14550500 10688.10407511 0 364.67366130 0 4429.82678577 0 473.97854467 0 -638.19883745 0 23559
0.14650000 0.14650700 10290.49689088 0 254.41323629 0 4156.84968969 0 533.56979685 0 -410.76110612 0 23044
0.14750000 0.14750500 10256.85916808 0 6.11109288 0 4016.89550398 0 757.55849900 0 -560.40357605 0 23649
0.14850000 0.14849900 10121.83216691 0 50.44019716 0 3399.55803372 0 607.24947512 0 -134.78451725 0 23640
0.14950000 0.14949500 10047.81367550 0 144.87472686 0 3395.77129863 0 262.83927547 0 -107.44860812 0 24457
0.15050000 0.15050000 9931.67606048 0 90.67492181 0 3169.28689447 0 111.45402162 0 212.63181858 0 24591
0.15150000 0.15149900 9797.16945858 0 183.38095088 0 3152.03621240 0 372.93804454 0 126.29868751 0 25020
0.15250000 0.15250500 9754.97282870 0 123.93031723 0 2973.62784259 0 194.82087688 0 516.92034202 0 25297
0.15350000 0.15350100 9655.56549648 0 -52.80458140 0 2799.44910087 0 412.55592998 0 651.14349240 0 25452
0.15450000 0.15450400 9677.03473430 0 -35.48181850 0 2708.50102481 0 -33.08200282 0 547.07914036 0 26061
0.15550000 0.15549900 9715.62178629 0 160.55646050 0 2953.34334353 0 34.06965419 0 537.41853696 0 26128
0.15650000 0.15649500 9490.62107365 0 327.48615116 0 2809.73529063 0 -54.48292440 0 721.61441094 0 26331
0.15750000 0.15749700 9277.41238695 0 240.27166303 0 2914.78950851 0 -127.84992022 0 790.69132379 0 27345
0.15850000 0.15849900 9157.21122871 0 39.56639912 0 2931.67480386 0 -81.27363225 0 579.12466285 0 26980
0.15950000 0.15949700 9285.67234126 0 -123.20950888 0 3009.40252408 0 247.32473394 0 588.53946064 0 27777
0.16050000 0.16050000 9249.32189888 0 70.71628126 0 2961.41506832 0 243.29440771 0 386.39202643 0 28224
0.16150000 0.16150500 9292.39324242 0 67.05399910 0 2847.59156918 0 120.78909868 0 613.29828617 0 28075
0.16250000 0.16249700 9168.50500003 0 198.45370665 0 2878.77123587 0 93.43181996 0 549.62466784 0 28590
0.16350000 0.16349900 8939.82827555 0 216.46395020 0 2892.93273932 0 95.78059223 0 857.98559234 0 29163
0.16450000 0.16449100 8898.67244420 0 184.75834809 0 2946.12418775 0 232.21543949 0 740.85257531 0 28996
0.16550000 0.16550500 8699.14915097 0 56.29568541 0 2801.26496214 0 196.72531675 0 873.46470243 0 30777
0.16650000 0.16650700 8684.99871985 0 148.71682357 0 2966.27581892 0 14.01025549 0 711.80433115 0 29211
0.16750000 0.16749900 8609.40795831 0 182.79743936 0 2864.26649036 0 -129.44212052 0 915.91045963 0 30922
0.16850000 0.16850800 8341.95595232 0 283.53345056 0 3148.18304336 0 -150.10750757 0 789.94504909 0 30867
0.16950000 0.16949900 8263.08778263 0 34.13287716 0 2968.47921155 0 86.80204403 0 684.73692590 0 30852
0.17050000 0.17049200 8317.70756096 0 -108.95045826 0 3142.24827726 0 136.37671756 0 703.17566842 0 31257
0.17150000 0.17149500 8437.45475388 0 -115.50759974 0 2798.36401304 0 256.69967136 0 543.81612624 0 32608
0.17250000 0.17250900 8489.53896982 0 -7.56688214 0 2798.67403814 0 260.39118446 0 284.53771042 0 32361
0.17350000 0.17350400 8410.41613667 0 231.02073564 0 2314.81344356 0 -73.05276324 0 126.96634870 0 32508
0.17450000 0.17449800 8239.79161122 0 169.20726788 0 2395.54176381 0 -257.22671402 0 192.72820749 0 32791
0.17550000 0.17549800 8160.40304227 0 128.31163616 0 2458.96404037 0 -2.10769454 0 -4.50984648 0 33633
0.17650000 0.17650100 8072.27840903 0 37.80689599 0 2541.26463075 0 1.72840098 0 -61.28299268 0 33984
0.17750000 0.17750300 8063.86344217 0 53.40160115 0 2322.08796097 0 209.58692926 0 -348.92549371 0 34069
0.17850000 0.17849800 7997.83916928 0 126.68400441 0 2418.39504224 0 -34.83054435 0 -124.39424764 0 34536
