### header ###
fiducial parameters:
Omega_m = 0.31
Omega_nu = 0
Omega_de = 0.69
Omega_k = 0
H_0 = 100
w_de = -1
zeff = 0
beta = 0
fgrowth = 0
b_1 = 2
gamma = 0.55
Lx = 3500 Ly = 3500 Lz = 3500
nx = 700 ny = 700 nz = 700
xoffset = -685.467585 yoffset = -31.7331281 zoffset = 572.489161
bins = 400 dk = 0.001
kx_ny = 0.628318531 ky_ny = 0.628318531 kz_ny = 0.628318531
############################
A(data) = 8.01316664 (not used)
A(ran) = 8.00919691 (used)
Ngal = 475842
weighted Ngal = 0
Nran = 23820508
weighted Nran = 0
SN(data) = 3486.80892
SN(ran) = 69.7630098
SN(data+ran) = 3556.57193
############################
13 columns: k_central k_mean P_0(k) sigma^{lin}_{P_0(k)} P^img_1(k) sigma^{lin}_{P_1(k)} P_2(k) sigma^{lin}_{P_2(k)} P^img_3(k) sigma^{lin}_{P_3(k)} P_4(k) sigma^{lin}_{P_4(k)} N_modes
### header ###
0.00050000 0 0 0 0 0 0 0 0 0 0 0 0
0.00150000 0.00179520 45170.65633015 0 -51818.81232101 0 -6889.51052726 0 50322.94123801 0 -105506.19017841 0 3
0.00250000 0.00253879 61337.13635136 0 -26632.37360954 0 20554.22090034 0 -13126.68396550 0 42086.01735892 0 6
0.00350000 0.00331552 71782.10324578 0 10721.52035142 0 32889.78725755 0 -82611.05836491 0 20137.45859417 0 7
0.00450000 0.00420575 65873.57855281 0 24841.97868636 0 17002.44054502 0 -28545.78206145 0 45252.70225706 0 24
0.00550000 0.00557378 56124.28582674 0 -2572.59930999 0 32810.17724210 0 -6287.23141875 0 22658.40550888 0 45
0.00650000 0.00659388 61752.01636231 0 -11540.46271198 0 27357.83233166 0 19379.55796033 0 10626.66374470 0 40
0.00750000 0.00754703 77185.39775728 0 -1018.22316988 0 49719.05664240 0 45276.72920191 0 1746.61495084 0 57
0.00850000 0.00846663 76482.08368480 0 -10265.67273863 0 4281.66800737 0 24695.49182901 0 -5546.82505812 0 75
0.00950000 0.00948925 79849.62055514 0 -5001.90059217 0 5613.54688748 0 21154.34090551 0 6370.29599954 0 112
0.01050000 0.01054430 79846.29885770 0 -7010.64176077 0 -17137.30146131 0 2596.40480835 0 -6820.16455692 0 105
0.01150000 0.01145670 82499.33860749 0 -1293.02609232 0 -7733.74207770 0 -13997.85448223 0 -15762.45088858 0 144
0.01250000 0.01249090 82927.39468498 0 4442.12813864 0 -8593.33094267 0 -14490.35149016 0 -4359.34036597 0 169
0.01350000 0.01339930 87305.28119503 0 1162.53874433 0 -14277.87357689 0 -12870.35964595 0 -20406.73753376 0 180
0.01450000 0.01448870 81051.85358395 0 -955.86605097 0 9489.36990095 0 -17527.60091117 0 -14831.04692483 0 267
0.01550000 0.01550050 85615.97659745 0 -6187.99017140 0 12775.69126875 0 -14028.41409873 0 -6211.12025794 0 238
0.01650000 0.01653350 85002.01618625 0 643.31425152 0 29759.19813832 0 -5945.51733019 0 -16821.62948073 0 315
0.01750000 0.01747870 94662.17669753 0 1239.73499297 0 23296.50358818 0 2638.15854524 0 -16090.08097996 0 297
0.01850000 0.01844180 83314.04026765 0 1491.19856193 0 29213.44324801 0 4008.29230760 0 -18379.61630596 0 388
0.01950000 0.01947590 90995.57633383 0 971.27429818 0 24784.40259731 0 -3679.25603096 0 -7256.72417987 0 399
0.02050000 0.02045430 91480.43343764 0 625.37708531 0 15930.75022582 0 -857.21052960 0 -15846.60055720 0 462
0.02150000 0.02154770 84516.93763595 0 3210.34307489 0 12102.49391977 0 -2564.37257265 0 -9202.93993021 0 571
0.02250000 0.02255340 87016.95785675 0 -868.47772734 0 2147.20059046 0 2624.67245361 0 -33509.28383115 0 510
0.02350000 0.02348930 84251.53401004 0 2633.40851789 0 7033.90471522 0 -3951.81237870 0 -33598.08387620 0 555
0.02450000 0.02439640 78150.01869548 0 8376.18050833 0 10279.24740886 0 1307.76335666 0 -31784.54779415 0 592
0.02550000 0.02547300 69876.77759099 0 10332.50529124 0 8231.58701852 0 -3033.08622687 0 -24538.48626308 0 837
0.02650000 0.02652900 57872.05229936 0 9896.92003287 0 10953.83987076 0 1627.06705978 0 -8836.94423333 0 723
0.02750000 0.02749970 53678.18782780 0 5696.97685499 0 15173.84610122 0 -386.69651536 0 -2956.95292142 0 826
0.02850000 0.02848090 52005.60244070 0 -401.09718102 0 16699.16956823 0 4512.74742634 0 10517.74528545 0 831
0.02950000 0.02946900 53358.75125679 0 -2541.96218722 0 20013.33783295 0 7375.78488864 0 8357.10289267 0 996
0.03050000 0.03053250 58499.41022359 0 -1615.78436079 0 22420.12907878 0 -758.56386609 0 14198.37428469 0 1041
0.03150000 0.03150510 57708.29261530 0 1382.15830711 0 26857.36324985 0 -3278.59288507 0 14630.41639912 0 1036
0.03250000 0.03246190 57339.36275234 0 -145.90777476 0 22431.53357334 0 2492.22530413 0 12809.90475244 0 1059
0.03350000 0.03345080 57713.71805446 0 74.05768744 0 29585.91625491 0 3101.52426658 0 8456.16698282 0 1302
0.03450000 0.03451200 56908.76004014 0 4772.64810680 0 26017.19524261 0 1979.07841041 0 -2771.21467259 0 1339
0.03550000 0.03553350 54274.76468903 0 2959.74314727 0 25666.20254586 0 -889.15972286 0 5993.78159408 0 1365
0.03650000 0.03647120 50004.94406922 0 1310.07747254 0 18972.42857675 0 -651.30957727 0 2021.75115026 0 1308
0.03750000 0.03744890 50789.19683612 0 -545.07504957 0 18849.63649451 0 5692.17146602 0 -1996.58375595 0 1579
0.03850000 0.03847530 51174.40301656 0 -670.52891869 0 22664.82745727 0 2711.57913111 0 -7942.16752009 0 1662
0.03950000 0.03950240 51283.02252304 0 -212.09370360 0 17537.34455701 0 1902.61293521 0 -5231.14200522 0 1683
0.04050000 0.04050350 50758.52649638 0 2535.48487720 0 20230.24467615 0 209.52824594 0 -2276.74679083 0 1822
0.04150000 0.04152450 47962.43230992 0 3698.67688869 0 16745.34116273 0 754.46599868 0 -3132.26104027 0 1887
0.04250000 0.04250150 45728.70150101 0 732.99233192 0 19121.79423855 0 3649.33860930 0 1136.47449171 0 1920
0.04350000 0.04349210 45226.23940074 0 1044.47565203 0 15346.13147540 0 6478.97086763 0 2493.47647683 0 2005
0.04450000 0.04448520 43298.32620332 0 990.14929030 0 14006.38017234 0 3838.59785743 0 -899.33740384 0 2151
0.04550000 0.04548030 42658.67799854 0 1602.25397986 0 12612.37447767 0 1922.54311989 0 467.86883584 0 2274
0.04650000 0.04648670 40172.60890701 0 2441.40333321 0 13778.95462056 0 -388.64303006 0 166.03726128 0 2311
0.04750000 0.04749250 38611.63255408 0 1237.53160033 0 9547.45531695 0 -190.00220112 0 -225.74698733 0 2568
0.04850000 0.04851840 38294.63189452 0 394.45378613 0 14415.83474413 0 -1142.78571686 0 -3616.45380459 0 2493
0.04950000 0.04949480 37983.49956712 0 2522.57454646 0 13006.10634822 0 -3469.63477750 0 -3895.01135238 0 2644
0.05050000 0.05050630 36019.04769779 0 2089.75736930 0 16531.20240074 0 807.70616534 0 -387.76942364 0 2829
0.05150000 0.05149060 34674.09240207 0 590.47490302 0 15729.01246762 0 1845.16971405 0 986.68918880 0 2784
0.05250000 0.05249300 35072.91754204 0 512.92987615 0 16038.59466955 0 5932.64021643 0 33.31717900 0 3055
0.05350000 0.05348950 33665.29288785 0 708.20250389 0 13980.36020902 0 5407.18089751 0 1296.97891228 0 3009
0.05450000 0.05448610 33205.56996138 0 364.85967635 0 13000.45946257 0 3051.63237094 0 1066.47857590 0 3336
0.05550000 0.05550870 32432.72168903 0 -246.29168603 0 9697.92821123 0 1672.82897825 0 3186.88081860 0 3349
0.05650000 0.05647670 32782.49643006 0 -429.04040717 0 10238.00299891 0 1506.81053992 0 2938.22962015 0 3324
0.05750000 0.05747970 32859.67053404 0 -328.39740349 0 7286.61945688 0 1211.02445471 0 2907.69214830 0 3639
0.05850000 0.05849280 32770.09542626 0 46.34144396 0 6414.27527372 0 405.11864939 0 -1350.66861533 0 3846
0.05950000 0.05951020 32700.22905665 0 1257.88253335 0 5277.75649271 0 214.44325093 0 -1301.36355291 0 3787
0.06050000 0.06049470 32132.10807021 0 346.02011568 0 5354.01159373 0 -1165.31789786 0 -1989.04350275 0 3930
0.06150000 0.06148310 31537.19205770 0 191.65197752 0 4870.19528846 0 -356.66947769 0 -2540.68886986 0 4083
0.06250000 0.06249100 32192.67368697 0 626.27172916 0 6635.37852802 0 -1568.76019728 0 -2845.06707913 0 4303
0.06350000 0.06350600 31341.32263166 0 97.74172240 0 6234.42750169 0 384.17756147 0 -2487.79637420 0 4470
0.06450000 0.06451750 31503.20002051 0 629.16160594 0 8405.71039862 0 -1082.04847906 0 -1868.05620945 0 4479
0.06550000 0.06550280 31474.30125273 0 561.12327716 0 8602.01164533 0 -514.20208628 0 -2370.89476877 0 4636
0.06650000 0.06648880 31531.54517204 0 -354.92337206 0 8721.83634452 0 967.00038080 0 -817.22282852 0 4653
0.06750000 0.06749660 30745.07794018 0 -71.10514131 0 9464.01427711 0 987.09000695 0 -1552.80497722 0 5220
0.06850000 0.06852730 31708.81309239 0 278.14012114 0 8917.90507241 0 448.47012276 0 -2920.77963624 0 5029
0.06950000 0.06949320 30515.32720019 0 1218.43184002 0 9487.96371570 0 1349.24028543 0 -2202.04181528 0 5040
0.07050000 0.07048030 29829.39667767 0 1253.17679530 0 8409.75179718 0 -2280.46709197 0 -1084.79441562 0 5475
0.07150000 0.07148790 28913.16179893 0 1070.07597424 0 10795.66063840 0 -808.83886416 0 1224.32231682 0 5509
0.07250000 0.07249820 27827.96324346 0 1229.00591022 0 10338.99367358 0 303.82902195 0 -552.38610564 0 5916
0.07350000 0.07351270 27166.94545178 0 646.69795399 0 10466.29219202 0 51.29132677 0 211.86450647 0 5721
0.07450000 0.07449140 26097.35887430 0 663.76262100 0 10521.32164637 0 526.36503509 0 1260.11914296 0 6028
0.07550000 0.07549160 26130.46512551 0 -108.80784672 0 10755.56775023 0 2027.67484404 0 -1077.84431733 0 6183
0.07650000 0.07648840 25959.28698381 0 173.10361898 0 9756.31258000 0 1967.44139703 0 457.09214209 0 6330
0.07750000 0.07749960 25738.94771992 0 288.59461024 0 7880.86005757 0 2268.37611327 0 -1498.52844096 0 6583
0.07850000 0.07848650 25107.82520526 0 212.87983866 0 7059.90253389 0 613.39240093 0 -1906.25573008 0 6549
0.07950000 0.07947320 24687.29830865 0 751.53515430 0 6849.39549444 0 247.61704331 0 -1259.79804554 0 6828
0.08050000 0.08048110 24513.90570199 0 639.37471835 0 6189.79496034 0 -1014.41761184 0 -1593.20789048 0 7147
0.08150000 0.08149960 23598.33516273 0 291.06484590 0 6642.14371848 0 -559.63847840 0 -2158.99261639 0 7386
0.08250000 0.08250610 23740.83598315 0 366.53381187 0 6281.40737589 0 -15.65084185 0 -2075.56264888 0 7227
0.08350000 0.08350160 23744.93274333 0 270.39281547 0 6596.90219927 0 -299.46763321 0 -2193.18395543 0 7798
0.08450000 0.08449610 23124.32893725 0 594.41554342 0 7612.65513349 0 626.24404835 0 -1067.15398772 0 7371
0.08550000 0.08548940 22662.05937607 0 394.39842451 0 7344.00731641 0 576.22924991 0 -1604.71203597 0 8256
0.08650000 0.08650700 22380.26870943 0 923.99768567 0 6606.04793957 0 390.26844735 0 -735.55778958 0 8037
0.08750000 0.08749060 21392.28516587 0 615.31455652 0 6483.97555845 0 860.21666579 0 -362.02294674 0 8155
0.08850000 0.08849210 20907.98167830 0 51.32100060 0 6321.44490244 0 823.36907602 0 -533.92300401 0 8718
0.08950000 0.08949900 20819.18163325 0 54.99047977 0 5792.80782629 0 1601.70036362 0 -128.42235941 0 8571
0.09050000 0.09049190 20586.55208881 0 493.56216558 0 5342.65138847 0 634.04117949 0 -522.08004538 0 8932
0.09150000 0.09150830 20142.55186359 0 462.22859358 0 5127.48290027 0 167.18213967 0 -217.79373642 0 9285
0.09250000 0.09250820 19903.38964750 0 379.34670615 0 5334.54644670 0 270.65855126 0 1129.02281711 0 9204
0.09350000 0.09350330 19671.75661230 0 409.99711571 0 5687.89754864 0 -600.83084842 0 575.24934916 0 9349
0.09450000 0.09448040 18967.66747708 0 615.01338928 0 5919.82953661 0 -303.97517664 0 719.00355675 0 9564
0.09550000 0.09549270 19115.15084366 0 524.89463035 0 6362.62287844 0 -380.72410335 0 360.22037225 0 10155
0.09650000 0.09649430 18458.67270517 0 223.07080642 0 6257.73474543 0 -217.85241974 0 369.49233706 0 9913
0.09750000 0.09749140 18479.37795258 0 349.38278072 0 6827.09583225 0 -501.97048905 0 95.78070295 0 10476
0.09850000 0.09850240 18075.45954319 0 632.52316375 0 6534.89718029 0 865.05195004 0 -561.01698284 0 10575
0.09950000 0.09950330 17264.07958048 0 357.25188197 0 5826.75557419 0 204.69185446 0 68.84007582 0 10882
0.10050000 0.10051200 17225.43716686 0 -44.15532414 0 6025.45951538 0 1020.85063256 0 -701.82484479 0 10875
0.10150000 0.10150300 17088.36178561 0 199.41589168 0 5831.14021482 0 458.77402823 0 -245.86872323 0 11118
0.10250000 0.10250800 16956.60112027 0 164.27897610 0 5379.58866406 0 416.93503444 0 56.81309515 0 11575
0.10350000 0.10349800 17122.90743904 0 207.01150651 0 5686.04847039 0 -620.04686815 0 543.06985154 0 11364
0.10450000 0.10450100 16730.72569397 0 372.24491701 0 5722.80858879 0 -418.61138442 0 923.68766058 0 12093
0.10550000 0.10551000 16473.73703493 0 502.27387075 0 6035.13672728 0 97.52990883 0 992.16556065 0 12067
0.10650000 0.10649700 16045.01661795 0 36.42894516 0 6145.17349132 0 450.42992425 0 971.94749553 0 12054
0.10750000 0.10749900 16239.77881151 0 1.67566349 0 6206.17092875 0 534.61723878 0 115.45998874 0 12807
0.10850000 0.10850100 16013.68193871 0 362.41158534 0 6339.48171957 0 590.53580081 0 -267.86721818 0 12736
0.10950000 0.10950300 15680.51568492 0 524.17160754 0 5939.32790062 0 -269.50038609 0 362.52673751 0 12933
0.11050000 0.11050200 15222.56433042 0 622.63336322 0 5820.71008484 0 -390.87853245 0 465.94446579 0 13428
0.11150000 0.11150900 15138.30393855 0 281.02003283 0 6347.05518974 0 -365.61148721 0 629.47716719 0 13453
0.11250000 0.11250000 14670.27676847 0 115.09128033 0 5466.90501758 0 1018.41250663 0 490.62689227 0 13668
0.11350000 0.11349100 14749.33316767 0 -86.31043281 0 6017.98569613 0 281.61350944 0 -567.50315072 0 13791
0.11450000 0.11448600 14839.01899870 0 -26.21815794 0 5852.80875449 0 578.31970484 0 -27.93470045 0 14205
0.11550000 0.11549300 14719.21644416 0 367.82484494 0 5774.23953757 0 34.50756464 0 -241.10540909 0 14776
0.11650000 0.11649800 14326.14891310 0 312.33256741 0 5710.44080197 0 -44.68568850 0 1546.58233067 0 14553
0.11750000 0.11747300 14246.31745116 0 157.18715206 0 5542.06395845 0 936.39204608 0 737.64492281 0 14568
0.11850000 0.11849100 14144.23061633 0 -0.82732743 0 5403.32772847 0 426.37529858 0 743.51325497 0 16015
0.11950000 0.11950300 14003.61209113 0 493.63081399 0 5369.21389571 0 173.92518548 0 263.11940529 0 15270
0.12050000 0.12050700 13662.58448672 0 331.31496108 0 4710.16697785 0 -27.85320814 0 815.89857847 0 15999
0.12150000 0.12150000 13341.81923672 0 11.37338133 0 4704.67510474 0 147.14566068 0 892.25554488 0 15670
0.12250000 0.12250700 13421.42925217 0 -255.77291778 0 4060.80834421 0 580.71243423 0 78.77261552 0 16887
0.12350000 0.12352200 13588.39991044 0 -129.28710798 0 4156.11891625 0 911.16929014 0 -601.11429994 0 16407
0.12450000 0.12449800 13397.07013757 0 173.12133470 0 3471.89353176 0 354.52476837 0 -986.29058510 0 16306
0.12550000 0.12549900 13423.53299389 0 251.22994290 0 3400.88671270 0 -263.29102633 0 -521.11343143 0 17523
0.12650000 0.12650100 13198.43263032 0 313.24381975 0 3780.65638165 0 -348.89670566 0 -426.66096456 0 17154
0.12750000 0.12750600 13039.43404593 0 366.39208611 0 3956.31881490 0 -206.25637395 0 -20.47328221 0 18007
0.12850000 0.12850300 12778.68079645 0 194.26061725 0 4417.09361223 0 -289.57783268 0 300.45196288 0 17496
0.12950000 0.12949900 12524.34949536 0 202.02896034 0 4309.73635079 0 464.92691913 0 307.65672464 0 18405
0.13050000 0.13049000 12448.06117736 0 103.97134451 0 4266.28854820 0 553.02165709 0 432.77510233 0 18100
0.13150000 0.13148800 12318.51497698 0 108.76189657 0 4031.94279341 0 795.39595460 0 -64.39431596 0 19059
0.13250000 0.13249300 12244.66257044 0 158.22684336 0 3499.54112683 0 182.69003781 0 11.43682575 0 18957
0.13350000 0.13349100 11981.58413275 0 177.23027444 0 3451.23257365 0 -27.83925701 0 -91.11371804 0 19468
0.13450000 0.13450700 11984.24149071 0 146.60533123 0 3388.10924986 0 -194.37576942 0 368.79920952 0 19953
0.13550000 0.13551000 12021.00160911 0 -54.42346601 0 3392.32780561 0 67.88021598 0 234.33689693 0 19956
0.13650000 0.13649900 12085.99615579 0 -32.06678135 0 3234.30358580 0 589.66551608 0 575.24270577 0 19723
0.13750000 0.13749600 11906.73521698 0 122.18864054 0 3454.27746297 0 679.74330741 0 767.42061872 0 20946
0.13850000 0.13851100 11852.81299511 0 234.30921611 0 2921.10073366 0 633.61378775 0 375.43042486 0 20955
0.13950000 0.13949800 11503.37042384 0 354.02208482 0 3108.92057955 0 447.32192267 0 733.48394315 0 20506
0.14050000 0.14048300 11077.30736481 0 319.03686009 0 2978.51073784 0 45.81174394 0 641.25258464 0 21447
0.14150000 0.14148400 10823.86184972 0 297.19116322 0 3034.01630216 0 -133.08270093 0 972.00064269 0 21771
0.14250000 0.14249400 10604.30872089 0 181.90500998 0 2631.91375404 0 276.06738194 0 1241.03045497 0 22470
0.14350000 0.14350900 10630.87122813 0 -103.01746373 0 2621.53898569 0 399.04990816 0 1099.94246320 0 22519
0.14450000 0.14449900 10640.27163190 0 14.10470242 0 2160.35451234 0 414.82243487 0 747.12836902 0 22218
0.14550000 0.14550500 10571.06960178 0 228.51949747 0 2256.87196778 0 211.97633696 0 577.38852232 0 23559
0.14650000 0.14650700 10472.91344226 0 119.21904302 0 2139.99250700 0 -109.31628787 0 1138.70002900 0 23044
0.14750000 0.14750500 10359.42211287 0 209.98442572 0 2270.40234871 0 -180.31613137 0 1115.85782290 0 23649
0.14850000 0.14849900 10210.03430642 0 220.69689998 0 2246.18717433 0 -53.25865744 0 1487.51147776 0 23640
0.14950000 0.14949500 10198.77375208 0 57.80351461 0 2361.61616057 0 71.82694616 0 1656.08762312 0 24457
0.15050000 0.15050000 10101.41479995 0 -48.62721469 0 2365.66863145 0 227.09448926 0 1337.78042924 0 24591
0.15150000 0.15149900 10200.70033660 0 129.97802105 0 2614.51913175 0 167.07252365 0 798.72540268 0 25020
0.15250000 0.15250500 9945.15107978 0 264.98952095 0 2382.58714378 0 -182.86830224 0 1207.52560007 0 25297
0.15350000 0.15350100 9729.37361372 0 317.63731823 0 2553.69885152 0 -288.13289429 0 950.58233756 0 25452
0.15450000 0.15450400 9539.18429031 0 204.14377438 0 2836.78498016 0 -451.55930138 0 763.52426761 0 26061
0.15550000 0.15549900 9437.41855290 0 204.02087157 0 2951.38354203 0 -171.21357314 0 693.07438649 0 26128
0.15650000 0.15649500 9281.34306226 0 137.73418458 0 2870.87666828 0 -54.09550375 0 458.08754409 0 26331
0.15750000 0.15749700 9172.19208419 0 40.59291436 0 2637.42777180 0 -11.39951202 0 417.25502463 0 27345
0.15850000 0.15849900 9275.72939357 0 6.47302503 0 2705.35648456 0 372.08658276 0 5.98339575 0 26980
0.15950000 0.15949700 9133.94827427 0 -14.90334921 0 2316.08676091 0 253.53630816 0 269.69747347 0 27777
0.16050000 0.16050000 9214.58801592 0 25.07394389 0 2254.14817588 0 408.50678079 0 -100.67234533 0 28224
0.16150000 0.16150500 9187.66012197 0 14.21664362 0 1996.86056407 0 207.66698814 0 54.48602465 0 28075
0.16250000 0.16249700 9102.35893156 0 185.14034329 0 1976.56499268 0 57.43115233 0 129.39229506 0 28590
0.16350000 0.16349900 8914.09619267 0 217.20136704 0 1907.85014485 0 -139.83349737 0 160.02055998 0 29163
0.16450000 0.16449100 8798.58970016 0 209.13296394 0 2060.30498528 0 -139.23448459 0 38.66400465 0 28996
0.16550000 0.16550500 8686.80350879 0 203.74406345 0 2262.18668370 0 -219.99602182 0 294.53491250 0 30777
0.16650000 0.16650700 8438.20767197 0 257.81465447 0 2401.91942291 0 95.45894119 0 168.15871872 0 29211
0.16750000 0.16749900 8436.10393025 0 71.38659980 0 2317.42651222 0 110.59658079 0 453.29654915 0 30922
0.16850000 0.16850800 8274.06045653 0 25.84723506 0 2276.18210227 0 463.92376651 0 253.21742521 0 30867
0.16950000 0.16949900 8388.70330770 0 9.27251842 0 2366.89765951 0 106.58463462 0 288.95556802 0 30852
0.17050000 0.17049200 8379.11467441 0 16.03671237 0 2202.15253853 0 -76.32552101 0 338.09565280 0 31257
0.17150000 0.17149500 8333.75135963 0 108.52273435 0 2223.69928263 0 98.52431432 0 707.78950617 0 32608
0.17250000 0.17250900 8201.07169132 0 148.78436475 0 2186.95023655 0 1.85762608 0 599.59517697 0 32361
0.17350000 0.17350400 8220.44825976 0 107.82063824 0 2487.69672328 0 39.98936193 0 586.49661671 0 32508
0.17450000 0.17449800 8102.90445948 0 95.34677854 0 2189.27542477 0 247.23947704 0 501.26628919 0 32791
0.17550000 0.17549800 7964.91007527 0 101.29616011 0 2213.92241981 0 35.59663851 0 745.82183469 0 33633
0.17650000 0.17650100 8013.84975097 0 62.60104223 0 2176.53117890 0 57.13308534 0 410.89175956 0 33984
0.17750000 0.17750300 7906.83573159 0 57.98631869 0 2085.91527258 0 -78.29251952 0 305.81096810 0 34069
0.17850000 0.17849800 7849.86862040 0 159.23663938 0 2313.32975203 0 -347.37647547 0 -69.82828081 0 34536
