### header ###
fiducial parameters:
Omega_m = 0.31
Omega_nu = 0
Omega_de = 0.69
Omega_k = 0
H_0 = 100
w_de = -1
zeff = 0
beta = 0
fgrowth = 0
b_1 = 2
gamma = 0.55
Lx = 3500 Ly = 3500 Lz = 3500
nx = 700 ny = 700 nz = 700
xoffset = -685.467585 yoffset = -31.7331281 zoffset = 572.489161
bins = 400 dk = 0.001
kx_ny = 0.628318531 ky_ny = 0.628318531 kz_ny = 0.628318531
############################
A(data) = 7.99091938 (not used)
A(ran) = 7.98412171 (used)
Ngal = 474550
weighted Ngal = 0
Nran = 23820508
weighted Nran = 0
SN(data) = 3492.22052
SN(ran) = 69.5445956
SN(data+ran) = 3561.76511
############################
13 columns: k_central k_mean P_0(k) sigma^{lin}_{P_0(k)} P^img_1(k) sigma^{lin}_{P_1(k)} P_2(k) sigma^{lin}_{P_2(k)} P^img_3(k) sigma^{lin}_{P_3(k)} P_4(k) sigma^{lin}_{P_4(k)} N_modes
### header ###
0.00050000 0 0 0 0 0 0 0 0 0 0 0 0
0.00150000 0.00179520 7429.89534003 0 -7925.47045426 0 3501.08017998 0 8395.81174023 0 3273.78749610 0 3
0.00250000 0.00253879 24150.73344793 0 -21727.88733112 0 -9445.31312050 0 -12607.61337800 0 4462.72266281 0 6
0.00350000 0.00331552 25430.14058073 0 -10342.53681752 0 -11404.60528645 0 -5317.17396906 0 17388.31106495 0 7
0.00450000 0.00420575 33347.18499581 0 -3230.78258651 0 -11109.74927653 0 -21529.36054712 0 -5579.26696984 0 24
0.00550000 0.00557378 33183.31458849 0 -4702.75959255 0 -5244.20734851 0 -16606.49420950 0 -341.08185881 0 45
0.00650000 0.00659388 27826.96673422 0 -5229.29292697 0 -7947.17221091 0 -5426.46888734 0 2754.92728278 0 40
0.00750000 0.00754703 36243.37299862 0 -5785.73261074 0 2154.77406063 0 -9412.89335343 0 -6180.73779864 0 57
0.00850000 0.00846663 42247.23040828 0 375.65408582 0 -4769.40391563 0 -1965.80269295 0 9136.10737761 0 75
0.00950000 0.00948925 42780.25212505 0 -2162.31431383 0 -12341.43468936 0 3284.97054417 0 6729.80331407 0 112
0.01050000 0.01054430 47209.51422226 0 -7405.45871916 0 -12721.99049338 0 -306.62478397 0 15506.79090851 0 105
0.01150000 0.01145670 58482.69101311 0 -8535.58876875 0 -15015.17968657 0 993.93159646 0 -11273.39823735 0 144
0.01250000 0.01249090 61825.53659911 0 -2089.33662095 0 -10423.06583593 0 -10909.99346448 0 -9154.52065378 0 169
0.01350000 0.01339930 57263.96022032 0 6426.22231219 0 -8730.82707227 0 -8350.31555756 0 -4757.77797457 0 180
0.01450000 0.01448870 54801.80735040 0 -304.89196514 0 -8061.36109676 0 -5028.82848613 0 -3385.00899891 0 267
0.01550000 0.01550050 61477.09053707 0 -14654.66479047 0 -20683.10276123 0 2249.40922086 0 -15178.93937063 0 238
0.01650000 0.01653350 71480.93601071 0 -12252.19175132 0 -1683.95666469 0 -10368.37962365 0 -37807.78177225 0 315
0.01750000 0.01747870 78355.18887437 0 -558.33526577 0 -20756.29082828 0 -8976.18979025 0 -22587.98552303 0 297
0.01850000 0.01844180 72835.19205928 0 4121.27431005 0 -1607.80121459 0 -11965.63998501 0 -7255.63909203 0 388
0.01950000 0.01947590 76497.91710929 0 1244.21928452 0 -7880.30644133 0 -6755.08143163 0 -374.13607009 0 399
0.02050000 0.02045430 73758.84539565 0 -78.61992816 0 9881.86167112 0 -1738.52108140 0 -5962.59085506 0 462
0.02150000 0.02154770 72764.99351993 0 5352.41717896 0 12981.19361738 0 2159.04797801 0 -7759.86169195 0 571
0.02250000 0.02255340 71698.50719340 0 6039.98640555 0 17607.32164986 0 -7046.48287621 0 627.67127102 0 510
0.02350000 0.02348930 69118.87695715 0 3576.82595407 0 23166.40377156 0 5245.85712490 0 13691.59397775 0 555
0.02450000 0.02439640 68187.36227016 0 -1888.05282808 0 26473.04285540 0 -3719.39320843 0 8538.60044110 0 592
0.02550000 0.02547300 70365.73145498 0 -196.17945114 0 28710.31680825 0 6153.33379471 0 7277.60658448 0 837
0.02650000 0.02652900 70427.07213447 0 1191.39322281 0 34939.93892097 0 -2671.56374922 0 2006.68171618 0 723
0.02750000 0.02749970 71442.73649009 0 4297.90003555 0 32358.20494300 0 1693.65602123 0 513.69386657 0 826
0.02850000 0.02848090 65197.05950639 0 1368.78293873 0 35071.69958631 0 5161.92890278 0 4499.25026238 0 831
0.02950000 0.02946900 62825.92114647 0 2893.25383674 0 27570.97458441 0 5983.19645155 0 -1752.04039000 0 996
0.03050000 0.03053250 63042.16365018 0 935.62584120 0 27319.41136454 0 566.88531499 0 -1728.05773445 0 1041
0.03150000 0.03150510 59974.46533593 0 1633.22327237 0 18612.79946664 0 2322.08796097 0 -5972.29021160 0 1036
0.03250000 0.03246190 59295.28893155 0 3734.41835321 0 21946.67646954 0 -2008.20969701 0 -9375.18101509 0 1059
0.03350000 0.03345080 54959.80942556 0 1523.82870317 0 16352.93797116 0 -2688.67049106 0 -11638.00989363 0 1302
0.03450000 0.03451200 54939.98996414 0 1290.82269968 0 17832.75418317 0 1171.92807578 0 -13867.75466561 0 1339
0.03550000 0.03553350 52533.42016480 0 1788.29118146 0 18829.15269360 0 -2280.41173035 0 -12348.63170049 0 1365
0.03650000 0.03647120 52225.16664185 0 2432.42367778 0 22013.44258819 0 1837.77340107 0 -11674.43784228 0 1308
0.03750000 0.03744890 51391.64202951 0 4026.14089521 0 21298.83474440 0 5132.68689293 0 -8156.73810275 0 1579
0.03850000 0.03847530 47532.71538371 0 3234.02677768 0 22353.80585312 0 1389.93107913 0 -5287.14582415 0 1662
0.03950000 0.03950240 45895.67215927 0 2517.25983054 0 21913.57021833 0 2158.10683040 0 2667.14589161 0 1683
0.04050000 0.04050350 44237.14862469 0 -249.53255551 0 22617.88080004 0 4879.80606640 0 4499.95889117 0 1822
0.04150000 0.04152450 45605.46652578 0 -2734.07809514 0 19612.96256751 0 1615.96151798 0 -2281.41931191 0 1887
0.04250000 0.04250150 48552.80866925 0 -1864.40234226 0 22249.83672307 0 645.48331995 0 1002.01992974 0 1920
0.04350000 0.04349210 48013.03283434 0 1662.27705270 0 20604.82142476 0 -398.40882055 0 -1465.77650414 0 2005
0.04450000 0.04448520 47026.82086275 0 2135.56357707 0 20883.73328695 0 -866.93424526 0 1493.55696711 0 2151
0.04550000 0.04548030 45861.90156858 0 390.13115052 0 17527.26874142 0 644.73593803 0 -728.99300820 0 2274
0.04650000 0.04648670 43529.73779203 0 659.11667350 0 18611.69223416 0 5106.34583219 0 -465.92564283 0 2311
0.04750000 0.04749250 44227.29425560 0 1884.96364945 0 17945.58117307 0 4324.51790442 0 -5041.98240802 0 2568
0.04850000 0.04851840 39644.90190616 0 2107.11877461 0 14465.54948257 0 2004.93228886 0 -2971.24729276 0 2493
0.04950000 0.04949480 38977.68361258 0 4066.22271105 0 14706.48327062 0 1144.34691466 0 2434.58278112 0 2644
0.05050000 0.05050630 35653.66097878 0 2362.71232073 0 14353.60827865 0 1028.25137447 0 1168.88318645 0 2829
0.05150000 0.05149060 34298.40842098 0 1153.53694426 0 14007.15523508 0 3332.24937115 0 2806.59075038 0 2784
0.05250000 0.05249300 32940.27705872 0 -502.99910802 0 11928.21552713 0 4746.93816857 0 5254.72605708 0 3055
0.05350000 0.05348950 34548.42151538 0 -1780.81736221 0 12395.57835772 0 5377.50706700 0 4052.48195595 0 3009
0.05450000 0.05448610 35847.53738635 0 -2192.66355616 0 9871.38725184 0 4266.06710170 0 5164.84092421 0 3336
0.05550000 0.05550870 36349.33514713 0 1021.37656799 0 9367.61861724 0 -1076.92420714 0 4762.89338864 0 3349
0.05650000 0.05647670 36276.14708008 0 1404.19223350 0 11392.20428266 0 -3364.61377659 0 5019.80454141 0 3324
0.05750000 0.05747970 35318.50170652 0 1550.90053735 0 12642.15903143 0 -2803.94446475 0 7955.02248920 0 3639
0.05850000 0.05849280 34599.35420955 0 838.07423062 0 12055.21509280 0 265.60846391 0 8058.06154397 0 3846
0.05950000 0.05951020 34843.27752530 0 -628.66002962 0 13045.63454783 0 1525.40097329 0 3010.23294845 0 3787
0.06050000 0.06049470 35086.09360857 0 109.81321381 0 11854.80601358 0 1627.57638672 0 1478.98578765 0 3930
0.06150000 0.06148310 34739.41911850 0 890.77960398 0 11298.64313794 0 923.44185497 0 1283.11636161 0 4083
0.06250000 0.06249100 33404.65036162 0 175.30590439 0 9819.22552962 0 -268.03662474 0 1721.43648420 0 4303
0.06350000 0.06350600 33553.24096068 0 566.36380850 0 9149.26129949 0 1476.09591087 0 -1561.07600386 0 4470
0.06450000 0.06451750 32749.72234859 0 977.01640583 0 9805.85016124 0 297.87875460 0 -1442.91215339 0 4479
0.06550000 0.06550280 31904.35034869 0 603.09292438 0 8921.74716912 0 713.86710527 0 1176.14663154 0 4636
0.06650000 0.06648880 31699.51233954 0 449.87409354 0 8968.41701823 0 1246.04621812 0 1013.73998556 0 4653
0.06750000 0.06749660 31608.60855278 0 263.18362478 0 8249.87849913 0 1354.46642274 0 -120.74480938 0 5220
0.06850000 0.06852730 30751.38916532 0 1379.09127314 0 9999.30582047 0 -432.40750114 0 -730.73689936 0 5029
0.06950000 0.06949320 29677.37365791 0 1737.28098102 0 8488.11063992 0 -1186.29995339 0 196.57141144 0 5040
0.07050000 0.07048030 28489.20248163 0 786.08966559 0 9736.63705880 0 -1161.91869414 0 -573.23197158 0 5475
0.07150000 0.07148790 28470.37952943 0 478.63556449 0 10199.00627090 0 -1021.03554038 0 -597.89778958 0 5509
0.07250000 0.07249820 27975.11444030 0 730.14452998 0 10303.27435372 0 -231.37283557 0 -2142.62772031 0 5916
0.07350000 0.07351270 26737.44997207 0 364.88846440 0 9683.65598454 0 901.01818274 0 -717.60512212 0 5721
0.07450000 0.07449140 26950.37077833 0 313.97127149 0 10527.74359477 0 1363.59001839 0 -2323.78202666 0 6028
0.07550000 0.07549160 26087.28305872 0 -63.23460066 0 8504.87413970 0 2298.04994379 0 -2524.44576935 0 6183
0.07650000 0.07648840 26348.36847794 0 12.74380297 0 9185.55638025 0 1796.19682138 0 -2621.97080635 0 6330
0.07750000 0.07749960 26102.34142047 0 147.34496252 0 7204.34101115 0 1041.49830388 0 -2789.11862182 0 6583
0.07850000 0.07848650 25473.54409402 0 582.55929801 0 7980.98709090 0 407.42501465 0 -1382.71192335 0 6549
0.07950000 0.07947320 25062.09650376 0 1043.08386080 0 6266.33794181 0 274.15519144 0 -1114.29662510 0 6828
0.08050000 0.08048110 24377.71610672 0 691.43900411 0 5825.32724429 0 804.71663763 0 397.67140372 0 7147
0.08150000 0.08149960 23814.46694319 0 399.24588831 0 6319.09756957 0 993.19417963 0 -241.54719485 0 7386
0.08250000 0.08250610 23207.59281988 0 256.72070878 0 5612.52823360 0 652.76005182 0 -44.44065795 0 7227
0.08350000 0.08350160 23137.61572703 0 746.78512695 0 6910.58116139 0 337.09914357 0 434.49463437 0 7798
0.08450000 0.08449610 22716.31376768 0 883.55934097 0 6947.14197794 0 -1373.90942512 0 443.76438471 0 7371
0.08550000 0.08548940 21798.86093321 0 852.06964919 0 7787.66429957 0 -613.31046573 0 1807.15842295 0 8256
0.08650000 0.08650700 21581.17902727 0 708.17150138 0 8173.64554275 0 9.00443529 0 2700.04176865 0 8037
0.08750000 0.08749060 21109.38726675 0 -174.65595892 0 8186.66659674 0 735.07946515 0 2435.85609848 0 8155
0.08850000 0.08849210 21279.67962246 0 59.41066256 0 7994.63926741 0 1874.12384345 0 2037.36312826 0 8718
0.08950000 0.08949900 21246.24120151 0 239.99264044 0 7838.99559743 0 832.85473670 0 2218.51743461 0 8571
0.09050000 0.09049190 20366.76644116 0 206.81220466 0 7147.89429922 0 711.09791683 0 2413.09139865 0 8932
0.09150000 0.09150830 20368.20584339 0 346.76860483 0 7447.14602210 0 287.12863443 0 1922.44346896 0 9285
0.09250000 0.09250820 19613.62690700 0 510.90585518 0 6503.24140363 0 492.29770609 0 2545.61605441 0 9204
0.09350000 0.09350330 19311.90605569 0 111.77733351 0 6535.18506074 0 690.30630528 0 780.28333846 0 9349
0.09450000 0.09448040 19599.56505448 0 320.93797826 0 5713.10923225 0 111.49720369 0 1012.85530681 0 9564
0.09550000 0.09549270 18989.36923372 0 633.94152856 0 5755.32800678 0 -142.10996735 0 -707.37318676 0 10155
0.09650000 0.09649430 18311.41078508 0 613.48540846 0 5246.98650203 0 -663.83791280 0 -281.64119025 0 9913
0.09750000 0.09749140 18073.35580148 0 336.59646002 0 4871.57932906 0 -275.74185559 0 -1804.21318455 0 10476
0.09850000 0.09850240 17508.88868222 0 326.22058443 0 5418.15357141 0 103.76861024 0 -1758.14124098 0 10575
0.09950000 0.09950330 17125.34335050 0 704.90405832 0 4690.71290315 0 647.95798455 0 -2281.19786541 0 10882
0.10050000 0.10051200 16809.89281642 0 209.86152292 0 4085.79858133 0 324.97716236 0 -2237.26288053 0 10875
0.10150000 0.10150300 16694.74063831 0 175.03020350 0 4639.66948573 0 589.75298744 0 -2021.97259676 0 11118
0.10250000 0.10250800 16640.59696994 0 28.61598060 0 4497.03579742 0 -106.85203126 0 -1708.01682652 0 11575
0.10350000 0.10349800 16179.87753424 0 293.84289220 0 4362.58455715 0 -204.46708626 0 -1629.51404356 0 11364
0.10450000 0.10450100 16305.88059068 0 206.37263336 0 4751.80999150 0 150.53822100 0 -300.23937425 0 12093
0.10550000 0.10551000 15969.61408593 0 210.94218182 0 5158.68471161 0 246.54745674 0 -641.43084907 0 12067
0.10650000 0.10649700 16028.07596098 0 22.54325333 0 4801.95655060 0 1239.18137673 0 -260.70010232 0 12054
0.10750000 0.10749900 15660.25333050 0 168.95592611 0 4757.26864763 0 1002.02768037 0 789.25413603 0 12807
0.10850000 0.10850100 15628.91865126 0 245.78125186 0 4446.90031064 0 417.91382795 0 178.18249438 0 12736
0.10950000 0.10950300 15634.78698342 0 296.26440964 0 5080.08227772 0 -203.57465688 0 1086.89040671 0 12933
0.11050000 0.11050200 15365.28659733 0 367.87688487 0 5334.45786810 0 -170.32003652 0 1640.77459790 0 13428
0.11150000 0.11150900 15012.19015887 0 379.73534475 0 5347.84430881 0 -410.71238789 0 2299.40076741 0 13453
0.11250000 0.11250000 15146.38673567 0 274.07879240 0 5797.48034737 0 -142.30926920 0 1998.41068954 0 13668
0.11350000 0.11349100 14532.53704772 0 125.88901149 0 5528.93218122 0 -6.38342778 0 1813.34785252 0 13791
0.11450000 0.11448600 14705.48676139 0 -72.12922063 0 5258.05882685 0 635.54590843 0 1641.43893739 0 14205
0.11550000 0.11549300 14737.92867311 0 -263.37960493 0 5080.32586886 0 601.69227529 0 1375.93566056 0 14776
0.11650000 0.11649800 14858.06339739 0 108.54831142 0 4680.84746173 0 423.30826461 0 583.73850060 0 14553
0.11750000 0.11747300 14785.87183957 0 337.71808653 0 4216.46308651 0 51.53558225 0 269.94438631 0 14568
0.11850000 0.11849100 14459.12753417 0 370.33494098 0 4109.91410478 0 -191.48146372 0 534.54859036 0 16015
0.11950000 0.11950300 14212.32541397 0 57.45252191 0 3925.90313862 0 200.13891449 0 464.82173205 0 15270
0.12050000 0.12050700 14180.99073473 0 -71.43387863 0 3872.29094185 0 513.05720789 0 -528.69575946 0 15999
0.12150000 0.12150000 14260.93291992 0 -117.68441880 0 3405.66995702 0 312.85518115 0 -761.18800707 0 15670
0.12250000 0.12250700 14310.09404211 0 78.72135066 0 3265.64933736 0 136.64134612 0 -1127.38411303 0 16887
0.12350000 0.12352200 14012.02705800 0 305.28724713 0 3471.81602549 0 -528.61493149 0 -198.96524806 0 16407
0.12450000 0.12449800 13837.52721886 0 435.59079453 0 3625.33380910 0 -78.83982453 0 -565.39940900 0 16306
0.12550000 0.12549900 13272.28503686 0 294.14516667 0 3553.54085497 0 183.45956439 0 75.83324545 0 17523
0.12650000 0.12650100 13339.93694151 0 235.62793000 0 3802.73459734 0 208.07887862 0 -337.25858505 0 17154
0.12750000 0.12750600 13133.10591389 0 108.63943666 0 4076.17673106 0 167.56745657 0 -275.44622451 0 18007
0.12850000 0.12850300 12984.95820782 0 234.19406394 0 4513.79929719 0 -164.13171418 0 0.47771324 0 17496
0.12950000 0.12949900 12883.53571248 0 394.74720274 0 4618.89780437 0 -664.14683067 0 231.02848627 0 18405
0.13050000 0.13049000 12685.67326797 0 423.06356623 0 5036.35766701 0 -348.64868559 0 700.46737777 0 18100
0.13150000 0.13148800 12317.07557476 0 388.38725936 0 5348.14326158 0 136.74321151 0 841.61958902 0 19059
0.13250000 0.13249300 12195.50144825 0 190.21700422 0 5204.97810167 0 254.32465769 0 1057.40702018 0 18957
0.13350000 0.13349100 12129.51039233 0 -68.47291753 0 4923.24279666 0 919.17015205 0 671.61843545 0 19468
0.13450000 0.13450700 12009.48639130 0 -198.52235507 0 4308.85056480 0 814.06057255 0 549.96680267 0 19953
0.13550000 0.13551000 12438.53897802 0 -135.24844766 0 4235.93930587 0 509.27490173 0 817.81187620 0 19956
0.13650000 0.13649900 12185.64707916 0 141.85862558 0 3602.33659045 0 -11.61641886 0 205.18568014 0 19723
0.13750000 0.13749600 12063.63005966 0 320.38214756 0 3726.03660332 0 -19.26573446 0 114.27635722 0 20946
0.13850000 0.13851100 11767.00247777 0 261.00348402 0 3705.67459798 0 -256.59669874 0 483.90599111 0 20955
0.13950000 0.13949800 11564.48965684 0 294.96451870 0 3567.68021376 0 96.03791306 0 33.66219264 0 20506
0.14050000 0.14048300 11487.64772259 0 -149.55610579 0 3545.98952945 0 297.24209592 0 -34.48287335 0 21447
0.14150000 0.14148400 11710.42289794 0 70.13575927 0 3729.84548306 0 215.28364038 0 -44.91975745 0 21771
0.14250000 0.14249400 11412.79880682 0 156.99781530 0 3348.54783328 0 278.07036550 0 -141.52313413 0 22470
0.14350000 0.14350900 11397.85116831 0 355.80694358 0 3496.31908031 0 -230.66531402 0 -17.10474883 0 22519
0.14450000 0.14449900 11030.05068249 0 454.66619573 0 3686.40875280 0 -371.05574932 0 -24.60004839 0 22218
0.14550000 0.14550500 10932.32634364 0 297.14908839 0 3981.59693246 0 -200.81543354 0 -13.21648052 0 23559
0.14650000 0.14650700 10541.98260448 0 89.58186190 0 4199.73280371 0 46.43290136 0 104.52916824 0 23044
0.14750000 0.14750500 10610.68637998 0 58.73868316 0 3872.22450790 0 419.20264656 0 138.41291809 0 23649
0.14850000 0.14849900 10576.78292139 0 -134.43906072 0 3570.11612523 0 844.02117628 0 218.64741266 0 23640
0.14950000 0.14949500 10629.86364657 0 -100.79779477 0 3360.45058246 0 702.52683019 0 227.35801059 0 24457
0.15050000 0.15050000 10473.11274411 0 143.46964884 0 2882.14829494 0 724.99257724 0 171.43501963 0 24591
0.15150000 0.15149900 10328.48603733 0 291.28629240 0 2624.00811412 0 104.48975076 0 -331.47550979 0 25020
0.15250000 0.15250500 9923.20573199 0 297.69273954 0 2309.52087230 0 -269.91781273 0 42.26494613 0 25297
0.15350000 0.15350100 9697.46317359 0 308.74291971 0 2390.32669882 0 -128.54969114 0 -58.91107926 0 25452
0.15450000 0.15450400 9592.60825756 0 195.89157069 0 2314.00516385 0 40.31090224 0 -189.30132296 0 26061
0.15550000 0.15549900 9470.93448013 0 77.24496686 0 2351.51820033 0 144.20042228 0 -353.15401456 0 26128
0.15650000 0.15649500 9340.73501258 0 145.69075720 0 2194.80051485 0 71.63439843 0 -133.73818255 0 26331
0.15750000 0.15749700 9242.57885307 0 154.14115550 0 2485.37153507 0 -37.73193635 0 3.17054914 0 27345
0.15850000 0.15849900 9237.81775339 0 71.91829284 0 2656.09571145 0 63.86328726 0 247.12653932 0 26980
0.15950000 0.15949700 9095.41658390 0 65.86914962 0 2539.30482926 0 304.10804454 0 511.00218440 0 27777
0.16050000 0.16050000 9177.59537871 0 7.29329607 0 2631.27155920 0 376.76131830 0 725.17416337 0 28224
0.16150000 0.16150500 9143.81371568 0 34.56901604 0 2691.13961950 0 219.89747813 0 737.85751145 0 28075
0.16250000 0.16249700 9079.00739852 0 176.68883776 0 2513.42880616 0 119.18471881 0 877.30458468 0 28590
0.16350000 0.16349900 8938.72104307 0 299.54735395 0 2492.91178827 0 -336.01516297 0 385.84283912 0 29163
0.16450000 0.16449100 8664.61456986 0 306.26936234 0 2606.82386600 0 -575.44311485 0 627.59044305 0 28996
0.16550000 0.16550500 8571.93921113 0 96.27596804 0 2870.09053322 0 -389.47234719 0 419.27129498 0 30777
0.16650000 0.16650700 8560.75616306 0 -14.53275849 0 2950.81885347 0 -118.33657873 0 313.98234381 0 29211
0.16750000 0.16749900 8612.19818417 0 15.42075894 0 2940.48837441 0 65.80659099 0 15.41931954 0 30922
0.16850000 0.16850800 8648.16109518 0 16.16205109 0 2927.82163482 0 319.45096504 0 -269.42177258 0 30867
0.16950000 0.16949900 8596.64156780 0 110.65349254 0 2872.95826534 0 43.81640028 0 -143.35006773 0 30852
0.17050000 0.17049200 8356.54927643 0 270.48471576 0 2725.70741758 0 166.03836852 0 -220.08792212 0 31257
0.17150000 0.17149500 8097.46794800 0 220.79765814 0 2620.47604250 0 169.12533267 0 160.70261519 0 32608
0.17250000 0.17250900 7903.62475740 0 94.91750451 0 2332.76168209 0 525.44935383 0 -425.43193651 0 32361
0.17350000 0.17350400 7856.53415994 0 66.52839584 0 2185.51083433 0 302.89451774 0 -65.41861673 0 32508
0.17450000 0.17449800 7906.99074414 0 -22.28969709 0 1960.14473497 0 190.69643589 0 -528.89063238 0 32791
0.17550000 0.17549800 7816.70700757 0 35.46775665 0 1838.59275311 0 -90.34086977 0 -211.44043643 0 33633
0.17650000 0.17650100 7903.75762529 0 118.50487807 0 2002.98355969 0 -86.62643696 0 -436.45665033 0 33984
0.17750000 0.17750300 7808.43598093 0 20.43973306 0 2149.32647682 0 -85.06612495 0 -202.43310019 0 34069
0.17850000 0.17849800 7785.56055786 0 116.54507658 0 2336.21624744 0 -1.09882969 0 -157.62450889 0 34536
