### header ###
fiducial parameters:
Omega_m = 0.31
Omega_nu = 0
Omega_de = 0.69
Omega_k = 0
H_0 = 100
w_de = -1
zeff = 0
beta = 0
fgrowth = 0
b_1 = 2
gamma = 0.55
Lx = 3500 Ly = 3500 Lz = 3500
nx = 700 ny = 700 nz = 700
xoffset = -685.467585 yoffset = -31.7331281 zoffset = 572.489161
bins = 400 dk = 0.001
kx_ny = 0.628318531 ky_ny = 0.628318531 kz_ny = 0.628318531
############################
A(data) = 8.01900159 (not used)
A(ran) = 8.01382313 (used)
Ngal = 476244
weighted Ngal = 0
Nran = 23820508
weighted Nran = 0
SN(data) = 3489.9665
SN(ran) = 69.8033059
SN(data+ran) = 3559.76981
############################
13 columns: k_central k_mean P_0(k) sigma^{lin}_{P_0(k)} P^img_1(k) sigma^{lin}_{P_1(k)} P_2(k) sigma^{lin}_{P_2(k)} P^img_3(k) sigma^{lin}_{P_3(k)} P_4(k) sigma^{lin}_{P_4(k)} N_modes
### header ###
0.00050000 0 0 0 0 0 0 0 0 0 0 0 0
0.00150000 0.00179520 33841.89646870 0 -27575.95713058 0 16670.27080046 0 -34581.74921309 0 -57662.01029755 0 3
0.00250000 0.00253879 55602.00426504 0 -16917.73726015 0 -21299.60980713 0 16508.83630460 0 21620.59650363 0 6
0.00350000 0.00331552 58550.45364100 0 -17891.21605821 0 -21376.78391112 0 -18615.56754785 0 32638.99910041 0 7
0.00450000 0.00420575 51141.29676536 0 -7406.85383208 0 -32017.95240133 0 -35259.37549199 0 3394.33189640 0 24
0.00550000 0.00557378 44250.32469122 0 15115.60567267 0 -13738.65135822 0 -32670.22305639 0 5708.58065140 0 45
0.00650000 0.00659388 28513.34014973 0 9039.12488452 0 -13181.38125010 0 -29063.63469322 0 26514.56407347 0 40
0.00750000 0.00754703 28984.79974051 0 -6523.95772337 0 -25436.67325237 0 6317.03811716 0 29225.62280531 0 57
0.00850000 0.00846663 41836.11498777 0 -21590.81194986 0 -18021.42659808 0 5465.44347071 0 18818.19109203 0 75
0.00950000 0.00948925 51419.54428805 0 -7867.61755709 0 -8498.28610643 0 4623.26030035 0 -5272.59678934 0 112
0.01050000 0.01054430 67669.62036164 0 -2204.86525811 0 -15043.85700785 0 -9693.00102669 0 804.17298649 0 105
0.01150000 0.01145670 59964.83241334 0 5109.91112078 0 3458.38529548 0 -21505.33360226 0 -7198.77163177 0 144
0.01250000 0.01249090 56832.80389189 0 3500.01723680 0 9142.21930091 0 -25533.22392479 0 -8034.42213048 0 169
0.01350000 0.01339930 58477.59774370 0 -2235.18128346 0 27109.59080922 0 -10705.56513135 0 -11291.55685006 0 180
0.01450000 0.01448870 67517.70806513 0 -13395.85218184 0 26535.60149062 0 -1753.19191178 0 -35752.31539291 0 267
0.01550000 0.01550050 82955.40766677 0 -7474.24000093 0 26295.11059556 0 2877.65293107 0 -15964.96370951 0 238
0.01650000 0.01653350 77362.88712412 0 6368.24761944 0 14604.95005204 0 5320.66175138 0 -13764.33915180 0 315
0.01750000 0.01747870 72381.55891146 0 6233.36455850 0 8096.60430666 0 16759.84590824 0 19897.29986885 0 297
0.01850000 0.01844180 79200.89304402 0 -7820.40516406 0 12363.69006225 0 23753.12626370 0 -18169.13141116 0 388
0.01950000 0.01947590 77970.86847991 0 1802.59662513 0 10082.37040126 0 21654.80998732 0 9760.55328041 0 399
0.02050000 0.02045430 74684.49175049 0 9514.24941482 0 1389.28888429 0 1620.45688186 0 18902.67293039 0 462
0.02150000 0.02154770 68977.92626221 0 3037.44872285 0 12744.02441977 0 -9627.47500841 0 23503.11316929 0 571
0.02250000 0.02255340 69591.00088742 0 1369.02652988 0 20101.69498500 0 -16990.48243421 0 12362.47210651 0 510
0.02350000 0.02348930 67275.44559810 0 2478.00843906 0 22834.56619674 0 -9800.84547042 0 21115.69849190 0 555
0.02450000 0.02439640 69581.03579508 0 4352.51981389 0 39820.84114752 0 -8255.65825268 0 19536.89569601 0 592
0.02550000 0.02547300 63620.47117546 0 3859.18130927 0 33786.86701435 0 942.51393447 0 2704.72536205 0 837
0.02650000 0.02652900 58642.79682999 0 4652.97842016 0 33052.88260213 0 14280.75238135 0 -4891.25485026 0 723
0.02750000 0.02749970 55633.67111403 0 1258.15934147 0 24335.41982591 0 3532.79131826 0 -9344.62139859 0 826
0.02850000 0.02848090 53807.18041194 0 462.56851395 0 13125.02311678 0 8001.18301137 0 -3064.90808840 0 831
0.02950000 0.02946900 53266.40806780 0 -39.84099278 0 12533.53952496 0 5234.58549824 0 -10168.77882415 0 996
0.03050000 0.03053250 54512.81967263 0 1017.28091504 0 13033.78716027 0 2055.15635424 0 -1544.57823988 0 1041
0.03150000 0.03150510 55138.73819463 0 580.74675844 0 14977.64450543 0 -4553.72610049 0 -7400.91906598 0 1036
0.03250000 0.03246190 50325.37714947 0 4039.49411894 0 16883.52377646 0 -2451.52343810 0 -712.16418171 0 1059
0.03350000 0.03345080 52432.77273220 0 2703.95029931 0 19581.29571853 0 -665.04590344 0 1160.47929192 0 1302
0.03450000 0.03451200 52628.53143500 0 -3278.02819651 0 24109.10150662 0 2933.39101420 0 2796.97997244 0 1339
0.03550000 0.03553350 54365.33630605 0 -1527.18361759 0 24174.20677655 0 4412.76433322 0 7005.98031202 0 1365
0.03650000 0.03647120 54527.87803439 0 1384.08489163 0 22777.54372393 0 4170.81189129 0 919.19894010 0 1308
0.03750000 0.03744890 52803.25272064 0 1890.15656979 0 22489.66327864 0 3552.13466972 0 2012.60540996 0 1579
0.03850000 0.03847530 52554.56830521 0 718.53851911 0 23535.22291127 0 -620.05018984 0 3053.88005288 0 1662
0.03950000 0.03950240 51956.77348825 0 1126.47618240 0 24064.59076085 0 -1278.43276821 0 -491.79612977 0 1683
0.04050000 0.04050350 50583.36231774 0 1076.75922950 0 24693.49881055 0 4048.63985924 0 2660.14818233 0 1822
0.04150000 0.04152450 49931.64527892 0 106.59183163 0 20352.59386539 0 4583.17848451 0 2542.99191342 0 1887
0.04250000 0.04250150 49401.17019686 0 622.12846521 0 16059.07847047 0 6163.05529591 0 1986.58544664 0 1920
0.04350000 0.04349210 46333.80405235 0 1965.83590993 0 12606.50614552 0 8446.12438421 0 694.70533993 0 2005
0.04450000 0.04448520 45517.55226672 0 1889.92405097 0 6873.63281347 0 3788.67274482 0 -2157.36498464 0 2151
0.04550000 0.04548030 42573.31037419 0 1329.56476422 0 5010.02767859 0 934.55404016 0 -5145.27612625 0 2274
0.04650000 0.04648670 40394.05540339 0 2956.02284613 0 3859.46918971 0 -879.17137865 0 -2501.14959793 0 2311
0.04750000 0.04749250 39382.93070095 0 1182.55750761 0 4918.89137301 0 -4744.74584826 0 -4675.86491556 0 2568
0.04850000 0.04851840 38437.79705443 0 -39.53694674 0 9003.92596392 0 -4863.74012309 0 -5599.56254123 0 2493
0.04950000 0.04949480 41730.26356250 0 -808.19334763 0 12110.24454715 0 -3349.71042739 0 -3758.40100877 0 2644
0.05050000 0.05050630 40602.21510998 0 -674.39316005 0 14210.77528849 0 -2253.89351241 0 -3425.61121402 0 2829
0.05150000 0.05149060 41235.33064311 0 1374.52947531 0 15119.14881661 0 -2098.95847122 0 -6460.52437448 0 2784
0.05250000 0.05249300 41680.77027056 0 1331.43598712 0 17579.64083781 0 1018.73803298 0 -5113.04458870 0 3055
0.05350000 0.05348950 38161.65327345 0 2615.44920704 0 16093.40267741 0 429.37811307 0 -7649.50383048 0 3009
0.05450000 0.05448610 37326.79998212 0 2484.20894096 0 14219.63314835 0 1291.65312404 0 -5539.76091489 0 3336
0.05550000 0.05550870 35614.02205593 0 1054.27355226 0 14596.75653167 0 571.85125268 0 -4182.73678512 0 3349
0.05650000 0.05647670 33790.63160479 0 1267.05041830 0 13211.49797361 0 4987.46228061 0 -3552.55541806 0 3324
0.05750000 0.05747970 33577.26790554 0 59.07207086 0 12269.13240829 0 4600.17450310 0 -3903.50382551 0 3639
0.05850000 0.05849280 33860.38725115 0 47.99188469 0 10182.24277112 0 3637.61301732 0 -1626.00411659 0 3846
0.05950000 0.05951020 32814.38472553 0 131.87360306 0 9558.67158199 0 670.67175168 0 -2813.27843457 0 3787
0.06050000 0.06049470 33213.32058875 0 192.91754425 0 10807.71840013 0 -358.99355867 0 -304.44132152 0 3930
0.06150000 0.06148310 34541.33522750 0 -168.83302330 0 11092.25500332 0 46.09010218 0 496.92483063 0 4083
0.06250000 0.06249100 33511.16612637 0 561.70568144 0 11909.39257494 0 -1842.33519890 0 -342.36071232 0 4303
0.06350000 0.06350600 33039.26364260 0 1213.63752337 0 11578.44078611 0 -1253.60861597 0 -1201.61297862 0 4470
0.06450000 0.06451750 33100.05070585 0 1481.62100096 0 13468.92952564 0 -1725.51109974 0 1038.09799293 0 4479
0.06550000 0.06550280 30882.15332143 0 916.50504347 0 12829.61349061 0 121.70699441 0 1613.83563162 0 4636
0.06650000 0.06648880 31249.53305891 0 243.29883664 0 13574.78095091 0 1371.13027159 0 -1036.48364797 0 4653
0.06750000 0.06749660 30500.49028493 0 246.37583570 0 13094.24205378 0 2038.33749284 0 -1178.12857768 0 5220
0.06850000 0.06852730 30338.17000309 0 699.99680396 0 11632.47373122 0 2117.60426622 0 671.30730313 0 5029
0.06950000 0.06949320 29331.91712357 0 560.78557125 0 11051.90745168 0 1522.01284190 0 290.43150892 0 5040
0.07050000 0.07048030 28702.34473438 0 271.09590809 0 10154.47338048 0 1119.61134101 0 -148.36029471 0 5475
0.07150000 0.07148790 28621.40603996 0 843.83959015 0 10602.30463009 0 187.98371631 0 -893.33841825 0 5509
0.07250000 0.07249820 27319.52208778 0 808.41700859 0 10574.28057598 0 -948.18075031 0 -1162.25086389 0 5916
0.07350000 0.07351270 26936.97326530 0 213.48992376 0 10521.96384121 0 979.31612770 0 -1739.58402458 0 5721
0.07450000 0.07449140 26814.29190631 0 -88.33002486 0 10433.46274894 0 68.65450365 0 -1771.63840493 0 6028
0.07550000 0.07549160 27452.94360185 0 -114.33282608 0 10481.52771097 0 409.26191334 0 -2237.65041190 0 6183
0.07650000 0.07648840 26982.48052030 0 899.94084554 0 10664.96291624 0 604.26105465 0 -1957.43201539 0 6330
0.07750000 0.07749960 26374.94205750 0 1193.43053058 0 10201.16537424 0 323.93414936 0 -897.06647002 0 6583
0.07850000 0.07848650 25318.97443955 0 347.59349303 0 9952.59168206 0 1256.28811857 0 657.19230345 0 6549
0.07950000 0.07947320 25378.43282383 0 68.58209065 0 9852.18784061 0 1614.31174158 0 -543.50056498 0 6828
0.08050000 0.08048110 24920.26002283 0 314.15728654 0 8611.78850815 0 1443.08931059 0 662.82147339 0 7147
0.08150000 0.08149960 24207.64519750 0 1143.62721354 0 8767.54290137 0 26.98923464 0 -318.67258061 0 7386
0.08250000 0.08250610 23434.90764841 0 1051.42132138 0 7442.75030915 0 275.72192540 0 224.54453286 0 7227
0.08350000 0.08350160 22591.75011347 0 701.79273505 0 7804.52745027 0 350.05597807 0 250.60214209 0 7798
0.08450000 0.08449610 22075.89050017 0 616.26788369 0 8200.55129206 0 64.07310781 0 -347.75072004 0 7371
0.08550000 0.08548940 21420.07670116 0 838.50272959 0 8246.12498101 0 269.81705458 0 377.40129868 0 8256
0.08650000 0.08650700 20469.96050847 0 747.03314703 0 8745.24323919 0 -166.12805435 0 -9.76045363 0 8037
0.08750000 0.08749060 20507.60641286 0 297.46132795 0 8757.74389391 0 -294.12191479 0 1834.05309994 0 8155
0.08850000 0.08849210 20013.00566321 0 -170.89801188 0 9305.51394733 0 768.64632507 0 565.03955845 0 8718
0.08950000 0.08949900 20456.12010245 0 -208.66460460 0 8811.71040507 0 743.40806788 0 1379.87740820 0 8571
0.09050000 0.09049190 20546.13810322 0 -98.84231149 0 9090.63333958 0 1465.89829972 0 824.45416386 0 8932
0.09150000 0.09150830 20567.39696688 0 -87.91946305 0 7695.02215781 0 1043.99732759 0 988.52940918 0 9285
0.09250000 0.09250820 20611.02192666 0 -13.81648980 0 7209.83288426 0 875.58615987 0 1210.92480379 0 9204
0.09350000 0.09350330 20538.60892235 0 113.42600267 0 6533.36919946 0 1136.93952935 0 288.84373754 0 9349
0.09450000 0.09448040 20385.36794686 0 262.82931038 0 6010.13541783 0 490.95131139 0 1109.08156011 0 9564
0.09550000 0.09549270 20084.86505128 0 700.19056965 0 5710.75082706 0 155.48533573 0 582.39432037 0 10155
0.09650000 0.09649430 19298.50854266 0 919.43478062 0 6018.45073377 0 -288.94338847 0 808.47458468 0 9913
0.09750000 0.09749140 18796.60005863 0 780.46603182 0 6433.43039565 0 -331.92283172 0 1469.93969827 0 10476
0.09850000 0.09850240 17999.28194844 0 777.40896293 0 6441.47997579 0 -269.62328889 0 892.24004363 0 10575
0.09950000 0.09950330 17450.53753043 0 569.87594993 0 6987.21272146 0 207.95043965 0 277.51564202 0 10882
0.10050000 0.10051200 16912.20109774 0 405.36113331 0 6746.77718802 0 106.29453971 0 563.91903918 0 10875
0.10150000 0.10150300 16524.33755935 0 360.61565425 0 6331.26605455 0 273.44102649 0 59.34799320 0 11118
0.10250000 0.10250800 16284.84317352 0 269.07410158 0 6619.06899356 0 -136.69006435 0 -483.56607073 0 11575
0.10350000 0.10349800 16191.17130555 0 250.14817677 0 5882.89226102 0 -32.56348585 0 -243.60996896 0 11364
0.10450000 0.10450100 15944.25846210 0 276.10834954 0 6481.76109349 0 307.49174700 0 -1107.34320511 0 12093
0.10550000 0.10551000 15912.81305961 0 175.18300158 0 5913.04220150 0 -461.02613910 0 -681.06312852 0 12067
0.10650000 0.10649700 15582.52561027 0 19.93594228 0 6349.46895655 0 804.68120620 0 -320.37993309 0 12054
0.10750000 0.10749900 15879.59608516 0 -109.37618915 0 6542.52601209 0 46.89483875 0 -282.36974922 0 12807
0.10850000 0.10850100 16117.54034551 0 -197.50370119 0 6115.54395011 0 741.69296477 0 762.41924959 0 12736
0.10950000 0.10950300 16066.16475835 0 -11.23951692 0 6194.73321721 0 507.36160400 0 596.25465658 0 12933
0.11050000 0.11050200 16008.36722280 0 373.36654351 0 6197.63416631 0 366.28468456 0 521.28394523 0 13428
0.11150000 0.11150900 15785.03843121 0 74.79133968 0 6148.97129874 0 -147.71367094 0 137.73307735 0 13453
0.11250000 0.11250000 15349.34244959 0 653.74991766 0 6177.85899419 0 -121.91515411 0 1292.66070560 0 13668
0.11350000 0.11349100 15295.08805798 0 445.43852022 0 5872.76108381 0 104.30118907 0 449.87630801 0 13791
0.11450000 0.11448600 14834.25789903 0 -9.34240693 0 5648.42471066 0 840.57657602 0 851.41970372 0 14205
0.11550000 0.11549300 14690.31767639 0 76.42860436 0 5562.38167449 0 897.99875977 0 491.87142158 0 14776
0.11650000 0.11649800 14518.25374871 0 39.79814288 0 4762.68301447 0 1229.06127184 0 250.24118430 0 14553
0.11750000 0.11747300 14567.19342440 0 213.57296619 0 4482.47569028 0 403.98595057 0 -14.83414718 0 14568
0.11850000 0.11849100 14225.61220375 0 318.01488451 0 4647.14330498 0 -204.83579468 0 141.13892446 0 16015
0.11950000 0.11950300 14143.45555359 0 359.34455136 0 5018.61980265 0 -192.67506033 0 551.48260394 0 15270
0.12050000 0.12050700 13731.12217735 0 199.85657021 0 4672.41035022 0 -158.52247443 0 928.34689486 0 15999
0.12150000 0.12150000 13994.20061504 0 -29.95052791 0 5153.71323776 0 -116.49746558 0 655.23471642 0 15670
0.12250000 0.12250700 13812.61448801 0 173.72588364 0 5014.56733177 0 340.05323983 0 690.34727289 0 16887
0.12350000 0.12352200 13794.23442881 0 -7.35411635 0 4888.26532256 0 457.24161848 0 969.99655190 0 16407
0.12450000 0.12449800 13822.69030360 0 173.67052201 0 4897.21176101 0 143.03118477 0 1151.74322764 0 16306
0.12550000 0.12549900 13560.71909839 0 275.31335662 0 4618.28882651 0 497.97780872 0 1156.72577380 0 17523
0.12650000 0.12650100 13265.64164197 0 336.45473426 0 4796.15465239 0 263.03082669 0 1185.89027738 0 17154
0.12750000 0.12750600 13093.46699104 0 217.92438985 0 4024.14787674 0 738.93927758 0 1038.69700570 0 18007
0.12850000 0.12850300 12827.39902565 0 -35.73725703 0 3753.13058215 0 208.45865936 0 872.36632781 0 17496
0.12950000 0.12949900 13126.35179575 0 44.23061595 0 3753.18594378 0 249.71635610 0 411.27596923 0 18405
0.13050000 0.13049000 12753.98951210 0 105.77524767 0 3616.28771972 0 -272.58181408 0 758.61479879 0 18100
0.13150000 0.13148800 12627.65428592 0 243.85466734 0 3084.51717565 0 241.25045654 0 564.99526915 0 19059
0.13250000 0.13249300 12565.09565070 0 54.82771659 0 3200.26725931 0 64.17608043 0 944.24121714 0 18957
0.13350000 0.13349100 12452.71155379 0 76.93748840 0 3421.58088778 0 280.63914485 0 829.67365778 0 19468
0.13450000 0.13450700 12427.68809970 0 157.54589538 0 3306.51728827 0 191.60768822 0 706.95243842 0 19953
0.13550000 0.13551000 12337.22720593 0 209.63343302 0 3772.26355944 0 -192.63630719 0 1111.94929224 0 19956
0.13650000 0.13649900 12108.14080543 0 398.67234189 0 3853.53442361 0 34.77540417 0 1161.80797090 0 19723
0.13750000 0.13749600 12030.63453170 0 123.35566357 0 4060.68654864 0 -115.96820845 0 1562.36039354 0 20946
0.13850000 0.13851100 11808.08080285 0 219.00172705 0 4127.53017357 0 53.21071427 0 1318.18241431 0 20955
0.13950000 0.13949800 11801.21596146 0 121.54201677 0 4130.05466363 0 130.40209109 0 1440.25479544 0 20506
0.14050000 0.14048300 11647.08919998 0 169.54054486 0 4297.40178094 0 273.24172464 0 1401.05876558 0 21447
0.14150000 0.14148400 11482.66517643 0 183.36987855 0 4062.09273389 0 93.29197650 0 1683.22589126 0 21771
0.14250000 0.14249400 11369.06312379 0 91.97038381 0 4022.84134241 0 439.53143493 0 1600.73707136 0 22470
0.14350000 0.14350900 11277.49499754 0 67.84412020 0 4023.72712840 0 275.98212503 0 1671.11276790 0 22519
0.14450000 0.14449900 10929.61362406 0 218.37060454 0 3481.74790085 0 688.17931169 0 1770.22114736 0 22218
0.14550000 0.14550500 10931.35197906 0 124.39424764 0 3306.71659011 0 623.46157312 0 1327.62710738 0 23559
0.14650000 0.14650700 10689.56562199 0 -161.39020656 0 2939.63580540 0 370.48331013 0 1075.02641066 0 23044
0.14750000 0.14750500 10909.80523496 0 -73.87045443 0 2900.63907739 0 -272.15663681 0 375.05839474 0 23649
0.14850000 0.14849900 10733.63347477 0 370.83873176 0 2691.49393389 0 -338.09454557 0 529.25601910 0 23640
0.14950000 0.14949500 10614.53954902 0 420.61215351 0 2987.64540582 0 -772.85713020 0 487.74144442 0 24457
0.15050000 0.15050000 10299.56512490 0 305.88847437 0 3241.40094601 0 -381.39840794 0 468.59739481 0 24591
0.15150000 0.15149900 10172.13373857 0 65.02355618 0 3558.09158047 0 -90.54216463 0 -51.52318125 0 25020
0.15250000 0.15250500 10122.58508500 0 227.30486343 0 3474.20764765 0 215.70217426 0 -25.53466333 0 25297
0.15350000 0.15350100 9951.18549681 0 230.47487003 0 3472.07068896 0 133.37058137 0 -137.75190030 0 25452
0.15450000 0.15450400 9750.37781390 0 124.02553922 0 3240.47087072 0 -125.32432292 0 -60.94827630 0 26061
0.15550000 0.15549900 9737.77750825 0 34.06389658 0 3198.07493899 0 213.20868671 0 -266.10893299 0 26128
0.15650000 0.15649500 9737.38997689 0 -98.38314218 0 2891.73692824 0 147.33278297 0 -516.12202740 0 26331
0.15750000 0.15749700 9759.49033722 0 33.62521107 0 2712.15489200 0 380.80825302 0 -448.26639198 0 27345
0.15850000 0.15849900 9711.95684678 0 156.59810438 0 2564.81546564 0 94.86402518 0 -434.75261954 0 26980
0.15950000 0.15949700 9589.37513871 0 196.70870826 0 2543.57874664 0 271.25645680 0 34.89232792 0 27777
0.16050000 0.16050000 9393.10710898 0 332.85401423 0 2898.28067220 0 118.31997024 0 42.44077465 0 28224
0.16150000 0.16150500 9162.68095717 0 232.79452208 0 2769.62025781 0 78.81214372 0 373.67103244 0 28075
0.16250000 0.16249700 9153.54628920 0 108.91104078 0 2885.43677541 0 350.02608279 0 654.08983803 0 28590
0.16350000 0.16349900 8968.47237986 0 -35.46631724 0 2829.10078674 0 172.23554872 0 723.91081111 0 29163
0.16450000 0.16449100 9113.43125638 0 -42.26693915 0 2966.29796356 0 5.71553407 0 453.23675859 0 28996
0.16550000 0.16550500 8977.91707293 0 211.36182293 0 2959.82065355 0 -153.43917010 0 565.09159837 0 30777
0.16650000 0.16650700 8831.19769675 0 190.80162297 0 2897.98171943 0 83.77797068 0 245.85543644 0 29211
0.16750000 0.16749900 8615.07698862 0 172.51567853 0 2803.22476364 0 -209.96006661 0 155.59495175 0 30922
0.16850000 0.16850800 8486.53836980 0 148.96816534 0 2810.31105152 0 141.06584712 0 22.95492237 0 30867
0.16950000 0.16949900 8418.07818545 0 77.09692988 0 2660.01531443 0 238.45801622 0 98.52132479 0 30852
0.17050000 0.17049200 8381.72774307 0 25.00452041 0 2518.64387115 0 188.48197092 0 -10.04605318 0 31257
0.17150000 0.17149500 8338.77819509 0 71.35559729 0 2451.40164252 0 254.24382972 0 -181.90058105 0 32608
0.17250000 0.17250900 8278.62225435 0 160.52656522 0 2357.36438784 0 -34.14339587 0 -192.21223715 0 32361
0.17350000 0.17350400 8138.62377935 0 140.83775723 0 2130.17135488 0 -36.10496894 0 82.19097436 0 32508
0.17450000 0.17449800 8094.94345794 0 52.30920559 0 2108.77962334 0 153.85991845 0 -313.00687200 0 32791
0.17550000 0.17549800 7961.74339037 0 52.84709913 0 2155.78164219 0 314.15728654 0 -155.65806400 0 33633
0.17650000 0.17650100 7969.71546424 0 97.12931211 0 1851.21520340 0 279.81314942 0 -534.55523376 0 33984
0.17750000 0.17750300 7895.68590050 0 111.26911380 0 1731.83339721 0 69.28330098 0 -289.39846102 0 34069
0.17850000 0.17849800 7741.29340323 0 143.01568352 0 1714.90381256 0 -56.31262607 0 -186.58860338 0 34536
