### header ###
fiducial parameters:
Omega_m = 0.31
Omega_nu = 0
Omega_de = 0.69
Omega_k = 0
H_0 = 100
w_de = -1
zeff = 0
beta = 0
fgrowth = 0
b_1 = 2
gamma = 0.55
Lx = 3500 Ly = 3500 Lz = 3500
nx = 700 ny = 700 nz = 700
xoffset = -685.467585 yoffset = -31.7331281 zoffset = 572.489161
bins = 400 dk = 0.001
kx_ny = 0.628318531 ky_ny = 0.628318531 kz_ny = 0.628318531
############################
A(data) = 8.0591353 (not used)
A(ran) = 8.05959933 (used)
Ngal = 479278
weighted Ngal = 0
Nran = 23820508
weighted Nran = 0
SN(data) = 3488.85804
SN(ran) = 70.2020332
SN(data+ran) = 3559.06008
############################
13 columns: k_central k_mean P_0(k) sigma^{lin}_{P_0(k)} P^img_1(k) sigma^{lin}_{P_1(k)} P_2(k) sigma^{lin}_{P_2(k)} P^img_3(k) sigma^{lin}_{P_3(k)} P_4(k) sigma^{lin}_{P_4(k)} N_modes
### header ###
0.00050000 0 0 0 0 0 0 0 0 0 0 0 0
0.00150000 0.00179520 38062.88813607 0 -53966.17899634 0 -1579.20139958 0 -2544.07700126 0 83813.84500996 0 3
0.00250000 0.00253879 60904.87279044 0 -34677.52482277 0 13394.96639585 0 -16024.64354028 0 -19406.79587939 0 6
0.00350000 0.00331552 72608.98446324 0 -1531.38002869 0 23015.15581453 0 -51990.87624869 0 46403.67042195 0 7
0.00450000 0.00420575 70405.59182433 0 24351.03180390 0 17759.12322312 0 -12637.06576202 0 61401.02366556 0 24
0.00550000 0.00557378 48188.97207571 0 11309.60473951 0 10850.20291046 0 15790.90676336 0 32222.79041047 0 45
0.00650000 0.00659388 66880.71721831 0 -17731.33168783 0 57439.12439895 0 65742.59295020 0 30349.24232791 0 40
0.00750000 0.00754703 79943.29242311 0 -14284.07407879 0 51925.32808576 0 31861.16828190 0 -5388.64582576 0 57
0.00850000 0.00846663 78440.22432898 0 3245.20982575 0 54766.81880397 0 35470.63544953 0 20048.99071887 0 75
0.00950000 0.00948925 78853.11132146 0 11357.32645948 0 44077.26425431 0 30084.50304150 0 28324.66773482 0 112
0.01050000 0.01054430 72659.80643415 0 12287.06957450 0 32492.29079656 0 37923.04467361 0 39320.26134247 0 105
0.01150000 0.01145670 68286.68102378 0 -7882.66484651 0 27480.07079765 0 41922.14695161 0 9324.40333348 0 144
0.01250000 0.01249090 68420.32398434 0 -4058.15098626 0 13187.91392175 0 25509.97204267 0 11357.88007572 0 169
0.01350000 0.01339930 81902.87246951 0 1364.63081692 0 1688.66240274 0 3186.28291306 0 -260.06012195 0 180
0.01450000 0.01448870 66032.24496746 0 -1043.65629999 0 -7295.99771600 0 -4002.33539685 0 11175.85105570 0 267
0.01550000 0.01550050 74295.07808662 0 -6735.67164623 0 -7655.03999289 0 -22013.77475794 0 7528.38366929 0 238
0.01650000 0.01653350 76469.57195775 0 -4496.50432583 0 35.90766011 0 -2879.71238348 0 13375.14693443 0 315
0.01750000 0.01747870 82634.42097028 0 1167.83131560 0 21250.11651519 0 -21376.00884838 0 10961.95588485 0 297
0.01850000 0.01844180 88139.69159336 0 8511.27394344 0 25965.48748571 0 860.47797265 0 24181.73595743 0 388
0.01950000 0.01947590 78719.46836090 0 4311.28647626 0 31821.52935904 0 7090.51751201 0 25835.38766909 0 399
0.02050000 0.02045430 75395.00283410 0 4066.36665127 0 34654.16221740 0 8698.44052218 0 24114.63766903 0 462
0.02150000 0.02154770 77064.70941676 0 244.60204927 0 38065.87766377 0 10532.94758743 0 17640.42790107 0 571
0.02250000 0.02255340 75137.57128207 0 3002.09478970 0 41320.91971395 0 13758.02792666 0 16338.76539539 0 510
0.02350000 0.02348930 68659.26475393 0 6008.99496838 0 26135.89056467 0 275.84814990 0 9923.46039546 0 555
0.02450000 0.02439640 65819.43488444 0 4079.50950083 0 25910.67947786 0 3232.33271198 0 13113.17572922 0 592
0.02550000 0.02547300 64152.27493650 0 2084.60873826 0 24728.15518723 0 3039.37530737 0 3919.19330978 0 837
0.02650000 0.02652900 60261.57071848 0 1722.57693366 0 21405.57195565 0 8500.14625700 0 10128.04374114 0 723
0.02750000 0.02749970 60772.89067860 0 4135.09257142 0 23642.40301551 0 6043.91708086 0 11682.96353239 0 826
0.02850000 0.02848090 57865.51962772 0 -616.65873675 0 18121.07752144 0 9487.43224411 0 21821.66992233 0 831
0.02950000 0.02946900 58680.88562737 0 -2559.68897925 0 22908.97221952 0 14164.38224750 0 10139.73611615 0 996
0.03050000 0.03053250 62719.73755146 0 -1810.70156689 0 21518.95256179 0 4415.17810003 0 14847.43396556 0 1041
0.03150000 0.03150510 59159.32078278 0 2965.79970895 0 14215.31494167 0 2696.69792656 0 14796.27982490 0 1036
0.03250000 0.03246190 61534.77734937 0 2547.42084335 0 26522.75759383 0 2223.86536750 0 24326.45124281 0 1059
0.03350000 0.03345080 56797.92606871 0 1797.51442803 0 13419.10406396 0 -802.73247703 0 25286.97542082 0 1302
0.03450000 0.03451200 57086.80302322 0 1844.69360409 0 19710.95264215 0 6165.88981106 0 18044.89992669 0 1339
0.03550000 0.03553350 54718.10057477 0 1062.71952163 0 19414.54650676 0 218.96851008 0 18802.24694429 0 1365
0.03650000 0.03647120 55203.28984832 0 944.09727692 0 19649.05834642 0 2692.22470733 0 15885.35369406 0 1308
0.03750000 0.03744890 56702.59335202 0 -1449.43375271 0 23075.61070804 0 -820.81801239 0 11052.57179117 0 1579
0.03850000 0.03847530 52916.63332678 0 2581.33537427 0 20480.81138679 0 -2268.53112582 0 13224.56331689 0 1662
0.03950000 0.03950240 54592.54041133 0 3307.92347352 0 23521.82539824 0 -1024.64843997 0 10687.61689282 0 1683
0.04050000 0.04050350 48253.74517590 0 3535.84727991 0 21086.46755437 0 -394.24119749 0 8800.28376586 0 1822
0.04150000 0.04152450 48119.99149209 0 2552.86842716 0 20908.42457129 0 615.80838221 0 10932.16025877 0 1887
0.04250000 0.04250150 46591.78922062 0 807.13372614 0 17981.67695198 0 5347.57857301 0 7586.51337459 0 1920
0.04350000 0.04349210 46617.69846070 0 -1725.33394254 0 18886.95022915 0 2767.98155374 0 5715.23511862 0 2005
0.04450000 0.04448520 47476.80014338 0 -8.87483373 0 16965.34825687 0 2685.82490358 0 5400.28283915 0 2151
0.04550000 0.04548030 45749.07457868 0 1515.94520790 0 16084.10192456 0 3133.03610301 0 6960.41769540 0 2274
0.04650000 0.04648670 45237.31172556 0 1288.73003029 0 15758.35412839 0 2322.49763698 0 7600.29841899 0 2311
0.04750000 0.04749250 43927.34497626 0 1243.35564319 0 14924.05445331 0 323.50454316 0 3491.91229503 0 2568
0.04850000 0.04851840 42031.20935107 0 2512.79768364 0 17909.15322442 0 -1857.54857320 0 3188.19842526 0 2493
0.04950000 0.04949480 40918.77287654 0 3109.26382162 0 17875.60408022 0 -2142.22911661 0 5040.63158439 0 2644
0.05050000 0.05050630 38330.28478044 0 1233.86666082 0 18108.78724090 0 -687.99329663 0 5580.45170860 0 2829
0.05150000 0.05149060 38243.03486087 0 1098.74775936 0 19413.77144402 0 2666.79157722 0 3790.77648654 0 2784
0.05250000 0.05249300 36903.06211131 0 1101.23017458 0 17691.91421147 0 4615.24393718 0 3520.08028937 0 3055
0.05350000 0.05348950 35020.43472240 0 1995.34365557 0 18347.94945698 0 4150.56060919 0 3090.18620596 0 3009
0.05450000 0.05448610 34316.34558718 0 893.68608925 0 13977.92429756 0 4393.55384966 0 4802.74268566 0 3336
0.05550000 0.05550870 32822.46752265 0 -192.56655155 0 14372.76340059 0 1901.82680015 0 5513.03232278 0 3349
0.05650000 0.05647670 34091.24522362 0 -699.22506292 0 13094.79567002 0 2357.03221809 0 6032.73403279 0 3324
0.05750000 0.05747970 34781.27250632 0 -2076.29342232 0 11485.65470413 0 -107.30145692 0 4542.06694246 0 3639
0.05850000 0.05849280 35955.04966034 0 233.78881685 0 12564.32058796 0 -829.23297925 0 3295.64426530 0 3846
0.05950000 0.05951020 36499.03297868 0 1006.96704447 0 10431.50294744 0 -1143.29504380 0 1972.36858157 0 3787
0.06050000 0.06049470 34987.32847119 0 455.33496414 0 11676.65230725 0 -732.50404240 0 1251.21699381 0 3930
0.06150000 0.06148310 35171.79340267 0 1081.76281308 0 12326.37632761 0 -584.22789736 0 -2246.09859574 0 4083
0.06250000 0.06249100 33858.28350943 0 687.34445839 0 12892.28284909 0 256.33317741 0 -1665.70947339 0 4303
0.06350000 0.06350600 33153.53003473 0 1741.33345190 0 12220.74634884 0 724.51978897 0 -3347.76169822 0 4470
0.06450000 0.06451750 32015.51648987 0 259.12340327 0 11103.21660489 0 674.93127504 0 -363.85541649 0 4479
0.06550000 0.06550280 32126.57190780 0 -482.35918733 0 12032.95971991 0 1556.14881931 0 -3247.95576230 0 4636
0.06650000 0.06648880 31394.35906754 0 941.34137527 0 10799.90133881 0 1001.41980974 0 -1388.56918318 0 4653
0.06750000 0.06749660 30956.67006746 0 1164.55390745 0 9788.80985334 0 2053.94947083 0 -561.95037982 0 5220
0.06850000 0.06852730 29755.10137814 0 101.72598776 0 8953.00434208 0 1321.27159293 0 712.02245595 0 5029
0.06950000 0.06949320 30436.93514047 0 123.61143428 0 8369.80284924 0 1787.39432315 0 -469.20415821 0 5040
0.07050000 0.07048030 28991.22168890 0 1278.65421471 0 6649.79469493 0 886.78803089 0 21.81059760 0 5475
0.07150000 0.07148790 28216.04822835 0 681.37426085 0 7842.99270669 0 696.78361530 0 -305.90619009 0 5509
0.07250000 0.07249820 28140.20280334 0 238.55102375 0 6543.16820693 0 -592.63400636 0 270.53011229 0 5916
0.07350000 0.07351270 27797.18218046 0 100.94605320 0 7669.77725723 0 -482.18535183 0 142.68351378 0 5721
0.07450000 0.07449140 27696.75619435 0 675.11729010 0 7051.32148216 0 115.92281192 0 251.84667140 0 6028
0.07550000 0.07549160 27505.75859123 0 359.06774324 0 8853.70773311 0 -258.39041536 0 1345.05494664 0 6183
0.07650000 0.07648840 26913.05704369 0 352.49521123 0 8922.65509976 0 547.71690627 0 1625.81588707 0 6330
0.07750000 0.07749960 27006.28601866 0 237.01086337 0 9993.38212669 0 1370.74274022 0 2038.95754303 0 6583
0.07850000 0.07848650 26716.52327816 0 605.86211282 0 9352.51596619 0 430.34915596 0 2936.76807327 0 6549
0.07950000 0.07947320 26642.78159487 0 488.30724022 0 9839.89756006 0 606.90844752 0 2940.83161648 0 6828
0.08050000 0.08048110 26229.23026289 0 350.27299564 0 9460.34933760 0 -159.19124285 0 2612.00571402 0 7147
0.08150000 0.08149960 25139.60277749 0 798.20389618 0 9049.48858055 0 48.19240450 0 1845.40223287 0 7386
0.08250000 0.08250610 24572.36757703 0 693.65236184 0 7934.93729198 0 1308.70450426 0 2415.07334479 0 7227
0.08350000 0.08350160 23943.57025058 0 124.91686137 0 7451.89604945 0 901.26288112 0 1113.28904354 0 7798
0.08450000 0.08449610 23967.15430244 0 -253.27057237 0 6303.19771113 0 2447.36024396 0 2278.42978421 0 7371
0.08550000 0.08548940 23936.37323945 0 92.73160614 0 6133.69149049 0 945.22001065 0 570.36202499 0 8256
0.08650000 0.08650700 23131.08305539 0 1380.90713441 0 5475.57464792 0 569.48952579 0 1358.62961687 0 8037
0.08750000 0.08749060 22434.19093130 0 1483.64723640 0 5936.55981942 0 170.84818642 0 3089.23398603 0 8155
0.08850000 0.08849210 21256.75991009 0 1002.77395506 0 5647.07388703 0 445.58024598 0 4031.86528714 0 8718
0.08950000 0.08949900 20628.73764637 0 -381.39508624 0 5355.52850223 0 469.92607379 0 2945.59271615 0 8571
0.09050000 0.09049190 20981.28046860 0 -251.08378821 0 5730.04988922 0 1067.14070093 0 1584.82614059 0 8932
0.09150000 0.09150830 21042.73187134 0 357.16330337 0 5663.54950636 0 -857.10091358 0 462.47772089 0 9285
0.09250000 0.09250820 21017.70841725 0 440.25002881 0 5295.73794821 0 -1166.29226245 0 -442.92067356 0 9204
0.09350000 0.09350330 20390.01832328 0 637.21007885 0 5293.23560280 0 -2268.84115091 0 -123.05892527 0 9349
0.09450000 0.09448040 19719.14616252 0 613.31932359 0 5688.10792281 0 -883.07769484 0 -369.62188326 0 9564
0.09550000 0.09549270 19699.99104058 0 295.91120248 0 6966.67355892 0 399.65113540 0 -699.31364152 0 10155
0.09650000 0.09649430 19091.23462205 0 603.90120410 0 5993.21690551 0 1020.50074710 0 -1872.96124935 0 9913
0.09750000 0.09749140 18467.64128827 0 528.36580418 0 6121.24619739 0 1017.38167319 0 -1387.07441933 0 10476
0.09850000 0.09850240 18131.81767652 0 449.97042277 0 6065.27559543 0 658.95280309 0 -0.20919829 0 10575
0.09950000 0.09950330 17693.46433695 0 312.28717088 0 6179.13231154 0 1305.89213376 0 486.73829180 0 10882
0.10050000 0.10051200 17578.97649832 0 250.14485507 0 5654.42591071 0 64.38435086 0 181.13326894 0 10875
0.10150000 0.10150300 17276.03769129 0 395.00186621 0 5778.13699591 0 -142.37902484 0 353.64562578 0 11118
0.10250000 0.10250800 17247.69253975 0 194.06131540 0 6718.85278483 0 -770.98369284 0 486.84680058 0 11575
0.10350000 0.10349800 16665.28825429 0 543.01891885 0 6707.13826517 0 -319.19076541 0 1073.24598083 0 11364
0.10450000 0.10450100 16581.47075541 0 495.40349320 0 7029.49792994 0 550.96884807 0 350.84211313 0 12093
0.10550000 0.10551000 16096.50292836 0 229.32666995 0 6427.45134025 0 618.59085743 0 986.47106400 0 12067
0.10650000 0.10649700 15892.55070520 0 110.44920815 0 5701.30613399 0 1161.52009045 0 1249.42327719 0 12054
0.10750000 0.10749900 16242.54689271 0 -251.49014254 0 5803.37082417 0 1014.43089863 0 1479.71656109 0 12807
0.10850000 0.10850100 16064.17173988 0 -31.16593701 0 4904.08767473 0 713.06657618 0 1109.10370476 0 12736
0.10950000 0.10950300 16040.14479503 0 211.56112477 0 5262.19987634 0 -172.28537418 0 1188.99052833 0 12933
0.11050000 0.11050200 15804.19355314 0 325.94377631 0 4843.53313029 0 0.90111340 0 1064.12681411 0 13428
0.11150000 0.11150900 15529.93206739 0 150.87039075 0 4902.80328505 0 150.36327827 0 1339.96167723 0 13453
0.11250000 0.11250000 15521.29565403 0 197.80597565 0 4770.30077394 0 73.06195327 0 654.95458660 0 13668
0.11350000 0.11349100 15300.62422039 0 243.39627309 0 4869.01054970 0 143.61801799 0 626.06246222 0 13791
0.11450000 0.11448600 15065.33731799 0 267.83289397 0 4648.05123562 0 270.11157842 0 526.00850623 0 14205
0.11550000 0.11549300 14639.93859846 0 322.46595909 0 4526.08957774 0 80.03652140 0 342.35074723 0 14776
0.11650000 0.11649800 14475.07168191 0 224.19464739 0 4094.75609211 0 23.40268718 0 704.92620297 0 14553
0.11750000 0.11747300 14325.48457361 0 -66.31835384 0 4388.19484445 0 495.62272523 0 528.97146035 0 14568
0.11850000 0.11849100 14337.55340767 0 45.56150940 0 4207.33949086 0 -10.86500661 0 -85.85026699 0 16015
0.11950000 0.11950300 14309.09753288 0 260.56169826 0 4301.35460090 0 -422.07591485 0 20.76105193 0 15270
0.12050000 0.12050700 14184.53387867 0 484.86374720 0 4581.98267343 0 -496.02907955 0 172.82570363 0 15999
0.12150000 0.12150000 13997.52231248 0 -19.74749131 0 4716.44498602 0 -36.26097800 0 498.78055227 0 15670
0.12250000 0.12250700 13664.13461220 0 307.26365711 0 5146.60480523 0 417.88836161 0 263.25338042 0 16887
0.12350000 0.12352200 13748.17355757 0 201.77872580 0 4906.24677807 0 423.92942203 0 144.20374397 0 16407
0.12450000 0.12449800 13566.36598405 0 11.89533072 0 4643.62230569 0 788.68391130 0 323.73706198 0 16306
0.12550000 0.12549900 13595.59692157 0 14.26170798 0 4409.67515460 0 406.39307398 0 623.30766781 0 17523
0.12650000 0.12650100 13482.54848517 0 64.63812855 0 4363.60321103 0 199.43914356 0 671.27187169 0 17154
0.12750000 0.12750600 13444.79185754 0 182.25489544 0 4193.42157857 0 -136.78639358 0 435.53654014 0 18007
0.12850000 0.12850300 13312.14540621 0 466.01311420 0 4129.06922672 0 -159.79468455 0 929.35226196 0 17496
0.12950000 0.12949900 12988.39062851 0 136.13755534 0 4250.70978718 0 140.04497877 0 1267.13899690 0 18405
0.13050000 0.13049000 12909.88784555 0 99.40954669 0 4328.59251995 0 681.07641531 0 1561.08707618 0 18100
0.13150000 0.13148800 13051.61360323 0 25.25608363 0 4366.14984574 0 519.23888684 0 1698.48355486 0 19059
0.13250000 0.13249300 12687.00194695 0 131.57132859 0 4125.59251673 0 1042.81812500 0 1929.75120334 0 18957
0.13350000 0.13349100 12560.99889051 0 352.65354547 0 3833.99177030 0 594.49858586 0 2279.68095691 0 19468
0.13450000 0.13450700 12445.29309616 0 226.20759604 0 3482.44545731 0 29.34121788 0 2124.51339690 0 19953
0.13550000 0.13551000 11912.49282589 0 387.39850075 0 3943.13167604 0 -505.61106945 0 2193.25038938 0 19956
0.13650000 0.13649900 11897.43446413 0 260.51187280 0 3399.30337025 0 -13.21581618 0 1930.39339818 0 19723
0.13750000 0.13749600 11594.49565709 0 144.81715077 0 3587.57718146 0 64.54788910 0 1752.88188669 0 20946
0.13850000 0.13851100 11566.15050556 0 17.06023808 0 3290.10810289 0 -88.77723606 0 413.45610998 0 20955
0.13950000 0.13949800 11492.40882227 0 33.96679229 0 3179.11911890 0 317.86540813 0 594.09776770 0 20506
0.14050000 0.14048300 11409.92000237 0 -26.91936827 0 2842.07755142 0 69.99602653 0 -7.15077310 0 21447
0.14150000 0.14148400 11292.11046630 0 225.68830401 0 2814.18636521 0 217.88563671 0 245.98276817 0 21771
0.14250000 0.14249400 11403.49805397 0 106.61419772 0 2977.87961533 0 -51.32299362 0 273.35355512 0 22470
0.14350000 0.14350900 11009.44508600 0 237.15148190 0 3155.50185007 0 -99.40677861 0 646.88950520 0 22519
0.14450000 0.14449900 11013.80758198 0 303.37284217 0 3171.94425242 0 212.86876634 0 535.19742860 0 22218
0.14550000 0.14550500 10830.06235161 0 77.00192934 0 3255.13062878 0 216.90130703 0 991.55769002 0 23559
0.14650000 0.14650700 10711.85421185 0 143.61912522 0 3135.39450820 0 367.64768774 0 929.60360373 0 23044
0.14750000 0.14750500 10559.56545629 0 111.11963741 0 2954.56129926 0 204.09173445 0 725.86618367 0 23649
0.14850000 0.14849900 10561.22630502 0 196.47951114 0 3036.75116639 0 -22.25393348 0 665.82871681 0 23640
0.14950000 0.14949500 10328.78499010 0 161.90949859 0 2866.68025717 0 -93.24314755 0 657.21112640 0 24457
0.15050000 0.15050000 10117.51396024 0 296.02635465 0 2799.48231785 0 -217.34420003 0 663.76594269 0 24591
0.15150000 0.15149900 10046.95003417 0 90.00205663 0 2779.50784387 0 466.03525885 0 886.55329760 0 25020
0.15250000 0.15250500 10026.97556019 0 -96.57425647 0 2690.33133979 0 556.43082590 0 333.95349609 0 25297
0.15350000 0.15350100 9983.00735834 0 74.47013154 0 2853.44882901 0 256.74838959 0 593.88185737 0 25452
0.15450000 0.15450400 9795.56397148 0 300.17626200 0 2654.83346642 0 -150.24369716 0 749.58310343 0 26061
0.15550000 0.15549900 9795.92935820 0 184.26784410 0 2820.70796452 0 -112.11946835 0 1283.80284575 0 26128
0.15650000 0.15649500 9499.47893351 0 95.94966663 0 2918.97484729 0 -44.57795478 0 1407.94575161 0 26331
0.15750000 0.15749700 9497.74057851 0 103.26260500 0 3103.26262157 0 12.55800936 0 1163.85635099 0 27345
0.15850000 0.15849900 9467.24739596 0 26.26388664 0 2907.26032763 0 187.48435446 0 703.35504008 0 26980
0.15950000 0.15949700 9409.48307738 0 176.60247362 0 3080.42041547 0 -38.65558968 0 1032.84971097 0 27777
0.16050000 0.16050000 9221.28677244 0 198.05621019 0 2854.17960245 0 -81.92734231 0 643.47037130 0 28224
0.16150000 0.16150500 9216.49245579 0 -9.13205491 0 2896.04406259 0 -5.62645722 0 678.63275323 0 28075
0.16250000 0.16249700 8989.48765236 0 81.46496202 0 2898.34710615 0 59.23682706 0 600.52414503 0 28590
0.16350000 0.16349900 9150.80035264 0 172.37284554 0 2851.37830427 0 127.50999984 0 202.47406780 0 29163
0.16450000 0.16449100 8969.83427581 0 188.37899830 0 2801.53069794 0 -126.86226884 0 466.59551849 0 28996
0.16550000 0.16550500 8821.48726789 0 205.40159048 0 2936.88986885 0 -269.94881524 0 284.05938599 0 30777
0.16650000 0.16650700 8702.79194583 0 129.40447462 0 2952.94473983 0 27.66309633 0 293.29149042 0 29211
0.16750000 0.16749900 8667.34943409 0 65.69420689 0 2913.77085463 0 94.45866737 0 243.29994387 0 30922
0.16850000 0.16850800 8607.71389261 0 22.83977019 0 2810.84252311 0 220.13774758 0 136.01575977 0 30867
0.16950000 0.16949900 8616.23958272 0 105.34519858 0 2945.57057150 0 423.07131686 0 206.18108215 0 30852
0.17050000 0.17049200 8377.69741683 0 92.75474730 0 2446.82877237 0 365.79418057 0 193.38258189 0 31257
0.17150000 0.17149500 8302.42775271 0 141.96713436 0 2392.35293427 0 202.69108536 0 49.00644182 0 32608
0.17250000 0.17250900 8160.07087252 0 139.16030002 0 2240.00881709 0 46.89971057 0 -32.76655228 0 32361
0.17350000 0.17350400 8065.52429089 0 134.20654189 0 2155.02872410 0 52.07491519 0 310.43809264 0 32508
0.17450000 0.17449800 7998.71388294 0 92.86668850 0 1765.99151927 0 202.29801783 0 160.10692411 0 32791
0.17550000 0.17549800 7952.24333568 0 -71.33312047 0 1996.71662385 0 54.68266914 0 173.84214305 0 33633
0.17650000 0.17650100 8075.78833600 0 -122.62046120 0 1786.92928551 0 292.39352488 0 -210.29666528 0 33984
0.17750000 0.17750300 8102.08510745 0 127.16454331 0 2140.47968929 0 -168.07678351 0 -306.30479378 0 34069
0.17850000 0.17849800 8028.07768836 0 313.00687200 0 2157.37605696 0 -654.33453641 0 120.51229056 0 34536
