### header ###
fiducial parameters:
Omega_m = 0.31
Omega_nu = 0
Omega_de = 0.69
Omega_k = 0
H_0 = 100
w_de = -1
zeff = 0
beta = 0
fgrowth = 0
b_1 = 2
gamma = 0.55
Lx = 3500 Ly = 3500 Lz = 3500
nx = 700 ny = 700 nz = 700
xoffset = -685.467585 yoffset = -31.7331281 zoffset = 572.489161
bins = 400 dk = 0.001
kx_ny = 0.628318531 ky_ny = 0.628318531 kz_ny = 0.628318531
############################
A(data) = 8.0138165 (not used)
A(ran) = 8.00923291 (used)
Ngal = 476427
weighted Ngal = 0
Nran = 23820508
weighted Nran = 0
SN(data) = 3489.63822
SN(ran) = 69.7633234
SN(data+ran) = 3559.40155
############################
13 columns: k_central k_mean P_0(k) sigma^{lin}_{P_0(k)} P^img_1(k) sigma^{lin}_{P_1(k)} P_2(k) sigma^{lin}_{P_2(k)} P^img_3(k) sigma^{lin}_{P_3(k)} P_4(k) sigma^{lin}_{P_4(k)} N_modes
### header ###
0.00050000 0 0 0 0 0 0 0 0 0 0 0 0
0.00150000 0.00179520 31520.69429372 0 -21090.01069832 0 29781.78568095 0 -22482.79843725 0 -4740.19512276 0 3
0.00250000 0.00253879 43464.96469184 0 -1084.37588174 0 9118.75704462 0 8955.52883214 0 51861.99438780 0 6
0.00350000 0.00331552 42469.67341389 0 9584.59189439 0 15441.79636183 0 -21289.42326830 0 31108.80381047 0 7
0.00450000 0.00420575 32995.97085256 0 11379.91400211 0 11143.85203697 0 -2035.34796514 0 21719.47236426 0 24
0.00550000 0.00557378 33858.17278619 0 -6989.89222406 0 33138.25022648 0 16467.86870277 0 -448.62845700 0 45
0.00650000 0.00659388 53937.39095181 0 -18340.64172260 0 32627.48388259 0 16195.37878899 0 -14570.07222886 0 40
0.00750000 0.00754703 54294.69487371 0 -11157.91388949 0 46088.33061112 0 18139.67902714 0 3206.52312283 0 57
0.00850000 0.00846663 77764.14817555 0 -13683.06828763 0 42163.30218616 0 -2815.45968256 0 -26914.38572267 0 75
0.00950000 0.00948925 81449.23932169 0 -8267.15132584 0 47403.94424607 0 -1638.17260157 0 -9835.87830615 0 112
0.01050000 0.01054430 88428.45782463 0 9658.07891421 0 41723.95233735 0 -5972.97669574 0 -7914.24311690 0 105
0.01150000 0.01145670 79548.89621307 0 12827.28830240 0 41924.69358632 0 -4716.66643252 0 7553.09709829 0 144
0.01250000 0.01249090 72890.11079038 0 6067.81115782 0 25998.70446017 0 17980.01610326 0 -2296.35587809 0 169
0.01350000 0.01339930 71314.96186168 0 2029.08102929 0 17621.82639537 0 14953.06394433 0 -16150.97876646 0 180
0.01450000 0.01448870 71891.49781499 0 -3819.06627645 0 6127.64600114 0 13201.53288127 0 -31378.41491980 0 267
0.01550000 0.01550050 76728.33218877 0 -3171.13597271 0 -2646.28563166 0 -60.54790104 0 -21182.46461055 0 238
0.01650000 0.01653350 74901.73076343 0 -2053.49550552 0 -2054.95705239 0 -13094.46350028 0 -20061.39172266 0 315
0.01750000 0.01747870 80160.19926631 0 -3653.38000786 0 3830.12752894 0 -15978.58266904 0 -21535.22887927 0 297
0.01850000 0.01844180 84580.16061066 0 3470.35447861 0 3188.92919869 0 -12117.33083503 0 -25282.32504440 0 388
0.01950000 0.01947590 76958.85799149 0 5673.51459870 0 24356.56796631 0 269.34980247 0 -9849.48619335 0 399
0.02050000 0.02045430 71818.64191768 0 5310.64129742 0 23741.16815289 0 5114.28468908 0 -7275.72428926 0 462
0.02150000 0.02154770 68347.68953353 0 6441.20316767 0 30030.35937313 0 13783.05138075 0 -13632.13559347 0 571
0.02250000 0.02255340 64721.06026243 0 1694.15427585 0 21595.35160304 0 9284.52081948 0 56.43973636 0 510
0.02350000 0.02348930 60746.98143852 0 -3282.81144083 0 18821.73423597 0 12060.75125521 0 -4742.32100913 0 555
0.02450000 0.02439640 64732.24331050 0 -887.86979702 0 21076.50246204 0 -187.69472863 0 2975.31083597 0 592
0.02550000 0.02547300 67356.16284602 0 1079.15195889 0 23407.11611311 0 -2059.89530926 0 -2077.07955738 0 837
0.02650000 0.02652900 66563.60583550 0 3052.93890527 0 25129.63768515 0 -11737.88226350 0 -3652.19526911 0 723
0.02750000 0.02749970 62585.20880492 0 7484.95801135 0 31403.88126689 0 -8865.66584391 0 9919.82867292 0 826
0.02850000 0.02848090 62079.53573045 0 2281.81791560 0 38456.73072987 0 -1376.47820448 0 4419.21949859 0 831
0.02950000 0.02946900 63729.42285168 0 17.03543607 0 40111.60039726 0 4029.10827826 0 5323.11980749 0 996
0.03050000 0.03053250 60551.22273573 0 3489.89713191 0 45138.87875792 0 10335.08514292 0 2558.23850470 0 1041
0.03150000 0.03150510 58596.18234250 0 2136.73724350 0 38118.80337640 0 15530.15351388 0 10037.82643852 0 1036
0.03250000 0.03246190 56344.84653713 0 997.09163796 0 36278.80443804 0 8068.80169904 0 9354.30968281 0 1059
0.03350000 0.03345080 56040.80049761 0 886.65184129 0 35452.47683682 0 8735.21171290 0 9148.13192236 0 1302
0.03450000 0.03451200 54370.09740572 0 129.22842466 0 31472.08678777 0 1891.13093438 0 6548.67115236 0 1339
0.03550000 0.03553350 52339.65448048 0 2182.31093246 0 25378.54354707 0 6521.65467981 0 8974.04175924 0 1365
0.03650000 0.03647120 51773.08361951 0 2456.01880197 0 24421.00889676 0 2295.79118952 0 5543.71373485 0 1308
0.03750000 0.03744890 50255.06788687 0 1044.68159727 0 19584.50669273 0 1981.17107980 0 -2428.84731687 0 1579
0.03850000 0.03847530 48898.48665009 0 1692.59307805 0 17307.92598676 0 -949.44853150 0 -1124.98141855 0 1662
0.03950000 0.03950240 46409.64947736 0 551.99082365 0 14297.58231507 0 -450.20737052 0 1625.53907895 0 1683
0.04050000 0.04050350 47085.83635403 0 -374.32983577 0 13691.26180800 0 5026.21541748 0 -285.13118703 0 1822
0.04150000 0.04152450 47215.71472415 0 -1099.97678741 0 11210.95032538 0 4925.52369557 0 663.21675538 0 1887
0.04250000 0.04250150 45456.76520346 0 2220.41080216 0 11202.75680501 0 2010.55702987 0 1850.42906834 0 1920
0.04350000 0.04349210 45212.17754822 0 2999.16062363 0 12845.33619186 0 974.19296301 0 1746.33814272 0 2005
0.04450000 0.04448520 42112.03732225 0 2463.28224705 0 13111.62560374 0 -315.38520737 0 10414.72837534 0 2151
0.04550000 0.04548030 41137.56201496 0 2421.69459504 0 15928.97865385 0 -1459.33241110 0 5189.45470228 0 2274
0.04650000 0.04648670 40448.75268799 0 1351.22223157 0 18238.77633427 0 -2811.34077773 0 4806.60692702 0 2311
0.04750000 0.04749250 37614.34825766 0 2093.78769553 0 19617.61294393 0 -1135.30082528 0 2752.28099715 0 2568
0.04850000 0.04851840 37078.44773644 0 2053.69480736 0 19424.17942935 0 -2202.58435920 0 2059.61850114 0 2493
0.04950000 0.04949480 36358.30373024 0 -927.92946822 0 18101.92239951 0 2571.87960888 0 -2103.17702698 0 2644
0.05050000 0.05050630 36347.78502166 0 -869.67796735 0 16996.24004312 0 1286.34948046 0 -6099.86553817 0 2829
0.05150000 0.05149060 35919.39677443 0 1587.00738858 0 15186.46855151 0 2480.03467450 0 -5534.37976503 0 2784
0.05250000 0.05249300 35398.00099872 0 1280.54758225 0 15006.10038021 0 1447.52931284 0 -6779.89451155 0 3055
0.05350000 0.05348950 33827.72389294 0 436.44114907 0 12554.79838861 0 1595.40021079 0 -3293.04226896 0 3009
0.05450000 0.05448610 34460.17508658 0 -122.41119427 0 14146.33435805 0 1909.78780169 0 -3958.75472636 0 3336
0.05550000 0.05550870 34450.76361048 0 -335.54569640 0 12553.24826314 0 1759.66922180 0 -1798.76560074 0 3349
0.05650000 0.05647670 33827.61316969 0 -383.82213984 0 12900.47636945 0 2070.30329459 0 -865.83476340 0 3324
0.05750000 0.05747970 34377.90771317 0 36.43403843 0 11933.75168954 0 1578.76957892 0 -762.95182842 0 3639
0.05850000 0.05849280 33100.05070585 0 1411.66605275 0 11480.22926497 0 1829.66845931 0 -481.74910223 0 3846
0.05950000 0.05951020 33246.42683996 0 1188.49227371 0 10448.60968929 0 1307.79657363 0 -28.27295998 0 3787
0.06050000 0.06049470 32229.21235887 0 100.27075211 0 10518.69750539 0 307.03003106 0 2212.00690762 0 3930
0.06150000 0.06148310 32228.32657288 0 238.97952272 0 12940.22601555 0 -743.57636722 0 1236.09219810 0 4083
0.06250000 0.06249100 32645.64249530 0 494.97277976 0 11027.23831198 0 -17.34955793 0 1631.49598970 0 4303
0.06350000 0.06350600 31620.56666359 0 1097.00276096 0 12281.42268884 0 270.82906506 0 2099.70031698 0 4470
0.06450000 0.06451750 31429.01544422 0 688.53916224 0 12098.17571309 0 -254.21282721 0 2106.04475911 0 4479
0.06550000 0.06550280 30590.17611596 0 38.20107075 0 13819.92222239 0 1818.96152121 0 1079.19071203 0 4636
0.06650000 0.06648880 30657.05295787 0 210.08296941 0 10540.63178085 0 2283.17981155 0 1255.50198351 0 4653
0.06750000 0.06749660 30089.81775741 0 -8.11832821 0 10424.57167211 0 1425.05249346 0 1406.48420474 0 5220
0.06850000 0.06852730 31097.95293215 0 -485.19702418 0 9053.51890679 0 608.00792937 0 2455.04443739 0 5029
0.06950000 0.06949320 30888.02165358 0 -428.28306015 0 11163.89294490 0 1306.65612417 0 2698.85702990 0 5040
0.07050000 0.07048030 30594.05142965 0 1037.06051609 0 9305.39215176 0 -807.95086371 0 2052.12253724 0 5475
0.07150000 0.07148790 30198.21581738 0 1402.32101061 0 11727.25283167 0 -1203.07452549 0 3801.15125489 0 5509
0.07250000 0.07249820 28682.85744270 0 1704.35188701 0 11283.80622268 0 -28.29909066 0 3281.23917071 0 5916
0.07350000 0.07351270 27592.78706431 0 893.86213921 0 12680.24782881 0 365.25938728 0 4083.69483961 0 5721
0.07450000 0.07449140 27494.46481992 0 -129.02801558 0 11535.59088906 0 2077.51137805 0 2916.08497051 0 6028
0.07550000 0.07549160 27102.83669108 0 98.56118516 0 11555.41035048 0 2027.92950751 0 3653.11427207 0 6183
0.07650000 0.07648840 27052.67905965 0 -207.24845426 0 9385.94331482 0 1862.21002195 0 2114.13862855 0 6330
0.07750000 0.07749960 27107.70851400 0 -333.13192959 0 8948.36503798 0 2773.63951172 0 1034.30350721 0 6583
0.07850000 0.07848650 27370.34405870 0 137.35440384 0 6898.00300039 0 279.16320396 0 2566.49845901 0 6549
0.07950000 0.07947320 26613.32921085 0 432.38978542 0 7264.69625374 0 799.67540814 0 2370.73975622 0 6828
0.08050000 0.08048110 26081.19328007 0 1341.52287503 0 7694.41317995 0 -974.30590072 0 2301.82560655 0 7147
0.08150000 0.08149960 25390.05876489 0 1126.12186801 0 7485.75521874 0 -652.85527382 0 2007.10246453 0 7386
0.08250000 0.08250610 24155.93744060 0 959.13570849 0 8239.79161122 0 -887.17556226 0 2451.21341300 0 7227
0.08350000 0.08350160 23549.72765678 0 728.85571137 0 8370.74399685 0 -522.96140244 0 793.83807850 0 7798
0.08450000 0.08449610 23073.28551983 0 842.77553973 0 8323.48731452 0 169.63687408 0 -207.06908260 0 7371
0.08550000 0.08548940 22090.50596893 0 549.27367514 0 7906.89109322 0 350.61734494 0 413.73513257 0 8256
0.08650000 0.08650700 21781.36665999 0 -58.63482476 0 6994.94120418 0 1079.22725070 0 -309.58773809 0 8037
0.08750000 0.08749060 22107.66807240 0 -69.61325626 0 6937.08830700 0 1386.03362080 0 -203.16055193 0 8155
0.08850000 0.08849210 21702.42098404 0 217.82806062 0 7102.13238075 0 508.46219309 0 -180.49993196 0 8718
0.08950000 0.08949900 21954.98071315 0 319.09332895 0 6680.93007232 0 696.19567485 0 1077.71255667 0 8571
0.09050000 0.09049190 21687.69479203 0 209.00673944 0 7859.13615628 0 -767.75168123 0 908.30045078 0 8932
0.09150000 0.09150830 21162.31297938 0 822.40910546 0 8743.00662957 0 -109.31905595 0 1838.58168079 0 9285
0.09250000 0.09250820 20666.71572050 0 977.41722399 0 8222.00945756 0 345.22290829 0 1597.74754366 0 9204
0.09350000 0.09350330 19720.91773449 0 226.70806513 0 7807.53912262 0 912.40939052 0 2054.17091733 0 9349
0.09450000 0.09448040 19789.23397862 0 242.69760940 0 7517.99782861 0 1106.79291057 0 1962.70244200 0 9564
0.09550000 0.09549270 19440.34502359 0 409.78452707 0 6955.68981270 0 363.91077812 0 641.29576671 0 10155
0.09650000 0.09649430 18654.09923821 0 691.35596168 0 6516.60569969 0 76.12223313 0 2431.15036043 0 9913
0.09750000 0.09749140 18159.71993506 0 827.35068403 0 6700.82704002 0 -101.91831404 0 1560.59989389 0 10476
0.09850000 0.09850240 17609.42539158 0 414.36736232 0 6277.36597733 0 329.25440143 0 2115.00226988 0 10575
0.09950000 0.09950330 17115.48898142 0 266.36248923 0 6263.91310268 0 809.52534830 0 1384.19561488 0 10882
0.10050000 0.10051200 17249.90700471 0 -139.36292356 0 5882.59330825 0 1141.02521721 0 701.06196161 0 10875
0.10150000 0.10150300 16732.94015893 0 181.83636157 0 5673.39280313 0 485.62663038 0 1143.78222609 0 11118
0.10250000 0.10250800 16696.29076378 0 407.76604226 0 5003.33999440 0 -482.20638925 0 -292.91946031 0 11575
0.10350000 0.10349800 16240.22170450 0 528.44331046 0 5472.52975859 0 -479.32537033 0 204.56562995 0 11364
0.10450000 0.10450100 16265.35588184 0 413.85582091 0 5566.60023025 0 -815.85871810 0 128.90068384 0 12093
0.10550000 0.10551000 15727.79451189 0 -5.47056996 0 5960.18816058 0 288.91127873 0 98.10744129 0 12067
0.10650000 0.10649700 16218.51994786 0 -31.52058357 0 6250.05055201 0 555.17965320 0 -315.55350670 0 12054
0.10750000 0.10749900 16097.16726784 0 -25.84634927 0 6057.50282341 0 841.47897050 0 683.48132427 0 12807
0.10850000 0.10850100 15961.97418181 0 245.18002462 0 6227.25263520 0 -101.60341713 0 734.31990367 0 12736
0.10950000 0.10950300 15867.97014410 0 439.93225309 0 6080.21216161 0 327.06208112 0 768.91316810 0 12933
0.11050000 0.11050200 15380.78785208 0 322.67522603 0 6057.11529204 0 -190.81158806 0 1010.93536568 0 13428
0.11150000 0.11150900 15058.14030686 0 431.57264785 0 5876.07170893 0 646.56397885 0 440.79921612 0 13453
0.11250000 0.11250000 14887.18361166 0 -79.47781189 0 5398.78807530 0 605.35610758 0 1597.52609716 0 13668
0.11350000 0.11349100 14938.33775232 0 -472.45831448 0 4879.63998153 0 1389.39960754 0 558.98853293 0 13791
0.11450000 0.11448600 15187.35433750 0 -104.09158996 0 4332.27960412 0 717.19544611 0 130.34340777 0 14205
0.11550000 0.11549300 15327.41924645 0 378.51185286 0 4355.35432904 0 -53.48608299 0 308.72520399 0 14776
0.11650000 0.11649800 14728.96009000 0 523.82947271 0 4617.95665676 0 -847.93302863 0 1493.43517154 0 14553
0.11750000 0.11747300 14617.57250233 0 506.52232178 0 5058.05942365 0 -122.79651117 0 1886.23696681 0 14568
0.11850000 0.11849100 14353.27610891 0 144.99762966 0 5368.98137689 0 224.44156024 0 1974.79342070 0 16015
0.11950000 0.11950300 14168.47900768 0 229.63669504 0 5089.99200843 0 648.97663843 0 1461.69081628 0 15270
0.12050000 0.12050700 13869.63696083 0 215.25817403 0 4575.59394201 0 977.70842614 0 1715.73423692 0 15999
0.12150000 0.12150000 13944.70732310 0 -66.02626591 0 4275.21284200 0 772.51388813 0 1742.05315302 0 15670
0.12250000 0.12250700 13627.59594029 0 -18.49233257 0 3473.75368233 0 613.27060536 0 1257.52821895 0 16887
0.12350000 0.12352200 13806.30326287 0 60.82160891 0 3531.37406068 0 360.50603824 0 1084.76562758 0 16407
0.12450000 0.12449800 13606.55852314 0 206.54425440 0 3028.87874344 0 -383.21869814 0 1299.70270419 0 16306
0.12550000 0.12549900 13522.51957776 0 219.34607635 0 3416.43225674 0 -204.11055740 0 1483.89082755 0 17523
0.12650000 0.12650100 13385.55491976 0 94.88528404 0 3334.71849958 0 -117.13190979 0 1495.06280329 0 17154
0.12750000 0.12750600 13377.80429238 0 171.06852568 0 3801.73808811 0 638.36824402 0 1468.71067022 0 18007
0.12850000 0.12850300 13199.31841631 0 154.67041262 0 3624.99056703 0 394.65198074 0 1459.90817199 0 17496
0.12950000 0.12949900 13150.48946386 0 130.50727817 0 3551.92429555 0 511.96326220 0 1621.25408925 0 18405
0.13050000 0.13049000 13034.56222301 0 124.02775369 0 3392.70426466 0 325.48759653 0 2170.52997885 0 18100
0.13150000 0.13148800 13012.41757337 0 122.75775803 0 2833.08682367 0 304.73030919 0 2058.85451073 0 19059
0.13250000 0.13249300 12860.39455361 0 -153.16679091 0 2937.60956996 0 196.45736649 0 1982.25616763 0 18957
0.13350000 0.13349100 12769.15859710 0 124.63119539 0 2980.78056443 0 276.88341227 0 1735.84157879 0 19468
0.13450000 0.13450700 12699.29222750 0 335.21684835 0 2761.81426881 0 -42.15854109 0 1367.19959628 0 19953
0.13550000 0.13551000 12252.85609081 0 547.80216317 0 2727.18003678 0 -101.23238352 0 695.10615809 0 19956
0.13650000 0.13649900 11817.82444869 0 411.42323115 0 2722.14212899 0 -353.36992489 0 664.31623724 0 19723
0.13750000 0.13749600 11471.03923537 0 334.11625926 0 2876.03637164 0 -307.14961217 0 361.80592917 0 20946
0.13850000 0.13851100 11311.81920447 0 210.45278506 0 2804.63094889 0 -116.14204395 0 677.95401972 0 20955
0.13950000 0.13949800 11012.84428972 0 131.59458047 0 2845.44353817 0 430.69350526 0 399.03994307 0 20506
0.14050000 0.14048300 10975.76307390 0 138.06081816 0 3186.44899793 0 206.33277300 0 512.22124737 0 21447
0.14150000 0.14148400 11025.06813632 0 46.59643960 0 2918.34372478 0 148.60277862 0 377.08463019 0 21771
0.14250000 0.14249400 10760.57244105 0 232.87645728 0 2982.10924341 0 -304.70373561 0 670.91312836 0 22470
0.14350000 0.14350900 10896.11984148 0 216.43959109 0 3223.50806910 0 -255.60683290 0 953.29837884 0 22519
0.14450000 0.14449900 10512.03196585 0 256.06633438 0 3552.11252507 0 -279.86408212 0 644.51781323 0 22218
0.14550000 0.14550500 10423.40907800 0 353.33117175 0 3697.55858389 0 -135.51750515 0 757.51199524 0 23559
0.14650000 0.14650700 10139.34858478 0 129.74993115 0 3801.43913534 0 -63.29649495 0 647.91923141 0 23044
0.14750000 0.14750500 10070.10226536 0 3.27669952 0 3525.07390786 0 256.67863395 0 493.49351717 0 23649
0.14850000 0.14849900 10353.44305747 0 -220.55628146 0 3585.52880137 0 126.65743083 0 151.60116418 0 23640
0.14950000 0.14949500 10344.49661902 0 20.26977288 0 3392.30566096 0 -260.60598756 0 -109.48558372 0 24457
0.15050000 0.15050000 10209.09315881 0 304.57529665 0 3527.15550493 0 -204.27221335 0 28.57335215 0 24591
0.15150000 0.15149900 10038.32469313 0 178.41058427 0 3321.50921607 0 143.31242183 0 135.91500161 0 25020
0.15250000 0.15250500 9955.40405257 0 138.38413005 0 3551.25995606 0 340.60796330 0 398.40328439 0 25297
0.15350000 0.15350100 9799.18462170 0 142.78648640 0 3393.49039972 0 569.30461797 0 268.22928320 0 25452
0.15450000 0.15450400 9801.96377523 0 -2.89918860 0 3107.03828433 0 367.45060036 0 295.54138683 0 26061
0.15550000 0.15549900 9711.82397888 0 16.90744000 0 2794.54406098 0 344.97156651 0 707.84376056 0 26128
0.15650000 0.15649500 9758.19487522 0 44.07759642 0 3003.70027680 0 305.30385562 0 242.92569929 0 26331
0.15750000 0.15749700 9623.83221355 0 232.74469662 0 2785.96300924 0 -75.13269946 0 532.72165677 0 27345
0.15850000 0.15849900 9357.05561937 0 315.06853888 0 2761.26065257 0 -118.50598530 0 261.86933982 0 26980
0.15950000 0.15949700 9221.39749569 0 169.43092884 0 2695.26959665 0 -99.88521376 0 358.49973298 0 27777
0.16050000 0.16050000 9188.55698028 0 -29.02288854 0 2855.32005191 0 -107.58690146 0 38.88356885 0 28224
0.16150000 0.16150500 9151.53112608 0 117.48622419 0 2883.49911857 0 49.37670036 0 -13.12469095 0 28075
0.16250000 0.16249700 8979.42290910 0 157.31337656 0 2705.71079896 0 -62.20409938 0 -371.40784925 0 28590
0.16350000 0.16349900 8877.56859309 0 170.82272007 0 2792.94964620 0 108.41931884 0 -104.42065945 0 29163
0.16450000 0.16449100 8767.86399879 0 118.40079822 0 2736.71330845 0 349.53336434 0 -49.74662673 0 28996
0.16550000 0.16550500 8700.87643364 0 -60.39853538 0 2419.35833450 0 467.99948927 0 43.36608883 0 30777
0.16650000 0.16650700 8815.85145456 0 -52.12230474 0 2339.95869322 0 393.95774598 0 101.63508398 0 29211
0.16750000 0.16749900 8797.22780421 0 143.67670131 0 2203.56979611 0 20.49498396 0 -151.65209688 0 30922
0.16850000 0.16850800 8565.18509299 0 268.20381685 0 2241.96861858 0 -159.65960219 0 356.29855480 0 30867
0.16950000 0.16949900 8467.73756226 0 221.66905010 0 2200.87922118 0 -71.13215778 0 489.12548503 0 30852
0.17050000 0.17049200 8285.18814297 0 7.08724010 0 2182.33307711 0 68.32742718 0 185.49908662 0 31257
0.17150000 0.17149500 8305.89339038 0 -18.86502703 0 2261.32304236 0 303.56439339 0 296.76266425 0 32608
0.17250000 0.17250900 8234.62083553 0 19.07230095 0 1975.32489230 0 330.06268115 0 24.27086817 0 32361
0.17350000 0.17350400 8356.77072292 0 94.33775758 0 1999.05288438 0 56.58832696 0 57.90139396 0 32508
0.17450000 0.17449800 8100.05887200 0 260.26274549 0 2005.85129182 0 -205.34955055 0 -6.97776803 0 32791
0.17550000 0.17549800 7989.73422751 0 249.84258060 0 2093.57732136 0 -285.72023471 0 109.54493138 0 33633
0.17650000 0.17650100 7815.40047324 0 124.88585886 0 2093.42230881 0 -55.90671464 0 117.85825430 0 33984
0.17750000 0.17750300 7815.53334114 0 -74.15988500 0 2195.21019087 0 65.14778766 0 114.58527508 0 34069
0.17850000 0.17849800 7847.73166171 0 68.50502727 0 2269.12903136 0 148.92609051 0 -57.39815680 0 34536
