### header ###
fiducial parameters:
Omega_m = 0.31
Omega_nu = 0
Omega_de = 0.69
Omega_k = 0
H_0 = 100
w_de = -1
zeff = 0
beta = 0
fgrowth = 0
b_1 = 2
gamma = 0.55
Lx = 3500 Ly = 3500 Lz = 3500
nx = 700 ny = 700 nz = 700
xoffset = -685.467585 yoffset = -31.7331281 zoffset = 572.489161
bins = 400 dk = 0.001
kx_ny = 0.628318531 ky_ny = 0.628318531 kz_ny = 0.628318531
############################
A(data) = 8.06035516 (not used)
A(ran) = 8.0588433 (used)
Ngal = 478645
weighted Ngal = 0
Nran = 23820508
weighted Nran = 0
SN(data) = 3487.29568
SN(ran) = 70.1954478
SN(data+ran) = 3557.49113
############################
13 columns: k_central k_mean P_0(k) sigma^{lin}_{P_0(k)} P^img_1(k) sigma^{lin}_{P_1(k)} P_2(k) sigma^{lin}_{P_2(k)} P^img_3(k) sigma^{lin}_{P_3(k)} P_4(k) sigma^{lin}_{P_4(k)} N_modes
### header ###
0.00050000 0 0 0 0 0 0 0 0 0 0 0 0
0.00150000 0.00179520 43983.59238634 0 -41739.78576184 0 27659.88535271 0 5044.05293276 0 -88465.21794303 0 3
0.00250000 0.00253879 78410.32905197 0 -39189.38646312 0 -8249.77884820 0 -24197.90155166 0 76304.15142496 0 6
0.00350000 0.00331552 91838.84459202 0 -21974.80017457 0 -10862.60391426 0 -52281.30332868 0 4872.80835711 0 7
0.00450000 0.00420575 87151.70804979 0 7153.30866606 0 -19691.24390398 0 -58590.97834984 0 9563.74270676 0 24
0.00550000 0.00557378 74415.76642714 0 16188.62467085 0 -594.98023199 0 -27138.37885375 0 14986.28091879 0 45
0.00650000 0.00659388 34483.31624545 0 12332.35538301 0 -1543.34921182 0 -23570.21145769 0 14453.25920202 0 40
0.00750000 0.00754703 55232.96367884 0 962.98555582 0 -4927.52778637 0 24063.92642136 0 -6266.79190713 0 57
0.00850000 0.00846663 43827.14043665 0 -8768.80514640 0 -1993.37278175 0 9349.83646358 0 -9038.62662991 0 75
0.00950000 0.00948925 56370.20216096 0 -3899.04167861 0 -11912.49282589 0 11545.00236515 0 -2833.21969157 0 112
0.01050000 0.01054430 51863.87668302 0 -4762.86017166 0 -15612.86378028 0 5347.76680253 0 11065.68142376 0 105
0.01150000 0.01145670 47942.39140200 0 4648.36126071 0 -16565.41588442 0 -11916.70030932 0 3387.48919967 0 144
0.01250000 0.01249090 51936.17896409 0 1750.09166084 0 -11721.71666926 0 -5604.94369110 0 18176.99276178 0 169
0.01350000 0.01339930 48053.88971293 0 -5362.02795690 0 -7892.10953959 0 -16229.03865643 0 17540.33408471 0 180
0.01450000 0.01448870 60449.68951714 0 -11274.94836283 0 2186.54056054 0 -6288.85905049 0 10261.53168915 0 267
0.01550000 0.01550050 75290.14791807 0 -17799.20503897 0 6968.84373458 0 -713.14408245 0 -8041.43091209 0 238
0.01650000 0.01653350 86846.99767078 0 -4119.60238900 0 14046.12981844 0 -16803.13869828 0 -16919.06593913 0 315
0.01750000 0.01747870 92304.21440415 0 6932.88082357 0 6250.42701105 0 -14008.92680705 0 -8318.83693810 0 297
0.01850000 0.01844180 85748.95521852 0 6192.27516110 0 22150.51796945 0 -19101.31043764 0 13717.61394107 0 388
0.01950000 0.01947590 78787.78460503 0 8424.54442314 0 25076.82269577 0 8108.89458721 0 4373.20291665 0 399
0.02050000 0.02045430 78060.55431095 0 5408.71995066 0 36272.05031990 0 10823.05357000 0 -1820.44521273 0 462
0.02150000 0.02154770 68561.49612578 0 7412.19069265 0 29240.34899732 0 18427.89164217 0 2686.10171170 0 571
0.02250000 0.02255340 64848.50272110 0 4230.49172206 0 30462.40148756 0 18249.73793584 0 15540.22932947 0 510
0.02350000 0.02348930 62375.38824960 0 -247.64472413 0 29284.85974309 0 10889.08891522 0 22486.45230444 0 555
0.02450000 0.02439640 64923.01946713 0 882.96254266 0 27232.82578445 0 11809.52020507 0 32890.89449003 0 592
0.02550000 0.02547300 61219.10536879 0 2360.47571111 0 23472.55355279 0 6955.14726878 0 31866.59372106 0 837
0.02650000 0.02652900 62350.14334902 0 -2426.04601869 0 20603.71419228 0 6221.50609862 0 33476.06685670 0 723
0.02750000 0.02749970 67838.14114538 0 -4140.14155154 0 15750.60350102 0 6754.09599472 0 20725.84193503 0 826
0.02850000 0.02848090 64986.13171859 0 1348.09983597 0 20643.79600813 0 40.30226583 0 15977.80760630 0 831
0.02950000 0.02946900 64583.54198819 0 4073.64116868 0 23856.98467050 0 -3663.09043673 0 6319.79512604 0 996
0.03050000 0.03053250 58753.74152467 0 4964.98546123 0 23210.58234758 0 -9206.38342323 0 5960.98536796 0 1041
0.03150000 0.03150510 56931.56902927 0 5690.42203870 0 23076.05360104 0 2174.06205047 0 2081.15417291 0 1036
0.03250000 0.03246190 52951.95404295 0 3860.58749452 0 21471.00939533 0 -370.90405847 0 677.34172015 0 1059
0.03350000 0.03345080 52768.48562070 0 -1422.57229270 0 22031.37975440 0 4433.21491716 0 2610.07912950 0 1302
0.03450000 0.03451200 54623.65364407 0 -1239.65748670 0 22796.69884586 0 1035.63329342 0 -8972.33662122 0 1339
0.03550000 0.03553350 54576.70698684 0 -177.35982064 0 20155.72793012 0 444.18402582 0 -13015.40710107 0 1365
0.03650000 0.03647120 52913.53307583 0 1807.50166502 0 22868.44751069 0 -5321.16000599 0 -12699.07078100 0 1308
0.03750000 0.03744890 54502.07951756 0 2290.53183523 0 23549.28476379 0 -1957.50952166 0 -8647.49675569 0 1579
0.03850000 0.03847530 51609.98827493 0 1193.22015641 0 20203.67109658 0 3141.77216729 0 -6079.94642582 0 1662
0.03950000 0.03950240 51220.35316456 0 531.80708274 0 20798.58710909 0 10143.65571913 0 -7736.16691684 0 1683
0.04050000 0.04050350 48984.29716744 0 988.76524970 0 16212.20872271 0 3953.99362669 0 -4176.73558506 0 1822
0.04150000 0.04152450 47636.35234401 0 3876.04445996 0 17969.16522493 0 9163.11277784 0 1766.48977389 0 1887
0.04250000 0.04250150 43475.37267717 0 2022.53728532 0 11190.02363147 0 4592.60103293 0 4178.35214449 0 1920
0.04350000 0.04349210 41527.86146481 0 2274.62090447 0 13478.11955524 0 3930.95211874 0 12032.40610367 0 2005
0.04450000 0.04448520 42108.93707130 0 -252.03157922 0 9628.33864975 0 4196.32252767 0 13115.50091743 0 2151
0.04550000 0.04548030 42582.50040379 0 -1094.66650043 0 12218.64260712 0 2770.74963494 0 13078.07645954 0 2274
0.04650000 0.04648670 41500.29137602 0 508.28060696 0 12542.61883131 0 -1173.62214148 0 10447.28101031 0 2311
0.04750000 0.04749250 43344.49779781 0 81.54036455 0 15511.77345468 0 -3508.64257783 0 6442.47648503 0 2568
0.04850000 0.04851840 42439.55669038 0 -562.67783156 0 14640.71366120 0 -1434.67434373 0 3904.82143217 0 2493
0.04950000 0.04949480 42779.25561582 0 671.12571700 0 15851.14021037 0 -2365.67970378 0 -511.48493776 0 2644
0.05050000 0.05050630 43126.37299888 0 647.37115133 0 15621.05730064 0 -781.03736378 0 -1467.94667981 0 2829
0.05150000 0.05149060 40889.32049252 0 2895.96655632 0 14727.96358077 0 470.08219357 0 -4231.33321874 0 2784
0.05250000 0.05249300 37416.59653640 0 3523.45734844 0 14758.08030428 0 3274.47398024 0 -3795.57080318 0 3055
0.05350000 0.05348950 35146.43777884 0 2048.77869514 0 13477.56593900 0 2941.18593088 0 1041.36654322 0 3009
0.05450000 0.05448610 33789.52437231 0 104.86454896 0 12583.36498665 0 4308.97236037 0 -55.31534178 0 3336
0.05550000 0.05550870 34676.52831353 0 -910.98991848 0 11816.82793945 0 2209.19453712 0 2114.76975106 0 3349
0.05650000 0.05647670 34486.97011264 0 56.24796369 0 12511.28415208 0 2062.44194397 0 2942.85785192 0 3324
0.05750000 0.05747970 34768.65005602 0 1272.87446115 0 12189.19022310 0 -2951.10673391 0 3451.32115225 0 3639
0.05850000 0.05849280 34510.88633425 0 844.34227370 0 13290.44364957 0 -94.30409771 0 6074.03380436 0 3846
0.05950000 0.05951020 33799.48946465 0 961.16637286 0 14649.01790481 0 472.16600510 0 3850.66669148 0 3787
0.06050000 0.06049470 32865.76031269 0 1555.22981635 0 14202.02815188 0 193.43572905 0 5749.42645766 0 3930
0.06150000 0.06148310 31794.62360974 0 764.25946998 0 13268.40972318 0 2247.26118984 0 4353.16200872 0 4083
0.06250000 0.06249100 31413.73563597 0 -363.10249841 0 12056.54377178 0 1290.32444507 0 4017.31625233 0 4303
0.06350000 0.06350600 32320.22686888 0 -957.05300419 0 11865.43544541 0 2220.82047818 0 1366.85635421 0 4470
0.06450000 0.06451750 31744.24453181 0 120.42481919 0 11484.43674840 0 -1057.22432682 0 173.13683596 0 4479
0.06550000 0.06550280 32422.31370370 0 878.77831111 0 11470.48561912 0 -1342.06541894 0 -584.38955330 0 4636
0.06650000 0.06648880 31406.98151783 0 842.15548954 0 12491.35396740 0 -1950.64468028 0 -704.01827234 0 4653
0.06750000 0.06749660 30753.60363029 0 664.82667141 0 11826.23941555 0 -586.78671162 0 -1488.02080470 0 5220
0.06850000 0.06852730 31042.92347780 0 414.54562675 0 13321.22471256 0 -431.77305693 0 -3781.26535952 0 5029
0.06950000 0.06949320 30088.93197142 0 1004.97291877 0 12492.57192313 0 137.93016473 0 -2098.92525425 0 5040
0.07050000 0.07048030 29815.22410191 0 1227.85438844 0 14175.45457232 0 -474.54101877 0 -1212.12061487 0 5475
0.07150000 0.07148790 28732.01856490 0 601.48300836 0 13241.06108087 0 1672.50788083 0 -908.16758288 0 5509
0.07250000 0.07249820 28398.63086461 0 -176.30130639 0 12961.70632570 0 3630.30528294 0 -1072.14207005 0 5916
0.07350000 0.07351270 28662.48436504 0 -126.06506146 0 12868.92024372 0 3446.78149907 0 948.63028670 0 5721
0.07450000 0.07449140 27762.19363403 0 755.39607396 0 11054.25478454 0 1992.77487621 0 1340.07240048 0 6028
0.07550000 0.07549160 27289.73753402 0 1251.05090893 0 10030.35261926 0 1264.09410757 0 3293.92805495 0 6183
0.07650000 0.07648840 25958.17975133 0 748.17691818 0 8993.78371439 0 772.23708001 0 4091.78870906 0 6330
0.07750000 0.07749960 25912.22960333 0 -6.65699171 0 9130.67086612 0 1577.16409182 0 4556.58276029 0 6583
0.07850000 0.07848650 25273.35646130 0 213.62722059 0 7984.74060902 0 1256.14417835 0 3067.63188031 0 6549
0.07950000 0.07947320 25293.06519947 0 -28.91161167 0 8075.78833600 0 619.09132651 0 1969.14653505 0 6828
0.08050000 0.08048110 25408.21737759 0 -65.62577992 0 7696.24011354 0 -270.77148898 0 2194.62335765 0 7147
0.08150000 0.08149960 25192.30704363 0 420.68523086 0 8444.85106686 0 -1023.76929738 0 1121.87009527 0 7386
0.08250000 0.08250610 24823.26645742 0 719.85169683 0 8316.34566501 0 -315.72402051 0 1167.95311117 0 7227
0.08350000 0.08350160 24497.18649151 0 387.76167301 0 9325.89809733 0 -757.50756631 0 218.41046491 0 7798
0.08450000 0.08449610 24259.68512415 0 688.06858844 0 8809.90561613 0 -989.95441739 0 809.92173753 0 7371
0.08550000 0.08548940 23822.99263330 0 538.87454767 0 9992.48526838 0 -10.94824835 0 -383.97493792 0 8256
0.08650000 0.08650700 22927.02010898 0 891.86247735 0 8550.10458658 0 602.39979685 0 -475.12895922 0 8037
0.08750000 0.08749060 22738.01552432 0 763.36371890 0 9174.10759639 0 1440.31015706 0 -1311.83797219 0 8155
0.08850000 0.08849210 21960.51687556 0 187.48546169 0 8284.45736953 0 585.81345427 0 -706.48518631 0 8718
0.08950000 0.08949900 21685.70177356 0 497.00676583 0 8359.45022553 0 980.32370926 0 375.07943216 0 8571
0.09050000 0.09049190 20795.92975113 0 601.98458467 0 7993.32166075 0 650.58544723 0 440.01308106 0 8932
0.09150000 0.09150830 20267.22624104 0 982.97220935 0 8137.74906569 0 844.92910691 0 1796.81687157 0 9285
0.09250000 0.09250820 19748.37710004 0 558.67297168 0 7884.66893731 0 997.47916933 0 2703.76206979 0 9204
0.09350000 0.09350330 19276.03172328 0 -24.30408515 0 7397.01053532 0 1731.26870864 0 2666.21581633 0 9349
0.09450000 0.09448040 19242.92547207 0 -165.66744563 0 6618.92505334 0 1155.02063578 0 2720.68058211 0 9564
0.09550000 0.09549270 19221.99877816 0 68.28612741 0 5576.68711816 0 1001.12528590 0 1100.23255811 0 10155
0.09650000 0.09649430 18586.66878007 0 202.41538447 0 5435.65891694 0 -12.01845497 0 1567.54224155 0 9913
0.09750000 0.09749140 18585.00793135 0 501.36815458 0 4605.23455555 0 -747.04864828 0 126.41383969 0 10476
0.09850000 0.09850240 18261.91749314 0 367.12064508 0 4726.22184884 0 15.30206362 0 55.10574267 0 10575
0.09950000 0.09950330 17762.22347407 0 26.92567949 0 4643.63337802 0 83.95612438 0 -1193.00978223 0 10882
0.10050000 0.10051200 17668.77305260 0 381.99631348 0 5153.42535732 0 -476.13986248 0 -1988.99921345 0 10875
0.10150000 0.10150300 17649.39648417 0 651.31289897 0 5552.29478658 0 -732.41767827 0 -1945.63998946 0 11118
0.10250000 0.10250800 16947.30036742 0 667.91474280 0 6191.85441276 0 -699.68456440 0 -1945.00886694 0 11575
0.10350000 0.10349800 16384.82626663 0 587.23181908 0 6257.69045613 0 -364.58176100 0 -283.76818385 0 11364
0.10450000 0.10450100 16163.37977026 0 658.72914213 0 6943.57668935 0 -83.32776995 0 -1435.15045369 0 12093
0.10550000 0.10551000 15562.81687210 0 391.18080691 0 6643.49454211 0 821.82670118 0 -78.81579759 0 12067
0.10650000 0.10649700 15388.98137244 0 -94.18562384 0 5997.32473802 0 913.94401474 0 -160.49777718 0 12054
0.10750000 0.10749900 15403.48611796 0 -310.34287064 0 5717.27242638 0 1609.81637771 0 -212.56317017 0 12807
0.10850000 0.10850100 15664.79298368 0 403.95716252 0 5508.51481425 0 729.28421034 0 67.28219972 0 12736
0.10950000 0.10950300 15223.89300940 0 265.30065328 0 4804.41460671 0 363.18221914 0 640.08888330 0 12933
0.11050000 0.11050200 15025.36622540 0 -8.88972601 0 4830.89960767 0 338.58837126 0 1480.73521497 0 13428
0.11150000 0.11150900 15278.47957075 0 -145.53131572 0 4552.79602520 0 783.50317051 0 1106.70322474 0 13453
0.11250000 0.11250000 15454.19736563 0 -94.97419481 0 4731.64728800 0 61.42571495 0 524.60342821 0 13668
0.11350000 0.11349100 15213.26357757 0 326.16411558 0 4519.32438728 0 -155.15980938 0 604.05621664 0 13791
0.11450000 0.11448600 14817.64941180 0 575.90925972 0 4798.01480296 0 -750.05035554 0 922.24936558 0 14205
0.11550000 0.11549300 14414.94895815 0 549.01901167 0 5166.63464083 0 -516.31468585 0 800.89225664 0 14776
0.11650000 0.11649800 14322.16287617 0 213.81655734 0 5213.01660949 0 243.82255760 0 1289.12863399 0 14553
0.11750000 0.11747300 13826.67634053 0 89.31557249 0 5379.28971129 0 355.14149686 0 841.14237182 0 14568
0.11850000 0.11849100 14404.20880307 0 -177.24466846 0 5287.92088689 0 584.30540363 0 738.24504282 0 16015
0.11950000 0.11950300 13981.24599500 0 62.67146222 0 5440.65253544 0 550.28900732 0 740.53037066 0 15270
0.12050000 0.12050700 14100.05204031 0 374.23904271 0 5099.11560408 0 -276.96866918 0 1016.27554794 0 15999
0.12150000 0.12150000 13739.64786746 0 297.40043016 0 4627.29062658 0 29.29150314 0 1655.60044083 0 15670
0.12250000 0.12250700 13587.18195471 0 25.87668744 0 4443.13572020 0 485.04976226 0 1434.27574003 0 16887
0.12350000 0.12352200 13551.30762229 0 -116.75212905 0 4213.11924442 0 947.49869510 0 864.90468812 0 16407
0.12450000 0.12449800 13655.38747559 0 -35.69485003 0 4032.48533733 0 787.87341712 0 541.20084311 0 16306
0.12550000 0.12549900 13379.13297136 0 290.07719453 0 3569.07532669 0 102.48023453 0 84.69354122 0 17523
0.12650000 0.12650100 13244.60422482 0 447.32192267 0 3754.99073272 0 -442.12014447 0 675.69637269 0 17154
0.12750000 0.12750600 13019.61458450 0 329.46477561 0 4057.56415304 0 -656.64975953 0 545.02854580 0 18007
0.12850000 0.12850300 12617.91064008 0 216.75072342 0 4503.23629932 0 -288.84263031 0 923.70648353 0 17496
0.12950000 0.12949900 12822.19503299 0 41.65773983 0 5097.68727418 0 -412.60354097 0 510.30352071 0 18405
0.13050000 0.13049000 12730.73762998 0 108.42042607 0 4910.12209175 0 248.51390162 0 674.05766861 0 18100
0.13150000 0.13148800 12686.11616096 0 174.50316084 0 4947.48011569 0 412.24258318 0 657.50232854 0 19059
0.13250000 0.13249300 12588.45825606 0 -96.00657838 0 4581.71693763 0 570.78941673 0 800.42721900 0 18957
0.13350000 0.13349100 12671.61141545 0 -72.66257452 0 4525.93456519 0 827.02294321 0 860.94522476 0 19468
0.13450000 0.13450700 12711.47178480 0 -46.98186722 0 4359.81647594 0 563.47725342 0 466.96533413 0 19953
0.13550000 0.13551000 12350.62471896 0 477.71102537 0 3914.12218502 0 -217.27112268 0 705.60493649 0 19956
0.13650000 0.13649900 12106.47995671 0 428.42810760 0 3964.39053969 0 -261.19171354 0 1146.11848663 0 19723
0.13750000 0.13749600 11820.48180664 0 356.71708868 0 4352.48659691 0 -539.48131107 0 922.52285201 0 20946
0.13850000 0.13851100 11644.54256527 0 208.38004585 0 4207.26198459 0 68.63269117 0 797.72667898 0 20955
0.13950000 0.13949800 11483.77240891 0 132.60548373 0 4553.16141192 0 42.21689224 0 311.29066165 0 20506
0.14050000 0.14048300 11442.69408383 0 138.86577618 0 4354.81178512 0 249.75621647 0 1144.32477001 0 21447
0.14150000 0.14148400 11401.39431226 0 -35.29093162 0 4137.81636333 0 387.20694954 0 559.76138121 0 21771
0.14250000 0.14249400 11195.11690089 0 75.96888143 0 3703.74801346 0 743.82992346 0 379.82060165 0 22470
0.14350000 0.14350900 11224.79073140 0 123.02349383 0 3963.46046441 0 183.62786372 0 511.60784057 0 22519
0.14450000 0.14449900 11047.30136456 0 198.06838975 0 3111.21255079 0 277.26762195 0 802.95060183 0 22218
0.14550000 0.14550500 10967.25952844 0 31.30456251 0 3487.82660717 0 -103.39414422 0 816.58506261 0 23559
0.14650000 0.14650700 11022.68758648 0 80.81656668 0 3593.78875569 0 -334.68759122 0 775.63185480 0 23044
0.14750000 0.14750500 10824.06115156 0 328.52805693 0 3880.40695594 0 -36.59968041 0 488.16994339 0 23649
0.14850000 0.14849900 10512.65201604 0 401.24665741 0 3822.44333552 0 -213.36037756 0 926.93738791 0 23640
0.14950000 0.14949500 10444.12539774 0 138.57235957 0 3915.58373189 0 145.14267712 0 597.29656234 0 24457
0.15050000 0.15050000 10386.87040610 0 43.71431345 0 3898.72058119 0 416.79552315 0 526.63409258 0 24591
0.15150000 0.15149900 10311.55645268 0 -36.81990895 0 3489.17743080 0 619.05810954 0 474.17895375 0 25020
0.15250000 0.15250500 10258.69717400 0 65.30058574 0 3254.64344649 0 211.75599769 0 301.64223780 0 25297
0.15350000 0.15350100 10089.99923306 0 225.41703205 0 3186.82545698 0 8.99791369 0 -19.85489286 0 25452
0.15450000 0.15450400 9864.28989163 0 362.84562047 0 3107.97943194 0 127.13575527 0 121.52208658 0 26061
0.15550000 0.15549900 9562.23687058 0 295.62553650 0 2912.22072915 0 86.04890450 0 357.82875009 0 26128
0.15650000 0.15649500 9431.72737794 0 46.31033072 0 2969.04390012 0 254.90041858 0 275.11959093 0 26331
0.15750000 0.15749700 9401.52207584 0 -59.57752249 0 2576.05387533 0 413.51147161 0 52.70205167 0 27345
0.15850000 0.15849900 9419.07171067 0 -0.18200688 0 2516.58441873 0 178.79479394 0 -307.20829549 0 26980
0.15950000 0.15949700 9307.65090602 0 179.87988177 0 2551.57296516 0 -177.58458884 0 224.94313655 0 27777
0.16050000 0.16050000 9318.87824339 0 224.00198894 0 2671.64125549 0 -161.65040619 0 64.44380925 0 28224
0.16150000 0.16150500 9045.58004989 0 247.62811564 0 2855.68543863 0 -348.01091968 0 192.26981324 0 28075
0.16250000 0.16249700 8924.79205845 0 148.51087833 0 3051.26698422 0 -155.06126569 0 -22.35889912 0 28590
0.16350000 0.16349900 8796.85134517 0 92.03327462 0 3117.39090804 0 -0.83246056 0 -32.65461108 0 29163
0.16450000 0.16449100 8843.12259058 0 85.81151385 0 3112.02083050 0 96.47549133 0 199.85435574 0 28996
0.16550000 0.16550500 8809.80596520 0 -29.12530754 0 3002.41588712 0 229.90243084 0 -86.75232929 0 30777
0.16650000 0.16650700 8669.10993373 0 63.19806198 0 2881.45073848 0 211.36735909 0 60.49431099 0 29211
0.16750000 0.16749900 8775.53711989 0 118.32439917 0 2830.61769524 0 259.25848563 0 -26.36951662 0 30922
0.16850000 0.16850800 8634.36497845 0 13.83985241 0 2693.09942099 0 350.45901069 0 459.82036293 0 30867
0.16950000 0.16949900 8610.95808379 0 -6.30703981 0 2599.13967258 0 480.10264753 0 119.06956663 0 30852
0.17050000 0.17049200 8605.96446529 0 175.57496188 0 2505.06920092 0 134.96056721 0 467.30304004 0 31257
0.17150000 0.17149500 8379.52435043 0 193.03491089 0 2387.11572463 0 378.46424186 0 841.29406267 0 32608
0.17250000 0.17250900 8221.46691364 0 191.60658099 0 2218.81638738 0 298.47444567 0 974.63807046 0 32361
0.17350000 0.17350400 8107.87593333 0 56.42600668 0 1990.97008726 0 221.20511969 0 1004.50788113 0 32508
0.17450000 0.17449800 8081.41307701 0 58.81220340 0 1922.46561361 0 205.36837350 0 618.36941094 0 32791
0.17550000 0.17549800 7927.81778713 0 143.79074626 0 1756.95650222 0 69.96790282 0 828.39591149 0 33633
0.17650000 0.17650100 7828.07828516 0 121.57191204 0 1625.87124869 0 4.13761706 0 734.79379917 0 33984
0.17750000 0.17750300 7849.55859531 0 52.58579226 0 1785.20200284 0 -14.89858811 0 607.17861224 0 34069
0.17850000 0.17849800 7770.53541308 0 50.72575241 0 1801.34545242 0 10.50892064 0 740.51044048 0 34536
