### header ###
fiducial parameters:
Omega_m = 0.31
Omega_nu = 0
Omega_de = 0.69
Omega_k = 0
H_0 = 100
w_de = -1
zeff = 0
beta = 0
fgrowth = 0
b_1 = 2
gamma = 0.55
Lx = 3500 Ly = 3500 Lz = 3500
nx = 700 ny = 700 nz = 700
xoffset = -685.467585 yoffset = -31.7331281 zoffset = 572.489161
bins = 400 dk = 0.001
kx_ny = 0.628318531 ky_ny = 0.628318531 kz_ny = 0.628318531
############################
A(data) = 8.0941127 (not used)
A(ran) = 8.10134334 (used)
Ngal = 480850
weighted Ngal = 0
Nran = 23820508
weighted Nran = 0
SN(data) = 3480.03758
SN(ran) = 70.5656386
SN(data+ran) = 3550.60322
############################
13 columns: k_central k_mean P_0(k) sigma^{lin}_{P_0(k)} P^img_1(k) sigma^{lin}_{P_1(k)} P_2(k) sigma^{lin}_{P_2(k)} P^img_3(k) sigma^{lin}_{P_3(k)} P_4(k) sigma^{lin}_{P_4(k)} N_modes
### header ###
0.00050000 0 0 0 0 0 0 0 0 0 0 0 0
0.00150000 0.00179520 50724.53445918 0 -35280.52363239 0 45758.48605477 0 -13229.98875606 0 -161691.37379166 0 3
0.00250000 0.00253879 80573.97204478 0 -25788.99462810 0 8005.06939738 0 9948.60564513 0 99221.53861135 0 6
0.00350000 0.00331552 63105.16517840 0 14427.46068519 0 11177.06901143 0 -28308.05924759 0 52997.12912821 0 7
0.00450000 0.00420575 39887.60726618 0 36043.84970539 0 -7141.29519363 0 -3653.50180343 0 33842.89297794 0 24
0.00550000 0.00557378 43073.89017924 0 -21691.01648947 0 947.80650573 0 21568.77802347 0 -15429.50608128 0 45
0.00650000 0.00659388 35254.39294582 0 -14607.49668674 0 -2123.94870834 0 -4816.46129611 0 -1010.36403372 0 40
0.00750000 0.00754703 54702.37787353 0 8598.88924973 0 -3172.43143471 0 -7236.69434427 0 -18356.36442384 0 57
0.00850000 0.00846663 48806.69707734 0 10673.51075100 0 14532.09415473 0 -24470.83435844 0 16465.10062157 0 75
0.00950000 0.00948925 52782.54747322 0 -6659.18402638 0 17672.98053603 0 -16085.76277328 0 -5156.20451085 0 112
0.01050000 0.01054430 59091.33670839 0 -8704.38636061 0 29267.47619313 0 -26068.68155302 0 -17614.74010749 0 105
0.01150000 0.01145670 65895.39103270 0 -355.51241974 0 39156.61238165 0 -5938.64141648 0 -15057.58669062 0 144
0.01250000 0.01249090 79989.24257111 0 -4274.62600879 0 58539.49203943 0 -30265.86772203 0 -5607.96643577 0 169
0.01350000 0.01339930 78264.94942710 0 5186.94128454 0 55697.00481199 0 4885.58581995 0 -6556.49928601 0 180
0.01450000 0.01448870 79635.92468614 0 4490.50312578 0 63772.60491847 0 6919.76011866 0 -18302.88509497 0 267
0.01550000 0.01550050 71703.60046282 0 -1843.34278046 0 52593.21071883 0 20522.44332811 0 -8990.65024647 0 238
0.01650000 0.01653350 75713.33217264 0 -476.41224167 0 50289.94571005 0 22616.88429081 0 -25903.48246673 0 315
0.01750000 0.01747870 72027.35524051 0 -402.42918170 0 32727.57769895 0 17142.17328423 0 -23572.97953890 0 297
0.01850000 0.01844180 74916.12478570 0 6156.53369659 0 36039.42077546 0 5582.19006359 0 -28382.68671687 0 388
0.01950000 0.01947590 65687.12060286 0 1090.36047331 0 18810.32974141 0 11022.22254884 0 -7712.94825169 0 399
0.02050000 0.02045430 71174.67550623 0 -10121.92074551 0 19763.65690829 0 14480.94001407 0 -4253.90968905 0 462
0.02150000 0.02154770 74657.14310819 0 -9788.77663637 0 8435.91570073 0 18842.43948338 0 -12850.09729153 0 571
0.02250000 0.02255340 88562.98657118 0 -2171.40469251 0 16206.11894406 0 6825.42391121 0 -20541.15555706 0 510
0.02350000 0.02348930 74795.76861492 0 15396.73199982 0 17690.80697899 0 -12815.21946835 0 -3699.41873446 0 555
0.02450000 0.02439640 68643.43132944 0 13408.69607863 0 20946.62409192 0 -15021.93380471 0 17996.62459048 0 592
0.02550000 0.02547300 64533.71652650 0 -2267.72284611 0 26390.66475875 0 -9172.57961556 0 15384.99533551 0 837
0.02650000 0.02652900 68958.54969378 0 -907.44788177 0 31758.30638433 0 1198.59023394 0 9402.23070463 0 723
0.02750000 0.02749970 71962.58214032 0 -44.13572613 0 40474.55120482 0 -96.18296051 0 -7738.01599508 0 826
0.02850000 0.02848090 67838.69476162 0 5274.24656574 0 26617.75814078 0 2015.38456349 0 -2466.70359542 0 831
0.02950000 0.02946900 63476.42022957 0 5159.48191899 0 22708.56314031 0 -599.07477771 0 -13121.47997283 0 996
0.03050000 0.03053250 64032.91527495 0 1712.27967158 0 25216.66615823 0 6582.87356373 0 -18825.49882641 0 1041
0.03150000 0.03150510 56148.97711109 0 4219.15366144 0 21907.70188617 0 -6867.52089017 0 -16325.92149860 0 1036
0.03250000 0.03246190 56017.88078523 0 889.36566811 0 19503.34655180 0 5764.63983196 0 -13782.05487151 0 1059
0.03350000 0.03345080 52793.39835155 0 1322.45633169 0 19571.21990294 0 -975.61797121 0 -15941.26893440 0 1302
0.03450000 0.03451200 56571.05413317 0 -1805.07682588 0 13861.88633346 0 4978.54905913 0 -22091.05958517 0 1339
0.03550000 0.03553350 54722.08661171 0 -879.04736861 0 18498.20090477 0 1232.13937814 0 -19884.23452557 0 1365
0.03650000 0.03647120 56102.25190035 0 2241.63644883 0 13364.84967235 0 -2856.81481576 0 -12434.55294108 0 1308
0.03750000 0.03744890 53095.00847961 0 1861.60104408 0 16550.35752267 0 3206.15773611 0 -16403.20632583 0 1579
0.03850000 0.03847530 51628.92195037 0 4330.30873030 0 17339.81428224 0 -208.05009057 0 -12371.99430586 0 1662
0.03950000 0.03950240 48219.19952247 0 4196.94257786 0 18202.34838561 0 3377.01478039 0 -7069.23650371 0 1683
0.04050000 0.04050350 46209.90473763 0 187.63715254 0 15362.96140912 0 4250.13402629 0 -6640.46072511 0 1822
0.04150000 0.04152450 44724.88453295 0 134.78341002 0 19233.62471922 0 1318.53672870 0 -3547.97147559 0 1887
0.04250000 0.04250150 46282.64991169 0 2452.54209198 0 18822.73074520 0 3793.40062752 0 1447.89469956 0 1920
0.04350000 0.04349210 43003.80236314 0 1927.45923211 0 18255.38482149 0 2686.56674935 0 2834.42657497 0 2005
0.04450000 0.04448520 43683.64310701 0 1111.59497784 0 16966.45548936 0 419.17828745 0 3031.18178700 0 2151
0.04550000 0.04548030 43494.08490611 0 -891.21363912 0 18620.43937077 0 2564.95940586 0 -1209.62934179 0 2274
0.04650000 0.04648670 42399.03198155 0 146.46028377 0 16277.31399264 0 -289.87346375 0 -394.95093351 0 2311
0.04750000 0.04749250 43204.32216561 0 -302.90005390 0 15824.01301457 0 -860.20559346 0 -4517.80747878 0 2568
0.04850000 0.04851840 42241.69424587 0 982.03106175 0 13490.07766605 0 2118.20217176 0 -3558.46803952 0 2493
0.04950000 0.04949480 41094.26922492 0 1226.73608363 0 13004.22405300 0 2685.35986594 0 -1802.39732328 0 2644
0.05050000 0.05050630 39897.12946552 0 1669.31905128 0 11114.95326920 0 1122.56765174 0 -4234.01272135 0 2829
0.05150000 0.05149060 37720.97474567 0 3005.28361925 0 12385.05964915 0 2008.67473465 0 287.96348772 0 2784
0.05250000 0.05249300 36796.65706981 0 1537.24836085 0 13141.85305050 0 789.36375204 0 2403.43633141 0 3055
0.05350000 0.05348950 35323.81642243 0 1161.18792071 0 14422.25669253 0 -436.40903933 0 4795.51245755 0 3009
0.05450000 0.05448610 35379.06732328 0 1018.13459128 0 15965.84949550 0 -1440.31015706 0 3657.14459830 0 3336
0.05550000 0.05550870 33840.67851297 0 971.46584940 0 17775.84243360 0 138.07853388 0 4992.09051238 0 3349
0.05650000 0.05647670 33727.51935333 0 755.72713647 0 17234.40574997 0 2430.36422537 0 7603.28794669 0 3324
0.05750000 0.05747970 32751.16175082 0 374.11946160 0 16022.76124506 0 3069.23736740 0 4436.53661461 0 3639
0.05850000 0.05849280 32191.34500799 0 -158.36635465 0 15026.58418113 0 3391.33129638 0 4067.47388375 0 3846
0.05950000 0.05951020 32820.14233444 0 496.05565313 0 13202.97228350 0 2420.10018026 0 4414.23695242 0 3787
0.06050000 0.06049470 31900.69648150 0 -124.91353967 0 13021.60760297 0 2893.67458508 0 4352.02155927 0 3930
0.06150000 0.06148310 31270.12758308 0 930.91456699 0 12421.26615130 0 -1474.76723189 0 6303.89526760 0 4083
0.06250000 0.06249100 32116.38536897 0 799.12179190 0 11486.31904362 0 -240.64258591 0 3516.99111075 0 4303
0.06350000 0.06350600 29957.94636882 0 -0.14036608 0 12430.56690415 0 -477.51061629 0 4248.08564620 0 4470
0.06450000 0.06451750 30615.53173980 0 1554.47689826 0 12387.93845360 0 -2242.25649902 0 1386.87511748 0 4479
0.06550000 0.06550280 29457.92018001 0 303.04842305 0 12003.17516615 0 -575.78192799 0 2365.85686097 0 4636
0.06650000 0.06648880 29593.11326604 0 241.32796282 0 12816.21597758 0 -312.02586402 0 154.27734509 0 4653
0.06750000 0.06749660 29050.34790343 0 92.65775374 0 12809.90475244 0 -46.95861534 0 -11.06284691 0 5220
0.06850000 0.06852730 29235.03428141 0 -392.32236360 0 12282.97281432 0 3059.87018061 0 -1369.28119335 0 5029
0.06950000 0.06949320 29867.15330531 0 -587.60163473 0 11274.83763958 0 3360.12948504 0 837.90260958 0 5040
0.07050000 0.07048030 30139.53249584 0 -735.50796412 0 9439.53336694 0 3645.33042772 0 -1419.38346315 0 5475
0.07150000 0.07148790 30319.34705090 0 593.22637574 0 8977.77313270 0 1571.80508661 0 1246.53340041 0 5509
0.07250000 0.07249820 29202.92453944 0 1655.56722386 0 8441.46293546 0 -806.23576060 0 1564.98453452 0 5916
0.07350000 0.07351270 27848.55776762 0 1356.64767073 0 9201.06870732 0 -335.69738725 0 3285.22520764 0 5721
0.07450000 0.07449140 27047.80723673 0 569.52717170 0 8218.52167524 0 -1416.80361147 0 692.91051608 0 6028
0.07550000 0.07549160 27718.67939750 0 -127.40149106 0 9448.14763565 0 -366.19942766 0 -135.09564958 0 6183
0.07650000 0.07648840 27070.06260962 0 257.53895358 0 8650.55271734 0 -429.68924540 0 -792.12740432 0 6330
0.07750000 0.07749960 27289.07319453 0 630.89331754 0 9938.38588932 0 -333.18839844 0 -413.10622452 0 6583
0.07850000 0.07848650 26540.14114380 0 616.30220789 0 9220.55599900 0 133.03508993 0 72.82079804 0 6549
0.07950000 0.07947320 25818.66845862 0 1024.20443975 0 10410.72019376 0 1677.59007792 0 595.16071088 0 6828
0.08050000 0.08048110 25297.27268291 0 582.77963727 0 10081.37389203 0 1885.14080665 0 1796.79472692 0 7147
0.08150000 0.08149960 24505.93362812 0 237.14816020 0 8878.39901746 0 982.65332640 0 822.80328023 0 7386
0.08250000 0.08250610 24786.83850877 0 142.09003717 0 8820.04786566 0 1270.57141759 0 2097.17582693 0 7227
0.08350000 0.08350160 23901.38469302 0 332.68792936 0 7236.46182545 0 1114.57343322 0 992.39586501 0 7798
0.08450000 0.08449610 23640.40999704 0 462.41903756 0 7616.61902577 0 -187.30941172 0 1250.47514804 0 7371
0.08550000 0.08548940 23211.02524058 0 636.18921050 0 6433.58540820 0 1170.64368610 0 470.05894169 0 8256
0.08650000 0.08650700 22465.08271754 0 870.60582817 0 6311.75661822 0 -493.28203576 0 -57.89984383 0 8037
0.08750000 0.08749060 21378.00186685 0 860.55880062 0 5911.64708857 0 28.39298398 0 136.30142575 0 8155
0.08850000 0.08849210 21650.49178064 0 251.52889567 0 6672.24936967 0 -283.56334584 0 116.53511148 0 8718
0.08950000 0.08949900 20990.02760520 0 339.54834182 0 6771.97779931 0 -444.07994597 0 220.47877518 0 8571
0.09050000 0.09049190 20763.82000916 0 764.34583411 0 8000.68475676 0 598.52559040 0 1717.05184358 0 8932
0.09150000 0.09150830 20119.96432095 0 1013.17197530 0 7654.98463127 0 -512.64310294 0 844.72205444 0 9285
0.09250000 0.09250820 19041.96277661 0 773.69973412 0 8274.81337462 0 430.64035810 0 2328.24417357 0 9204
0.09350000 0.09350330 18857.27639864 0 435.38706375 0 8498.39682968 0 898.91333380 0 2041.36023751 0 9349
0.09450000 0.09448040 18214.74938941 0 -33.05598285 0 7408.50360848 0 1032.67587547 0 2820.47544570 0 9564
0.09550000 0.09549270 18410.06519921 0 157.33662844 0 6635.89892729 0 1334.63588899 0 1527.02860504 0 10155
0.09650000 0.09649430 17985.10937267 0 207.87514784 0 5871.01165649 0 1049.00423288 0 1600.29417836 0 9913
0.09750000 0.09749140 17745.61498684 0 -242.54148962 0 4882.43020738 0 541.53079839 0 1163.15879452 0 10476
0.09850000 0.09850240 17994.29940227 0 525.33641611 0 4299.97056030 0 135.59611866 0 239.22089940 0 10575
0.09950000 0.09950330 17250.90351395 0 310.86880607 0 4710.74273874 0 178.35300818 0 360.19158421 0 10882
0.10050000 0.10051200 17029.56774082 0 224.11714112 0 4169.09568094 0 474.13798615 0 876.91151715 0 10875
0.10150000 0.10150300 17046.72984429 0 -183.96667686 0 4068.47039299 0 492.16815989 0 1155.57425202 0 11118
0.10250000 0.10250800 17454.19139762 0 -393.55803505 0 4136.54304597 0 488.14226258 0 61.78002934 0 11575
0.10350000 0.10349800 17729.00649962 0 -43.89412800 0 4058.33921578 0 -26.65628983 0 1015.00776675 0 11364
0.10450000 0.10450100 17462.93853422 0 117.63348611 0 4917.24159661 0 -768.22889843 0 983.77384567 0 12093
0.10550000 0.10551000 17423.41033462 0 359.26925955 0 4762.14047055 0 44.10793459 0 1647.18547397 0 12067
0.10650000 0.10649700 17006.86947494 0 516.36340408 0 4682.92905880 0 326.65572680 0 1652.24552641 0 12054
0.10750000 0.10749900 16838.23796796 0 520.65503718 0 4563.27044448 0 358.87508479 0 995.83050017 0 12807
0.10850000 0.10850100 16315.95640626 0 358.16424154 0 4546.34085984 0 335.98637492 0 654.78960896 0 12736
0.10950000 0.10950300 15805.74367862 0 808.14020047 0 4467.64984735 0 498.17157440 0 1910.50750281 0 12933
0.11050000 0.11050200 15301.62072962 0 493.36397097 0 4405.42338187 0 264.71382007 0 1343.53803814 0 13428
0.11150000 0.11150900 14756.08728581 0 297.19116322 0 4564.30017069 0 604.01524904 0 1544.09105758 0 13453
0.11250000 0.11250000 14721.65235562 0 496.38228671 0 5112.57955106 0 91.48198356 0 1530.83748478 0 13668
0.11350000 0.11349100 14376.30654453 0 433.68303296 0 4884.06891145 0 -460.17246286 0 2013.57977454 0 13791
0.11450000 0.11448600 14268.35137755 0 -190.42959286 0 4571.12072278 0 -132.36189258 0 2399.18455868 0 14205
0.11550000 0.11549300 14491.01582965 0 -228.51728300 0 5001.07016781 0 11.10720264 0 1727.64805843 0 14776
0.11650000 0.11649800 14713.90172825 0 -146.74816422 0 4735.45616774 0 -28.59483246 0 420.39956488 0 14553
0.11750000 0.11747300 14554.23880437 0 132.03304453 0 5221.21012986 0 -457.80741428 0 290.51898029 0 14568
0.11850000 0.11849100 14170.13985641 0 587.61824322 0 4671.19239449 0 -131.10739818 0 -240.23733882 0 16015
0.11950000 0.11950300 13946.70034157 0 208.12648962 0 4501.26542550 0 421.86332622 0 -333.28915660 0 15270
0.12050000 0.12050700 13655.05530584 0 44.93315496 0 4528.68050175 0 211.63088042 0 -50.77247763 0 15999
0.12150000 0.12150000 13785.48729221 0 -17.30294344 0 3943.80708785 0 670.76143751 0 135.48207371 0 15670
0.12250000 0.12250700 13962.86593580 0 -194.22629304 0 4290.66980745 0 507.76463663 0 68.47114596 0 16887
0.12350000 0.12352200 13916.36217156 0 155.30817853 0 4053.82170725 0 407.40729893 0 365.28263916 0 16407
0.12450000 0.12449800 13559.05824967 0 394.23012517 0 3933.91950179 0 93.86496931 0 784.46757001 0 16306
0.12550000 0.12549900 13391.09108217 0 348.24122403 0 3753.59561979 0 115.06802845 0 777.64480345 0 17523
0.12650000 0.12650100 13030.79763257 0 119.34748199 0 3624.25979359 0 -120.74480938 0 166.65620424 0 17154
0.12750000 0.12750600 12996.25197913 0 160.99049563 0 3763.15103611 0 137.40090760 0 362.59649316 0 18007
0.12850000 0.12850300 12855.85490043 0 253.00594380 0 3142.11540936 0 135.18865711 0 127.44688759 0 17496
0.12950000 0.12949900 12743.69225002 0 122.22517921 0 3454.03387183 0 204.23346021 0 72.82832722 0 18405
0.13050000 0.13049000 12322.39029067 0 368.49804229 0 3182.76191377 0 -113.44039670 0 -296.83463437 0 18100
0.13150000 0.13148800 12351.39978170 0 324.64056368 0 3467.60854205 0 -13.99730087 0 -178.78150715 0 19059
0.13250000 0.13249300 12054.88292305 0 20.31450507 0 3335.11710327 0 60.26035276 0 -547.24633246 0 18957
0.13350000 0.13349100 12153.75878368 0 43.64167900 0 3444.64454038 0 -82.47132563 0 220.76776286 0 19468
0.13450000 0.13450700 12054.21858356 0 9.03805087 0 3527.81984442 0 139.87557220 0 -563.15061983 0 19953
0.13550000 0.13551000 12289.50548596 0 -24.24905569 0 3651.44235102 0 79.42555051 0 423.57842933 0 19956
0.13650000 0.13649900 12131.83558054 0 117.60248360 0 3317.24637102 0 160.21543289 0 -3.69263140 0 19723
0.13750000 0.13749600 12010.59362378 0 178.78261438 0 3628.52263864 0 124.07093576 0 326.69447994 0 20946
0.13850000 0.13851100 11804.86982865 0 213.43899106 0 3377.52410733 0 311.81438261 0 584.77154851 0 20955
0.13950000 0.13949800 11509.90309548 0 362.84894217 0 3391.97349122 0 402.10476258 0 761.69290509 0 20506
0.14050000 0.14048300 11461.07414303 0 165.94978992 0 3310.16008313 0 407.47705458 0 1021.88257323 0 21447
0.14150000 0.14148400 11196.44557986 0 146.09600428 0 3560.25068381 0 379.20498039 0 1399.24290431 0 21771
0.14250000 0.14249400 11130.56524719 0 382.33512662 0 3342.44698230 0 322.77598418 0 1568.29515964 0 22470
0.14350000 0.14350900 10799.52487976 0 135.95707645 0 3162.48848703 0 128.74013513 0 1519.46620719 0 22519
0.14450000 0.14449900 10742.23667115 0 146.72380510 0 3374.89996635 0 153.22658147 0 1495.33961141 0 22218
0.14550000 0.14550500 10502.18866908 0 268.20713855 0 3384.80969706 0 -271.06601282 0 1170.52189053 0 23559
0.14650000 0.14650700 10409.56867198 0 318.34262533 0 3689.28755725 0 -341.32434272 0 922.98235349 0 23044
0.14750000 0.14750500 10028.51461334 0 365.98130286 0 3326.52497921 0 -387.43393219 0 864.53930140 0 23649
0.14850000 0.14849900 9964.14011685 0 97.27613114 0 3512.44038524 0 38.06465971 0 816.65592549 0 23640
0.14950000 0.14949500 9843.47392097 0 -14.03948642 0 3316.12806621 0 185.83014913 0 912.74045303 0 24457
0.15050000 0.15050000 10009.07161096 0 -157.32444888 0 3003.54526425 0 734.76279666 0 4.83991248 0 24591
0.15150000 0.15149900 9846.21985753 0 -2.48249273 0 2748.27281556 0 330.12136447 0 282.42068192 0 25020
0.15250000 0.15250500 9988.65424400 0 29.27478393 0 2733.35839403 0 256.28556641 0 352.84509669 0 25297
0.15350000 0.15350100 9828.33805295 0 74.43049262 0 2523.12816270 0 164.13171418 0 631.97065474 0 25452
0.15450000 0.15450400 10058.87492800 0 -15.35166764 0 2913.75978230 0 157.91349656 0 504.80389697 0 26061
0.15550000 0.15549900 9824.94992155 0 263.39289172 0 2784.91113839 0 -209.00009604 0 623.28552316 0 26128
0.15650000 0.15649500 9749.44773861 0 409.10690079 0 3084.12964429 0 -273.58496671 0 890.24148900 0 26331
0.15750000 0.15749700 9393.90431636 0 350.93401343 0 3232.80882195 0 -119.42830996 0 1564.63022012 0 27345
0.15850000 0.15849900 9272.23053893 0 89.62747988 0 3378.66455679 0 -16.70381994 0 878.38635082 0 26980
0.15950000 0.15949700 9178.73582816 0 65.91720351 0 3472.48036497 0 138.75394570 0 1067.07426698 0 27777
0.16050000 0.16050000 9231.69475777 0 16.59520044 0 3468.98151033 0 196.06319173 0 633.91606221 0 28224
0.16150000 0.16150500 9183.80695293 0 43.44171281 0 3240.98019767 0 28.86532936 0 882.28159469 0 28075
0.16250000 0.16249700 9091.24231744 0 54.49145009 0 2796.69209199 0 215.55823403 0 511.49822455 0 28590
0.16350000 0.16349900 9056.24269869 0 126.02741555 0 2704.91359157 0 247.62368671 0 690.50007097 0 29163
0.16450000 0.16449100 9012.72846216 0 37.48867737 0 2511.96725928 0 368.29763321 0 648.98660353 0 28996
0.16550000 0.16550500 8864.65826236 0 68.64631013 0 2387.03821835 0 245.24092241 0 607.49195903 0 30777
0.16650000 0.16650700 8813.41554310 0 218.34956712 0 2255.25540836 0 112.49814185 0 620.07012003 0 29211
0.16750000 0.16749900 8682.34136189 0 46.54749992 0 2400.57967161 0 6.84369325 0 484.43524823 0 30922
0.16850000 0.16850800 8552.02009878 0 146.97293241 0 2417.26566511 0 -114.87647723 0 647.11316617 0 30867
0.16950000 0.16949900 8554.99855415 0 55.22144846 0 2303.82969734 0 113.54558378 0 617.53455765 0 30852
0.17050000 0.17049200 8461.41526479 0 -32.67974526 0 2178.01487043 0 286.41225501 0 507.33724489 0 31257
0.17150000 0.17149500 8471.75681617 0 98.41558409 0 2062.01012330 0 187.32491298 0 160.58414131 0 32608
0.17250000 0.17250900 8341.36911910 0 123.06224696 0 1874.71067667 0 101.59112685 0 74.05170839 0 32361
0.17350000 0.17350400 8228.35389968 0 173.46900570 0 1667.58069629 0 38.83717581 0 6.49100648 0 32508
0.17450000 0.17449800 8035.06432532 0 94.87598329 0 1753.25834573 0 -56.75828715 0 -49.66203417 0 32791
0.17550000 0.17549800 8007.31707932 0 193.49441237 0 1666.01949849 0 -55.18236315 0 -193.07477126 0 33633
0.17650000 0.17650100 7877.48299850 0 98.15793109 0 1757.85336053 0 13.66712414 0 -172.65629706 0 33984
0.17750000 0.17750300 7832.90581878 0 24.54335809 0 1921.79020180 0 -37.29236505 0 17.10840269 0 34069
0.17850000 0.17849800 7923.65459299 0 -42.54164353 0 1838.84741658 0 184.92664742 0 -91.83031890 0 34536
