### header ###
fiducial parameters:
Omega_m = 0.31
Omega_nu = 0
Omega_de = 0.69
Omega_k = 0
H_0 = 100
w_de = -1
zeff = 0
beta = 0
fgrowth = 0
b_1 = 2
gamma = 0.55
Lx = 3500 Ly = 3500 Lz = 3500
nx = 700 ny = 700 nz = 700
xoffset = -685.467585 yoffset = -31.7331281 zoffset = 572.489161
bins = 400 dk = 0.001
kx_ny = 0.628318531 ky_ny = 0.628318531 kz_ny = 0.628318531
############################
A(data) = 8.02877564 (not used)
A(ran) = 8.02635174 (used)
Ngal = 476796
weighted Ngal = 0
Nran = 23820508
weighted Nran = 0
SN(data) = 3489.82342
SN(ran) = 69.9124345
SN(data+ran) = 3559.73586
############################
13 columns: k_central k_mean P_0(k) sigma^{lin}_{P_0(k)} P^img_1(k) sigma^{lin}_{P_1(k)} P_2(k) sigma^{lin}_{P_2(k)} P^img_3(k) sigma^{lin}_{P_3(k)} P_4(k) sigma^{lin}_{P_4(k)} N_modes
### header ###
0.00050000 0 0 0 0 0 0 0 0 0 0 0 0
0.00150000 0.00179520 6182.59794921 0 -14163.16429177 0 7190.56703908 0 -27713.91829782 0 47286.90977274 0 3
0.00250000 0.00253879 12647.25230085 0 -14535.08368243 0 -16825.50479441 0 16652.88725049 0 15793.34267482 0 6
0.00350000 0.00331552 29640.28136977 0 -23108.38478951 0 2445.96513104 0 -8954.43267199 0 -47818.71353378 0 7
0.00450000 0.00420575 47876.62179258 0 -27499.33664284 0 -1038.71582865 0 -14828.05739713 0 -16934.12430089 0 24
0.00550000 0.00557378 77493.98344998 0 -15929.42154684 0 18196.81222320 0 -30800.55028752 0 -17428.06071105 0 45
0.00650000 0.00659388 87676.20407645 0 1311.93762311 0 22639.69327993 0 -58425.11492405 0 -18358.91105855 0 40
0.00750000 0.00754703 82533.88426093 0 15057.80813712 0 43344.05490482 0 -34641.98266010 0 -12827.17757915 0 57
0.00850000 0.00846663 75421.13352068 0 21308.13549724 0 50817.43126441 0 -17466.92457116 0 10825.16838404 0 75
0.00950000 0.00948925 69326.92594049 0 5144.66714839 0 41343.72870308 0 16534.63482143 0 -12951.63051012 0 112
0.01050000 0.01054430 64191.91385935 0 -8229.39469821 0 34519.85491735 0 27748.46395126 0 -6384.04782696 0 105
0.01150000 0.01145670 76219.66958660 0 -14424.91405048 0 8027.35798724 0 44260.28978356 0 -20818.29584727 0 144
0.01250000 0.01249090 85151.60329455 0 -17447.43727948 0 7641.96357728 0 9175.00445470 0 -24491.98249885 0 169
0.01350000 0.01339930 97346.32968006 0 -9349.29391967 0 -12643.04481742 0 9640.58464100 0 -20514.47125424 0 180
0.01450000 0.01448870 100715.85956887 0 779.01777173 0 -2777.41517448 0 -30911.93787519 0 -15834.75316964 0 267
0.01550000 0.01550050 109124.84737564 0 3436.27386282 0 -12297.92045282 0 -24432.08122158 0 -6884.52798109 0 238
0.01650000 0.01653350 104840.30056382 0 -1152.05325273 0 11943.16316563 0 -11168.54332132 0 -8389.65552764 0 315
0.01750000 0.01747870 105978.75700167 0 5288.14233339 0 6868.71670125 0 -9204.05823502 0 -6424.05213653 0 297
0.01850000 0.01844180 101847.11899560 0 5808.87376961 0 17387.09310922 0 -2605.00800473 0 -24607.02395371 0 388
0.01950000 0.01947590 92462.88081880 0 13246.81868978 0 25328.71808539 0 -536.40874093 0 -15784.26336847 0 399
0.02050000 0.02045430 86569.96810382 0 13554.07570350 0 34493.83495403 0 -3743.01047727 0 -17362.18037837 0 462
0.02150000 0.02154770 71611.92161332 0 7509.61607872 0 31353.72363546 0 572.29193120 0 -4076.60855173 0 571
0.02250000 0.02255340 71040.47892943 0 4531.57037853 0 35452.14466708 0 5597.61381207 0 -4701.41984125 0 510
0.02350000 0.02348930 71372.53795074 0 102.00334950 0 35838.34735675 0 6383.87066976 0 -5814.56494456 0 555
0.02450000 0.02439640 70143.62061912 0 535.30483015 0 31417.50022641 0 6376.44113981 0 -5261.09264385 0 592
0.02550000 0.02547300 68102.76970854 0 1854.93550454 0 31956.39027534 0 1337.66970599 0 -5054.90381108 0 837
0.02650000 0.02652900 65961.38208862 0 3909.39430232 0 28406.60293848 0 2065.53112259 0 -3778.01009602 0 723
0.02750000 0.02749970 63080.14172431 0 3040.62648007 0 33000.62122898 0 9091.05408792 0 -3392.54925211 0 826
0.02850000 0.02848090 59026.23143846 0 84.67748635 0 18093.28598615 0 11893.78059694 0 -2640.52802275 0 831
0.02950000 0.02946900 60855.04732875 0 -1290.24693879 0 18677.24039709 0 11753.93713448 0 -14902.35269666 0 996
0.03050000 0.03053250 58180.08437582 0 -216.77729700 0 9533.29381350 0 1838.24951104 0 -17917.45746803 0 1041
0.03150000 0.03150510 58480.58727140 0 4682.92905880 0 13714.73513662 0 -5296.29156445 0 -12692.31666286 0 1036
0.03250000 0.03246190 53311.36170656 0 4746.80530068 0 9999.95908764 0 -10093.48701538 0 -8817.95519627 0 1059
0.03350000 0.03345080 53246.36715988 0 1181.49456442 0 18236.45114606 0 -5965.61359974 0 -4515.28298872 0 1302
0.03450000 0.03451200 52856.17843327 0 74.90715620 0 18992.02659168 0 -1038.77119028 0 -7477.78314487 0 1339
0.03550000 0.03553350 53240.05593473 0 1901.40605181 0 23979.77675274 0 2573.96120594 0 1036.01528863 0 1365
0.03650000 0.03647120 53224.55467998 0 4269.31129287 0 24680.98708350 0 2822.08093280 0 -2654.40164575 0 1308
0.03750000 0.03744890 50442.96523904 0 790.27721884 0 23987.19521036 0 4426.40543740 0 7684.17127949 0 1579
0.03850000 0.03847530 49453.09940026 0 -528.61714596 0 25016.69997200 0 3452.98200097 0 6526.91403410 0 1662
0.03950000 0.03950240 50773.80630463 0 73.46254998 0 25769.39661317 0 6231.51548026 0 5079.72796332 0 1683
0.04050000 0.04050350 49056.59944850 0 1912.13513456 0 22991.90393242 0 4221.48992198 0 2385.25557406 0 1822
0.04150000 0.04152450 48906.56944721 0 1417.62296351 0 21905.48742121 0 -1449.31195714 0 3708.88557218 0 1887
0.04250000 0.04250150 45765.35089616 0 2357.35331551 0 17224.44065763 0 -309.39507964 0 2816.67763829 0 1920
0.04350000 0.04349210 43424.77215275 0 2134.72208039 0 20428.21784391 0 2095.10530218 0 -395.12144732 0 2005
0.04450000 0.04448520 42718.57927581 0 3298.24626163 0 20878.52929428 0 -1419.16201666 0 -4927.31741220 0 2151
0.04550000 0.04548030 40650.15827644 0 2036.58806552 0 20381.38190992 0 -2972.19951269 0 -7905.88351166 0 2274
0.04650000 0.04648670 37330.45384931 0 2283.56734292 0 23657.90427026 0 -4625.29760812 0 -5204.04802639 0 2311
0.04750000 0.04749250 37293.91517741 0 1529.88526484 0 24219.27113856 0 -855.33598501 0 -3682.03518449 0 2568
0.04850000 0.04851840 36869.07007412 0 -23.42593907 0 26420.56003576 0 2499.45553224 0 -2455.64234293 0 2493
0.04950000 0.04949480 37586.99961536 0 -1835.73609331 0 23558.80696313 0 6240.96017333 0 -6113.14125562 0 2644
0.05050000 0.05050630 38992.07763485 0 -1741.24487331 0 24232.77937484 0 5856.67299585 0 -4373.32471222 0 2829
0.05150000 0.05149060 39125.49914891 0 1501.94978932 0 23074.72492206 0 3077.63018962 0 -2732.22901690 0 2784
0.05250000 0.05249300 37625.08841274 0 2445.99834801 0 22280.17489307 0 1713.87408635 0 1450.97280586 0 3055
0.05350000 0.05348950 36131.98541094 0 2189.98405356 0 20410.16995445 0 1949.76996661 0 5660.95858235 0 3009
0.05450000 0.05448610 34812.49646231 0 329.80912491 0 19642.19350503 0 4564.26695372 0 7293.25177944 0 3336
0.05550000 0.05550870 36257.21340464 0 -1840.28681881 0 18106.90494568 0 6779.07515952 0 4362.28560438 0 3349
0.05650000 0.05647670 36392.07432093 0 -952.63625382 0 16536.62783990 0 2752.08169530 0 5267.34850738 0 3324
0.05750000 0.05747970 35566.07888946 0 1192.20150252 0 14815.65639333 0 2938.19640318 0 6531.15473450 0 3639
0.05850000 0.05849280 35613.91133268 0 1035.98317889 0 13395.96290509 0 1130.55079793 0 10087.66297252 0 3846
0.05950000 0.05951020 34038.20878774 0 429.82432776 0 11461.29558953 0 2618.41659009 0 8608.22321956 0 3787
0.06050000 0.06049470 34325.09272379 0 527.50991347 0 11357.65862922 0 2713.57214958 0 6498.08170027 0 3930
0.06150000 0.06148310 32809.29145612 0 1499.58031181 0 12256.95285099 0 -663.93313480 0 5359.58097312 0 4083
0.06250000 0.06249100 31529.33070708 0 1429.90217173 0 10731.15327401 0 238.72485925 0 5436.66649850 0 4303
0.06350000 0.06350600 30394.41741317 0 24.62020002 0 11366.73793557 0 -1365.59410918 0 3867.30839568 0 4470
0.06450000 0.06451750 30348.68871167 0 499.99740077 0 12388.38134659 0 -437.93923462 0 2819.15783905 0 4479
0.06550000 0.06550280 30544.44741446 0 46.72199976 0 12529.88565777 0 -756.50552091 0 1158.45305648 0 4636
0.06650000 0.06648880 30116.39133697 0 353.41642865 0 11317.35536688 0 730.74132829 0 3345.19291886 0 4653
0.06750000 0.06749660 30190.02229702 0 -324.35600493 0 11021.00459311 0 1268.85520724 0 248.37439033 0 5220
0.06850000 0.06852730 30416.78350930 0 -116.82742086 0 10107.81460369 0 -659.22628952 0 -962.06987456 0 5029
0.06950000 0.06949320 30398.18200361 0 899.25989756 0 10732.39337439 0 579.94512212 0 1910.27498399 0 5040
0.07050000 0.07048030 28664.69883000 0 1032.75891790 0 10176.69553639 0 1265.61101607 0 2272.89362180 0 5475
0.07150000 0.07148790 28624.83846065 0 736.48786487 0 8718.40392383 0 2921.57684362 0 4078.32476208 0 5509
0.07250000 0.07249820 28140.97786608 0 18.39788564 0 9499.50107816 0 2343.05894417 0 3490.55039908 0 5916
0.07350000 0.07351270 28574.90227572 0 222.57919520 0 9129.32004250 0 1469.55216691 0 3626.16423346 0 5721
0.07450000 0.07449140 28274.17793365 0 192.16794785 0 9364.92804231 0 -487.74587335 0 4433.71317178 0 6028
0.07550000 0.07549160 28044.64864016 0 612.94065008 0 10792.71540000 0 -1784.28299988 0 5624.81851415 0 6183
0.07650000 0.07648840 27568.20650321 0 1480.20374338 0 11927.21901789 0 -941.34137527 0 5356.55822844 0 6330
0.07750000 0.07749960 26654.40753593 0 1026.72339364 0 10628.73426944 0 -437.48748377 0 2713.59429423 0 6583
0.07850000 0.07848650 25865.83656234 0 -379.74973877 0 11133.00115865 0 369.34064621 0 2397.85587970 0 6549
0.07950000 0.07947320 25882.99866581 0 193.98713082 0 9839.32179917 0 1508.50460562 0 -1336.37424399 0 6828
0.08050000 0.08048110 25353.96298598 0 326.23719292 0 9137.14817614 0 -62.79381140 0 -1476.18448947 0 7147
0.08150000 0.08149960 24555.31619681 0 1017.66401748 0 8540.34986842 0 -769.04160707 0 -3103.37334482 0 7386
0.08250000 0.08250610 24152.06212691 0 796.96490303 0 8511.29608809 0 630.24890823 0 -2331.70981123 0 7227
0.08350000 0.08350160 23978.22662726 0 407.64092499 0 8003.50819959 0 1052.89726228 0 -2325.93005768 0 7798
0.08450000 0.08449610 23635.20600438 0 -72.04662109 0 8107.15623221 0 98.27551918 0 -2095.63677378 0 7371
0.08550000 0.08548940 23338.57842249 0 317.70818111 0 8487.01447977 0 731.28608667 0 -2528.52038489 0 8256
0.08650000 0.08650700 23074.72492206 0 971.60646793 0 8026.72686473 0 327.26249020 0 -2003.45966966 0 8037
0.08750000 0.08749060 22359.00984578 0 890.09533431 0 8390.31986712 0 637.17132571 0 -331.27399348 0 8155
0.08850000 0.08849210 21095.87903047 0 627.74545559 0 7415.05842477 0 1200.01856384 0 -6.15877031 0 8718
0.08950000 0.08949900 20827.26443037 0 404.63146710 0 6655.64088244 0 1548.35390264 0 14.30610801 0 8571
0.09050000 0.09049190 20654.75760970 0 164.62332540 0 5710.17506617 0 1682.52833479 0 8.37193981 0 8932
0.09150000 0.09150830 19868.29037783 0 84.10803668 0 5692.27111694 0 877.39316328 0 -242.66107073 0 9285
0.09250000 0.09250820 19977.35277729 0 418.05223202 0 4929.72010668 0 42.60298420 0 -1145.09983274 0 9204
0.09350000 0.09350330 19398.60235902 0 465.89685479 0 5518.80100401 0 -801.39715465 0 -43.07189716 0 9349
0.09450000 0.09448040 19053.25654793 0 351.16431779 0 5476.85903759 0 -743.52211283 0 -246.05252382 0 9564
0.09550000 0.09549270 18848.86143177 0 485.03204654 0 6412.78050987 0 482.90726741 0 175.84069768 0 10155
0.09650000 0.09649430 18635.27628602 0 288.71308411 0 5910.59521772 0 226.43014977 0 201.91491539 0 9913
0.09750000 0.09749140 18149.75484273 0 477.90036212 0 6142.40541012 0 594.49858586 0 643.99852119 0 10476
0.09850000 0.09850240 18088.52488648 0 349.42707002 0 5846.91827768 0 363.26193988 0 1464.58069306 0 10575
0.09950000 0.09950330 17770.08482469 0 20.67103393 0 6052.15489052 0 330.10032705 0 1875.23107594 0 10882
0.10050000 0.10051200 18051.10042859 0 -60.41093638 0 5917.43791445 0 -14.55036349 0 1558.57365845 0 10875
0.10150000 0.10150300 17887.78363752 0 178.87119298 0 6838.21244637 0 -10.47517220 0 1393.52958470 0 11118
0.10250000 0.10250800 17544.87373788 0 620.45432970 0 6666.80178585 0 -365.82407585 0 552.39274904 0 11575
0.10350000 0.10349800 16966.45548936 0 860.79464114 0 7042.51898393 0 -896.68004588 0 1407.60250954 0 11364
0.10450000 0.10450100 16176.22366705 0 913.18556049 0 7304.22445334 0 226.37478815 0 1150.64706748 0 12093
0.10550000 0.10551000 16159.61517982 0 -162.81964369 0 7140.11045488 0 808.77243022 0 1284.99865683 0 12067
0.10650000 0.10649700 16070.15079529 0 -583.53476982 0 6870.59899647 0 792.01889553 0 569.33562048 0 12054
0.10750000 0.10749900 16752.53817386 0 -91.34579397 0 6849.48407304 0 387.27449072 0 1050.28640809 0 12807
0.10850000 0.10850100 16313.63121805 0 297.01954219 0 6882.08099730 0 360.19379868 0 1195.25746417 0 12736
0.10950000 0.10950300 16189.73190333 0 460.53342065 0 5771.79255379 0 609.01993986 0 2032.20342489 0 12933
0.11050000 0.11050200 15975.26097159 0 363.62954107 0 6408.19656739 0 -324.33053859 0 1774.62793263 0 13428
0.11150000 0.11150900 15483.20685665 0 283.46812384 0 6061.42242639 0 819.71520883 0 1323.04316490 0 13453
0.11250000 0.11250000 15453.09013314 0 190.89905943 0 6034.81562986 0 504.92237084 0 1327.29493764 0 13668
0.11350000 0.11349100 15054.37571642 0 105.34265194 0 5165.69349322 0 809.51095428 0 1130.66152118 0 13791
0.11450000 0.11448600 15198.98027856 0 -168.12550174 0 4918.59242024 0 932.78246818 0 954.50636948 0 14205
0.11550000 0.11549300 15082.94231446 0 191.99632682 0 4470.16326508 0 461.26308685 0 681.24692912 0 14776
0.11650000 0.11649800 14828.05739713 0 192.78578358 0 3975.80610658 0 124.80945982 0 718.47097792 0 14553
0.11750000 0.11747300 14611.15055393 0 153.21661638 0 3994.66227575 0 200.58623641 0 1083.07709804 0 14568
0.11850000 0.11849100 14623.44083448 0 233.26952481 0 3677.69483316 0 -81.73446241 0 94.06205669 0 16015
0.11950000 0.11950300 14455.14149724 0 384.50751674 0 4749.48480328 0 -847.44695357 0 104.21814663 0 15270
0.12050000 0.12050700 14000.40111694 0 520.32397467 0 4541.62404946 0 -476.86399252 0 -253.20746012 0 15999
0.12150000 0.12150000 13989.88240836 0 300.07550384 0 5446.69802479 0 -830.17523409 0 381.41833812 0 15670
0.12250000 0.12250700 13671.44234658 0 -2.86889472 0 5170.39923126 0 51.52816379 0 -690.40595621 0 16887
0.12350000 0.12352200 13979.36369978 0 38.23041241 0 5281.97504846 0 122.23846600 0 -651.85322842 0 16407
0.12450000 0.12449800 13779.28679031 0 204.08619829 0 5320.65067905 0 287.97677451 0 -970.64760460 0 16306
0.12550000 0.12549900 13647.19395522 0 263.77488692 0 5603.11675750 0 -301.67877647 0 -536.62686573 0 17523
0.12650000 0.12650100 13207.51193667 0 321.08966911 0 5212.08653421 0 207.11780083 0 -565.67953882 0 17154
0.12750000 0.12750600 13322.66411479 0 -27.19695145 0 5448.25922259 0 347.63778233 0 -348.06517407 0 18007
0.12850000 0.12850300 13228.88152357 0 -3.83065900 0 5557.53199622 0 208.85061966 0 -525.58111449 0 17496
0.12950000 0.12949900 13062.90737454 0 336.52006098 0 5199.19834812 0 618.73036873 0 -27.57296760 0 18405
0.13050000 0.13049000 12929.81803022 0 172.28315971 0 4829.53771172 0 505.27114908 0 152.07616692 0 18100
0.13150000 0.13148800 12558.23080931 0 89.40426181 0 4578.43952948 0 862.71679673 0 69.59576199 0 19059
0.13250000 0.13249300 12649.13459607 0 131.32884467 0 4458.74769820 0 716.35062772 0 363.09585501 0 18957
0.13350000 0.13349100 12286.95885125 0 72.90018661 0 3942.22374541 0 144.78282656 0 292.14218311 0 19468
0.13450000 0.13450700 12306.99975917 0 132.55344380 0 3640.41431550 0 352.52289204 0 292.29830289 0 19953
0.13550000 0.13551000 12233.70096887 0 135.59611866 0 3680.48505902 0 -421.05504651 0 -48.69054839 0 19956
0.13650000 0.13649900 11940.06291468 0 483.11653435 0 3612.44562301 0 -345.06014511 0 69.18752537 0 19723
0.13750000 0.13749600 11706.32613776 0 340.29683098 0 3600.70895870 0 -70.68195705 0 53.59448105 0 20946
0.13850000 0.13851100 11453.65568540 0 19.12112990 0 3237.45919837 0 332.87948058 0 -28.60535117 0 20955
0.13950000 0.13949800 11598.59241728 0 -69.42724120 0 3239.33042127 0 443.61933725 0 -291.82108569 0 20506
0.14050000 0.14048300 11460.96341978 0 72.83939954 0 3093.97294105 0 38.48640456 0 -935.93697353 0 21447
0.14150000 0.14148400 11331.74938915 0 433.24346167 0 3533.36707915 0 -134.14010795 0 -682.54239112 0 21771
0.14250000 0.14249400 11005.92408671 0 399.18720499 0 3563.19592221 0 -362.82901198 0 -322.65308138 0 22470
0.14350000 0.14350900 10579.41813469 0 240.76216702 0 3687.09523693 0 -106.57743760 0 60.99389428 0 22519
0.14450000 0.14449900 10595.84946473 0 151.05640580 0 3748.85666477 0 450.12654255 0 -68.47225319 0 22218
0.14550000 0.14550500 10468.00840237 0 -29.06252746 0 3930.16598368 0 617.58327587 0 5.25990791 0 23559
0.14650000 0.14650700 10496.13210741 0 -81.14751847 0 3096.80745620 0 457.21393767 0 -546.63735460 0 23044
0.14750000 0.14750500 10520.29192016 0 71.79981897 0 3277.80675001 0 -25.85321411 0 -404.90827522 0 23649
0.14850000 0.14849900 10336.84564257 0 241.26817226 0 2816.17938367 0 -114.17559906 0 -377.38358296 0 23640
0.14950000 0.14949500 10243.60559527 0 84.26127766 0 2934.87470573 0 276.40951677 0 -113.50350895 0 24457
0.15050000 0.15050000 10182.87389364 0 46.89838189 0 2738.86133947 0 -65.81677753 0 -227.50970144 0 24591
0.15150000 0.15149900 10192.62861180 0 114.64838733 0 2916.61644210 0 298.41686958 0 -697.71369059 0 25020
0.15250000 0.15250500 9915.03435628 0 397.62489996 0 2786.98166313 0 -42.36902598 0 -328.14052556 0 25297
0.15350000 0.15350100 9626.40099290 0 423.23961619 0 2594.24570501 0 241.40436186 0 -55.51530796 0 25452
0.15450000 0.15450400 9451.09287405 0 15.13675381 0 2703.50740632 0 237.77928271 0 -232.37488097 0 26061
0.15550000 0.15549900 9297.39793324 0 186.17782013 0 2677.64245554 0 161.82645615 0 -166.56541118 0 26128
0.15650000 0.15649500 9228.46163892 0 103.21510473 0 2647.51465971 0 19.42130062 0 -323.22441334 0 26331
0.15750000 0.15749700 9042.34693105 0 123.58153900 0 2519.18641506 0 73.39511953 0 -233.71795397 0 27345
0.15850000 0.15849900 8972.51377841 0 157.69980069 0 2506.68576034 0 -129.77429027 0 -7.84736627 0 26980
0.15950000 0.15949700 8875.97417832 0 -7.59942371 0 2594.37857291 0 264.43036855 0 35.54847389 0 27777
0.16050000 0.16050000 8859.03352135 0 -2.80356801 0 2186.73986238 0 613.53191222 0 126.24332588 0 28224
0.16150000 0.16150500 8962.38260121 0 -31.77247896 0 2335.25295518 0 633.37905446 0 480.42595942 0 28075
0.16250000 0.16249700 9000.41603696 0 53.80873054 0 2005.26445861 0 343.64953093 0 665.64159452 0 28590
0.16350000 0.16349900 8949.49441512 0 33.79915729 0 1716.47608269 0 342.61205410 0 1110.44345606 0 29163
0.16450000 0.16449100 9064.63552091 0 -47.52607199 0 1877.75556599 0 -73.00648092 0 935.28702806 0 28996
0.16550000 0.16550500 8937.82418476 0 -35.67890588 0 1663.00782614 0 54.41106501 0 1044.17448479 0 30777
0.16650000 0.16650700 9000.39389231 0 163.74639728 0 2045.83345674 0 -177.55026463 0 605.75360404 0 29211
0.16750000 0.16749900 8843.63191753 0 312.78321103 0 1868.00084783 0 -518.57233288 0 408.77251658 0 30922
0.16850000 0.16850800 8567.35526865 0 284.85880784 0 2124.21444413 0 -199.42585677 0 525.72394748 0 30867
0.16950000 0.16949900 8403.96097130 0 214.42332074 0 2085.71597074 0 -241.72545928 0 157.74630446 0 30852
0.17050000 0.17049200 8340.38368219 0 56.12184992 0 2326.37295067 0 91.58628486 0 443.21741186 0 31257
0.17150000 0.17149500 8201.40386107 0 -7.34551315 0 2249.15455739 0 272.61392382 0 -2.85218658 0 32608
0.17250000 0.17250900 8232.59460008 0 137.53045380 0 2091.47357964 0 183.14843206 0 42.43357763 0 32361
0.17350000 0.17350400 8262.63381732 0 113.45921965 0 2129.20806263 0 46.83870206 0 194.02366949 0 32508
0.17450000 0.17449800 8082.73068366 0 76.97236623 0 2201.84251344 0 55.48762715 0 59.14791629 0 32791
0.17550000 0.17549800 8133.81839038 0 -6.89829088 0 2224.79544279 0 -163.53602311 0 324.43018951 0 33633
0.17650000 0.17650100 8115.84800720 0 72.29530550 0 2448.10208973 0 -385.90484414 0 -171.78822679 0 33984
0.17750000 0.17750300 8016.60675985 0 220.09567275 0 2513.69454195 0 31.88043413 0 206.47560599 0 34069
