### header ###
fiducial parameters:
Omega_m = 0.31
Omega_nu = 0
Omega_de = 0.69
Omega_k = 0
H_0 = 100
w_de = -1
zeff = 0
beta = 0
fgrowth = 0
b_1 = 2
gamma = 0.55
Lx = 3500 Ly = 3500 Lz = 3500
nx = 700 ny = 700 nz = 700
xoffset = -685.467585 yoffset = -31.7331281 zoffset = 572.489161
bins = 400 dk = 0.001
kx_ny = 0.628318531 ky_ny = 0.628318531 kz_ny = 0.628318531
############################
A(data) = 8.06822608 (not used)
A(ran) = 8.06798774 (used)
Ngal = 479520
weighted Ngal = 0
Nran = 23820508
weighted Nran = 0
SN(data) = 3486.00306
SN(ran) = 70.2750992
SN(data+ran) = 3556.27816
############################
13 columns: k_central k_mean P_0(k) sigma^{lin}_{P_0(k)} P^img_1(k) sigma^{lin}_{P_1(k)} P_2(k) sigma^{lin}_{P_2(k)} P^img_3(k) sigma^{lin}_{P_3(k)} P_4(k) sigma^{lin}_{P_4(k)} N_modes
### header ###
0.00050000 0 0 0 0 0 0 0 0 0 0 0 0
0.00150000 0.00179520 7251.03300491 0 -10795.02951589 0 -8348.54398558 0 -6145.38386549 0 -53534.35832841 0 3
0.00250000 0.00253879 17604.55356865 0 -14565.53257568 0 6751.13968400 0 -6319.81727069 0 -3297.75907934 0 6
0.00350000 0.00331552 25226.85269706 0 -8019.41913035 0 11645.64979776 0 -16996.12931987 0 12375.64817305 0 7
0.00450000 0.00420575 36835.63165317 0 -748.66852940 0 25117.90102084 0 -19735.09031026 0 15001.45000379 0 24
0.00550000 0.00557378 61685.13952041 0 -25033.64062897 0 37867.12943327 0 -1983.10873664 0 -12260.82816468 0 45
0.00650000 0.00659388 77870.55321706 0 -20690.29977236 0 91416.21395369 0 6024.56265707 0 43877.74096108 0 40
0.00750000 0.00754703 80359.72255954 0 14317.06960675 0 71172.01814827 0 56.21585395 0 -27402.78597042 0 57
0.00850000 0.00846663 95152.23779400 0 7605.05951866 0 42652.47749664 0 57548.85113791 0 5976.05480204 0 75
0.00950000 0.00948925 70530.59837153 0 4436.07157697 0 29470.76407680 0 26960.33587067 0 13413.78934805 0 112
0.01050000 0.01054430 78502.22934796 0 14912.53923550 0 40736.41168678 0 23073.61768958 0 7181.74239620 0 105
0.01150000 0.01145670 66392.20624731 0 11967.30083374 0 22467.29718251 0 16352.16290842 0 30129.67812676 0 144
0.01250000 0.01249090 54694.51652291 0 9219.52627279 0 23599.88528821 0 21649.38454815 0 39084.53154708 0 169
0.01350000 0.01339930 53390.52882902 0 -1626.30306936 0 17035.21462648 0 21790.99958259 0 28679.97863825 0 180
0.01450000 0.01448870 58101.24942311 0 -12556.56996059 0 15872.62052052 0 26074.43916193 0 10862.88072238 0 267
0.01550000 0.01550050 68407.81225730 0 -9061.08130464 0 11124.25402205 0 8532.16742038 0 17382.88562579 0 238
0.01650000 0.01653350 72984.77916758 0 -2486.81093729 0 4286.52875797 0 -12709.81093608 0 -18569.83884634 0 315
0.01750000 0.01747870 73072.36125690 0 4572.56012501 0 18720.75463362 0 -28247.60435408 0 -7073.00109415 0 297
0.01850000 0.01844180 75613.23835628 0 -415.18560712 0 12205.02364759 0 -21355.63577072 0 -18611.91368066 0 388
0.01950000 0.01947590 74648.28524834 0 19.25499431 0 12707.59647111 0 -8553.57022425 0 -16681.56457177 0 399
0.02050000 0.02045430 73558.87920943 0 2263.09461433 0 19328.84671266 0 -3765.40979038 0 -43328.66437332 0 462
0.02150000 0.02154770 71953.39211072 0 726.66339106 0 18795.38210290 0 -2563.86324571 0 -36412.00450561 0 571
0.02250000 0.02255340 71787.19651520 0 6027.48575083 0 21441.55701131 0 -6422.82310848 0 -38174.49717024 0 510
0.02350000 0.02348930 68397.07210222 0 6527.10226362 0 17394.62229009 0 -1176.09126991 0 -26551.32419187 0 555
0.02450000 0.02439640 62786.72511662 0 2648.42259035 0 27756.65747162 0 455.69260024 0 -11792.91171784 0 592
0.02550000 0.02547300 66043.53873877 0 -1015.95223606 0 20992.24207017 0 2879.52415396 0 -7800.54141333 0 837
0.02650000 0.02652900 63927.39601943 0 -700.54266958 0 20015.99519091 0 8503.80012419 0 -9764.66111291 0 723
0.02750000 0.02749970 63646.04824579 0 283.15256259 0 20719.64143313 0 6596.94648857 0 -12493.78987886 0 826
0.02850000 0.02848090 63262.06002108 0 1192.42294902 0 18056.96876074 0 9982.92985206 0 -4565.35204155 0 831
0.02950000 0.02946900 63737.06275580 0 1360.33475489 0 20273.53746619 0 3632.26508443 0 -1026.07898434 0 996
0.03050000 0.03053250 62330.32388759 0 355.91323790 0 21670.20051881 0 -3632.44224163 0 4274.24954974 0 1041
0.03150000 0.03150510 62047.86888147 0 2870.58878783 0 25187.32449746 0 1244.14177825 0 723.85212779 0 1036
0.03250000 0.03246190 61663.43776376 0 -1019.55074163 0 25139.71350074 0 -1277.65770547 0 13734.66532129 0 1059
0.03350000 0.03345080 62804.88372932 0 718.45990560 0 27992.38726701 0 4122.32618091 0 10212.30413301 0 1302
0.03450000 0.03451200 61304.03010015 0 756.10913168 0 29487.92618027 0 6700.42843633 0 8138.66806865 0 1339
0.03550000 0.03553350 61544.29954872 0 1547.97744360 0 24460.42637311 0 8530.21869121 0 8853.18733384 0 1365
0.03650000 0.03647120 57835.84579721 0 2380.68270391 0 21623.58603133 0 3752.82055706 0 11387.00028999 0 1308
0.03750000 0.03744890 55625.69904016 0 3195.40650871 0 16554.67572935 0 6297.21865573 0 5404.53461188 0 1579
0.03850000 0.03847530 52598.52543474 0 2224.40791142 0 15572.44979469 0 2686.07956705 0 5711.59232375 0 1662
0.03950000 0.03950240 47802.76938604 0 3600.79753730 0 13685.50419910 0 -92.93865862 0 2494.65014327 0 1683
0.04050000 0.04050350 46799.17386448 0 3415.56861541 0 13029.80112333 0 -3372.16510212 0 3199.30396705 0 1822
0.04150000 0.04152450 44248.11022626 0 1022.77610985 0 15914.69535483 0 -2285.59357836 0 3513.59190703 0 1887
0.04250000 0.04250150 45074.32710423 0 -146.47910672 0 15168.42066206 0 665.21973894 0 1780.83950686 0 1920
0.04350000 0.04349210 44907.46716921 0 -1227.41149545 0 13378.69007837 0 1919.55359218 0 -1730.07289756 0 2005
0.04450000 0.04448520 44508.64202924 0 239.12014125 0 12522.13503040 0 3037.00582986 0 -414.90104837 0 2151
0.04550000 0.04548030 46055.66725290 0 -420.31209351 0 13087.15576590 0 2002.41887113 0 -4060.70869329 0 2274
0.04650000 0.04648670 44961.50011433 0 1721.03788051 0 10312.01041800 0 1976.43212478 0 -3406.63324928 0 2311
0.04750000 0.04749250 41536.16570843 0 2392.43044054 0 10867.52002648 0 -1403.19572427 0 -3405.57030610 0 2568
0.04850000 0.04851840 40412.65690908 0 1934.12477165 0 9843.60678887 0 -800.08619140 0 -2716.83848540 0 2493
0.04950000 0.04949480 40459.38211982 0 1244.09748895 0 14668.72664299 0 -927.48657522 0 -2804.44271937 0 2644
0.05050000 0.05050630 38637.43107091 0 1575.04927778 0 13153.92188455 0 717.61287275 0 -2732.63869292 0 2829
0.05150000 0.05149060 39025.18388606 0 347.51377229 0 13019.72530775 0 900.40920488 0 283.79918636 0 2784
0.05250000 0.05249300 38887.77633506 0 259.22748312 0 11768.77404974 0 306.59378146 0 16.73460101 0 3055
0.05350000 0.05348950 38681.27747719 0 140.04830047 0 15449.54698920 0 1262.36682490 0 -47.76822373 0 3009
0.05450000 0.05448610 37217.62685941 0 1029.13162429 0 12470.75944324 0 944.04523699 0 -1914.96964971 0 3336
0.05550000 0.05550870 37662.40214738 0 443.77434980 0 11840.85488431 0 1492.58260253 0 -68.10000163 0 3349
0.05650000 0.05647670 36309.91767078 0 -237.14594573 0 9502.80063095 0 2760.37486659 0 -3784.52062301 0 3324
0.05750000 0.05747970 36022.36939524 0 535.24836129 0 9637.93835537 0 1268.44553122 0 -3359.37656695 0 3639
0.05850000 0.05849280 35114.54948336 0 1545.55260446 0 8486.79303327 0 1303.40086068 0 54.46465506 0 3846
0.05950000 0.05951020 34619.72728721 0 1171.70662928 0 9146.70359246 0 -4.16198725 0 -2326.30651672 0 3787
0.06050000 0.06049470 33161.61283185 0 1519.42191789 0 10040.31771160 0 -539.43480730 0 1768.42743073 0 3930
0.06150000 0.06148310 32091.47263812 0 1466.64014548 0 11795.12618281 0 -71.29968205 0 1722.17832997 0 4083
0.06250000 0.06249100 31827.06552145 0 435.70151778 0 10430.12997916 0 988.73867612 0 511.11955105 0 4303
0.06350000 0.06350600 30902.41567585 0 -501.23196498 0 9604.01275212 0 -19.98045303 0 -627.22062740 0 4470
0.06450000 0.06451750 32018.17384782 0 -679.61486844 0 9178.54759864 0 193.89412329 0 -3436.06348865 0 4479
0.06550000 0.06550280 31841.12737397 0 576.44294578 0 8963.45661671 0 -113.55887057 0 -3396.29169790 0 4636
0.06650000 0.06648880 30307.16749360 0 1765.49326466 0 7989.09203267 0 108.85324325 0 -2673.75606953 0 4653
0.06750000 0.06749660 30254.57395071 0 320.03004763 0 7610.08635413 0 729.40157699 0 -997.00305937 0 5220
0.06850000 0.06852730 29825.52136399 0 24.43440641 0 7959.15246636 0 1431.83982857 0 -3893.16227413 0 5029
0.06950000 0.06949320 29962.37529875 0 589.28352087 0 8689.09548003 0 1703.18929290 0 -1198.73417417 0 5040
0.07050000 0.07048030 28948.15034536 0 1089.20895152 0 9593.28366937 0 -1177.98463746 0 1076.15689503 0 5475
0.07150000 0.07148790 29315.97297583 0 456.29604194 0 11086.27594792 0 -450.02578439 0 2566.68668854 0 5509
0.07250000 0.07249820 28665.69533923 0 -202.27476595 0 11329.09203119 0 178.25446449 0 3020.56342750 0 5916
0.07350000 0.07351270 28540.79951528 0 314.05431392 0 12150.54780949 0 1747.68896635 0 2404.47712994 0 5721
0.07450000 0.07449140 28451.44585399 0 679.72891338 0 11534.81582632 0 508.48433774 0 1917.58271837 0 6028
0.07550000 0.07549160 27968.24959891 0 870.00570816 0 11504.25620982 0 1285.46369447 0 2469.44953198 0 6183
0.07650000 0.07648840 26766.68090959 0 928.98908970 0 10550.20934182 0 -250.40284024 0 2988.79692760 0 6330
0.07750000 0.07749960 26734.34972112 0 330.17451163 0 10242.53157976 0 519.77921629 0 1797.50335571 0 6583
0.07850000 0.07848650 25974.12389907 0 484.65558750 0 11357.88007572 0 -466.87897000 0 2639.99655116 0 6549
0.07950000 0.07947320 25897.39268808 0 277.24658453 0 10375.29982666 0 537.75292116 0 1625.32870478 0 6828
0.08050000 0.08048110 25602.75812465 0 187.58621985 0 11681.96702316 0 529.63137091 0 2808.49519025 0 7147
0.08150000 0.08149960 25928.61664407 0 85.53669875 0 11326.21322674 0 974.20846426 0 2855.59686003 0 7386
0.08250000 0.08250610 25315.98491185 0 377.86965802 0 11799.33366624 0 363.69154609 0 2245.71106437 0 7227
0.08350000 0.08350160 25029.32242229 0 1135.50012713 0 11544.78091866 0 850.37779795 0 2966.29796356 0 7798
0.08450000 0.08449610 23776.48886906 0 595.40983819 0 10007.99759545 0 791.46306483 0 2359.46812955 0 7371
0.08550000 0.08548940 23133.40824360 0 1193.02085456 0 9962.80036554 0 985.78125816 0 2547.60907287 0 8256
0.08650000 0.08650700 22438.61986123 0 460.65964515 0 8485.58614986 0 1681.03357094 0 1819.68122232 0 8037
0.08750000 0.08749060 21224.65016811 0 120.60861978 0 7414.56017016 0 962.75635870 0 1447.68432539 0 8155
0.08850000 0.08849210 21367.26171178 0 386.90799677 0 6215.33881370 0 1580.67401879 0 1088.24565927 0 8718
0.08950000 0.08949900 20858.93127935 0 119.08838959 0 5982.22208697 0 269.71518919 0 -312.58058749 0 8571
0.09050000 0.09049190 20415.37394712 0 513.85330804 0 6287.20927410 0 -519.00968971 0 396.62949796 0 8932
0.09150000 0.09150830 20227.25514845 0 639.69360130 0 5987.27106708 0 -460.24221850 0 1558.75081564 0 9285
0.09250000 0.09250820 20139.23016614 0 129.86508333 0 7119.21697794 0 -167.59181569 0 942.22605402 0 9204
0.09350000 0.09350330 19839.28088680 0 404.57056932 0 6503.13068039 0 -50.56420720 0 824.27368496 0 9349
0.09450000 0.09448040 19385.42629249 0 815.27742105 0 7589.71327646 0 -101.92462527 0 94.12904426 0 9564
0.09550000 0.09549270 18611.36006441 0 953.56300740 0 6856.76966277 0 -79.45256699 0 371.69683693 0 10155
0.09650000 0.09649430 18002.27147614 0 524.18489433 0 7118.25368569 0 470.86832863 0 1209.23073809 0 9913
0.09750000 0.09749140 17967.17220647 0 -172.27098016 0 6540.06795598 0 1200.68290333 0 528.65700633 0 10476
0.09850000 0.09850240 17717.49128181 0 163.83386864 0 6657.13564629 0 619.46667833 0 1100.81164070 0 10575
0.09950000 0.09950330 17474.67519853 0 536.34009252 0 6183.28443335 0 886.58651458 0 1622.44990033 0 10882
0.10050000 0.10051200 17314.90155140 0 -47.80786266 0 6224.81672374 0 1023.92873886 0 2936.53555445 0 10875
0.10150000 0.10150300 17184.24811854 0 194.80759009 0 5943.31393755 0 298.57409659 0 2500.56276472 0 11118
0.10250000 0.10250800 17394.73301334 0 200.00715383 0 6206.94599149 0 446.58893477 0 3004.34247164 0 11575
0.10350000 0.10349800 16653.21942024 0 311.86974424 0 6127.08131257 0 273.80973491 0 3296.51897896 0 11364
0.10450000 0.10450100 16813.10379062 0 114.62513545 0 5689.61375898 0 100.46562503 0 2085.68275376 0 12093
0.10550000 0.10551000 16491.89564763 0 36.63699415 0 5880.79959163 0 91.60820807 0 1215.46445697 0 12067
0.10650000 0.10649700 16268.89902578 0 724.62829776 0 5173.93130288 0 -170.34107394 0 1380.28708422 0 12054
0.10750000 0.10749900 15627.03635604 0 554.62603696 0 5156.28201712 0 -168.45988595 0 1014.66452468 0 12807
0.10850000 0.10850100 15468.36994139 0 217.76716284 0 5136.47362802 0 500.94519177 0 -124.51161428 0 12736
0.10950000 0.10950300 14853.74519071 0 436.25291955 0 5262.99708372 0 310.03395278 0 501.26407472 0 12933
0.11050000 0.11050200 14837.46887323 0 249.20149300 0 4505.08537756 0 624.61198767 0 203.37424780 0 13428
0.11150000 0.11150900 14707.14761011 0 -151.50372773 0 4689.97105738 0 30.47125935 0 213.97821328 0 13453
0.11250000 0.11250000 14786.86834881 0 -158.19916254 0 4896.29275805 0 110.48486103 0 566.52546444 0 13668
0.11350000 0.11349100 15198.20521582 0 -43.58321712 0 5535.44270821 0 -451.29467282 0 103.44430185 0 13791
0.11450000 0.11448600 15129.77824844 0 164.20257706 0 5820.02360070 0 -613.49869525 0 988.19281051 0 14205
0.11550000 0.11549300 15048.17521453 0 404.16200053 0 5901.13945232 0 -306.76097357 0 283.59656281 0 14776
0.11650000 0.11649800 14765.83093165 0 525.54236135 0 6663.32507586 0 -214.06347018 0 1442.92322572 0 14553
0.11750000 0.11747300 14564.31461995 0 235.03777509 0 6509.66335203 0 182.36783316 0 903.55817406 0 14568
0.11850000 0.11849100 14390.36839705 0 -18.56230967 0 6324.77767221 0 1020.82848791 0 939.18780809 0 16015
0.11950000 0.11950300 14377.74594676 0 -243.12057221 0 5516.03292280 0 1151.02352652 0 261.35890565 0 15270
0.12050000 0.12050700 14409.41279574 0 31.73361510 0 4906.14712714 0 954.99023007 0 153.82780871 0 15999
0.12150000 0.12150000 14289.27807146 0 198.61868429 0 4193.28871067 0 229.16944293 0 261.81729989 0 15670
0.12250000 0.12250700 13947.91829730 0 248.43307365 0 3999.83305144 0 95.09665472 0 135.55182936 0 16887
0.12350000 0.12352200 13814.38605998 0 399.75189355 0 4083.84985216 0 -71.24454188 0 430.31372452 0 16407
0.12450000 0.12449800 13536.47070704 0 161.97261084 0 3896.71649040 0 216.18160592 0 203.89796877 0 16306
0.12550000 0.12549900 13311.03817373 0 249.92340857 0 4416.47356204 0 340.70318530 0 847.12696339 0 17523
0.12650000 0.12650100 13092.35975856 0 371.30044770 0 4309.84707403 0 9.09349000 0 554.48763290 0 17154
0.12750000 0.12750600 13029.91184658 0 -94.45091674 0 4274.60386414 0 358.84076058 0 875.94047426 0 18007
0.12850000 0.12850300 12777.24139422 0 95.68448445 0 4115.53884579 0 227.35579613 0 471.46955587 0 17496
0.12950000 0.12949900 12870.24892270 0 341.68972944 0 4102.89425085 0 15.50114402 0 276.56895825 0 18405
0.13050000 0.13049000 12427.24520670 0 240.16869041 0 4022.60882359 0 -40.41276763 0 343.73810953 0 18100
0.13150000 0.13148800 12300.46708753 0 234.94476756 0 3655.71626840 0 96.89845414 0 367.93778265 0 19059
0.13250000 0.13249300 12061.52631794 0 -52.68167859 0 3643.79137457 0 334.52372082 0 125.97537562 0 18957
0.13350000 0.13349100 12280.75834935 0 63.05733274 0 3561.78973696 0 226.27292276 0 -84.90756926 0 19468
0.13450000 0.13450700 12225.72889500 0 190.82598209 0 3524.59779790 0 167.91069864 0 -65.93370128 0 19953
0.13550000 0.13551000 11998.19261998 0 182.43205264 0 3414.91534824 0 104.60589945 0 252.56526528 0 19956
0.13650000 0.13649900 11962.42901082 0 65.33856382 0 3191.92979872 0 245.50887267 0 632.64385209 0 19723
0.13750000 0.13749600 11907.62100296 0 -134.47338492 0 3357.56070568 0 221.62586803 0 385.73654480 0 20946
0.13850000 0.13851100 12025.09836929 0 201.24836144 0 3227.25051489 0 197.27561129 0 -8.23937086 0 20955
0.13950000 0.13949800 11886.91575555 0 95.72456626 0 3381.60979519 0 -200.43233110 0 28.65285144 0 20506
0.14050000 0.14048300 11566.15050556 0 328.38965287 0 3204.82905713 0 -377.74232628 0 -238.69053505 0 21447
0.14150000 0.14148400 11660.59743626 0 189.57480938 0 3555.86604318 0 -241.10098016 0 150.97447060 0 21771
0.14250000 0.14249400 11465.06017996 0 -71.58335502 0 3557.17257751 0 211.42272071 0 -313.68006934 0 22470
0.14350000 0.14350900 11388.66113872 0 139.08279374 0 3385.85049559 0 -59.98420898 0 -382.81677274 0 22519
0.14450000 0.14449900 11356.32995024 0 322.43827828 0 3805.01549625 0 209.90913391 0 -328.82258077 0 22218
0.14550000 0.14550500 11159.35329172 0 349.12036662 0 3563.01876502 0 158.96868912 0 159.72160721 0 23559
0.14650000 0.14650700 10809.09136841 0 145.99081720 0 3362.77577067 0 215.36668282 0 246.38690803 0 23044
0.14750000 0.14750500 10706.60592989 0 -10.45630496 0 3311.80985953 0 296.68405075 0 -221.00249615 0 23649
0.14850000 0.14849900 10817.83850501 0 79.97717374 0 3052.16384253 0 453.95645970 0 -106.32731379 0 23640
0.14950000 0.14949500 10653.58056633 0 111.09527830 0 3054.13471635 0 92.59298064 0 -501.69257370 0 24457
0.15050000 0.15050000 10428.44698579 0 355.04848933 0 2902.54351726 0 72.08338120 0 -45.12049870 0 24591
0.15150000 0.15149900 10093.14377331 0 361.68966976 0 2881.43966615 0 -193.74132521 0 150.10972203 0 25020
0.15250000 0.15250500 9947.23267685 0 288.94117400 0 2784.16929262 0 161.78105962 0 300.38220724 0 25297
0.15350000 0.15350100 9687.44271963 0 -20.83689735 0 2866.66918485 0 623.48482500 0 344.25518710 0 25452
0.15450000 0.15450400 9742.46110165 0 -58.76968567 0 2473.91167888 0 544.67533864 0 -196.83825446 0 26061
0.15550000 0.15549900 9752.20474749 0 166.47129642 0 2587.36979130 0 -51.22312125 0 98.10101934 0 26128
0.15650000 0.15649500 9460.83651989 0 407.71400233 0 2406.31513586 0 -84.43145929 0 296.46703318 0 26331
0.15750000 0.15749700 9248.94543984 0 159.62749245 0 2530.17016128 0 -18.15230148 0 555.07557334 0 27345
0.15850000 0.15849900 9100.97489096 0 53.90860291 0 2294.79468029 0 -26.57490824 0 61.38829049 0 26980
0.15950000 0.15949700 9211.35489708 0 -27.19163674 0 2494.10759935 0 128.99036967 0 184.42507111 0 27777
0.16050000 0.16050000 9162.69202950 0 50.77591005 0 2230.80771516 0 -21.30282078 0 51.95068371 0 28224
0.16150000 0.16150500 9096.34665919 0 86.56454266 0 2213.30236962 0 231.32190288 0 131.45617641 0 28075
0.16250000 0.16249700 9113.88522170 0 149.18186121 0 2228.69290112 0 176.66004971 0 296.46038979 0 28590
0.16350000 0.16349900 8909.84441994 0 182.81294062 0 2191.71133623 0 99.23593263 0 92.48978657 0 29163
0.16450000 0.16449100 8683.07213533 0 187.56186073 0 2140.81185904 0 66.65406673 0 421.44257787 0 28996
0.16550000 0.16550500 8542.60862268 0 212.97284619 0 2157.03281489 0 -45.45853678 0 406.44843561 0 30777
0.16650000 0.16650700 8524.37250370 0 29.04292945 0 2320.63748642 0 95.82067404 0 732.72881059 0 29211
0.16750000 0.16749900 8413.88177434 0 23.58039800 0 2420.99703857 0 172.55110997 0 535.91823694 0 30922
0.16850000 0.16850800 8449.60109420 0 203.06090101 0 2323.89274991 0 174.22635272 0 476.27051591 0 30867
0.16950000 0.16949900 8255.78004825 0 83.72382701 0 2261.03516192 0 -26.97196181 0 640.62256936 0 30852
0.17050000 0.17049200 8174.36524386 0 72.48608166 0 2400.75682880 0 -83.14729106 0 629.10513708 0 31257
0.17150000 0.17149500 8168.17581429 0 96.51280507 0 2420.63165185 0 174.28835774 0 501.76454381 0 32608
0.17250000 0.17250900 8139.65350556 0 64.91615463 0 2437.57230882 0 -327.35771219 0 306.50852456 0 32361
0.17350000 0.17350400 8084.23651984 0 88.99868255 0 2447.61490744 0 -120.25541262 0 510.23930122 0 32508
0.17450000 0.17449800 8043.09176081 0 150.57808137 0 2498.06041931 0 -95.86673491 0 437.76207742 0 32791
0.17550000 0.17549800 8089.03083648 0 -61.41929300 0 2455.06658204 0 115.79548019 0 474.34060970 0 33633
0.17650000 0.17650100 8145.58827166 0 -31.41063539 0 2556.85446410 0 205.90538126 0 333.19836354 0 33984
0.17750000 0.17750300 8078.31282606 0 36.24857699 0 2440.88293395 0 279.24846086 0 481.72142142 0 34069
0.17850000 0.17849800 8085.03372723 0 106.82822576 0 2271.32135167 0 186.57531659 0 507.91964917 0 34536
