### header ###
fiducial parameters:
Omega_m = 0.31
Omega_nu = 0
Omega_de = 0.69
Omega_k = 0
H_0 = 100
w_de = -1
zeff = 0
beta = 0
fgrowth = 0
b_1 = 2
gamma = 0.55
Lx = 3500 Ly = 3500 Lz = 3500
nx = 700 ny = 700 nz = 700
xoffset = -685.467585 yoffset = -31.7331281 zoffset = 572.489161
bins = 400 dk = 0.001
kx_ny = 0.628318531 ky_ny = 0.628318531 kz_ny = 0.628318531
############################
A(data) = 8.08347856 (not used)
A(ran) = 8.07436004 (used)
Ngal = 479351
weighted Ngal = 0
Nran = 23820508
weighted Nran = 0
SN(data) = 3499.46569
SN(ran) = 70.3306043
SN(data+ran) = 3569.79629
############################
13 columns: k_central k_mean P_0(k) sigma^{lin}_{P_0(k)} P^img_1(k) sigma^{lin}_{P_1(k)} P_2(k) sigma^{lin}_{P_2(k)} P^img_3(k) sigma^{lin}_{P_3(k)} P_4(k) sigma^{lin}_{P_4(k)} N_modes
### header ###
0.00050000 0 0 0 0 0 0 0 0 0 0 0 0
0.00150000 0.00179520 38975.57987087 0 -37616.78416912 0 6705.72100759 0 4642.67008576 0 306.73329275 0 3
0.00250000 0.00253879 62490.54042772 0 -30430.95608507 0 620.30596055 0 -40408.11725591 0 45009.99689703 0 6
0.00350000 0.00331552 70419.65367685 0 -3076.23507669 0 2217.25518958 0 -42953.64473171 0 16596.86128691 0 7
0.00450000 0.00420575 69001.06742108 0 13403.15991622 0 2802.94795552 0 -51760.57189246 0 27289.40536428 0 24
0.00550000 0.00557378 49150.82493271 0 13977.25995807 0 25279.44623995 0 -21880.02107413 0 17244.14939581 0 45
0.00650000 0.00659388 42261.40298405 0 -3371.87722167 0 9476.74745066 0 3037.43765052 0 6862.42762075 0 40
0.00750000 0.00754703 44567.87896702 0 -10465.38426139 0 29072.38182982 0 6090.68658089 0 -34808.95331836 0 57
0.00850000 0.00846663 50595.54187505 0 -5866.10661659 0 581.57386110 0 4329.21257014 0 -32662.25098252 0 75
0.00950000 0.00948925 56824.83181802 0 -3407.39723969 0 3169.20938819 0 -9676.16002064 0 -55682.94295947 0 112
0.01050000 0.01054430 63316.86802893 0 -10499.80811925 0 -21368.70111400 0 -24633.15464028 0 -36762.55430937 0 105
0.01150000 0.01145670 70673.09919194 0 -27758.65049009 0 -30869.30942464 0 -26536.37655336 0 -38295.96057350 0 144
0.01250000 0.01249090 111077.56258066 0 -36115.81981671 0 -19132.09150064 0 -34250.90814750 0 -96033.81629606 0 169
0.01350000 0.01339930 117934.65334085 0 -17857.55619076 0 1067.16838174 0 -45606.57375826 0 -69827.94863854 0 180
0.01450000 0.01448870 128030.39911049 0 34839.95582786 0 18615.45682460 0 -61275.57422537 0 -74742.95362553 0 267
0.01550000 0.01550050 93946.01872826 0 25893.51737439 0 33124.07765071 0 -32060.80229838 0 -4205.06966428 0 238
0.01650000 0.01653350 87993.31545926 0 10309.55236189 0 46723.10699297 0 8306.19234315 0 -22920.48743734 0 315
0.01750000 0.01747870 78982.32535210 0 6446.06391827 0 53207.06040677 0 28030.36534114 0 -12231.37578066 0 297
0.01850000 0.01844180 81486.66377958 0 6566.65260787 0 52626.42769328 0 38228.64083860 0 -31660.20558644 0 388
0.01950000 0.01947590 66481.33846210 0 6129.49507938 0 41263.23290165 0 11106.53830234 0 6627.31787555 0 399
0.02050000 0.02045430 65227.72984613 0 7397.37592204 0 28895.11390948 0 18207.88454802 0 266.15100783 0 462
0.02150000 0.02154770 60937.20397891 0 -1328.55718266 0 24728.26591048 0 6341.45259338 0 7158.80053917 0 571
0.02250000 0.02255340 59354.63659258 0 -2227.54137934 0 21662.89278443 0 1652.35624966 0 749.99388668 0 510
0.02350000 0.02348930 60536.38582047 0 126.92538109 0 20799.36217183 0 1585.97766237 0 -8633.80028989 0 555
0.02450000 0.02439640 59589.03770899 0 -206.29844879 0 19100.20320516 0 -5991.97680513 0 -12536.86122241 0 592
0.02550000 0.02547300 58914.95457403 0 1228.57408955 0 19364.05670559 0 -2652.87366492 0 -3975.19712872 0 837
0.02650000 0.02652900 60872.87377171 0 327.12076444 0 21363.60784459 0 -754.41949491 0 -10156.61033917 0 723
0.02750000 0.02749970 61061.43546337 0 -53.44622262 0 22981.49594709 0 153.13246671 0 -16776.78656521 0 826
0.02850000 0.02848090 60093.71427422 0 4053.75527330 0 22451.02086502 0 -2735.16318298 0 -6477.74183958 0 831
0.02950000 0.02946900 62360.88350409 0 856.50190081 0 30633.46890600 0 -6898.89985870 0 -10108.88861920 0 996
0.03050000 0.03053250 61541.53146751 0 139.82906844 0 32291.77099409 0 -941.83298649 0 -4388.91454556 0 1041
0.03150000 0.03150510 59183.12628114 0 2898.26959988 0 35561.20706654 0 1429.72501453 0 -5282.16327798 0 1036
0.03250000 0.03246190 59679.16643301 0 17.69468229 0 27280.21533468 0 12563.76697172 0 -3952.46564586 0 1059
0.03350000 0.03345080 60111.54071718 0 -3169.23153284 0 27520.92767623 0 12146.56177255 0 541.64262887 0 1302
0.03450000 0.03451200 60556.86962139 0 -652.56628614 0 16025.52932627 0 13413.45717830 0 -3380.63543060 0 1339
0.03550000 0.03553350 60452.56832160 0 1313.67597811 0 17796.65840426 0 7358.03595196 0 -2331.22262894 0 1365
0.03650000 0.03647120 54073.58054708 0 3876.50949761 0 9550.44484465 0 -185.59098691 0 -794.75154530 0 1308
0.03750000 0.03744890 55008.08476177 0 5232.42639490 0 13085.16274743 0 -2542.32757393 0 349.90760892 0 1579
0.03850000 0.03847530 48196.27981009 0 3832.99526107 0 12842.56811065 0 -3386.42625648 0 7906.89109322 0 1662
0.03950000 0.03950240 47095.13710688 0 1733.66033080 0 13714.29224362 0 5149.18465691 0 7330.13369341 0 1683
0.04050000 0.04050350 45925.12454329 0 -249.08744805 0 15834.42099990 0 4643.25691897 0 10745.91268299 0 1822
0.04150000 0.04152450 46056.99593188 0 -446.24901440 0 14041.47944201 0 4957.27912315 0 3327.82044122 0 1887
0.04250000 0.04250150 45842.19283040 0 454.01957196 0 16341.97636958 0 19.82178661 0 6630.19668000 0 1920
0.04350000 0.04349210 43056.94952227 0 2374.68150386 0 11764.01295007 0 -3398.77189866 0 8513.73199955 0 2005
0.04450000 0.04448520 44063.20240179 0 2272.96005575 0 15448.10758698 0 -923.82274294 0 9578.65712829 0 2151
0.04550000 0.04548030 44479.63253822 0 -1259.00083815 0 13525.28765897 0 -924.00765077 0 5534.45727130 0 2274
0.04650000 0.04648670 43278.06384890 0 -250.92434674 0 13372.26812998 0 3265.23966134 0 2734.07809514 0 2311
0.04750000 0.04749250 43190.37103633 0 1936.40567056 0 13574.55950441 0 -45.75283917 0 2147.48847090 0 2568
0.04850000 0.04851840 41585.88044686 0 3056.84743593 0 13850.03894590 0 4591.16163070 0 2661.47686131 0 2493
0.04950000 0.04949480 38570.66495225 0 2047.58288406 0 12845.44691510 0 -220.18092965 0 4941.98824258 0 2644
0.05050000 0.05050630 37539.83151163 0 2278.36335026 0 13671.33162333 0 1622.26167080 0 5385.80023829 0 2829
0.05150000 0.05149060 36913.69154314 0 93.23307173 0 17643.63887526 0 -1715.34670555 0 6095.82413961 0 2784
0.05250000 0.05249300 36805.62565291 0 946.97829583 0 17869.62502481 0 -1378.21655948 0 5817.73162946 0 3055
0.05350000 0.05348950 36421.19453521 0 192.47465125 0 19051.81714570 0 -2366.60977906 0 7527.66396818 0 3009
0.05450000 0.05448610 37278.52464591 0 -345.69237486 0 19945.90737481 0 1679.33950524 0 4957.84381172 0 3336
0.05550000 0.05550870 37290.48275672 0 -449.29058203 0 17226.32295285 0 2345.09625194 0 2805.98177252 0 3349
0.05650000 0.05647670 36514.53423343 0 1394.80290205 0 15877.82451319 0 522.98243986 0 -4207.81560083 0 3324
0.05750000 0.05747970 35239.00241432 0 2074.27825920 0 13987.77866664 0 -310.21221721 0 -4903.13545479 0 3639
0.05850000 0.05849280 32678.97019300 0 1973.53117568 0 13871.51925605 0 -1947.22333191 0 -7184.17830766 0 3846
0.05950000 0.05951020 31506.18954821 0 678.34819448 0 13224.00970065 0 -673.88494034 0 -7863.43221830 0 3787
0.06050000 0.06049470 31442.96657350 0 -436.08129852 0 13616.41289223 0 1492.05113094 0 -9168.34998748 0 3930
0.06150000 0.06148310 31741.47645061 0 -266.18201034 0 12638.06227125 0 1656.86268586 0 -6498.05955562 0 4083
0.06250000 0.06249100 31208.12256409 0 140.57423590 0 13587.51412445 0 2631.22726990 0 -4464.89283847 0 4303
0.06350000 0.06350600 32004.44416505 0 -183.32448202 0 12135.93234073 0 2462.97222196 0 -3810.16412729 0 4470
0.06450000 0.06451750 31426.35808627 0 -457.17850623 0 12180.44308650 0 2287.21013779 0 -837.85610582 0 4479
0.06550000 0.06550280 32534.14418437 0 604.28098484 0 12211.77776573 0 1281.52194683 0 -535.98356366 0 4636
0.06650000 0.06648880 31768.16075342 0 -554.09345813 0 10265.47343679 0 515.51969293 0 -193.10688100 0 4653
0.06750000 0.06749660 32937.73042401 0 -597.37960478 0 11324.22020827 0 313.69335613 0 237.90550722 0 5220
0.06850000 0.06852730 32716.61609738 0 104.72038729 0 11548.32406260 0 236.29559119 0 -1031.98606963 0 5029
0.06950000 0.06949320 32231.86971682 0 1299.92415068 0 12118.99168375 0 77.74787186 0 1308.13981570 0 5040
0.07050000 0.07048030 31708.48092265 0 1280.28184646 0 11419.88509470 0 1379.37915358 0 1780.71771128 0 5475
0.07150000 0.07148790 31343.97998962 0 258.03499374 0 12174.57475434 0 -44.16706081 0 750.79220130 0 5509
0.07250000 0.07249820 30454.98302993 0 615.49503541 0 12847.77210332 0 -218.66734284 0 747.93886320 0 5916
0.07350000 0.07351270 30124.91702708 0 964.15811502 0 12172.36028938 0 24.74465295 0 1839.92143209 0 5721
0.07450000 0.07449140 29602.30329564 0 766.46175539 0 13343.36936220 0 850.29032659 0 1122.57872406 0 6028
0.07550000 0.07549160 29056.21623559 0 409.80888619 0 12002.51082666 0 1523.19758065 0 1616.51513422 0 6183
0.07650000 0.07648840 28407.82089421 0 843.47088173 0 11674.32711904 0 820.60874545 0 -353.35553087 0 6330
0.07750000 0.07749960 27075.15587904 0 1310.71966738 0 9307.81699090 0 954.11440918 0 1653.76243491 0 6583
0.07850000 0.07848650 26196.78835117 0 1312.13692496 0 10572.30970216 0 1179.35760573 0 972.12575996 0 6549
0.07950000 0.07947320 25650.14767488 0 501.08359583 0 8360.67925359 0 619.80549147 0 3220.28602258 0 6828
0.08050000 0.08048110 24579.67531141 0 235.76079790 0 7965.71835498 0 2154.74084366 0 1868.32194525 0 7147
0.08150000 0.08149960 24161.47360301 0 114.84879641 0 6995.29551857 0 1095.79366309 0 1857.70358575 0 7386
0.08250000 0.08250610 24159.59130779 0 435.87646051 0 6027.05393016 0 2185.89836570 0 1042.34201503 0 7227
0.08350000 0.08350160 23793.76169578 0 352.51957034 0 6034.74919591 0 -24.85615126 0 278.97940336 0 7798
0.08450000 0.08449610 22786.06941404 0 1092.40996063 0 5239.51268278 0 -4.14748250 0 975.44635018 0 7371
0.08550000 0.08548940 21913.79166482 0 894.24745612 0 5260.22900252 0 9.91319635 0 1797.53657268 0 8256
0.08650000 0.08650700 21388.29912893 0 172.51346407 0 5110.84119606 0 535.72890019 0 1842.82238119 0 8037
0.08750000 0.08749060 21721.68682922 0 -363.30069302 0 5170.19992942 0 930.74848212 0 1253.28751855 0 8155
0.08850000 0.08849210 21789.00656412 0 -92.83169996 0 4776.37948027 0 275.37536163 0 -86.55335962 0 8718
0.08950000 0.08949900 21595.46232629 0 302.96316615 0 4873.06302058 0 -660.04231986 0 788.17901329 0 8571
0.09050000 0.09049190 21471.67373482 0 552.43814557 0 4906.66752641 0 -1156.18322989 0 786.15277784 0 8932
0.09150000 0.09150830 21158.21621920 0 643.54234141 0 5402.53052109 0 -481.85096762 0 721.99751338 0 9285
0.09250000 0.09250820 20226.03719272 0 776.34712698 0 5395.15635276 0 133.03508993 0 84.13859630 0 9204
0.09350000 0.09350330 19896.41408287 0 847.96735284 0 5890.46573120 0 549.53941093 0 142.34137894 0 9349
0.09450000 0.09448040 19402.92056570 0 216.67543161 0 5817.10050695 0 301.23477625 0 109.38095025 0 9564
0.09550000 0.09549270 18994.35177989 0 632.09909371 0 5930.66934261 0 407.21796218 0 1376.93216980 0 10155
0.09650000 0.09649430 18782.98109910 0 113.40607249 0 6227.99448097 0 -366.02005599 0 1346.99260349 0 9913
0.09750000 0.09749140 18611.13861792 0 167.01937649 0 5980.90448031 0 1477.62389170 0 709.13922257 0 10476
0.09850000 0.09850240 18445.05374564 0 133.10816727 0 6183.98198981 0 -124.98440255 0 1060.20278220 0 10575
0.09950000 0.09950330 18116.75931477 0 865.63546155 0 5744.98645540 0 347.16056513 0 936.50941272 0 10882
0.10050000 0.10051200 17553.95304423 0 518.88014351 0 5333.66066071 0 553.86204654 0 1325.98840331 0 10875
0.10150000 0.10150300 17030.78569655 0 113.57990799 0 4887.04736683 0 240.86624687 0 1395.94335151 0 11118
0.10250000 0.10250800 16873.11579114 0 214.83853292 0 5092.82652358 0 111.44294930 0 800.29988726 0 11575
0.10350000 0.10349800 16610.81241618 0 340.01005776 0 5576.90856466 0 149.66129288 0 938.00196210 0 11364
0.10450000 0.10450100 16652.00146451 0 134.07367400 0 5938.89607995 0 -288.83377245 0 1182.11461461 0 12093
0.10550000 0.10551000 16615.68423910 0 183.51935494 0 6524.75493076 0 -378.13096488 0 1116.90969376 0 12067
0.10650000 0.10649700 16490.34552215 0 293.31363507 0 6597.41152622 0 -140.89644055 0 726.55488227 0 12054
0.10750000 0.10749900 16190.61768931 0 322.65197415 0 6719.30675014 0 -267.54833522 0 1230.63354197 0 12807
0.10850000 0.10850100 16419.81481306 0 448.62956423 0 7203.79846723 0 333.14410914 0 1225.89458695 0 12736
0.10950000 0.10950300 15835.74967888 0 162.00250612 0 7338.23863518 0 450.27712617 0 2291.72764631 0 12933
0.11050000 0.11050200 15708.52866671 0 54.25306293 0 6605.48325101 0 766.15394476 0 2130.64746485 0 13428
0.11150000 0.11150900 15559.16300491 0 68.97360806 0 6653.60357467 0 938.97189776 0 2076.83596623 0 13453
0.11250000 0.11250000 15508.45175724 0 460.09052765 0 6377.91375901 0 -62.10754871 0 2079.88085556 0 13668
0.11350000 0.11349100 15266.30001345 0 489.23067211 0 6755.48003533 0 -312.89725598 0 2577.08360154 0 13791
0.11450000 0.11448600 15010.97220314 0 52.39645551 0 6826.06610605 0 -222.67773889 0 3067.31078289 0 14205
0.11550000 0.11549300 15138.41466180 0 -228.05667429 0 6966.44104010 0 225.61190497 0 2399.26206495 0 14776
0.11650000 0.11649800 15229.20772531 0 -120.03618059 0 6857.36756831 0 273.27272715 0 2160.33236769 0 14553
0.11750000 0.11747300 15122.58123731 0 80.27490855 0 6290.66383944 0 923.50053829 0 1708.50400882 0 14568
0.11850000 0.11849100 15131.99271340 0 -141.12563767 0 5636.24515336 0 1149.04158038 0 1439.46866037 0 16015
0.11950000 0.11950300 15071.31637340 0 201.63035664 0 5149.10715064 0 640.50963164 0 626.54964451 0 15270
0.12050000 0.12050700 14607.71813324 0 462.51868849 0 4569.28271686 0 261.31683081 0 250.09502961 0 15999
0.12150000 0.12150000 14274.10898645 0 572.49123305 0 4246.45801445 0 -477.83946434 0 16.33577587 0 15670
0.12250000 0.12250700 13966.51980299 0 306.95473925 0 4469.57643187 0 -574.92603728 0 -266.42227979 0 16887
0.12350000 0.12352200 13441.47016009 0 364.73123739 0 4441.51916078 0 -220.07020640 0 -351.31711587 0 16407
0.12450000 0.12449800 13307.60575303 0 289.36856574 0 4528.54763385 0 387.50590231 0 11.22312988 0 16306
0.12550000 0.12549900 13139.52786229 0 64.54999284 0 4141.84668956 0 865.80486812 0 239.80994708 0 17523
0.12650000 0.12650100 13052.94228221 0 -6.29086314 0 4106.49275641 0 1156.94722030 0 -125.92001400 0 17154
0.12750000 0.12750600 12960.37764672 0 196.27024420 0 3914.69794591 0 698.25069834 0 318.83977271 0 18007
0.12850000 0.12850300 13040.54127841 0 205.50234863 0 3565.20001301 0 258.03720820 0 1100.01332608 0 17496
0.12950000 0.12949900 12833.93169729 0 -134.19768403 0 3447.29082601 0 110.29618862 0 1449.33410179 0 18405
0.13050000 0.13049000 12800.38255309 0 72.75082094 0 3575.87373413 0 53.02813164 0 1245.26008305 0 18100
0.13150000 0.13148800 12869.25241346 0 101.89616939 0 3827.53660493 0 -205.03731099 0 956.91902906 0 19059
0.13250000 0.13249300 12618.35353307 0 259.26512902 0 3848.98369811 0 -133.68392816 0 1274.33600803 0 18957
0.13350000 0.13349100 12540.07219661 0 421.82014415 0 4079.36556061 0 -239.28844059 0 782.14459626 0 19468
0.13450000 0.13450700 12290.61271844 0 300.24269594 0 4129.53426436 0 -56.92536853 0 1225.24131978 0 19953
0.13550000 0.13551000 12062.41210393 0 158.63209044 0 4248.27387572 0 -106.94426373 0 861.44237215 0 19956
0.13650000 0.13649900 12110.24454715 0 -109.30145096 0 4501.65295687 0 -177.55137186 0 740.67763258 0 19723
0.13750000 0.13749600 12167.70991295 0 -8.98928835 0 4375.05199489 0 -32.45973816 0 163.12634709 0 20946
0.13850000 0.13851100 12084.22458382 0 219.73028603 0 4668.72326606 0 -424.77424041 0 -324.27849866 0 20955
0.13950000 0.13949800 11990.99560885 0 292.78327071 0 4484.08117738 0 -19.94712533 0 -143.17733946 0 20506
0.14050000 0.14048300 11600.80688224 0 253.34032801 0 4136.78663712 0 259.97154335 0 -338.69466558 0 21447
0.14150000 0.14148400 11647.19992323 0 56.70635794 0 3839.83795781 0 470.99566037 0 -322.32201887 0 21771
0.14250000 0.14249400 11545.55598140 0 -8.36848524 0 3743.84090163 0 706.25266749 0 -508.89954992 0 22470
0.14350000 0.14350900 11302.73989812 0 383.63280308 0 3372.86265858 0 265.83323211 0 -870.34341407 0 22519
0.14450000 0.14449900 10998.63849698 0 423.55185575 0 3250.23666121 0 69.91464494 0 -483.23279376 0 22218
0.14550000 0.14550500 10553.45353299 0 222.85268162 0 3109.58491904 0 140.85879465 0 -60.74487770 0 23559
0.14650000 0.14650700 10472.90236994 0 46.86948313 0 2925.09784291 0 331.15662684 0 -266.09453897 0 23044
0.14750000 0.14750500 10396.03829105 0 -7.44413435 0 2954.05197232 0 363.23979523 0 -386.75076975 0 23649
0.14850000 0.14849900 10526.16025232 0 -22.46242536 0 2851.41152125 0 0.94943857 0 -520.24757563 0 23640
0.14950000 0.14949500 10357.60625160 0 259.86082010 0 2739.56996825 0 -24.19690504 0 -45.21926384 0 24457
0.15050000 0.15050000 10297.70497433 0 111.09306384 0 2944.71800249 0 -175.84291214 0 96.33686583 0 24591
0.15150000 0.15149900 10265.01947147 0 95.36704090 0 3410.82966038 0 26.30230761 0 50.98373758 0 25020
0.15250000 0.15250500 10160.54101448 0 291.41251690 0 3463.22390143 0 8.77987747 0 430.40451758 0 25297
0.15350000 0.15350100 9913.68353265 0 310.18121470 0 3655.05192891 0 148.42562143 0 936.47398128 0 25452
0.15450000 0.15450400 9675.39603023 0 335.47372629 0 3570.22684847 0 186.76243888 0 903.02116630 0 26061
0.15550000 0.15549900 9600.55818678 0 53.66180079 0 3583.45827663 0 470.57491202 0 866.18797056 0 26128
0.15650000 0.15649500 9299.20272219 0 2.67707777 0 3295.59997600 0 248.46186170 0 834.85329133 0 26331
0.15750000 0.15749700 9384.30461074 0 98.00026118 0 3148.28269428 0 258.58639551 0 807.97300836 0 27345
0.15850000 0.15849900 9348.16454254 0 -4.50697875 0 3173.59402882 0 -126.87555563 0 535.16864055 0 26980
0.15950000 0.15949700 9348.66279715 0 -41.42234221 0 2778.64420254 0 -104.92445023 0 689.13596055 0 27777
0.16050000 0.16050000 9410.41315267 0 124.29902565 0 2849.94997437 0 53.46338473 0 563.59683452 0 28224
0.16150000 0.16150500 9451.73506889 0 30.04342472 0 2823.56462433 0 61.95475063 0 195.89046346 0 28075
0.16250000 0.16249700 9270.31502674 0 74.87593225 0 3047.33630891 0 -3.11576328 0 449.89955989 0 28590
0.16350000 0.16349900 9231.13006920 0 258.77683950 0 2807.48760869 0 341.48489143 0 11.80099451 0 29163
0.16450000 0.16449100 8909.26865905 0 213.25851217 0 2701.69154505 0 435.26969711 0 409.70369910 0 28996
0.16550000 0.16550500 8874.06973845 0 112.03310421 0 2578.55622074 0 55.42661864 0 303.63525627 0 30777
0.16650000 0.16650700 8676.90485041 0 140.37825575 0 2473.59058146 0 104.77098781 0 298.85754811 0 29211
0.16750000 0.16749900 8513.78736118 0 180.18547794 0 2531.34382771 0 45.29588432 0 195.10543563 0 30922
0.16850000 0.16850800 8527.83814137 0 180.91846584 0 2770.32888660 0 -153.03392302 0 500.36389472 0 30867
0.16950000 0.16949900 8382.93462647 0 89.29442435 0 2790.91233844 0 -80.73197412 0 254.14307156 0 30852
0.17050000 0.17049200 8393.36475645 0 -101.00285423 0 2748.69356390 0 120.89539300 0 530.12408936 0 31257
0.17150000 0.17149500 8476.21896307 0 13.93042402 0 2677.28814115 0 96.80566806 0 445.64778716 0 32608
0.17250000 0.17250900 8459.55511422 0 144.93451741 0 2624.82746616 0 245.99273326 0 171.31433129 0 32361
0.17350000 0.17350400 8262.21306897 0 102.49119613 0 2544.06592893 0 117.72317194 0 142.66358359 0 32508
0.17450000 0.17449800 8124.94945820 0 170.86258044 0 2404.85358899 0 179.93192170 0 477.77856655 0 32791
0.17550000 0.17549800 8099.61597901 0 23.88986948 0 2007.22426010 0 234.50187457 0 161.94382280 0 33633
0.17650000 0.17650100 8075.93227622 0 -41.64445305 0 1891.64026132 0 148.98255936 0 231.52563366 0 33984
0.17750000 0.17750300 8185.50400263 0 -58.76625325 0 1960.64298959 0 35.01556290 0 88.34508322 0 34069
0.17850000 0.17849800 8246.64538028 0 64.49108808 0 1975.29167532 0 87.90960868 0 255.68766087 0 34536
