### header ###
fiducial parameters:
Omega_m = 0.31
Omega_nu = 0
Omega_de = 0.69
Omega_k = 0
H_0 = 100
w_de = -1
zeff = 0
beta = 0
fgrowth = 0
b_1 = 2
gamma = 0.55
Lx = 3500 Ly = 3500 Lz = 3500
nx = 700 ny = 700 nz = 700
xoffset = -685.467585 yoffset = -31.7331281 zoffset = 572.489161
bins = 400 dk = 0.001
kx_ny = 0.628318531 ky_ny = 0.628318531 kz_ny = 0.628318531
############################
A(data) = 7.98893698 (not used)
A(ran) = 7.97738938 (used)
Ngal = 474053
weighted Ngal = 0
Nran = 23820508
weighted Nran = 0
SN(data) = 3501.26812
SN(ran) = 69.4859547
SN(data+ran) = 3570.75408
############################
13 columns: k_central k_mean P_0(k) sigma^{lin}_{P_0(k)} P^img_1(k) sigma^{lin}_{P_1(k)} P_2(k) sigma^{lin}_{P_2(k)} P^img_3(k) sigma^{lin}_{P_3(k)} P_4(k) sigma^{lin}_{P_4(k)} N_modes
### header ###
0.00050000 0 0 0 0 0 0 0 0 0 0 0 0
0.00150000 0.00179520 89727.68441885 0 -26601.92471629 0 90638.27241194 0 126249.96927965 0 -99385.07684892 0 3
0.00250000 0.00253879 152618.71083526 0 -914.91062869 0 94024.52151122 0 -32176.28664623 0 108928.20288686 0 6
0.00350000 0.00331552 129209.60170368 0 33402.32517340 0 73696.61893017 0 -82675.27784886 0 127804.52368419 0 7
0.00450000 0.00420575 102111.85828201 0 36165.09166215 0 45405.16816981 0 10317.62408668 0 87032.90200449 0 24
0.00550000 0.00557378 94200.90364558 0 -1804.10246130 0 68879.38257132 0 65502.87711788 0 10261.03343453 0 45
0.00650000 0.00659388 124146.22756411 0 -18401.65023235 0 125163.77421494 0 89218.46820044 0 -37322.26032895 0 40
0.00750000 0.00754703 130798.48031515 0 196.69431424 0 70305.94090096 0 38551.06693732 0 18472.51311119 0 57
0.00850000 0.00846663 138469.38694951 0 -8193.38749790 0 61089.00555217 0 8303.60141915 0 3624.13799802 0 75
0.00950000 0.00948925 115163.25043874 0 33260.82086222 0 69954.17314147 0 1708.10540512 0 19493.38145947 0 112
0.01050000 0.01054430 121986.01699199 0 5646.16595640 0 93284.66876684 0 1213.81468057 0 16778.11524419 0 105
0.01150000 0.01145670 101191.52664308 0 12298.25262257 0 64129.79811712 0 20554.33162359 0 17371.92402422 0 144
0.01250000 0.01249090 98754.17578075 0 9541.16623645 0 65966.69680453 0 27081.35638093 0 572.74921822 0 169
0.01350000 0.01339930 87283.35799189 0 -1868.33301757 0 49152.59650468 0 43365.09232197 0 -5453.54072153 0 180
0.01450000 0.01448870 94673.47046884 0 -2196.22884475 0 41685.30992374 0 26591.73817745 0 9092.13917575 0 267
0.01550000 0.01550050 94816.19273575 0 3184.71064294 0 31856.73935197 0 35246.64231845 0 34103.09261118 0 238
0.01650000 0.01653350 88584.24543483 0 9638.27052511 0 40152.34655259 0 11948.92077454 0 32454.64489218 0 315
0.01750000 0.01747870 82524.69423133 0 12050.01110013 0 36461.27635105 0 25983.09248217 0 52209.22249411 0 297
0.01850000 0.01844180 71191.94833295 0 2946.41206819 0 38416.64891402 0 987.43989242 0 54013.12565357 0 388
0.01950000 0.01947590 79359.11656568 0 1242.49200185 0 55272.60260169 0 17110.61715850 0 74536.12259792 0 399
0.02050000 0.02045430 75431.09861301 0 -4594.06257980 0 44135.50468285 0 19872.60858451 0 46247.10774902 0 462
0.02150000 0.02154770 78266.72099907 0 1253.02178275 0 39779.54137595 0 14357.92648533 0 44915.21779658 0 571
0.02250000 0.02255340 74718.92668068 0 5185.62367789 0 30068.33744726 0 14563.65028046 0 38398.60102457 0 510
0.02350000 0.02348930 72643.08722368 0 5837.06390859 0 25561.90124607 0 9287.65428740 0 25810.91783124 0 555
0.02450000 0.02439640 66065.01904892 0 2267.49032729 0 19947.01460729 0 4628.49750999 0 16334.22574221 0 592
0.02550000 0.02547300 62852.16255629 0 1212.38635067 0 14971.00111054 0 -285.03375057 0 -2815.05000654 0 837
0.02650000 0.02652900 63982.31475053 0 -1119.71099194 0 13611.20889956 0 -5026.93511859 0 -1998.08959212 0 723
0.02750000 0.02749970 60273.52882928 0 2625.37001007 0 12294.93092512 0 -3133.13575393 0 -16213.86957143 0 826
0.02850000 0.02848090 62799.90118315 0 1310.45393159 0 16314.95989703 0 -215.53719662 0 -8695.37348820 0 831
0.02950000 0.02946900 62454.11247906 0 1180.97416516 0 13934.18861452 0 2472.05152831 0 -5160.99882749 0 996
0.03050000 0.03053250 61857.31417134 0 2547.15510756 0 20629.51270911 0 1748.85156046 0 -7778.90609064 0 1041
0.03150000 0.03150510 55190.55667478 0 2254.54677957 0 17571.77948719 0 124.65001834 0 1308.04016478 0 1036
0.03250000 0.03246190 58354.58421496 0 4046.69113007 0 21203.28058121 0 -849.00925861 0 -2714.91190088 0 1059
0.03350000 0.03345080 51264.42101734 0 3132.75929489 0 23364.93055556 0 1907.99408507 0 13719.49623629 0 1302
0.03450000 0.03451200 52490.01665152 0 1175.93625736 0 21936.37920745 0 3604.76142958 0 -641.83498892 0 1339
0.03550000 0.03553350 50504.63808828 0 -2423.51045631 0 17522.61836500 0 8419.27399653 0 8247.65296184 0 1365
0.03650000 0.03647120 52475.84407575 0 498.54360452 0 21359.73253090 0 2516.37404456 0 1710.34201474 0 1308
0.03750000 0.03744890 51608.32742621 0 2227.61888561 0 20356.35845583 0 3179.39592702 0 5019.97062628 0 1579
0.03850000 0.03847530 48351.84597379 0 2680.76485114 0 16613.13760439 0 1716.62002291 0 5612.06319595 0 1662
0.03950000 0.03950240 47679.97730380 0 3154.98145080 0 17026.79965962 0 2958.19302180 0 9610.45684517 0 1683
0.04050000 0.04050350 45120.16652898 0 180.19101410 0 16188.62467085 0 39.36133967 0 7728.17269832 0 1822
0.04150000 0.04152450 44589.35927717 0 1043.24773120 0 21486.17848033 0 4046.08215220 0 6318.56609798 0 1887
0.04250000 0.04250150 43842.19879841 0 378.39780791 0 16402.98487934 0 1608.88630242 0 10465.22924884 0 1920
0.04350000 0.04349210 43136.33809122 0 67.08732680 0 17937.27692946 0 3193.38027327 0 3326.20388180 0 2005
0.04450000 0.04448520 43466.18264757 0 191.63758350 0 17498.48069689 0 648.36655334 0 6321.36739616 0 2151
0.04550000 0.04548030 43345.60503029 0 508.43229781 0 17180.15135836 0 -554.24625621 0 2029.74536878 0 2274
0.04650000 0.04648670 42651.48098741 0 2304.63797705 0 12675.15455939 0 198.34741234 0 5457.03957617 0 2311
0.04750000 0.04749250 42107.60839232 0 1471.64483630 0 14211.32890473 0 122.13106445 0 4412.07784908 0 2568
0.04850000 0.04851840 38515.96766765 0 1024.69272927 0 10322.08623358 0 3034.82458187 0 2638.54607661 0 2493
0.04950000 0.04949480 40768.52142875 0 -53.35498667 0 13676.42489274 0 3470.83058858 0 3530.44398540 0 2644
0.05050000 0.05050630 38713.38721916 0 -46.98507820 0 9677.87623099 0 1515.40266398 0 3051.08982703 0 2829
0.05150000 0.05149060 38121.68218085 0 1797.18225829 0 11837.09029387 0 719.98788642 0 1951.01006699 0 2784
0.05250000 0.05249300 37412.72122272 0 1220.67952196 0 9019.68188214 0 -955.45637495 0 896.76751725 0 3055
0.05350000 0.05348950 35969.11151286 0 381.98967008 0 10768.58880422 0 -619.30391515 0 2437.14048816 0 3009
0.05450000 0.05448610 36887.00724033 0 723.25311501 0 10533.26868485 0 -1918.73424015 0 -1177.81855258 0 3336
0.05550000 0.05550870 34681.62158295 0 960.73012326 0 12112.79118185 0 -1086.23824678 0 -2358.99201959 0 3349
0.05650000 0.05647670 34429.61547008 0 1080.52049824 0 10946.49891941 0 834.32292697 0 -4465.01463404 0 3324
0.05750000 0.05747970 32811.39519783 0 1286.67057788 0 12112.45901211 0 219.36932824 0 -4408.24682470 0 3639
0.05850000 0.05849280 32952.56733927 0 40.44808835 0 9567.00904258 0 1614.42246483 0 -3919.04936956 0 3846
0.05950000 0.05951020 33045.24269800 0 -384.87954686 0 10133.55775890 0 1959.09286411 0 -1759.70243878 0 3787
0.06050000 0.06049470 32778.84256287 0 53.79123626 0 8659.46593882 0 2181.43621880 0 871.27016765 0 3930
0.06150000 0.06148310 34124.46219808 0 -911.63543501 0 8931.07006662 0 2872.05033471 0 166.65731147 0 4083
0.06250000 0.06249100 34297.63335824 0 -889.52289512 0 7793.04544943 0 2519.38571691 0 902.66685191 0 4303
0.06350000 0.06350600 34796.77376106 0 -35.34928277 0 7741.29340323 0 -999.83536005 0 -2231.99245392 0 4470
0.06450000 0.06451750 33423.03042081 0 1463.81670265 0 8881.33318353 0 -1299.79128279 0 -1021.20162526 0 4479
0.06550000 0.06550280 32837.41516116 0 2216.92301984 0 9722.84094207 0 -3426.27555351 0 -1089.73045802 0 4636
0.06650000 0.06648880 31025.53992783 0 1537.44766269 0 8087.49178333 0 -562.82952241 0 -684.62730988 0 4653
0.06750000 0.06749660 29835.37573308 0 770.18427099 0 9126.18657457 0 390.65930041 0 -1935.51988457 0 5220
0.06850000 0.06852730 29038.83268562 0 603.12724859 0 8664.04988129 0 1462.08941998 0 -3491.43618506 0 5029
0.06950000 0.06949320 28427.08673939 0 1019.07684612 0 9281.28770063 0 2956.11142473 0 -5.01620604 0 5040
0.07050000 0.07048030 27961.82765051 0 749.14353214 0 8398.22550705 0 1508.82570304 0 -1530.62711060 0 5475
0.07150000 0.07148790 27333.47321705 0 -280.60924958 0 7189.95806121 0 1513.75288758 0 364.57068868 0 5509
0.07250000 0.07249820 28387.55853979 0 2.17533537 0 9549.62549261 0 -917.31000148 0 124.22705554 0 5916
0.07350000 0.07351270 27621.02149260 0 738.84294836 0 10060.05966675 0 -1715.36885020 0 2779.49677155 0 5721
0.07450000 0.07449140 27873.47049846 0 1427.37768167 0 11542.01283745 0 -901.47546976 0 3400.68741085 0 6028
0.07550000 0.07549160 26526.30073778 0 -23.72599907 0 9889.01439295 0 975.57478914 0 2802.74865367 0 6183
0.07650000 0.07648840 27500.44387532 0 -197.39851410 0 10065.29687639 0 1217.10316104 0 1661.69021948 0 6330
0.07750000 0.07749960 26996.54237282 0 146.93417927 0 10795.14023914 0 1447.01998590 0 16.87477664 0 6583
0.07850000 0.07848650 26625.61949140 0 1093.23595606 0 9808.14213248 0 529.15526094 0 1824.33159874 0 6549
0.07950000 0.07947320 25721.56416996 0 1304.61881641 0 9358.50609392 0 515.55401714 0 2796.97997244 0 6828
0.08050000 0.08048110 25143.81026092 0 201.33804727 0 8904.88401842 0 425.31124817 0 4325.48119668 0 7147
0.08150000 0.08149960 24877.07795604 0 268.30346777 0 9801.27729109 0 1415.44171552 0 3845.26339697 0 7386
0.08250000 0.08250610 24395.54254968 0 792.84489096 0 8668.93277654 0 339.36121953 0 3400.97529130 0 7227
0.08350000 0.08350160 23227.96589755 0 873.87105675 0 9186.81862528 0 483.63361192 0 2227.86247676 0 7798
0.08450000 0.08449610 22435.29816378 0 630.37513274 0 8431.63071102 0 -1297.66539642 0 1622.39453870 0 7371
0.08550000 0.08548940 22104.01420521 0 779.97442059 0 9121.59155977 0 -530.50387011 0 357.55194197 0 8256
0.08650000 0.08650700 21284.32999888 0 660.99011086 0 9557.06609489 0 -1590.68340042 0 -327.48061500 0 8037
0.08750000 0.08749060 20719.19854014 0 1179.82264338 0 9479.16121747 0 -393.11403483 0 -456.70128903 0 8155
0.08850000 0.08849210 19951.66498371 0 673.31139392 0 10379.39658685 0 -766.13622904 0 -401.22894169 0 8718
0.08950000 0.08949900 19908.92580991 0 20.41836347 0 10332.92603958 0 1001.21718619 0 -496.75320959 0 8571
0.09050000 0.09049190 19723.35364595 0 -328.19477995 0 10286.02367165 0 1740.55838917 0 -1350.82362787 0 8932
0.09150000 0.09150830 19718.59254628 0 168.93267422 0 8768.55048293 0 1925.33334574 0 -827.70610566 0 9285
0.09250000 0.09250820 19631.67479645 0 446.75391241 0 8414.84506660 0 1271.15825080 0 -766.31892240 0 9204
0.09350000 0.09350330 19044.73085782 0 354.65985073 0 7196.45751588 0 1215.89627763 0 -281.27248183 0 9349
0.09450000 0.09448040 18814.64794808 0 113.76703028 0 6410.49961095 0 937.72072505 0 417.15758817 0 9564
0.09550000 0.09549270 18556.66277981 0 184.21358971 0 5806.12783305 0 1064.57635050 0 -105.31773921 0 10155
0.09650000 0.09649430 18091.73586068 0 320.59916512 0 5241.83787099 0 1019.63489129 0 236.64990558 0 9913
0.09750000 0.09749140 18083.87451005 0 329.94310004 0 5275.63060634 0 -157.52596519 0 45.21372767 0 10476
0.09850000 0.09850240 17625.48026256 0 319.68348386 0 5368.12880788 0 566.69597824 0 766.87032417 0 10575
0.09950000 0.09950330 17707.19401972 0 239.79887476 0 6569.16602560 0 -449.71908100 0 1542.34163026 0 10882
0.10050000 0.10051200 17180.26208160 0 8.81536427 0 5850.30640908 0 -56.28273079 0 997.70504476 0 10875
0.10150000 0.10150300 17398.27615728 0 482.80650925 0 6673.02443240 0 192.57762387 0 1607.25867067 0 11118
0.10250000 0.10250800 16707.25236535 0 507.19330467 0 6440.37274331 0 490.98231390 0 1662.96353684 0 11575
0.10350000 0.10349800 16417.71107134 0 534.47994195 0 6385.05540852 0 201.41001738 0 1727.79199865 0 11364
0.10450000 0.10450100 16053.65303131 0 539.09820863 0 5884.07699977 0 213.15664678 0 1596.02026098 0 12093
0.10550000 0.10551000 15722.81196573 0 209.47066985 0 5206.76074597 0 469.06243245 0 1991.51263118 0 12067
0.10650000 0.10649700 15577.76451060 0 -238.07712825 0 5669.68357431 0 672.71902454 0 1894.38619787 0 12054
0.10750000 0.10749900 16016.45001992 0 -251.85220756 0 5624.08774071 0 782.39483080 0 1311.92655079 0 12807
0.10850000 0.10850100 15945.58714108 0 97.83572644 0 5737.84480589 0 -129.88612075 0 1300.48883925 0 12736
0.10950000 0.10950300 16035.05152561 0 376.23870457 0 5945.90486156 0 -757.07242394 0 1760.62144174 0 12933
0.11050000 0.11050200 15552.07671702 0 549.34675248 0 6933.84411583 0 -292.82977448 0 2842.71974626 0 13428
0.11150000 0.11150900 15492.72905599 0 367.57128870 0 7061.36408077 0 377.73789735 0 2228.08392326 0 13453
0.11250000 0.11250000 15103.31539212 0 -18.90211931 0 6446.03070130 0 810.84516942 0 3045.58688159 0 13668
0.11350000 0.11349100 15214.37081005 0 -171.53024163 0 5898.19421392 0 1431.41908023 0 2461.06778209 0 13791
0.11450000 0.11448600 15273.38630134 0 -274.55822406 0 5437.49692286 0 1329.07758193 0 2236.59854104 0 14205
0.11550000 0.11549300 15262.20325327 0 84.79308142 0 4860.81702933 0 484.60797650 0 1285.80693654 0 14776
0.11650000 0.11649800 15054.70788617 0 248.24373690 0 4429.73820717 0 -469.92164486 0 2041.95814305 0 14553
0.11750000 0.11747300 14659.31516689 0 544.04310889 0 4613.40593126 0 -331.15773407 0 1855.04622779 0 14568
0.11850000 0.11849100 14576.27273076 0 269.94881524 0 4570.74426374 0 -354.97651922 0 1717.36186867 0 16015
0.11950000 0.11950300 14266.91197532 0 235.60467812 0 5282.96048537 0 61.02146437 0 1613.33737700 0 15270
0.12050000 0.12050700 13993.53627555 0 305.94605046 0 5423.86689101 0 -161.03810663 0 1211.82166210 0 15999
0.12150000 0.12150000 14030.73928694 0 397.74115937 0 5580.65101044 0 -181.36578776 0 1284.63327011 0 15670
0.12250000 0.12250700 13746.06981585 0 158.45493325 0 5439.72246015 0 -47.23254466 0 1285.76264724 0 16887
0.12350000 0.12352200 13376.36489016 0 25.68956515 0 4967.87533801 0 521.79880833 0 1898.36116248 0 16407
0.12450000 0.12449800 13897.87138912 0 -92.05818735 0 4857.49533189 0 357.65602183 0 756.11023891 0 16306
0.12550000 0.12549900 13718.61045030 0 -86.52324289 0 4553.69288352 0 613.02258528 0 326.25933757 0 17523
0.12650000 0.12650100 13637.45030938 0 318.85084504 0 4609.56383455 0 253.54959495 0 117.36664308 0 17154
0.12750000 0.12750600 13249.14387799 0 282.26124044 0 4007.22936442 0 -264.87436878 0 198.73937263 0 18007
0.12850000 0.12850300 12947.09085694 0 361.03972429 0 3987.57598786 0 138.22025964 0 32.83409346 0 17496
0.12950000 0.12949900 12815.44091485 0 240.37020672 0 3900.43679154 0 152.21678544 0 -21.17748206 0 18405
0.13050000 0.13049000 12579.37894971 0 56.27918765 0 3533.41136845 0 264.40047327 0 -515.78210703 0 18100
0.13150000 0.13148800 12402.55392236 0 160.00062979 0 3641.02329336 0 242.06427242 0 -853.42490174 0 19059
0.13250000 0.13249300 12403.88260134 0 120.48793144 0 3470.64235905 0 -174.39465206 0 -682.14821636 0 18957
0.13350000 0.13349100 12039.82456130 0 402.34171033 0 3483.69663002 0 91.53623795 0 -568.01026320 0 19468
0.13450000 0.13450700 11897.43446413 0 90.66982854 0 3517.15719562 0 195.69448331 0 -170.55034088 0 19953
0.13550000 0.13551000 11993.87441330 0 -168.08121244 0 3464.26469996 0 371.33366468 0 -150.31677451 0 19956
0.13650000 0.13649900 12081.45650262 0 93.40126035 0 3439.29660749 0 63.79729620 0 -583.06308879 0 19723
0.13750000 0.13749600 11837.64391011 0 335.80478880 0 3337.90732913 0 124.85707082 0 -635.37760909 0 20946
0.13850000 0.13851100 11521.75048304 0 282.51701114 0 3456.85731466 0 -130.48624076 0 -412.46845861 0 20955
0.13950000 0.13949800 11334.18530061 0 291.76683130 0 3248.09970252 0 38.69655729 0 -603.35090955 0 20506
0.14050000 0.14048300 11170.97923278 0 27.73307342 0 2967.31661745 0 389.10806771 0 -959.42358893 0 21447
0.14150000 0.14148400 11055.24022145 0 113.75263626 0 2865.72803724 0 141.46112912 0 -748.75267907 0 21771
0.14250000 0.14249400 11080.73978551 0 76.87515122 0 2623.14447279 0 353.46071795 0 -573.36705394 0 22470
0.14350000 0.14350900 10986.82432640 0 -108.77451902 0 2642.60961982 0 285.83870859 0 -423.55407022 0 22519
0.14450000 0.14449900 11042.21916746 0 152.24114456 0 2627.18587134 0 242.60128017 0 -276.72950696 0 22218
0.14550000 0.14550500 10963.83818007 0 245.05601458 0 2718.74292527 0 4.64748655 0 277.04285375 0 23559
0.14650000 0.14650700 10828.55651544 0 345.11218504 0 3110.33783713 0 -194.74004891 0 382.61968536 0 23044
0.14750000 0.14750500 10603.56687512 0 302.10948991 0 3471.07417972 0 -339.83732950 0 1361.60807225 0 23649
0.14850000 0.14849900 10255.67442932 0 244.45368011 0 3462.18310289 0 154.46225292 0 1275.38787889 0 23640
0.14950000 0.14949500 10323.72493766 0 95.61041059 0 3639.63925276 0 416.45228108 0 1039.84188409 0 24457
0.15050000 0.15050000 10172.90880130 0 108.24437611 0 3710.54642090 0 430.96920615 0 1222.30715370 0 24591
0.15150000 0.15149900 10076.16989936 0 90.99956237 0 3232.97490682 0 420.66087174 0 1100.72638380 0 25020
0.15250000 0.15250500 9891.33958116 0 108.91248019 0 2971.57946250 0 231.99067130 0 1320.69583204 0 25297
0.15350000 0.15350100 10012.28258516 0 -41.61134679 0 2845.34388725 0 305.68363636 0 1316.59907186 0 25452
0.15450000 0.15450400 9913.00812083 0 -107.00859393 0 2652.96224352 0 279.04915901 0 788.86328296 0 26061
0.15550000 0.15549900 9902.66656945 0 223.09848724 0 2723.11649357 0 -130.60692910 0 1046.52624658 0 26128
0.15650000 0.15649500 9792.96197515 0 290.66181328 0 2621.46147941 0 -176.94682293 0 582.68109358 0 26331
0.15750000 0.15749700 9518.60083847 0 230.00318899 0 2676.04804077 0 36.11139089 0 1093.42307835 0 27345
0.15850000 0.15849900 9358.21821347 0 223.65321071 0 2672.43846288 0 150.13518838 0 970.82033287 0 26980
0.15950000 0.15949700 9243.81895345 0 171.69079034 0 2791.66525653 0 226.69367110 0 924.74728206 0 27777
0.16050000 0.16050000 9211.78671775 0 52.13968829 0 2561.25017705 0 -73.61479445 0 482.00044401 0 28224
0.16150000 0.16150500 9036.64468376 0 131.98764800 0 2752.91211966 0 -388.54116468 0 680.82507354 0 28075
0.16250000 0.16249700 8917.29609454 0 307.65893911 0 2883.00086395 0 -263.15594396 0 517.49721014 0 28590
0.16350000 0.16349900 8765.94848660 0 144.69092627 0 2824.93759261 0 -46.60319372 0 474.94183693 0 29163
0.16450000 0.16449100 8638.12956889 0 91.04307661 0 2859.18429327 0 37.57227342 0 408.38498522 0 28996
0.16550000 0.16550500 8642.54742649 0 6.75299983 0 2762.52289760 0 282.75728059 0 161.08128869 0 30777
0.16650000 0.16650700 8672.94095812 0 -12.82308082 0 2534.47729564 0 388.65520962 0 310.36944422 0 29211
0.16750000 0.16749900 8645.60338814 0 10.54581363 0 2450.63765211 0 205.44145085 0 28.34160839 0 30922
0.16850000 0.16850800 8611.27918121 0 37.98383174 0 2230.64163029 0 32.01961325 0 255.82717217 0 30867
0.16950000 0.16949900 8525.49080851 0 145.10060228 0 2317.48187384 0 -15.67708326 0 87.43704186 0 30852
0.17050000 0.17049200 8390.58560292 0 186.05381009 0 2395.27602802 0 180.24859019 0 209.36105383 0 31257
0.17150000 0.17149500 8263.92927932 0 158.49590085 0 2540.07989200 0 -16.67968228 0 174.15106091 0 32608
0.17250000 0.17250900 8189.75577536 0 108.72369705 0 2193.98116281 0 270.14368816 0 55.78292605 0 32361
0.17350000 0.17350400 8099.93707643 0 -65.97400454 0 2085.93741723 0 271.02615245 0 555.19404722 0 32508
0.17450000 0.17449800 8146.30797277 0 36.11471258 0 2095.78071400 0 217.67194084 0 218.77363716 0 32791
0.17550000 0.17549800 8104.37707868 0 77.52553958 0 1842.54557307 0 244.00082203 0 356.03614071 0 33633
0.17650000 0.17650100 8024.10272375 0 111.46066502 0 1759.51420926 0 -36.69623108 0 429.29728510 0 33984
0.17750000 0.17750300 7927.15344764 0 21.60088777 0 1593.76150672 0 133.30857635 0 296.74051960 0 34069
0.17850000 0.17849800 8021.63359531 0 -36.13419988 0 1627.21100000 0 138.16379078 0 83.75028987 0 34536
