### header ###
fiducial parameters:
Omega_m = 0.31
Omega_nu = 0
Omega_de = 0.69
Omega_k = 0
H_0 = 100
w_de = -1
zeff = 0
beta = 0
fgrowth = 0
b_1 = 2
gamma = 0.55
Lx = 3500 Ly = 3500 Lz = 3500
nx = 700 ny = 700 nz = 700
xoffset = -685.467585 yoffset = -31.7331281 zoffset = 572.489161
bins = 400 dk = 0.001
kx_ny = 0.628318531 ky_ny = 0.628318531 kz_ny = 0.628318531
############################
A(data) = 8.05255261 (not used)
A(ran) = 8.04998687 (used)
Ngal = 478216
weighted Ngal = 0
Nran = 23820508
weighted Nran = 0
SN(data) = 3493.4623
SN(ran) = 70.1183051
SN(data+ran) = 3563.58061
############################
13 columns: k_central k_mean P_0(k) sigma^{lin}_{P_0(k)} P^img_1(k) sigma^{lin}_{P_1(k)} P_2(k) sigma^{lin}_{P_2(k)} P^img_3(k) sigma^{lin}_{P_3(k)} P_4(k) sigma^{lin}_{P_4(k)} N_modes
### header ###
0.00050000 0 0 0 0 0 0 0 0 0 0 0 0
0.00150000 0.00179520 59215.90036260 0 -55016.05683564 0 18422.68764950 0 53306.04699065 0 -66481.67063185 0 3
0.00250000 0.00253879 112593.36384833 0 -60336.97325049 0 -17520.07173029 0 -7761.91007204 0 69796.06034306 0 6
0.00350000 0.00331552 126313.08153112 0 -49640.33241294 0 -42699.75632362 0 -106757.91649916 0 -8817.26871213 0 7
0.00450000 0.00420575 126125.95924168 0 -8903.30067597 0 -63841.03188585 0 -44457.82005833 0 19761.66388982 0 24
0.00550000 0.00557378 114822.22283433 0 15565.25278356 0 -35808.23063325 0 -60178.63900558 0 14840.45840093 0 45
0.00650000 0.00659388 87281.91858966 0 18934.78267237 0 -11800.66234522 0 -42856.54044305 0 6809.62370369 0 40
0.00750000 0.00754703 60823.60192627 0 32899.42018014 0 5158.81757950 0 -31489.91323073 0 14918.18612115 0 57
0.00850000 0.00846663 66042.09933655 0 13862.10777995 0 -5508.95770724 0 13201.20071153 0 37109.78241568 0 75
0.00950000 0.00948925 54637.05115710 0 -11169.42910731 0 2748.42782811 0 13435.93399768 0 16983.17469983 0 112
0.01050000 0.01054430 67344.97979796 0 -9116.75295383 0 -986.11232067 0 17976.58368256 0 8103.74595617 0 105
0.01150000 0.01145670 76580.62737569 0 -5233.25681926 0 -2628.78028612 0 621.14524277 0 -13333.07210012 0 144
0.01250000 0.01249090 79604.47928366 0 287.91144779 0 13213.49099208 0 -24331.54451222 0 148.09234445 0 169
0.01350000 0.01339930 78435.57395255 0 10364.60396089 0 18734.70576289 0 -21849.68290412 0 -18699.60649322 0 180
0.01450000 0.01448870 72295.85911737 0 4988.46986217 0 32838.41167039 0 -13057.37121213 0 -14795.28331567 0 267
0.01550000 0.01550050 71287.72394263 0 4552.34205989 0 35446.94067441 0 4780.77519322 0 -17515.42135386 0 238
0.01650000 0.01653350 71145.44456871 0 -515.72563817 0 35901.68105472 0 6671.46323460 0 -41839.76885496 0 315
0.01750000 0.01747870 71881.97561564 0 -521.62718730 0 32841.73336784 0 1539.31888559 0 -29414.18449697 0 297
0.01850000 0.01844180 70551.41434219 0 -895.31814993 0 30127.24221530 0 7879.56459557 0 -26492.75159358 0 388
0.01950000 0.01947590 71044.57568961 0 897.41746271 0 25901.26800176 0 -9963.25433086 0 -28012.76034468 0 399
0.02050000 0.02045430 70846.04890561 0 4362.48490622 0 31647.80458264 0 -4943.51622341 0 -29858.18472220 0 462
0.02150000 0.02154770 64272.29893753 0 7014.36206191 0 36215.58146332 0 -5209.56204415 0 -19738.63345420 0 571
0.02250000 0.02255340 59589.36987874 0 3864.10849381 0 26073.99626893 0 -718.70792568 0 -15432.16343924 0 510
0.02350000 0.02348930 62785.72860738 0 -2525.12118117 0 42941.79734416 0 11050.04730111 0 -17377.79235637 0 555
0.02450000 0.02439640 62579.34047276 0 -3662.62539908 0 32799.54781028 0 10872.72401914 0 -7576.82509037 0 592
0.02550000 0.02547300 64383.35435546 0 -1107.16272622 0 27450.72913688 0 17801.97312017 0 -6505.06833723 0 837
0.02650000 0.02652900 65359.60123472 0 -910.37429722 0 12694.64185107 0 16052.21362908 0 8375.01791423 0 723
0.02750000 0.02749970 64247.38620669 0 -1931.27918417 0 11966.41504775 0 16456.90710120 0 9739.42728465 0 826
0.02850000 0.02848090 61907.47180277 0 2284.30918869 0 -3231.50228762 0 11859.56711325 0 13428.29409356 0 831
0.02950000 0.02946900 61187.54924306 0 1622.41668335 0 3324.22193565 0 1389.53247544 0 13085.05202418 0 996
0.03050000 0.03053250 57593.02971393 0 2548.47271421 0 -1623.73429000 0 -6665.58383012 0 16326.80728458 0 1041
0.03150000 0.03150510 58092.83445625 0 3442.46329239 0 9980.28356643 0 -10819.73187256 0 8506.05887845 0 1036
0.03250000 0.03246190 55449.53835229 0 1061.80494760 0 6535.00790354 0 -9250.57307158 0 14888.73373714 0 1059
0.03350000 0.03345080 58366.32087927 0 961.85174976 0 16839.34520044 0 -3038.34558116 0 9768.40355870 0 1302
0.03450000 0.03451200 57848.02535451 0 1042.23239902 0 19990.41812058 0 1810.49119272 0 6235.34650465 0 1339
0.03550000 0.03553350 57089.68182768 0 3719.81395677 0 24851.27943921 0 -1045.06469971 0 -3053.53681081 0 1365
0.03650000 0.03647120 53673.53745138 0 4104.83190769 0 20693.40002331 0 -4972.68072698 0 231.78915499 0 1308
0.03750000 0.03744890 47735.11748140 0 4538.59023246 0 21271.26465560 0 2839.25410860 0 2337.63350501 0 1579
0.03850000 0.03847530 47394.64349322 0 1457.38368193 0 21679.05837867 0 3997.89539459 0 2278.40763956 0 1662
0.03950000 0.03950240 46779.35440305 0 -981.20395908 0 22046.77028590 0 3576.77059244 0 -1215.88520531 0 1683
0.04050000 0.04050350 45727.92643827 0 1391.17117951 0 20800.80157405 0 -529.97129128 0 835.17771044 0 1822
0.04150000 0.04152450 44948.43477104 0 2024.71853331 0 20907.42806206 0 950.52365424 0 2561.50484052 0 1887
0.04250000 0.04250150 43210.41194426 0 -442.11571554 0 17473.23579631 0 5438.19447933 0 1105.38783255 0 1920
0.04350000 0.04349210 42206.70569945 0 -692.88947866 0 16081.44456660 0 9467.42455316 0 1602.74116215 0 2005
0.04450000 0.04448520 44408.88038263 0 -2201.32211417 0 9315.96622196 0 5902.92209662 0 -3908.77425213 0 2151
0.04550000 0.04548030 44474.31782230 0 -600.08900266 0 8593.77383567 0 1986.59651896 0 -4227.30289251 0 2274
0.04650000 0.04648670 43388.45492734 0 2691.10640252 0 7826.36207481 0 -2568.63541770 0 -5862.57454498 0 2311
0.04750000 0.04749250 41499.73775978 0 2769.68669176 0 8290.04889357 0 -4495.51888892 0 -2538.68477907 0 2568
0.04850000 0.04851840 38857.88105805 0 2493.13323476 0 8598.09204235 0 -2358.38304172 0 -1806.61587903 0 2493
0.04950000 0.04949480 38525.71131349 0 813.97310118 0 9884.49688443 0 245.78457356 0 -1758.91630372 0 2644
0.05050000 0.05050630 37413.05339246 0 369.86104547 0 10034.71511524 0 1641.70467319 0 -3717.97595085 0 2829
0.05150000 0.05149060 38513.42103294 0 1342.57474588 0 11980.36617702 0 1151.99789111 0 -755.82678740 0 2784
0.05250000 0.05249300 36559.26642570 0 688.95326719 0 11002.58024461 0 475.63717893 0 -1965.11620881 0 3055
0.05350000 0.05348950 35477.50029091 0 1217.81178983 0 10082.82436658 0 -52.61081572 0 -1524.52625963 0 3009
0.05450000 0.05448610 35150.31309252 0 95.54309086 0 9973.23049552 0 -782.80339959 0 -3337.57515938 0 3336
0.05550000 0.05550870 35620.00111133 0 241.24049145 0 13536.80287678 0 -2621.66078126 0 -2699.66530961 0 3349
0.05650000 0.05647670 34779.39021110 0 1085.95700973 0 11170.97923278 0 1056.98959354 0 -1820.41199576 0 3324
0.05750000 0.05747970 35795.82962945 0 -912.41714115 0 13188.79970773 0 872.97752014 0 -2549.87889946 0 3639
0.05850000 0.05849280 34594.81455637 0 -318.65154319 0 9677.65478449 0 2710.25045213 0 -1628.17429226 0 3846
0.05950000 0.05951020 36236.95105022 0 808.88979686 0 11239.73836990 0 1882.54988264 0 -1996.47303270 0 3787
0.06050000 0.06049470 33777.89843125 0 1396.58554635 0 7869.87631135 0 414.52016040 0 -2812.86875855 0 3930
0.06150000 0.06148310 33210.99540054 0 1512.34670233 0 11327.43118247 0 -203.53479651 0 -633.41448590 0 4083
0.06250000 0.06249100 32436.15410973 0 427.67297505 0 10261.89707587 0 363.24200970 0 97.63421013 0 4303
0.06350000 0.06350600 31487.80948901 0 527.53870152 0 10118.49939714 0 1707.06460659 0 -361.27002865 0 4470
0.06450000 0.06451750 30937.07205253 0 572.00405076 0 9078.57557785 0 2322.39798606 0 2353.01296418 0 4479
0.06550000 0.06550280 31519.58706124 0 -616.05529505 0 9263.51661930 0 3086.36625390 0 557.59342001 0 4636
0.06650000 0.06648880 30836.75678967 0 443.32259895 0 8441.26363362 0 822.77781388 0 2304.98121912 0 4653
0.06750000 0.06749660 30860.56228803 0 1148.85335086 0 9000.65962810 0 -428.84442702 0 3012.83494478 0 5220
0.06850000 0.06852730 29677.92727416 0 914.53970581 0 9510.26337788 0 -1775.90124999 0 2339.09505189 0 5029
0.06950000 0.06949320 29172.03275319 0 988.30796268 0 8990.50630624 0 -792.41528476 0 2682.63607404 0 5040
0.07050000 0.07048030 28662.26291854 0 -63.98751874 0 9788.40017733 0 -348.02088477 0 750.85974248 0 5475
0.07150000 0.07148790 28599.92572981 0 92.75009692 0 10364.00605535 0 77.11220969 0 774.38289656 0 5509
0.07250000 0.07249820 28553.08979583 0 523.17399108 0 9899.89848825 0 -56.83380040 0 -2910.51559113 0 5916
0.07350000 0.07351270 27311.77146041 0 1181.17346700 0 9851.37956089 0 -1217.31353521 0 -3415.70148330 0 5721
0.07450000 0.07449140 27180.45368806 0 1621.69698224 0 10467.77588355 0 -1416.24999523 0 -3415.09250544 0 6028
0.07550000 0.07549160 25403.01338492 0 709.04289334 0 10438.93247740 0 759.27581658 0 -2780.70365495 0 6183
0.07650000 0.07648840 25656.12673028 0 149.77865952 0 10218.43820096 0 1079.04677181 0 -2529.69405132 0 6330
0.07750000 0.07749960 24971.85705649 0 201.68793273 0 9467.76779523 0 2749.00358900 0 -1956.70124195 0 6583
0.07850000 0.07848650 25412.09269128 0 -6.64119150 0 8773.35587190 0 1460.31784801 0 -2449.17610523 0 6549
0.07950000 0.07947320 24640.68382116 0 1009.92114073 0 8742.33121776 0 -706.25598918 0 -1733.47210128 0 6828
0.08050000 0.08048110 23877.46847141 0 978.85773345 0 9055.36798503 0 862.57949990 0 692.86844125 0 7147
0.08150000 0.08149960 23044.82964505 0 299.69683033 0 8862.34414647 0 760.04645039 0 2332.62881419 0 7386
0.08250000 0.08250610 23377.33155935 0 -502.23068868 0 9066.90534749 0 1761.89475909 0 205.45030871 0 7227
0.08350000 0.08350160 23372.68118293 0 -218.49682904 0 8105.60610674 0 1860.93670459 0 1270.64892386 0 7798
0.08450000 0.08449610 23321.52704227 0 1395.56689247 0 8090.87991473 0 40.92796291 0 18.02120515 0 7371
0.08550000 0.08548940 22050.53487633 0 886.32299325 0 7319.08351325 0 -1047.12636659 0 1736.80487105 0 8256
0.08650000 0.08650700 20971.53682276 0 668.07529151 0 8190.04365581 0 -500.25981486 0 661.03550739 0 8037
0.08750000 0.08749060 21148.25112686 0 156.12420887 0 8065.25855510 0 -1042.54242411 0 -262.26019289 0 8155
0.08850000 0.08849210 20680.77757302 0 423.73897804 0 8063.01087316 0 -429.91290636 0 -2227.20920960 0 8718
0.08950000 0.08949900 20769.35617157 0 213.80880671 0 8964.81851267 0 -390.01599834 0 -1609.72779911 0 8571
0.09050000 0.09049190 20051.64807682 0 271.20220241 0 7757.62508234 0 137.82829934 0 -2260.72513682 0 8932
0.09150000 0.09150830 20135.79774545 0 152.91434191 0 7915.25069846 0 636.64760475 0 -2623.17768976 0 9285
0.09250000 0.09250820 19809.60705629 0 153.12803778 0 7195.87068266 0 1313.79777368 0 -2006.50455899 0 9204
0.09350000 0.09350330 19538.00292849 0 278.84432100 0 6799.11606744 0 1240.95294870 0 -2182.33307711 0 9349
0.09450000 0.09448040 19359.40632916 0 236.34541665 0 6100.30843116 0 1332.38820705 0 -1038.99928017 0 9564
0.09550000 0.09549270 19089.90594308 0 231.30418716 0 5731.36749588 0 262.39527525 0 -2332.11948725 0 10155
0.09650000 0.09649430 18691.96658909 0 529.99565040 0 5609.91516494 0 -321.11402823 0 -1008.03441658 0 9913
0.09750000 0.09749140 18115.20918929 0 455.70035086 0 5424.87447257 0 -212.99720530 0 -788.16019033 0 10476
0.09850000 0.09850240 17867.07839011 0 269.14053553 0 5820.07896232 0 627.48082703 0 227.40119266 0 10575
0.09950000 0.09950330 17780.04991703 0 157.29455361 0 5288.71809428 0 1249.30148161 0 -210.80931392 0 10882
0.10050000 0.10051200 17562.92162734 0 -140.19666962 0 4845.07218344 0 1677.86688604 0 235.15624896 0 10875
0.10150000 0.10150300 17413.99885853 0 198.28651455 0 4570.93249326 0 681.57577716 0 420.16150989 0 11118
0.10250000 0.10250800 17504.57047554 0 254.65129127 0 4016.97301026 0 280.04013208 0 316.73270930 0 11575
0.10350000 0.10349800 17065.55279648 0 347.12402646 0 4265.55777476 0 117.15294721 0 826.45936188 0 11364
0.10450000 0.10450100 16478.16596485 0 815.06926134 0 3895.67569187 0 -310.78465640 0 1096.34395764 0 12093
0.10550000 0.10551000 16098.82811657 0 533.62183677 0 4728.64668797 0 -600.82974119 0 367.79605690 0 12067
0.10650000 0.10649700 15779.05937580 0 187.62386575 0 4457.52974247 0 -103.64415731 0 1106.75747913 0 12054
0.10750000 0.10749900 15697.78851164 0 128.66373609 0 4709.89016973 0 739.77523811 0 883.87268776 0 12807
0.10850000 0.10850100 15502.02980884 0 -94.72008496 0 4495.54103357 0 789.24084924 0 950.39742974 0 12736
0.10950000 0.10950300 15928.20359111 0 -218.51233030 0 4187.14357039 0 999.57737489 0 1041.88251355 0 12933
0.11050000 0.11050200 15714.72916861 0 44.92274698 0 3586.34815341 0 -75.64966630 0 751.79092500 0 13428
0.11150000 0.11150900 16076.46202043 0 345.14983094 0 4108.49684721 0 -457.68118977 0 1176.04698061 0 13453
0.11250000 0.11250000 15676.30820149 0 405.61579678 0 4528.04937924 0 -1060.60027866 0 1536.69474461 0 13668
0.11350000 0.11349100 15477.89214074 0 380.78500114 0 4778.92611498 0 -153.49453173 0 1458.53520371 0 13791
0.11450000 0.11448600 15258.32793958 0 191.58775803 0 5063.09733145 0 -262.30448219 0 1391.95731458 0 14205
0.11550000 0.11549300 15333.50902510 0 170.74964273 0 5014.57840409 0 225.22437360 0 1165.86044178 0 14776
0.11650000 0.11649800 15039.98169416 0 305.33485813 0 5161.86246883 0 171.54242118 0 1212.91782226 0 14553
0.11750000 0.11747300 14825.73220892 0 302.54020334 0 5203.41690387 0 97.57984501 0 343.54877278 0 14568
0.11850000 0.11849100 14360.47312004 0 195.71662796 0 5174.31883425 0 -54.11598755 0 731.82309442 0 16015
0.11950000 0.11950300 14314.96586504 0 104.29288482 0 4479.53045188 0 304.06929140 0 -167.44787546 0 15270
0.12050000 0.12050700 14201.58525889 0 -138.30662377 0 4920.74045125 0 298.58184722 0 -428.55986827 0 15999
0.12150000 0.12150000 14444.73351191 0 35.13946221 0 4612.92982129 0 268.19717345 0 -644.31408245 0 15670
0.12250000 0.12250700 14158.51391535 0 283.92651809 0 4028.18927530 0 60.06381900 0 -873.22111129 0 16887
0.12350000 0.12352200 14051.00164136 0 331.60727046 0 3852.28325090 0 195.49961039 0 -181.82971817 0 16407
0.12450000 0.12449800 13673.43536504 0 161.87738885 0 4066.76525497 0 659.87512775 0 -242.60349464 0 16306
0.12550000 0.12549900 13727.46831016 0 260.41775804 0 4119.94563107 0 729.86329293 0 450.62701163 0 17523
0.12650000 0.12650100 13450.21729670 0 269.83034137 0 3705.80746588 0 26.48765832 0 468.34383857 0 17154
0.12750000 0.12750600 13221.02017295 0 456.23735862 0 3981.24261807 0 19.40103827 0 1352.82771867 0 18007
0.12850000 0.12850300 12712.46829403 0 204.40951017 0 4070.38590518 0 -3.63693761 0 1329.78621072 0 17496
0.12950000 0.12949900 12738.93115035 0 234.14313124 0 4011.66936667 0 475.62167768 0 997.91984786 0 18405
0.13050000 0.13049000 12584.02932614 0 -39.80866159 0 3832.29770461 0 386.04656989 0 565.22114457 0 18100
0.13150000 0.13148800 12305.11746395 0 182.62249663 0 3338.21735422 0 403.38029440 0 -73.81564642 0 19059
0.13250000 0.13249300 12284.96583278 0 -17.92155423 0 3296.15359224 0 46.26305190 0 -242.97663198 0 18957
0.13350000 0.13349100 12146.22960281 0 -7.90288291 0 2948.33865271 0 357.63055548 0 -369.32957388 0 19468
0.13450000 0.13450700 12124.74929266 0 129.84626038 0 3135.46094214 0 -23.33392805 0 -616.27895601 0 19953
0.13550000 0.13551000 11810.07382131 0 274.36113668 0 2855.44184748 0 179.01624044 0 -511.25795511 0 19956
0.13650000 0.13649900 11689.38548079 0 420.77380946 0 3136.68997020 0 99.00717840 0 99.84214242 0 19723
0.13750000 0.13749600 11258.00770586 0 478.82157955 0 3177.31432996 0 98.44658660 0 1075.36633104 0 20946
0.13850000 0.13851100 11071.46117731 0 170.84486472 0 3081.89303467 0 146.61197462 0 1252.74497463 0 20955
0.13950000 0.13949800 11046.74774832 0 38.54320559 0 3089.80974692 0 431.27369508 0 1387.03013003 0 20506
0.14050000 0.14048300 11076.31085558 0 -39.29512717 0 3166.52988559 0 39.78740273 0 1547.30203178 0 21447
0.14150000 0.14148400 11132.22609592 0 -61.71979590 0 3182.55153960 0 -187.12450390 0 1389.18923337 0 21771
0.14250000 0.14249400 11207.96079767 0 39.76857977 0 3251.39925532 0 -98.32335162 0 1229.19413974 0 22470
0.14350000 0.14350900 11194.78473114 0 114.78900586 0 3171.83352917 0 -169.42207098 0 1113.14510332 0 22519
0.14450000 0.14449900 11211.72538811 0 -26.14751651 0 3068.87198068 0 111.53374236 0 690.57647001 0 22218
0.14550000 0.14550500 11267.08701221 0 48.66164962 0 3193.29169467 0 -104.64686705 0 290.95633712 0 23559
0.14650000 0.14650700 11216.04359479 0 217.73173140 0 3195.93798030 0 -158.33645937 0 249.48051558 0 23044
0.14750000 0.14750500 10777.93384637 0 457.95689066 0 3170.58235647 0 -7.01952177 0 289.38517423 0 23649
0.14850000 0.14849900 10594.17754368 0 311.13343464 0 3232.06697619 0 -204.17034796 0 400.31990382 0 23640
0.14950000 0.14949500 10393.36986077 0 145.91995432 0 3244.21331651 0 28.12237636 0 55.82876548 0 24457
0.15050000 0.15050000 10370.97054766 0 1.03344651 0 3312.70671784 0 306.35904817 0 67.16427946 0 24591
0.15150000 0.15149900 10240.53856130 0 13.56791611 0 3144.39630827 0 8.86585407 0 -311.60622291 0 25020
0.15250000 0.15250500 10197.54472402 0 120.90314362 0 3158.83461984 0 257.32525772 0 -173.12244193 0 25297
0.15350000 0.15350100 10125.16493668 0 121.58741330 0 3101.22531381 0 -81.88925351 0 -564.85575786 0 25452
0.15450000 0.15450400 9994.07968316 0 247.72887379 0 2976.00839243 0 110.77860981 0 -399.02222735 0 26061
0.15550000 0.15549900 9718.50059075 0 147.62509234 0 2609.84661068 0 97.24667876 0 -332.93041327 0 26128
0.15650000 0.15649500 9622.96857221 0 167.26075318 0 2780.75901658 0 228.37334278 0 -405.89703383 0 26331
0.15750000 0.15749700 9577.38381093 0 119.64975646 0 2783.90355683 0 71.09661562 0 -520.17892721 0 27345
0.15850000 0.15849900 9256.96180301 0 188.02025498 0 2587.79053964 0 268.41861995 0 -292.66479684 0 26980
0.15950000 0.15949700 9248.32538965 0 222.77517535 0 2563.55322061 0 295.93002543 0 -34.51376514 0 27777
0.16050000 0.16050000 9053.86214886 0 45.34626340 0 2557.61845451 0 352.13425344 0 467.80350912 0 28224
0.16150000 0.16150500 9038.64877456 0 156.12753057 0 2657.03685906 0 439.22362430 0 554.37248072 0 28075
0.16250000 0.16249700 8912.26925908 0 98.57314327 0 2548.06303819 0 16.67414611 0 595.26368351 0 28590
0.16350000 0.16349900 8834.36438165 0 174.12338010 0 2699.75388821 0 -90.15419037 0 808.50115826 0 29163
0.16450000 0.16449100 8748.65351523 0 54.84930762 0 2632.71096143 0 -25.42039693 0 1189.69915711 0 28996
0.16550000 0.16550500 8785.51328455 0 10.90524344 0 2470.46818586 0 327.21598644 0 1214.65617726 0 30777
0.16650000 0.16650700 8899.60251948 0 -267.18627020 0 2382.75322865 0 536.00681554 0 1362.23919476 0 29211
0.16750000 0.16749900 9019.30542310 0 -56.52753990 0 2314.32626127 0 473.34963662 0 892.02745499 0 30922
0.16850000 0.16850800 8880.13737245 0 236.64879835 0 2133.54841395 0 31.73749041 0 869.49638122 0 30867
0.16950000 0.16949900 8698.07513546 0 358.72228671 0 2411.08730786 0 -324.68706745 0 1106.31901507 0 30852
0.17050000 0.17049200 8435.26243356 0 211.06619186 0 2233.43185614 0 -218.50900860 0 1336.29673771 0 31257
0.17150000 0.17149500 8337.81490283 0 121.30617625 0 2321.77793587 0 163.76522023 0 963.90345155 0 32608
0.17250000 0.17250900 8393.08794833 0 2.43036423 0 2218.12990324 0 -103.65068999 0 539.13253284 0 32361
0.17350000 0.17350400 8191.56056431 0 88.24742531 0 2353.16797673 0 153.92745963 0 603.44170262 0 32508
0.17450000 0.17449800 8169.21661282 0 214.46096664 0 1994.23642309 0 -122.69907471 0 432.85482307 0 32791
0.17550000 0.17549800 7993.48774562 0 188.30259926 0 2159.45765403 0 156.73207951 0 297.40485909 0 33633
0.17650000 0.17650100 7986.93292933 0 66.09912181 0 2003.20500619 0 -83.53161145 0 231.33851137 0 33984
0.17750000 0.17750300 7848.76138792 0 -6.42141692 0 2106.47657977 0 147.59519707 0 399.06762388 0 34069
