### header ###
fiducial parameters:
Omega_m = 0.31
Omega_nu = 0
Omega_de = 0.69
Omega_k = 0
H_0 = 100
w_de = -1
zeff = 0
beta = 0
fgrowth = 0
b_1 = 2
gamma = 0.55
Lx = 3500 Ly = 3500 Lz = 3500
nx = 700 ny = 700 nz = 700
xoffset = -685.467585 yoffset = -31.7331281 zoffset = 572.489161
bins = 400 dk = 0.001
kx_ny = 0.628318531 ky_ny = 0.628318531 kz_ny = 0.628318531
############################
A(data) = 8.01696159 (not used)
A(ran) = 8.01533521 (used)
Ngal = 476285
weighted Ngal = 0
Nran = 23820508
weighted Nran = 0
SN(data) = 3485.98358
SN(ran) = 69.8164766
SN(data+ran) = 3555.80005
############################
13 columns: k_central k_mean P_0(k) sigma^{lin}_{P_0(k)} P^img_1(k) sigma^{lin}_{P_1(k)} P_2(k) sigma^{lin}_{P_2(k)} P^img_3(k) sigma^{lin}_{P_3(k)} P_4(k) sigma^{lin}_{P_4(k)} N_modes
### header ###
0.00050000 0 0 0 0 0 0 0 0 0 0 0 0
0.00150000 0.00179520 127203.29644654 0 -82330.04276102 0 -37409.73169502 0 314121.85510500 0 -82831.39762880 0 3
0.00250000 0.00253879 190253.54289384 0 -29883.65106929 0 83475.91765650 0 -115689.18586763 0 39510.04098986 0 6
0.00350000 0.00331552 167502.12985648 0 40733.42215908 0 14649.23935131 0 -110338.37417577 0 94421.46435597 0 7
0.00450000 0.00420575 118295.61112994 0 67163.39367093 0 26962.10744264 0 -9372.19148739 0 69474.85220007 0 24
0.00550000 0.00557378 74292.53145191 0 -383.07918684 0 5052.76685239 0 42849.12198542 0 2551.80548398 0 45
0.00650000 0.00659388 96898.67558765 0 -29177.56891560 0 41383.69979568 0 91000.11598701 0 -70787.03341433 0 40
0.00750000 0.00754703 88143.67763029 0 281.30126988 0 10874.68382063 0 -2753.53216985 0 -15898.97265359 0 57
0.00850000 0.00846663 102482.44899369 0 16211.76582972 0 41969.86867158 0 -28433.17651804 0 24559.74512674 0 75
0.00950000 0.00948925 73597.07873005 0 6528.38665330 0 25633.76063414 0 -20682.21697525 0 15376.46964540 0 112
0.01050000 0.01054430 70762.00996024 0 1347.98911272 0 31309.65578268 0 10900.33839724 0 15725.13715394 0 105
0.01150000 0.01145670 82614.71223210 0 941.27715579 0 40724.23212948 0 5106.00259012 0 -26412.69868514 0 144
0.01250000 0.01249090 77359.67614993 0 -1124.93712925 0 31118.43673306 0 3347.78384287 0 -7168.84313778 0 169
0.01350000 0.01339930 72153.24757370 0 -799.58240062 0 30894.11143224 0 -4117.14433289 0 -6614.41861714 0 180
0.01450000 0.01448870 77075.44957183 0 773.07857670 0 23332.26719734 0 5350.83383651 0 -33268.90365934 0 267
0.01550000 0.01550050 81166.00925283 0 5139.89497639 0 16331.67910750 0 5352.47254058 0 -9419.90213504 0 238
0.01650000 0.01653350 74298.39978407 0 762.01843144 0 16631.40694034 0 -8613.02860853 0 -21111.38028522 0 315
0.01750000 0.01747870 72270.50349353 0 -187.22858375 0 8572.47068272 0 4322.62453687 0 -13616.85578522 0 297
0.01850000 0.01844180 77750.52921602 0 -589.58800980 0 6269.67071158 0 10758.90052000 0 -16580.36352293 0 388
0.01950000 0.01947590 72811.05439118 0 812.39640213 0 1043.15029474 0 13718.16755731 0 -2682.00495152 0 399
0.02050000 0.02045430 73576.26275939 0 -2521.63339885 0 746.10085728 0 9557.81901298 0 -2755.93486434 0 462
0.02150000 0.02154770 80320.19435994 0 -7655.22822241 0 -9341.24433952 0 13971.17017942 0 -664.16676085 0 571
0.02250000 0.02255340 82312.76993430 0 -6701.19242674 0 -3998.74796360 0 -2902.95319328 0 4542.04479781 0 510
0.02350000 0.02348930 86605.28881999 0 5226.66878599 0 -1402.29886596 0 -19980.34230499 0 -13599.91512825 0 555
0.02450000 0.02439640 82091.10199143 0 9831.65975039 0 8141.46936683 0 -22860.36471357 0 1691.37512232 0 592
0.02550000 0.02547300 72161.55181732 0 12749.56058217 0 16415.49660638 0 -18581.24334091 0 4425.43107282 0 837
0.02650000 0.02652900 66685.62285501 0 4265.59099173 0 19802.85293815 0 -3074.93961469 0 -2511.30291979 0 723
0.02750000 0.02749970 64545.23174431 0 520.60299725 0 29512.28529487 0 10675.51484180 0 -2030.75295034 0 826
0.02850000 0.02848090 64994.87885520 0 -579.93183533 0 22126.49102459 0 15949.57317801 0 -5497.65286360 0 831
0.02950000 0.02946900 64816.61442562 0 -1230.58925267 0 16621.22040151 0 12029.19512947 0 -1422.77159455 0 996
0.03050000 0.03053250 63701.96348613 0 -843.90159517 0 13706.54161625 0 4498.92916496 0 -7050.36926222 0 1041
0.03150000 0.03150510 62640.68115226 0 3347.42952847 0 12993.04100494 0 -4607.60403306 0 -3735.10483735 0 1036
0.03250000 0.03246190 61950.54314631 0 3657.54320199 0 15139.85406402 0 -8750.69082300 0 -2641.70168918 0 1059
0.03350000 0.03345080 58988.25336433 0 2615.93638933 0 16403.42777233 0 -8068.22593815 0 293.64026866 0 1302
0.03450000 0.03451200 57955.09473550 0 -1178.98114669 0 16772.35763529 0 2375.62265146 0 -6170.81699560 0 1339
0.03550000 0.03553350 61692.11508504 0 -1937.80078349 0 19442.44876530 0 3015.29300089 0 -18441.28915520 0 1365
0.03650000 0.03647120 57791.99939092 0 4180.34516296 0 21593.58003107 0 -1666.99386307 0 -17655.37553957 0 1308
0.03750000 0.03744890 56230.58014500 0 7986.27966217 0 17157.67453897 0 -4538.40200294 0 -13081.95177323 0 1579
0.03850000 0.03847530 50873.12505825 0 2403.81279045 0 19577.64185134 0 -1823.66725926 0 -6005.20823329 0 1662
0.03950000 0.03950240 51744.18485173 0 -3259.06130409 0 22425.44379469 0 2314.42591219 0 -5328.60060827 0 1683
0.04050000 0.04050350 52069.48975490 0 -1382.22474106 0 24430.19892636 0 3951.71272777 0 -11975.71580060 0 1822
0.04150000 0.04152450 54115.76610464 0 3727.42064392 0 27888.30741372 0 2237.36253145 0 -5571.97030779 0 1887
0.04250000 0.04250150 49038.99445204 0 3543.69755821 0 27708.04996567 0 -1973.35401848 0 -4155.27741957 0 1920
0.04350000 0.04349210 47933.75498864 0 2827.50637196 0 30830.11339478 0 1978.89018089 0 5822.09412544 0 2005
0.04450000 0.04448520 45720.95087364 0 2167.67331905 0 31627.32078173 0 4188.35045380 0 5221.50908263 0 2151
0.04550000 0.04548030 44039.06473368 0 1867.23685742 0 28137.98833838 0 8137.54976384 0 7856.00268835 0 2274
0.04650000 0.04648670 44951.31357549 0 -898.73285490 0 26386.67872181 0 10181.92167371 0 11008.42643212 0 2311
0.04750000 0.04749250 42503.44400459 0 -1503.38919155 0 20644.79251736 0 7897.21388133 0 10210.83151381 0 2568
0.04850000 0.04851840 43835.44468027 0 123.50846165 0 15279.36535674 0 5850.51678325 0 5512.19082609 0 2493
0.04950000 0.04949480 41332.43493177 0 2412.95853075 0 16463.32904960 0 2431.52681947 0 8697.79832734 0 2644
0.05050000 0.05050630 40374.56811170 0 3308.58781301 0 14406.86616103 0 -2414.68581342 0 10271.62964939 0 2829
0.05150000 0.05149060 37237.11415109 0 2019.52561297 0 14976.42654970 0 -211.13926920 0 11316.24813440 0 2784
0.05250000 0.05249300 36668.21810191 0 1625.69409150 0 18043.90341746 0 -1071.71800001 0 10815.79012492 0 3055
0.05350000 0.05348950 35590.99162030 0 637.27540556 0 18184.96483565 0 361.95097662 0 11754.82292047 0 3009
0.05450000 0.05448610 35898.69152702 0 314.84155622 0 18306.64968541 0 1029.93768954 0 9307.73948462 0 3336
0.05550000 0.05550870 35501.85940551 0 344.09796009 0 18418.03727308 0 677.97616437 0 7964.78827969 0 3349
0.05650000 0.05647670 35164.70711479 0 834.87211428 0 18661.96058884 0 1797.18225829 0 6041.27079522 0 3324
0.05750000 0.05747970 34594.81455637 0 1281.75446566 0 16865.91878000 0 2395.88500588 0 6077.92019037 0 3639
0.05850000 0.05849280 31986.17482910 0 817.18407538 0 14009.03753030 0 2362.92269490 0 5164.16551239 0 3846
0.05950000 0.05951020 32623.71929216 0 -392.24817903 0 12867.48084149 0 2205.62924852 0 2816.30117925 0 3787
0.06050000 0.06049470 32240.94902318 0 -889.83402745 0 10771.04686033 0 3847.66609145 0 2881.12964106 0 3930
0.06150000 0.06148310 32166.10010740 0 359.62025225 0 9858.07831741 0 138.59561145 0 54.11687334 0 4083
0.06250000 0.06249100 31962.48005399 0 208.37008076 0 9104.80591535 0 -1089.09601381 0 -2105.09253917 0 4303
0.06350000 0.06350600 31811.12137372 0 323.06054293 0 10156.49961592 0 -2084.57552128 0 -2078.46359798 0 4470
0.06450000 0.06451750 31513.82945233 0 364.34370602 0 11779.62492806 0 -1394.79182973 0 -777.20301769 0 4479
0.06550000 0.06550280 31435.99100886 0 682.57782256 0 10970.23798382 0 -339.81075592 0 -2883.43268462 0 4636
0.06650000 0.06648880 32036.77535352 0 -312.41560985 0 10291.58197871 0 1367.71999555 0 -552.47800594 0 4653
0.06750000 0.06749660 31788.53383109 0 -32.73942509 0 10581.66581663 0 2521.27908445 0 -988.80953900 0 5220
0.06850000 0.06852730 32428.18203586 0 460.72940080 0 10180.51548845 0 1639.39055730 0 -2554.86144563 0 5029
0.06950000 0.06949320 30218.14600206 0 1436.27983083 0 12120.20963948 0 -1112.83507822 0 -1070.06268745 0 5040
0.07050000 0.07048030 30278.71161881 0 2597.41238991 0 12096.84703412 0 -2486.11338083 0 -723.84991332 0 5475
0.07150000 0.07148790 28619.30229824 0 673.88936927 0 12808.57607346 0 -1263.03116439 0 3090.44086943 0 5509
0.07250000 0.07249820 28530.61297645 0 71.38128509 0 12437.09957579 0 280.48856124 0 845.20591503 0 5916
0.07350000 0.07351270 29285.74552908 0 -560.13119686 0 12906.67687135 0 1339.00945729 0 -387.71516924 0 5721
0.07450000 0.07449140 28969.74137875 0 307.44635047 0 12494.45421835 0 2891.93623008 0 -995.87368223 0 6028
0.07550000 0.07549160 27958.39522982 0 326.46971174 0 9309.25639312 0 1783.85117921 0 347.32554277 0 6183
0.07650000 0.07648840 27441.31766079 0 242.64556947 0 8896.87872758 0 3364.38125777 0 -1487.60005636 0 6330
0.07750000 0.07749960 27337.34853074 0 235.98113716 0 7385.92713818 0 1813.04889975 0 -3314.97654443 0 6583
0.07850000 0.07848650 26783.73228981 0 642.03318354 0 7883.87172992 0 175.58603421 0 -1925.78731106 0 6549
0.07950000 0.07947320 25948.87899848 0 1025.46225585 0 7506.56011708 0 -1937.30252887 0 -1873.21591282 0 6828
0.08050000 0.08048110 25378.21137733 0 865.49262856 0 8499.50406216 0 -1340.69245067 0 -927.21198157 0 7147
0.08150000 0.08149960 24781.74523935 0 892.35741027 0 9228.47271125 0 -762.08375815 0 -1446.95355195 0 7386
0.08250000 0.08250610 24286.92304320 0 202.66561902 0 10308.57799731 0 794.16692655 0 922.42984448 0 7227
0.08350000 0.08350160 24108.43716713 0 275.91236939 0 9818.73834733 0 1642.86726729 0 356.14575672 0 7798
0.08450000 0.08449610 23704.51875774 0 219.03715849 0 9211.14452291 0 1700.37692240 0 -444.55384147 0 7371
0.08550000 0.08548940 23171.93993397 0 695.06408326 0 8105.71682999 0 921.13770417 0 240.91053617 0 8256
0.08650000 0.08650700 22309.62727709 0 858.79055035 0 7543.94028566 0 957.07957777 0 735.69065748 0 8037
0.08750000 0.08749060 21875.14925121 0 704.10574370 0 7297.35961195 0 -375.61976161 0 931.57558478 0 8155
0.08850000 0.08849210 21451.30065715 0 156.41098209 0 5845.51209243 0 938.23115923 0 -180.80220643 0 8718
0.08950000 0.08949900 21142.60424121 0 77.75196862 0 5996.31715646 0 1118.59268713 0 -480.33073742 0 8571
0.09050000 0.09049190 20984.38071955 0 332.44765991 0 5910.39591587 0 25.66852773 0 -1108.66081177 0 8932
0.09150000 0.09150830 20862.91731629 0 740.14173206 0 6106.35392051 0 275.13066326 0 -585.25540910 0 9285
0.09250000 0.09250820 19633.55709167 0 1135.98730942 0 6445.02311974 0 -146.32077248 0 642.21476967 0 9204
0.09350000 0.09350330 19147.92492513 0 886.33628004 0 6389.98259306 0 131.70308925 0 1307.03258322 0 9349
0.09450000 0.09448040 18807.56166020 0 37.76714634 0 7391.99477218 0 318.19868510 0 1335.86491704 0 9564
0.09550000 0.09549270 18433.20635808 0 73.17234435 0 6912.81777100 0 1021.32784976 0 1807.88919639 0 10155
0.09650000 0.09649430 18823.50580794 0 108.64962319 0 6609.91218094 0 21.67064341 0 1334.29264692 0 9913
0.09750000 0.09749140 18591.76204949 0 -261.07434690 0 6794.53212496 0 428.41371358 0 1390.19681493 0 10476
0.09850000 0.09850240 18742.12422052 0 152.78590294 0 6351.58377059 0 -247.15643460 0 837.55936751 0 10575
0.09950000 0.09950330 18292.58783289 0 892.54121086 0 6961.80173600 0 -383.24970065 0 1169.79111709 0 10882
0.10050000 0.10051200 17700.55062483 0 891.30886111 0 7643.67978763 0 -204.79814878 0 1627.94177344 0 10875
0.10150000 0.10150300 16951.61857410 0 765.36227353 0 7701.11193646 0 41.91328909 0 2364.73855617 0 11118
0.10250000 0.10250800 16812.99306737 0 119.19689837 0 7761.95436134 0 1314.58390874 0 1950.78862050 0 11575
0.10350000 0.10349800 16487.79888745 0 -387.79267552 0 7169.92822561 0 1031.30512165 0 2516.09723644 0 11364
0.10450000 0.10450100 16813.10379062 0 -237.16366145 0 7555.21191233 0 1089.96962024 0 2185.68799153 0 12093
0.10550000 0.10551000 16740.13717006 0 175.49413391 0 6807.71926382 0 -140.76135819 0 2566.23272322 0 12067
0.10650000 0.10649700 16449.93153657 0 595.42976838 0 6570.58328318 0 595.17510491 0 2476.24793942 0 12054
0.10750000 0.10749900 16064.17173988 0 322.87784957 0 6173.28612404 0 159.37282897 0 2650.13880069 0 12807
0.10850000 0.10850100 15706.31420175 0 215.16848820 0 5245.75747398 0 140.21659981 0 1207.03841778 0 12736
0.10950000 0.10950300 15442.23925482 0 518.02203834 0 5879.59270822 0 387.89343367 0 1661.49091764 0 12933
0.11050000 0.11050200 15138.85755479 0 202.68997813 0 5044.23008996 0 368.14483513 0 2069.99326950 0 13428
0.11150000 0.11150900 14974.21208474 0 -76.58826728 0 5229.17113140 0 362.80686733 0 1698.54998880 0 13453
0.11250000 0.11250000 15234.85461097 0 -41.70402215 0 4973.65509156 0 1111.88285829 0 1867.25900207 0 13668
0.11350000 0.11349100 15186.35782826 0 61.06697163 0 5105.08358716 0 261.26921982 0 1760.33356129 0 13791
0.11450000 0.11448600 15043.08194511 0 251.12364858 0 5032.27197915 0 412.71537145 0 2187.34884025 0 14205
0.11550000 0.11549300 15075.63458008 0 -98.00934049 0 4768.04201968 0 18.22039628 0 2183.50674354 0 14776
0.11650000 0.11649800 15201.08402027 0 -72.20927354 0 5084.07938698 0 -383.06700729 0 1809.08500747 0 14553
0.11750000 0.11747300 15084.49243993 0 311.63943988 0 4984.25130641 0 -234.39779471 0 1444.71694234 0 14568
0.11850000 0.11849100 14911.43200302 0 244.45257288 0 4744.05936412 0 -18.15429450 0 901.38246223 0 16015
0.11950000 0.11950300 14648.13211883 0 187.08685800 0 4601.92393043 0 -21.85676919 0 505.16264029 0 15270
0.12050000 0.12050700 14483.81881852 0 295.45059376 0 4380.15633663 0 158.53686845 0 -430.22293146 0 15999
0.12150000 0.12150000 14221.29399707 0 456.16095958 0 4653.18879434 0 125.64099141 0 -429.94390887 0 15670
0.12250000 0.12250700 13897.64994262 0 276.17367625 0 4577.95234719 0 -9.17820436 0 -289.66087512 0 16887
0.12350000 0.12352200 13657.93411030 0 259.16215640 0 5153.22605547 0 -26.23532004 0 167.50545155 0 16407
0.12450000 0.12449800 13472.36194634 0 190.34322872 0 4752.78435608 0 182.27482563 0 94.71930989 0 16306
0.12550000 0.12549900 13485.87018261 0 41.31682295 0 5310.70773137 0 528.80758994 0 1012.13892739 0 17523
0.12650000 0.12650100 13351.11998957 0 44.74891148 0 4787.83933645 0 501.98156137 0 963.94884808 0 17154
0.12750000 0.12750600 13324.10351701 0 217.78155686 0 4372.71573435 0 604.98075577 0 1329.12187123 0 18007
0.12850000 0.12850300 13023.93279118 0 405.82174202 0 4523.07790539 0 248.11861963 0 1854.11615251 0 17496
0.12950000 0.12949900 12967.35321136 0 135.08236279 0 3901.20078195 0 298.94501948 0 2067.78987686 0 18405
0.13050000 0.13049000 12631.41887636 0 71.89160854 0 3879.35508509 0 530.82275306 0 1636.02457055 0 18100
0.13150000 0.13148800 12739.48476659 0 189.31903868 0 3883.66221944 0 -105.28629381 0 1466.04223994 0 19059
0.13250000 0.13249300 12414.06914017 0 220.38133873 0 4077.78221816 0 -210.55797215 0 1489.49342390 0 18957
0.13350000 0.13349100 12343.64915432 0 113.34960363 0 4008.24801830 0 -278.88307414 0 992.43018921 0 19468
0.13450000 0.13450700 12295.48454136 0 -31.30766276 0 4163.42665063 0 -31.73671535 0 739.31462940 0 19953
0.13550000 0.13551000 12363.24716925 0 -23.25376441 0 3849.74768852 0 -31.07414743 0 65.24433833 0 19956
0.13650000 0.13649900 12368.56188517 0 201.01584262 0 3936.75401694 0 -77.05385854 0 -212.00955393 0 19723
0.13750000 0.13749600 12157.30192763 0 274.93689757 0 3896.94900922 0 -220.24293467 0 -58.97839900 0 20946
0.13850000 0.13851100 12019.11931389 0 137.14735137 0 4092.45304854 0 176.11418410 0 232.57529005 0 20955
0.13950000 0.13949800 11711.86230017 0 322.73169488 0 3941.52618894 0 432.06868800 0 -174.46994386 0 20506
0.14050000 0.14048300 11621.17995991 0 345.33141707 0 3882.66571021 0 264.97069800 0 606.20646212 0 21447
0.14150000 0.14148400 11374.82073269 0 181.32814186 0 3950.14045765 0 504.13291409 0 1208.43353071 0 21771
0.14250000 0.14249400 11130.56524719 0 121.78339345 0 3962.99542677 0 491.03103213 0 1441.37310024 0 22470
0.14350000 0.14350900 11052.38356165 0 -41.65973285 0 3794.48571535 0 360.79945484 0 1389.42175219 0 22519
0.14450000 0.14449900 11042.47383094 0 211.07615695 0 3843.01571503 0 131.02214128 0 1304.61881641 0 22218
0.14550000 0.14550500 10962.37663320 0 205.57431875 0 3905.06502331 0 -235.14185494 0 1038.89741478 0 23559
0.14650000 0.14650700 10611.33964715 0 265.50770576 0 3636.59436344 0 -420.67748023 0 939.04054617 0 23044
0.14750000 0.14750500 10487.53998335 0 297.78796153 0 3819.06627645 0 -485.33653547 0 600.48649912 0 23649
0.14850000 0.14849900 10351.54968993 0 206.48889278 0 3911.95200935 0 -323.96515187 0 13.69314410 0 23640
0.14950000 0.14949500 10106.98417933 0 160.42137813 0 4192.53579258 0 -130.34008607 0 -341.59118575 0 24457
0.15050000 0.15050000 10044.66913525 0 89.53845839 0 3807.24103354 0 373.80057865 0 -193.24528506 0 24591
0.15150000 0.15149900 9874.58715371 0 -14.48714052 0 3746.98544188 0 329.71501015 0 -864.73638878 0 25020
0.15250000 0.15250500 10070.17977164 0 -20.02684607 0 3535.17186810 0 287.70660979 0 -620.49861900 0 25297
0.15350000 0.15350100 10069.39363657 0 55.16486888 0 3720.25684977 0 73.61457300 0 -696.64853294 0 25452
0.15450000 0.15450400 9863.66984144 0 284.48345603 0 3414.51674455 0 222.60687601 0 -141.01159273 0 26061
0.15550000 0.15549900 9734.59975103 0 242.26025257 0 3483.22052005 0 154.39914067 0 283.76043322 0 26128
0.15650000 0.15649500 9607.67769164 0 103.79939131 0 3238.65500945 0 455.43682953 0 316.82460959 0 26331
0.15750000 0.15749700 9545.90519147 0 53.90483832 0 3477.81722554 0 422.16006452 0 605.48122485 0 27345
0.15850000 0.15849900 9416.10432762 0 243.33648254 0 3146.01286770 0 387.45939854 0 599.30065313 0 26980
0.15950000 0.15949700 9154.03347149 0 197.31325720 0 3097.70431451 0 226.63277332 0 1275.11107076 0 27777
0.16050000 0.16050000 9182.01323631 0 -54.29480560 0 2906.99459184 0 352.14864746 0 948.92259607 0 28224
0.16150000 0.16150500 9098.07394186 0 -76.71305238 0 2924.42243110 0 96.67656475 0 1011.00290687 0 28075
0.16250000 0.16249700 9159.91287597 0 142.94482064 0 2930.05824443 0 -60.89690072 0 545.54783784 0 28590
0.16350000 0.16349900 8956.19317163 0 244.00303649 0 2822.30237930 0 -381.88337576 0 310.28972349 0 29163
0.16450000 0.16449100 8815.36427226 0 357.45561275 0 2605.94915234 0 -181.89725935 0 107.63860922 0 28996
0.16550000 0.16550500 8534.19365582 0 129.32143218 0 2750.79730562 0 -135.02810840 0 1.44348791 0 30777
0.16650000 0.16650700 8411.12476546 0 18.96290638 0 2460.32593633 0 414.35961169 0 -3.43404833 0 29211
0.16750000 0.16749900 8540.13949425 0 -190.26461522 0 2116.99528835 0 771.76872067 0 -489.88615374 0 30922
0.16850000 0.16850800 8529.93081076 0 47.67333391 0 1981.55861117 0 307.43638538 0 -539.17682214 0 30867
0.16950000 0.16949900 8494.06755068 0 268.63563752 0 1978.53586649 0 91.68848242 0 -340.34444197 0 30852
0.17050000 0.17049200 8184.04245575 0 295.05974070 0 1933.84796353 0 -393.21811468 0 -40.62834580 0 31257
0.17150000 0.17149500 7944.30447878 0 377.53305934 0 2259.45181947 0 -228.48517326 0 314.77180057 0 32608
0.17250000 0.17250900 7905.41847402 0 17.85091280 0 2437.04083723 0 -133.60863635 0 158.27666882 0 32361
0.17350000 0.17350400 7888.37816612 0 -161.04917895 0 2393.22764793 0 175.28929590 0 203.52926035 0 32508
0.17450000 0.17449800 7982.08325106 0 -20.27685916 0 2571.49207751 0 166.72374542 0 107.27289033 0 32791
0.17550000 0.17549800 8129.96522134 0 17.60244983 0 2329.56178022 0 -4.72425098 0 226.66266859 0 33633
0.17650000 0.17650100 8020.03918054 0 27.67184346 0 2269.43905645 0 205.49902694 0 126.18132087 0 33984
0.17750000 0.17750300 8055.38204136 0 7.16390488 0 2270.03696199 0 -190.35430105 0 141.83315923 0 34069
