### header ###
fiducial parameters:
Omega_m = 0.31
Omega_nu = 0
Omega_de = 0.69
Omega_k = 0
H_0 = 100
w_de = -1
zeff = 0
beta = 0
fgrowth = 0
b_1 = 2
gamma = 0.55
Lx = 3500 Ly = 3500 Lz = 3500
nx = 700 ny = 700 nz = 700
xoffset = -685.467585 yoffset = -31.7331281 zoffset = 572.489161
bins = 400 dk = 0.001
kx_ny = 0.628318531 ky_ny = 0.628318531 kz_ny = 0.628318531
############################
A(data) = 8.02721417 (not used)
A(ran) = 8.02654975 (used)
Ngal = 476884
weighted Ngal = 0
Nran = 23820508
weighted Nran = 0
SN(data) = 3486.57762
SN(ran) = 69.9141593
SN(data+ran) = 3556.49178
############################
13 columns: k_central k_mean P_0(k) sigma^{lin}_{P_0(k)} P^img_1(k) sigma^{lin}_{P_1(k)} P_2(k) sigma^{lin}_{P_2(k)} P^img_3(k) sigma^{lin}_{P_3(k)} P_4(k) sigma^{lin}_{P_4(k)} N_modes
### header ###
0.00050000 0 0 0 0 0 0 0 0 0 0 0 0
0.00150000 0.00179520 1365.67161546 0 -11107.86698131 0 -1193.39731360 0 11139.86600004 0 -11550.09563457 0 3
0.00250000 0.00253879 8200.89453413 0 -16397.55944017 0 242.99766940 0 4108.20896676 0 22716.75666067 0 6
0.00350000 0.00331552 16982.73180684 0 -27119.11300857 0 -1926.61773542 0 -30701.67442689 0 -6059.24117841 0 7
0.00450000 0.00420575 29686.12079452 0 -25128.86262241 0 4596.90816728 0 -31440.86283178 0 3611.67056027 0 24
0.00550000 0.00557378 57612.62772886 0 -10654.86495601 0 22413.26423739 0 -46737.39029199 0 5396.52932104 0 45
0.00650000 0.00659388 62628.05870196 0 5638.84714969 0 16778.77958368 0 -15722.25834949 0 53447.99419482 0 40
0.00750000 0.00754703 67360.48105270 0 16304.66263495 0 18487.90364269 0 -22499.07475474 0 16107.13236018 0 57
0.00850000 0.00846663 62270.09044058 0 1298.03078314 0 7561.68922235 0 14585.01986736 0 11111.52084850 0 75
0.00950000 0.00948925 73672.25981557 0 -13851.25690163 0 34135.42379965 0 -6121.35692064 0 -34393.96258416 0 112
0.01050000 0.01054430 72449.87515559 0 4674.02690964 0 23139.27657575 0 9700.07624225 0 -33110.01579819 0 105
0.01150000 0.01145670 73739.57955047 0 7937.29569717 0 22209.20129099 0 -6303.44130228 0 -32341.48573253 0 144
0.01250000 0.01249090 62734.68518997 0 5326.93975955 0 14601.07473835 0 -11273.28751410 0 -26943.83810669 0 169
0.01350000 0.01339930 70028.13627126 0 -3595.70426788 0 11358.98730820 0 8560.34648704 0 -25927.28796509 0 180
0.01450000 0.01448870 71332.01324190 0 -6015.08474703 0 5524.25966014 0 -5583.10906655 0 -58523.21572195 0 267
0.01550000 0.01550050 66046.63898972 0 3461.51876340 0 3527.69804884 0 -10239.80778786 0 -28037.67307552 0 238
0.01650000 0.01653350 74459.72355667 0 1231.33109843 0 -2114.37114737 0 -347.85812159 0 -51619.62119752 0 315
0.01750000 0.01747870 62612.11455423 0 3097.28356617 0 -1116.38929449 0 -13624.60641259 0 -17123.01816229 0 297
0.01850000 0.01844180 69090.19963587 0 -2639.59794747 0 -4992.04622309 0 4212.25560308 0 -36275.92563359 0 388
0.01950000 0.01947590 70985.22802858 0 -1765.61506023 0 11377.25664415 0 -11235.64160972 0 -27996.92692019 0 399
0.02050000 0.02045430 64808.19945876 0 5899.09107223 0 900.09253639 0 2085.46130727 0 -13342.15140647 0 462
0.02150000 0.02154770 65299.47851096 0 5126.02135339 0 14692.42141810 0 6269.72607321 0 -5485.98263325 0 571
0.02250000 0.02255340 58624.08460105 0 -4342.61008317 0 -6333.36979627 0 3279.24615224 0 -6304.40459454 0 510
0.02350000 0.02348930 64048.30580645 0 -3409.50098141 0 11073.65349762 0 14876.00056360 0 -8369.21601602 0 555
0.02450000 0.02439640 65913.10675241 0 -3638.29950146 0 -2082.21711610 0 5166.85608732 0 -10440.48260287 0 592
0.02550000 0.02547300 61306.35528836 0 2604.28830362 0 -1524.96915262 0 -784.18079679 0 -8554.79925231 0 837
0.02650000 0.02652900 63951.75513403 0 333.37884243 0 -12630.75453687 0 -168.25836964 0 -719.38001579 0 723
0.02750000 0.02749970 61346.21565771 0 -5409.43965177 0 -5750.92122151 0 -3197.05628511 0 -9574.85932087 0 826
0.02850000 0.02848090 68210.61415228 0 -748.80582623 0 -7122.99264071 0 -4403.24213388 0 -11745.30072112 0 831
0.02950000 0.02946900 65447.51549378 0 1852.70996725 0 -7122.26186727 0 -7233.21763428 0 -13204.63313222 0 996
0.03050000 0.03053250 63527.35292374 0 4389.68960830 0 -1090.00283721 0 -15281.35837521 0 -6295.52459004 0 1041
0.03150000 0.03150510 63291.51240510 0 6266.49295436 0 7902.20749982 0 -5303.95361323 0 1079.09216834 0 1036
0.03250000 0.03246190 60598.28011621 0 841.03054134 0 15730.56259310 0 -4025.79765314 0 -3868.60385769 0 1059
0.03350000 0.03345080 57620.04618649 0 1978.10404583 0 14535.74802192 0 4637.12285102 0 6696.42025474 0 1302
0.03450000 0.03451200 56321.81610150 0 3573.83642636 0 12854.85839120 0 4807.97989530 0 2532.80537459 0 1339
0.03550000 0.03553350 55806.95299744 0 1942.63938943 0 13887.46340379 0 4515.64837544 0 6898.65626756 0 1365
0.03650000 0.03647120 54804.79687810 0 3280.27587845 0 11823.02844135 0 -208.19624526 0 6969.98418404 0 1308
0.03750000 0.03744890 51144.28629306 0 1583.67461881 0 14814.21699111 0 -4362.99423316 0 4272.57762869 0 1579
0.03850000 0.03847530 49981.47074060 0 534.55523376 0 17207.38927741 0 -6251.39030331 0 2138.90741917 0 1662
0.03950000 0.03950240 49190.02096257 0 2762.52289760 0 23035.97178519 0 -1896.39028866 0 -4360.71333425 0 1683
0.04050000 0.04050350 44242.24189411 0 3998.23863666 0 22593.96457843 0 59.31532984 0 -1582.29057821 0 1822
0.04150000 0.04152450 44549.38818458 0 907.96495934 0 21232.62224198 0 2157.30962302 0 -4751.98714869 0 1887
0.04250000 0.04250150 43659.06254591 0 1059.28488647 0 22757.61353925 0 3712.29584822 0 740.12955250 0 1920
0.04350000 0.04349210 43077.65476968 0 1749.81485271 0 22183.29205091 0 3318.01036143 0 -2810.20032827 0 2005
0.04450000 0.04448520 42246.12317580 0 811.14965835 0 21405.79340214 0 3697.91289828 0 3190.60111974 0 2151
0.04550000 0.04548030 42531.56770963 0 -990.83245274 0 20600.72466458 0 1028.96332495 0 4270.42959768 0 2274
0.04650000 0.04648670 43491.31682491 0 -663.81355369 0 19653.59799959 0 3862.79088716 0 972.92628905 0 2311
0.04750000 0.04749250 42934.93250277 0 -446.53800208 0 16233.13541662 0 2546.96687803 0 4281.36905460 0 2568
0.04850000 0.04851840 44808.81275508 0 -249.93226643 0 16844.99208610 0 280.52731437 0 121.78782238 0 2493
0.04950000 0.04949480 43306.74117018 0 2157.67500973 0 16046.89891317 0 -1946.68078799 0 -1255.81200861 0 2644
0.05050000 0.05050630 42619.92486168 0 1833.35554347 0 14540.28767509 0 -1422.57229270 0 -1547.04736831 0 2829
0.05150000 0.05149060 40316.88129940 0 1035.99203675 0 14638.38847299 0 64.20398269 0 -1728.75529091 0 2784
0.05250000 0.05249300 39471.17712975 0 1970.43092473 0 14466.87816155 0 -341.17043740 0 -3761.83342946 0 3055
0.05350000 0.05348950 38626.69091583 0 574.97143381 0 15365.95093682 0 4039.00693665 0 -942.09429336 0 3009
0.05450000 0.05448610 37347.83739928 0 688.89679833 0 13203.74734624 0 2906.11987818 0 -2079.32723932 0 3336
0.05550000 0.05550870 36795.10694433 0 1423.45807869 0 14342.75740033 0 2531.03380262 0 655.89573421 0 3349
0.05650000 0.05647670 35203.79242140 0 815.15341101 0 13060.91435608 0 2881.00784549 0 414.86340247 0 3324
0.05750000 0.05747970 34632.57118400 0 427.60764833 0 12056.65449502 0 2132.57404937 0 3323.20328177 0 3639
0.05850000 0.05849280 34697.67645394 0 140.30960733 0 10076.64600933 0 1960.90872538 0 1190.14205011 0 3846
0.05950000 0.05951020 34734.10440259 0 -137.74636414 0 10293.43105695 0 932.12366486 0 2177.26195234 0 3787
0.06050000 0.06049470 34366.28177211 0 -34.73642959 0 9161.07547008 0 490.61914164 0 -544.12393687 0 3930
0.06150000 0.06148310 33901.35485298 0 241.43536437 0 9098.72720902 0 -1049.65307111 0 -1261.08243522 0 4083
0.06250000 0.06249100 34231.64230232 0 923.88585519 0 8456.18912747 0 -2291.37333192 0 -4165.91792372 0 4303
0.06350000 0.06350600 31795.62011897 0 927.02043035 0 8727.67145970 0 -934.20858362 0 -4045.55068061 0 4470
0.06450000 0.06451750 32168.97891185 0 1252.50138349 0 10343.97621975 0 -1651.76941645 0 -4539.40958450 0 4479
0.06550000 0.06550280 30789.58868595 0 514.42242554 0 10450.22624871 0 407.45380270 0 -3772.64001848 0 4636
0.06650000 0.06648880 30142.85419329 0 1334.58052737 0 10613.93057115 0 934.80538193 0 -3653.76753923 0 4653
0.06750000 0.06749660 29713.46943682 0 746.87259832 0 10014.84029219 0 725.12433791 0 -3271.48445254 0 5220
0.06850000 0.06852730 29360.15155186 0 202.73980359 0 10302.96432862 0 1393.71781422 0 -1238.27344609 0 5029
0.06950000 0.06949320 29341.32859967 0 629.13171066 0 10584.35639156 0 557.43065683 0 -638.14347583 0 5040
0.07050000 0.07048030 28699.02303694 0 674.98995836 0 9789.67349468 0 1157.34582399 0 1226.48142016 0 5475
0.07150000 0.07148790 28912.49745944 0 -199.23319832 0 9023.47968955 0 1149.81664312 0 2421.70566736 0 5509
0.07250000 0.07249820 28625.94569314 0 -448.41254667 0 8817.06941029 0 363.47231405 0 -287.86162233 0 5916
0.07350000 0.07351270 28781.73330333 0 814.74262776 0 10075.84880194 0 -90.00061723 0 341.73734044 0 5721
0.07450000 0.07449140 27778.58067476 0 916.14408568 0 8583.22191012 0 -970.11502578 0 -470.52619380 0 6028
0.07550000 0.07549160 27534.10374277 0 -42.12842436 0 9580.24047074 0 -120.99836562 0 303.57546572 0 6183
0.07650000 0.07648840 26527.40797026 0 911.82255730 0 9124.82467862 0 385.52506340 0 1083.43251967 0 6330
0.07750000 0.07749960 26264.10808607 0 1111.36245902 0 8027.87838651 0 2484.87328045 0 -939.08151377 0 6583
0.07850000 0.07848650 25572.75212439 0 -123.34348401 0 7436.04048031 0 2707.57094953 0 1515.13692818 0 6549
0.07950000 0.07947320 25019.24660671 0 197.28004022 0 6668.37405598 0 1850.29620044 0 582.23266443 0 6828
0.08050000 0.08048110 25330.60038061 0 757.21082800 0 6953.14317799 0 143.63462648 0 1267.07256295 0 7147
0.08150000 0.08149960 24577.57156969 0 865.26343144 0 7124.97458685 0 -1161.86333252 0 1785.79990838 0 7386
0.08250000 0.08250610 24063.15135862 0 325.32261889 0 8213.25124863 0 -1623.45748188 0 2176.95192724 0 7227
0.08350000 0.08350160 23989.63112182 0 507.87425264 0 8944.30149478 0 -677.53880754 0 1708.63687671 0 7798
0.08450000 0.08449610 24067.58028855 0 596.92896116 0 9905.32392741 0 -405.12640002 0 2263.20533758 0 7371
0.08550000 0.08548940 23125.54689298 0 415.42919827 0 9913.38457988 0 1194.08379774 0 1966.24558594 0 8256
0.08650000 0.08650700 22999.98672953 0 -56.92835806 0 8719.15684191 0 711.12670487 0 533.37270947 0 8037
0.08750000 0.08749060 22816.51830729 0 455.24638555 0 8936.09690209 0 1276.38438812 0 455.45011632 0 8155
0.08850000 0.08849210 22126.60174784 0 828.28075931 0 8277.86933627 0 -495.85967298 0 -24.42100890 0 8718
0.08950000 0.08949900 21524.04583121 0 1045.91394702 0 8233.43609677 0 -912.63083701 0 22.46308970 0 8571
0.09050000 0.09049190 21124.66707500 0 383.88857379 0 8840.23271381 0 -1123.40914842 0 -189.98116370 0 8932
0.09150000 0.09150830 20649.99651002 0 49.80519933 0 9217.25644621 0 1296.23706652 0 -422.67603486 0 9285
0.09250000 0.09250820 20490.22286289 0 452.70639423 0 8738.61091662 0 1189.75451874 0 -509.71558026 0 9204
0.09350000 0.09350330 20277.96639612 0 80.74282500 0 7975.56165174 0 1589.47651702 0 -1310.48714856 0 9349
0.09450000 0.09448040 19843.15620049 0 484.63565731 0 7486.16489476 0 1047.05550371 0 20.50018796 0 9564
0.09550000 0.09549270 19478.43382096 0 462.31052878 0 6617.67388063 0 518.65980425 0 -796.19980538 0 10155
0.09650000 0.09649430 19269.38832839 0 168.95924780 0 6384.23605648 0 902.41772460 0 1238.95993023 0 9913
0.09750000 0.09749140 18871.22752791 0 66.72337948 0 6001.28863030 0 580.04366581 0 157.18715206 0 10476
0.09850000 0.09850240 18883.18563871 0 334.91789558 0 5659.76277127 0 451.57701710 0 889.14975777 0 10575
0.09950000 0.09950330 18527.43184229 0 212.01619732 0 5312.53466496 0 435.44242538 0 1044.82110856 0 10882
0.10050000 0.10051200 18296.02025358 0 294.45740623 0 5300.11151651 0 -6.58157810 0 1126.31009753 0 10875
0.10150000 0.10150300 17895.09137190 0 447.45257611 0 5316.43212330 0 285.69476837 0 1459.52064062 0 11118
0.10250000 0.10250800 17669.32666884 0 350.62841726 0 5860.09434422 0 158.80592594 0 550.37758592 0 11575
0.10350000 0.10349800 16893.59959205 0 674.03552396 0 4849.56754732 0 165.93318143 0 1288.71895797 0 11364
0.10450000 0.10450100 16542.82834179 0 269.36641096 0 5490.15689970 0 53.26729385 0 231.88659144 0 12093
0.10550000 0.10551000 16403.98138857 0 301.52154946 0 5556.53548699 0 -389.63953930 0 799.94335841 0 12067
0.10650000 0.10649700 16000.50587218 0 503.22276899 0 4940.48240640 0 631.47129289 0 -115.11563944 0 12054
0.10750000 0.10749900 15664.01792094 0 200.96601716 0 4790.49669441 0 192.45472107 0 748.44819014 0 12807
0.10850000 0.10850100 15401.16092974 0 175.34465753 0 4405.46767117 0 629.29668830 0 -257.85894377 0 12736
0.10950000 0.10950300 15500.59040662 0 67.82341495 0 4739.67472349 0 120.82563735 0 -370.34158437 0 12933
0.11050000 0.11050200 14993.25648343 0 458.45846698 0 4664.71508447 0 318.12560776 0 206.41138650 0 13428
0.11150000 0.11150900 14999.89987832 0 316.78917815 0 4967.28850479 0 403.78111256 0 880.07820205 0 13453
0.11250000 0.11250000 14612.14706317 0 89.02592047 0 4554.44580160 0 382.49899702 0 1498.17412656 0 13668
0.11350000 0.11349100 14741.69326355 0 37.27121691 0 4634.21082960 0 1207.19343033 0 1407.07103795 0 13791
0.11450000 0.11448600 14887.51578141 0 -250.47813205 0 4298.58651969 0 608.58036856 0 1704.68405675 0 14205
0.11550000 0.11549300 14797.38705738 0 229.20819607 0 3920.75450758 0 461.43470789 0 1826.43534046 0 14776
0.11650000 0.11649800 14847.87685856 0 92.95914242 0 4273.98381395 0 -49.35887392 0 2196.93747354 0 14553
0.11750000 0.11747300 14534.86223593 0 151.46718905 0 4079.05553551 0 -257.03184111 0 1942.42901526 0 14568
0.11850000 0.11849100 14433.77191034 0 475.21532336 0 4260.69702416 0 -329.74490542 0 1610.39213860 0 16015
0.11950000 0.11950300 14193.61318502 0 420.07514576 0 4652.62410577 0 -243.45717088 0 1432.54845736 0 15270
0.12050000 0.12050700 13741.86233242 0 399.02001288 0 4563.12650426 0 -115.38469694 0 1783.72938363 0 15999
0.12150000 0.12150000 13512.55448543 0 220.66811194 0 4374.09977496 0 225.43364054 0 1874.86568922 0 15670
0.12250000 0.12250700 13444.45968779 0 -29.38417850 0 4250.08973699 0 414.84236505 0 1729.06531600 0 16887
0.12350000 0.12352200 13571.01636047 0 -128.87853919 0 3929.11411282 0 591.34740222 0 1309.95567697 0 16407
0.12450000 0.12449800 13586.96050821 0 -37.09073802 0 3922.21605446 0 562.14635997 0 913.21213407 0 16306
0.12550000 0.12549900 13509.23278798 0 54.97874310 0 3794.88431904 0 -339.44979813 0 698.84638942 0 17523
0.12650000 0.12650100 13442.46666933 0 185.47029857 0 3340.13286642 0 -19.36582828 0 411.96577506 0 17154
0.12750000 0.12750600 13459.40732630 0 35.38039600 0 3739.00229568 0 -121.07033573 0 258.77130334 0 18007
0.12850000 0.12850300 13351.23071282 0 12.24189449 0 3327.79829657 0 364.91393075 0 -12.96358862 0 17496
0.12950000 0.12949900 13329.97184917 0 113.25216718 0 3288.46939881 0 218.02404077 0 -762.80567373 0 18405
0.13050000 0.13049000 13189.13187748 0 93.08270956 0 2644.01580507 0 219.85540330 0 -361.42947013 0 18100
0.13150000 0.13148800 12989.05496800 0 325.75001063 0 3109.06451978 0 262.69754972 0 -459.16266683 0 19059
0.13250000 0.13249300 12832.16012532 0 38.27093712 0 2491.61632626 0 251.02178320 0 -96.40064242 0 18957
0.13350000 0.13349100 12662.53210910 0 57.15600505 0 2695.86750219 0 461.09478752 0 303.09935575 0 19468
0.13450000 0.13450700 12527.78191606 0 398.92146919 0 2626.23365141 0 330.79566905 0 306.08445452 0 19953
0.13550000 0.13551000 12310.98579611 0 290.93308524 0 2918.47659267 0 134.63836256 0 305.22856381 0 19956
0.13650000 0.13649900 12097.51137360 0 226.35596520 0 2808.12980353 0 53.26984049 0 810.05681989 0 19723
0.13750000 0.13749600 12005.27890787 0 132.79592771 0 2755.09336765 0 -154.72355978 0 767.51141178 0 20946
0.13850000 0.13851100 11937.40555673 0 135.41453253 0 3194.11104671 0 -388.91098033 0 706.22941561 0 20955
0.13950000 0.13949800 11756.26232269 0 373.16945613 0 3132.79251186 0 -164.95438792 0 674.32118994 0 20506
0.14050000 0.14048300 11425.53198036 0 371.74444793 0 3374.43492871 0 -209.37876955 0 703.76693057 0 21447
0.14150000 0.14148400 11137.76225832 0 182.43980327 0 3238.82109433 0 256.49483335 0 856.03243424 0 21771
0.14250000 0.14249400 11037.49128477 0 55.07008978 0 3087.03059339 0 460.15142544 0 741.87455089 0 22470
0.14350000 0.14350900 10902.96253822 0 166.73592498 0 3018.09429907 0 606.63717556 0 706.42318129 0 22519
0.14450000 0.14449900 10914.30059883 0 45.27296461 0 2777.94664607 0 376.84436074 0 715.24118078 0 22218
0.14550000 0.14550500 10853.98964555 0 2.39225328 0 2690.17632724 0 125.87683193 0 903.96785008 0 23559
0.14650000 0.14650700 10833.36190441 0 98.66880816 0 2389.51841911 0 45.57800716 0 736.97947609 0 23044
0.14750000 0.14750500 10663.89997306 0 57.03055561 0 2477.51018445 0 -55.53136283 0 439.56465191 0 23649
0.14850000 0.14849900 10700.35006636 0 91.14771008 0 2213.91134749 0 -159.98069961 0 133.02291037 0 23640
0.14950000 0.14949500 10529.11656304 0 155.42554518 0 2130.50352463 0 -52.67569954 0 222.51054679 0 24457
0.15050000 0.15050000 10424.93705882 0 185.59430861 0 2171.40469251 0 80.25198884 0 -167.51098772 0 24591
0.15150000 0.15149900 10175.22291719 0 326.15636495 0 1860.11735256 0 -15.06578021 0 -29.68556718 0 25020
0.15250000 0.15250500 9867.19084074 0 264.25321135 0 2134.32347669 0 165.40835323 0 -339.25160351 0 25297
0.15350000 0.15350100 9835.56828105 0 42.41652625 0 1871.38897922 0 166.08597951 0 -103.66541618 0 25452
0.15450000 0.15450400 9768.61393287 0 20.78784695 0 2217.39912981 0 54.59874091 0 -373.41858344 0 26061
0.15550000 0.15549900 9747.97511941 0 209.12299885 0 2324.96676542 0 -154.38696111 0 -80.99516328 0 26128
0.15650000 0.15649500 9658.98684485 0 197.53802539 0 2325.89684070 0 -94.42124291 0 18.31683622 0 26331
0.15750000 0.15749700 9472.89428162 0 151.49154817 0 2350.70992062 0 14.32260577 0 622.09414101 0 27345
0.15850000 0.15849900 9402.17534300 0 66.13510687 0 2309.87518669 0 210.35645583 0 327.10194149 0 26980
0.15950000 0.15949700 9469.98226019 0 -25.57463442 0 2578.68908864 0 143.26481083 0 65.59865273 0 27777
0.16050000 0.16050000 9383.72884985 0 187.05585549 0 2531.36597236 0 -94.05762776 0 345.02249921 0 28224
0.16150000 0.16150500 9053.84000421 0 389.97281628 0 2546.87829943 0 -85.18050206 0 437.25275048 0 28075
0.16250000 0.16249700 8922.95405253 0 195.75316663 0 2220.12292171 0 199.57090423 0 595.20721465 0 28590
0.16350000 0.16349900 8820.00357636 0 30.83686751 0 2164.44020020 0 440.74053280 0 443.66141209 0 29163
0.16450000 0.16449100 8802.50930315 0 50.74158584 0 1965.84698225 0 433.54573613 0 281.35663150 0 28996
0.16550000 0.16550500 8675.14435076 0 83.57313267 0 1827.09967995 0 -8.62755550 0 23.97567999 0 30777
0.16650000 0.16650700 8564.36574095 0 180.46117882 0 1829.53559141 0 -278.55754779 0 418.84722494 0 29211
0.16750000 0.16749900 8430.30203205 0 185.75485732 0 1965.97985015 0 -325.30268871 0 -51.93097497 0 30922
0.16850000 0.16850800 8477.19332765 0 118.63442427 0 2089.64664605 0 -115.31051236 0 257.51016554 0 30867
0.16950000 0.16949900 8255.64718036 0 116.20072727 0 2447.95814950 0 -140.19999132 0 90.37641193 0 30852
0.17050000 0.17049200 8235.89415288 0 101.63364457 0 2402.48411147 0 87.32875452 0 83.11883518 0 31257
0.17150000 0.17149500 8257.97236857 0 -66.91736661 0 2535.52916650 0 331.80989400 0 212.27861142 0 32608
0.17250000 0.17250900 8205.16845151 0 64.97505939 0 2299.54470764 0 121.60180732 0 -74.46193802 0 32361
0.17350000 0.17350400 8206.33104561 0 90.83237027 0 2376.02125516 0 66.64144428 0 78.89319314 0 32508
0.17450000 0.17449800 8166.43745929 0 42.14248622 0 2322.89624068 0 -108.31103150 0 206.24973056 0 32791
0.17550000 0.17549800 8032.50661829 0 254.90595474 0 2282.22759162 0 -23.36880587 0 342.17580450 0 33633
0.17650000 0.17650100 7929.63364840 0 129.34800576 0 2216.15902943 0 240.91496510 0 390.05142978 0 33984
0.17750000 0.17750300 7880.72718967 0 -55.45861766 0 2214.27673421 0 103.23891023 0 431.12975486 0 34069
0.17850000 0.17849800 7924.01997971 0 33.78764208 0 2167.48508952 0 76.56612263 0 171.51474037 0 34536
