### header ###
fiducial parameters:
Omega_m = 0.31
Omega_nu = 0
Omega_de = 0.69
Omega_k = 0
H_0 = 100
w_de = -1
zeff = 0
beta = 0
fgrowth = 0
b_1 = 2
gamma = 0.55
Lx = 3500 Ly = 3500 Lz = 3500
nx = 700 ny = 700 nz = 700
xoffset = -685.467585 yoffset = -31.7331281 zoffset = 572.489161
bins = 400 dk = 0.001
kx_ny = 0.628318531 ky_ny = 0.628318531 kz_ny = 0.628318531
############################
A(data) = 8.04055615 (not used)
A(ran) = 8.04132846 (used)
Ngal = 478154
weighted Ngal = 0
Nran = 23820508
weighted Nran = 0
SN(data) = 3485.76689
SN(ran) = 70.0428872
SN(data+ran) = 3555.80978
############################
13 columns: k_central k_mean P_0(k) sigma^{lin}_{P_0(k)} P^img_1(k) sigma^{lin}_{P_1(k)} P_2(k) sigma^{lin}_{P_2(k)} P^img_3(k) sigma^{lin}_{P_3(k)} P_4(k) sigma^{lin}_{P_4(k)} N_modes
### header ###
0.00050000 0 0 0 0 0 0 0 0 0 0 0 0
0.00150000 0.00179520 51444.23557239 0 -43857.03571367 0 27387.61688542 0 62812.96652644 0 -79990.57125008 0 3
0.00250000 0.00253879 79440.38742985 0 -18620.55009401 0 40684.70392987 0 -16523.11960362 0 73264.79826225 0 6
0.00350000 0.00331552 68303.40023426 0 20010.23758200 0 22359.34201553 0 -53420.09193628 0 25012.49248857 0 7
0.00450000 0.00420575 43799.90251760 0 38014.16990687 0 1821.61887916 0 4331.26095023 0 46927.83427887 0 24
0.00550000 0.00557378 23871.71086251 0 1254.33938941 0 1366.38024425 0 18894.14724028 0 -8445.62612959 0 45
0.00650000 0.00659388 43104.00690275 0 -19700.76610332 0 18465.75899305 0 16824.50828518 0 -30818.15528398 0 40
0.00750000 0.00754703 49304.50880119 0 -5935.53009321 0 17221.78329967 0 -23811.47741549 0 -17241.15986811 0 57
0.00850000 0.00846663 46724.65711845 0 7831.93145420 0 21243.91601330 0 -21138.17531128 0 -433.41176100 0 75
0.00950000 0.00948925 42466.79460944 0 4694.85395263 0 13220.90944970 0 -6664.58732089 0 5745.15254028 0 112
0.01050000 0.01054430 53409.79467420 0 -3611.65948794 0 43373.17511909 0 8757.31207324 0 7458.61695061 0 105
0.01150000 0.01145670 61272.47397442 0 -15017.61559803 0 31887.07752197 0 27352.29616925 0 -25039.84113087 0 144
0.01250000 0.01249090 71197.04160236 0 -19498.69617538 0 30751.27844207 0 13344.80876443 0 -21505.22287902 0 169
0.01350000 0.01339930 88330.46774998 0 -13749.05934355 0 5888.60558063 0 -284.73701227 0 -26737.89286506 0 180
0.01450000 0.01448870 98524.53576402 0 -4133.85247104 0 23203.82822944 0 -22147.74988824 0 -23022.13137917 0 267
0.01550000 0.01550050 93790.23111806 0 10210.70971823 0 21945.34779056 0 -7732.34696478 0 -5091.83001435 0 238
0.01650000 0.01653350 97353.19452145 0 5980.77161242 0 19105.07502808 0 -18750.87135713 0 -1986.36400014 0 315
0.01750000 0.01747870 87503.36508603 0 4190.63135271 0 17974.36921760 0 16766.04641014 0 -1905.36994409 0 297
0.01850000 0.01844180 89711.85099436 0 -2175.32429550 0 15458.18340256 0 12003.28588940 0 -33655.10634901 0 388
0.01950000 0.01947590 88761.73480167 0 4233.44803279 0 6610.60973740 0 7504.93248533 0 -36377.01595918 0 399
0.02050000 0.02045430 77097.15132848 0 9329.45231359 0 13106.53233433 0 -14040.37220953 0 -31440.30921554 0 462
0.02150000 0.02154770 71053.65499596 0 10186.85993057 0 13960.09785460 0 -13784.82295272 0 -28238.96794072 0 571
0.02250000 0.02255340 59686.91706039 0 6838.68855634 0 27354.39991096 0 -6229.07956880 0 -17762.11275082 0 510
0.02350000 0.02348930 61121.89035688 0 701.86249070 0 31172.80184792 0 8276.34135544 0 -20121.73589293 0 555
0.02450000 0.02439640 61280.55677154 0 -1268.22408473 0 32360.97302421 0 8775.65891546 0 -13618.18446420 0 592
0.02550000 0.02547300 61024.67534498 0 584.97638652 0 28667.90980420 0 11264.87254724 0 -14164.05007776 0 837
0.02650000 0.02652900 61328.83210774 0 -86.52091770 0 27180.01079507 0 9982.73055022 0 3101.07030126 0 723
0.02750000 0.02749970 58901.33561450 0 -2709.73005287 0 16153.85757092 0 14845.55167034 0 2000.11582757 0 826
0.02850000 0.02848090 62554.87063491 0 407.34750838 0 15189.56880246 0 2281.84006025 0 4086.06431712 0 831
0.02950000 0.02946900 63002.19255759 0 2766.25427107 0 13247.81519901 0 7260.90951865 0 5029.83606769 0 996
0.03050000 0.03053250 56893.14806215 0 774.18359471 0 12916.53124044 0 -1507.76275985 0 17433.70759670 0 1041
0.03150000 0.03150510 59091.55815489 0 -132.10944357 0 10450.12659779 0 5466.82751131 0 18078.00617790 0 1036
0.03250000 0.03246190 59138.72625862 0 -115.72572454 0 10525.34090028 0 12198.71242245 0 16477.16945562 0 1059
0.03350000 0.03345080 57626.91102788 0 1320.72904902 0 9404.88806258 0 3523.24697427 0 15472.90959457 0 1302
0.03450000 0.03451200 55652.27261972 0 1820.03553671 0 11069.40172489 0 2148.85036685 0 16961.58366644 0 1339
0.03550000 0.03553350 54622.43568834 0 386.19936798 0 12320.72944195 0 -1521.74710610 0 18431.87767910 0 1365
0.03650000 0.03647120 54318.27892557 0 -514.40138812 0 10538.19586939 0 -3165.13477266 0 14425.35694348 0 1308
0.03750000 0.03744890 52996.35406547 0 1012.96713729 0 14247.20323714 0 -6117.59233020 0 6868.10772338 0 1579
0.03850000 0.03847530 51802.75745002 0 4442.74818883 0 15672.76505755 0 -7308.36550282 0 9592.65254686 0 1662
0.03950000 0.03950240 49860.45023034 0 3807.49569701 0 19784.58360220 0 -4466.97443554 0 13397.51303056 0 1683
0.04050000 0.04050350 48831.27763844 0 694.75959433 0 19877.81257717 0 -1331.36955317 0 5739.58316089 0 1822
0.04150000 0.04152450 48466.88742866 0 1280.16005088 0 26186.82325884 0 -637.07610372 0 3051.65451559 0 1887
0.04250000 0.04250150 46740.82271268 0 2516.06401946 0 23955.86053113 0 1804.67822219 0 2904.04935343 0 1920
0.04350000 0.04349210 45270.86086976 0 2116.74062488 0 27157.31252919 0 2694.08485790 0 7957.22588184 0 2005
0.04450000 0.04448520 43909.73997980 0 326.50957211 0 23280.22727069 0 3766.81597563 0 5007.23745274 0 2151
0.04550000 0.04548030 43995.32905065 0 949.97225247 0 23580.06582678 0 6718.38774718 0 2638.57929358 0 2274
0.04650000 0.04648670 40428.04744058 0 2810.08960502 0 19343.46218142 0 4298.45365180 0 4000.81848835 0 2311
0.04750000 0.04749250 38392.84341566 0 3358.08110495 0 16374.41828130 0 1640.69709163 0 2028.58277467 0 2568
0.04850000 0.04851840 35270.44781681 0 1301.57392708 0 12725.42291407 0 1799.35243395 0 2568.21466936 0 2493
0.04950000 0.04949480 35005.48708389 0 913.08258787 0 12620.34655154 0 3166.20878817 0 1436.65628987 0 2644
0.05050000 0.05050630 34322.10319609 0 224.59214385 0 12643.48771041 0 499.63422851 0 2236.36602222 0 2829
0.05150000 0.05149060 34630.46744229 0 492.68191576 0 13061.80014206 0 842.86411833 0 4061.22909256 0 2784
0.05250000 0.05249300 33806.35430604 0 789.93951293 0 12335.45563396 0 359.25929446 0 5320.57317278 0 3055
0.05350000 0.05348950 33741.58120585 0 -844.29355547 0 15055.70439540 0 1448.32652023 0 5728.53298072 0 3009
0.05450000 0.05448610 34691.58667529 0 -508.47990881 0 14256.94688299 0 2704.04995024 0 4205.14717055 0 3336
0.05550000 0.05550870 35216.30414844 0 -1185.32558881 0 12463.23026236 0 1319.99827558 0 -185.31860772 0 3349
0.05650000 0.05647670 35366.77704273 0 366.36440530 0 13346.46961315 0 -591.24885853 0 1191.93576673 0 3324
0.05750000 0.05747970 35544.37713282 0 1228.36371538 0 13188.79970773 0 -971.24440291 0 -385.06445468 0 3639
0.05850000 0.05849280 34628.58514707 0 691.27181201 0 11691.04632951 0 662.85026143 0 -459.66313592 0 3846
0.05950000 0.05951020 33181.98590951 0 743.64501563 0 11235.08799348 0 192.22441671 0 66.48466016 0 3787
0.06050000 0.06049470 33539.51127791 0 593.80213663 0 11607.67172363 0 186.03277267 0 -3681.94660589 0 3930
0.06150000 0.06148310 32929.53690365 0 334.78059875 0 13460.95745177 0 595.54824225 0 -716.13803909 0 4083
0.06250000 0.06249100 32405.26232348 0 559.88649848 0 12352.72846067 0 -634.21612222 0 -2454.31366395 0 4303
0.06350000 0.06350600 32025.37085896 0 137.02001963 0 12803.81497379 0 -90.71312133 0 -2192.29816944 0 4470
0.06450000 0.06451750 32962.64315485 0 -36.72645853 0 12796.17506966 0 1196.78544500 0 -976.09961734 0 4479
0.06550000 0.06550280 32378.24585093 0 -225.45799965 0 11886.91575555 0 851.22372357 0 -3818.47944323 0 4636
0.06650000 0.06648880 32032.67859334 0 -120.87989174 0 10399.38213314 0 1345.91858798 0 -3659.74659463 0 4653
0.06750000 0.06749660 32698.90037767 0 467.70496543 0 9792.16476776 0 1119.52276241 0 -3832.46378948 0 5220
0.06850000 0.06852730 32089.70106615 0 795.23319143 0 9775.51199124 0 -999.29392337 0 -4007.98228250 0 5029
0.06950000 0.06949320 31358.15256538 0 575.06997750 0 8102.94874878 0 1635.09449527 0 -2109.11179308 0 5040
0.07050000 0.07048030 30977.59676137 0 476.78648625 0 9315.49011200 0 -253.72453768 0 -3210.68631696 0 5475
0.07150000 0.07148790 29636.84894908 0 1504.06460336 0 9234.24139248 0 782.76021752 0 -2522.81813760 0 5509
0.07250000 0.07249820 29541.84840213 0 1297.89791524 0 8942.89530952 0 -349.11483046 0 -2985.92919547 0 5916
0.07350000 0.07351270 27895.06153186 0 933.28515173 0 8973.94210832 0 -618.88981020 0 -73.66860595 0 5721
0.07450000 0.07449140 28175.19134977 0 435.81445549 0 11247.04610428 0 -103.80957785 0 -576.75518534 0 6028
0.07550000 0.07549160 26900.87748639 0 -11.45753100 0 11223.46205242 0 972.47564543 0 -2930.26861861 0 6183
0.07650000 0.07648840 27416.73709969 0 455.45565249 0 11926.88684815 0 -109.00604133 0 -2048.46867005 0 6330
0.07750000 0.07749960 26776.97817167 0 523.36775676 0 10978.59758906 0 963.27897243 0 -929.62464115 0 6583
0.07850000 0.07848650 26438.71864846 0 354.26789043 0 12002.51082666 0 -439.45503589 0 -1227.57758032 0 6549
0.07950000 0.07947320 26478.80046430 0 48.87379537 0 10148.16215533 0 800.08176247 0 -1175.61515994 0 6828
0.08050000 0.08048110 25975.56330130 0 1174.60757839 0 11387.66462948 0 522.11436959 0 -795.73698221 0 7147
0.08150000 0.08149960 24826.03453862 0 1248.13888751 0 9773.24216465 0 306.42216043 0 -2135.45285382 0 7386
0.08250000 0.08250610 23883.66897331 0 568.96691206 0 10388.80806294 0 678.37033913 0 -2416.54596399 0 7227
0.08350000 0.08350160 22881.62357722 0 620.72227996 0 9350.12434403 0 276.87676888 0 -2363.79740856 0 7798
0.08450000 0.08449610 22996.66503209 0 84.33513006 0 9021.95170873 0 2256.59515966 0 -2668.93960824 0 7371
0.08550000 0.08548940 22794.48438090 0 -347.05094912 0 8759.18329613 0 605.91304552 0 -547.67815313 0 8256
0.08650000 0.08650700 23814.68838969 0 237.37182116 0 9081.25508046 0 1064.94505892 0 -568.06008866 0 8037
0.08750000 0.08749060 22726.16813677 0 691.75456537 0 8411.50122450 0 -565.78251144 0 907.35487424 0 8155
0.08850000 0.08849210 22177.97733500 0 1218.55363559 0 9130.95874657 0 -344.83869862 0 1547.82243105 0 8718
0.08950000 0.08949900 21366.92954203 0 526.78356897 0 8716.51055628 0 -60.05905790 0 1535.27748703 0 8571
0.09050000 0.09049190 20818.29584727 0 450.95253798 0 8900.00112318 0 1320.28615603 0 1154.65524906 0 8932
0.09150000 0.09150830 20457.78095117 0 249.54252060 0 7699.16320730 0 1586.61985721 0 1094.02762729 0 9285
0.09250000 0.09250820 20079.55033537 0 320.44083088 0 7789.64624571 0 1922.70920476 0 1057.01616711 0 9204
0.09350000 0.09350330 19547.63585108 0 296.42274388 0 5939.82615524 0 824.29915131 0 -146.98289750 0 9349
0.09450000 0.09448040 19162.54039389 0 384.07901777 0 5971.27155772 0 649.09068338 0 -327.87146806 0 9564
0.09550000 0.09549270 18505.84080889 0 431.50953560 0 5658.10192255 0 -947.92608684 0 470.26156523 0 10155
0.09650000 0.09649430 19042.84856260 0 -49.75792050 0 6472.64857016 0 640.48748699 0 173.34388843 0 9913
0.09750000 0.09749140 18688.09127541 0 -171.70186266 0 5926.73866730 0 -636.38740511 0 -4.45611248 0 10476
0.09850000 0.09850240 18708.57507632 0 681.30671967 0 6471.02093841 0 -346.19395117 0 -43.69836930 0 10575
0.09950000 0.09950330 18012.56873822 0 509.07670712 0 6066.92537183 0 -252.58408823 0 -1016.21354293 0 10882
0.10050000 0.10051200 17869.62502481 0 271.93519031 0 6164.32861326 0 53.57200423 0 -1059.59712603 0 10875
0.10150000 0.10150300 17374.91355192 0 306.31032995 0 5782.84273396 0 107.44927246 0 -1658.18029252 0 11118
0.10250000 0.10250800 17117.37127663 0 421.42264769 0 6040.89433618 0 242.50605818 0 -2708.20207204 0 11575
0.10350000 0.10349800 16801.25640306 0 486.63642641 0 5641.89203902 0 280.88052153 0 -1623.15852911 0 11364
0.10450000 0.10450100 16529.98444501 0 486.56334906 0 5978.28033933 0 160.48338315 0 -1833.42197742 0 12093
0.10550000 0.10551000 16203.24013961 0 123.28480069 0 5464.55768472 0 720.22704864 0 -740.77839074 0 12067
0.10650000 0.10649700 16090.08097996 0 -23.23316989 0 5387.59395491 0 1156.10572361 0 -1601.13567505 0 12054
0.10750000 0.10749900 15914.58463158 0 -136.55830369 0 4399.97579806 0 1169.65824919 0 -210.13500934 0 12807
0.10850000 0.10850100 16054.53881729 0 481.34053345 0 5028.68454591 0 656.30319577 0 -924.41954125 0 12736
0.10950000 0.10950300 15484.97842862 0 254.91813430 0 4006.62038655 0 149.15085870 0 -86.94520919 0 12933
0.11050000 0.11050200 15405.25768993 0 105.36512876 0 4062.84565198 0 547.35041232 0 -189.18949248 0 13428
0.11150000 0.11150900 15292.31997678 0 301.54590858 0 3541.59381649 0 29.37554208 0 -150.82942314 0 13453
0.11250000 0.11250000 15133.76428537 0 3.36091562 0 4183.51184785 0 -347.47612639 0 152.73829194 0 13668
0.11350000 0.11349100 15035.10987124 0 408.69722478 0 4345.93178062 0 -555.56164840 0 -902.29260733 0 13791
0.11450000 0.11448600 14977.31233569 0 239.03266988 0 4803.78348419 0 -1215.49767394 0 -708.56235444 0 14205
0.11550000 0.11549300 14789.96859976 0 229.26687939 0 5705.81257019 0 -552.13697834 0 -727.36205475 0 14776
0.11650000 0.11649800 14707.92267285 0 261.97674137 0 5942.61638109 0 -178.39176132 0 -277.72269450 0 14553
0.11750000 0.11747300 14685.00296047 0 88.56210079 0 6126.28410518 0 882.56061727 0 -418.29250146 0 14568
0.11850000 0.11849100 14351.72598343 0 148.14106268 0 5487.76527754 0 887.20656477 0 -302.95541553 0 16015
0.11950000 0.11950300 14318.17683923 0 206.41138650 0 5358.65089783 0 666.94480715 0 127.21879770 0 15270
0.12050000 0.12050700 14112.56376735 0 184.12058218 0 4623.34887895 0 889.44538884 0 -36.43946387 0 15999
0.12150000 0.12150000 13928.43100562 0 94.37186034 0 4293.60397353 0 662.86133376 0 765.51950054 0 15670
0.12250000 0.12250700 13887.13123404 0 -16.85373922 0 4010.06387957 0 33.69729191 0 647.12202403 0 16887
0.12350000 0.12352200 13684.61841311 0 320.60359405 0 3834.17999982 0 352.90045832 0 508.46108586 0 16407
0.12450000 0.12449800 13274.94239482 0 523.17509831 0 3980.43433835 0 136.18184464 0 277.01849464 0 16306
0.12550000 0.12549900 12963.81006742 0 114.25199811 0 3395.27304401 0 238.10038013 0 550.22700231 0 17523
0.12650000 0.12650100 12972.66792727 0 9.96989773 0 3806.43275383 0 231.64521476 0 319.57940401 0 17154
0.12750000 0.12750600 13028.47244436 0 -18.29801327 0 3530.35540680 0 110.35830436 0 65.22219368 0 18007
0.12850000 0.12850300 12792.63192572 0 157.45842401 0 3370.08350505 0 174.00933515 0 -214.97582975 0 17496
0.12950000 0.12949900 12816.65887058 0 279.18977753 0 3387.14595760 0 -247.71115808 0 -239.02602649 0 18405
0.13050000 0.13049000 12602.85227833 0 265.33165579 0 3545.71272132 0 -332.00144522 0 -459.45940514 0 18100
0.13150000 0.13148800 12550.92307493 0 223.98648769 0 3560.27282846 0 -289.27777268 0 -321.25353952 0 19059
0.13250000 0.13249300 12317.18629801 0 109.40785600 0 3262.06190412 0 135.31931054 0 648.01777510 0 18957
0.13350000 0.13349100 12334.79129447 0 -52.71024519 0 3439.81700676 0 759.08205089 0 -124.42082122 0 19468
0.13450000 0.13450700 12409.19731725 0 -12.33180177 0 3188.34236548 0 614.13313946 0 423.83752173 0 19953
0.13550000 0.13551000 12203.69496862 0 268.48173220 0 2914.18053064 0 526.97401295 0 228.69997636 0 19956
0.13650000 0.13649900 12045.80361670 0 274.93800480 0 3211.37280110 0 -79.93875277 0 702.01528878 0 19723
0.13750000 0.13749600 11937.40555673 0 153.63293579 0 3221.33789344 0 -108.08903139 0 1084.44342292 0 20946
0.13850000 0.13851100 11679.30966520 0 207.92275884 0 3670.86320875 0 -210.51921901 0 835.79222447 0 20955
0.13950000 0.13949800 11579.76946508 0 223.58677676 0 3553.18654058 0 214.22512613 0 715.35190402 0 20506
0.14050000 0.14048300 11344.81473243 0 216.48941655 0 3694.67977943 0 53.50811692 0 525.88560342 0 21447
0.14150000 0.14148400 11087.38318040 0 423.39795044 0 3545.09267113 0 11.32942420 0 486.22453592 0 21771
0.14250000 0.14249400 10811.53835219 0 217.33534217 0 3253.86838375 0 109.88850562 0 182.97348933 0 22470
0.14350000 0.14350900 10545.72505027 0 154.76674185 0 3262.93661778 0 120.66730311 0 393.79830450 0 22519
0.14450000 0.14449900 10649.88240984 0 51.50790144 0 3026.99644822 0 124.39978380 0 -44.19208426 0 22218
0.14550000 0.14550500 10380.32666213 0 -21.78502053 0 2796.71423664 0 20.00813384 0 -262.36537997 0 23559
0.14650000 0.14650700 10596.13734517 0 146.70719661 0 3012.23703924 0 -268.53155766 0 -218.94857989 0 23044
0.14750000 0.14750500 10349.09163382 0 328.26121390 0 2931.90732268 0 -80.33458838 0 -202.58811274 0 23649
0.14850000 0.14849900 10196.83609524 0 107.29691727 0 2842.89690346 0 -152.81026205 0 -248.86157262 0 23640
0.14950000 0.14949500 10112.75286056 0 -59.48938679 0 2875.71527422 0 243.96760505 0 -91.17815897 0 24457
0.15050000 0.15050000 10137.35556631 0 18.08232438 0 2822.05878815 0 426.84919408 0 -497.48176857 0 24591
0.15150000 0.15149900 10138.24135230 0 26.78572531 0 2732.48368037 0 594.02469036 0 -167.26296764 0 25020
0.15250000 0.15250500 10028.27102220 0 23.49691267 0 2215.26217112 0 401.26658759 0 -341.04753460 0 25297
0.15350000 0.15350100 9979.72995019 0 166.32624896 0 2263.96932799 0 273.38677210 0 46.32118160 0 25452
0.15450000 0.15450400 10003.21435113 0 113.58212245 0 2356.34573396 0 142.75326942 0 181.35692990 0 26061
0.15550000 0.15549900 9726.90448528 0 238.05055467 0 2377.38315111 0 13.63977550 0 678.65379064 0 26128
0.15650000 0.15649500 9618.87181203 0 308.51150812 0 2456.05201895 0 -278.67491443 0 862.05245724 0 26331
0.15750000 0.15749700 9405.81813787 0 199.09479426 0 2604.98586008 0 106.94149564 0 1227.98725634 0 27345
0.15850000 0.15849900 9302.67943218 0 117.79957098 0 2761.68140092 0 -35.27720193 0 970.91112593 0 26980
0.15950000 0.15949700 9204.33504314 0 132.77710476 0 2729.15091060 0 152.66078567 0 1153.92447562 0 27777
0.16050000 0.16050000 9304.66137832 0 -70.15203559 0 2713.77145143 0 100.07333256 0 1009.88681652 0 28224
0.16150000 0.16150500 9251.42564060 0 -118.61670855 0 2517.37055379 0 178.75604080 0 792.61790831 0 28075
0.16250000 0.16249700 9401.67708838 0 -21.72622648 0 2503.41942452 0 -78.15411546 0 542.24053441 0 28590
0.16350000 0.16349900 9277.91064156 0 228.75090906 0 2431.12821578 0 -148.68471383 0 228.98896404 0 29163
0.16450000 0.16449100 9178.91298536 0 308.33988708 0 2675.01831456 0 -239.44456037 0 321.83040764 0 28996
0.16550000 0.16550500 8777.27547489 0 299.64811210 0 2575.37846352 0 48.05743286 0 729.54108828 0 30777
0.16650000 0.16650700 8713.81998135 0 116.80084728 0 2567.76070404 0 460.22782448 0 732.24162830 0 29211
0.16750000 0.16749900 8583.80874333 0 -3.58029159 0 2375.77766401 0 380.12287612 0 639.57955636 0 30922
0.16850000 0.16850800 8512.18187408 0 161.62272538 0 2266.49381805 0 376.34721335 0 491.22147611 0 30867
0.16950000 0.16949900 8318.23903256 0 210.27341340 0 2067.39127316 0 80.44940839 0 386.68544304 0 30852
0.17050000 0.17049200 8244.43091531 0 72.79743543 0 2057.32652990 0 -219.79229105 0 611.29087368 0 31257
0.17150000 0.17149500 8220.81364648 0 60.00989678 0 2237.06357868 0 -181.38239625 0 364.72348676 0 32608
0.17250000 0.17250900 8104.57638053 0 32.15668863 0 1943.44766914 0 37.65210489 0 365.15641466 0 32361
0.17350000 0.17350400 8227.51240299 0 37.99933299 0 2177.70484533 0 105.96314502 0 438.74529987 0 32508
0.17450000 0.17449800 8175.17352357 0 -19.05480667 0 1944.90921602 0 16.75951374 0 65.61094301 0 32791
0.17550000 0.17549800 8135.01420146 0 164.01877647 0 2167.58474045 0 198.02188599 0 382.61747090 0 33633
0.17650000 0.17650100 7935.45769125 0 159.35511325 0 1950.85505445 0 200.10680475 0 428.92082606 0 33984
0.17750000 0.17750300 7985.17242969 0 9.32270927 0 2055.34458376 0 183.25915531 0 259.62608681 0 34069
