### header ###
fiducial parameters:
Omega_m = 0.31
Omega_nu = 0
Omega_de = 0.69
Omega_k = 0
H_0 = 100
w_de = -1
zeff = 0
beta = 0
fgrowth = 0
b_1 = 2
gamma = 0.55
Lx = 3500 Ly = 3500 Lz = 3500
nx = 700 ny = 700 nz = 700
xoffset = -685.467585 yoffset = -31.7331281 zoffset = 572.489161
bins = 400 dk = 0.001
kx_ny = 0.628318531 ky_ny = 0.628318531 kz_ny = 0.628318531
############################
A(data) = 7.99814346 (not used)
A(ran) = 7.99704633 (used)
Ngal = 475605
weighted Ngal = 0
Nran = 23820508
weighted Nran = 0
SN(data) = 3484.86221
SN(ran) = 69.6571738
SN(data+ran) = 3554.51938
############################
13 columns: k_central k_mean P_0(k) sigma^{lin}_{P_0(k)} P^img_1(k) sigma^{lin}_{P_1(k)} P_2(k) sigma^{lin}_{P_2(k)} P^img_3(k) sigma^{lin}_{P_3(k)} P_4(k) sigma^{lin}_{P_4(k)} N_modes
### header ###
0.00050000 0 0 0 0 0 0 0 0 0 0 0 0
0.00150000 0.00179520 69113.34079474 0 -53260.09684265 0 -22920.81960708 0 69266.13887724 0 -75739.24141272 0 3
0.00250000 0.00253879 111668.82472598 0 -32883.14386266 0 17356.31204622 0 -23923.52934266 0 103766.50650291 0 6
0.00350000 0.00331552 122979.20452822 0 -2086.35816558 0 41314.49776556 0 -168829.70160224 0 47247.60301963 0 7
0.00450000 0.00420575 103047.58045243 0 37864.02918232 0 51686.71948592 0 -38457.28434611 0 91782.48645869 0 24
0.00550000 0.00557378 85748.18015578 0 13079.73730827 0 68891.00851238 0 33810.22961972 0 21343.78838316 0 45
0.00650000 0.00659388 91865.86106458 0 -26428.86427937 0 51562.59872471 0 129153.13284710 0 30369.94757532 0 40
0.00750000 0.00754703 105722.54340537 0 -11897.32374088 0 47745.19329698 0 61238.26049073 0 -35294.47476166 0 57
0.00850000 0.00846663 120365.02863854 0 -11809.18803533 0 8428.02113313 0 13589.17497317 0 -2193.89258422 0 75
0.00950000 0.00948925 127068.21408375 0 1021.85267796 0 39863.13742833 0 3621.63565261 0 -2515.74292204 0 112
0.01050000 0.01054430 97384.19703094 0 14310.31548861 0 12161.50941106 0 -21898.84402632 0 18630.95807934 0 105
0.01150000 0.01145670 103248.65387114 0 12845.22546861 0 21048.71092674 0 9789.27489099 0 15191.56182093 0 144
0.01250000 0.01249090 87322.77546824 0 5984.01580359 0 20631.06283458 0 2449.14288826 0 -19839.28088680 0 169
0.01350000 0.01339930 87976.48552553 0 7625.24436681 0 12142.68645886 0 5815.28464568 0 -12494.67566485 0 180
0.01450000 0.01448870 74935.94424712 0 11650.63234392 0 9082.89378453 0 -6525.19782375 0 -13505.35747430 0 267
0.01550000 0.01550050 68652.62135904 0 5595.29969618 0 19620.49174839 0 -5165.93708436 0 949.74637704 0 238
0.01650000 0.01653350 68944.82001100 0 -2471.24324860 0 14105.14530972 0 2631.06118503 0 -5528.72180705 0 315
0.01750000 0.01747870 66405.71448359 0 -3103.81623781 0 17861.32078120 0 9375.74570366 0 5471.25644124 0 297
0.01850000 0.01844180 72673.31467043 0 -3528.41774996 0 28569.80900630 0 595.66893059 0 -6121.52300551 0 388
0.01950000 0.01947590 80958.73533223 0 -4250.68764253 0 27626.77910150 0 -5181.89230443 0 9237.07590763 0 399
0.02050000 0.02045430 84403.22486006 0 1636.61140377 0 37048.77390593 0 -5878.49654807 0 10196.32676829 0 462
0.02150000 0.02154770 86027.97780395 0 5004.02647854 0 54833.58492263 0 -564.33757305 0 14621.44781602 0 571
0.02250000 0.02255340 80631.54813384 0 3439.09730565 0 55718.70656863 0 547.82762952 0 12712.46829403 0 510
0.02350000 0.02348930 80870.26745693 0 5570.18766349 0 51738.20579633 0 9449.29915743 0 6420.63078816 0 555
0.02450000 0.02439640 73383.93647729 0 3963.61547695 0 51499.26502674 0 8779.14669778 0 4362.10844718 0 592
0.02550000 0.02547300 73284.83917017 0 3274.42969094 0 44661.10794200 0 12315.30400279 0 -468.14010780 0 837
0.02650000 0.02652900 68946.25941323 0 2245.44532857 0 35316.17651831 0 5984.18188846 0 379.15404769 0 723
0.02750000 0.02749970 65680.69865447 0 3813.78477751 0 33824.84508848 0 2794.22296356 0 -2612.95793395 0 826
0.02850000 0.02848090 63058.88286066 0 664.58861643 0 33705.37470369 0 6746.50037990 0 6195.55256925 0 831
0.02950000 0.02946900 60079.09880546 0 5147.39094029 0 32848.37676273 0 9255.98743842 0 4159.03093768 0 996
0.03050000 0.03053250 56052.09426892 0 4575.57179736 0 35125.51108493 0 10349.73382866 0 9584.81334089 0 1041
0.03150000 0.03150510 53972.26877499 0 1582.12449334 0 36662.79266275 0 5991.95466048 0 20836.78662971 0 1036
0.03250000 0.03246190 53192.33421476 0 -1458.43555279 0 30350.01739065 0 5252.65553234 0 11638.45278662 0 1059
0.03350000 0.03345080 54884.07472380 0 -4458.34909450 0 32769.98470301 0 4186.44601393 0 19994.51488076 0 1302
0.03450000 0.03451200 60915.05932927 0 -2951.63820551 0 31419.60396813 0 2147.58812182 0 8102.60550671 0 1339
0.03550000 0.03553350 60096.92524842 0 182.82512017 0 30527.61748074 0 -1720.65034914 0 7241.69903509 0 1365
0.03650000 0.03647120 60279.39716143 0 4045.91606733 0 23833.06844889 0 -1051.34160065 0 2706.49693402 0 1308
0.03750000 0.03744890 54907.99094541 0 3971.54326153 0 21829.08837996 0 326.20951211 0 4845.09432809 0 1579
0.03850000 0.03847530 51506.12986813 0 4936.38564622 0 19523.05528998 0 5874.56587276 0 -1927.04955609 0 1662
0.03950000 0.03950240 46216.43740927 0 3804.20721654 0 19799.42051746 0 5322.36688940 0 -6813.85333177 0 1683
0.04050000 0.04050350 44350.97212383 0 2799.43802855 0 17346.12550739 0 522.67241476 0 -3050.90159750 0 1822
0.04150000 0.04152450 42293.29127953 0 -118.86915756 0 18750.53918738 0 -1796.79472692 0 -3681.20476013 0 1887
0.04250000 0.04250150 43017.64276916 0 -182.65903530 0 19543.31764440 0 -1105.39558318 0 1499.32564834 0 1920
0.04350000 0.04349210 43377.60404902 0 367.09960766 0 21895.07943588 0 966.23417593 0 -110.68715241 0 2005
0.04450000 0.04448520 44830.62523497 0 -48.60163762 0 22496.30667353 0 219.89747813 0 1139.98441868 0 2151
0.04550000 0.04548030 43729.03963876 0 1491.23177890 0 21209.59180636 0 1963.23391359 0 56.50727754 0 2274
0.04650000 0.04648670 43447.47041862 0 1703.88684937 0 24326.56196606 0 -2451.54558275 0 2409.09428939 0 2311
0.04750000 0.04749250 41814.85612411 0 738.43659404 0 21862.19463117 0 4235.05351988 0 4475.50012565 0 2568
0.04850000 0.04851840 40269.38102593 0 544.41292454 0 20671.36609692 0 4722.41296910 0 643.85900990 0 2493
0.04950000 0.04949480 39574.81409005 0 1572.09296705 0 19297.29058693 0 1566.75610649 0 2609.95733393 0 2644
0.05050000 0.05050630 39563.40959549 0 1582.63382028 0 20933.44802538 0 2005.84021950 0 435.87978221 0 2829
0.05150000 0.05149060 36324.86530928 0 849.32924879 0 18360.46118402 0 1293.15896022 0 7979.09372336 0 2784
0.05250000 0.05249300 37641.47545347 0 853.76925105 0 19145.37829042 0 2665.03107757 0 2848.23376402 0 3055
0.05350000 0.05348950 36532.58212288 0 -141.34597694 0 16142.89596935 0 2143.10383027 0 3374.87782170 0 3009
0.05450000 0.05448610 36359.85385571 0 575.51729942 0 16327.58234732 0 2258.96463718 0 2599.02894933 0 3336
0.05550000 0.05550870 36645.96272903 0 120.12365196 0 15047.84304478 0 2606.93458925 0 1059.47643769 0 3349
0.05650000 0.05647670 34962.96935659 0 96.45212873 0 13149.93584762 0 2584.98924146 0 -1154.66632139 0 3324
0.05750000 0.05747970 35296.24633363 0 7.43280736 0 12989.16569125 0 -160.53653031 0 -1035.62554280 0 3639
0.05850000 0.05849280 34884.46657363 0 463.03687329 0 11709.42638871 0 355.44487856 0 -3025.40203345 0 3846
0.05950000 0.05951020 34284.56801495 0 885.41395538 0 11194.56328464 0 3254.34449372 0 -417.55729910 0 3787
0.06050000 0.06049470 33179.32855156 0 476.52960831 0 9134.20293774 0 1759.97924690 0 1663.35106821 0 3930
0.06150000 0.06148310 33230.81486196 0 156.32904688 0 7773.96783377 0 2129.18591798 0 -594.85732918 0 4083
0.06250000 0.06249100 33333.56603628 0 705.52189405 0 9019.31649542 0 880.11363349 0 -924.68638428 0 4303
0.06350000 0.06350600 31693.53328414 0 2150.35620303 0 10796.23639929 0 -1466.39655433 0 1844.68253176 0 4470
0.06450000 0.06451750 30407.59347970 0 1940.85674514 0 10951.23787443 0 -1444.82766559 0 3375.77468001 0 4479
0.06550000 0.06550280 29899.37377053 0 220.55628146 0 13415.11802702 0 -2550.32179245 0 3734.30762996 0 4636
0.06650000 0.06648880 30055.93644346 0 639.17320204 0 14297.80376157 0 167.35708240 0 4363.94645310 0 4653
0.06750000 0.06749660 30318.23981842 0 -83.80387992 0 16255.39078950 0 -156.06552555 0 4723.16588719 0 5220
0.06850000 0.06852730 29678.03799740 0 129.28489351 0 15556.94853994 0 1351.44367806 0 6112.01187849 0 5029
0.06950000 0.06949320 30074.98084215 0 977.87451101 0 17120.36080434 0 1509.06929418 0 5773.81878923 0 5040
0.07050000 0.07048030 29599.53521444 0 -50.29260307 0 16189.62118008 0 816.10120201 0 4888.76357718 0 5475
0.07150000 0.07148790 29466.66731662 0 165.68183966 0 15401.38237624 0 1865.60922567 0 4844.14210816 0 5509
0.07250000 0.07249820 29921.29697367 0 -11.39818334 0 15315.46113565 0 -783.95602860 0 3558.34624394 0 5916
0.07350000 0.07351270 29221.52604513 0 286.51744210 0 14224.94786426 0 1096.42257114 0 2517.59200029 0 5721
0.07450000 0.07449140 28840.97024111 0 395.51340761 0 13285.12893365 0 1583.20958117 0 2738.35201252 0 6028
0.07550000 0.07549160 28142.19582181 0 1326.59738117 0 11841.85139354 0 2153.33465841 0 2083.25791463 0 6183
0.07650000 0.07648840 26674.44844385 0 1129.02281711 0 10603.54473047 0 1484.43337146 0 2521.51160328 0 6330
0.07750000 0.07749960 26018.30247510 0 603.41402180 0 11331.63866590 0 2766.70823638 0 3606.85409897 0 6583
0.07850000 0.07848650 24976.17526317 0 652.46663522 0 10084.79524040 0 1063.25985108 0 3442.03147172 0 6549
0.07950000 0.07947320 24405.39691876 0 840.66294016 0 10275.64890330 0 -287.42094380 0 3207.16531767 0 6828
0.08050000 0.08048110 23903.15626499 0 644.50341921 0 10898.20143855 0 -789.82768245 0 3770.92380814 0 7147
0.08150000 0.08149960 23979.22313649 0 182.71550416 0 10914.58847928 0 -1736.35090574 0 2555.13825375 0 7386
0.08250000 0.08250610 23983.43061993 0 -58.58344917 0 11100.55924693 0 186.79344139 0 3986.19194726 0 7227
0.08350000 0.08350160 24191.92249626 0 -410.93715609 0 9618.09674929 0 1947.97624999 0 189.51391160 0 7798
0.08450000 0.08449610 24134.12496071 0 -347.78504425 0 8815.12068112 0 2569.34404649 0 94.16502931 0 7371
0.08550000 0.08548940 23925.19019138 0 398.14640646 0 7105.35442727 0 1657.90348440 0 -647.10763000 0 8256
0.08650000 0.08650700 23310.89761044 0 613.07905414 0 6026.17921650 0 1534.82352171 0 -727.08856833 0 8037
0.08750000 0.08749060 22767.46790834 0 822.97490126 0 6009.70359717 0 -303.23997427 0 366.56370714 0 8155
0.08850000 0.08849210 22181.18830919 0 812.60566907 0 6694.30544070 0 -77.96245351 0 -623.51250581 0 8718
0.08950000 0.08949900 21639.19800932 0 790.08345315 0 6803.58928666 0 -1630.28910630 0 876.52730748 0 8571
0.09050000 0.09049190 20944.29890370 0 915.52514272 0 8093.16081364 0 -407.54791746 0 610.30211507 0 8932
0.09150000 0.09150830 20518.01439819 0 380.36314557 0 8841.76069463 0 -257.25993100 0 636.88455250 0 9285
0.09250000 0.09250820 20245.30303790 0 81.85991185 0 8364.07845730 0 350.35050191 0 767.92994566 0 9204
0.09350000 0.09350330 20329.67415302 0 385.81405107 0 9274.63323342 0 621.12420535 0 456.53631139 0 9349
0.09450000 0.09448040 19499.36051487 0 566.68822761 0 9109.37878550 0 307.83609631 0 832.19704060 0 9564
0.09550000 0.09549270 19378.22928135 0 715.44380432 0 8896.22546041 0 540.25526657 0 821.87099048 0 10155
0.09650000 0.09649430 18839.22850918 0 441.95405960 0 8772.47008592 0 387.91114939 0 1837.24192948 0 9913
0.09750000 0.09749140 18042.13184549 0 743.63172884 0 8163.18219580 0 586.52651199 0 1381.82613737 0 10476
0.09850000 0.09850240 17749.37957728 0 326.31912813 0 8120.81948104 0 981.02015849 0 1164.96358347 0 10575
0.09950000 0.09950330 17519.73956054 0 166.72263819 0 7886.25227976 0 244.07389937 0 1422.69408827 0 10882
0.10050000 0.10051200 17231.85911526 0 90.14411456 0 7673.67471556 0 561.59163650 0 874.79559588 0 10875
0.10150000 0.10150300 17297.40727819 0 4.91654404 0 7499.92779451 0 224.93317146 0 776.31723171 0 11118
0.10250000 0.10250800 17205.50698219 0 157.51489287 0 7511.42086767 0 -153.13911010 0 802.32944440 0 11575
0.10350000 0.10349800 17140.29098901 0 414.36514785 0 7521.15344119 0 272.50209334 0 1370.24448561 0 11364
0.10450000 0.10450100 16702.49126568 0 397.29162298 0 7106.72739555 0 311.19433242 0 726.55045334 0 12093
0.10550000 0.10551000 16572.05927932 0 384.21852907 0 6749.21309948 0 497.62349432 0 460.93202434 0 12067
0.10650000 0.10649700 16056.31038926 0 293.10326090 0 6494.83750910 0 539.81790974 0 495.69469534 0 12054
0.10750000 0.10749900 15929.97516308 0 317.09809602 0 6150.20032679 0 686.05231809 0 893.29745065 0 12807
0.10850000 0.10850100 15712.95759664 0 -151.20588219 0 5414.64364444 0 1014.61580645 0 410.77217845 0 12736
0.10950000 0.10950300 15318.78283309 0 156.00352053 0 4998.35744823 0 880.00512470 0 -9.96985344 0 12933
0.11050000 0.11050200 15341.37037572 0 294.24703206 0 4602.42218504 0 1111.43996530 0 213.50542501 0 13428
0.11150000 0.11150900 14845.44094710 0 266.03917735 0 4146.31990879 0 378.65579308 0 769.42249504 0 13453
0.11250000 0.11250000 14988.27393726 0 -53.08338254 0 4038.77441782 0 208.24274903 0 707.76293259 0 13668
0.11350000 0.11349100 15032.00962029 0 -191.81141900 0 4248.30709269 0 218.37060454 0 643.19024148 0 13791
0.11450000 0.11448600 14827.17161115 0 218.65627052 0 4303.67978911 0 -176.80620440 0 953.57740143 0 14205
0.11550000 0.11549300 14973.87991499 0 275.10519691 0 4727.41765992 0 -302.56124076 0 651.28300369 0 14776
0.11650000 0.11649800 14727.63141103 0 349.49350397 0 5057.61653066 0 -314.35105223 0 751.25502448 0 14553
0.11750000 0.11747300 14595.53857594 0 293.77645825 0 4708.99331142 0 -251.04060615 0 916.85935786 0 14568
0.11850000 0.11849100 14372.87412384 0 201.61264093 0 5009.31904980 0 430.72340054 0 1367.95251437 0 16015
0.11950000 0.11950300 14247.31396039 0 185.89769031 0 4844.31926535 0 120.87989174 0 504.80832590 0 15270
0.12050000 0.12050700 13996.19363351 0 305.62606027 0 4743.24001209 0 455.54201662 0 827.15359665 0 15999
0.12150000 0.12150000 13743.52318114 0 216.11074304 0 4638.14150491 0 560.02490254 0 1111.06350625 0 15670
0.12250000 0.12250700 13673.43536504 0 33.87278825 0 4681.85504329 0 189.88483448 0 1165.21824694 0 16887
0.12350000 0.12352200 13854.46787583 0 -355.42827007 0 4741.43522314 0 615.04217733 0 1152.91689407 0 16407
0.12450000 0.12449800 13850.03894590 0 80.26959384 0 4825.14199877 0 119.40284361 0 736.49340103 0 16306
0.12550000 0.12549900 13882.14868787 0 313.69778506 0 4540.04070701 0 -29.31597298 0 1086.65124449 0 17523
0.12650000 0.12650100 13576.99541587 0 182.84062143 0 4625.67406716 0 156.45084245 0 1759.93495760 0 17154
0.12750000 0.12750600 13468.92952564 0 248.68552266 0 4762.62765284 0 -178.11163150 0 1175.10583300 0 18007
0.12850000 0.12850300 13346.80178289 0 212.28636205 0 4876.66152615 0 91.69711883 0 1601.00280715 0 17496
0.12950000 0.12949900 12992.48738870 0 360.54589860 0 5104.30852442 0 -164.01656200 0 1002.64883779 0 18405
0.13050000 0.13049000 12870.69181569 0 196.88032930 0 4670.69413987 0 198.95196127 0 1319.45573166 0 18100
0.13150000 0.13148800 12703.72115743 0 144.83265202 0 4663.10959737 0 -172.86334953 0 756.99381043 0 19059
0.13250000 0.13249300 12629.09368815 0 148.40347678 0 4502.10692218 0 7.18637063 0 370.00941463 0 18957
0.13350000 0.13349100 12535.08965044 0 -36.89885463 0 4361.11193794 0 409.20765895 0 150.39981694 0 19468
0.13450000 0.13450700 12438.76042452 0 -12.93092526 0 3764.33577487 0 760.72961283 0 524.49270496 0 19953
0.13550000 0.13551000 12390.04219531 0 -42.56179516 0 3462.02809035 0 887.80779200 0 -604.69508979 0 19956
0.13650000 0.13649900 12282.64064457 0 206.37816953 0 3185.51892265 0 491.84816970 0 -131.48053552 0 19723
0.13750000 0.13749600 11994.09585980 0 553.39922337 0 3139.22553258 0 -55.86142884 0 -23.04748700 0 20946
0.13850000 0.13851100 11567.81135428 0 387.21470016 0 3177.84580155 0 -611.96296380 0 158.15598048 0 20955
0.13950000 0.13949800 11382.79280656 0 382.74701710 0 3645.66259746 0 -341.20476161 0 491.70976564 0 20506
0.14050000 0.14048300 11199.98872381 0 55.79787369 0 4001.40532156 0 -424.13536727 0 281.78180877 0 21447
0.14150000 0.14148400 11259.11493834 0 60.93831121 0 4192.38078003 0 -97.33481446 0 600.04360613 0 21771
0.14250000 0.14249400 11178.84058340 0 170.24917364 0 4241.89621662 0 73.32791051 0 136.00690191 0 22470
0.14350000 0.14350900 11055.42845097 0 299.58610708 0 4080.11847870 0 29.82518919 0 -116.17415369 0 22519
0.14450000 0.14449900 10927.47666537 0 114.25089087 0 4157.63582475 0 237.41832492 0 454.95075447 0 22218
0.14550000 0.14550500 10712.75107016 0 20.93300513 0 4020.49400955 0 721.66423640 0 641.09757209 0 23559
0.14650000 0.14650700 10777.76776150 0 -23.13440475 0 3354.22793591 0 903.35555051 0 637.79137590 0 23044
0.14750000 0.14750500 10657.62196489 0 -16.15485408 0 3176.41747165 0 840.06946355 0 455.86311404 0 23649
0.14850000 0.14849900 10606.73356002 0 164.57349994 0 2915.38741405 0 339.64799274 0 1001.63682730 0 23640
0.14950000 0.14949500 10474.91753306 0 249.55470016 0 2731.63111136 0 228.77526817 0 753.15392819 0 24457
0.15050000 0.15050000 10270.47812760 0 232.95728525 0 2658.83057568 0 -158.01757642 0 876.17410032 0 24591
0.15150000 0.15149900 10069.89189119 0 99.05357144 0 2669.27177798 0 -307.54489416 0 673.58488034 0 25020
0.15250000 0.15250500 10043.47332417 0 117.96676308 0 3006.84481705 0 -41.57713331 0 447.14033655 0 25297
0.15350000 0.15350100 9913.60602637 0 128.14555129 0 2800.23523593 0 -159.24439001 0 251.06607250 0 25452
0.15450000 0.15450400 9775.82201633 0 196.54373062 0 2924.51100970 0 -20.14587356 0 -128.38028457 0 26061
0.15550000 0.15549900 9577.25094303 0 232.67494097 0 2756.16738316 0 120.10482901 0 157.79723715 0 26128
0.15650000 0.15649500 9509.51045979 0 253.59166979 0 3026.03315596 0 152.48916463 0 92.32259446 0 26331
0.15750000 0.15749700 9220.64457760 0 159.62527798 0 2581.47931449 0 264.61749084 0 199.37381685 0 27345
0.15850000 0.15849900 9243.49785603 0 52.84676696 0 2816.19045600 0 188.30592096 0 -30.91692042 0 26980
0.15950000 0.15949700 9184.54879869 0 44.09796950 0 2488.37213509 0 34.97824916 0 370.83873176 0 27777
0.16050000 0.16050000 9178.73582816 0 28.69071879 0 2550.89755334 0 293.85950069 0 130.42202127 0 28224
0.16150000 0.16150500 9074.77777044 0 21.06808750 0 2295.10470538 0 153.29301542 0 552.45364683 0 28075
0.16250000 0.16249700 9057.30564188 0 15.43017042 0 2252.65341203 0 178.61985121 0 -132.37517937 0 28590
0.16350000 0.16349900 8971.65013708 0 91.65161158 0 2185.92051035 0 19.03764457 0 98.87043519 0 29163
0.16450000 0.16449100 8938.20064380 0 187.79880848 0 2030.83045661 0 -3.84942659 0 -173.43689596 0 28996
0.16550000 0.16550500 8730.98208482 0 109.42081062 0 1992.18804299 0 -106.46483206 0 82.11446460 0 30777
0.16650000 0.16650700 8743.93670486 0 90.21663828 0 1920.74940327 0 184.52250757 0 21.50898747 0 29211
0.16750000 0.16749900 8709.75643814 0 -2.00460012 0 1895.74809382 0 240.56618687 0 -16.81232873 0 30922
0.16850000 0.16850800 8632.75949135 0 121.65384725 0 2007.42356195 0 107.86880285 0 69.76007529 0 30867
0.16950000 0.16949900 8640.87550545 0 162.04125926 0 1948.76238506 0 80.71680503 0 90.44661047 0 30852
0.17050000 0.17049200 8385.42589956 0 231.04952369 0 2245.34567765 0 -263.90332589 0 477.18066101 0 31257
0.17150000 0.17149500 8338.35744675 0 203.79942508 0 2312.78720812 0 -72.86907337 0 663.65300498 0 32608
0.17250000 0.17250900 8245.25026735 0 73.05420264 0 2571.18205241 0 -259.38692460 0 586.77896100 0 32361
0.17350000 0.17350400 8243.05794704 0 193.89744499 0 2673.93322673 0 -206.10800480 0 482.18756629 0 32508
0.17450000 0.17449800 8018.37833182 0 198.90213581 0 2882.14829494 0 -68.09346896 0 663.02963309 0 32791
0.17550000 0.17549800 7984.88454924 0 141.18653546 0 2712.91888242 0 56.62497636 0 390.61279665 0 33633
0.17650000 0.17650100 7825.89703717 0 62.12670383 0 2688.90300988 0 201.35133406 0 296.02635465 0 33984
0.17750000 0.17750300 7806.69762593 0 -28.08816288 0 2515.46611392 0 105.63296830 0 378.88277574 0 34069
0.17850000 0.17849800 7838.84058488 0 26.75870884 0 2391.75502873 0 352.33023359 0 240.64147868 0 34536
