### header ###
fiducial parameters:
Omega_m = 0.31
Omega_nu = 0
Omega_de = 0.69
Omega_k = 0
H_0 = 100
w_de = -1
zeff = 0
beta = 0
fgrowth = 0
b_1 = 2
gamma = 0.55
Lx = 3500 Ly = 3500 Lz = 3500
nx = 700 ny = 700 nz = 700
xoffset = -685.467585 yoffset = -31.7331281 zoffset = 572.489161
bins = 400 dk = 0.001
kx_ny = 0.628318531 ky_ny = 0.628318531 kz_ny = 0.628318531
############################
A(data) = 8.01325859 (not used)
A(ran) = 8.01128501 (used)
Ngal = 476355
weighted Ngal = 0
Nran = 23820508
weighted Nran = 0
SN(data) = 3490.17833
SN(ran) = 69.7811979
SN(data+ran) = 3559.95953
############################
13 columns: k_central k_mean P_0(k) sigma^{lin}_{P_0(k)} P^img_1(k) sigma^{lin}_{P_1(k)} P_2(k) sigma^{lin}_{P_2(k)} P^img_3(k) sigma^{lin}_{P_3(k)} P_4(k) sigma^{lin}_{P_4(k)} N_modes
### header ###
0.00050000 0 0 0 0 0 0 0 0 0 0 0 0
0.00150000 0.00179520 11701.01142185 0 -27080.35987170 0 -3153.28738510 0 -50177.22944340 0 -18785.63845706 0 3
0.00250000 0.00253879 17573.32961267 0 -19161.32243816 0 -2007.82216564 0 -406.36871487 0 16569.84481435 0 6
0.00350000 0.00331552 34374.03239949 0 -12892.28284909 0 16070.70441153 0 -33441.74264976 0 -6101.81426733 0 7
0.00450000 0.00420575 47482.44702903 0 -10874.44022949 0 22422.34354374 0 -65180.89391215 0 8772.73582171 0 24
0.00550000 0.00557378 63148.01507545 0 -14004.60860037 0 41301.10025253 0 -50659.65063575 0 14291.27108992 0 45
0.00650000 0.00659388 62461.08804370 0 -4783.53220210 0 50881.65074836 0 -20667.38005999 0 10800.87570339 0 40
0.00750000 0.00754703 88501.75661493 0 -2493.81971890 0 71328.13792822 0 -3020.53021053 0 -46651.91194439 0 57
0.00850000 0.00846663 91059.57437128 0 1468.78817649 0 48933.47519652 0 3947.21736390 0 -31871.24409748 0 75
0.00950000 0.00948925 76214.13342419 0 24044.54985292 0 11434.27911697 0 12837.25339474 0 -11468.27115416 0 112
0.01050000 0.01054430 72897.41852476 0 -9565.24854293 0 4492.33005937 0 10571.08067411 0 -60234.33279942 0 105
0.01150000 0.01145670 83651.52472812 0 -17844.60157072 0 -5221.77481842 0 3959.23083633 0 -41347.16112377 0 144
0.01250000 0.01249090 85734.33974976 0 -596.70197850 0 -6170.49589818 0 -17339.26066600 0 -42767.18678177 0 169
0.01350000 0.01339930 89134.98287131 0 8452.66812818 0 -10874.39594019 0 -25293.61881572 0 -23469.78547159 0 180
0.01450000 0.01448870 84355.28169359 0 5587.07295884 0 13382.12249906 0 -23268.71205288 0 -27602.08781716 0 267
0.01550000 0.01550050 80538.87277510 0 4748.49936637 0 27042.71396732 0 -15406.47564566 0 -6735.83773110 0 238
0.01650000 0.01653350 80048.92240188 0 7159.96313328 0 41357.12621611 0 6870.95331086 0 -8145.85400745 0 315
0.01750000 0.01747870 76585.38847536 0 -551.03860371 0 53836.18990297 0 -619.17104725 0 813.96867225 0 297
0.01850000 0.01844180 75466.53005243 0 3813.45260776 0 39961.23822622 0 26248.49610808 0 8696.50286533 0 388
0.01950000 0.01947590 80406.11560053 0 1448.03863978 0 47438.48989950 0 20293.68909736 0 9338.35446275 0 399
0.02050000 0.02045430 76628.90271189 0 378.74104998 0 43369.63197515 0 13475.35147404 0 4905.60458323 0 462
0.02150000 0.02154770 72970.60659181 0 4073.79618123 0 29834.60067034 0 8548.59875041 0 9492.55873050 0 571
0.02250000 0.02255340 71479.93950148 0 3765.58694757 0 25948.10393575 0 8699.19344027 0 7958.43276525 0 510
0.02350000 0.02348930 66726.03684059 0 307.88813623 0 18330.12301402 0 4323.88678190 0 3143.06762929 0 555
0.02450000 0.02439640 66513.22675758 0 5649.13333945 0 13831.54816345 0 10898.33430645 0 -8161.52134707 0 592
0.02550000 0.02547300 60294.67696968 0 1331.42491479 0 8176.93402322 0 7571.78718258 0 -4655.90151392 0 837
0.02650000 0.02652900 59436.01818000 0 -1044.73695889 0 3505.80806268 0 4192.43614166 0 -12481.38887507 0 723
0.02750000 0.02749970 59157.32776431 0 312.02032785 0 4401.96881653 0 2127.93474527 0 -13394.85567261 0 826
0.02850000 0.02848090 61641.84673037 0 -1850.39585137 0 3842.61711134 0 -9221.41964034 0 -19208.15837214 0 831
0.02950000 0.02946900 62021.29530190 0 387.09401182 0 3258.44125390 0 -12466.10906682 0 -20288.04221170 0 996
0.03050000 0.03053250 61271.69891168 0 622.89467009 0 10614.90493574 0 -12919.74221464 0 -20750.09032638 0 1041
0.03150000 0.03150510 61258.52284515 0 1602.38684775 0 9245.72339331 0 -3402.02716215 0 -18660.18901686 0 1036
0.03250000 0.03246190 61641.73600712 0 648.26690241 0 14774.68879151 0 -34.31136304 0 -22066.03613108 0 1059
0.03350000 0.03345080 57980.00746635 0 3112.50801280 0 10119.72842520 0 6311.04798943 0 -18852.29385247 0 1302
0.03450000 0.03451200 55218.56965657 0 3174.62375503 0 12871.02398544 0 10835.76459890 0 -10114.45799859 0 1339
0.03550000 0.03553350 52684.55739858 0 772.54489064 0 10394.21135745 0 6991.29840931 0 -1757.26652732 0 1365
0.03650000 0.03647120 51208.28433051 0 3206.09130216 0 12539.85075011 0 4127.51910125 0 -1734.82292491 0 1308
0.03750000 0.03744890 50856.51657102 0 1682.76085361 0 14270.01222627 0 -785.84164552 0 6964.08263491 0 1579
0.03850000 0.03847530 47750.50801289 0 2160.97456253 0 18861.70532856 0 -5638.68106482 0 13433.05519323 0 1662
0.03950000 0.03950240 50696.63220064 0 469.85963984 0 28183.49559338 0 -2994.42166860 0 13527.83429368 0 1683
0.04050000 0.04050350 48273.78608382 0 257.41605078 0 25680.92873787 0 2482.08305460 0 7804.19528053 0 1822
0.04150000 0.04152450 49521.63709088 0 2398.98525683 0 27937.24708942 0 2467.91047883 0 12032.07393393 0 1887
0.04250000 0.04250150 47278.38408263 0 854.83773039 0 19515.63683235 0 4162.76231114 0 5886.69006843 0 1920
0.04350000 0.04349210 46606.73685913 0 -201.55506484 0 20973.86201097 0 3795.77010503 0 3308.87569345 0 2005
0.04450000 0.04448520 45661.71393586 0 525.48367803 0 14565.86474543 0 4238.56344685 0 -1763.44488457 0 2151
0.04550000 0.04548030 44965.26470476 0 2901.14840433 0 16712.67780451 0 1031.56421405 0 -2071.11157430 0 2274
0.04650000 0.04648670 40201.72912129 0 4381.41858166 0 13487.86320108 0 -1582.06913171 0 -1317.99418479 0 2311
0.04750000 0.04749250 37593.20011726 0 2915.96317494 0 14169.47551692 0 -663.81466092 0 -759.15844994 0 2568
0.04850000 0.04851840 36564.91331135 0 669.92658422 0 14501.42381498 0 1177.35351494 0 2401.46545759 0 2493
0.04950000 0.04949480 37487.23796875 0 90.92360622 0 18040.91388976 0 -734.15824773 0 2161.76069759 0 2644
0.05050000 0.05050630 36631.23653702 0 -475.58513901 0 17388.08961845 0 876.21838962 0 5011.28992362 0 2829
0.05150000 0.05149060 37318.93863150 0 192.62634210 0 20825.82502814 0 907.98267506 0 5687.63181284 0 2784
0.05250000 0.05249300 37685.10041326 0 1479.87157364 0 20764.26290215 0 -237.35964160 0 4944.49058799 0 3055
0.05350000 0.05348950 35397.00448948 0 2033.08921088 0 19832.41604541 0 2103.01094210 0 7670.59660926 0 3009
0.05450000 0.05448610 35153.96695971 0 374.66200552 0 18878.75670878 0 2833.69580154 0 5701.98154581 0 3336
0.05550000 0.05550870 34907.60773250 0 -1193.33087965 0 17935.83752723 0 4249.93472444 0 5133.40659404 0 3349
0.05650000 0.05647670 35747.33284674 0 -914.49541651 0 16533.19541920 0 3457.92025784 0 2500.20845032 0 3324
0.05750000 0.05747970 34972.27010944 0 511.53144153 0 13276.82469004 0 3121.42123427 0 1537.66910919 0 3639
0.05850000 0.05849280 35060.62726149 0 440.39396903 0 11683.96004163 0 1545.56367679 0 1954.91859766 0 3846
0.05950000 0.05951020 34304.94109262 0 666.07673688 0 11309.82618601 0 -563.71309393 0 426.54691962 0 3787
0.06050000 0.06049470 33834.47801107 0 1205.92011297 0 10261.88600355 0 -1155.59639667 0 1409.25228594 0 3930
0.06150000 0.06148310 33196.37993178 0 1089.68727596 0 12900.47636945 0 -2541.25355843 0 1067.05987296 0 4083
0.06250000 0.06249100 32844.72289554 0 103.05322734 0 11579.65874184 0 1163.45774729 0 465.41077973 0 4303
0.06350000 0.06350600 31863.49347011 0 -135.92496671 0 11912.38210264 0 1621.67483759 0 758.74434499 0 4470
0.06450000 0.06451750 32634.01655424 0 763.37479123 0 10835.48779078 0 1953.52348473 0 -212.09148913 0 4479
0.06550000 0.06550280 31903.24311621 0 244.90321650 0 11740.76106795 0 113.49686555 0 1039.53518069 0 4636
0.06650000 0.06648880 31243.33255702 0 809.21310874 0 11052.98146719 0 73.35858085 0 -240.40895986 0 4653
0.06750000 0.06749660 31574.39506909 0 452.34322198 0 11459.85618730 0 -1054.72530311 0 671.47449523 0 5220
0.06850000 0.06852730 30204.30559603 0 997.99071074 0 13304.17333234 0 772.37326961 0 -242.68432261 0 5029
0.06950000 0.06949320 29628.32325897 0 1862.76363819 0 12922.51029584 0 -162.53065601 0 3651.42020637 0 5040
0.07050000 0.07048030 27868.48795229 0 900.48338946 0 12735.72017615 0 1659.69720102 0 777.96036471 0 5475
0.07150000 0.07148790 27909.34483087 0 -4.34782515 0 11383.67859255 0 2756.33346803 0 1242.48092952 0 5509
0.07250000 0.07249820 27294.60935694 0 105.19328628 0 11261.10795680 0 1479.49511459 0 1431.89519020 0 5916
0.07350000 0.07351270 26824.36772189 0 777.75995563 0 9959.20185998 0 1017.97404257 0 1004.39162172 0 5721
0.07450000 0.07449140 26291.67817487 0 783.32269162 0 10015.84787375 0 -537.33992345 0 1077.33609762 0 6028
0.07550000 0.07549160 25442.20941478 0 240.46985764 0 9232.80199025 0 -181.57173300 0 388.66185302 0 6183
0.07650000 0.07648840 25224.85967859 0 613.08016137 0 9391.61234512 0 844.71208934 0 837.00464404 0 6330
0.07750000 0.07749960 24770.34074479 0 600.24180074 0 9495.83613864 0 774.67963487 0 334.80827956 0 6583
0.07850000 0.07848650 24622.41448521 0 226.20095265 0 9192.29942606 0 1044.09144235 0 848.14561727 0 6549
0.07950000 0.07947320 24209.41676947 0 187.75673365 0 10069.70366167 0 -561.75550691 0 3.60678767 0 6828
0.08050000 0.08048110 24595.06584291 0 443.19637445 0 10885.11395061 0 -625.29072118 0 574.88174798 0 7147
0.08150000 0.08149960 24183.39680615 0 75.36743275 0 10437.70344934 0 -158.98529761 0 1520.03089575 0 7386
0.08250000 0.08250610 23701.30778355 0 -128.31495786 0 10370.88196906 0 698.35699266 0 1185.82384343 0 7227
0.08350000 0.08350160 24597.05886137 0 168.18529230 0 9971.24854938 0 1155.48567342 0 -367.50817645 0 7798
0.08450000 0.08449610 23565.11818828 0 977.53791233 0 9991.09015546 0 889.97686044 0 -914.46552124 0 7371
0.08550000 0.08548940 22919.71237460 0 1231.38646006 0 9331.79964645 0 -71.54438043 0 280.36676566 0 8256
0.08650000 0.08650700 21743.72075561 0 804.80853793 0 9254.06085390 0 727.48938649 0 630.22344189 0 8037
0.08750000 0.08749060 21277.46515750 0 369.50119492 0 8515.08282318 0 1918.71209550 0 695.68634791 0 8155
0.08850000 0.08849210 21214.13145953 0 169.17737260 0 8878.21078793 0 278.17887428 0 -5.62453063 0 8718
0.08950000 0.08949900 20715.76611945 0 622.96110404 0 8448.44957242 0 93.90339028 0 -39.85228655 0 8571
0.09050000 0.09049190 20155.39576037 0 763.26074628 0 8419.37364745 0 -587.97587931 0 508.12891611 0 8932
0.09150000 0.09150830 19920.66247422 0 -133.99948942 0 8452.75670678 0 -369.30853647 0 258.87981212 0 9285
0.09250000 0.09250820 20174.44015906 0 -532.80802090 0 9035.23849851 0 -306.00141208 0 -1599.44160935 0 9204
0.09350000 0.09350330 20131.59026201 0 343.55763064 0 7945.34527731 0 -224.27547536 0 -2423.51045631 0 9349
0.09450000 0.09448040 19977.57422379 0 596.66654706 0 8028.04447138 0 516.81404770 0 -1970.39770775 0 9564
0.09550000 0.09549270 19577.86329783 0 463.05791071 0 7394.28674341 0 730.37926327 0 -1777.66174963 0 10155
0.09650000 0.09649430 18909.53777178 0 291.70593351 0 7192.84793799 0 1095.00642080 0 -1477.30279428 0 9913
0.09750000 0.09749140 18714.77557822 0 513.39048487 0 6894.91382177 0 1572.52478772 0 -1573.29985046 0 10476
0.09850000 0.09850240 18136.68949944 0 357.22420116 0 6612.55846657 0 621.11645472 0 -419.89355963 0 10575
0.09950000 0.09950330 17644.41393800 0 281.77516538 0 5839.32266286 0 1016.29326366 0 766.91572070 0 10882
0.10050000 0.10051200 17690.03191625 0 178.34304309 0 5881.60787134 0 1160.33535169 0 947.83197208 0 10875
0.10150000 0.10150300 17381.77839330 0 261.51723989 0 5488.38532773 0 446.43945839 0 1372.03820223 0 11118
0.10250000 0.10250800 16630.07826137 0 713.10532932 0 5330.59362674 0 286.43550690 0 830.90157860 0 11575
0.10350000 0.10349800 16551.68620165 0 584.26775773 0 5283.93484995 0 -3.15937716 0 1354.37784414 0 11364
0.10450000 0.10450100 15668.33612762 0 176.27473281 0 4183.12431648 0 678.72022459 0 1149.72806452 0 12093
0.10550000 0.10551000 16112.22562960 0 -291.53099078 0 4106.63669664 0 774.68738549 0 331.50761954 0 12067
0.10650000 0.10649700 16111.78273661 0 -8.77310121 0 4020.11755050 0 -52.10337107 0 -189.37882923 0 12054
0.10750000 0.10749900 15848.26140592 0 731.14546814 0 4314.56388441 0 -729.99726806 0 -47.43760411 0 12807
0.10850000 0.10850100 15551.08020779 0 461.42142110 0 4669.23259300 0 -1039.41006342 0 477.42646662 0 12736
0.10950000 0.10950300 15292.76286977 0 167.51098772 0 5617.92045578 0 -106.87362229 0 862.41120057 0 12933
0.11050000 0.11050200 15381.34146832 0 49.46627547 0 5560.95334459 0 264.09487711 0 655.10074129 0 13428
0.11150000 0.11150900 15345.91002890 0 147.03050850 0 5915.82135503 0 750.78555791 0 912.87885709 0 13453
0.11250000 0.11250000 15030.45949482 0 211.49911976 0 5128.16938441 0 808.60745258 0 1166.45834732 0 13668
0.11350000 0.11349100 14960.92529495 0 111.76293949 0 5319.60988052 0 848.35709867 0 1731.75589094 0 13791
0.11450000 0.11448600 14552.46723240 0 281.97557446 0 4943.37228318 0 767.79597053 0 1240.82008080 0 14205
0.11550000 0.11549300 14461.89561538 0 290.88990317 0 4190.91923316 0 534.84975760 0 754.74280680 0 14776
0.11650000 0.11649800 14242.55286072 0 -178.45708803 0 3917.66532896 0 341.00878146 0 1373.02363914 0 14553
0.11750000 0.11747300 14285.51348102 0 97.72002064 0 3879.16685556 0 -135.80649283 0 715.47259236 0 14568
0.11850000 0.11849100 14253.29301580 0 -14.02863555 0 3629.26448441 0 431.53610918 0 1102.09492315 0 16015
0.11950000 0.11950300 13993.09338256 0 415.28082911 0 3360.19591899 0 89.08980779 0 403.74457388 0 15270
0.12050000 0.12050700 13559.83331240 0 494.89305902 0 3491.25902787 0 7.82297394 0 1199.07741624 0 15999
0.12150000 0.12150000 13516.76196886 0 310.41151906 0 3792.49269688 0 -92.65454276 0 717.64387526 0 15670
0.12250000 0.12250700 12950.85544738 0 77.74067485 0 3710.10352791 0 42.77061920 0 873.68393446 0 16887
0.12350000 0.12352200 13337.16886030 0 -34.64253628 0 3746.37646401 0 -635.78617788 0 727.61671822 0 16407
0.12450000 0.12449800 13241.83614361 0 125.03422801 0 3870.64116545 0 -421.89654319 0 402.68052347 0 16306
0.12550000 0.12549900 13208.84061565 0 314.40198492 0 4150.90385126 0 -544.74952322 0 747.48489788 0 17523
0.12650000 0.12650100 12990.16220048 0 409.86203335 0 4536.01038078 0 -463.06455410 0 243.73951516 0 17154
0.12750000 0.12750600 12900.47636945 0 103.30268682 0 4523.90832975 0 166.19559553 0 343.67831898 0 18007
0.12850000 0.12850300 12698.18499502 0 -2.37137088 0 4547.44809232 0 63.23504355 0 -120.76806126 0 17496
0.12950000 0.12949900 12633.74406457 0 207.12555145 0 4480.44945484 0 382.40377503 0 -502.39013016 0 18405
0.13050000 0.13049000 12434.77438758 0 139.23891352 0 4225.36523567 0 131.34213146 0 -440.58773472 0 18100
0.13150000 0.13148800 12141.91139613 0 113.15251625 0 3953.40679347 0 415.48898882 0 -902.19517087 0 19059
0.13250000 0.13249300 12159.73783909 0 106.47512932 0 3694.76835803 0 649.78602538 0 -597.36742522 0 18957
0.13350000 0.13349100 12070.16273130 0 -17.54730965 0 3103.81623781 0 385.39883889 0 -1360.14652537 0 19468
0.13450000 0.13450700 11951.79957899 0 145.44605882 0 2776.75083499 0 -45.32644394 0 -1000.07120057 0 19953
0.13550000 0.13551000 12014.13676772 0 23.47786827 0 2796.28241597 0 372.44864778 0 -399.07316004 0 19956
0.13650000 0.13649900 12205.68798708 0 -135.28166463 0 2788.52071628 0 -12.72475857 0 -475.52645568 0 19723
0.13750000 0.13749600 12068.05898959 0 150.18833554 0 2905.62162356 0 -33.29824532 0 -278.32170727 0 20946
0.13850000 0.13851100 11937.40555673 0 467.62635193 0 3080.88545311 0 -114.81890114 0 98.91804619 0 20955
0.13950000 0.13949800 11553.30660877 0 305.72128227 0 3625.76562976 0 -78.79907838 0 608.47185978 0 20506
0.14050000 0.14048300 11369.06312379 0 273.34691173 0 3776.20530707 0 25.86041112 0 690.61079422 0 21447
0.14150000 0.14148400 11259.00421509 0 93.02568709 0 4082.78690898 0 157.24362091 0 751.67909452 0 21771
0.14250000 0.14249400 11132.11537267 0 221.54504006 0 3715.70612427 0 473.23337721 0 1352.46233195 0 22470
0.14350000 0.14350900 11079.85399952 0 123.58818239 0 3459.03856264 0 344.82873352 0 1060.23378471 0 22519
0.14450000 0.14449900 10943.42081311 0 -49.36075621 0 3438.68762963 0 275.83597035 0 458.81167414 0 22218
0.14550000 0.14550500 10860.92092088 0 260.68460107 0 3135.15091705 0 -84.46810868 0 281.97225276 0 23559
0.14650000 0.14650700 10768.94311862 0 125.15380912 0 3387.77708011 0 -477.88486087 0 129.58052459 0 23044
0.14750000 0.14750500 10597.44387950 0 173.87978895 0 3348.29316981 0 -130.64678947 0 453.79037483 0 23649
0.14850000 0.14849900 10576.01893098 0 162.31696014 0 3164.58115642 0 61.41032442 0 117.15959060 0 23640
0.14950000 0.14949500 10399.69215824 0 19.30371254 0 3130.77734875 0 407.29436122 0 -87.13454595 0 24457
0.15050000 0.15050000 10332.75995471 0 168.65808057 0 3225.78896801 0 371.02031788 0 101.64217026 0 24591
0.15150000 0.15149900 10146.53452358 0 124.50607812 0 2980.70305815 0 261.85494580 0 250.52906474 0 25020
0.15250000 0.15250500 10231.21566380 0 178.91105335 0 3315.85125809 0 88.45724587 0 672.81092484 0 25297
0.15350000 0.15350100 9920.58159101 0 146.89542614 0 3093.53004806 0 -123.38112992 0 1055.60666017 0 25452
0.15450000 0.15450400 10000.85594595 0 63.87037355 0 3094.49334032 0 117.01786485 0 884.39973042 0 26061
0.15550000 0.15549900 9882.10526227 0 77.66792967 0 3040.68184170 0 333.94795993 0 1200.58325241 0 26128
0.15650000 0.15649500 9898.06048233 0 152.69289541 0 3157.47272388 0 383.61398013 0 805.13517151 0 26331
0.15750000 0.15749700 9733.24892740 0 107.22140402 0 2654.22448855 0 388.85894040 0 937.56792697 0 27345
0.15850000 0.15849900 9546.93491768 0 181.82196754 0 2491.66061556 0 164.11732016 0 644.14799758 0 26980
0.15950000 0.15949700 9366.33422756 0 233.58397884 0 2374.36040644 0 -35.29037800 0 579.81003976 0 27777
0.16050000 0.16050000 9115.60143205 0 344.56410496 0 2640.19585301 0 -281.08646678 0 400.39408839 0 28224
0.16150000 0.16150500 8836.15809827 0 344.63275338 0 2651.37890107 0 -248.58365727 0 766.26023907 0 28075
0.16250000 0.16249700 8654.14015058 0 130.58256998 0 2812.11584047 0 -74.86995319 0 672.09011649 0 28590
0.16350000 0.16349900 8601.67947559 0 -22.74897713 0 2700.10820260 0 211.98408758 0 271.68606301 0 29163
0.16450000 0.16449100 8732.08931730 0 -22.34716246 0 2981.72171204 0 276.72839973 0 392.04112655 0 28996
0.16550000 0.16550500 8674.77896404 0 94.64911135 0 2725.62991131 0 -127.57754103 0 -4.52820439 0 30777
0.16650000 0.16650700 8631.13185961 0 91.21591560 0 2507.99229467 0 53.71838037 0 223.56352488 0 29211
0.16750000 0.16749900 8535.86557687 0 29.77004902 0 2528.13285352 0 1.16917107 0 -105.14423588 0 30922
0.16850000 0.16850800 8507.99653530 0 35.04523673 0 2357.48618341 0 202.13414742 0 -441.56763547 0 30867
0.16950000 0.16949900 8497.34495882 0 125.72624832 0 2292.51378138 0 -176.83056352 0 -950.37528509 0 30852
0.17050000 0.17049200 8400.93822663 0 82.66918807 0 2222.48132690 0 -58.88051964 0 -663.88330934 0 31257
0.17150000 0.17149500 8316.12421852 0 137.97334680 0 2243.59625033 0 -41.42666042 0 -591.80026030 0 32608
0.17250000 0.17250900 8176.02609258 0 115.25182904 0 2276.52534434 0 74.58904831 0 -466.04079501 0 32361
0.17350000 0.17350400 8230.97804066 0 -16.36788561 0 2412.20561267 0 322.69626344 0 -196.26913697 0 32508
0.17450000 0.17449800 8219.77284794 0 43.77399328 0 2365.17037684 0 216.38422947 0 -77.87531432 0 32791
0.17550000 0.17549800 8213.81593719 0 40.91943722 0 2351.85037008 0 288.75405171 0 -25.12476586 0 33633
0.17650000 0.17650100 8207.58221832 0 114.64063671 0 2320.32746132 0 79.58000945 0 180.33163262 0 33984
0.17750000 0.17750300 8129.94307669 0 36.10098290 0 2155.22802595 0 119.78816052 0 149.37451966 0 34069
0.17850000 0.17849800 7968.85182290 0 154.75345506 0 2175.56788664 0 151.42511422 0 420.51693152 0 34536
