### header ###
fiducial parameters:
Omega_m = 0.31
Omega_nu = 0
Omega_de = 0.69
Omega_k = 0
H_0 = 100
w_de = -1
zeff = 0
beta = 0
fgrowth = 0
b_1 = 2
gamma = 0.55
Lx = 3500 Ly = 3500 Lz = 3500
nx = 700 ny = 700 nz = 700
xoffset = -685.467585 yoffset = -31.7331281 zoffset = 572.489161
bins = 400 dk = 0.001
kx_ny = 0.628318531 ky_ny = 0.628318531 kz_ny = 0.628318531
############################
A(data) = 8.04461857 (not used)
A(ran) = 8.03771028 (used)
Ngal = 477660
weighted Ngal = 0
Nran = 23820508
weighted Nran = 0
SN(data) = 3497.5944
SN(ran) = 70.0113716
SN(data+ran) = 3567.60577
############################
13 columns: k_central k_mean P_0(k) sigma^{lin}_{P_0(k)} P^img_1(k) sigma^{lin}_{P_1(k)} P_2(k) sigma^{lin}_{P_2(k)} P^img_3(k) sigma^{lin}_{P_3(k)} P_4(k) sigma^{lin}_{P_4(k)} N_modes
### header ###
0.00050000 0 0 0 0 0 0 0 0 0 0 0 0
0.00150000 0.00179520 7114.01298528 0 -15588.83683542 0 -3410.20961019 0 -13925.77364766 0 -37017.77139644 0 3
0.00250000 0.00253879 23521.93612148 0 -29692.76418941 0 -12283.96932355 0 -3943.18703766 0 10912.31865269 0 6
0.00350000 0.00331552 38286.77054390 0 -29038.83268562 0 -17769.86337820 0 -3690.61623623 0 14456.02728322 0 7
0.00450000 0.00420575 61257.74778241 0 -21520.72413376 0 -6509.56370110 0 -39394.66736525 0 6905.55432592 0 24
0.00550000 0.00557378 70351.44815596 0 4756.60430814 0 3856.74539781 0 -29875.01465593 0 20661.62245108 0 45
0.00650000 0.00659388 62109.09883771 0 12893.83297456 0 9809.24936496 0 -4424.97710750 0 46973.78442687 0 40
0.00750000 0.00754703 55657.03371939 0 10178.06850467 0 17680.17754717 0 13395.18784235 0 18083.32089381 0 57
0.00850000 0.00846663 52347.84800084 0 1776.31092601 0 12066.17669437 0 21732.09481455 0 13439.80931137 0 75
0.00950000 0.00948925 49733.00777167 0 1860.74847507 0 -1228.47443863 0 16416.05022262 0 -14255.72892726 0 112
0.01050000 0.01054430 52762.61728855 0 -7321.71872655 0 12120.32036273 0 -2526.02911180 0 15764.22246055 0 105
0.01150000 0.01145670 62378.26705406 0 -12162.72736679 0 11418.11352273 0 -29870.25355625 0 -11832.88281044 0 144
0.01250000 0.01249090 73889.27738202 0 -3164.74724129 0 26510.35659004 0 -13921.45544098 0 8376.05871276 0 169
0.01350000 0.01339930 76506.88569239 0 -6639.30920333 0 22059.72490593 0 -14856.29182542 0 -18290.59481442 0 180
0.01450000 0.01448870 87234.52903944 0 1209.05358090 0 40899.50703136 0 11958.00008089 0 3817.56044027 0 267
0.01550000 0.01550050 85552.53217623 0 2395.79642728 0 36922.54940300 0 20257.81476495 0 10970.39299637 0 238
0.01650000 0.01653350 82858.52482461 0 5014.05800482 0 41044.22231674 0 23386.30014246 0 7370.37052181 0 315
0.01750000 0.01747870 81401.73904822 0 4425.76324256 0 38797.86905753 0 17276.59130753 0 14143.12338385 0 297
0.01850000 0.01844180 75045.56026283 0 3866.32295877 0 41748.20072871 0 4222.50857586 0 8619.14053183 0 388
0.01950000 0.01947590 76154.23214692 0 -445.26136302 0 38199.85279407 0 2603.93398923 0 19145.48901367 0 399
0.02050000 0.02045430 79425.10762160 0 113.72052651 0 41801.56933433 0 -420.81588429 0 24863.23755001 0 462
0.02150000 0.02154770 79549.67127581 0 -3800.75265120 0 37239.99295555 0 2558.09456448 0 15473.02031782 0 571
0.02250000 0.02255340 87670.22502105 0 -3218.81340338 0 42762.20423560 0 12898.37262774 0 7911.67433754 0 510
0.02350000 0.02348930 85707.87689344 0 3158.73496891 0 32890.89449003 0 10953.78450914 0 7193.75586862 0 555
0.02450000 0.02439640 84458.69720740 0 1664.21470954 0 32055.15541272 0 13596.70415405 0 10121.95396249 0 592
0.02550000 0.02547300 77844.97614673 0 6899.25417310 0 31399.56306021 0 7260.27839613 0 9015.37474779 0 837
0.02650000 0.02652900 73491.00585829 0 7558.42288653 0 30782.05950507 0 9700.89559428 0 23934.71239072 0 723
0.02750000 0.02749970 66904.85488641 0 4265.88994450 0 37133.80936054 0 3552.93187711 0 22201.22921712 0 826
0.02850000 0.02848090 69254.51293618 0 505.72400716 0 38194.87024791 0 6927.93149438 0 27055.22569436 0 831
0.02950000 0.02946900 64785.05829989 0 2954.38414206 0 37501.52126776 0 -4127.34194405 0 19181.03117633 0 996
0.03050000 0.03053250 62218.27196043 0 7270.76388774 0 40030.99387258 0 -1334.87948014 0 30488.86434387 0 1041
0.03150000 0.03150510 58339.41512996 0 2934.79719946 0 38424.06737165 0 3027.53899214 0 23250.33199368 0 1036
0.03250000 0.03246190 57440.45307793 0 -1101.31210978 0 34954.11149674 0 11894.66638293 0 15332.40179262 0 1059
0.03350000 0.03345080 58846.52760665 0 308.35206664 0 26538.03740208 0 10282.70197420 0 5409.06319273 0 1302
0.03450000 0.03451200 55699.77289319 0 895.86623001 0 23266.38686467 0 2525.09903652 0 883.35561019 0 1339
0.03550000 0.03553350 55084.92669601 0 -1117.97263694 0 17136.85856832 0 -189.59252510 0 3621.12632566 0 1365
0.03650000 0.03647120 54887.83931424 0 -564.49258560 0 16125.84458912 0 5589.03276033 0 -2811.41828400 0 1308
0.03750000 0.03744890 54256.82752283 0 1110.58739628 0 10403.12457893 0 3150.48608692 0 -4932.20030744 0 1579
0.03850000 0.03847530 53741.52152577 0 1450.27524940 0 18286.83022398 0 -1415.23134134 0 -3818.44622626 0 1662
0.03950000 0.03950240 51785.26317681 0 3575.90695111 0 14134.48697049 0 -1362.83710030 0 -1702.67996596 0 1683
0.04050000 0.04050350 50007.26925743 0 1884.33252694 0 17054.59119491 0 -5025.37392079 0 -1132.00127248 0 1822
0.04150000 0.04152450 48570.52438896 0 1804.22425687 0 20446.59790311 0 200.37586224 0 -2617.22077901 0 1887
0.04250000 0.04250150 48466.11236592 0 1843.29849116 0 21096.87553970 0 -2247.05081567 0 3457.59916042 0 1920
0.04350000 0.04349210 46715.35636560 0 2516.59549106 0 22895.46398325 0 1170.38902263 0 -16.77579006 0 2005
0.04450000 0.04448520 46263.05189676 0 736.19555549 0 21220.88557767 0 2068.14419125 0 3202.14955453 0 2151
0.04550000 0.04548030 44672.62315981 0 1264.43734964 0 24528.85334049 0 5671.79838835 0 4228.67586079 0 2274
0.04650000 0.04648670 44425.04597686 0 1169.27071782 0 22282.94297428 0 3918.04178800 0 7059.54821950 0 2311
0.04750000 0.04749250 42663.88199121 0 362.97295220 0 20199.02072016 0 3338.21735422 0 4983.59803925 0 2568
0.04850000 0.04851840 41649.54631457 0 2029.37998206 0 23454.17349359 0 1515.75697837 0 5593.82707698 0 2493
0.04950000 0.04949480 40148.69268540 0 2703.91708234 0 20835.45795074 0 1147.11499586 0 6191.40044744 0 2644
0.05050000 0.05050630 37329.34661683 0 2197.33607723 0 20846.97316855 0 643.38511440 0 5013.24972511 0 2829
0.05150000 0.05149060 36263.74607629 0 1171.47411046 0 20390.68266277 0 -471.77625927 0 5799.28513631 0 2784
0.05250000 0.05249300 36679.29042673 0 163.08316502 0 22416.14304185 0 2139.79320515 0 4242.46090519 0 3055
0.05350000 0.05348950 35425.68181076 0 466.65752350 0 19460.05376176 0 1580.88439296 0 4682.72975695 0 3009
0.05450000 0.05448610 35133.59388205 0 984.31306789 0 20722.85240733 0 1118.96914617 0 3254.80953136 0 3336
0.05550000 0.05550870 35558.21753884 0 -189.98227094 0 20356.80134883 0 1013.64919250 0 3693.67219788 0 3349
0.05650000 0.05647670 34445.89178756 0 307.66447527 0 20639.36707820 0 3029.66487850 0 3135.23949565 0 3324
0.05750000 0.05747970 35360.68726408 0 -164.69750998 0 19058.46054059 0 1793.12978741 0 1582.22414426 0 3639
0.05850000 0.05849280 34309.81291554 0 -146.18790458 0 15955.77367991 0 1505.92475393 0 -1664.93441066 0 3846
0.05950000 0.05951020 34399.94163956 0 1074.38089413 0 15626.70418630 0 352.35348547 0 -3728.97076940 0 3787
0.06050000 0.06049470 33637.39062930 0 118.51927209 0 14384.16789515 0 338.96261584 0 -985.94291410 0 3930
0.06150000 0.06148310 32632.57715201 0 1387.34015513 0 13315.57782690 0 2055.54388561 0 -2339.26113676 0 4083
0.06250000 0.06249100 32631.24847303 0 456.75443619 0 12876.33870135 0 1860.68204112 0 -3462.70350216 0 4303
0.06350000 0.06350600 31128.95544164 0 702.09722398 0 12567.75300865 0 2553.28917550 0 145.25118590 0 4470
0.06450000 0.06451750 32108.52401834 0 390.65044255 0 12443.07863119 0 530.63120184 0 863.66126604 0 4479
0.06550000 0.06550280 31070.60428984 0 -161.00599689 0 13518.20137109 0 747.80045914 0 1486.49282388 0 4636
0.06650000 0.06648880 31026.20426732 0 849.14987713 0 12519.69911894 0 768.59760684 0 899.21560826 0 4653
0.06750000 0.06749660 30642.32676586 0 862.96038788 0 13037.77319720 0 227.70346713 0 3858.08514911 0 5220
0.06850000 0.06852730 30053.16836226 0 248.29356236 0 11855.58107632 0 693.64682568 0 -631.92304375 0 5029
0.06950000 0.06949320 29813.56325318 0 25.31808865 0 12061.41559470 0 1198.90025904 0 2660.46927975 0 5040
0.07050000 0.07048030 29715.01956230 0 -206.87642414 0 11472.70008409 0 1276.37331579 0 -818.64783672 0 5475
0.07150000 0.07148790 29921.96131316 0 47.25048182 0 11050.87772547 0 1385.51322153 0 -512.42940707 0 5509
0.07250000 0.07249820 29676.59859518 0 654.27917479 0 11228.88749158 0 -181.28274533 0 -2483.75497564 0 5916
0.07350000 0.07351270 28391.65529997 0 1690.58898726 0 10772.75199835 0 27.90801615 0 -714.85475664 0 5721
0.07450000 0.07449140 27893.40068313 0 1214.53438168 0 11031.91083306 0 -1626.64631143 0 -551.52246431 0 6028
0.07550000 0.07549160 27018.90846896 0 564.54241106 0 11097.45899598 0 -1059.92597408 0 -1577.15301949 0 6183
0.07650000 0.07648840 26536.04438362 0 102.63801516 0 11857.24192504 0 344.34044400 0 -1813.03782743 0 6330
0.07750000 0.07749960 26295.77493505 0 701.62000678 0 10070.03583141 0 313.80629385 0 -1806.91483180 0 6583
0.07850000 0.07848650 25148.12846760 0 1144.23619141 0 9933.03795643 0 1660.81550582 0 -2598.50855006 0 6549
0.07950000 0.07947320 24606.47033747 0 394.70844960 0 8803.10720869 0 1656.60802239 0 -2618.32801149 0 6828
0.08050000 0.08048110 24074.44512993 0 -172.20122451 0 8253.67630654 0 2067.42449014 0 -1798.57737122 0 7147
0.08150000 0.08149960 24011.11143197 0 -212.83776383 0 7939.04512449 0 1318.25992058 0 -2009.17298927 0 7386
0.08250000 0.08250610 24099.80075377 0 253.18863716 0 8347.63605495 0 675.08185866 0 -77.31815493 0 7227
0.08350000 0.08350160 23944.67748306 0 228.31908839 0 8296.86944566 0 -280.21175312 0 752.18067084 0 7798
0.08450000 0.08449610 24339.29513960 0 -23.06243464 0 9068.71013644 0 -102.55187247 0 1363.72288629 0 7371
0.08550000 0.08548940 23701.19706030 0 174.98923590 0 8428.96228074 0 160.88863024 0 1570.68678180 0 8256
0.08650000 0.08650700 23947.55628751 0 458.97333008 0 7854.87331122 0 1060.49619881 0 441.87544610 0 8037
0.08750000 0.08749060 23535.99797400 0 567.19866179 0 8272.54354803 0 1063.94744245 0 1329.12187123 0 8155
0.08850000 0.08849210 22669.47783370 0 1041.79172049 0 7265.53775042 0 772.90141950 0 310.41041183 0 8718
0.08950000 0.08949900 21834.51381912 0 905.36739193 0 6794.97501796 0 520.90416449 0 1351.10043600 0 8571
0.09050000 0.09049190 20562.30369746 0 875.54297780 0 6170.40731958 0 696.40826349 0 750.72908905 0 8932
0.09150000 0.09150830 20351.81880266 0 289.53907954 0 6629.82022096 0 578.52343561 0 791.79634180 0 9285
0.09250000 0.09250820 19909.70087265 0 571.73610050 0 6788.66379281 0 255.32891755 0 1544.71110777 0 9204
0.09350000 0.09350330 19545.42138612 0 717.17330146 0 5775.72322910 0 -134.15007304 0 1658.84463200 0 9349
0.09450000 0.09448040 19000.77372829 0 534.41129353 0 6900.33926093 0 317.14902871 0 2968.36848831 0 9564
0.09550000 0.09549270 18676.46533435 0 727.73408487 0 7299.45228134 0 -143.16848160 0 783.22414793 0 10155
0.09650000 0.09649430 17645.29972399 0 656.94428337 0 7544.67105910 0 -476.10775274 0 1293.95616761 0 9913
0.09750000 0.09749140 17441.67967057 0 481.10801462 0 7834.48916123 0 -149.80412587 0 344.17435913 0 10476
0.09850000 0.09850240 17364.06267359 0 -137.14513690 0 7913.21339069 0 -666.30814847 0 1603.30585071 0 10575
0.09950000 0.09950330 17536.34804777 0 4.37901589 0 7782.88105525 0 281.33780855 0 180.89853565 0 10882
0.10050000 0.10051200 17638.32415935 0 -123.78859147 0 8091.62176049 0 7.57333731 0 84.72565096 0 10875
0.10150000 0.10150300 17394.62229009 0 259.61722895 0 7400.56475159 0 154.63276672 0 1.79418166 0 11118
0.10250000 0.10250800 17359.96591341 0 328.68196224 0 8258.94673315 0 533.53547264 0 -50.36911283 0 11575
0.10350000 0.10349800 16772.80052828 0 411.90598451 0 7689.26454891 0 268.63342305 0 284.68165064 0 11364
0.10450000 0.10450100 16537.95651887 0 537.80274663 0 7198.68305317 0 1026.39676006 0 620.49529730 0 12093
0.10550000 0.10551000 16062.28944467 0 246.44559135 0 7039.40766065 0 -151.88683016 0 -257.39390613 0 12067
0.10650000 0.10649700 15886.68237304 0 62.21185001 0 6536.82376481 0 561.58610034 0 -343.22324643 0 12054
0.10750000 0.10749900 15672.65433430 0 -149.03902822 0 6702.77576919 0 488.29284620 0 -275.45951130 0 12807
0.10850000 0.10850100 16298.79430279 0 -6.54541589 0 5831.27308271 0 389.54542454 0 -702.76045624 0 12736
0.10950000 0.10950300 15858.11577501 0 105.34863100 0 5959.71205061 0 -224.77040828 0 -1138.75539062 0 12933
0.11050000 0.11050200 15784.70626146 0 632.01051511 0 5621.38609345 0 24.22857189 0 -990.88670714 0 13428
0.11150000 0.11150900 15402.71105522 0 469.51418331 0 5808.86269728 0 -65.48604718 0 -288.52817629 0 13453
0.11250000 0.11250000 15074.74879409 0 152.79586803 0 5367.60840861 0 939.60302027 0 -541.18534186 0 13668
0.11350000 0.11349100 14874.56116137 0 53.72690606 0 5274.34621666 0 973.74564108 0 -124.10083103 0 13791
0.11450000 0.11448600 14729.95659924 0 36.70265303 0 4909.94493455 0 1145.15519437 0 -129.07451934 0 14205
0.11550000 0.11549300 14593.21338773 0 391.21070219 0 4695.41864119 0 619.41574563 0 245.75135658 0 14776
0.11650000 0.11649800 14352.83321591 0 247.82188132 0 4135.31401792 0 203.63998360 0 688.90676343 0 14553
0.11750000 0.11747300 14215.09349517 0 65.54262676 0 4036.33850636 0 311.32387862 0 1299.94629533 0 14568
0.11850000 0.11849100 14133.82263100 0 -38.74737926 0 4139.59900762 0 211.02190256 0 1075.56674012 0 16015
0.11950000 0.11950300 14209.00371652 0 18.64258402 0 4417.47007127 0 383.01496736 0 1152.48507340 0 15270
0.12050000 0.12050700 14260.49002693 0 6.88670923 0 3939.52209815 0 427.89885048 0 1043.23998058 0 15999
0.12150000 0.12150000 14055.76274103 0 408.97403290 0 3610.49689384 0 208.50073419 0 1446.34457409 0 15670
0.12250000 0.12250700 13998.18665197 0 150.53822100 0 3646.30479230 0 290.52230199 0 1760.85396056 0 16887
0.12350000 0.12352200 13831.10527046 0 32.81682064 0 3513.10472473 0 724.59729525 0 1741.45524748 0 16407
0.12450000 0.12449800 13772.31122567 0 113.87221736 0 3173.63831812 0 384.97919778 0 1071.15441868 0 16306
0.12550000 0.12549900 13569.02334200 0 247.63365180 0 3164.91332616 0 12.03683503 0 1363.95540511 0 17523
0.12650000 0.12650100 13311.14889698 0 340.66775386 0 3484.51598205 0 -77.39189662 0 1104.21195165 0 17154
0.12750000 0.12750600 13259.99475631 0 309.78261101 0 3410.37569507 0 -729.31521285 0 1290.41302366 0 18007
0.12850000 0.12850300 12960.82053971 0 144.01440722 0 3757.38235488 0 -257.92094879 0 1289.00683841 0 17496
0.12950000 0.12949900 12962.25994194 0 -145.04634789 0 3577.02525591 0 51.59714438 0 1099.45306645 0 18405
0.13050000 0.13049000 13092.24903531 0 -47.26111126 0 3790.20072565 0 231.00523439 0 654.23488549 0 18100
0.13150000 0.13148800 13011.64251063 0 195.93364553 0 3581.57598141 0 -124.39867657 0 -98.72250893 0 19059
0.13250000 0.13249300 12999.46295333 0 213.99592900 0 4028.80932549 0 -404.27161655 0 244.37174491 0 18957
0.13350000 0.13349100 12618.79642607 0 568.28928578 0 3971.59862315 0 -551.57118254 0 55.90516452 0 19468
0.13450000 0.13450700 12436.98885254 0 442.94724714 0 4821.38848066 0 -523.54380672 0 -273.64807896 0 19953
0.13550000 0.13551000 12007.71481933 0 236.24022956 0 4910.98573309 0 56.53274389 0 -309.54787772 0 19956
0.13650000 0.13649900 11968.96168246 0 126.92981002 0 4848.43817019 0 165.14040297 0 -274.02232354 0 19723
0.13750000 0.13749600 11787.70772518 0 -3.93758444 0 5002.75316118 0 360.89799853 0 96.45899357 0 20946
0.13850000 0.13851100 11873.40751928 0 275.89243920 0 5256.49762905 0 276.44384098 0 79.85914275 0 20955
0.13950000 0.13949800 11652.40391590 0 238.18342257 0 5022.28474216 0 295.52034941 0 522.26938214 0 20506
0.14050000 0.14048300 11256.01468739 0 393.25908228 0 4932.37746464 0 268.23149766 0 682.47484994 0 21447
0.14150000 0.14148400 11045.81767303 0 173.91411316 0 4560.87882232 0 673.45644137 0 1536.34043021 0 21771
0.14250000 0.14249400 10961.69014906 0 9.46519902 0 4203.81849157 0 758.18851428 0 861.01387317 0 22470
0.14350000 0.14350900 10915.74000106 0 -50.01103385 0 3467.26529998 0 737.27289270 0 975.47070929 0 22519
0.14450000 0.14449900 10842.98375468 0 13.10221413 0 3139.09266468 0 152.84901519 0 491.98546653 0 22218
0.14550000 0.14550500 10918.92883061 0 -61.14370284 0 2889.52246327 0 -23.54363788 0 170.49165756 0 23559
0.14650000 0.14650700 10776.59409507 0 69.46865170 0 3347.45167312 0 -254.34458787 0 340.02777348 0 23044
0.14750000 0.14750500 10820.98304526 0 257.59099351 0 3355.32409607 0 -484.71316359 0 377.73125396 0 23649
0.14850000 0.14849900 10707.29241403 0 209.43080948 0 3772.58465686 0 147.25084776 0 874.57636385 0 23640
0.14950000 0.14949500 10551.88126287 0 126.99624397 0 3865.26001559 0 404.89941736 0 888.99806692 0 24457
0.15050000 0.15050000 10536.77861182 0 74.53590115 0 3729.25864984 0 343.32511181 0 1111.20744647 0 24591
0.15150000 0.15149900 10391.97474784 0 155.81750548 0 3799.78935894 0 384.91387107 0 997.43045110 0 25020
0.15250000 0.15250500 10116.39565543 0 251.23547907 0 3554.37127933 0 328.99088010 0 1406.48420474 0 25297
0.15350000 0.15350100 10071.63024619 0 174.13666689 0 3459.96863793 0 319.79752881 0 1568.88199285 0 25452
0.15450000 0.15450400 9739.95875624 0 99.69521267 0 2924.38921413 0 532.17468392 0 1317.75059364 0 26061
0.15550000 0.15549900 9744.59806034 0 97.36991373 0 2897.59418807 0 -63.67206821 0 656.05960462 0 26128
0.15650000 0.15649500 9611.98482599 0 193.07255679 0 2740.45575424 0 -144.18270656 0 595.55820735 0 26331
0.15750000 0.15749700 9503.47604277 0 196.93790539 0 2774.76888885 0 -288.13178706 0 852.67751982 0 27345
0.15850000 0.15849900 9273.40420536 0 181.04136864 0 2822.81170624 0 -335.54791086 0 803.52636272 0 26980
0.15950000 0.15949700 9349.78110196 0 66.68064031 0 2878.69372960 0 262.76287643 0 656.98635821 0 27777
0.16050000 0.16050000 9307.77270160 0 -50.12186782 0 2795.30805139 0 256.96208546 0 557.90012340 0 28224
0.16150000 0.16150500 9172.20315652 0 97.01781380 0 2525.13225349 0 399.08312514 0 580.51866854 0 28075
0.16250000 0.16249700 9141.18957470 0 138.09403514 0 2625.76861377 0 190.77062046 0 465.99539848 0 28590
0.16350000 0.16349900 8972.54699539 0 94.81929299 0 2237.40682075 0 325.67361159 0 160.85652050 0 29163
0.16450000 0.16449100 8882.21896952 0 93.01893297 0 2306.22131950 0 -83.82857120 0 -107.97443283 0 28996
0.16550000 0.16550500 8662.86514254 0 203.09522522 0 1985.51143113 0 -132.86236166 0 -106.86974698 0 30777
0.16650000 0.16650700 8670.16180459 0 180.90407182 0 1988.70026068 0 -113.22116467 0 -172.03071071 0 29211
0.16750000 0.16749900 8518.14985716 0 111.71089956 0 1951.75191276 0 42.69167353 0 -35.33987129 0 30922
0.16850000 0.16850800 8477.02724278 0 -35.60449986 0 1758.92737604 0 257.55556207 0 -107.34807141 0 30867
0.16950000 0.16949900 8559.44962873 0 -36.59049038 0 1760.20069339 0 278.49332830 0 37.52178362 0 30852
0.17050000 0.17049200 8592.26799949 0 66.47093048 0 1766.21296577 0 148.09012998 0 68.20485654 0 31257
0.17150000 0.17149500 8500.64451162 0 119.25447446 0 2036.16731717 0 266.29494805 0 234.78089715 0 32608
0.17250000 0.17250900 8342.71994273 0 229.83931859 0 1815.83912561 0 245.53544625 0 511.15387525 0 32361
0.17350000 0.17350400 8214.43598738 0 258.31180186 0 1934.47908604 0 -19.41222132 0 534.56741331 0 32508
0.17450000 0.17449800 7986.41253007 0 250.63978799 0 1924.29254721 0 0.96639694 0 693.56267601 0 32791
0.17550000 0.17549800 7842.94841739 0 238.15020559 0 2241.99076323 0 -208.05009057 0 888.22411142 0 33633
0.17650000 0.17650100 7662.53595680 0 114.00065633 0 2077.44494410 0 -136.66459800 0 717.66712714 0 33984
0.17750000 0.17750300 7656.34652722 0 12.53531110 0 2172.03581502 0 -20.57669772 0 773.59454703 0 34069
0.17850000 0.17849800 7643.97874040 0 -2.07027008 0 2166.85396701 0 184.12833280 0 693.74869107 0 34536
