### header ###
fiducial parameters:
Omega_m = 0.31
Omega_nu = 0
Omega_de = 0.69
Omega_k = 0
H_0 = 100
w_de = -1
zeff = 0
beta = 0
fgrowth = 0
b_1 = 2
gamma = 0.55
Lx = 3500 Ly = 3500 Lz = 3500
nx = 700 ny = 700 nz = 700
xoffset = -685.467585 yoffset = -31.7331281 zoffset = 572.489161
bins = 400 dk = 0.001
kx_ny = 0.628318531 ky_ny = 0.628318531 kz_ny = 0.628318531
############################
A(data) = 8.08249112 (not used)
A(ran) = 8.08435052 (used)
Ngal = 480119
weighted Ngal = 0
Nran = 23820508
weighted Nran = 0
SN(data) = 3487.51213
SN(ran) = 70.417625
SN(data+ran) = 3557.92976
############################
13 columns: k_central k_mean P_0(k) sigma^{lin}_{P_0(k)} P^img_1(k) sigma^{lin}_{P_1(k)} P_2(k) sigma^{lin}_{P_2(k)} P^img_3(k) sigma^{lin}_{P_3(k)} P_4(k) sigma^{lin}_{P_4(k)} N_modes
### header ###
0.00050000 0 0 0 0 0 0 0 0 0 0 0 0
0.00150000 0.00179520 32418.32766677 0 -47466.61360454 0 -24226.24670320 0 -42584.71486875 0 96107.33653286 0 3
0.00250000 0.00253879 49085.83038602 0 -25253.97989286 0 -1787.15073200 0 -60898.45084204 0 -42383.19855706 0 6
0.00350000 0.00331552 100483.56219418 0 -46894.83875091 0 -19101.64260738 0 57482.52791224 0 36719.04007283 0 7
0.00450000 0.00420575 111114.10125256 0 -23440.66525732 0 32607.44297467 0 -44534.88343906 0 20344.95396127 0 24
0.00550000 0.00557378 120555.47262542 0 35601.84249863 0 44184.22291206 0 -4113.47939338 0 27599.76262894 0 45
0.00650000 0.00659388 72403.14994486 0 12190.85107183 0 70136.31288474 0 48414.95822526 0 38725.12388347 0 40
0.00750000 0.00754703 66715.29668552 0 21445.98594124 0 31453.92817507 0 39618.54977309 0 14318.50900898 0 57
0.00850000 0.00846663 72253.67355981 0 -2480.51078447 0 25230.72801075 0 30558.84143673 0 -4916.52189550 0 75
0.00950000 0.00948925 68086.38266781 0 2281.54110748 0 21514.63435511 0 11182.71589709 0 -1304.67417803 0 112
0.01050000 0.01054430 68471.69957150 0 10282.63554026 0 11987.67391140 0 -21500.35105610 0 -8115.50476513 0 105
0.01150000 0.01145670 59468.68153821 0 1137.12775887 0 8712.84561677 0 -14667.73013376 0 -7246.94731705 0 144
0.01250000 0.01249090 65463.45964152 0 -9608.97315364 0 15945.91931082 0 6299.65456719 0 -15202.08052951 0 169
0.01350000 0.01339930 71584.01935477 0 -10441.94414975 0 11804.86982865 0 3152.95521536 0 -40132.41636792 0 180
0.01450000 0.01448870 93347.55957181 0 -15111.95180548 0 8867.02773987 0 -5530.46016204 0 -47910.28166003 0 267
0.01550000 0.01550050 93625.91781775 0 -3321.70851792 0 12135.82161748 0 10129.99247031 0 -11518.53950884 0 238
0.01650000 0.01653350 97823.76832624 0 6010.24614108 0 8398.85662956 0 -19984.66051167 0 -10342.09392453 0 315
0.01750000 0.01747870 87501.37206756 0 6194.22389027 0 7563.49401129 0 9623.64398402 0 -16828.60504536 0 297
0.01850000 0.01844180 86225.17590897 0 5861.93235014 0 19775.72574234 0 7816.66271827 0 -1270.23924784 0 388
0.01950000 0.01947590 75922.93128146 0 4683.89235106 0 9835.57935338 0 11951.91030224 0 -1350.85684485 0 399
0.02050000 0.02045430 80305.13599818 0 641.06656958 0 15310.36786623 0 -6378.71096640 0 -4777.88531644 0 462
0.02150000 0.02154770 74642.19546969 0 4528.37047665 0 12369.66911765 0 -10358.84635198 0 -4263.09971865 0 571
0.02250000 0.02255340 73645.79695926 0 7077.71790452 0 23163.08207411 0 -19940.70338214 0 6084.02104135 0 510
0.02350000 0.02348930 69973.54970990 0 4932.14494582 0 28315.58842847 0 -19338.25818876 0 -4730.89436991 0 555
0.02450000 0.02439640 70780.50074269 0 1264.66986846 0 38242.59196787 0 1327.13992509 0 2200.95672745 0 592
0.02550000 0.02547300 73473.51158508 0 -5037.28774229 0 40640.74680034 0 8270.58374654 0 -11398.73695430 0 837
0.02650000 0.02652900 75160.82316419 0 2361.16219525 0 48241.56561860 0 14749.00099793 0 -14708.80845883 0 723
0.02750000 0.02749970 70520.41183270 0 5068.01344367 0 36671.20762961 0 2280.24564548 0 -13811.50725553 0 826
0.02850000 0.02848090 63686.35150813 0 11742.31119342 0 44389.72526069 0 2098.43807195 0 -5635.30400575 0 831
0.02950000 0.02946900 58323.24953572 0 5302.29276450 0 38787.12890246 0 -4182.33818142 0 2249.37600388 0 996
0.03050000 0.03053250 56032.60697724 0 -2462.57361827 0 39525.21007487 0 14437.42577753 0 3545.01516486 0 1041
0.03150000 0.03150510 55998.61494005 0 -3065.21811349 0 27805.48642407 0 12860.28383036 0 2934.25465554 0 1036
0.03250000 0.03246190 62235.54478714 0 -4462.54550561 0 25431.02636672 0 16127.28399135 0 -8708.59384404 0 1059
0.03350000 0.03345080 58352.81264299 0 325.46655911 0 18471.29515546 0 1609.53956959 0 -1050.92749570 0 1302
0.03450000 0.03451200 59538.43718457 0 4469.12246655 0 16015.01061769 0 -1882.14020662 0 -4928.44678933 0 1339
0.03550000 0.03553350 54162.04842238 0 3794.97289764 0 21074.17727383 0 -5644.93692834 0 1402.03313016 0 1365
0.03650000 0.03647120 51949.57647712 0 4935.33377536 0 24631.49379156 0 -9306.45509494 0 -3766.04091289 0 1308
0.03750000 0.03744890 49786.92999354 0 4148.61188002 0 30197.99437089 0 -5828.69323103 0 1909.41134265 0 1579
0.03850000 0.03847530 47568.36826963 0 2054.27056825 0 32362.41242644 0 2903.07498885 0 3882.97573530 0 1662
0.03950000 0.03950240 47791.69706122 0 -1249.03574582 0 32184.14799686 0 9225.92607654 0 6847.69035642 0 1683
0.04050000 0.04050350 51366.61857542 0 -3714.82033828 0 30903.19073859 0 11290.67106407 0 -37.19802884 0 1822
0.04150000 0.04152450 50711.91200889 0 -1293.74579343 0 25322.62830674 0 4124.00917428 0 1071.40797491 0 1887
0.04250000 0.04250150 51091.47130367 0 2489.61223547 0 25801.39563190 0 2789.36221296 0 -224.14039300 0 1920
0.04350000 0.04349210 46533.99168507 0 3121.73125937 0 23642.62446201 0 -1407.97896859 0 6615.11617360 0 2005
0.04450000 0.04448520 47832.33249330 0 1374.75092181 0 25066.96832668 0 2353.84338855 0 4560.54665258 0 2151
0.04550000 0.04548030 43949.71107240 0 2340.01405485 0 23765.52726749 0 2142.86023913 0 871.10740448 0 2274
0.04650000 0.04648670 43984.36744908 0 1861.80034593 0 19743.06238413 0 3342.86773065 0 1145.54272574 0 2311
0.04750000 0.04749250 41987.47366804 0 461.98278797 0 18226.37533047 0 2644.77979548 0 3826.40722780 0 2568
0.04850000 0.04851840 42443.87489706 0 470.16966494 0 19941.14627513 0 2540.40098942 0 6592.84972839 0 2493
0.04950000 0.04949480 40300.16208892 0 1277.11516156 0 17965.17918800 0 1518.11538356 0 2059.58528417 0 2644
0.05050000 0.05050630 39928.46414476 0 1885.55048267 0 17407.57691013 0 -395.03286872 0 2063.69311667 0 2829
0.05150000 0.05149060 38168.40739159 0 749.00844977 0 17920.00410274 0 -1398.86644526 0 -176.96896758 0 2784
0.05250000 0.05249300 37667.93830979 0 690.23987133 0 17686.04587932 0 -1202.17766718 0 -617.39615359 0 3055
0.05350000 0.05348950 37678.78918811 0 -24.50814809 0 18565.29919317 0 -1344.99958502 0 -1074.42075450 0 3009
0.05450000 0.05448610 37307.09124395 0 680.94797635 0 16714.00648349 0 1013.34027463 0 -2959.35561590 0 3336
0.05550000 0.05550870 36563.36318588 0 62.57491154 0 16850.19607876 0 623.55900958 0 -4787.15285232 0 3349
0.05650000 0.05647670 36631.90087651 0 1550.35799343 0 17182.69799306 0 1860.54917323 0 -5359.37059894 0 3324
0.05750000 0.05747970 35802.47302434 0 533.82778202 0 15063.67646927 0 2192.25388014 0 -5474.65564496 0 3639
0.05850000 0.05849280 34488.18806837 0 466.82028668 0 15574.22136666 0 1747.37894125 0 -1405.21088738 0 3846
0.05950000 0.05951020 34788.46951745 0 1026.17309910 0 14201.47453564 0 836.21961621 0 -3510.09305238 0 3787
0.06050000 0.06049470 33799.26801815 0 731.28497944 0 13839.07734433 0 3127.35600038 0 1249.60043438 0 3930
0.06150000 0.06148310 32959.65362715 0 652.48102924 0 14079.67896264 0 2051.35854683 0 1849.93081372 0 4083
0.06250000 0.06249100 33422.25535808 0 -291.71589860 0 13522.07668477 0 3063.15866108 0 3745.80070312 0 4303
0.06350000 0.06350600 33254.84180682 0 177.35207002 0 11618.52260195 0 2951.84857968 0 3982.79274354 0 4470
0.06450000 0.06451750 32237.29515599 0 1231.86257002 0 11507.13501427 0 961.86503655 0 3141.07461083 0 4479
0.06550000 0.06550280 31330.25030684 0 1426.01578572 0 11988.67042064 0 439.99204364 0 6157.92880951 0 4636
0.06650000 0.06648880 30542.34367275 0 522.53843963 0 11043.08280880 0 -1100.41746594 0 4607.71475631 0 4653
0.06750000 0.06749660 30040.32446547 0 400.24129031 0 11642.99243980 0 901.13444216 0 3464.51936343 0 5220
0.06850000 0.06852730 30248.37344881 0 272.40244242 0 11842.84790278 0 943.58019935 0 2159.53516030 0 5029
0.06950000 0.06949320 29122.65018450 0 357.91068530 0 10969.07538971 0 -282.74288657 0 1518.77972305 0 5040
0.07050000 0.07048030 28933.97776959 0 479.27333040 0 10890.18507538 0 1620.53438813 0 793.57455717 0 5475
0.07150000 0.07148790 28977.04911313 0 -19.87382654 0 11544.11657917 0 -842.50758947 0 365.04458418 0 5509
0.07250000 0.07249820 28582.54217985 0 292.84749020 0 10409.81226312 0 -490.10427854 0 945.48574645 0 5916
0.07350000 0.07351270 28828.01562108 0 436.77664052 0 12543.28317080 0 -488.09243712 0 1818.69578541 0 5721
0.07450000 0.07449140 28966.97329755 0 461.17340102 0 11686.06378334 0 -1006.65480491 0 1116.18999264 0 6028
0.07550000 0.07549160 27982.31145143 0 785.37107171 0 12288.39825348 0 1731.68945699 0 2941.69525782 0 6183
0.07650000 0.07648840 27368.57248673 0 1226.09388879 0 11535.25871931 0 1020.05231794 0 2490.48694913 0 6330
0.07750000 0.07749960 27246.99836022 0 -6.87111940 0 10467.99733004 0 2998.07553579 0 2115.43409055 0 6583
0.07850000 0.07848650 25537.54213147 0 67.17668046 0 8919.42198091 0 2451.78917389 0 453.61432487 0 6549
0.07950000 0.07947320 26572.02943928 0 688.12062836 0 7850.41116432 0 1430.01289498 0 -1650.26358027 0 6828
0.08050000 0.08048110 24978.61117463 0 395.23770673 0 6539.37039952 0 -102.15681192 0 -553.39811613 0 7147
0.08150000 0.08149960 23847.24102466 0 1223.19293969 0 6273.40208505 0 -381.82358521 0 -2793.82435986 0 7386
0.08250000 0.08250610 23574.86183412 0 569.99663827 0 7492.78614500 0 -380.16827265 0 -949.05435674 0 7227
0.08350000 0.08350160 22852.28191645 0 779.21264465 0 7284.58214911 0 668.35320687 0 62.20653530 0 7798
0.08450000 0.08449610 22606.25485898 0 809.39358764 0 8083.16250433 0 490.14413891 0 1541.54442288 0 7371
0.08550000 0.08548940 22258.80530617 0 -298.90073018 0 7615.31249144 0 1138.19070206 0 1389.35531824 0 8256
0.08650000 0.08650700 22619.76309526 0 -103.99891460 0 8725.18018662 0 766.09415420 0 1388.81277433 0 8037
0.08750000 0.08749060 23018.14534224 0 -218.54222557 0 7780.09082939 0 -1391.07152859 0 1057.25975826 0 8155
0.08850000 0.08849210 22566.06231989 0 723.84548439 0 8671.61227914 0 -1281.37800661 0 514.93728864 0 8718
0.08950000 0.08949900 22314.94199300 0 808.88758239 0 7820.68197218 0 -928.99019693 0 886.32188601 0 8571
0.09050000 0.09049190 21433.91710718 0 380.56576911 0 7842.87091112 0 962.07873242 0 -614.38226677 0 8932
0.09150000 0.09150830 21268.27512790 0 255.69873320 0 6342.12800520 0 1147.44716561 0 -2172.31262314 0 9285
0.09250000 0.09250820 20922.59714706 0 -45.73014090 0 7244.93215394 0 772.15293034 0 -2700.36286607 0 9204
0.09350000 0.09350330 20389.68615354 0 483.83069930 0 6293.00009998 0 1308.94809541 0 -1423.97847795 0 9349
0.09450000 0.09448040 20057.84857872 0 406.56690948 0 5856.06401798 0 373.66106735 0 -1694.32036072 0 9564
0.09550000 0.09549270 19591.59298061 0 518.58672690 0 6524.72171378 0 330.55761407 0 -1014.48515302 0 10155
0.09650000 0.09649430 19299.39432865 0 619.32273810 0 6171.99066203 0 -193.28182373 0 -1106.55928452 0 9913
0.09750000 0.09749140 18589.10469153 0 817.52953191 0 6476.24707573 0 -126.84455312 0 -325.28940192 0 10476
0.09850000 0.09850240 18378.61979673 0 447.74267102 0 6397.96573926 0 -264.28753556 0 222.61130494 0 10575
0.09950000 0.09950330 17773.62796864 0 257.06062915 0 6703.07472196 0 754.15265189 0 261.78186845 0 10882
0.10050000 0.10051200 17758.90177663 0 71.64480642 0 6127.57956719 0 776.45452853 0 834.20445309 0 10875
0.10150000 0.10150300 17866.30332737 0 83.93386901 0 6160.50866120 0 1384.37277208 0 906.49787630 0 11118
0.10250000 0.10250800 17546.75603310 0 356.13468440 0 5258.21383940 0 559.49121648 0 1111.11886788 0 11575
0.10350000 0.10349800 17360.18735991 0 376.44907874 0 5843.61872489 0 1030.75371988 0 2213.93349214 0 11364
0.10450000 0.10450100 16988.71086224 0 -13.96718414 0 5093.22512728 0 756.82772556 0 2146.93485466 0 12093
0.10550000 0.10551000 16849.08884628 0 167.70586063 0 4848.49353181 0 406.60455539 0 1655.62258548 0 12067
0.10650000 0.10649700 16659.97353838 0 441.15795945 0 4810.30508351 0 -326.39995610 0 1850.55086391 0 12054
0.10750000 0.10749900 16236.23566757 0 482.74893316 0 4829.83666449 0 -475.32493937 0 1452.64472691 0 12807
0.10850000 0.10850100 15722.14762624 0 505.57120908 0 5489.88009158 0 -200.20867014 0 1792.65367744 0 12736
0.10950000 0.10950300 15582.63633352 0 324.31725180 0 5547.46725296 0 -487.73480103 0 1987.22764148 0 12933
0.11050000 0.11050200 15573.99992016 0 266.82863411 0 6365.98886518 0 -22.18849604 0 2261.06837889 0 13428
0.11150000 0.11150900 15278.59029400 0 195.52507674 0 6373.42946746 0 -144.61009829 0 1664.94548298 0 13453
0.11250000 0.11250000 15332.73396237 0 182.04230681 0 6659.66013635 0 -135.12554485 0 2699.68745426 0 13668
0.11350000 0.11349100 15061.90489730 0 331.75342515 0 6705.93138176 0 362.08052282 0 1663.90468445 0 13791
0.11450000 0.11448600 14949.18863065 0 8.60245454 0 6581.03555781 0 331.51979909 0 2381.39133270 0 14205
0.11550000 0.11549300 14766.82744088 0 -83.31725124 0 5766.47783788 0 755.84782481 0 737.28839395 0 14776
0.11650000 0.11649800 14864.15317604 0 22.33575796 0 5520.05217671 0 614.42877053 0 896.41431009 0 14553
0.11750000 0.11747300 14735.16059190 0 56.34783606 0 4941.35712007 0 389.23207774 0 -511.28674315 0 14568
0.11850000 0.11849100 14597.97448740 0 319.09775788 0 4676.06421741 0 97.72223511 0 -303.51124623 0 16015
0.11950000 0.11950300 14452.70558578 0 286.60491347 0 4295.65235362 0 -23.65258955 0 -54.02862691 0 15270
0.12050000 0.12050700 14037.38268183 0 233.34260216 0 4476.66271975 0 332.81415386 0 402.10919151 0 15999
0.12150000 0.12150000 14321.38781343 0 -142.37902484 0 4660.77333684 0 199.51554260 0 783.47216801 0 15670
0.12250000 0.12250700 14019.77768537 0 152.52681054 0 4449.46909000 0 946.79006631 0 527.18660159 0 16887
0.12350000 0.12352200 14204.57478659 0 190.01770238 0 5036.01442494 0 197.73400554 0 1746.08347925 0 16407
0.12450000 0.12449800 13956.88688040 0 174.18317065 0 5317.32898161 0 129.74218053 0 2228.64861182 0 16306
0.12550000 0.12549900 13910.16166967 0 260.73774822 0 5278.44297684 0 218.16244483 0 2912.45324797 0 17523
0.12650000 0.12650100 13818.59354342 0 -200.50651568 0 4973.59972994 0 434.38501836 0 3271.98270716 0 17154
0.12750000 0.12750600 13877.27686495 0 -87.77452632 0 5162.95862899 0 624.28535409 0 2909.87339629 0 18007
0.12850000 0.12850300 13830.44093097 0 69.73449822 0 4651.35078842 0 402.86210960 0 2043.86258292 0 17496
0.12950000 0.12949900 13658.48772654 0 343.99277300 0 4496.32716863 0 70.03455822 0 1705.49233647 0 18405
0.13050000 0.13049000 13302.51248362 0 411.85726628 0 3936.45506417 0 -202.77855673 0 1553.97864365 0 18100
0.13150000 0.13148800 12918.41353566 0 309.74164341 0 3967.24719950 0 -451.89811452 0 1190.18633941 0 19059
0.13250000 0.13249300 12745.68526849 0 290.35289542 0 3909.57145952 0 -415.82558749 0 329.71943908 0 18957
0.13350000 0.13349100 12494.34349511 0 300.31245159 0 4088.83239833 0 -324.68374575 0 306.24389600 0 19468
0.13450000 0.13450700 12344.09204732 0 367.08853534 0 4168.24311193 0 -428.34727963 0 156.60031884 0 19953
0.13550000 0.13551000 11941.83448665 0 208.55277412 0 4430.34718504 0 342.62644812 0 274.25705683 0 19956
0.13650000 0.13649900 12094.18967616 0 -72.60012660 0 4645.67068578 0 312.37353502 0 598.91422900 0 19723
0.13750000 0.13749600 12088.54279050 0 -67.92450528 0 4060.88585049 0 717.38810456 0 191.78705988 0 20946
0.13850000 0.13851100 12052.00411860 0 52.86614353 0 4268.93483383 0 296.09389584 0 795.95067808 0 20955
0.13950000 0.13949800 12106.81212645 0 173.96172416 0 3927.64149362 0 324.49994516 0 1157.44547492 0 20506
0.14050000 0.14048300 11874.40402851 0 194.70683194 0 3858.83806720 0 294.43969051 0 411.29368495 0 21447
0.14150000 0.14148400 11636.90266115 0 272.74236279 0 3655.33980935 0 -7.39058859 0 740.09965723 0 21771
0.14250000 0.14249400 11451.77339018 0 372.12755036 0 3733.26683143 0 49.29875119 0 578.39167495 0 22470
0.14350000 0.14350900 11105.09890011 0 268.73307398 0 3243.60433865 0 146.29530613 0 472.88017005 0 22519
0.14450000 0.14449900 10896.52951750 0 50.15198454 0 3524.47600232 0 295.16824948 0 739.27698349 0 22218
0.14550000 0.14550500 10868.76012686 0 9.08012570 0 3255.35207528 0 632.36815120 0 210.59561805 0 23559
0.14650000 0.14650700 10848.71921893 0 2.13030422 0 2961.54793622 0 202.47517503 0 375.14475888 0 23044
0.14750000 0.14750500 10829.82983279 0 178.94205586 0 2884.30739828 0 164.45281160 0 226.89075849 0 23649
0.14850000 0.14849900 10749.01293394 0 114.09920002 0 2952.44648522 0 -213.24190368 0 923.06539592 0 23640
0.14950000 0.14949500 10522.01920283 0 248.22712841 0 2672.22808871 0 139.36956696 0 796.28949122 0 24457
0.15050000 0.15050000 10428.62414299 0 146.37281241 0 2791.12271261 0 317.45573211 0 930.25797813 0 24591
0.15150000 0.15149900 10229.25586230 0 -110.00720094 0 2637.68243527 0 360.11518517 0 658.37704220 0 25020
0.15250000 0.15250500 10411.43989487 0 -34.12446220 0 2606.25917744 0 225.73148608 0 272.51870183 0 25297
0.15350000 0.15350100 10291.71484661 0 294.78182534 0 2790.45837312 0 -252.27406313 0 530.64116693 0 25452
0.15450000 0.15450400 9989.06392001 0 281.85267165 0 2337.66672199 0 -121.44015138 0 419.85037757 0 26061
0.15550000 0.15549900 9970.19667852 0 153.81341468 0 2776.09756783 0 -65.38086010 0 739.57261456 0 26128
0.15650000 0.15649500 9817.14393255 0 182.57488563 0 2810.90895706 0 -70.81427133 0 634.66898030 0 26331
0.15750000 0.15749700 9678.61807675 0 329.06727915 0 3065.78280206 0 108.45585751 0 614.00912942 0 27345
0.15850000 0.15849900 9359.55796477 0 266.24512259 0 3009.45788571 0 34.28257500 0 753.16389328 0 26980
0.15950000 0.15949700 9244.54972688 0 208.66903353 0 3072.34869068 0 -73.72751072 0 1008.32008256 0 27777
0.16050000 0.16050000 9282.41707776 0 52.09218802 0 3336.54543318 0 186.64396500 0 1068.85358958 0 28224
0.16150000 0.16150500 9064.24798954 0 115.39355479 0 3173.71582439 0 272.54306095 0 1321.21623131 0 28075
0.16250000 0.16249700 9014.35609390 0 177.29449393 0 3050.65800636 0 315.91225003 0 1098.41891131 0 28590
0.16350000 0.16349900 8917.13000967 0 -67.46301078 0 2731.07749512 0 409.58743969 0 1044.72699380 0 29163
0.16450000 0.16449100 8958.08653918 0 37.99911155 0 2595.02076775 0 197.48819993 0 1094.21142788 0 28996
0.16550000 0.16550500 8785.49113990 0 132.47704476 0 2153.34573073 0 10.23236719 0 885.51139184 0 30777
0.16650000 0.16650700 8837.98503187 0 -41.13700840 0 2208.65199320 0 4.76083394 0 957.78045593 0 29211
0.16750000 0.16749900 8710.84152598 0 130.83059006 0 2032.74596881 0 -49.36795322 0 691.52647548 0 30922
0.16850000 0.16850800 8768.55048293 0 95.31721543 0 2239.66557502 0 -4.26740685 0 305.10344654 0 30867
0.16950000 0.16949900 8648.61506049 0 68.22367950 0 2189.12041222 0 -226.85532705 0 191.89224697 0 30852
0.17050000 0.17049200 8602.91957597 0 185.64081237 0 2309.06690698 0 -236.72076846 0 451.64677275 0 31257
0.17150000 0.17149500 8481.19043691 0 163.23374864 0 2622.02616798 0 -53.51918924 0 248.72427580 0 32608
0.17250000 0.17250900 8456.34414002 0 79.94628195 0 2651.89930034 0 -0.51067444 0 283.44376473 0 32361
0.17350000 0.17350400 8344.73510585 0 32.41400946 0 2745.12827531 0 43.25204389 0 521.72573099 0 32508
0.17450000 0.17449800 8411.10262081 0 154.39028281 0 2709.56396800 0 236.59232949 0 302.90780453 0 32791
0.17550000 0.17549800 8231.70881410 0 103.88199085 0 2709.82970379 0 14.46554948 0 610.18142673 0 33633
0.17650000 0.17650100 8131.06138150 0 70.84272721 0 2565.72339628 0 229.75295445 0 387.83253589 0 33984
0.17750000 0.17750300 8111.95054886 0 4.57849489 0 2618.35015614 0 110.56602117 0 331.81875186 0 34069
