### header ###
fiducial parameters:
Omega_m = 0.31
Omega_nu = 0
Omega_de = 0.69
Omega_k = 0
H_0 = 100
w_de = -1
zeff = 0
beta = 0
fgrowth = 0
b_1 = 2
gamma = 0.55
Lx = 3500 Ly = 3500 Lz = 3500
nx = 700 ny = 700 nz = 700
xoffset = -685.467585 yoffset = -31.7331281 zoffset = 572.489161
bins = 400 dk = 0.001
kx_ny = 0.628318531 ky_ny = 0.628318531 kz_ny = 0.628318531
############################
A(data) = 7.96759918 (not used)
A(ran) = 7.95933452 (used)
Ngal = 473023
weighted Ngal = 0
Nran = 23820508
weighted Nran = 0
SN(data) = 3495.15525
SN(ran) = 69.3286902
SN(data+ran) = 3564.48394
############################
13 columns: k_central k_mean P_0(k) sigma^{lin}_{P_0(k)} P^img_1(k) sigma^{lin}_{P_1(k)} P_2(k) sigma^{lin}_{P_2(k)} P^img_3(k) sigma^{lin}_{P_3(k)} P_4(k) sigma^{lin}_{P_4(k)} N_modes
### header ###
0.00050000 0 0 0 0 0 0 0 0 0 0 0 0
0.00150000 0.00179520 158972.01081620 0 -111376.51535076 0 208279.28769859 0 149064.49456847 0 -296085.03797542 0 3
0.00250000 0.00253879 305132.23458474 0 -126308.65260119 0 130826.16112720 0 -101605.18869831 0 189728.71469743 0 6
0.00350000 0.00331552 275084.15949189 0 -3970.15922092 0 6416.42330473 0 -27221.42128989 0 187812.09527132 0 7
0.00450000 0.00420575 239453.41822549 0 106287.56414087 0 -24050.30746183 0 -78401.24974562 0 115064.70674785 0 24
0.00550000 0.00557378 128276.20472146 0 69086.43504543 0 -5231.99457423 0 -16111.45056686 0 54972.09970611 0 45
0.00650000 0.00659388 95856.76982221 0 25280.33202593 0 18465.53754655 0 3102.18860606 0 -11779.73565131 0 40
0.00750000 0.00754703 75421.24424392 0 -5973.04312969 0 -4611.61221464 0 41033.59288491 0 -34600.68288853 0 57
0.00850000 0.00846663 79081.97627547 0 -9195.67648513 0 3958.13467617 0 9488.61698286 0 -33088.86765779 0 75
0.00950000 0.00948925 78804.28236901 0 -16249.07956436 0 -9989.59539161 0 -19685.15412533 0 -28087.49853720 0 112
0.01050000 0.01054430 102851.04668690 0 -402.09701195 0 -10464.75313887 0 -42281.33316872 0 -18424.68066797 0 105
0.01150000 0.01145670 95391.40001008 0 3180.22635139 0 8345.02298629 0 -48020.45129197 0 -23688.57461000 0 144
0.01250000 0.01249090 96333.76557540 0 12785.98853083 0 38838.39376637 0 -35123.07517347 0 -11005.14902397 0 169
0.01350000 0.01339930 80211.13196047 0 22468.29369174 0 35800.59072912 0 -924.74285313 0 -9836.96339398 0 180
0.01450000 0.01448870 77673.46583529 0 5277.86721595 0 45800.67161233 0 20834.12927176 0 -276.15485330 0 267
0.01550000 0.01550050 73259.04065334 0 -2955.45815757 0 37752.08797841 0 15605.77749239 0 -28491.85983958 0 238
0.01650000 0.01653350 80811.69485863 0 -4744.97836708 0 37209.98695529 0 31060.74992076 0 -8440.59929413 0 315
0.01750000 0.01747870 71323.70899829 0 4503.28058862 0 30430.07029909 0 11468.38187741 0 -20902.55623914 0 297
0.01850000 0.01844180 70128.56225736 0 5408.18847907 0 19676.51771197 0 4934.73586982 0 -8373.34599318 0 388
0.01950000 0.01947590 72441.68163523 0 5144.67822071 0 24729.15169646 0 2173.64130212 0 -11741.31468419 0 399
0.02050000 0.02045430 60938.86482763 0 1675.44204691 0 19592.25732010 0 91.57986291 0 1614.97608107 0 462
0.02150000 0.02154770 69852.19702989 0 -2535.37415395 0 24479.69221830 0 -2915.88566867 0 -6859.95849232 0 571
0.02250000 0.02255340 60934.32517446 0 5093.47979075 0 25529.34861110 0 5697.47510961 0 12684.78748199 0 510
0.02350000 0.02348930 69024.87291944 0 1778.72469282 0 25125.09803198 0 1279.93860439 0 10259.08470537 0 555
0.02450000 0.02439640 66112.40859914 0 -1153.59230588 0 25045.37729328 0 8126.66566854 0 16859.05393862 0 592
0.02550000 0.02547300 66072.99112279 0 1195.83322506 0 27805.59714732 0 -727.25908213 0 7864.45087219 0 837
0.02650000 0.02652900 63395.14936540 0 4387.50836031 0 27345.87422085 0 6566.18757023 0 12267.02866658 0 723
0.02750000 0.02749970 65706.27572480 0 -1703.70969217 0 30962.42767637 0 2420.31055443 0 15116.49145866 0 826
0.02850000 0.02848090 61513.18631598 0 2050.18488040 0 25846.45999391 0 7123.86735437 0 7210.61901932 0 831
0.02950000 0.02946900 62953.25288189 0 -126.17467747 0 30312.26076302 0 3490.65005000 0 11076.86447182 0 996
0.03050000 0.03053250 59155.88836209 0 2856.18369324 0 21934.82908198 0 7835.44138116 0 2102.49054284 0 1041
0.03150000 0.03150510 59407.11941222 0 -73.62597750 0 19230.74591477 0 -1202.68699413 0 5100.11211332 0 1036
0.03250000 0.03246190 55931.40592840 0 87.79678169 0 24707.22849332 0 -1732.43130275 0 -1616.67014677 0 1059
0.03350000 0.03345080 58462.31793545 0 4597.36213260 0 25574.74514286 0 -2640.25121463 0 -3312.20846322 0 1302
0.03450000 0.03451200 51586.84711606 0 5979.98547735 0 24608.68480243 0 -2043.39754528 0 2738.77276087 0 1339
0.03550000 0.03553350 50124.63590051 0 2082.44963492 0 23055.23763038 0 -10.22761716 0 4326.95381588 0 1365
0.03650000 0.03647120 49429.40462515 0 -760.02430574 0 22702.14119191 0 4841.59547345 0 1759.62493250 0 1308
0.03750000 0.03744890 50011.47674086 0 1746.49315527 0 25179.46314684 0 6928.91693129 0 -894.88965096 0 1579
0.03850000 0.03847530 46772.71100816 0 3083.98570406 0 19299.72649839 0 3857.34330335 0 1847.95993991 0 1662
0.03950000 0.03950240 44896.17339790 0 2485.81442806 0 21650.04888764 0 4702.16168701 0 10205.67181044 0 1683
0.04050000 0.04050350 43545.01760028 0 -1334.41444249 0 17906.49586646 0 5410.32543776 0 7892.19811818 0 1822
0.04150000 0.04152450 44258.18604184 0 -549.69995964 0 20544.80942425 0 6091.26234178 0 9504.57220292 0 1887
0.04250000 0.04250150 44976.11558309 0 -350.41139970 0 16412.72852518 0 -783.15771398 0 6741.35174886 0 1920
0.04350000 0.04349210 44741.60374343 0 640.63253445 0 18348.06018023 0 -809.87080484 0 10524.66548847 0 2005
0.04450000 0.04448520 43922.47315334 0 2325.49823701 0 17001.44403578 0 -793.36971916 0 9747.97511941 0 2151
0.04550000 0.04548030 42519.16670583 0 1274.75675637 0 17370.70606849 0 1308.77093821 0 6783.65910199 0 2274
0.04650000 0.04648670 43254.59052028 0 113.62530452 0 18997.00913785 0 -1845.04791848 0 3843.11536595 0 2311
0.04750000 0.04749250 41250.38900486 0 2006.49348666 0 20622.86931422 0 -830.34796236 0 1580.68509111 0 2568
0.04850000 0.04851840 39599.94826739 0 2782.53058855 0 19039.08397216 0 -3192.69378913 0 1298.38509753 0 2493
0.04950000 0.04949480 38108.39539107 0 1315.02680174 0 19789.01253213 0 1474.62329167 0 2967.15053258 0 2644
0.05050000 0.05050630 38610.19315185 0 -936.38650991 0 17815.70280295 0 3473.79797163 0 -181.32260570 0 2829
0.05150000 0.05149060 39105.79041074 0 -1321.16086969 0 15728.79102113 0 4965.20690772 0 -3416.28831652 0 2784
0.05250000 0.05249300 37926.80926405 0 984.96965675 0 16170.13388840 0 1803.42704949 0 -4704.73046637 0 3055
0.05350000 0.05348950 38229.41590134 0 1809.32859861 0 15648.40594294 0 -236.96657407 0 -3444.47845551 0 3009
0.05450000 0.05448610 36126.11707879 0 631.78131799 0 15581.52910104 0 -1243.14526901 0 -1558.36328428 0 3336
0.05550000 0.05550870 35805.79472179 0 1235.77110068 0 15390.53149792 0 2256.39585782 0 336.96959737 0 3349
0.05650000 0.05647670 35180.98343227 0 -241.04561853 0 14398.89408716 0 3829.19745366 0 -603.48820638 0 3324
0.05750000 0.05747970 35394.90074777 0 -974.55945696 0 14046.46198818 0 4216.33021862 0 365.14644957 0 3639
0.05850000 0.05849280 35821.18525328 0 276.51581109 0 11691.82139225 0 1777.40708616 0 -2714.34721232 0 3846
0.05950000 0.05951020 35182.09066475 0 757.71240431 0 13312.92046895 0 -1093.36328780 0 -1316.14510654 0 3787
0.06050000 0.06049470 34117.92952643 0 2266.47167340 0 14037.38268183 0 -2180.60579443 0 -690.26423045 0 3930
0.06150000 0.06148310 32387.10371078 0 1202.64270483 0 11105.32034661 0 844.20054794 0 207.36803537 0 4083
0.06250000 0.06249100 32138.75146510 0 328.31325383 0 11130.34380070 0 2144.53216017 0 -2704.27139673 0 4303
0.06350000 0.06350600 32234.30562828 0 -1346.17325145 0 9199.34142465 0 2874.86270521 0 -2646.35206561 0 4470
0.06450000 0.06451750 32603.78910748 0 -33.74401712 0 8354.61161958 0 962.05105161 0 -4284.43608858 0 4479
0.06550000 0.06550280 31729.85050955 0 1280.94618594 0 6791.56474191 0 251.74369877 0 -2945.96917520 0 4636
0.06650000 0.06648880 31565.75865573 0 1344.41275180 0 7444.03469882 0 -702.36295978 0 42.66808947 0 4653
0.06750000 0.06749660 29426.03188453 0 562.61139761 0 7443.37035933 0 598.19009895 0 2513.47309546 0 5220
0.06850000 0.06852730 30778.84853087 0 -195.95689741 0 9273.43742234 0 669.86679367 0 -427.67851121 0 5029
0.06950000 0.06949320 30159.79485026 0 163.64785359 0 9671.13318517 0 -808.53991139 0 964.98521769 0 5040
0.07050000 0.07048030 30047.63219985 0 797.86065411 0 11189.13784548 0 -362.88880254 0 982.65664810 0 5475
0.07150000 0.07148790 29529.44739834 0 1060.78075755 0 12032.40610367 0 -745.03569963 0 2318.06870706 0 5509
0.07250000 0.07249820 28584.31375182 0 822.52536487 0 12149.32985376 0 -672.85410690 0 2289.21422858 0 5916
0.07350000 0.07351270 28328.43232526 0 865.63878325 0 13470.47965112 0 311.97382409 0 2646.20812538 0 5721
0.07450000 0.07449140 27192.52252211 0 339.60370344 0 12378.41625425 0 1560.34523042 0 2109.83149419 0 6028
0.07550000 0.07549160 27203.81629343 0 310.46245175 0 11917.25392556 0 1635.65918383 0 2593.24919578 0 6183
0.07650000 0.07648840 27235.92603540 0 117.77078293 0 11107.20264183 0 1512.20276211 0 571.58108795 0 6330
0.07750000 0.07749960 26827.24652635 0 126.57771009 0 10000.18053413 0 590.77164133 0 -87.76478268 0 6583
0.07850000 0.07848650 26198.22775340 0 753.06645682 0 8601.26979957 0 205.03177483 0 1995.77547624 0 6549
0.07950000 0.07947320 25938.47101315 0 507.58747943 0 8430.42382762 0 319.08557832 0 -636.01980393 0 6828
0.08050000 0.08048110 25072.28304259 0 686.06781934 0 7112.08640076 0 846.00201519 0 -41.86756039 0 7147
0.08150000 0.08149960 24611.56360689 0 518.79820831 0 6552.03713911 0 889.83292021 0 9.23973327 0 7386
0.08250000 0.08250610 24017.97627336 0 626.95821330 0 6691.61486577 0 1093.39871924 0 -677.09812901 0 7227
0.08350000 0.08350160 23481.63285914 0 229.21262500 0 6879.11361425 0 58.44017329 0 1266.80682715 0 7798
0.08450000 0.08449610 23606.30723660 0 571.56558670 0 6827.71588244 0 736.56204945 0 847.96624561 0 7371
0.08550000 0.08548940 22762.26391568 0 576.25914519 0 7537.75085609 0 -647.38111643 0 1878.56384571 0 8256
0.08650000 0.08650700 22278.95693734 0 440.70177966 0 7432.17623894 0 624.85225712 0 659.01812981 0 8037
0.08750000 0.08749060 22129.70199879 0 304.47786019 0 7730.22107841 0 248.77631572 0 1029.18698592 0 8155
0.08850000 0.08849210 21936.37920745 0 239.37812642 0 7330.39942921 0 619.35152615 0 218.47800609 0 8718
0.08950000 0.08949900 21366.70809553 0 873.22996915 0 6899.79671701 0 492.69409532 0 -50.39325050 0 8571
0.09050000 0.09049190 20522.99694435 0 703.91419249 0 7221.39239137 0 -513.93635048 0 74.96727893 0 8932
0.09150000 0.09150830 20162.26060176 0 756.40697722 0 6609.44714329 0 -296.54564669 0 -204.11387910 0 9285
0.09250000 0.09250820 19367.04623329 0 420.30323565 0 6876.32338840 0 449.44227288 0 -428.21662620 0 9204
0.09350000 0.09350330 19416.31807873 0 -47.49484803 0 7163.24054142 0 154.75566953 0 -813.10060199 0 9349
0.09450000 0.09448040 19452.96747388 0 98.30308927 0 7157.48293252 0 728.16479830 0 -398.34460107 0 9564
0.09550000 0.09549270 19134.97030509 0 228.25597614 0 6147.13329282 0 972.13904675 0 -1512.63458277 0 10155
0.09650000 0.09649430 18741.12771129 0 545.12819673 0 6022.68036185 0 213.83205860 0 428.13911993 0 9913
0.09750000 0.09749140 18629.85084686 0 525.56782770 0 6107.42793602 0 148.36361641 0 426.05641563 0 10476
0.09850000 0.09850240 17948.01708453 0 395.28199603 0 5540.23702486 0 1149.00836341 0 742.82012743 0 10575
0.09950000 0.09950330 17507.44928000 0 343.82779536 0 5496.40169090 0 316.27652951 0 832.44727514 0 10882
0.10050000 0.10051200 17337.37837078 0 376.65391675 0 5106.48977241 0 1093.95233548 0 825.04431877 0 10875
0.10150000 0.10150300 16918.51232289 0 161.39020656 0 5145.58615135 0 153.52885594 0 933.82548118 0 11118
0.10250000 0.10250800 16309.86662761 0 815.95394009 0 4925.54584022 0 -503.24048470 0 724.63051222 0 11575
0.10350000 0.10349800 15939.82953217 0 835.96384551 0 5284.55490014 0 -514.19876458 0 463.09777107 0 11364
0.10450000 0.10450100 15512.65924067 0 300.02457115 0 5884.07699977 0 -407.61324418 0 334.33770576 0 12093
0.10550000 0.10551000 15262.75686951 0 -167.45119716 0 5569.03614171 0 -125.25456728 0 589.52157585 0 12067
0.10650000 0.10649700 15623.16104236 0 -443.43664389 0 5853.79419140 0 556.77849690 0 -323.94300722 0 12054
0.10750000 0.10749900 16071.14730452 0 -246.24739673 0 5014.94379081 0 1110.00056307 0 -894.58073310 0 12807
0.10850000 0.10850100 16028.74030047 0 161.98257593 0 5049.88804794 0 995.41750245 0 103.38384696 0 12736
0.10950000 0.10950300 15681.51219415 0 125.88790426 0 4378.53977721 0 422.35825914 0 663.51017199 0 12933
0.11050000 0.11050200 15800.65040920 0 179.27976177 0 4404.42687263 0 502.28272861 0 504.89358280 0 13428
0.11150000 0.11150900 15658.03886554 0 182.48298534 0 4418.46658050 0 517.00781338 0 1160.57894284 0 13453
0.11250000 0.11250000 15420.09460518 0 228.45970691 0 4435.38509283 0 208.46308829 0 1802.72949302 0 13668
0.11350000 0.11349100 14866.03547126 0 434.92866950 0 4065.82410736 0 357.49990205 0 1336.52925653 0 13791
0.11450000 0.11448600 15027.69141361 0 290.19234671 0 4385.74786067 0 -157.00224423 0 1395.24579505 0 14205
0.11550000 0.11549300 14541.06273783 0 278.14897900 0 4334.60479233 0 -98.55742057 0 1099.59922113 0 14776
0.11650000 0.11649800 14405.42675880 0 444.79300368 0 4496.69255535 0 -95.81580222 0 1741.26701795 0 14553
0.11750000 0.11747300 14167.03960546 0 123.15193280 0 4297.56786581 0 150.51829082 0 1207.14914103 0 14568
0.11850000 0.11849100 14209.22516302 0 -49.92234453 0 4047.52155443 0 377.28836096 0 967.73226147 0 16015
0.11950000 0.11950300 14308.98680963 0 -64.64665424 0 4072.15747715 0 -47.44956222 0 263.72284700 0 15270
0.12050000 0.12050700 14268.01920780 0 339.25492521 0 4202.78876536 0 -597.19137526 0 -56.03072468 0 15999
0.12150000 0.12150000 13803.75662816 0 247.47088863 0 3950.10724068 0 -413.78827973 0 981.29918107 0 15670
0.12250000 0.12250700 14080.78619512 0 -132.26002719 0 4525.54703383 0 -103.55502510 0 125.97537562 0 16887
0.12350000 0.12352200 14004.83004686 0 86.78056372 0 4741.16948734 0 523.15848982 0 69.30057381 0 16407
0.12450000 0.12449800 14024.31733855 0 302.32540024 0 4457.97263546 0 -84.58226435 0 -658.88304745 0 16306
0.12550000 0.12549900 13465.49710495 0 369.12030694 0 4330.49695982 0 189.20167204 0 -135.54629320 0 17523
0.12650000 0.12650100 13531.48816087 0 217.04967619 0 4457.76226129 0 -10.52992484 0 -192.13805258 0 17154
0.12750000 0.12750600 13371.93596023 0 172.39941912 0 4514.76258945 0 160.92073998 0 -309.30650104 0 18007
0.12850000 0.12850300 13050.94926374 0 409.94175409 0 4521.22882715 0 -79.78960855 0 -249.79496961 0 17496
0.12950000 0.12949900 12835.70326926 0 511.36757112 0 4605.97640131 0 -346.58037531 0 90.75907148 0 18405
0.13050000 0.13049000 12510.28764284 0 165.10275707 0 4425.58608536 0 438.37548422 0 811.47297024 0 18100
0.13150000 0.13148800 12336.78431294 0 -80.40855151 0 4465.81184143 0 543.87923849 0 145.23457741 0 19059
0.13250000 0.13249300 12480.61381233 0 1.02457536 0 4490.19310068 0 561.70457421 0 -6.99366789 0 18957
0.13350000 0.13349100 12307.99626841 0 382.46467282 0 4337.99292372 0 277.06167670 0 250.09281514 0 19468
0.13450000 0.13450700 11913.37861187 0 346.85607620 0 3927.96259104 0 -198.25108311 0 988.23820704 0 19953
0.13550000 0.13551000 11815.83143022 0 151.11176743 0 4429.10708466 0 131.58461538 0 1026.75328892 0 19956
0.13650000 0.13649900 11851.48431613 0 -132.96976321 0 4050.83217955 0 496.20291505 0 591.68289366 0 19723
0.13750000 0.13749600 11901.42050107 0 -93.34180196 0 4053.50060983 0 173.54761921 0 303.13921612 0 20946
0.13850000 0.13851100 11944.49184461 0 197.44058893 0 3749.88639098 0 223.62885159 0 205.61528635 0 20955
0.13950000 0.13949800 11637.12410765 0 152.10938389 0 4028.96433803 0 77.28427362 0 622.46174219 0 20506
0.14050000 0.14048300 11582.98043928 0 166.70492247 0 3619.58727251 0 -45.10544034 0 -65.11988540 0 21447
0.14150000 0.14148400 11335.40325634 0 184.14826299 0 3580.05907291 0 412.40423913 0 -202.32902034 0 21771
0.14250000 0.14249400 11151.71338760 0 157.83045413 0 3171.45707013 0 345.10775611 0 -327.14069463 0 22470
0.14350000 0.14350900 10928.97142922 0 252.91625797 0 3143.01226767 0 59.44664761 0 -149.26158195 0 22519
0.14450000 0.14449900 10782.11918515 0 175.61039332 0 2835.02448052 0 369.00515477 0 -654.58366372 0 22218
0.14550000 0.14550500 10530.34559110 0 191.77266586 0 2662.29621334 0 235.25811435 0 -382.21000934 0 23559
0.14650000 0.14650700 10280.01139927 0 173.57419279 0 2332.08627028 0 33.60904548 0 -522.78424524 0 23044
0.14750000 0.14750500 10323.01630887 0 92.39201794 0 2261.32304236 0 230.22906442 0 -489.35468215 0 23649
0.14850000 0.14849900 10235.32349631 0 -84.86649093 0 2299.47827369 0 1.31256875 0 -442.53646389 0 23640
0.14950000 0.14949500 10313.72662835 0 108.91436248 0 2248.08054188 0 112.87017197 0 -657.37388958 0 24457
0.15050000 0.15050000 10228.14862982 0 -13.73931570 0 2275.49561813 0 137.07427402 0 -506.40052621 0 24591
0.15150000 0.15149900 10096.14437334 0 66.08195971 0 1990.25038615 0 263.68298663 0 -407.91219695 0 25020
0.15250000 0.15250500 10232.72149997 0 130.17289396 0 2124.91200060 0 405.03782142 0 -309.07730392 0 25297
0.15350000 0.15350100 9972.55508371 0 256.62659402 0 1970.96239632 0 -42.51030885 0 -116.35906152 0 25452
0.15450000 0.15450400 9871.78585553 0 333.73315682 0 1945.38532599 0 -64.61565173 0 -102.86344769 0 26061
0.15550000 0.15549900 9583.65074678 0 178.70842981 0 2532.90502551 0 -175.52070749 0 501.78779569 0 26128
0.15650000 0.15649500 9386.27548456 0 302.62324578 0 2579.28699418 0 -186.33615437 0 311.67487132 0 26331
0.15750000 0.15749700 9117.86018631 0 243.97978461 0 2720.18232750 0 76.99971487 0 520.94623932 0 27345
0.15850000 0.15849900 9036.01356125 0 76.27968159 0 2390.91353204 0 153.37162892 0 -0.02840860 0 26980
0.15950000 0.15949700 9079.36171291 0 -84.82596622 0 2468.90698806 0 -84.39126675 0 -287.14081399 0 27777
0.16050000 0.16050000 9086.29298825 0 59.46580273 0 2547.18832453 0 -321.31111561 0 -655.29893590 0 28224
0.16150000 0.16150500 9022.53854194 0 152.39837157 0 2476.87906193 0 -187.00492279 0 -483.24608055 0 28075
0.16250000 0.16249700 8973.15597325 0 41.67567700 0 2488.33891812 0 -2.18412679 0 -495.80652582 0 28590
0.16350000 0.16349900 8960.46708901 0 -47.65905061 0 2228.20571883 0 172.51789300 0 -902.45204881 0 29163
0.16450000 0.16449100 8979.86580209 0 136.86168539 0 2572.86504578 0 46.04326625 0 -923.22040847 0 28996
0.16550000 0.16550500 8851.79222092 0 270.73273584 0 2482.68096014 0 -28.42454010 0 -723.80119509 0 30777
0.16650000 0.16650700 8724.88123385 0 92.97010402 0 2530.02622106 0 -166.17234365 0 -379.76856172 0 29211
0.16750000 0.16749900 8725.78916448 0 -28.95700821 0 2493.07787314 0 291.22982354 0 -206.76348643 0 30922
0.16850000 0.16850800 8790.62869862 0 6.73179633 0 2777.21587264 0 186.73918700 0 -362.48798438 0 30867
0.16950000 0.16949900 8762.98110355 0 75.28549754 0 2552.22623232 0 54.64491251 0 -504.28017601 0 30852
0.17050000 0.17049200 8598.85603276 0 211.47808234 0 2668.60743849 0 57.26949638 0 -441.53995465 0 31257
0.17150000 0.17149500 8358.37621002 0 361.78932068 0 2567.27352175 0 -180.51432598 0 -369.96401810 0 32608
0.17250000 0.17250900 8209.26521169 0 134.95724552 0 2758.70294554 0 -134.37262677 0 -236.95660898 0 32361
0.17350000 0.17350400 8209.64167073 0 -7.55491296 0 2796.96890011 0 47.82923224 0 -368.32863572 0 32508
0.17450000 0.17449800 8218.06770992 0 16.15297178 0 2641.97849730 0 94.50041003 0 -356.62518839 0 32791
0.17550000 0.17549800 8084.41367704 0 103.03584379 0 2630.62936436 0 221.32137910 0 -312.63373465 0 33633
0.17650000 0.17650100 8085.06694420 0 108.91093006 0 2475.28464716 0 192.28863620 0 -321.94666705 0 33984
0.17750000 0.17750300 7987.75228137 0 97.22586279 0 2388.15652316 0 381.37958498 0 -7.18396793 0 34069
0.17850000 0.17849800 7788.61651951 0 132.32424668 0 2077.40065480 0 469.83306626 0 -265.97717233 0 34536
