### header ###
fiducial parameters:
Omega_m = 0.31
Omega_nu = 0
Omega_de = 0.69
Omega_k = 0
H_0 = 100
w_de = -1
zeff = 0
beta = 0
fgrowth = 0
b_1 = 2
gamma = 0.55
Lx = 3500 Ly = 3500 Lz = 3500
nx = 700 ny = 700 nz = 700
xoffset = -685.467585 yoffset = -31.7331281 zoffset = 572.489161
bins = 400 dk = 0.001
kx_ny = 0.628318531 ky_ny = 0.628318531 kz_ny = 0.628318531
############################
A(data) = 8.03204571 (not used)
A(ran) = 8.02937588 (used)
Ngal = 477364
weighted Ngal = 0
Nran = 23820508
weighted Nran = 0
SN(data) = 3488.97238
SN(ran) = 69.9387759
SN(data+ran) = 3558.91115
############################
13 columns: k_central k_mean P_0(k) sigma^{lin}_{P_0(k)} P^img_1(k) sigma^{lin}_{P_1(k)} P_2(k) sigma^{lin}_{P_2(k)} P^img_3(k) sigma^{lin}_{P_3(k)} P_4(k) sigma^{lin}_{P_4(k)} N_modes
### header ###
0.00050000 0 0 0 0 0 0 0 0 0 0 0 0
0.00150000 0.00179520 47439.37568549 0 -65442.64367086 0 -47480.01111757 0 107480.82858657 0 -8798.09144555 0 3
0.00250000 0.00253879 70033.67243367 0 -44274.46235933 0 -3141.84967356 0 -25104.94640081 0 80668.19752899 0 6
0.00350000 0.00331552 88201.25371935 0 -15816.37311044 0 -9877.24451167 0 -83161.02073866 0 -24346.71359723 0 7
0.00450000 0.00420575 88084.32996927 0 5997.34688267 0 -19175.82718367 0 -36888.11447281 0 39287.48726101 0 24
0.00550000 0.00557378 68365.29452999 0 9675.63962137 0 -30821.14481168 0 -12327.81572983 0 29046.02969675 0 45
0.00650000 0.00659388 61551.93945284 0 639.32710735 0 1611.44400946 0 15984.89389418 0 1687.61053188 0 40
0.00750000 0.00754703 60579.67861052 0 -7138.42746150 0 -16763.49977543 0 1500.63218267 0 6237.83777773 0 57
0.00850000 0.00846663 66415.79029918 0 -10432.21157623 0 -2548.90453488 0 -7373.92473807 0 -625.28739948 0 75
0.00950000 0.00948925 81983.92188718 0 -5767.93938475 0 -4118.89376021 0 -16068.15777682 0 25299.59787112 0 112
0.01050000 0.01054430 76668.20946500 0 -1289.77082882 0 16814.21102310 0 -12008.04698907 0 33187.30062542 0 105
0.01150000 0.01145670 86393.03235322 0 9153.01481761 0 12862.27684883 0 8986.33203979 0 37659.30189643 0 144
0.01250000 0.01249090 86101.27659425 0 4067.63996863 0 29055.33044960 0 -3780.88890047 0 8109.43713113 0 169
0.01350000 0.01339930 84047.24961714 0 1931.29025649 0 38972.70106642 0 -6619.42330796 0 14258.16483872 0 180
0.01450000 0.01448870 75194.81520138 0 9109.72202757 0 29763.51634500 0 22086.29848550 0 3756.97267886 0 267
0.01550000 0.01550050 75025.40863166 0 8282.33148317 0 32088.15094068 0 -1888.70609524 0 3382.82775092 0 238
0.01650000 0.01653350 65644.71359880 0 4510.72119089 0 33449.49327713 0 10085.78067730 0 -452.15056353 0 315
0.01750000 0.01747870 63689.67320558 0 1801.68869449 0 30623.83598341 0 152.00198234 0 -2987.91114161 0 297
0.01850000 0.01844180 63975.89280214 0 -5603.94718186 0 28319.02084916 0 8045.19550253 0 802.10356898 0 388
0.01950000 0.01947590 75998.33381347 0 -7996.74300912 0 45069.12311156 0 -14335.33894270 0 -16575.04880702 0 399
0.02050000 0.02045430 79387.46171721 0 -2472.25083016 0 41718.30545170 0 -8088.10076120 0 -13872.29431879 0 462
0.02150000 0.02154770 86787.65000975 0 4117.49864728 0 63637.19038594 0 -9365.59238180 0 893.07821862 0 571
0.02250000 0.02255340 78888.09986789 0 4090.96935702 0 50146.44838040 0 6253.72656385 0 -3728.10712806 0 510
0.02350000 0.02348930 82173.14791834 0 6387.42488603 0 71768.37356301 0 5298.81605451 0 1318.22670361 0 555
0.02450000 0.02439640 77976.29391908 0 5495.01765030 0 55188.01004008 0 14436.76143804 0 -2989.21767594 0 592
0.02550000 0.02547300 74048.38668966 0 3995.79165288 0 57091.78556939 0 24455.00093395 0 2289.66819390 0 837
0.02650000 0.02652900 66663.47820537 0 1641.31714182 0 38368.15213132 0 23675.84143646 0 -3198.63962756 0 723
0.02750000 0.02749970 68027.25645328 0 -1365.50553058 0 30126.02425957 0 15869.18809983 0 -3402.30397027 0 826
0.02850000 0.02848090 64254.80466432 0 -770.73788723 0 27655.89931577 0 8576.74460010 0 -4644.02090939 0 831
0.02950000 0.02946900 68178.50441030 0 1966.67740661 0 19485.96300184 0 2990.67922282 0 -7171.97660571 0 996
0.03050000 0.03053250 65205.47447325 0 -5408.36563627 0 14416.38836037 0 4828.38618994 0 3297.33833099 0 1041
0.03150000 0.03150510 69872.45938431 0 -2665.91686356 0 16193.05360077 0 3383.00490811 0 -59.31510839 0 1036
0.03250000 0.03246190 68236.74483885 0 2007.77787634 0 19188.11746422 0 293.92593464 0 -4411.77889631 0 1059
0.03350000 0.03345080 67677.81388200 0 6190.92433747 0 17297.85017118 0 1059.31588898 0 3596.76721106 0 1302
0.03450000 0.03451200 59078.82498135 0 8332.10158323 0 18206.22369930 0 -6265.51858978 0 2860.05900693 0 1339
0.03550000 0.03553350 56296.46047767 0 6121.78874131 0 19888.44200900 0 -1029.89007854 0 5141.12400444 0 1365
0.03650000 0.03647120 51529.60319675 0 1597.65896506 0 25593.01447881 0 -749.24318306 0 5038.39497478 0 1308
0.03750000 0.03744890 51303.83849369 0 1172.72528317 0 22850.17817474 0 2120.77095111 0 3747.00758653 0 1579
0.03850000 0.03847530 50241.67037384 0 183.30787354 0 24190.81526378 0 2257.75775377 0 37.23877500 0 1662
0.03950000 0.03950240 49067.67177332 0 1758.36268747 0 23309.01531522 0 2509.66421572 0 -4804.99036760 0 1683
0.04050000 0.04050350 48975.32858433 0 1668.43326530 0 20815.08487307 0 -2007.95503354 0 -3799.64541872 0 1822
0.04150000 0.04152450 46416.40359550 0 1255.93380418 0 20796.04047438 0 478.16941962 0 -4767.11194439 0 1887
0.04250000 0.04250150 46281.43195596 0 1119.91029378 0 22450.91014178 0 -1387.58374627 0 -6211.09811329 0 1920
0.04350000 0.04349210 45110.42288314 0 1043.97075401 0 20207.87858002 0 1751.24318262 0 -10400.67759515 0 2005
0.04450000 0.04448520 44268.04041093 0 973.15548617 0 21385.19887798 0 -1976.58713733 0 -11306.50448856 0 2151
0.04550000 0.04548030 42908.46964645 0 1839.92143209 0 20232.01624812 0 1451.64821767 0 -12304.23167797 0 2274
0.04650000 0.04648670 41653.75379800 0 620.58498313 0 19074.73685807 0 3098.04755658 0 -10480.33189989 0 2311
0.04750000 0.04749250 40417.75017850 0 1686.43686545 0 17954.32830968 0 2322.36476909 0 -11437.60081441 0 2568
0.04850000 0.04851840 38797.75833428 0 1470.16114477 0 18428.22381191 0 4518.41645664 0 -6409.04913640 0 2493
0.04950000 0.04949480 38529.36518068 0 586.68484624 0 13111.29343400 0 4376.85678384 0 -6643.81563953 0 2644
0.05050000 0.05050630 36282.79047497 0 601.51179640 0 11032.68589580 0 3417.93809292 0 -5190.99375543 0 2829
0.05150000 0.05149060 36670.32184363 0 1518.75757840 0 10774.18032825 0 2701.72476202 0 -5136.23003687 0 2784
0.05250000 0.05249300 34453.86386143 0 -222.64009299 0 10808.60418612 0 1616.03902426 0 -3073.23447666 0 3055
0.05350000 0.05348950 35173.34352815 0 -835.65603488 0 8494.72081784 0 841.65834216 0 -2468.50838437 0 3009
0.05450000 0.05448610 34961.97284736 0 381.57667237 0 7652.68158771 0 1157.46761957 0 -4492.40756564 0 3336
0.05550000 0.05550870 34169.41583684 0 1204.54714470 0 8488.75283476 0 1148.33295159 0 273.62814878 0 3349
0.05650000 0.05647670 33814.10493341 0 587.96148529 0 6753.21020874 0 802.05152905 0 -275.85257883 0 3324
0.05750000 0.05747970 33566.74919696 0 1390.69506955 0 9407.57863751 0 -93.55339409 0 4579.82357009 0 3639
0.05850000 0.05849280 32348.57202041 0 1590.61696647 0 11489.53001781 0 -727.17050353 0 7696.46156004 0 3846
0.05950000 0.05951020 32262.87222632 0 675.34537999 0 11754.49075072 0 -45.78638831 0 8557.23516377 0 3787
0.06050000 0.06049470 32089.14744991 0 -564.26560294 0 12817.98754955 0 -166.55101715 0 7464.60707834 0 3930
0.06150000 0.06148310 33199.92307572 0 -464.93134806 0 14968.45447583 0 1644.71634554 0 8556.96942797 0 4083
0.06250000 0.06249100 33923.61022586 0 -336.52338268 0 14720.21295340 0 1829.80132720 0 6874.10892343 0 4303
0.06350000 0.06350600 32998.84965701 0 503.59147740 0 12809.90475244 0 1609.01917032 0 6000.36962734 0 4470
0.06450000 0.06451750 33202.46971043 0 213.43677660 0 11606.45376790 0 816.76221980 0 3824.91246395 0 4479
0.06550000 0.06550280 32257.22534066 0 1186.43282129 0 11341.71448148 0 1226.59214341 0 3969.04091612 0 4636
0.06650000 0.06648880 31709.80960162 0 878.97982743 0 10546.20116024 0 -278.57304904 0 2120.53843229 0 4653
0.06750000 0.06749660 30562.93819691 0 448.48451678 0 10606.89964489 0 -864.18941593 0 1338.36726245 0 5220
0.06850000 0.06852730 30292.88419458 0 1274.98927519 0 11336.06759583 0 -416.04814122 0 -502.30819496 0 5029
0.06950000 0.06949320 29666.63350284 0 595.89923495 0 12194.61566226 0 -1524.48197033 0 -590.32653387 0 5040
0.07050000 0.07048030 28857.24655860 0 761.86009719 0 11519.97891106 0 1476.16234482 0 -419.33772893 0 5475
0.07150000 0.07148790 29194.95246557 0 -570.72076831 0 11717.06629284 0 1885.50619337 0 134.76126537 0 5509
0.07250000 0.07249820 28912.82962919 0 -388.88883568 0 10323.79137161 0 1766.56728017 0 -1696.11407734 0 5916
0.07350000 0.07351270 29232.81981645 0 934.89838946 0 9632.35790366 0 1791.44679403 0 -876.14309781 0 5721
0.07450000 0.07449140 27636.07985435 0 1383.59770934 0 9491.62865521 0 298.23306899 0 -380.95994387 0 6028
0.07550000 0.07549160 26716.85544790 0 1102.95413555 0 9009.73893445 0 1028.74741462 0 272.85530051 0 6183
0.07650000 0.07648840 26159.14244679 0 -53.34203205 0 8424.04616852 0 487.22768855 0 677.45133617 0 6330
0.07750000 0.07749960 25811.69289398 0 23.56567180 0 8456.39950164 0 1181.11810538 0 1019.83640761 0 6583
0.07850000 0.07848650 25726.65743937 0 721.01982710 0 8965.84823887 0 1872.98339400 0 2390.82495344 0 6549
0.07950000 0.07947320 25163.85116884 0 576.46398320 0 7951.63435781 0 581.57386110 0 4397.17449988 0 6828
0.08050000 0.08048110 25003.52390547 0 838.12516331 0 8732.34398077 0 1404.65727114 0 4302.45076106 0 7147
0.08150000 0.08149960 24139.21823012 0 -145.14156989 0 7053.92347849 0 195.45199940 0 4527.38503975 0 7386
0.08250000 0.08250610 24505.38001188 0 129.54066422 0 8357.28004987 0 475.71357797 0 4264.16266183 0 7227
0.08350000 0.08350160 24612.00649988 0 -180.05593174 0 8524.25070813 0 -1572.90124676 0 3196.24800540 0 7798
0.08450000 0.08449610 24256.36342670 0 287.79629562 0 7923.49958045 0 -264.91312191 0 1936.60497241 0 7371
0.08550000 0.08548940 23769.07041144 0 1054.29016074 0 8454.49506177 0 -928.79753848 0 1889.94619562 0 8256
0.08650000 0.08650700 23259.18985354 0 905.66080854 0 8777.43048743 0 238.89980198 0 -31.08101228 0 8037
0.08750000 0.08749060 22510.03635631 0 287.08323790 0 8609.08686089 0 580.31272330 0 1265.62208840 0 8155
0.08850000 0.08849210 21957.30590136 0 557.11398834 0 8180.36644391 0 875.23848887 0 -790.53077508 0 8718
0.08950000 0.08949900 21503.56203029 0 533.00400105 0 8228.29853805 0 247.40888361 0 837.00021511 0 8571
0.09050000 0.09049190 21245.24469227 0 1081.55686784 0 8477.68050994 0 1340.22741302 0 1142.57534269 0 8932
0.09150000 0.09150830 20368.87018288 0 274.79627905 0 7289.32110413 0 477.28031194 0 2293.83138803 0 9285
0.09250000 0.09250820 19875.59811221 0 229.43296426 0 7521.59633418 0 1061.45174044 0 1261.27066474 0 9204
0.09350000 0.09350330 19774.83995636 0 435.13350751 0 7038.46651304 0 421.07054776 0 867.95732807 0 9349
0.09450000 0.09448040 19378.45072785 0 413.71741685 0 6889.98663722 0 503.85942766 0 842.30164423 0 9564
0.09550000 0.09549270 18694.62394705 0 528.10781902 0 5911.79102880 0 185.80136108 0 -64.34316182 0 10155
0.09650000 0.09649430 18143.33289433 0 169.90482434 0 5853.37344305 0 432.77399509 0 682.55235621 0 9913
0.09750000 0.09749140 18349.94247545 0 54.12573120 0 5134.90135790 0 515.83414695 0 -484.78845539 0 10476
0.09850000 0.09850240 18213.64215693 0 -59.62004022 0 5136.04180735 0 222.73310052 0 116.82299193 0 10575
0.09950000 0.09950330 18284.39431252 0 230.77714450 0 5912.03461994 0 -440.17695147 0 -1024.00292344 0 10882
0.10050000 0.10051200 18268.22871828 0 332.07562980 0 5282.49544773 0 -683.70830692 0 973.01708211 0 10875
0.10150000 0.10150300 18183.08254043 0 106.89543477 0 6801.36374938 0 -380.61780904 0 241.40989802 0 11118
0.10250000 0.10250800 18014.22958694 0 329.64193280 0 6308.34634218 0 -125.28889149 0 -3.97736730 0 11575
0.10350000 0.10349800 17685.93515607 0 690.27973170 0 6970.28313681 0 125.09955473 0 -459.62991894 0 11364
0.10450000 0.10450100 17218.24015573 0 511.14280293 0 6527.20191454 0 619.12011456 0 485.81485991 0 12093
0.10550000 0.10551000 16848.86739978 0 44.12365730 0 6608.74958683 0 1011.31071750 0 612.01500372 0 12067
0.10650000 0.10649700 16631.07477060 0 166.42257819 0 5678.87360391 0 512.39508286 0 -516.90705523 0 12054
0.10750000 0.10749900 16386.93000835 0 375.10822021 0 5767.14217736 0 297.31628050 0 -190.32219131 0 12807
0.10850000 0.10850100 16065.50041886 0 607.49306627 0 5908.76828412 0 -415.20221561 0 -355.21346697 0 12736
0.10950000 0.10950300 15637.00144838 0 395.63409595 0 5632.43627362 0 -186.97281305 0 622.74408647 0 12933
0.11050000 0.11050200 15479.99588245 0 78.05701117 0 5921.22464954 0 -172.67512001 0 536.01013724 0 13428
0.11150000 0.11150900 15524.39590498 0 14.04712633 0 5854.65783273 0 690.58311340 0 -140.85215125 0 13453
0.11250000 0.11250000 15489.62880505 0 -175.70561531 0 5584.24951601 0 1042.34644396 0 -95.79996880 0 13668
0.11350000 0.11349100 15309.81424999 0 124.96890130 0 4818.93042455 0 894.95940660 0 188.21623513 0 13791
0.11450000 0.11448600 15225.22168838 0 113.33963854 0 4717.24219341 0 657.28752544 0 -253.04137524 0 14205
0.11550000 0.11549300 15328.52647893 0 61.68170710 0 4781.27344784 0 -167.12899251 0 153.39598804 0 14776
0.11650000 0.11649800 15045.51785657 0 493.13477384 0 4866.45284267 0 -131.06089441 0 594.16530888 0 14553
0.11750000 0.11747300 14608.60391923 0 468.50106559 0 4788.19365085 0 -49.99608621 0 1187.93865747 0 14568
0.11850000 0.11849100 14409.85568873 0 312.69463244 0 4985.72392561 0 301.18162909 0 776.92620957 0 16015
0.11950000 0.11950300 14302.12196825 0 148.34700792 0 4778.56072826 0 396.15560245 0 752.89372855 0 15270
0.12050000 0.12050700 14134.37624724 0 272.72021814 0 4880.29324869 0 67.30689100 0 153.29633711 0 15999
0.12150000 0.12150000 13618.84880369 0 294.46072792 0 4404.41580031 0 220.45109437 0 816.33372083 0 15670
0.12250000 0.12250700 13679.08225070 0 163.60799322 0 4575.02925344 0 151.32657053 0 262.00442218 0 16887
0.12350000 0.12352200 13470.14748137 0 -140.14241523 0 3814.15016423 0 485.12505407 0 325.25175601 0 16407
0.12450000 0.12449800 13737.32267925 0 -124.22041214 0 3612.48991231 0 615.84602811 0 -433.85797569 0 16306
0.12550000 0.12549900 13587.73557095 0 107.59631293 0 3353.99541709 0 363.49778040 0 -505.84690997 0 17523
0.12650000 0.12650100 13301.73742088 0 448.99495095 0 3761.73377854 0 -496.98683565 0 -846.23231954 0 17154
0.12750000 0.12750600 13057.59265863 0 309.38843625 0 3391.43094730 0 -608.44307174 0 -735.70394427 0 18007
0.12850000 0.12850300 12773.58752703 0 469.35695629 0 4135.24758397 0 -759.72203127 0 -1081.28559588 0 17496
0.12950000 0.12949900 12567.53156216 0 242.64224777 0 3924.72947219 0 -68.43704319 0 -1215.79662671 0 18405
0.13050000 0.13049000 12468.87714802 0 27.73550933 0 4443.34609437 0 41.29301746 0 -624.27317453 0 18100
0.13150000 0.13148800 12254.29549304 0 97.16042535 0 3936.37755790 0 473.01525241 0 -846.46373113 0 19059
0.13250000 0.13249300 12414.29058667 0 131.64440593 0 4064.22969258 0 763.29617772 0 -806.79602024 0 18957
0.13350000 0.13349100 12206.46304982 0 50.39690437 0 3496.09763381 0 729.93637027 0 -431.80738114 0 19468
0.13450000 0.13450700 11972.17265666 0 368.60876554 0 3754.79143088 0 -90.53253171 0 -326.91149750 0 19953
0.13550000 0.13551000 11940.94870067 0 319.71891530 0 4129.11351602 0 -114.03719500 0 87.85601863 0 19956
0.13650000 0.13649900 11673.99494929 0 66.22711788 0 4294.66691671 0 -87.37592263 0 428.64291070 0 19723
0.13750000 0.13749600 11709.86928170 0 160.05820588 0 4208.44672334 0 -80.02090942 0 523.76193152 0 20946
0.13850000 0.13851100 11456.75593635 0 182.08991781 0 4091.10222492 0 166.00625877 0 404.03356156 0 20955
0.13950000 0.13949800 11420.54943419 0 127.54653852 0 4229.74987630 0 43.33154318 0 886.52118786 0 20506
0.14050000 0.14048300 11402.61226799 0 53.26098263 0 3697.31499274 0 587.43222816 0 360.57579388 0 21447
0.14150000 0.14148400 11171.86501877 0 -119.84352214 0 3503.68217631 0 589.40531644 0 352.08110628 0 21771
0.14250000 0.14249400 11285.35634816 0 149.37894859 0 3624.51445706 0 439.24466172 0 187.77334213 0 22470
0.14350000 0.14350900 11102.66298865 0 73.29591149 0 3303.27309710 0 362.47691205 0 340.44962906 0 22519
0.14450000 0.14449900 10933.63287797 0 152.46037659 0 3176.58355652 0 21.46968072 0 638.05821893 0 22218
0.14550000 0.14550500 10903.43864819 0 232.81334503 0 3233.36243819 0 -33.24930564 0 302.31986408 0 23559
0.14650000 0.14650700 10899.12044151 0 111.94895454 0 3344.07461405 0 -363.45127664 0 431.58150571 0 23044
0.14750000 0.14750500 10542.23726795 0 219.88640581 0 3264.19886281 0 -214.77209897 0 -19.94037121 0 23649
0.14850000 0.14849900 10585.79579379 0 264.29639342 0 3524.61994255 0 -184.37856735 0 211.28763835 0 23640
0.14950000 0.14949500 10306.44103862 0 80.09885859 0 3477.34111557 0 -10.82612060 0 -53.58340873 0 24457
0.15050000 0.15050000 10257.82246034 0 179.07713822 0 3402.93509279 0 215.28142591 0 -141.33158292 0 24591
0.15150000 0.15149900 10113.95974397 0 83.55729924 0 3258.92843620 0 239.76233609 0 -334.02435897 0 25020
0.15250000 0.15250500 9989.07499234 0 93.15346172 0 3074.51886634 0 360.45621277 0 -201.10552845 0 25297
0.15350000 0.15350100 10020.34323763 0 234.20070733 0 2999.31563617 0 157.44292276 0 -310.67725485 0 25452
0.15450000 0.15450400 9716.29719811 0 197.93884355 0 2927.25694625 0 42.91156990 0 8.42361435 0 26061
0.15550000 0.15549900 9528.69879870 0 78.04217425 0 2975.73158431 0 276.69407552 0 -258.45684931 0 26128
0.15650000 0.15649500 9482.84830163 0 64.74564082 0 2690.97353462 0 244.89768034 0 -162.89272103 0 26331
0.15750000 0.15749700 9322.07814526 0 178.70621534 0 2812.28192534 0 405.61358231 0 -159.69946256 0 27345
0.15850000 0.15849900 9280.59014417 0 71.75154363 0 2322.17653957 0 51.88269964 0 -193.32168410 0 26980
0.15950000 0.15949700 9355.16225182 0 2.78127942 0 2365.90115027 0 246.36587061 0 566.88420776 0 27777
0.16050000 0.16050000 9248.82364426 0 -38.29396756 0 2169.48918032 0 153.42920501 0 500.29192461 0 28224
0.16150000 0.16150500 9372.12505344 0 -27.62899357 0 2274.76484469 0 470.90597454 0 767.31432440 0 28075
0.16250000 0.16249700 9291.31922692 0 87.30350962 0 2219.97898149 0 336.25875411 0 798.07102828 0 28590
0.16350000 0.16349900 9202.65204977 0 201.52516956 0 2137.75589739 0 291.03495063 0 507.47786341 0 29163
0.16450000 0.16449100 8944.32363943 0 205.04949055 0 2196.33956800 0 -30.47590972 0 886.47579133 0 28996
0.16550000 0.16550500 8815.90681618 0 366.20607105 0 2219.56930547 0 -88.13625917 0 728.67301801 0 30777
0.16650000 0.16650700 8581.14031305 0 177.05090278 0 2173.63022980 0 -256.03090294 0 954.20077331 0 29211
0.16750000 0.16749900 8445.90293771 0 91.85047053 0 2214.27673421 0 -110.52018175 0 676.54451277 0 30922
0.16850000 0.16850800 8376.15836368 0 138.38523728 0 2231.98138159 0 -62.82448174 0 551.37298792 0 30867
0.16950000 0.16949900 8442.07191333 0 40.39538408 0 2140.59041254 0 32.93861621 0 412.82830917 0 30852
0.17050000 0.17049200 8367.32264848 0 -36.52062401 0 2041.42667146 0 411.92037853 0 389.28522490 0 31257
0.17150000 0.17149500 8410.44935365 0 55.14992124 0 1821.04311827 0 81.96797774 0 398.46307495 0 32608
0.17250000 0.17250900 8393.81872177 0 38.54553077 0 1899.05871895 0 294.37768549 0 254.42320138 0 32361
0.17350000 0.17350400 8352.61860112 0 65.95573520 0 1786.90714086 0 -69.39391351 0 370.79112076 0 32508
0.17450000 0.17449800 8189.33502702 0 154.98043772 0 1813.09318905 0 -91.60156467 0 232.07149927 0 32791
0.17550000 0.17549800 8162.60643490 0 221.41770833 0 1968.39361696 0 -196.37875298 0 494.79894426 0 33633
0.17650000 0.17650100 7996.00116336 0 76.97923107 0 1747.19071173 0 -36.39052420 0 541.99472880 0 33984
0.17750000 0.17750300 8048.26253650 0 -42.05844727 0 1995.75333159 0 138.17154141 0 431.55161043 0 34069
0.17850000 0.17849800 7977.64324881 0 13.70643089 0 1733.05135294 0 215.86383020 0 534.45890453 0 34536
