### header ###
fiducial parameters:
Omega_m = 0.31
Omega_nu = 0
Omega_de = 0.69
Omega_k = 0
H_0 = 100
w_de = -1
zeff = 0
beta = 0
fgrowth = 0
b_1 = 2
gamma = 0.55
Lx = 3500 Ly = 3500 Lz = 3500
nx = 700 ny = 700 nz = 700
xoffset = -685.467585 yoffset = -31.7331281 zoffset = 572.489161
bins = 400 dk = 0.001
kx_ny = 0.628318531 ky_ny = 0.628318531 kz_ny = 0.628318531
############################
A(data) = 8.02598672 (not used)
A(ran) = 8.03353408 (used)
Ngal = 477368
weighted Ngal = 0
Nran = 23820508
weighted Nran = 0
SN(data) = 3477.63418
SN(ran) = 69.9749954
SN(data+ran) = 3547.60917
############################
13 columns: k_central k_mean P_0(k) sigma^{lin}_{P_0(k)} P^img_1(k) sigma^{lin}_{P_1(k)} P_2(k) sigma^{lin}_{P_2(k)} P^img_3(k) sigma^{lin}_{P_3(k)} P_4(k) sigma^{lin}_{P_4(k)} N_modes
### header ###
0.00050000 0 0 0 0 0 0 0 0 0 0 0 0
0.00150000 0.00179520 54619.11399089 0 -37428.00103097 0 45440.93177897 0 -12752.10721688 0 -99647.82311687 0 3
0.00250000 0.00253879 92397.66482562 0 -29967.80073791 0 -6610.93083482 0 16878.76267679 0 67541.84573323 0 6
0.00350000 0.00331552 90959.70200142 0 -1078.51308575 0 34077.40481760 0 -80951.20615135 0 85259.55846153 0 7
0.00450000 0.00420575 83700.68585032 0 23278.12352898 0 11701.12214510 0 -36988.65118216 0 36214.47423084 0 24
0.00550000 0.00557378 59041.84341645 0 17492.94453448 0 19469.79740760 0 10308.62228661 0 15706.97854124 0 45
0.00650000 0.00659388 48614.03862550 0 10893.83894257 0 26061.92743488 0 20857.60260037 0 5184.37250519 0 40
0.00750000 0.00754703 44116.90317716 0 -5252.11298843 0 19081.93386921 0 17067.65653820 0 -18437.74601126 0 57
0.00850000 0.00846663 53110.50973435 0 -3695.65414402 0 8304.79723023 0 16586.34257833 0 -29891.18025016 0 75
0.00950000 0.00948925 60666.37491385 0 -5806.06139910 0 4523.77546186 0 -4540.29537048 0 -18900.34774218 0 112
0.01050000 0.01054430 62569.04321068 0 -1479.14080020 0 38954.76390021 0 55.78270461 0 10108.23535204 0 105
0.01150000 0.01145670 76820.34320801 0 -3990.18905652 0 35868.35335701 0 -665.19648706 0 -10942.69003967 0 144
0.01250000 0.01249090 73628.85630228 0 -475.02377214 0 49652.17980050 0 2897.31737994 0 -1818.77329169 0 169
0.01350000 0.01339930 79371.18539973 0 7437.55738881 0 50538.74084873 0 1589.90833768 0 -17809.28085455 0 180
0.01450000 0.01448870 72411.89708147 0 7599.27976511 0 46234.48529873 0 6322.60749654 0 -13367.50703030 0 267
0.01550000 0.01550050 68881.04342005 0 2320.27209970 0 38449.42299549 0 9169.74510041 0 8175.19566822 0 238
0.01650000 0.01653350 74070.19916955 0 -8247.15470722 0 31319.84232151 0 3521.18752185 0 -26107.10252014 0 315
0.01750000 0.01747870 74937.71581909 0 -2561.74843167 0 32336.17101662 0 12649.46676581 0 -13131.44506517 0 297
0.01850000 0.01844180 81471.71614107 0 1535.68716305 0 37162.70812831 0 -12449.83274933 0 -31071.49007583 0 388
0.01950000 0.01947590 77851.84098811 0 4518.91471126 0 41746.87204973 0 1329.67548747 0 -6476.77854732 0 399
0.02050000 0.02045430 82271.58088597 0 4880.01644057 0 64536.81677745 0 -3034.58099072 0 -6893.92838486 0 462
0.02150000 0.02154770 74852.68036449 0 6369.19983938 0 56804.90163334 0 11883.48333486 0 17937.16620621 0 571
0.02250000 0.02255340 80168.94640291 0 3498.11279693 0 67398.56985008 0 16950.84351136 0 30085.94244372 0 510
0.02350000 0.02348930 71552.02033605 0 4098.53175487 0 52268.12726215 0 30983.90798651 0 28526.73766276 0 555
0.02450000 0.02439640 75184.62866255 0 1323.50820255 0 60832.45978612 0 25739.94422916 0 37396.44490523 0 592
0.02550000 0.02547300 68978.25843195 0 -2273.62439524 0 36732.88047885 0 20074.67851245 0 21822.44498507 0 837
0.02650000 0.02652900 70221.34833934 0 1401.18056115 0 37996.67563365 0 12103.71187550 0 14709.02990533 0 723
0.02750000 0.02749970 63287.08347517 0 2756.24488943 0 25484.61641884 0 -289.38517423 0 11147.28445767 0 826
0.02850000 0.02848090 66785.38450162 0 4233.78020253 0 32955.55686697 0 1935.87419897 0 14784.54316059 0 831
0.02950000 0.02946900 60903.54411146 0 825.94560601 0 25774.26843609 0 -1759.45884763 0 11436.60430518 0 996
0.03050000 0.03053250 63350.74934288 0 1871.35576225 0 31999.01872589 0 -2733.31410473 0 1729.91788502 0 1041
0.03150000 0.03150510 62633.92703412 0 1423.54665728 0 32064.78833531 0 -3087.62849893 0 5284.18951343 0 1036
0.03250000 0.03246190 61956.52220171 0 4599.75375476 0 37922.38033412 0 -2133.18302724 0 -1612.80590541 0 1059
0.03350000 0.03345080 56128.93620316 0 3971.12251318 0 36943.36537365 0 4275.36785455 0 8589.10131459 0 1302
0.03450000 0.03451200 54979.51816374 0 -620.65363155 0 29803.48743760 0 11277.38427429 0 177.51483319 0 1339
0.03550000 0.03553350 53125.23592636 0 -2660.43606277 0 24161.69504951 0 11908.17461921 0 -6083.77745020 0 1365
0.03650000 0.03647120 55244.81106639 0 651.08702354 0 19464.26124519 0 12471.53450598 0 -7641.49853964 0 1308
0.03750000 0.03744890 52383.16871702 0 2603.45787926 0 12469.09859452 0 3403.74337250 0 -7267.48647959 0 1579
0.03850000 0.03847530 50456.58419857 0 1916.30940101 0 10885.28003548 0 -431.38995449 0 -3357.02923409 0 1662
0.03950000 0.03950240 47245.38855467 0 2434.42776858 0 8950.97810664 0 -1612.39622939 0 -5895.38184341 0 1683
0.04050000 0.04050350 46788.32298615 0 3221.84722038 0 15431.94199274 0 -3534.75111975 0 -1920.82690954 0 1822
0.04150000 0.04152450 44167.83587132 0 1757.04508082 0 14411.62726070 0 84.02366557 0 -629.65100269 0 1887
0.04250000 0.04250150 44511.74228019 0 556.47400797 0 14373.20629358 0 2903.76147299 0 1520.92775406 0 1920
0.04350000 0.04349210 42660.89246351 0 770.49429609 0 17058.68795510 0 2506.09892713 0 1332.60965355 0 2005
0.04450000 0.04448520 41957.68911427 0 1664.41401139 0 15657.37452605 0 1082.36404032 0 4845.28255761 0 2151
0.04550000 0.04548030 41699.48249950 0 1043.28316264 0 18382.16294067 0 1421.46506022 0 -655.63664181 0 2274
0.04650000 0.04648670 39229.35755571 0 383.57633423 0 18193.37980251 0 -1817.43354038 0 3801.27305046 0 2311
0.04750000 0.04749250 39427.44144672 0 1629.24830776 0 17754.14067695 0 -779.99324355 0 2114.92476361 0 2568
0.04850000 0.04851840 38701.31838511 0 938.34409694 0 19483.19492063 0 687.10751064 0 4779.21399542 0 2493
0.04950000 0.04949480 39579.79663622 0 -625.07259638 0 19377.01132562 0 2393.99163834 0 2014.27733101 0 2644
0.05050000 0.05050630 40155.66825004 0 -316.92868945 0 17790.23645586 0 3184.99852338 0 2570.86095499 0 2829
0.05150000 0.05149060 38868.73193637 0 -461.98389520 0 16849.42101602 0 623.13161784 0 139.77924298 0 2784
0.05250000 0.05249300 40851.78531139 0 2040.67375338 0 16997.12582910 0 1291.70848567 0 213.72465704 0 3055
0.05350000 0.05348950 38348.99700938 0 2204.30056955 0 17846.04097295 0 897.73745290 0 2808.67234745 0 3009
0.05450000 0.05448610 35482.03994409 0 2308.11468705 0 17392.73999487 0 85.91459720 0 1580.30863207 0 3336
0.05550000 0.05550870 34707.42009978 0 1095.59103955 0 15052.05052821 0 1505.52615024 0 2314.64735869 0 3349
0.05650000 0.05647670 33636.94773631 0 895.39344174 0 14847.32324232 0 3298.86631182 0 -418.43201276 0 3324
0.05750000 0.05747970 32090.80829863 0 722.28428659 0 16240.99676724 0 1437.44242493 0 2508.70092346 0 3639
0.05850000 0.05849280 31375.53611535 0 1662.23276340 0 13837.97011185 0 2815.65898441 0 3333.47839920 0 3846
0.05950000 0.05951020 29422.26729409 0 876.88605080 0 12898.59407423 0 2863.10389626 0 5648.38042136 0 3787
0.06050000 0.06049470 29924.17577812 0 -397.04471014 0 10836.22963654 0 3971.41039363 0 7110.97916828 0 3930
0.06150000 0.06148310 30581.65042585 0 -1912.63338917 0 10391.88616924 0 3063.19187805 0 5132.57616968 0 4083
0.06250000 0.06249100 32498.38057521 0 -1182.35820576 0 10943.44295776 0 482.48098290 0 5870.57983582 0 4303
0.06350000 0.06350600 32640.88139562 0 113.95415257 0 9536.49371538 0 -1437.48671423 0 4677.58112591 0 4470
0.06450000 0.06451750 32215.37195284 0 1004.24103810 0 11982.24847224 0 -838.89468988 0 7327.11094874 0 4479
0.06550000 0.06550280 32588.73074573 0 1098.49088142 0 12195.61217150 0 -1650.13071237 0 4454.19697269 0 4636
0.06650000 0.06648880 31218.64127267 0 -168.20522248 0 12642.04830819 0 56.69672502 0 4031.11236905 0 4653
0.06750000 0.06749660 31175.12703613 0 860.69277576 0 12932.14321843 0 1143.93723864 0 1972.78932991 0 5220
0.06850000 0.06852730 30937.40422228 0 -69.41428658 0 11904.74219851 0 856.77317277 0 2670.98798833 0 5029
0.06950000 0.06949320 30477.01695632 0 399.42083104 0 11301.30049590 0 -313.74207436 0 1.91360775 0 5040
0.07050000 0.07048030 30535.81100110 0 856.92929255 0 10591.77484919 0 17.05802362 0 -438.39762887 0 5475
0.07150000 0.07148790 29349.96501303 0 500.78132136 0 10637.04958538 0 -80.85388042 0 398.53172336 0 5509
0.07250000 0.07249820 29187.53400794 0 900.13461122 0 11427.30355233 0 352.09771477 0 -1839.91035976 0 5916
0.07350000 0.07351270 27918.42413722 0 772.82391323 0 11230.65906355 0 527.50880624 0 -703.74810761 0 5721
0.07450000 0.07449140 27685.79459278 0 809.20314365 0 11973.61205888 0 262.37645230 0 -137.50609469 0 6028
0.07550000 0.07549160 27546.94763956 0 169.25266441 0 11104.54528387 0 1777.82783451 0 1242.19304908 0 6183
0.07650000 0.07648840 27029.75934728 0 51.61220274 0 10296.97420090 0 2164.65057437 0 2410.23473885 0 6330
0.07750000 0.07749960 27094.42172422 0 268.55591678 0 9378.19268744 0 604.01635627 0 1431.52980348 0 6583
0.07850000 0.07848650 26827.02507985 0 662.50148320 0 10396.41475009 0 -4.41307436 0 1129.62072265 0 6549
0.07950000 0.07947320 26496.73763051 0 815.99601493 0 9954.48504961 0 -294.38654335 0 -516.87273102 0 6828
0.08050000 0.08048110 24987.35831123 0 805.10416900 0 9464.99971402 0 -774.95533575 0 92.12750010 0 7147
0.08150000 0.08149960 25207.14395888 0 603.29886963 0 9750.17851205 0 -995.33335278 0 29.40477302 0 7386
0.08250000 0.08250610 24865.23056848 0 127.68826427 0 9714.24881802 0 867.16676408 0 -872.24010331 0 7227
0.08350000 0.08350160 24669.25041919 0 -247.11325254 0 9733.70289272 0 1560.12378392 0 -545.60541393 0 7798
0.08450000 0.08449610 24157.48756607 0 413.58122725 0 9238.98034750 0 1800.12749669 0 -1310.99647550 0 7371
0.08550000 0.08548940 23836.27942309 0 846.51798552 0 7820.80376775 0 1089.64298666 0 -727.36426922 0 8256
0.08650000 0.08650700 22790.16617422 0 831.50169860 0 7593.73253037 0 1257.80502707 0 -951.89219359 0 8037
0.08750000 0.08749060 21844.14674171 0 1090.48116165 0 6875.05007104 0 -483.20954188 0 -830.39557335 0 8155
0.08850000 0.08849210 21084.36381266 0 649.60665372 0 6915.53049058 0 -369.36611256 0 -1835.66965936 0 8718
0.08950000 0.08949900 20677.45587557 0 1061.54474797 0 7094.92429729 0 -978.15464083 0 -1178.21715628 0 8571
0.09050000 0.09049190 19938.59964043 0 441.97288255 0 6977.42478632 0 302.64317597 0 -318.07356783 0 8932
0.09150000 0.09150830 20032.49295489 0 -150.51939805 0 6958.03714556 0 729.52115809 0 135.75666737 0 9285
0.09250000 0.09250820 19678.62145368 0 48.40665398 0 7500.00530078 0 1399.80759287 0 486.25553843 0 9204
0.09350000 0.09350330 19837.50931483 0 146.14472251 0 6904.83462481 0 1484.76554121 0 187.42013497 0 9349
0.09450000 0.09448040 19648.61545343 0 331.98040780 0 7609.10091722 0 1095.81691498 0 2758.80259646 0 9564
0.09550000 0.09549270 19156.56133848 0 293.08997411 0 6298.68020261 0 921.75664713 0 1422.48371410 0 10155
0.09650000 0.09649430 19050.70991322 0 491.97993036 0 6971.68932206 0 -162.10437151 0 2946.53386376 0 9913
0.09750000 0.09749140 18546.80841072 0 800.65309443 0 6711.79971392 0 -982.95560087 0 1419.06236573 0 10476
0.09850000 0.09850240 17830.20754846 0 605.67941946 0 7000.73203006 0 -415.67278941 0 2335.07579798 0 10575
0.09950000 0.09950330 17495.60189244 0 403.38029440 0 7207.19767095 0 221.75984317 0 1513.27677761 0 10882
0.10050000 0.10051200 17167.52890806 0 394.05075351 0 7475.86763268 0 303.64300690 0 1740.10442385 0 10875
0.10150000 0.10150300 16852.85343672 0 231.21450133 0 7046.26142971 0 1215.74126509 0 1721.41433955 0 11118
0.10250000 0.10250800 16554.56500610 0 110.65792147 0 6410.70998512 0 792.36988823 0 2495.39198903 0 11575
0.10350000 0.10349800 16581.36003216 0 4.54495682 0 5958.19514211 0 1787.43861245 0 2650.47097044 0 11364
0.10450000 0.10450100 16703.15560517 0 73.86226091 0 5939.33897294 0 252.82325044 0 2259.73969991 0 12093
0.10550000 0.10551000 16254.17283377 0 477.13194278 0 5612.55037825 0 -20.25327511 0 2103.56455835 0 12067
0.10650000 0.10649700 16033.27995364 0 359.97678111 0 5503.55441273 0 -619.42238903 0 2092.51437818 0 12054
0.10750000 0.10749900 15137.86104556 0 796.25516701 0 5719.88549504 0 27.22684673 0 1884.10000812 0 12807
0.10850000 0.10850100 15675.97603174 0 58.52830899 0 6086.04727679 0 -309.11494982 0 984.11819497 0 12736
0.10950000 0.10950300 14957.27142776 0 -115.54081672 0 5468.73195118 0 247.64029520 0 805.34443845 0 12933
0.11050000 0.11050200 15261.64963703 0 68.25844660 0 5257.21733017 0 -170.49830095 0 -432.61898255 0 13428
0.11150000 0.11150900 15325.53695123 0 40.66898123 0 5150.39154032 0 -45.68308352 0 -831.93905543 0 13453
0.11250000 0.11250000 14998.68192259 0 290.44479571 0 5255.32396262 0 -469.18976419 0 -1333.32935466 0 13668
0.11350000 0.11349100 14637.05979401 0 576.96888121 0 5601.90987410 0 -408.71051157 0 -634.49514480 0 13791
0.11450000 0.11448600 14401.32999862 0 203.15612301 0 5836.89782372 0 312.60051767 0 -586.95943989 0 14205
0.11550000 0.11549300 14142.23759786 0 146.50900200 0 5987.02747594 0 639.50869348 0 -173.77349463 0 14776
0.11650000 0.11649800 14299.68605679 0 41.64976776 0 5914.17157863 0 256.60666383 0 -167.37036919 0 14553
0.11750000 0.11747300 14169.91840991 0 91.09290207 0 5973.31993781 0 464.67668459 0 141.19317885 0 14568
0.11850000 0.11849100 13950.13276226 0 396.87641080 0 5633.28884263 0 -106.79921627 0 696.46694681 0 16015
0.11950000 0.11950300 13742.41594866 0 131.72523390 0 5785.01290962 0 283.00751513 0 406.54808653 0 15270
0.12050000 0.12050700 13557.17595445 0 163.09091565 0 5355.32920039 0 880.71153903 0 282.21695114 0 15999
0.12150000 0.12150000 13297.08704446 0 219.73139326 0 4496.00607121 0 454.09597100 0 363.06817420 0 15670
0.12250000 0.12250700 13446.12053652 0 18.81176914 0 4330.24229635 0 1027.92141919 0 -29.96292891 0 16887
0.12350000 0.12352200 13083.94479170 0 -3.36898734 0 3909.05106025 0 644.47020223 0 377.82426148 0 16407
0.12450000 0.12449800 13239.17878566 0 124.76849222 0 3860.12245688 0 4.63466479 0 97.18113059 0 16306
0.12550000 0.12549900 12957.94173526 0 352.31583957 0 4063.95288446 0 198.75376666 0 731.40566778 0 17523
0.12650000 0.12650100 12906.45542486 0 128.66484332 0 4010.14138584 0 191.10389744 0 1092.83292344 0 17154
0.12750000 0.12750600 12657.88173268 0 70.92388735 0 4064.17433096 0 369.90312031 0 1219.53907250 0 18007
0.12850000 0.12850300 12744.68875925 0 144.12070154 0 4152.26574722 0 71.07723905 0 936.30568194 0 17496
0.12950000 0.12949900 12639.72311997 0 166.87211457 0 4010.52891721 0 41.70424360 0 1051.77120685 0 18405
0.13050000 0.13049000 12259.94237869 0 182.92366386 0 3993.01249935 0 -167.28843399 0 1402.34315526 0 18100
0.13150000 0.13148800 12360.92198104 0 199.44357249 0 3550.81706307 0 101.36801950 0 636.44387397 0 19059
0.13250000 0.13249300 12055.76870904 0 -19.20594391 0 3758.51173201 0 87.56492721 0 520.22321651 0 18957
0.13350000 0.13349100 12091.64304145 0 67.71501689 0 3449.87067769 0 150.93682470 0 -149.41327280 0 19468
0.13450000 0.13450700 12173.91041485 0 -68.88669031 0 3418.20382871 0 -81.21129506 0 -44.73219227 0 19953
0.13550000 0.13551000 12266.58577359 0 -63.32295781 0 3467.32066161 0 -312.41007369 0 -666.55949024 0 19956
0.13650000 0.13649900 12300.68853403 0 225.78463324 0 3733.21146980 0 -43.46108938 0 -214.72338074 0 19723
0.13750000 0.13749600 12210.78125650 0 212.50005792 0 3836.59376664 0 -216.52374076 0 17.77872124 0 20946
0.13850000 0.13851100 11960.10382261 0 262.49935510 0 3905.93973697 0 -64.59062828 0 32.79921564 0 20955
0.13950000 0.13949800 12019.67293013 0 242.97995368 0 4037.15785840 0 126.35404913 0 407.25007192 0 20506
0.14050000 0.14048300 11709.53711196 0 -46.41241756 0 3926.40139324 0 384.38350671 0 517.80059184 0 21447
0.14150000 0.14148400 11842.62645628 0 39.64844505 0 4287.13773583 0 399.66552942 0 546.51998796 0 21771
0.14250000 0.14249400 11815.94215347 0 103.97743429 0 3834.21321680 0 362.87330128 0 -77.01466251 0 22470
0.14350000 0.14350900 11340.05363276 0 388.31971818 0 3709.88208141 0 90.96855986 0 341.12504087 0 22519
0.14450000 0.14449900 11341.93592798 0 251.33845169 0 3689.53114839 0 -126.37951548 0 -203.53701098 0 22218
0.14550000 0.14550500 10961.47977489 0 118.50266360 0 3454.46569249 0 361.88011375 0 -213.37255712 0 23559
0.14650000 0.14650700 10846.46046467 0 232.73030260 0 3304.46890818 0 -79.67921748 0 -453.38955667 0 23044
0.14750000 0.14750500 10673.85399307 0 286.96587125 0 3094.60406356 0 178.19799563 0 -300.25376827 0 23649
0.14850000 0.14849900 10484.39544310 0 98.85006211 0 3161.33696525 0 263.80478220 0 -450.69566005 0 23640
0.14950000 0.14949500 10354.64994088 0 143.54494065 0 3120.54652061 0 140.18116837 0 -476.82745385 0 24457
0.15050000 0.15050000 10222.92249251 0 224.10496156 0 3106.08606440 0 161.67587254 0 -547.09021268 0 24591
0.15150000 0.15149900 10046.06424818 0 172.05949875 0 2962.38943290 0 -111.09306384 0 -359.05002752 0 25020
0.15250000 0.15250500 9928.97441322 0 179.93745786 0 3057.34569055 0 -203.54033268 0 -356.12029037 0 25297
0.15350000 0.15350100 9716.16433021 0 166.74589007 0 3060.81132822 0 -237.04629481 0 -434.19568160 0 25452
0.15450000 0.15450400 9720.28323504 0 -3.58235104 0 2889.77712674 0 247.93039011 0 -785.03890197 0 26061
0.15550000 0.15549900 9700.15374852 0 30.65727440 0 2789.35114064 0 144.00997829 0 -736.25977498 0 26128
0.15650000 0.15649500 9676.83543245 0 -29.10083770 0 2391.75502873 0 236.27123207 0 -1020.87831337 0 26331
0.15750000 0.15749700 9523.86019276 0 101.84534742 0 2456.35097172 0 441.18564026 0 -693.62025210 0 27345
0.15850000 0.15849900 9485.50565959 0 166.06826379 0 1931.42312439 0 519.46254780 0 -681.12513354 0 26980
0.15950000 0.15949700 9433.68717944 0 -3.28448336 0 1952.23909505 0 721.33206666 0 -101.83150702 0 27777
0.16050000 0.16050000 9379.26670295 0 -35.09661232 0 1735.44297510 0 489.82747042 0 186.02502205 0 28224
0.16150000 0.16150500 9372.34649994 0 250.87119958 0 2148.49605246 0 -50.85983827 0 266.76773632 0 28075
0.16250000 0.16249700 9177.85004218 0 323.16794448 0 2066.72693367 0 -479.52577941 0 753.63778878 0 28590
0.16350000 0.16349900 8896.09259252 0 278.98826122 0 2388.17866781 0 -449.85305613 0 987.18301448 0 29163
0.16450000 0.16449100 8878.10006469 0 124.00118011 0 2831.52562587 0 -234.77646822 0 1026.72117918 0 28996
0.16550000 0.16550500 8782.29123803 0 -3.69673923 0 2968.13596948 0 72.60433409 0 847.47463439 0 30777
0.16650000 0.16650700 8772.16006082 0 126.72165032 0 3092.42281557 0 76.21047956 0 490.06441817 0 29211
0.16750000 0.16749900 8572.43746574 0 251.78798807 0 2833.68472921 0 146.96739625 0 628.92022926 0 30922
0.16850000 0.16850800 8477.32619555 0 145.73615373 0 2722.81754080 0 188.46757690 0 768.20121762 0 30867
0.16950000 0.16949900 8327.50656843 0 77.08751841 0 2753.72039937 0 127.26640870 0 859.26223139 0 30852
0.17050000 0.17049200 8363.42519014 0 61.83671965 0 2751.70523625 0 138.89567146 0 796.63384052 0 31257
0.17150000 0.17149500 8311.19703397 0 52.96081190 0 2552.07121977 0 273.45652774 0 838.79061003 0 32608
0.17250000 0.17250900 8217.07120069 0 78.30248461 0 2391.86575197 0 200.84532882 0 560.90958129 0 32361
0.17350000 0.17350400 8133.47514831 0 106.59880719 0 2272.53930740 0 125.62438293 0 522.55726258 0 32508
0.17450000 0.17449800 8009.74191846 0 46.20204339 0 2178.60170364 0 145.53020849 0 352.05563993 0 32791
0.17550000 0.17549800 7974.74229971 0 104.14019747 0 2138.50881547 0 9.65281956 0 489.23510104 0 33633
0.17650000 0.17650100 7861.28418729 0 163.60577875 0 1991.04759354 0 126.50573998 0 234.18631331 0 33984
0.17750000 0.17750300 7708.13179040 0 180.30727351 0 1874.13491578 0 228.04892366 0 666.05791393 0 34069
0.17850000 0.17849800 7565.63096998 0 164.58346503 0 1845.56831775 0 139.08390098 0 291.43133985 0 34536
