### header ###
fiducial parameters:
Omega_m = 0.31
Omega_nu = 0
Omega_de = 0.69
Omega_k = 0
H_0 = 100
w_de = -1
zeff = 0
beta = 0
fgrowth = 0
b_1 = 2
gamma = 0.55
Lx = 3500 Ly = 3500 Lz = 3500
nx = 700 ny = 700 nz = 700
xoffset = -685.467585 yoffset = -31.7331281 zoffset = 572.489161
bins = 400 dk = 0.001
kx_ny = 0.628318531 ky_ny = 0.628318531 kz_ny = 0.628318531
############################
A(data) = 8.00049747 (not used)
A(ran) = 7.99720834 (used)
Ngal = 475203
weighted Ngal = 0
Nran = 23820508
weighted Nran = 0
SN(data) = 3485.74089
SN(ran) = 69.6585849
SN(data+ran) = 3555.39948
############################
13 columns: k_central k_mean P_0(k) sigma^{lin}_{P_0(k)} P^img_1(k) sigma^{lin}_{P_1(k)} P_2(k) sigma^{lin}_{P_2(k)} P^img_3(k) sigma^{lin}_{P_3(k)} P_4(k) sigma^{lin}_{P_4(k)} N_modes
### header ###
0.00050000 0 0 0 0 0 0 0 0 0 0 0 0
0.00150000 0.00179520 19032.77274701 0 -17366.83075480 0 23461.92412097 0 -25408.66027058 0 -16335.77586769 0 3
0.00250000 0.00253879 48252.97011316 0 -23088.12243509 0 7047.85584449 0 -28077.53344487 0 49592.27852323 0 6
0.00350000 0.00331552 49701.23019944 0 -10020.91899852 0 -21972.91787936 0 3497.76955486 0 -21524.82089394 0 7
0.00450000 0.00420575 60512.02670587 0 -12445.73598915 0 -29087.10802183 0 -20572.04734330 0 35582.46593019 0 24
0.00550000 0.00557378 72179.04609053 0 -15252.79177717 0 -28865.66152546 0 -15790.02097738 0 -5895.79151943 0 45
0.00650000 0.00659388 113430.43160462 0 -41712.65856604 0 -14949.41007714 0 -16255.28006625 0 6178.05829603 0 40
0.00750000 0.00754703 117705.45621710 0 -14030.40711720 0 -28199.99335736 0 -12694.19895808 0 8396.83039412 0 57
0.00850000 0.00846663 123420.99028849 0 -1674.75556277 0 -28940.95333423 0 -24085.51745475 0 -10401.86233390 0 75
0.00950000 0.00948925 112590.04215089 0 817.68786616 0 -28081.40875855 0 -23322.30210500 0 6925.41807664 0 112
0.01050000 0.01054430 113345.17470352 0 5385.11375415 0 8678.84250725 0 -6446.32965407 0 15855.34769381 0 105
0.01150000 0.01145670 107021.54855309 0 3250.01521472 0 1412.82864686 0 -15222.56433042 0 2949.68947634 0 144
0.01250000 0.01249090 98642.67746983 0 15516.97744735 0 14737.48578011 0 4833.36873611 0 7849.12677464 0 169
0.01350000 0.01339930 82508.97153009 0 21829.30982646 0 -3168.51183173 0 -6454.63389768 0 -10100.04183167 0 180
0.01450000 0.01448870 75595.74408307 0 4356.07403015 0 7635.40876099 0 -7221.33702975 0 2581.06963847 0 267
0.01550000 0.01550050 71164.37824415 0 3617.39495220 0 11498.94149391 0 -21554.05183147 0 2299.42291206 0 238
0.01650000 0.01653350 65049.24397006 0 8448.82603147 0 14766.82744088 0 -4490.43669183 0 -8815.66322503 0 315
0.01750000 0.01747870 61391.05857323 0 -2155.52697872 0 13531.93105386 0 -1764.58533402 0 -19450.19939268 0 297
0.01850000 0.01844180 67508.62875878 0 -4607.95834745 0 15119.59170961 0 -2555.48149582 0 -18469.41286024 0 388
0.01950000 0.01947590 70477.11904265 0 -4526.82035118 0 20093.83363438 0 -8349.34119297 0 -15854.90480081 0 399
0.02050000 0.02045430 77516.12809961 0 -5164.61947771 0 22521.88374386 0 -1479.47296994 0 -6058.93115331 0 462
0.02150000 0.02154770 81514.23386838 0 747.90786069 0 27291.50910599 0 -7190.36773723 0 -8072.58843413 0 571
0.02250000 0.02255340 87981.57879495 0 1837.74018410 0 33298.24532011 0 -3861.06360448 0 -15804.19355314 0 510
0.02350000 0.02348930 77807.44096559 0 8168.58549031 0 43462.41805713 0 -6990.58978053 0 -1595.36699382 0 555
0.02450000 0.02439640 75807.77910334 0 8636.25834600 0 39748.20669671 0 -1785.95492092 0 -11262.65808228 0 592
0.02550000 0.02547300 68195.22362078 0 4670.77164615 0 45163.34859577 0 8497.07922303 0 -1058.31605805 0 837
0.02650000 0.02652900 64093.25944522 0 4998.11385709 0 39487.67489373 0 13393.52699363 0 1035.85363269 0 723
0.02750000 0.02749970 59447.42267456 0 1335.67668752 0 33462.89079016 0 18930.13229594 0 4137.55062753 0 826
0.02850000 0.02848090 60481.79925912 0 -1545.98442513 0 29100.39481161 0 20848.41257077 0 9206.59379741 0 831
0.02950000 0.02946900 59098.53371952 0 -1787.48290175 0 18868.01655371 0 14335.00677296 0 6710.17208217 0 996
0.03050000 0.03053250 62238.09142185 0 224.61207404 0 17087.69744612 0 7215.36904667 0 2283.77771709 0 1041
0.03150000 0.03150510 57755.01782603 0 1859.41979609 0 17966.84003672 0 -11649.19294170 0 9118.61310440 0 1036
0.03250000 0.03246190 57585.83270280 0 7575.61820697 0 20574.26180826 0 -3708.76377660 0 4729.94214998 0 1059
0.03350000 0.03345080 52331.90385311 0 5659.78491592 0 24941.62960973 0 -9619.04896922 0 11199.32438432 0 1302
0.03450000 0.03451200 47398.40808366 0 1881.55337341 0 22771.67539177 0 5273.11718861 0 3538.17246812 0 1339
0.03550000 0.03553350 48365.13276358 0 -1381.90364364 0 22994.78273687 0 8960.81033108 0 -1275.58718073 0 1365
0.03650000 0.03647120 46884.87365857 0 -1502.22659745 0 17952.33529121 0 5962.34726392 0 -1695.83726922 0 1308
0.03750000 0.03744890 49655.05860495 0 -497.87151440 0 12795.84289992 0 4951.97547957 0 -6040.94969781 0 1579
0.03850000 0.03847530 47288.23845172 0 2274.93092956 0 12696.63486954 0 -3039.53031992 0 2071.27765917 0 1662
0.03950000 0.03950240 46189.53165996 0 3187.46765182 0 13706.32016975 0 100.11319293 0 -957.47596699 0 1683
0.04050000 0.04050350 44663.32240696 0 -631.18894861 0 13866.53670988 0 -462.41793033 0 1829.46915746 0 1822
0.04150000 0.04152450 45580.11090194 0 -114.80450711 0 15085.37822592 0 3047.61311703 0 996.71517892 0 1887
0.04250000 0.04250150 45932.76444742 0 -418.67560390 0 12571.73904559 0 2392.13148777 0 174.31603855 0 1920
0.04350000 0.04349210 44729.75635587 0 1860.11735256 0 12749.44985893 0 2434.58278112 0 1348.91918801 0 2005
0.04450000 0.04448520 43616.54481860 0 2508.51269394 0 14090.08694797 0 -1188.54763533 0 4742.35422610 0 2151
0.04550000 0.04548030 42288.97307285 0 2174.32778626 0 14263.92244762 0 1543.41564577 0 4105.67340438 0 2274
0.04650000 0.04648670 40575.08791417 0 396.67489449 0 14829.49679936 0 -834.12694682 0 4108.18682211 0 2311
0.04750000 0.04749250 40163.52960066 0 -205.85444856 0 17038.42560068 0 894.31499730 0 4330.78484027 0 2568
0.04850000 0.04851840 41538.93378963 0 150.39538801 0 15736.54164850 0 1159.31669781 0 4429.72713485 0 2493
0.04950000 0.04949480 40231.51367505 0 388.72275080 0 15545.10115239 0 1474.40184518 0 4379.43663552 0 2644
0.05050000 0.05050630 40651.37623217 0 1741.25594563 0 18388.36344257 0 -2572.66574394 0 4339.98594219 0 2829
0.05150000 0.05149060 38845.03716126 0 2662.50658752 0 16935.34225662 0 745.66128598 0 3078.77063907 0 2784
0.05250000 0.05249300 37743.89445804 0 1795.96430256 0 21059.00818882 0 -1019.64707085 0 1396.53018473 0 3055
0.05350000 0.05348950 34753.37024777 0 2068.71995214 0 17300.72897563 0 -313.08437827 0 4567.45578326 0 3009
0.05450000 0.05448610 35760.84108302 0 -321.27789864 0 18972.31785350 0 2831.22667310 0 -1867.72403971 0 3336
0.05550000 0.05550870 34777.61863913 0 -330.73809296 0 16821.07586449 0 924.46604501 0 -1165.20717462 0 3349
0.05650000 0.05647670 35343.96805360 0 886.61419539 0 15431.05620675 0 1046.93592260 0 -4704.78582799 0 3324
0.05750000 0.05747970 34556.61503575 0 694.78838237 0 15350.44968207 0 -1834.41848665 0 -3005.32790855 0 3639
0.05850000 0.05849280 33587.89733736 0 154.48993373 0 15145.72239618 0 503.97015091 0 -4567.36720467 0 3846
0.05950000 0.05951020 34985.66762247 0 -358.59716944 0 16175.11643457 0 1704.60655048 0 -4514.68508318 0 3787
0.06050000 0.06049470 33489.24292323 0 312.07236778 0 16612.03037191 0 2210.77787956 0 -3854.60843912 0 3930
0.06150000 0.06148310 33950.40525193 0 776.02713680 0 14102.15578202 0 1295.21841264 0 -4156.99362991 0 4083
0.06250000 0.06249100 33104.03674279 0 1136.68486588 0 16414.72154364 0 1053.47080871 0 -1363.16927005 0 4303
0.06350000 0.06350600 32107.19533937 0 1429.55892966 0 14681.45981653 0 552.80021059 0 1219.68301272 0 4470
0.06450000 0.06451750 30662.69984353 0 362.08273729 0 13299.41223267 0 2556.40049878 0 1650.70647326 0 4479
0.06550000 0.06550280 31097.51003915 0 -950.06525999 0 13116.27598017 0 3380.12610366 0 2403.66885023 0 4636
0.06650000 0.06648880 30823.24855340 0 -221.49078567 0 11428.85367781 0 2071.35516545 0 -2214.05528771 0 4653
0.06750000 0.06749660 30637.01204995 0 1178.08428838 0 11301.41121914 0 1122.54550709 0 -3144.09735550 0 5220
0.06850000 0.06852730 29415.73462245 0 1315.37004381 0 8930.68253525 0 -1575.20429032 0 -1815.21907542 0 5029
0.06950000 0.06949320 28996.09351182 0 796.51868834 0 9674.83134166 0 -697.75797989 0 -1329.22152215 0 5040
0.07050000 0.07048030 28822.47945867 0 -577.92442284 0 10981.90821418 0 -1323.20924978 0 -3354.84798610 0 5475
0.07150000 0.07148790 28847.94580575 0 666.30593401 0 11706.87975400 0 -263.57779954 0 -729.81014577 0 5509
0.07250000 0.07249820 28637.35018770 0 652.86080998 0 11391.98283616 0 612.99047554 0 -1330.46162253 0 5916
0.07350000 0.07351270 28169.10157112 0 196.10969549 0 11515.43925789 0 2417.56461788 0 522.76320783 0 5721
0.07450000 0.07449140 27648.03796515 0 749.46352232 0 11498.05570792 0 2021.93937978 0 58.41426405 0 6028
0.07550000 0.07549160 27085.89603411 0 490.99449346 0 10256.22804556 0 1811.76451008 0 896.15632492 0 6183
0.07650000 0.07648840 26812.74178083 0 -195.75870279 0 10054.09168367 0 1072.98467397 0 499.68516121 0 6330
0.07750000 0.07749960 26847.84105051 0 330.50446691 0 8768.71656780 0 368.58219196 0 -153.45356413 0 6583
0.07850000 0.07848650 26362.43033046 0 349.06389777 0 8695.37348820 0 -636.68857235 0 895.64367628 0 6549
0.07950000 0.07947320 26785.72530828 0 -120.29859469 0 8327.50656843 0 190.96770784 0 -409.75020287 0 6828
0.08050000 0.08048110 26620.63694523 0 126.78365534 0 8554.62209511 0 253.98584455 0 363.12242859 0 7147
0.08150000 0.08149960 25669.63496656 0 1096.01178789 0 8064.70493886 0 811.90036198 0 -1040.45196919 0 7386
0.08250000 0.08250610 25127.53394344 0 1102.75372648 0 8157.49102084 0 35.15673504 0 -95.49691927 0 7227
0.08350000 0.08350160 23950.32436872 0 1205.54365393 0 7845.37325653 0 556.32231712 0 1186.52139989 0 7798
0.08450000 0.08449610 22841.65248463 0 992.09912670 0 7174.43466181 0 1012.31719182 0 539.08713631 0 7371
0.08550000 0.08548940 22118.96184371 0 308.04757771 0 7076.40029787 0 1307.58619946 0 806.56128695 0 8256
0.08650000 0.08650700 21921.54229220 0 421.33739079 0 6501.73556746 0 429.69478156 0 -874.36598967 0 8037
0.08750000 0.08749060 20973.86201097 0 636.65978430 0 6072.35081099 0 406.45286454 0 -107.79395393 0 8155
0.08850000 0.08849210 20851.95571472 0 666.53180943 0 5966.00113111 0 929.49398771 0 -466.55676535 0 8718
0.08950000 0.08949900 19910.80810513 0 284.26533123 0 5505.89067327 0 1021.84603456 0 153.83223764 0 8571
0.09050000 0.09049190 19980.89592123 0 335.20466879 0 5901.62663461 0 1064.16113832 0 709.87553217 0 8932
0.09150000 0.09150830 19225.43119886 0 580.49873836 0 5587.47156253 0 342.67848804 0 -186.07263304 0 9285
0.09250000 0.09250820 19074.40468833 0 611.14471899 0 6290.94064756 0 -741.34197207 0 907.43570221 0 9204
0.09350000 0.09350330 18386.59187060 0 555.62143896 0 6410.99786557 0 -646.20634276 0 1279.97182136 0 9349
0.09450000 0.09448040 18243.20526419 0 340.84823275 0 6957.70497581 0 -344.91509766 0 2059.24204210 0 9564
0.09550000 0.09549270 18205.11646682 0 -12.42093398 0 6992.10668903 0 -153.92967409 0 663.86116469 0 10155
0.09650000 0.09649430 18144.44012681 0 202.68665643 0 6805.12833981 0 319.79974327 0 1758.81665279 0 9913
0.09750000 0.09749140 17845.93024970 0 546.63624737 0 7187.54429440 0 925.13924236 0 1629.81299633 0 10476
0.09850000 0.09850240 17467.47818740 0 95.00874046 0 6524.31203776 0 1355.46293197 0 3156.64229952 0 10575
0.09950000 0.09950330 17339.26066600 0 -134.71808330 0 6217.84115911 0 1207.90205912 0 2185.01257971 0 10882
0.10050000 0.10051200 17574.54756840 0 85.70566243 0 5539.11872005 0 1445.46986042 0 2155.78164219 0 10875
0.10150000 0.10150300 17436.03278492 0 102.22202791 0 5325.74394847 0 -36.81071892 0 2661.07825761 0 11118
0.10250000 0.10250800 17451.20186992 0 177.68313253 0 5116.20020128 0 -522.86839491 0 2405.38506058 0 11575
0.10350000 0.10349800 17271.49803811 0 200.77225147 0 4939.95093481 0 -368.03411188 0 2497.25213960 0 11364
0.10450000 0.10450100 17036.65402871 0 289.35085002 0 5011.54458709 0 -439.96879176 0 925.46033978 0 12093
0.10550000 0.10551000 16772.46835853 0 474.71596151 0 5405.55326576 0 -462.19426937 0 -94.61478715 0 12067
0.10650000 0.10649700 16198.92193293 0 695.30213824 0 5759.74586439 0 -464.11531773 0 -627.55944054 0 12054
0.10750000 0.10749900 15612.08871754 0 680.72099369 0 5619.31556871 0 130.49731308 0 -906.64403099 0 12807
0.10850000 0.10850100 15363.62574861 0 -13.18558873 0 5516.76369624 0 595.20389295 0 307.88370730 0 12736
0.10950000 0.10950300 15335.28059707 0 -100.38081102 0 5155.10835069 0 1049.30761458 0 -439.42624785 0 12933
0.11050000 0.11050200 15395.62476733 0 120.88985683 0 5569.03614171 0 378.93370843 0 -120.38274436 0 13428
0.11150000 0.11150900 15276.37582904 0 584.92102489 0 5902.88887964 0 69.64780191 0 185.89215415 0 13453
0.11250000 0.11250000 14749.88678391 0 542.11098821 0 5533.61577461 0 -244.73270270 0 1449.45589736 0 13668
0.11350000 0.11349100 14238.67754703 0 329.80358875 0 5797.62428759 0 -5.01695895 0 1786.48639251 0 13791
0.11450000 0.11448600 14390.14695055 0 -63.62633951 0 5835.25911965 0 501.21424926 0 1150.99030955 0 14205
0.11550000 0.11549300 14451.70907655 0 -159.06058941 0 5740.90076754 0 379.72648689 0 893.00957020 0 14776
0.11650000 0.11649800 14546.37745374 0 31.11832601 0 5346.75922098 0 18.25505265 0 1108.84904129 0 14553
0.11750000 0.11747300 14425.57838997 0 -6.47994523 0 5000.99266154 0 197.08184561 0 1136.82880610 0 14568
0.11850000 0.11849100 14419.82078107 0 72.00487842 0 4873.60556450 0 469.19530035 0 428.90864650 0 16015
0.11950000 0.11950300 14469.31407301 0 191.43828165 0 4660.25293757 0 347.65881975 0 732.23498491 0 15270
0.12050000 0.12050700 14009.25897679 0 375.81242006 0 4526.51032609 0 615.21822729 0 590.09401505 0 15999
0.12150000 0.12150000 13725.47529169 0 186.68825430 0 4406.50846970 0 355.00198557 0 1313.67597811 0 15670
0.12250000 0.12250700 13804.19952115 0 -98.53992630 0 4349.96210685 0 622.82934337 0 1079.16524568 0 16887
0.12350000 0.12352200 13787.14814093 0 68.40637286 0 4377.18895358 0 326.57046990 0 952.35169507 0 16407
0.12450000 0.12449800 13644.97949026 0 263.79260264 0 4066.96455681 0 -240.98804245 0 1448.76941322 0 16306
0.12550000 0.12549900 13567.58393978 0 373.24253347 0 4506.87909418 0 -97.28631768 0 1538.28915938 0 17523
0.12650000 0.12650100 13380.79382009 0 291.80669167 0 4555.14335807 0 -586.36485605 0 1289.35008048 0 17154
0.12750000 0.12750600 13287.45412186 0 118.14170581 0 4985.23674332 0 -47.75360826 0 1063.32407056 0 18007
0.12850000 0.12850300 13100.77472542 0 92.32757701 0 4850.59727353 0 -61.19563204 0 806.38080805 0 17496
0.12950000 0.12949900 13041.75923414 0 106.65350448 0 4830.88853535 0 12.48869661 0 727.80051882 0 18405
0.13050000 0.13049000 13015.18565457 0 284.26090230 0 4766.35902631 0 441.77358071 0 480.04064251 0 18100
0.13150000 0.13148800 12620.01438180 0 230.38629143 0 4368.95114392 0 455.70145810 0 337.03160239 0 19059
0.13250000 0.13249300 12293.60224614 0 185.45258285 0 3673.67557925 0 718.11002014 0 149.36898350 0 18957
0.13350000 0.13349100 12381.73795170 0 21.61151720 0 3889.16516487 0 643.88558348 0 144.00887106 0 19468
0.13450000 0.13450700 12291.16633468 0 -83.35279340 0 2999.71423987 0 430.65918105 0 -48.10725832 0 19953
0.13550000 0.13551000 12345.97434254 0 -11.88658359 0 2883.84236064 0 164.35980407 0 266.12997041 0 19956
0.13650000 0.13649900 12124.30639967 0 250.55563832 0 2661.82010338 0 180.13897417 0 505.46159306 0 19723
0.13750000 0.13749600 12121.20614872 0 110.29020956 0 2701.01613324 0 115.49542018 0 437.95252141 0 20946
0.13850000 0.13851100 11947.70281881 0 150.84049547 0 2962.19013106 0 62.08972227 0 263.39067725 0 20955
0.13950000 0.13949800 11750.28326729 0 281.18279600 0 2841.75645400 0 30.37293710 0 210.79270543 0 20506
0.14050000 0.14048300 11748.62241857 0 86.48958303 0 2935.81585334 0 81.59019002 0 456.94377294 0 21447
0.14150000 0.14148400 11479.01130924 0 40.33946884 0 2991.90825087 0 -73.86835069 0 473.46478880 0 21771
0.14250000 0.14249400 11528.83677092 0 248.87928834 0 2824.98188190 0 413.16047891 0 123.63579339 0 22470
0.14350000 0.14350900 11358.10152222 0 58.94783938 0 2666.34868423 0 114.68824770 0 624.98733948 0 22519
0.14450000 0.14449900 11079.30038328 0 287.07327281 0 2520.29364755 0 301.73192363 0 180.85867529 0 22218
0.14550000 0.14550500 11102.66298865 0 235.73533155 0 2424.25230207 0 146.19454798 0 379.99111545 0 23559
0.14650000 0.14650700 10695.65540064 0 124.24587849 0 2174.41636486 0 97.63830689 0 487.11585807 0 23044
0.14750000 0.14750500 10640.82524814 0 238.04280404 0 2178.55741434 0 300.27923462 0 -108.28689383 0 23649
0.14850000 0.14849900 10423.25406545 0 141.38251561 0 1975.36918160 0 45.23321497 0 188.05900811 0 23640
0.14950000 0.14949500 10114.75695136 0 171.61660576 0 1912.13513456 0 -12.15442312 0 -110.59215186 0 24457
0.15050000 0.15050000 10186.84885825 0 162.42436169 0 2108.72426171 0 -233.88403884 0 -155.47758510 0 24591
0.15150000 0.15149900 10029.61077350 0 226.43679317 0 2186.77307936 0 -467.35840167 0 -244.33188454 0 25020
0.15250000 0.15250500 9874.34356257 0 299.68907970 0 2409.60361633 0 -72.78691672 0 -31.23347819 0 25297
0.15350000 0.15350100 9677.85408634 0 187.30719726 0 2504.13912563 0 -218.45807590 0 518.91668218 0 25452
0.15450000 0.15450400 9545.01940549 0 159.46694374 0 2625.76861377 0 65.72377000 0 -41.94318437 0 26061
0.15550000 0.15549900 9546.35915679 0 125.07630285 0 2772.75372574 0 -13.02160760 0 72.57864629 0 26128
0.15650000 0.15649500 9337.93371440 0 199.28302378 0 2751.67201928 0 -44.41131629 0 -25.03862318 0 26331
0.15750000 0.15749700 9258.17975874 0 147.54647884 0 2639.15505447 0 79.23067760 0 86.49589425 0 27345
0.15850000 0.15849900 9121.76871697 0 45.24329078 0 2818.74816303 0 42.24723041 0 -28.97583116 0 26980
0.15950000 0.15949700 9153.73451872 0 105.21963841 0 2535.30772000 0 234.69453302 0 70.11018220 0 27777
0.16050000 0.16050000 9025.92667334 0 43.07123282 0 2452.85211707 0 309.27992746 0 111.65775240 0 28224
0.16150000 0.16150500 9176.31098903 0 -83.55165236 0 2212.83733198 0 172.25437167 0 -102.01586123 0 28075
0.16250000 0.16249700 9214.43300338 0 -21.69865639 0 2462.81720941 0 -26.89379120 0 -152.49470080 0 28590
0.16350000 0.16349900 9063.43970982 0 206.45567580 0 2350.65455900 0 21.24469108 0 1.86266399 0 29163
0.16450000 0.16449100 9000.88107460 0 249.44397691 0 2543.85555476 0 -192.53665627 0 167.50766602 0 28996
0.16550000 0.16550500 8758.10928063 0 196.12851844 0 2313.16366716 0 -1.77472758 0 118.76618493 0 30777
0.16650000 0.16650700 8597.73772795 0 107.02741689 0 2395.65248706 0 313.90926647 0 -99.49657516 0 29211
0.16750000 0.16749900 8587.08615148 0 78.99085104 0 2298.16066703 0 205.64518162 0 146.51232370 0 30922
0.16850000 0.16850800 8510.37708513 0 142.54400248 0 2280.16813920 0 228.58814588 0 233.17430282 0 30867
0.16950000 0.16949900 8364.96424329 0 35.73094581 0 2057.10508341 0 145.48591919 0 358.76879047 0 30852
0.17050000 0.17049200 8359.21770671 0 110.01539446 0 2208.72949947 0 40.13917049 0 337.71587206 0 31257
0.17150000 0.17149500 8239.18263335 0 206.61290281 0 2322.17653957 0 67.63352458 0 456.38351330 0 32608
0.17250000 0.17250900 8186.82160928 0 133.65846182 0 2402.51732845 0 -327.07758238 0 256.70631476 0 32361
0.17350000 0.17350400 8020.02810821 0 140.11030549 0 2300.14261318 0 -110.89044029 0 297.62741282 0 32508
0.17450000 0.17449800 8063.69735730 0 -43.14032413 0 2531.58741886 0 -142.30594750 0 45.12957801 0 32791
0.17550000 0.17549800 8167.51147480 0 -76.53401289 0 2558.41566190 0 -50.06074859 0 -90.07059432 0 33633
0.17650000 0.17650100 8151.21301267 0 -48.10183288 0 2400.20321256 0 207.88179124 0 -92.88362916 0 33984
0.17750000 0.17750300 8195.94520493 0 -11.36275190 0 2244.99136325 0 371.38127567 0 -307.14186154 0 34069
0.17850000 0.17849800 8113.34566179 0 99.09930015 0 1928.67718784 0 255.87810486 0 -402.65616435 0 34536
