### header ###
fiducial parameters:
Omega_m = 0.31
Omega_nu = 0
Omega_de = 0.69
Omega_k = 0
H_0 = 100
w_de = -1
zeff = 0
beta = 0
fgrowth = 0
b_1 = 2
gamma = 0.55
Lx = 3500 Ly = 3500 Lz = 3500
nx = 700 ny = 700 nz = 700
xoffset = -685.467585 yoffset = -31.7331281 zoffset = 572.489161
bins = 400 dk = 0.001
kx_ny = 0.628318531 ky_ny = 0.628318531 kz_ny = 0.628318531
############################
A(data) = 8.06252836 (not used)
A(ran) = 8.05961733 (used)
Ngal = 478362
weighted Ngal = 0
Nran = 23820508
weighted Nran = 0
SN(data) = 3491.38785
SN(ran) = 70.2021899
SN(data+ran) = 3561.59004
############################
13 columns: k_central k_mean P_0(k) sigma^{lin}_{P_0(k)} P^img_1(k) sigma^{lin}_{P_1(k)} P_2(k) sigma^{lin}_{P_2(k)} P^img_3(k) sigma^{lin}_{P_3(k)} P_4(k) sigma^{lin}_{P_4(k)} N_modes
### header ###
0.00050000 0 0 0 0 0 0 0 0 0 0 0 0
0.00150000 0.00179520 28126.58384381 0 -39222.27126783 0 30395.08175266 0 -165120.47278799 0 524.70086467 0 3
0.00250000 0.00253879 46830.28709722 0 -31655.44448677 0 -40576.08442340 0 31450.82792412 0 -41361.11225305 0 6
0.00350000 0.00331552 80413.53405816 0 -37198.47173748 0 -18894.70085652 0 -10636.18594404 0 48059.86876833 0 7
0.00450000 0.00420575 91399.71618971 0 -14701.72217095 0 -19746.16263508 0 -26970.30096300 0 -9813.78901813 0 24
0.00550000 0.00557378 99163.18745956 0 15856.34420304 0 22678.44641680 0 -5025.42928241 0 10896.05340753 0 45
0.00650000 0.00659388 70963.85844168 0 14986.28091879 0 23002.64408749 0 -10576.28466677 0 -6304.22743734 0 40
0.00750000 0.00754703 70767.54612265 0 8142.29979119 0 38088.90809939 0 57195.53325294 0 23840.81907626 0 57
0.00850000 0.00846663 76196.08553473 0 -20340.08213835 0 28199.32901787 0 48887.19287878 0 -27668.74321256 0 75
0.00950000 0.00948925 88212.99038366 0 -24429.20241712 0 24173.65316031 0 14455.80583673 0 -24443.81788588 0 112
0.01050000 0.01054430 109203.57160510 0 -1608.52091570 0 41567.83255741 0 -7695.54255708 0 -5054.39448414 0 105
0.01150000 0.01145670 102912.05519665 0 16231.69601439 0 30900.31193413 0 -23242.47064306 0 18104.57975746 0 144
0.01250000 0.01249090 88230.59538012 0 19796.09882001 0 40886.33096482 0 -21738.62748619 0 20413.49165190 0 169
0.01350000 0.01339930 90243.98692514 0 -1979.47701410 0 32298.63583548 0 -10774.26890685 0 7744.39365418 0 180
0.01450000 0.01448870 89745.40013856 0 -4472.58810422 0 45539.58619311 0 18310.96789208 0 -10989.85814340 0 267
0.01550000 0.01550050 89825.23160050 0 201.28711458 0 44988.07369389 0 1293.63507019 0 -21454.06873835 0 238
0.01650000 0.01653350 90360.02488924 0 10580.70252437 0 37938.32448186 0 5764.15264966 0 -7539.55564503 0 315
0.01750000 0.01747870 85034.79026771 0 14572.61886356 0 44327.60951846 0 -4482.15459286 0 5854.87927923 0 297
0.01850000 0.01844180 70753.15210038 0 17117.70344638 0 38082.04325800 0 9115.39105787 0 12596.87322293 0 388
0.01950000 0.01947590 67711.69519595 0 -1205.16719489 0 45341.39157885 0 23003.75131997 0 16613.24832764 0 399
0.02050000 0.02045430 63524.36339603 0 -3038.53381068 0 35085.98288533 0 18036.70640633 0 -462.04700745 0 462
0.02150000 0.02154770 70828.88680214 0 1238.76062839 0 39710.56079233 0 9062.37676664 0 1069.51682183 0 571
0.02250000 0.02255340 63908.13017425 0 -741.81586757 0 34765.77125157 0 -1226.86895153 0 8003.64106748 0 510
0.02350000 0.02348930 69232.36828654 0 2620.23245136 0 36187.23631179 0 -6451.95439507 0 -2527.47958635 0 555
0.02450000 0.02439640 63686.24078488 0 1600.75921601 0 26261.56145136 0 1988.75562230 0 -10560.69483343 0 592
0.02550000 0.02547300 67069.38963322 0 -3756.56300285 0 27099.29354714 0 535.72225679 0 -21854.55472704 0 837
0.02650000 0.02652900 64813.07128168 0 54.07468778 0 19618.94162291 0 5429.85701874 0 -30449.00397453 0 723
0.02750000 0.02749970 65517.82475638 0 2365.40289566 0 14577.15851674 0 3140.36598204 0 -40161.97947519 0 826
0.02850000 0.02848090 64969.41250812 0 3536.03550943 0 11528.94749417 0 -2038.22676959 0 -35438.19353781 0 831
0.02950000 0.02946900 58505.50000224 0 5236.68923995 0 11235.64160972 0 -242.11077618 0 -17345.90406089 0 996
0.03050000 0.03053250 58206.65795538 0 455.52872983 0 9737.00244552 0 7297.47033520 0 -18624.42540770 0 1041
0.03150000 0.03150510 58063.49279548 0 -1974.47232329 0 12120.76325572 0 5590.42787326 0 -10724.59845772 0 1036
0.03250000 0.03246190 57784.91310304 0 -310.19782319 0 8432.37255679 0 10600.76557694 0 -14429.89659665 0 1059
0.03350000 0.03345080 59050.14766007 0 290.98512516 0 4656.65443200 0 4444.66370103 0 -756.49998475 0 1302
0.03450000 0.03451200 56416.15230896 0 2686.48924307 0 2007.75573169 0 4058.27278183 0 -1375.45955060 0 1339
0.03550000 0.03553350 54675.13995448 0 1358.69605082 0 1711.26101770 0 1080.59911175 0 6431.06091814 0 1365
0.03650000 0.03647120 52668.39180434 0 210.54357812 0 5285.85036215 0 6062.88397327 0 1237.66446823 0 1308
0.03750000 0.03744890 50835.47915387 0 2005.86236415 0 2450.73730303 0 -2063.13950043 0 -141.70139856 0 1579
0.03850000 0.03847530 50258.72175406 0 2468.60803529 0 5300.60977113 0 -4209.28822003 0 -929.06991767 0 1662
0.03950000 0.03950240 48668.07157062 0 4383.12371968 0 8909.22436975 0 -11335.51397959 0 2504.33842748 0 1683
0.04050000 0.04050350 44721.56283551 0 3437.73540969 0 16635.17153078 0 -7817.95818027 0 5427.56504750 0 1822
0.04150000 0.04152450 44244.12418933 0 1778.31501680 0 18630.62590960 0 -3328.60657628 0 926.39816569 0 1887
0.04250000 0.04250150 43387.79058785 0 106.49694180 0 20617.99749130 0 3057.73322192 0 -2043.48612388 0 1920
0.04350000 0.04349210 43003.13802365 0 270.82906506 0 22108.33241189 0 2548.24019539 0 -1531.24716079 0 2005
0.04450000 0.04448520 42225.97154463 0 1673.41581147 0 17418.31706521 0 1331.39169782 0 -6566.43116137 0 2151
0.04550000 0.04548030 41772.78128980 0 1176.08019759 0 17438.35797313 0 2120.29484115 0 -3832.64094668 0 2274
0.04650000 0.04648670 41138.33707769 0 703.08376812 0 15859.22300749 0 -976.35428081 0 -4356.63871872 0 2311
0.04750000 0.04749250 40197.30019136 0 1122.93303846 0 14714.23389800 0 1657.48273605 0 -3994.92801154 0 2568
0.04850000 0.04851840 38420.41350446 0 616.10512051 0 12708.26081060 0 2002.92819807 0 -3135.73775026 0 2493
0.04950000 0.04949480 38766.42365504 0 -597.86457261 0 10901.15774927 0 3050.82409123 0 -2321.75579122 0 2644
0.05050000 0.05050630 39368.20450894 0 -698.16322697 0 10564.85802756 0 4552.36420454 0 -6302.78803512 0 2829
0.05150000 0.05149060 39077.44525920 0 1126.62012262 0 11256.56830363 0 2131.65504641 0 -2010.73418707 0 2784
0.05250000 0.05249300 37774.67552104 0 473.01414518 0 9016.36018470 0 610.81476371 0 -2828.21500075 0 3055
0.05350000 0.05348950 37499.74969579 0 775.62853310 0 9772.16814914 0 -311.45896099 0 -2550.97505962 0 3009
0.05450000 0.05448610 36623.48590964 0 1280.11576158 0 11642.10665381 0 -2350.25595531 0 -2897.15129507 0 3336
0.05550000 0.05550870 35864.58876657 0 1080.74526643 0 14614.58297463 0 -1712.72256457 0 125.81261245 0 3349
0.05650000 0.05647670 36034.65967579 0 138.57568127 0 15250.68803546 0 -910.64999810 0 734.13056692 0 3324
0.05750000 0.05747970 36107.07268010 0 120.78688421 0 15637.66578787 0 1072.25279330 0 473.80360194 0 3639
0.05850000 0.05849280 36495.37911149 0 311.87528040 0 15788.36012865 0 184.12833280 0 946.67934306 0 3846
0.05950000 0.05951020 35275.54108622 0 1268.60054377 0 17043.74031659 0 1486.14958181 0 2308.03718077 0 3787
0.06050000 0.06049470 34904.17531180 0 1333.27399304 0 16362.12800075 0 2016.22606018 0 1013.85181604 0 3930
0.06150000 0.06148310 33188.96147415 0 1027.12421180 0 15345.91002890 0 911.34201841 0 2115.60017542 0 4083
0.06250000 0.06249100 32951.68155328 0 1014.56155206 0 14817.20651881 0 521.67590553 0 1946.90223449 0 4303
0.06350000 0.06350600 32132.10807021 0 248.46407616 0 13389.65167994 0 2519.34142761 0 1139.57474266 0 4470
0.06450000 0.06451750 31945.20722727 0 -188.64694856 0 12165.82761774 0 2059.90638159 0 280.76758382 0 4479
0.06550000 0.06550280 32080.17886681 0 -134.87309585 0 10870.42097558 0 2083.62330135 0 1098.09781389 0 4636
0.06650000 0.06648880 31071.37935258 0 300.26151890 0 8859.47641434 0 3418.38098591 0 1811.25518313 0 4653
0.06750000 0.06749660 30948.36582385 0 1454.60452840 0 8964.35347502 0 2544.63061750 0 2784.49039004 0 5220
0.06850000 0.06852730 29114.01377114 0 719.60146229 0 7898.76400680 0 1601.82215919 0 3913.81215992 0 5029
0.06950000 0.06949320 29128.85068640 0 364.75670373 0 9449.46524230 0 1068.53249216 0 5694.69595608 0 5040
0.07050000 0.07048030 28051.40275830 0 1065.52967767 0 9109.54487037 0 360.16279617 0 6285.69236560 0 5475
0.07150000 0.07148790 27710.04298414 0 782.50444682 0 8345.72054276 0 -162.01911461 0 7607.93832311 0 5509
0.07250000 0.07249820 27620.13570661 0 -285.32827441 0 8444.49675246 0 634.54275580 0 4377.94187167 0 5916
0.07350000 0.07351270 27646.48783968 0 -55.99031070 0 9735.74020049 0 -845.00107702 0 4499.51599818 0 5721
0.07450000 0.07449140 27722.77615768 0 449.46109583 0 9381.22650444 0 -1296.85711671 0 2789.52829784 0 6028
0.07550000 0.07549160 27499.55808933 0 360.27905558 0 9337.12543469 0 -888.83641098 0 1824.01050132 0 6183
0.07650000 0.07648840 27102.61524459 0 296.55450455 0 9184.28306290 0 -659.36580081 0 1733.32816106 0 6330
0.07750000 0.07749960 26752.50833382 0 607.55396405 0 8901.23015123 0 340.03441688 0 794.43819851 0 6583
0.07850000 0.07848650 26564.50025840 0 637.11707132 0 9031.16388298 0 1279.94967671 0 1434.77399465 0 6549
0.07950000 0.07947320 25409.43533332 0 932.72046317 0 8683.48181135 0 1495.50569628 0 895.43883827 0 6828
0.08050000 0.08048110 25036.40871018 0 1013.72559154 0 8752.70598611 0 1094.07745275 0 79.20709355 0 7147
0.08150000 0.08149960 23808.15571805 0 720.04989144 0 8634.77465447 0 37.23334956 0 1361.30911948 0 7386
0.08250000 0.08250610 22992.67899515 0 896.67450972 0 8335.67794414 0 -498.69640260 0 1350.04856514 0 7227
0.08350000 0.08350160 22799.79909681 0 99.93470705 0 8191.68235988 0 -167.07584535 0 706.30581465 0 7798
0.08450000 0.08449610 22397.32008965 0 212.44801799 0 7845.09644841 0 -160.49666994 0 -479.09728044 0 7371
0.08550000 0.08548940 22227.69207343 0 580.80876345 0 8274.24868605 0 93.18745375 0 -375.36841984 0 8256
0.08650000 0.08650700 21648.16659242 0 118.18931681 0 7878.66773726 0 652.34705411 0 -605.18227208 0 8037
0.08750000 0.08749060 21766.97263773 0 354.54580579 0 7543.27594617 0 649.59336693 0 -228.62025562 0 8155
0.08850000 0.08849210 21352.86768951 0 393.21811468 0 7703.91323464 0 537.91125541 0 -92.29436004 0 8718
0.08950000 0.08949900 20977.73732466 0 548.86510635 0 8329.83175664 0 217.90003073 0 51.59293689 0 8571
0.09050000 0.09049190 20476.60390336 0 964.85345702 0 8069.60997875 0 573.18214612 0 1267.80333638 0 8932
0.09150000 0.09150830 19651.38353463 0 592.32287403 0 7392.68125632 0 213.52203350 0 660.54721787 0 9285
0.09250000 0.09250820 19350.76991580 0 204.24121084 0 7828.34402095 0 562.30912315 0 505.70186251 0 9204
0.09350000 0.09350330 19447.54203472 0 -102.84584269 0 7639.93734184 0 538.85240302 0 -202.64125990 0 9349
0.09450000 0.09448040 18776.11625772 0 191.26998231 0 6844.01434458 0 562.46302846 0 -166.40929140 0 9564
0.09550000 0.09549270 19041.85205336 0 248.94018613 0 6244.89084864 0 395.03840488 0 -637.88327620 0 10155
0.09650000 0.09649430 18517.46674995 0 11.05861728 0 6045.38970006 0 802.33387333 0 -106.85856393 0 9913
0.09750000 0.09749140 18652.99200573 0 391.59159016 0 5657.39329376 0 704.85423286 0 -887.47008610 0 10476
0.09850000 0.09850240 17964.29340201 0 598.21002914 0 5526.37447418 0 -387.91447109 0 472.81927227 0 10575
0.09950000 0.09950330 17861.54222770 0 400.74286663 0 5768.67015819 0 -286.03358151 0 -112.97203736 0 10882
0.10050000 0.10051200 17376.35295414 0 683.68616227 0 6290.97386454 0 -251.41706519 0 1164.60926907 0 10875
0.10150000 0.10150300 16871.34421916 0 671.15450504 0 6638.43448967 0 -285.32495272 0 395.69388651 0 11118
0.10250000 0.10250800 16254.17283377 0 257.13149203 0 6291.32817893 0 478.79279151 0 1367.22174093 0 11575
0.10350000 0.10349800 16457.68216394 0 340.65446707 0 6394.85441598 0 669.71178112 0 822.84424783 0 11364
0.10450000 0.10450100 16177.88451577 0 264.16131106 0 6538.73927700 0 109.80568463 0 1030.68285700 0 12093
0.10550000 0.10551000 15986.99763590 0 -16.43653402 0 6819.64415765 0 147.38371566 0 1214.66724958 0 12067
0.10650000 0.10649700 16223.17032428 0 7.72864881 0 7118.45298753 0 -417.95590279 0 1143.63828587 0 12054
0.10750000 0.10749900 16196.04312847 0 89.24814203 0 7222.70999802 0 -330.61519015 0 1471.37910050 0 12807
0.10850000 0.10850100 15889.78262399 0 223.26900104 0 7529.04800878 0 740.45064992 0 1851.14876946 0 12736
0.10950000 0.10950300 16080.11588762 0 14.03450388 0 7291.26983330 0 625.48227240 0 1850.16333255 0 12933
0.11050000 0.11050200 15974.04301586 0 92.13613651 0 7369.59545907 0 1277.13730621 0 1551.43200894 0 13428
0.11150000 0.11150900 15787.03144967 0 201.15756838 0 6496.05546483 0 775.62853310 0 1301.25282966 0 13453
0.11250000 0.11250000 15257.44215360 0 22.65508381 0 5945.47304089 0 547.17104066 0 1829.64631466 0 13668
0.11350000 0.11349100 15338.38084802 0 -2.16413018 0 5472.07579327 0 1031.17446822 0 1316.64336116 0 13791
0.11450000 0.11448600 15128.67101596 0 313.63024388 0 5380.71804119 0 813.59332044 0 1596.57387722 0 14205
0.11550000 0.11549300 14699.50770599 0 518.13054712 0 4238.68524242 0 461.10143091 0 748.86340232 0 14776
0.11650000 0.11649800 14315.74092777 0 315.41067371 0 4489.81664164 0 -595.48402277 0 955.43865923 0 14553
0.11750000 0.11747300 14183.20519969 0 361.42836289 0 4738.44569544 0 -701.67204671 0 725.44100640 0 14568
0.11850000 0.11849100 14010.36620927 0 300.45860628 0 5376.98666773 0 -440.52130077 0 1506.34550228 0 16015
0.11950000 0.11950300 13877.83048119 0 -50.98451265 0 4686.84866178 0 -76.93051284 0 1210.90265914 0 15270
0.12050000 0.12050700 14166.04309622 0 -162.61480568 0 5086.40457519 0 447.53008238 0 1136.43020241 0 15999
0.12150000 0.12150000 13969.50933069 0 45.60170194 0 4973.73259784 0 423.15657376 0 675.56682648 0 15670
0.12250000 0.12250700 14134.81914024 0 243.36084165 0 5106.11331337 0 247.87502848 0 470.84618398 0 16887
0.12350000 0.12352200 13605.56201390 0 147.19327167 0 4878.56596602 0 -115.40462712 0 572.78022073 0 16407
0.12450000 0.12449800 13775.07930688 0 257.67846488 0 4655.01572793 0 353.33449345 0 639.09901746 0 16306
0.12550000 0.12549900 13416.33598275 0 286.36685848 0 4846.79946611 0 -208.19181633 0 760.59010153 0 17523
0.12650000 0.12650100 13282.91446869 0 321.50155960 0 4144.22723940 0 787.36741188 0 919.98507516 0 17154
0.12750000 0.12750600 13374.37187169 0 -249.16163263 0 4215.23405846 0 602.23703368 0 1031.14900187 0 18007
0.12850000 0.12850300 13305.94490431 0 -94.45999605 0 4034.94339344 0 708.43834441 0 737.52977063 0 17496
0.12950000 0.12949900 13379.24369461 0 181.28385256 0 3835.13221976 0 40.03398340 0 206.61068835 0 18405
0.13050000 0.13049000 12985.73327056 0 272.28064685 0 3908.20956356 0 41.58743057 0 1369.13725312 0 18100
0.13150000 0.13148800 12934.13623690 0 432.09415435 0 4073.78510890 0 -346.81621583 0 620.32699796 0 19059
0.13250000 0.13249300 12498.66170178 0 436.75006694 0 4376.17029970 0 -377.75893477 0 1071.52755602 0 18957
0.13350000 0.13349100 12316.96485151 0 336.25211072 0 4397.45130800 0 -119.98635513 0 993.00816457 0 19468
0.13450000 0.13450700 12071.49141028 0 11.64609269 0 4541.86764061 0 361.90779456 0 1221.28849982 0 19953
0.13550000 0.13551000 12149.21913051 0 -149.97131797 0 4113.10293433 0 656.03303104 0 671.15007611 0 19956
0.13650000 0.13649900 12264.92492486 0 -132.11608697 0 3933.14443905 0 599.56971063 0 821.19336420 0 19723
0.13750000 0.13749600 12162.17375055 0 174.51201870 0 3545.96738480 0 412.92463839 0 365.45315296 0 20946
0.13850000 0.13851100 11931.31577808 0 409.25305548 0 3555.21277602 0 -188.24280871 0 18.53208222 0 20955
0.13950000 0.13949800 11620.29417392 0 325.52192074 0 3286.44316337 0 -166.49565553 0 362.02737567 0 20506
0.14050000 0.14048300 11417.44918324 0 137.58360096 0 3524.92996764 0 -369.61523986 0 -390.94496639 0 21447
0.14150000 0.14148400 11343.26460696 0 127.45020929 0 3578.90755113 0 -128.82760650 0 -0.55222445 0 21771
0.14250000 0.14249400 11412.13446733 0 -21.45207572 0 4005.76781754 0 -220.28833120 0 -539.47798937 0 22470
0.14350000 0.14350900 11383.23569955 0 198.45813558 0 3967.98904526 0 -150.06543273 0 -111.17167734 0 22519
0.14450000 0.14449900 11133.11188190 0 459.45497621 0 4642.60365181 0 -338.54186749 0 -4.49178752 0 22218
0.14550000 0.14550500 11019.70913111 0 332.80861770 0 4464.27278828 0 -6.45776737 0 456.55734880 0 23559
0.14650000 0.14650700 10867.08820581 0 1.86149032 0 4833.86699073 0 336.54552733 0 630.85567163 0 23044
0.14750000 0.14750500 10725.09671233 0 134.57082138 0 4423.53770527 0 534.31274984 0 444.62138265 0 23649
0.14850000 0.14849900 10581.07898342 0 178.12048936 0 4297.27998536 0 407.45048100 0 551.50142689 0 23640
0.14950000 0.14949500 10421.68179533 0 151.77389245 0 3730.65376277 0 589.74412958 0 380.03872645 0 24457
0.15050000 0.15050000 10328.35316943 0 -81.12869552 0 3573.11672525 0 569.78404963 0 564.82254088 0 24591
0.15150000 0.15149900 10251.79911564 0 9.10733041 0 3287.04106891 0 276.90998585 0 134.31283621 0 25020
0.15250000 0.15250500 10309.24233679 0 78.65480598 0 2927.61126065 0 160.05377695 0 14.65056803 0 25297
0.15350000 0.15350100 10041.80140313 0 172.73491057 0 2958.13766017 0 46.83992002 0 96.10456845 0 25452
0.15450000 0.15450400 10044.18195296 0 118.11402500 0 2899.25503679 0 55.19487488 0 -214.04243277 0 26061
0.15550000 0.15549900 9834.27281905 0 190.37090954 0 2553.58812827 0 97.20416103 0 109.82351107 0 26128
0.15650000 0.15649500 9792.12047846 0 169.26041504 0 2804.61987656 0 137.04105705 0 -66.17618519 0 26331
0.15750000 0.15749700 9737.33461526 0 11.53736246 0 2655.02169594 0 85.57401249 0 -81.72139707 0 27345
0.15850000 0.15849900 9707.73829102 0 -21.55438400 0 2573.03113066 0 289.25230633 0 -35.44849080 0 26980
0.15950000 0.15949700 9674.58775051 0 135.86296169 0 2727.15789213 0 74.79488283 0 134.53760441 0 27777
0.16050000 0.16050000 9558.76016059 0 235.00898704 0 2484.61861698 0 -100.76435635 0 -244.44371502 0 28224
0.16150000 0.16150500 9443.50833155 0 333.48845845 0 2710.56047723 0 -295.11067339 0 -131.97325398 0 28075
0.16250000 0.16249700 9126.24193620 0 317.24535794 0 2900.26261835 0 -440.73278217 0 -17.22543717 0 28590
0.16350000 0.16349900 8878.04470306 0 249.65435108 0 3155.20289730 0 -113.27099013 0 -104.82413497 0 29163
0.16450000 0.16449100 8809.99419473 0 42.37522648 0 3079.24674904 0 199.38599640 0 28.01752144 0 28996
0.16550000 0.16550500 8744.03635578 0 -53.58861272 0 3060.80025589 0 442.90074337 0 -235.52163568 0 30777
0.16650000 0.16650700 8822.15160738 0 -5.81767627 0 2813.16771132 0 286.80200085 0 -248.48179188 0 29211
0.16750000 0.16749900 8738.78807382 0 141.29947317 0 2905.10122429 0 215.21499196 0 -272.17103083 0 30922
0.16850000 0.16850800 8595.71149251 0 224.44598917 0 2794.74336282 0 -133.05612735 0 -86.59000901 0 30867
0.16950000 0.16949900 8407.43768129 0 142.84849142 0 2642.24423310 0 90.47672719 0 205.16021380 0 30852
0.17050000 0.17049200 8446.57834953 0 113.91650666 0 2810.76501684 0 103.51427894 0 142.68019208 0 31257
0.17150000 0.17149500 8250.16637957 0 65.46866363 0 2658.55376756 0 118.80604530 0 575.51287049 0 32608
0.17250000 0.17250900 8326.17788945 0 7.47501506 0 2472.48334898 0 329.88109502 0 209.94567258 0 32361
0.17350000 0.17350400 8234.52118460 0 35.64956422 0 2432.89978775 0 336.00409064 0 256.64873867 0 32508
0.17450000 0.17449800 8088.78724534 0 247.59157697 0 2356.31251698 0 73.44317342 0 95.49337612 0 32791
0.17550000 0.17549800 7989.41313009 0 221.55057623 0 2404.51034692 0 -155.06015846 0 464.97563736 0 33633
0.17650000 0.17650100 7801.09502958 0 95.57254324 0 2302.10241467 0 -34.31335606 0 502.50306787 0 33984
0.17750000 0.17750300 7765.80753038 0 -12.41617288 0 2582.49796838 0 132.57780291 0 587.93269724 0 34069
0.17850000 0.17849800 7878.35771216 0 -37.33521495 0 2455.64234293 0 164.90788415 0 341.44060213 0 34536
