### header ###
fiducial parameters:
Omega_m = 0.31
Omega_nu = 0
Omega_de = 0.69
Omega_k = 0
H_0 = 100
w_de = -1
zeff = 0
beta = 0
fgrowth = 0
b_1 = 2
gamma = 0.55
Lx = 3500 Ly = 3500 Lz = 3500
nx = 700 ny = 700 nz = 700
xoffset = -685.467585 yoffset = -31.7331281 zoffset = 572.489161
bins = 400 dk = 0.001
kx_ny = 0.628318531 ky_ny = 0.628318531 kz_ny = 0.628318531
############################
A(data) = 7.97021596 (not used)
A(ran) = 7.96592283 (used)
Ngal = 474043
weighted Ngal = 0
Nran = 23820508
weighted Nran = 0
SN(data) = 3491.45628
SN(ran) = 69.3860768
SN(data+ran) = 3560.84236
############################
13 columns: k_central k_mean P_0(k) sigma^{lin}_{P_0(k)} P^img_1(k) sigma^{lin}_{P_1(k)} P_2(k) sigma^{lin}_{P_2(k)} P^img_3(k) sigma^{lin}_{P_3(k)} P_4(k) sigma^{lin}_{P_4(k)} N_modes
### header ###
0.00050000 0 0 0 0 0 0 0 0 0 0 0 0
0.00150000 0.00179520 12964.91729990 0 -4293.18322518 0 -3986.13658564 0 11821.36759263 0 -25273.79935429 0 3
0.00250000 0.00253879 32800.65504276 0 -13263.09500726 0 12159.73783909 0 11672.99844006 0 33336.77701048 0 6
0.00350000 0.00331552 30762.01859715 0 -5040.64265671 0 32598.69583807 0 -41441.05443824 0 -4433.13741089 0 7
0.00450000 0.00420575 42128.86725597 0 -1908.89094338 0 41287.03840001 0 9128.71106463 0 16033.16923039 0 24
0.00550000 0.00557378 46431.90485024 0 5147.19163844 0 52562.65110233 0 29148.55942458 0 17926.75822088 0 45
0.00650000 0.00659388 53388.64653380 0 10452.86146202 0 42952.64822248 0 56121.40702229 0 2825.46906420 0 40
0.00750000 0.00754703 48136.04636308 0 -8310.18945241 0 36470.46638065 0 34244.37547586 0 30031.68805211 0 57
0.00850000 0.00846663 73855.61751457 0 -23402.79790644 0 30008.54689324 0 41787.83965156 0 5702.75660854 0 75
0.00950000 0.00948925 92804.35131621 0 -18622.21094274 0 33691.64502091 0 22636.15013599 0 -12359.48257881 0 112
0.01050000 0.01054430 97962.61527947 0 320.99555435 0 23087.12592586 0 -27415.40842071 0 -14682.34560252 0 105
0.01150000 0.01145670 97344.44738484 0 25106.93941927 0 45117.39844777 0 -3622.51036627 0 -5585.60033964 0 144
0.01250000 0.01249090 75159.49448521 0 16621.88474100 0 36162.54502744 0 -27188.64720843 0 11330.30998692 0 169
0.01350000 0.01339930 76786.12972432 0 -4711.37386126 0 34844.49548103 0 38465.69931297 0 -15349.34244959 0 180
0.01450000 0.01448870 77408.39437913 0 -5919.41986060 0 32489.63343860 0 1872.66229658 0 -30319.45777415 0 267
0.01550000 0.01550050 83888.91537223 0 -6155.36003016 0 20585.77702608 0 9643.66274730 0 -38517.62851637 0 238
0.01650000 0.01653350 80178.02570926 0 1545.08756682 0 14001.72979592 0 -8157.53531014 0 -21626.24338928 0 315
0.01750000 0.01747870 85647.42199993 0 5347.47892209 0 10053.89238183 0 -2486.66699707 0 -24670.02548193 0 297
0.01850000 0.01844180 78556.15156983 0 -1036.43271528 0 11777.18901660 0 3069.43666925 0 -26036.35036455 0 388
0.01950000 0.01947590 85121.04367805 0 2625.27035915 0 5844.37164297 0 12360.47908805 0 -10140.69940841 0 399
0.02050000 0.02045430 75097.82163597 0 4019.10996895 0 7546.54228200 0 10698.88851949 0 -5634.80575113 0 462
0.02150000 0.02154770 70302.28703377 0 6137.73288905 0 3570.33757172 0 5966.82048314 0 2060.42678085 0 571
0.02250000 0.02255340 64001.80204221 0 1876.89192466 0 13047.95973604 0 7410.47448230 0 4208.42457870 0 510
0.02350000 0.02348930 66060.03650275 0 4982.11434772 0 7585.41721443 0 3339.18064648 0 20253.71800476 0 555
0.02450000 0.02439640 63906.80149527 0 2455.13301599 0 10347.94011204 0 823.05462200 0 20019.98122784 0 592
0.02550000 0.02547300 60037.68831064 0 2069.53930418 0 11563.27170111 0 -1871.78758292 0 20312.51204955 0 837
0.02650000 0.02652900 60435.95983437 0 1494.21023428 0 15080.94929599 0 -4158.46624911 0 19272.37785609 0 723
0.02750000 0.02749970 58743.00136960 0 2873.20185649 0 18769.25141633 0 -1129.45463778 0 7045.56387325 0 826
0.02850000 0.02848090 57833.52060899 0 3584.36620727 0 21615.83540395 0 -4113.01435573 0 14859.17062987 0 831
0.02950000 0.02946900 53326.64151481 0 610.13824467 0 20973.97273422 0 -163.00565875 0 -3605.23753955 0 996
0.03050000 0.03053250 54534.85359902 0 1187.68399400 0 23253.43224463 0 -2458.20004996 0 454.83781676 0 1041
0.03150000 0.03150510 54547.36532607 0 -466.68963325 0 23711.38359913 0 3225.75575104 0 -4865.62241831 0 1036
0.03250000 0.03246190 58475.49400198 0 -5558.11882944 0 25498.12465512 0 3222.24582407 0 -1273.48343902 0 1059
0.03350000 0.03345080 59698.54300145 0 -2883.05622558 0 22329.00384552 0 6125.27652362 0 1175.53765367 0 1302
0.03450000 0.03451200 63052.46091226 0 1177.71890166 0 22893.69241127 0 3207.99574203 0 530.53155092 0 1339
0.03550000 0.03553350 60925.68876110 0 3183.73627835 0 21433.25276769 0 8717.66207806 0 7517.97568396 0 1365
0.03650000 0.03647120 59036.86087028 0 3091.52595726 0 24722.84047131 0 1648.89061199 0 9881.04231908 0 1308
0.03750000 0.03744890 54626.86461827 0 3867.36375731 0 18433.98142082 0 2650.52633206 0 12689.43785841 0 1579
0.03850000 0.03847530 51985.67225603 0 3210.15484537 0 24314.71457850 0 6711.86614787 0 10545.29322960 0 1662
0.03950000 0.03950240 49476.01911263 0 731.33148320 0 18070.14482728 0 1692.48235480 0 10933.92075841 0 1683
0.04050000 0.04050350 47997.75302609 0 3063.44654152 0 23111.81721020 0 3075.01712096 0 13627.70666354 0 1822
0.04150000 0.04152450 45064.25128864 0 2069.96005252 0 15897.53325136 0 2588.63203633 0 10153.68724542 0 1887
0.04250000 0.04250150 44705.17579477 0 1040.78413893 0 17466.14950842 0 912.62640808 0 11177.84407417 0 1920
0.04350000 0.04349210 42762.20423560 0 1751.27639959 0 13873.29082802 0 2423.32222678 0 7461.34074252 0 2005
0.04450000 0.04448520 42253.76307993 0 624.62416723 0 15994.74826327 0 617.26550015 0 7709.36081845 0 2151
0.04550000 0.04548030 41287.81346275 0 916.20609070 0 12957.60956552 0 -1968.69256973 0 3195.38436406 0 2274
0.04650000 0.04648670 40740.95133995 0 1050.24433326 0 16859.60755486 0 610.27332703 0 1545.56367679 0 2311
0.04750000 0.04749250 39343.51322459 0 175.67018388 0 14108.02411417 0 -897.60679947 0 -3102.18860606 0 2568
0.04850000 0.04851840 38979.45518456 0 906.29746722 0 12291.94139742 0 874.34273779 0 -4347.85836514 0 2493
0.04950000 0.04949480 39323.25087017 0 -27.22773252 0 11957.00357166 0 -1525.96566186 0 -4466.84156764 0 2644
0.05050000 0.05050630 38412.66287709 0 890.23373837 0 11329.97781718 0 572.12031017 0 -7212.52345919 0 2829
0.05150000 0.05149060 38804.95534541 0 1897.64146137 0 11255.01817815 0 -385.27372162 0 -4515.98054518 0 2784
0.05250000 0.05249300 35653.43953228 0 1316.97553090 0 11391.76138966 0 -1439.40222642 0 -4944.36879242 0 3055
0.05350000 0.05348950 36661.90687676 0 465.84924379 0 14471.86070772 0 1329.56476422 0 -3986.61269560 0 3009
0.05450000 0.05448610 34826.22614508 0 -46.55303608 0 13344.47659468 0 3045.98548528 0 -832.97763950 0 3336
0.05550000 0.05550870 35342.30720488 0 707.30232388 0 12680.57999855 0 3079.46819554 0 -1798.69916679 0 3349
0.05650000 0.05647670 35105.13800726 0 -152.35629674 0 12660.87126038 0 3356.03272486 0 1895.59308128 0 3324
0.05750000 0.05747970 34647.51882251 0 0.21910138 0 11686.50667634 0 2369.61037909 0 1263.34118948 0 3639
0.05850000 0.05849280 34556.50431250 0 365.16416529 0 11602.24628447 0 825.49939132 0 1605.13278431 0 3846
0.05950000 0.05951020 34281.13559426 0 753.79723026 0 10943.79727215 0 811.01236153 0 1222.53967253 0 3787
0.06050000 0.06049470 33509.61600090 0 68.42597087 0 11580.43380457 0 -508.63824305 0 1904.69453228 0 3930
0.06150000 0.06148310 33077.46316322 0 687.52161559 0 10619.53316751 0 901.31049212 0 1867.58009949 0 4083
0.06250000 0.06249100 32415.33813907 0 795.46903195 0 10876.30038006 0 -897.65662493 0 397.30823147 0 4303
0.06350000 0.06350600 32444.12618360 0 1268.60054377 0 11281.92392746 0 -404.82523279 0 336.91312851 0 4470
0.06450000 0.06451750 30777.07695890 0 1533.60556598 0 12966.57814862 0 -983.53025453 0 952.33619381 0 4479
0.06550000 0.06550280 29490.91570797 0 1971.51601256 0 11868.75714285 0 -233.68252253 0 -729.29528267 0 4636
0.06650000 0.06648880 28018.29650709 0 1163.56847054 0 12605.62035953 0 -1199.27671808 0 251.65512018 0 4653
0.06750000 0.06749660 28339.17248033 0 309.36407713 0 12882.31775675 0 2269.80444317 0 624.51344398 0 5220
0.06850000 0.06852730 27085.67458761 0 -449.46441753 0 10910.24812795 0 1594.75801595 0 2596.88091832 0 5029
0.06950000 0.06949320 28502.59999466 0 -799.89574741 0 11518.42878559 0 2269.73800922 0 2380.09587069 0 5040
0.07050000 0.07048030 29200.04573498 0 -1301.31926361 0 10892.59884219 0 2244.33809609 0 615.84934981 0 5475
0.07150000 0.07148790 29311.54404591 0 561.37351170 0 12167.48846646 0 -918.84019677 0 1422.94875174 0 5509
0.07250000 0.07249820 29077.91799223 0 1508.58211189 0 11887.58009504 0 -1915.67827850 0 1611.74296223 0 5916
0.07350000 0.07351270 28464.40047403 0 1050.83338094 0 12440.53199649 0 -885.35970099 0 2932.88168726 0 5721
0.07450000 0.07449140 27317.19689957 0 596.76841245 0 11704.66528904 0 569.23154062 0 3687.99209524 0 6028
0.07550000 0.07549160 27503.10123328 0 59.38918225 0 11281.81320422 0 1602.95153632 0 483.03459914 0 6183
0.07650000 0.07648840 26728.14921922 0 296.18468890 0 10263.41398437 0 2017.21149709 0 -346.11201597 0 6330
0.07750000 0.07749960 25976.00619429 0 1486.81392130 0 9657.08240498 0 279.56291488 0 -1193.78484497 0 6583
0.07850000 0.07848650 24475.81690461 0 936.37765205 0 10283.57668787 0 -382.52224890 0 -1574.45137224 0 6549
0.07950000 0.07947320 23965.27200722 0 694.87253204 0 9520.27275952 0 -445.93566761 0 -2461.04563744 0 6828
0.08050000 0.08048110 23404.79092490 0 725.29263725 0 10920.92184908 0 -447.94640179 0 -1974.76020373 0 7147
0.08150000 0.08149960 23233.50205996 0 832.47052702 0 10861.69598362 0 -247.57496848 0 -1028.74520016 0 7386
0.08250000 0.08250610 22833.68041076 0 116.69566019 0 11554.63528775 0 1352.30731940 0 858.09299389 0 7227
0.08350000 0.08350160 22813.63950284 0 -95.38741397 0 10223.64219362 0 2328.19988427 0 1655.25719876 0 7798
0.08450000 0.08449610 23142.93044294 0 53.42972486 0 9885.58197226 0 2622.96731559 0 703.22881558 0 7371
0.08550000 0.08548940 22260.79832464 0 -150.55040056 0 8954.36623804 0 1913.00984822 0 1517.27388687 0 8256
0.08650000 0.08650700 22321.14249490 0 350.72474649 0 7971.07736019 0 1241.07474427 0 -498.82484157 0 8037
0.08750000 0.08749060 21794.87489627 0 453.32312273 0 7453.60118747 0 -726.81065298 0 863.43539061 0 8155
0.08850000 0.08849210 21689.90925699 0 503.62358714 0 7591.31876356 0 -508.20199346 0 26.41624183 0 8718
0.08950000 0.08949900 21027.56278634 0 97.54795672 0 6766.31984132 0 -1242.66915905 0 496.01911446 0 8571
0.09050000 0.09049190 21182.02171756 0 442.11350108 0 7843.39131038 0 373.61124189 0 -373.21042373 0 8932
0.09150000 0.09150830 20926.80463049 0 545.31753348 0 7714.07762883 0 -120.25319816 0 -1235.54965419 0 9285
0.09250000 0.09250820 20316.27663999 0 667.11310649 0 8190.26510230 0 398.10876055 0 -779.47173705 0 9204
0.09350000 0.09350330 19913.57618634 0 754.71512599 0 8387.13103758 0 180.96275514 0 163.46848193 0 9349
0.09450000 0.09448040 19177.82020214 0 355.41609052 0 8417.18132713 0 1258.62437911 0 1181.09596073 0 9564
0.09550000 0.09549270 19141.39225348 0 39.08076696 0 7459.40308567 0 1709.14620366 0 786.50155608 0 10155
0.09650000 0.09649430 18727.95164475 0 275.63002511 0 6953.27604589 0 1501.36295611 0 1737.85674191 0 9913
0.09750000 0.09749140 18581.68623390 0 517.80944970 0 6370.89390508 0 896.65790123 0 1784.75910984 0 10476
0.09850000 0.09850240 17548.41688182 0 546.55652663 0 6032.29113980 0 327.23702385 0 1915.11358993 0 10575
0.09950000 0.09950330 17439.24375911 0 572.56984656 0 5837.18570417 0 311.35709560 0 2009.95912433 0 10882
0.10050000 0.10051200 16798.26687536 0 -101.22219698 0 5202.48682859 0 169.90925327 0 1797.64729593 0 10875
0.10150000 0.10150300 17075.85005856 0 -22.32501781 0 5516.99621506 0 -97.85720675 0 1561.80677729 0 11118
0.10250000 0.10250800 16974.42756323 0 177.59566116 0 5223.55746272 0 153.14353903 0 94.87476533 0 11575
0.10350000 0.10349800 16512.37944854 0 635.26577861 0 5533.32789417 0 94.47627236 0 1315.37004381 0 11364
0.10450000 0.10450100 16279.97135060 0 379.85049693 0 4969.70227160 0 524.77283478 0 432.55697753 0 12093
0.10550000 0.10551000 16105.13934171 0 -57.62491801 0 5479.78213135 0 105.48792084 0 458.44407295 0 12067
0.10650000 0.10649700 16106.24657420 0 160.17114359 0 4466.68655509 0 243.98753524 0 166.23545590 0 12054
0.10750000 0.10749900 15936.95072772 0 417.01807688 0 5525.05686753 0 -351.74118591 0 809.17324837 0 12807
0.10850000 0.10850100 15753.70375197 0 329.55556867 0 5280.33634439 0 -472.79159145 0 1280.04932763 0 12736
0.10950000 0.10950300 15652.05981013 0 360.39199329 0 6060.81344853 0 133.74482595 0 697.17114667 0 12933
0.11050000 0.11050200 15179.05009388 0 375.89546250 0 5681.43131094 0 -426.82594220 0 611.24547715 0 13428
0.11150000 0.11150900 15169.52789454 0 203.02214787 0 5743.28131738 0 109.56408650 0 412.38098724 0 13453
0.11250000 0.11250000 14705.81893113 0 126.24996928 0 5372.87883522 0 228.07328278 0 137.33225919 0 13668
0.11350000 0.11349100 15029.13081584 0 36.76554384 0 5465.64277255 0 597.19912588 0 -399.02665628 0 13791
0.11450000 0.11448600 14625.43385295 0 -83.32389464 0 4933.42933550 0 333.93245867 0 -655.87801849 0 14205
0.11550000 0.11549300 15021.38018846 0 170.15062995 0 4695.96118511 0 121.48554791 0 -877.35219568 0 14776
0.11650000 0.11649800 14633.95954306 0 -199.11029552 0 4841.56225648 0 228.19950728 0 69.09850388 0 14553
0.11750000 0.11747300 14717.55559544 0 342.05843785 0 4738.41247846 0 358.63149364 0 -55.39129792 0 14568
0.11850000 0.11849100 14596.42436193 0 174.51534040 0 4806.46298680 0 456.79761825 0 731.61825641 0 16015
0.11950000 0.11950300 14272.00524474 0 359.71658148 0 4468.56885031 0 685.30604340 0 1290.45731296 0 15270
0.12050000 0.12050700 14197.48849871 0 -4.03665960 0 4232.37401728 0 956.13843016 0 484.42639037 0 15999
0.12150000 0.12150000 13802.76011892 0 -37.27165980 0 3699.49624073 0 496.27267070 0 1295.47307611 0 15670
0.12250000 0.12250700 13943.37864412 0 133.37611753 0 3464.96225642 0 84.82851286 0 423.79876860 0 16887
0.12350000 0.12352200 13765.22493779 0 184.86464240 0 3559.88529709 0 49.91404028 0 210.65097967 0 16407
0.12450000 0.12449800 13588.95352668 0 356.40927805 0 3255.01990554 0 -499.10054246 0 -95.78823213 0 16306
0.12550000 0.12549900 13305.94490431 0 319.56279552 0 3869.52286065 0 -664.43914004 0 -134.56196352 0 17523
0.12650000 0.12650100 13135.98471835 0 403.40908244 0 4004.25090904 0 -520.57974537 0 -117.46961570 0 17154
0.12750000 0.12750600 12992.15521895 0 69.88331026 0 4286.37374542 0 54.75663227 0 10.55047508 0 18007
0.12850000 0.12850300 13128.12336772 0 -139.68069928 0 3973.48091837 0 649.89342693 0 539.42705668 0 17496
0.12950000 0.12949900 13235.19274872 0 -31.04469505 0 4021.70089295 0 722.83458114 0 233.83199892 0 18405
0.13050000 0.13049000 13074.20114586 0 45.77321225 0 3765.78624942 0 712.70451116 0 759.66666964 0 18100
0.13150000 0.13148800 13038.88042969 0 164.92338541 0 3481.06141671 0 708.21357621 0 915.03574597 0 19059
0.13250000 0.13249300 12780.34164517 0 224.54785455 0 3399.82376951 0 118.50819977 0 856.77095830 0 18957
0.13350000 0.13349100 12512.94500080 0 246.03702256 0 3616.81919131 0 201.99352890 0 940.06141452 0 19468
0.13450000 0.13450700 12499.21531803 0 132.00204202 0 3446.72613745 0 -132.56008719 0 709.48246464 0 19953
0.13550000 0.13551000 12278.65460764 0 166.74035391 0 3473.23328306 0 -287.29693377 0 1112.99009077 0 19956
0.13650000 0.13649900 12357.71100684 0 66.28314385 0 3598.91524208 0 -240.82749374 0 838.59462988 0 19723
0.13750000 0.13749600 12176.89994255 0 215.44861802 0 3678.94600587 0 -98.13611861 0 696.07941544 0 20946
0.13850000 0.13851100 12110.02310065 0 373.02773037 0 3529.43640384 0 -93.76576128 0 264.02069253 0 20955
0.13950000 0.13949800 11705.55107502 0 299.38680524 0 3809.92053615 0 -86.17512900 0 669.81032481 0 20506
0.14050000 0.14048300 11647.64281622 0 251.15908002 0 3598.27304724 0 131.71194711 0 428.37053151 0 21447
0.14150000 0.14148400 11226.23013363 0 246.48988065 0 3436.72782813 0 543.08867449 0 375.22780131 0 21771
0.14250000 0.14249400 11077.30736481 0 186.50223925 0 3206.57848445 0 576.98327523 0 521.63604516 0 22470
0.14350000 0.14350900 10883.02128122 0 -11.04371393 0 3194.14426368 0 531.23464354 0 508.82536534 0 22519
0.14450000 0.14449900 10813.59780461 0 -33.11068014 0 2699.07847639 0 569.39098210 0 495.88181763 0 22218
0.14550000 0.14550500 10885.93330265 0 180.98379256 0 2418.47254851 0 195.97461313 0 447.27763337 0 23559
0.14650000 0.14650700 10800.90892037 0 139.58547729 0 2798.49688094 0 -8.14518967 0 740.94669007 0 23044
0.14750000 0.14750500 10455.76241112 0 166.13691221 0 2506.29822897 0 -176.95568079 0 618.26533108 0 23649
0.14850000 0.14849900 10457.46754914 0 402.82889262 0 2807.66476589 0 -263.97529600 0 518.19698107 0 23640
0.14950000 0.14949500 10042.02284962 0 328.92887508 0 2991.01139256 0 -256.57123240 0 103.82463621 0 24457
0.15050000 0.15050000 9741.29850755 0 299.26390243 0 2618.70447053 0 48.68523367 0 146.47910672 0 24591
0.15150000 0.15149900 9671.55393351 0 189.39322326 0 2582.15472631 0 202.74976868 0 60.98702944 0 25020
0.15250000 0.15250500 9526.30717654 0 13.15226104 0 2340.00298252 0 291.14124494 0 -408.51120972 0 25297
0.15350000 0.15350100 9538.38708292 0 59.32020166 0 2401.75333804 0 111.63782222 0 -372.49736601 0 25452
0.15450000 0.15450400 9498.63743682 0 -21.40313604 0 2012.49468671 0 83.15614892 0 -340.62346456 0 26061
0.15550000 0.15549900 9523.80483113 0 -47.86997840 0 2206.79184263 0 -246.84308781 0 -386.87145809 0 26128
0.15650000 0.15649500 9612.68238245 0 -39.74953538 0 2386.82784418 0 -57.20848787 0 -248.66116354 0 26331
0.15750000 0.15749700 9628.57116857 0 67.32604612 0 2476.32544569 0 88.29592210 0 -83.45554458 0 27345
0.15850000 0.15849900 9674.03413427 0 148.52527235 0 2615.28312216 0 -74.37535244 0 -207.88289847 0 26980
0.15950000 0.15949700 9494.87284638 0 151.56130382 0 2600.84481060 0 -272.10348965 0 -1.33291968 0 27777
0.16050000 0.16050000 9428.30602957 0 283.42272731 0 2982.47463013 0 -322.86899171 0 -338.39682004 0 28224
0.16150000 0.16150500 9225.74891934 0 262.99650249 0 2953.66444095 0 -310.77136961 0 105.18808229 0 28075
0.16250000 0.16249700 9018.80716848 0 127.17450840 0 3208.33898410 0 278.79006661 0 74.91546045 0 28590
0.16350000 0.16349900 8917.06357572 0 12.30068853 0 3008.51673810 0 370.42573404 0 33.86946656 0 29163
0.16450000 0.16449100 8910.17658969 0 11.74662940 0 2761.72569022 0 642.51372244 0 -360.76955957 0 28996
0.16550000 0.16550500 8804.87878066 0 138.79602053 0 2714.83439461 0 388.55888040 0 -236.04867834 0 30777
0.16650000 0.16650700 8727.26178368 0 223.40519063 0 2559.85506412 0 79.64345387 0 321.78390388 0 29211
0.16750000 0.16749900 8472.29936008 0 180.29509395 0 2468.86269876 0 54.68676590 0 247.02688840 0 30922
0.16850000 0.16850800 8504.81877807 0 63.61881033 0 2403.49169303 0 -31.62200607 0 499.57886689 0 30867
0.16950000 0.16949900 8408.06880381 0 26.53084039 0 2306.68635714 0 -3.78178576 0 83.20818884 0 30852
0.17050000 0.17049200 8342.45420693 0 120.21887395 0 2356.86613322 0 -34.99485765 0 -240.07568288 0 31257
0.17150000 0.17149500 8304.81937488 0 91.16487218 0 2222.92421989 0 -251.14025707 0 -120.46910849 0 32608
0.17250000 0.17250900 8118.06247216 0 179.14025047 0 2194.36869418 0 88.68622155 0 -431.61140099 0 32361
0.17350000 0.17350400 8048.68328485 0 116.73109163 0 2087.32145784 0 38.22144383 0 -484.17172690 0 32508
0.17450000 0.17449800 8016.09743290 0 4.96985728 0 2149.44827239 0 385.86719823 0 -632.78114892 0 32791
0.17550000 0.17549800 8002.63348592 0 -2.01694576 0 1848.10388013 0 237.12490832 0 -425.71095909 0 33633
0.17650000 0.17650100 8086.52849108 0 1.94573964 0 2164.37376625 0 -59.99384190 0 -667.68997461 0 33984
0.17750000 0.17750300 8040.76657260 0 68.73998200 0 2194.78944253 0 -140.78903900 0 -318.56185736 0 34069
0.17850000 0.17849800 8073.62923266 0 130.05109839 0 2227.51923469 0 -252.92400860 0 -128.19205505 0 34536
