### header ###
fiducial parameters:
Omega_m = 0.31
Omega_nu = 0
Omega_de = 0.69
Omega_k = 0
H_0 = 100
w_de = -1
zeff = 0
beta = 0
fgrowth = 0
b_1 = 2
gamma = 0.55
Lx = 3500 Ly = 3500 Lz = 3500
nx = 700 ny = 700 nz = 700
xoffset = -685.467585 yoffset = -31.7331281 zoffset = 572.489161
bins = 400 dk = 0.001
kx_ny = 0.628318531 ky_ny = 0.628318531 kz_ny = 0.628318531
############################
A(data) = 8.08736517 (not used)
A(ran) = 8.09342296 (used)
Ngal = 480426
weighted Ngal = 0
Nran = 23820508
weighted Nran = 0
SN(data) = 3477.66352
SN(ran) = 70.4966492
SN(data+ran) = 3548.16017
############################
13 columns: k_central k_mean P_0(k) sigma^{lin}_{P_0(k)} P^img_1(k) sigma^{lin}_{P_1(k)} P_2(k) sigma^{lin}_{P_2(k)} P^img_3(k) sigma^{lin}_{P_3(k)} P_4(k) sigma^{lin}_{P_4(k)} N_modes
### header ###
0.00050000 0 0 0 0 0 0 0 0 0 0 0 0
0.00150000 0.00179520 15058.91536960 0 -8658.34763401 0 668.53368576 0 2334.94293008 0 -34908.05062549 0 3
0.00250000 0.00253879 24860.80163855 0 -6113.67272721 0 5264.38112432 0 8665.88788721 0 -9561.87148386 0 6
0.00350000 0.00331552 33875.00271991 0 -13043.64152936 0 -1282.00912913 0 -22990.13236044 0 8830.78802074 0 7
0.00450000 0.00420575 50933.69067501 0 -24411.37597417 0 -702.93097004 0 -28510.23989878 0 -12309.54639388 0 24
0.00550000 0.00557378 85807.41709356 0 -21010.95429911 0 31652.34423582 0 -67641.49665660 0 -28033.24414559 0 45
0.00650000 0.00659388 95630.89439591 0 7897.95572709 0 57490.38926286 0 -62648.09960989 0 -3726.23590517 0 40
0.00750000 0.00754703 92862.59174475 0 18826.60605889 0 68924.77910308 0 -54685.10504681 0 -24112.75537381 0 57
0.00850000 0.00846663 78298.05567831 0 17480.32208419 0 59920.43239081 0 -7416.54211630 0 -1201.00400075 0 75
0.00950000 0.00948925 70887.23795394 0 13253.68353117 0 62702.68617124 0 17480.87570043 0 -28053.39577676 0 112
0.01050000 0.01054430 62250.82459539 0 5226.97881109 0 33998.45914164 0 44431.80009500 0 -46346.75867239 0 105
0.01150000 0.01145670 59614.06116308 0 -1691.92873856 0 15069.21263168 0 47701.23616745 0 -36586.61506800 0 144
0.01250000 0.01249090 61013.04940392 0 -7722.50366801 0 -5691.45176490 0 14525.00786684 0 -43192.25333155 0 169
0.01350000 0.01339930 61660.44823606 0 -1007.35014691 0 -1191.40429514 0 7058.76208443 0 -23948.10990375 0 180
0.01450000 0.01448870 61818.45031123 0 2558.73675932 0 -16814.87536259 0 -4518.26144410 0 -13398.28809330 0 267
0.01550000 0.01550050 54518.57728154 0 1267.79226406 0 -5352.15144316 0 -2568.36968191 0 23133.96185984 0 238
0.01650000 0.01653350 65272.57276165 0 -8575.82559714 0 -18550.57300116 0 -2589.58425626 0 18911.30934375 0 315
0.01750000 0.01747870 64912.39003530 0 -5308.22753061 0 -1861.87785220 0 18302.66364847 0 25010.49947010 0 297
0.01850000 0.01844180 76678.83889683 0 -4834.48704092 0 -12937.12576460 0 6248.20147376 0 6040.38500924 0 388
0.01950000 0.01947590 74131.65057230 0 -349.56990301 0 -6149.69099985 0 5615.10808528 0 25847.12433340 0 399
0.02050000 0.02045430 79909.07893942 0 -1878.49741176 0 -2216.08152315 0 -9404.41195262 0 13219.91294047 0 462
0.02150000 0.02154770 83605.13168713 0 2336.76986368 0 5891.39580648 0 -14658.65082741 0 12330.80525753 0 571
0.02250000 0.02255340 71704.59697205 0 6778.35545840 0 12239.56930103 0 -12074.03804499 0 6537.29987478 0 510
0.02350000 0.02348930 79718.96712228 0 4420.88034732 0 21066.98026269 0 -8086.01916413 0 24520.32765038 0 555
0.02450000 0.02439640 71913.19957163 0 34.76399968 0 20889.82306560 0 5252.99877441 0 9940.54499266 0 592
0.02550000 0.02547300 73837.90179486 0 139.04736231 0 18076.12388268 0 5779.58747046 0 -11905.40653800 0 837
0.02650000 0.02652900 67890.29179527 0 4490.33704090 0 16502.41435621 0 -3368.99841722 0 -7225.57773015 0 723
0.02750000 0.02749970 62445.80823545 0 6288.27221728 0 14578.15502597 0 -973.71906750 0 -19363.39236610 0 826
0.02850000 0.02848090 62202.54925918 0 419.57689114 0 7972.48354544 0 3947.07342368 0 -9423.16847086 0 831
0.02950000 0.02946900 58520.89053374 0 1523.60725667 0 5569.40152843 0 -1276.31795417 0 -12677.81191735 0 996
0.03050000 0.03053250 60249.39116117 0 296.06178609 0 8412.24307027 0 2471.85222646 0 -10553.87428134 0 1041
0.03150000 0.03150510 60433.85609265 0 -2139.67140958 0 9438.02753076 0 1950.75540352 0 -6824.01772595 0 1036
0.03250000 0.03246190 61149.23899919 0 1815.03084590 0 14597.53159441 0 867.53657973 0 13.69934461 0 1059
0.03350000 0.03345080 59540.98381928 0 5196.05380787 0 17858.88486974 0 -2188.53357900 0 5180.12073245 0 1302
0.03450000 0.03451200 55050.27031933 0 4772.34915403 0 26504.93115088 0 -105.23358954 0 8837.34283703 0 1339
0.03550000 0.03553350 51454.64355772 0 4713.83191737 0 28510.90423827 0 782.89308542 0 20216.18282363 0 1365
0.03650000 0.03647120 51067.44435882 0 971.09160482 0 30403.38599627 0 2476.14828849 0 15155.13387227 0 1308
0.03750000 0.03744890 48163.28428213 0 831.00565845 0 32308.49020457 0 2855.61900468 0 13129.78421645 0 1579
0.03850000 0.03847530 49677.86759408 0 1673.12793102 0 33345.30270059 0 -1016.79151828 0 1480.96773379 0 1662
0.03950000 0.03950240 44578.28695235 0 2703.08665798 0 29834.48994709 0 -3211.78247712 0 2520.73654054 0 1683
0.04050000 0.04050350 45275.51124618 0 2555.71401464 0 31658.10184472 0 -3493.73922863 0 848.91403661 0 1822
0.04150000 0.04152450 44050.80139799 0 559.13468762 0 30329.75503623 0 523.16513322 0 -3504.12506931 0 1887
0.04250000 0.04250150 44237.92368743 0 -629.38194520 0 28364.41738092 0 3200.86516485 0 -6875.75869983 0 1920
0.04350000 0.04349210 44670.29797159 0 282.14165933 0 26779.63552963 0 3066.82360059 0 -9490.28890391 0 2005
0.04450000 0.04448520 43045.54502771 0 1790.84888849 0 28070.22571049 0 2781.72230884 0 -6259.18521998 0 2151
0.04550000 0.04548030 43064.25725665 0 222.93572406 0 27371.78346093 0 2795.09767722 0 -6630.73922392 0 2274
0.04650000 0.04648670 42716.69698059 0 1068.87684146 0 25135.94891030 0 5125.77776224 0 -3039.16493320 0 2311
0.04750000 0.04749250 41380.93171447 0 568.16416851 0 23205.93197116 0 3098.77833002 0 -4338.94514366 0 2568
0.04850000 0.04851840 40527.03402446 0 793.22799340 0 21317.98986633 0 4309.82492938 0 -2861.90808517 0 2493
0.04950000 0.04949480 40614.17322078 0 313.95577023 0 16229.48154943 0 3682.11269077 0 -4601.89071345 0 2644
0.05050000 0.05050630 39170.78495742 0 -98.32002992 0 15005.32531748 0 1874.27885600 0 -5913.55152844 0 2829
0.05150000 0.05149060 40646.61513250 0 -48.91553803 0 14964.68988539 0 3198.85000173 0 -4436.48125298 0 2784
0.05250000 0.05249300 37846.86707886 0 1549.19539933 0 11232.54135877 0 3839.43935411 0 -2480.07896380 0 3055
0.05350000 0.05348950 37641.03256048 0 1006.15212136 0 11543.23079318 0 2514.09314565 0 413.96211523 0 3009
0.05450000 0.05448610 36845.37529901 0 545.57994758 0 12375.86961955 0 1801.40081404 0 1205.45507533 0 3336
0.05550000 0.05550870 36537.01105281 0 1030.18128068 0 11555.96396672 0 1916.11009917 0 3635.45391398 0 3349
0.05650000 0.05647670 35674.03405644 0 -253.24067709 0 12944.65494548 0 135.24291150 0 5933.96889541 0 3324
0.05750000 0.05747970 36857.33340981 0 809.14778203 0 12088.43206725 0 1329.06650961 0 5888.09625368 0 3639
0.05850000 0.05849280 36052.37539550 0 62.40561570 0 11990.44199261 0 1281.66588706 0 4552.66315731 0 3846
0.05950000 0.05951020 35626.97667597 0 250.30097485 0 9766.79807160 0 1725.30072557 0 -266.35916753 0 3787
0.06050000 0.06049470 34576.65594367 0 55.99274661 0 10034.50474107 0 655.05755922 0 -86.11954593 0 3930
0.06150000 0.06148310 34470.25090216 0 1108.32864202 0 7662.10413613 0 620.95147708 0 -1813.94575806 0 4083
0.06250000 0.06249100 33647.46644489 0 597.28327555 0 8386.76565086 0 -660.68894363 0 -1432.02805809 0 4303
0.06350000 0.06350600 32559.49980821 0 1420.88929933 0 9136.37311341 0 -1138.78860760 0 -2432.40153313 0 4470
0.06450000 0.06451750 31581.92424997 0 1749.73734644 0 9316.06587289 0 -1505.09432957 0 -1518.22610681 0 4479
0.06550000 0.06550280 30375.04084474 0 914.16767570 0 11742.20047017 0 -456.27168282 0 -1827.97439361 0 4636
0.06650000 0.06648880 30375.48373773 0 -22.48667375 0 9853.45008564 0 141.16660528 0 -448.66167398 0 4653
0.06750000 0.06749660 30085.16738098 0 -69.70183486 0 12146.11887956 0 762.69052155 0 -774.07840763 0 5220
0.06850000 0.06852730 29800.83007964 0 847.52113815 0 11895.33072242 0 158.33867384 0 -2331.80946216 0 5029
0.06950000 0.06949320 29242.78490878 0 1198.33557047 0 10794.43161035 0 1082.75157169 0 -710.12798117 0 5040
0.07050000 0.07048030 28406.27076873 0 214.13433306 0 10661.29797673 0 666.40447770 0 391.41332573 0 5475
0.07150000 0.07148790 29238.79887185 0 -584.74386769 0 11008.62573396 0 2312.24466420 0 123.04785294 0 5509
0.07250000 0.07249820 29204.47466491 0 -270.00971303 0 11388.77186196 0 603.48267022 0 631.89536294 0 5916
0.07350000 0.07351270 29263.15798645 0 1455.32422951 0 10516.23944928 0 707.29568049 0 1848.67964102 0 5721
0.07450000 0.07449140 27813.12632820 0 1000.78757999 0 10964.51359189 0 312.61380446 0 910.98548955 0 6028
0.07550000 0.07549160 27366.69019151 0 705.81088173 0 10034.70404292 0 789.03379676 0 464.51392142 0 6183
0.07650000 0.07648840 26634.14518151 0 369.03505004 0 10696.15365526 0 -1159.32777014 0 -3004.24282072 0 6330
0.07750000 0.07749960 26128.36138379 0 1000.09666692 0 11117.05701091 0 -1938.31011043 0 -3575.99552970 0 6583
0.07850000 0.07848650 25321.18890451 0 1078.35364427 0 10829.92948372 0 -554.30161784 0 -3710.20317883 0 6549
0.07950000 0.07947320 24564.17405666 0 286.56394586 0 9534.34568436 0 -83.37682035 0 -3373.33876855 0 6828
0.08050000 0.08048110 24735.13075186 0 138.09071344 0 9505.51335053 0 2505.96605923 0 -3103.07439205 0 7147
0.08150000 0.08149960 24516.00944370 0 112.11282495 0 9347.43376910 0 2183.05277822 0 -2790.91233844 0 7386
0.08250000 0.08250610 24039.01369051 0 587.28053731 0 8144.84642590 0 2141.06652251 0 -2878.83766982 0 7227
0.08350000 0.08350160 23490.71216550 0 537.14947946 0 7586.14798787 0 637.08163988 0 -642.47275483 0 7798
0.08450000 0.08449610 23169.17185276 0 -179.32958723 0 7057.66592428 0 589.89028427 0 -1348.90811568 0 7371
0.08550000 0.08548940 23449.08022418 0 63.96947085 0 7608.33692681 0 -746.61904208 0 12.15708048 0 8256
0.08650000 0.08650700 23011.83411709 0 743.32834714 0 8317.97329676 0 -597.18473186 0 -2626.59903813 0 8037
0.08750000 0.08749060 22233.22823584 0 1066.66016203 0 7888.56639564 0 -1045.44890938 0 -1602.81866842 0 8155
0.08850000 0.08849210 21693.78457068 0 1134.00536328 0 8632.88128693 0 -785.58144588 0 -1163.26951777 0 8718
0.08950000 0.08949900 20871.22155990 0 510.56150588 0 8411.67838170 0 1266.13141534 0 -1490.61172871 0 8571
0.09050000 0.09049190 20867.23552297 0 -83.23786267 0 9137.26997172 0 479.71179447 0 -2219.92361986 0 8932
0.09150000 0.09150830 20380.60684719 0 110.80075446 0 8011.44705648 0 1083.99942270 0 -1341.99898499 0 9285
0.09250000 0.09250820 20707.24042934 0 195.23941076 0 7998.01632648 0 1301.28604664 0 -1193.95092984 0 9204
0.09350000 0.09350330 19734.20452427 0 3.59952422 0 6586.54957557 0 856.94590104 0 -1240.03394574 0 9349
0.09450000 0.09448040 19847.14223742 0 275.54587544 0 6437.12855214 0 1453.38657267 0 -1458.94487973 0 9564
0.09550000 0.09549270 19729.55414785 0 418.40654641 0 6200.75656191 0 473.91100349 0 -1605.35423081 0 10155
0.09650000 0.09649430 18589.65830777 0 793.74174927 0 5448.75747720 0 404.36240961 0 -1478.70897953 0 9913
0.09750000 0.09749140 18613.35308288 0 728.42278347 0 5660.70391888 0 -579.54651843 0 -1030.13034799 0 10476
0.09850000 0.09850240 17862.20656718 0 188.36571151 0 5379.95405078 0 -307.82723845 0 -838.30674944 0 10575
0.09950000 0.09950330 17756.90875816 0 167.67817982 0 6311.23621895 0 295.94995561 0 -2063.26129601 0 10882
0.10050000 0.10051200 17413.11307254 0 195.44092707 0 5097.59869558 0 832.24575883 0 -1056.71389265 0 10875
0.10150000 0.10150300 17644.63538450 0 143.42978847 0 5111.17336581 0 -84.17480280 0 -1493.05871250 0 11118
0.10250000 0.10250800 17086.81166014 0 63.18433230 0 4820.53591164 0 454.07271912 0 -1803.03951812 0 11575
0.10350000 0.10349800 17185.24462777 0 542.50294851 0 5121.18274745 0 376.83661011 0 -1476.17341715 0 11364
0.10450000 0.10450100 16265.35588184 0 812.21038707 0 4751.80999150 0 -204.80811387 0 -2038.75824118 0 12093
0.10550000 0.10551000 15609.09918984 0 637.37062756 0 5015.90708307 0 199.83996172 0 -1235.82646231 0 12067
0.10650000 0.10649700 15659.14609802 0 110.91147771 0 5106.16867499 0 -253.91941060 0 -2146.51410632 0 12054
0.10750000 0.10749900 15607.99195736 0 -84.11988407 0 5250.26391018 0 279.80650603 0 -1224.08979800 0 12807
0.10850000 0.10850100 15627.36852579 0 84.87224854 0 5683.96687333 0 -374.54906780 0 -1539.44068116 0 12736
0.10950000 0.10950300 15673.09722729 0 236.60229458 0 5471.62182796 0 -235.61132151 0 -1334.76875689 0 12933
0.11050000 0.11050200 15435.04224369 0 78.53599994 0 5949.71374130 0 -261.69661155 0 -852.15822778 0 13428
0.11150000 0.11150900 15536.02184604 0 9.96968735 0 5693.81017009 0 373.18274292 0 -326.00578133 0 13453
0.11250000 0.11250000 15578.98246633 0 -77.11508849 0 6048.81104843 0 1121.69293808 0 -609.31778540 0 13668
0.11350000 0.11349100 15473.35248756 0 451.42200455 0 5592.05550501 0 613.14659532 0 284.27640356 0 13791
0.11450000 0.11448600 15061.57272756 0 734.83919570 0 5990.00593131 0 314.91463356 0 1299.18230492 0 14205
0.11550000 0.11549300 14663.63337357 0 580.85748168 0 5982.15565302 0 -366.60578198 0 1292.81571815 0 14776
0.11650000 0.11649800 13978.69936029 0 672.95707953 0 6437.54930048 0 -68.57101833 0 2292.29233488 0 14553
0.11750000 0.11747300 13827.22995677 0 89.59348784 0 6290.50882689 0 -81.67588981 0 1773.32139830 0 14568
0.11850000 0.11849100 13741.19799293 0 -277.62857974 0 6359.00222822 0 42.12333109 0 1753.77874500 0 16015
0.11950000 0.11950300 13982.46395073 0 -297.20002108 0 5817.41053204 0 552.22002077 0 963.62553620 0 15270
0.12050000 0.12050700 14106.58471195 0 -68.89355515 0 5550.27962347 0 513.49235025 0 264.20227866 0 15999
0.12150000 0.12150000 14172.90793761 0 5.66617365 0 4845.32684691 0 695.20580902 0 227.33697318 0 15670
0.12250000 0.12250700 13973.82753737 0 391.88389954 0 5096.31430590 0 47.54622362 0 108.10730072 0 16887
0.12350000 0.12352200 13631.24980748 0 350.94397852 0 4707.00029295 0 165.67519626 0 510.69437377 0 16407
0.12450000 0.12449800 13376.36489016 0 233.30384902 0 4856.15558059 0 274.25927129 0 1187.54005377 0 16306
0.12550000 0.12549900 13316.13144314 0 101.43655719 0 4664.32755310 0 627.00139537 0 1148.90871248 0 17523
0.12650000 0.12650100 12980.08638490 0 194.26726064 0 4877.60267376 0 832.60782385 0 899.64300000 0 17154
0.12750000 0.12750600 12951.85195661 0 459.33539510 0 4180.47803085 0 222.55594332 0 842.44004829 0 18007
0.12850000 0.12850300 12391.92449053 0 178.70842981 0 4097.28058217 0 192.54108520 0 1673.48224542 0 17496
0.12950000 0.12949900 12335.34491071 0 87.08339181 0 3765.49836897 0 476.21072536 0 1022.89347649 0 18405
0.13050000 0.13049000 12235.47254085 0 -111.34662007 0 3213.39903654 0 488.87746495 0 570.90567614 0 18100
0.13150000 0.13148800 12376.64468228 0 -152.54341903 0 3374.84460472 0 222.77960428 0 404.67464917 0 19059
0.13250000 0.13249300 12491.68613715 0 167.85312255 0 3574.25717471 0 -436.13112398 0 332.80529600 0 18957
0.13350000 0.13349100 12363.02572276 0 387.61441109 0 3765.89697267 0 -510.45853325 0 666.72336065 0 19468
0.13450000 0.13450700 12200.04110143 0 348.42613186 0 4271.82471061 0 -606.01712537 0 1130.13004959 0 19953
0.13550000 0.13551000 11906.73521698 0 361.61437795 0 4609.12094156 0 377.31493454 0 1662.37670362 0 19956
0.13650000 0.13649900 11925.77961567 0 81.12625961 0 4872.81942944 0 515.66141869 0 1727.89164957 0 19723
0.13750000 0.13749600 11582.64826954 0 12.85242248 0 4706.11450697 0 653.26273537 0 1673.18329264 0 20946
0.13850000 0.13851100 11648.97149520 0 163.26696561 0 4093.63778730 0 616.23134501 0 1244.62896054 0 20955
0.13950000 0.13949800 11343.70749995 0 120.49125314 0 3872.88884739 0 160.76683467 0 1299.24873887 0 20506
0.14050000 0.14048300 11211.94683461 0 21.04727152 0 3098.09184588 0 150.63233576 0 959.03716479 0 21447
0.14150000 0.14148400 11240.40270939 0 -70.20274683 0 2998.27483764 0 352.51624865 0 505.49813174 0 21771
0.14250000 0.14249400 11187.03410377 0 89.32409818 0 2780.60400403 0 31.86460070 0 -96.44459955 0 22470
0.14350000 0.14350900 11112.96025073 0 238.47130301 0 2852.10907771 0 -164.23357957 0 -317.44687425 0 22519
0.14450000 0.14449900 10948.66909507 0 117.09758558 0 2706.95089934 0 -331.17323533 0 465.31223604 0 22218
0.14550000 0.14550500 10848.11024107 0 198.81023551 0 2838.24652704 0 426.87355320 0 429.28621278 0 23559
0.14650000 0.14650700 10937.22031121 0 18.16658478 0 3215.46956128 0 198.42270415 0 680.69442011 0 23044
0.14750000 0.14750500 10823.88399437 0 174.65042276 0 3083.23278597 0 209.87038078 0 169.02568175 0 23649
0.14850000 0.14849900 10571.20246968 0 368.55229668 0 3169.23153284 0 -382.71933629 0 938.45592742 0 23640
0.14950000 0.14949500 10211.24118983 0 439.14279633 0 3386.40411183 0 -246.98149187 0 766.87918203 0 24457
0.15050000 0.15050000 10154.34051258 0 216.34436910 0 3649.61541742 0 -186.13353083 0 729.69277913 0 24591
0.15150000 0.15149900 9966.77533015 0 -11.96608288 0 3611.94736839 0 -27.67350431 0 531.44058879 0 25020
0.15250000 0.15250500 9986.07439231 0 23.84458367 0 3590.38955197 0 193.69039252 0 518.02425280 0 25297
0.15350000 0.15350100 9995.80696583 0 -20.70491524 0 3383.96820037 0 161.73455586 0 552.92975679 0 25452
0.15450000 0.15450400 10029.55541188 0 -19.06676478 0 3505.56447153 0 371.85627841 0 606.05587851 0 26061
0.15550000 0.15549900 10003.02612161 0 -18.79106390 0 3112.99519509 0 315.52914759 0 268.24256999 0 26128
0.15650000 0.15649500 10017.47550550 0 192.93304550 0 3022.24642087 0 221.69783815 0 370.57410319 0 26331
0.15750000 0.15749700 9797.77843645 0 225.18340600 0 2621.99295100 0 272.50430781 0 518.82146019 0 27345
0.15850000 0.15849900 9718.73310957 0 28.32632858 0 2461.82070018 0 94.40374864 0 438.48288577 0 26980
0.15950000 0.15949700 9443.60798247 0 79.49907075 0 2171.75900690 0 310.91973877 0 304.74913215 0 27777
0.16050000 0.16050000 9508.27035941 0 193.69925038 0 2156.51241563 0 301.25581367 0 307.91249535 0 28224
0.16150000 0.16150500 9401.41135259 0 127.24647851 0 2151.35271226 0 -143.05332942 0 32.26242933 0 28075
0.16250000 0.16249700 9124.55894282 0 257.18906812 0 2300.96196521 0 -112.68858584 0 318.06803167 0 28590
0.16350000 0.16349900 8996.44107235 0 361.73617352 0 2451.40164252 0 -69.24953039 0 415.87430572 0 29163
0.16450000 0.16449100 8730.06308186 0 175.93924137 0 2376.23162933 0 107.10337303 0 834.02951036 0 28996
0.16550000 0.16550500 8708.15095104 0 69.15364406 0 2564.15112615 0 447.71499020 0 866.62200570 0 30777
0.16650000 0.16650700 8530.93839232 0 99.05379289 0 2399.23992030 0 309.59216702 0 979.71362416 0 29211
0.16750000 0.16749900 8535.14587575 0 107.06639147 0 2513.65025265 0 223.28339506 0 970.73286150 0 30922
0.16850000 0.16850800 8438.03051477 0 106.56415081 0 2181.41407415 0 -24.87940314 0 1105.45426650 0 30867
0.16950000 0.16949900 8273.80579306 0 106.73654691 0 2594.37857291 0 -77.22536885 0 1006.99804698 0 30852
0.17050000 0.17049200 8262.84419149 0 171.00319896 0 2432.68941358 0 25.89373882 0 1068.74950972 0 31257
0.17150000 0.17149500 8191.73772150 0 -0.97971584 0 2354.67381291 0 177.30335179 0 1030.81904659 0 32608
0.17250000 0.17250900 8203.10899909 0 -125.16266698 0 2175.23571690 0 177.05533171 0 889.48967814 0 32361
0.17350000 0.17350400 8439.87959301 0 -202.36777348 0 2132.66262797 0 391.91379482 0 1078.34700088 0 32508
0.17450000 0.17449800 8538.46757320 0 -109.70337635 0 2133.31589513 0 53.63976686 0 469.21080161 0 32791
0.17550000 0.17549800 8510.17778329 0 178.47148205 0 1958.21815045 0 28.04863468 0 847.42370169 0 33633
0.17650000 0.17650100 8282.06574737 0 385.02016538 0 1958.24029510 0 -178.55341726 0 716.08710639 0 33984
0.17750000 0.17750300 8095.46385720 0 354.18263353 0 1793.59482505 0 -81.18859680 0 638.18665790 0 34069
