### header ###
fiducial parameters:
Omega_m = 0.31
Omega_nu = 0
Omega_de = 0.69
Omega_k = 0
H_0 = 100
w_de = -1
zeff = 0
beta = 0
fgrowth = 0
b_1 = 2
gamma = 0.55
Lx = 3500 Ly = 3500 Lz = 3500
nx = 700 ny = 700 nz = 700
xoffset = -685.467585 yoffset = -31.7331281 zoffset = 572.489161
bins = 400 dk = 0.001
kx_ny = 0.628318531 ky_ny = 0.628318531 kz_ny = 0.628318531
############################
A(data) = 7.99823771 (not used)
A(ran) = 7.99895442 (used)
Ngal = 475157
weighted Ngal = 0
Nran = 23820508
weighted Nran = 0
SN(data) = 3484.07499
SN(ran) = 69.673794
SN(data+ran) = 3553.74878
############################
13 columns: k_central k_mean P_0(k) sigma^{lin}_{P_0(k)} P^img_1(k) sigma^{lin}_{P_1(k)} P_2(k) sigma^{lin}_{P_2(k)} P^img_3(k) sigma^{lin}_{P_3(k)} P_4(k) sigma^{lin}_{P_4(k)} N_modes
### header ###
0.00050000 0 0 0 0 0 0 0 0 0 0 0 0
0.00150000 0.00179520 2813.79883384 0 -6277.24418176 0 -5046.95388186 0 3630.70388663 0 -17166.75384533 0 3
0.00250000 0.00253879 6933.26835494 0 -4017.07266118 0 -416.02821104 0 2643.18538071 0 21265.72849319 0 6
0.00350000 0.00331552 10486.23344902 0 -10257.16919317 0 -4962.10665678 0 -11991.21705535 0 8480.71432694 0 7
0.00450000 0.00420575 17407.90907988 0 -17897.63800660 0 -8548.26658066 0 -14907.44596608 0 -1630.72092697 0 24
0.00550000 0.00557378 49174.85187756 0 -34052.38136351 0 -5632.12624853 0 -30093.13945485 0 -25419.73259540 0 45
0.00650000 0.00659388 62401.85110592 0 -29294.49266569 0 -7492.53148153 0 -34205.84378549 0 -15788.91374489 0 40
0.00750000 0.00754703 98532.95073088 0 -17922.21856770 0 6881.82633383 0 -68787.37155208 0 -52568.96232747 0 57
0.00850000 0.00846663 93273.04282578 0 15026.80562763 0 30614.09233757 0 -42983.42928547 0 18220.50699832 0 75
0.00950000 0.00948925 99465.68337360 0 24518.22390867 0 35097.94099613 0 -51386.77020659 0 -24652.97410171 0 112
0.01050000 0.01054430 78904.81907837 0 13695.02639844 0 40246.90420655 0 -5363.19055101 0 -4721.17286872 0 105
0.01150000 0.01145670 85915.37226054 0 -92.90499875 0 62875.08226867 0 12975.98962472 0 -28251.59039102 0 144
0.01250000 0.01249090 80094.87254988 0 -1526.53035042 0 66770.32613987 0 25440.21639631 0 -48155.20148502 0 169
0.01350000 0.01339930 84629.54317935 0 7051.06681869 0 49244.60752392 0 43754.61670909 0 -27111.58382769 0 180
0.01450000 0.01448870 73515.69714264 0 7806.40974549 0 31354.05580520 0 29131.06515136 0 -16777.89379769 0 267
0.01550000 0.01550050 70586.62433511 0 -4349.06524854 0 -6545.29409329 0 8205.44525963 0 -23732.97463253 0 238
0.01650000 0.01653350 73242.21071962 0 -10910.36992352 0 9037.29795093 0 11747.29373959 0 -16034.94080236 0 315
0.01750000 0.01747870 78593.57602772 0 -1259.23335698 0 -9498.75923239 0 -12512.83427755 0 -19546.41789535 0 297
0.01850000 0.01844180 72989.20809751 0 -2387.41467740 0 -1605.01098874 0 2711.11409347 0 -21820.00907361 0 388
0.01950000 0.01947590 81884.49241031 0 -712.24611691 0 -5015.78528750 0 -6144.74167066 0 -19139.17778852 0 399
0.02050000 0.02045430 73650.89022867 0 12461.34796715 0 6404.42090463 0 -4810.53760233 0 -7938.69081010 0 462
0.02150000 0.02154770 67741.81191946 0 8208.71159545 0 8686.09488001 0 1187.41825820 0 9228.45056660 0 571
0.02250000 0.02255340 57745.49562669 0 -627.19405382 0 8749.56144587 0 1114.04196163 0 -2006.42705271 0 510
0.02350000 0.02348930 63049.36066131 0 1517.01922340 0 19034.76576548 0 3535.34902529 0 14737.37505687 0 555
0.02450000 0.02439640 68934.74419542 0 -5086.33814124 0 22890.81360682 0 3726.26912214 0 22676.45339833 0 592
0.02550000 0.02547300 69208.67351143 0 -4634.87516909 0 17753.58706071 0 6835.87618584 0 12853.75115872 0 837
0.02650000 0.02652900 74446.76893664 0 33.49699355 0 12393.91750900 0 4826.14958033 0 -421.18569994 0 723
0.02750000 0.02749970 69689.21240856 0 5166.23603713 0 10061.75373245 0 -8973.33313045 0 -7483.23072868 0 826
0.02850000 0.02848090 64774.53959131 0 6682.80129522 0 16379.95444371 0 -12704.16405042 0 -6030.43098923 0 831
0.02950000 0.02946900 58946.28925327 0 2748.57176833 0 13149.93584762 0 -8132.87724277 0 -11580.76597432 0 996
0.03050000 0.03053250 60242.52631979 0 -1804.77787311 0 15368.71901803 0 -706.19287693 0 -9159.18210253 0 1041
0.03150000 0.03150510 59723.56645554 0 -1670.21590959 0 11335.18180984 0 3124.99759519 0 -20193.59528100 0 1036
0.03250000 0.03246190 63452.39328471 0 1353.73564930 0 24037.24211854 0 2835.57809676 0 -19272.93147233 0 1059
0.03350000 0.03345080 59441.88651215 0 6482.51401157 0 14444.95495841 0 4631.98529231 0 -14414.17389541 0 1302
0.03450000 0.03451200 54832.14552040 0 3248.84154829 0 20917.83604739 0 88.62908835 0 -3529.02672782 0 1339
0.03550000 0.03553350 52027.74709034 0 240.33698975 0 15843.05741326 0 3112.29763862 0 3370.45996410 0 1365
0.03650000 0.03647120 54017.00096726 0 982.80280279 0 21836.39611434 0 7060.13505271 0 -3725.54942103 0 1308
0.03750000 0.03744890 53412.78420190 0 115.99588927 0 15655.60295408 0 -4547.51452627 0 2325.99649163 0 1579
0.03850000 0.03847530 51708.42124257 0 617.07616340 0 16344.19083455 0 2331.39978614 0 6590.88992690 0 1662
0.03950000 0.03950240 54001.49971251 0 397.70794239 0 18193.15835601 0 -1275.43216818 0 -2559.76648552 0 1683
0.04050000 0.04050350 52809.89611553 0 -472.42177580 0 17366.49858505 0 -152.84458626 0 1976.73107755 0 1822
0.04150000 0.04152450 52328.47143241 0 2764.20589098 0 19198.19327980 0 -1810.80121782 0 -803.55736523 0 1887
0.04250000 0.04250150 50888.29414325 0 2736.31470476 0 15168.42066206 0 3774.65518160 0 3243.53790470 0 1920
0.04350000 0.04349210 49744.74443598 0 1271.34648033 0 17826.55368127 0 3676.04505677 0 68.86676012 0 2005
0.04450000 0.04448520 45235.98304658 0 2497.15248867 0 13121.70141933 0 3015.27085624 0 -364.42010506 0 2151
0.04550000 0.04548030 44730.97431160 0 1795.93108558 0 11935.85543125 0 2796.99104476 0 -6329.74914605 0 2274
0.04650000 0.04648670 42024.01233994 0 1086.15077541 0 12789.86384451 0 -824.55381478 0 -3771.14525463 0 2311
0.04750000 0.04749250 41563.29290423 0 2294.54001682 0 15647.96304995 0 -1181.20668398 0 -3396.97818204 0 2568
0.04850000 0.04851840 38471.45692188 0 2838.83336025 0 16898.80358471 0 -1171.60697836 0 81.79591381 0 2493
0.04950000 0.04949480 37860.37531513 0 1763.19022110 0 17652.82890486 0 435.25751755 0 2577.20539711 0 2644
0.05050000 0.05050630 37596.63253795 0 48.14246831 0 19397.82729628 0 5286.00537470 0 6548.07324682 0 2829
0.05150000 0.05149060 38471.45692188 0 -1381.31681043 0 18087.08548425 0 6046.97304251 0 6967.90258697 0 2784
0.05250000 0.05249300 39216.40293567 0 -2118.80007730 0 16881.86292774 0 4175.32939981 0 6963.73939284 0 3055
0.05350000 0.05348950 39897.24018877 0 983.62326205 0 14907.11379634 0 543.97224602 0 4192.29220143 0 3009
0.05450000 0.05448610 38363.28030840 0 2270.94489263 0 13572.34503945 0 -579.69710204 0 1724.10491449 0 3336
0.05550000 0.05550870 36398.60699258 0 2572.69896091 0 11072.12551680 0 -3127.17884318 0 1933.17255171 0 3349
0.05650000 0.05647670 35328.35607561 0 1025.47554264 0 12134.38221525 0 -1032.80209997 0 -167.33936668 0 3324
0.05750000 0.05747970 33498.65439933 0 404.07563640 0 10378.20077577 0 2052.98617857 0 -4780.21050465 0 3639
0.05850000 0.05849280 34164.43329067 0 -314.73858360 0 12235.25109435 0 1674.04693398 0 -3936.97546344 0 3846
0.05950000 0.05951020 33831.48848337 0 82.76518513 0 11886.91575555 0 917.38640052 0 -5964.90497095 0 3787
0.06050000 0.06049470 34166.20486264 0 428.50672111 0 12338.33443841 0 279.90283525 0 -2142.83809448 0 3930
0.06150000 0.06148310 33154.63726721 0 535.15424653 0 11233.31642151 0 867.50557722 0 -698.37692284 0 4083
0.06250000 0.06249100 33847.98624735 0 291.76461683 0 12591.11561402 0 808.64177678 0 -137.39204974 0 4303
0.06350000 0.06350600 33405.42542435 0 646.15651730 0 13872.62648853 0 578.08718601 0 -259.59176261 0 4470
0.06450000 0.06451750 33503.63694549 0 567.29609825 0 11703.66877981 0 1453.47515127 0 -701.89902937 0 4479
0.06550000 0.06550280 32622.83350617 0 232.06374864 0 11767.88826375 0 307.99110885 0 -370.63942991 0 4636
0.06650000 0.06648880 31642.60058998 0 880.34947401 0 11402.50154474 0 878.08296912 0 -405.55489899 0 4653
0.06750000 0.06749660 32538.79456080 0 315.33538191 0 12849.87584503 0 -351.85301639 0 -1008.67882589 0 5220
0.06850000 0.06852730 30527.72820399 0 1051.89632412 0 11554.19239475 0 -1184.05227146 0 74.20195983 0 5029
0.06950000 0.06949320 31576.27736431 0 684.97719535 0 13148.38572214 0 1001.50617387 0 -2.90028476 0 5040
0.07050000 0.07048030 29594.88483802 0 416.28730344 0 11503.25970059 0 569.44634373 0 360.76402340 0 5475
0.07150000 0.07148790 30528.94615972 0 -128.00493276 0 11971.84048691 0 577.54132040 0 -368.40060583 0 5509
0.07250000 0.07249820 29369.89519770 0 916.57147742 0 11758.03389467 0 293.39778474 0 -2925.66253148 0 5916
0.07350000 0.07351270 29431.01443070 0 578.62972993 0 10838.48839080 0 -1064.63171212 0 -637.96299694 0 5721
0.07450000 0.07449140 28401.73111556 0 74.34490355 0 9771.33772478 0 375.52232515 0 -848.32941786 0 6028
0.07550000 0.07549160 28436.05532250 0 276.36301301 0 10342.65861310 0 1011.92966045 0 -1548.94073585 0 6183
0.07650000 0.07648840 28700.79460891 0 525.64201228 0 10179.98401686 0 2033.21100645 0 -841.51993810 0 6330
0.07750000 0.07749960 27623.78957380 0 778.81293372 0 9945.95935950 0 2245.17959278 0 545.59544883 0 6583
0.07850000 0.07848650 27336.01985176 0 327.79396179 0 8630.77754521 0 2509.85244524 0 2235.41380229 0 6549
0.07950000 0.07947320 26873.86101383 0 -85.38434356 0 8185.72544913 0 2014.50984983 0 3027.29540099 0 6828
0.08050000 0.08048110 26787.16471050 0 559.69162556 0 8349.49620552 0 896.77194618 0 3621.64672493 0 7147
0.08150000 0.08149960 26290.12804939 0 936.66553250 0 8812.56297408 0 -176.37991990 0 4481.52347035 0 7386
0.08250000 0.08250610 25198.61826877 0 1295.88275212 0 8165.80633678 0 -529.69226870 0 4718.77017424 0 7227
0.08350000 0.08350160 24435.95653526 0 752.37775822 0 8785.43577828 0 -325.97920775 0 4455.90211072 0 7798
0.08450000 0.08449610 24105.11546968 0 442.57853872 0 8476.67292839 0 1185.30344416 0 3381.78695238 0 7371
0.08550000 0.08548940 23590.14164237 0 277.98621583 0 7308.68660024 0 813.89559491 0 2909.00975495 0 8256
0.08650000 0.08650700 23177.03320338 0 253.59388425 0 7479.38863197 0 994.71994599 0 1424.22206910 0 8037
0.08750000 0.08749060 22776.32576820 0 238.96955763 0 6644.46890670 0 -234.10327087 0 1690.06858799 0 8155
0.08850000 0.08849210 22697.60153874 0 664.76355916 0 7188.75117781 0 -410.92054760 0 1735.28796255 0 8718
0.08950000 0.08949900 22185.28506938 0 442.11682278 0 6609.52464957 0 33.86304461 0 1134.86900461 0 8571
0.09050000 0.09049190 21630.00797972 0 78.65657756 0 7178.42069875 0 606.15995836 0 774.22677678 0 8932
0.09150000 0.09150830 21264.28909096 0 574.42224650 0 6865.62752262 0 75.92425996 0 -991.67727113 0 9285
0.09250000 0.09250820 20865.90684399 0 803.74227305 0 6994.88584256 0 -180.65937344 0 -1828.19584011 0 9204
0.09350000 0.09350330 20051.42663033 0 610.13160127 0 6404.05551791 0 -578.41492683 0 -1611.36650318 0 9349
0.09450000 0.09448040 19172.39476298 0 995.01668429 0 6333.31443464 0 -204.17920582 0 -1318.83568147 0 9564
0.09550000 0.09549270 18920.38865010 0 333.53496221 0 6313.25138207 0 307.59139793 0 -1085.52740352 0 10155
0.09650000 0.09649430 18679.01196906 0 42.25730622 0 5559.66895491 0 1660.45011910 0 -323.91975534 0 9913
0.09750000 0.09749140 18594.41940744 0 -28.94826107 0 5334.36928950 0 932.48130095 0 -1597.90255620 0 10476
0.09850000 0.09850240 18342.96691081 0 206.98714739 0 5440.99577751 0 487.58753911 0 273.85180974 0 10575
0.09950000 0.09950330 18135.36082046 0 581.17968634 0 4900.63310938 0 334.60787048 0 753.44845203 0 10882
0.10050000 0.10051200 17881.36168912 0 437.87501514 0 5101.65116647 0 -140.87983206 0 1807.80061779 0 10875
0.10150000 0.10150300 17590.82388588 0 365.38450455 0 4800.46178675 0 708.66975600 0 1785.32379841 0 11118
0.10250000 0.10250800 17035.65751947 0 436.45665033 0 5140.79183470 0 98.60303855 0 1034.10863430 0 11575
0.10350000 0.10349800 16539.83881409 0 765.92031870 0 5000.84872132 0 -141.88298469 0 232.99714562 0 11364
0.10450000 0.10450100 16166.70146771 0 199.45021589 0 5353.31403727 0 -63.92363143 0 238.88208626 0 12093
0.10550000 0.10551000 15907.83051345 0 125.08626794 0 5060.86072183 0 -91.58517763 0 -424.41217539 0 12067
0.10650000 0.10649700 15938.72229969 0 -105.58546802 0 5163.43473895 0 196.95119218 0 -774.73167479 0 12054
0.10750000 0.10749900 16045.01661795 0 -57.89895805 0 4906.06962087 0 427.75158856 0 -202.43974359 0 12807
0.10850000 0.10850100 16228.26359370 0 -38.52770433 0 4972.53678675 0 212.05716493 0 -969.12737440 0 12736
0.10950000 0.10950300 15916.02403381 0 253.82640307 0 4490.41454718 0 384.76218022 0 -760.33433083 0 12933
0.11050000 0.11050200 15814.60153847 0 203.81824803 0 5285.42961380 0 -228.88931312 0 -149.88273937 0 13428
0.11150000 0.11150900 15612.97450352 0 436.32931859 0 4982.73439791 0 -394.55897322 0 -893.88539110 0 13453
0.11250000 0.11250000 15386.43473774 0 769.78013113 0 5973.47495036 0 -289.72620183 0 -202.46742440 0 13668
0.11350000 0.11349100 14890.94820210 0 547.92063705 0 5986.14168995 0 -291.36822760 0 159.69946256 0 13791
0.11450000 0.11448600 14285.07058802 0 402.18337609 0 6162.42417339 0 10.57359409 0 979.24969375 0 14205
0.11550000 0.11549300 14359.80878055 0 172.68619234 0 6091.27341411 0 833.12268696 0 546.06934434 0 14776
0.11650000 0.11649800 14267.35486831 0 -27.67627239 0 5806.62608767 0 1276.73870251 0 610.13713743 0 14553
0.11750000 0.11747300 14138.36228418 0 -67.28153538 0 5077.41384744 0 765.98564542 0 333.17178996 0 14568
0.11850000 0.11849100 14257.83266897 0 -0.41222155 0 4929.73117901 0 613.49426632 0 636.59888652 0 16015
0.11950000 0.11950300 13999.51533095 0 42.04194951 0 4363.37069221 0 69.07181958 0 548.51632812 0 15270
0.12050000 0.12050700 14096.06600337 0 313.44201436 0 4409.25440626 0 -279.37911429 0 5.45719459 0 15999
0.12150000 0.12150000 13861.88633346 0 19.94280712 0 4227.11466299 0 -124.48836240 0 149.36455457 0 15670
0.12250000 0.12250700 13853.13919685 0 57.55770900 0 4692.30731792 0 -428.31849159 0 -493.79246994 0 16887
0.12350000 0.12352200 13887.35268054 0 108.58307852 0 4369.92550850 0 -221.29369829 0 -574.46099964 0 16407
0.12450000 0.12449800 13602.68320945 0 263.34638795 0 5055.26919780 0 173.42471640 0 -564.16152309 0 16306
0.12550000 0.12549900 13501.37143736 0 185.68953060 0 4562.03034410 0 253.45658742 0 -233.31270688 0 17523
0.12650000 0.12650100 13406.03872067 0 160.21986182 0 4509.90183886 0 519.28096167 0 -584.59771301 0 17154
0.12750000 0.12750600 13254.01570091 0 6.50156948 0 4312.85874638 0 771.39779779 0 -64.87983740 0 18007
0.12850000 0.12850300 13230.54237230 0 15.31280378 0 4305.60637363 0 615.15290058 0 -531.12613476 0 17496
0.12950000 0.12949900 13112.84355947 0 197.85580111 0 3659.97911345 0 618.09038835 0 -202.03671097 0 18405
0.13050000 0.13049000 12874.78857587 0 127.65726176 0 3214.29589485 0 187.56407520 0 -315.32430958 0 18100
0.13150000 0.13148800 12963.58862092 0 91.54265990 0 3239.09790245 0 -65.56211406 0 8.79674062 0 19059
0.13250000 0.13249300 12758.41844203 0 169.10983142 0 2899.36576004 0 288.79723378 0 86.96203913 0 18957
0.13350000 0.13349100 12446.40032864 0 370.59956954 0 2865.70589259 0 180.69701934 0 636.71071700 0 19468
0.13450000 0.13450700 12392.03521378 0 122.59831655 0 2811.51793493 0 375.82792132 0 487.85770383 0 19953
0.13550000 0.13551000 12143.35079835 0 143.67448685 0 2670.89940973 0 353.69545124 0 496.85728945 0 19956
0.13650000 0.13649900 12005.16818462 0 353.47954091 0 2809.34775926 0 101.07382783 0 387.31656555 0 19723
0.13750000 0.13749600 11767.88826375 0 170.71753298 0 2827.18527454 0 35.74522911 0 674.72975873 0 20946
0.13850000 0.13851100 11748.06880233 0 78.69920601 0 2934.13285997 0 -640.29261408 0 186.02170035 0 20955
0.13950000 0.13949800 11617.08319972 0 246.79215512 0 3046.38408898 0 -486.91544899 0 -195.91592981 0 20506
0.14050000 0.14048300 11381.46412758 0 183.75962439 0 3086.87558084 0 -363.31287258 0 -321.43844735 0 21447
0.14150000 0.14148400 11430.07163354 0 39.17477099 0 2922.04188126 0 398.85946417 0 -221.83513497 0 21771
0.14250000 0.14249400 11361.31249641 0 -59.82377100 0 2731.01106117 0 560.95165612 0 -1208.53318163 0 22470
0.14350000 0.14350900 11188.03061300 0 284.64068304 0 2884.86101452 0 204.20910110 0 -677.52552075 0 22519
0.14450000 0.14449900 11064.33060013 0 569.85380528 0 2872.46001073 0 -64.32577827 0 -53.41466650 0 22218
0.14550000 0.14550500 10640.67023559 0 241.16519964 0 3223.17589936 0 21.67551523 0 447.44593271 0 23559
0.14650000 0.14650700 10509.77321159 0 108.29032625 0 3475.24844618 0 -167.01051863 0 824.56820880 0 23044
0.14750000 0.14750500 10509.89500716 0 130.97895921 0 3782.49438757 0 55.58528505 0 920.72581369 0 23649
0.14850000 0.14849900 10547.13123552 0 58.65065818 0 4009.88672237 0 -3.84002619 0 983.31323696 0 23640
0.14950000 0.14949500 10342.17143081 0 126.81133615 0 3903.86921223 0 152.52902500 0 1178.98114669 0 24457
0.15050000 0.15050000 10273.98805457 0 261.97231244 0 3737.52967648 0 90.27078195 0 1026.94262567 0 24591
0.15150000 0.15149900 10034.34972852 0 106.17650872 0 3391.46416428 0 403.79107765 0 1057.09920955 0 25020
0.15250000 0.15250500 9869.60460755 0 40.02147167 0 3377.00370806 0 418.56709512 0 573.31833571 0 25297
0.15350000 0.15350100 9789.47419283 0 213.76783911 0 2831.71385539 0 205.53224391 0 390.71909097 0 25452
0.15450000 0.15450400 9644.94713698 0 185.20567001 0 2861.05551616 0 -61.21423355 0 79.44647721 0 26061
0.15550000 0.15549900 9328.57759993 0 219.51880462 0 2781.32370514 0 -79.19303169 0 143.97897578 0 26128
0.15650000 0.15649500 9353.23566730 0 219.91740832 0 2940.87590578 0 123.95024741 0 197.67421499 0 26331
0.15750000 0.15749700 9163.54459851 0 64.83388725 0 2575.55562071 0 48.45271485 0 225.32402452 0 27345
0.15850000 0.15849900 9244.18434016 0 37.98881428 0 2855.63007700 0 272.58845748 0 -109.48768746 0 26980
0.15950000 0.15949700 9134.25829936 0 -103.27002346 0 2459.27406547 0 28.99498628 0 96.01466117 0 27777
0.16050000 0.16050000 9328.24543019 0 29.42248874 0 2820.06576969 0 40.79631296 0 -248.72870473 0 28224
0.16150000 0.16150500 9200.88047780 0 203.91568449 0 2633.91784483 0 -151.91893991 0 174.35700615 0 28075
0.16250000 0.16249700 9106.96501869 0 153.16457645 0 2647.64752761 0 109.92936250 0 161.90396243 0 28590
0.16350000 0.16349900 8983.36465674 0 0.62747308 0 2432.82228148 0 197.77497314 0 -148.75779117 0 29163
0.16450000 0.16449100 8932.64233674 0 5.78542259 0 2458.26648391 0 474.76246527 0 -168.66029503 0 28996
0.16550000 0.16550500 8822.57235572 0 216.05870312 0 2179.07781361 0 284.73590504 0 -275.44733175 0 30777
0.16650000 0.16650700 8620.08167944 0 223.06194856 0 2046.84103830 0 -98.57524701 0 -106.57156927 0 29211
0.16750000 0.16749900 8535.11265878 0 190.50599190 0 2084.33193014 0 -114.51219774 0 -45.78018781 0 30922
0.16850000 0.16850800 8376.37981018 0 104.53260066 0 2040.48552385 0 -157.96221479 0 -83.31603329 0 30867
0.16950000 0.16949900 8282.05467505 0 66.21814930 0 2311.19279334 0 163.80065167 0 -234.33246800 0 30852
0.17050000 0.17049200 8218.15628852 0 63.17348142 0 2142.82702215 0 -52.03970520 0 -296.67408566 0 31257
0.17150000 0.17149500 8252.21475966 0 101.46224498 0 2005.15373536 0 -108.66268854 0 -527.10355915 0 32608
0.17250000 0.17250900 8235.91629753 0 81.42454804 0 2169.73277146 0 -130.10092385 0 -559.60636866 0 32361
0.17350000 0.17350400 8175.08494498 0 10.35463887 0 1918.39099808 0 130.58699891 0 -184.77052764 0 32508
0.17450000 0.17449800 8090.22664757 0 65.59898490 0 2017.20042476 0 210.03535841 0 -17.67342343 0 32791
0.17550000 0.17549800 8078.36818768 0 33.30809969 0 1946.24896732 0 358.81529424 0 -24.67423297 0 33633
0.17650000 0.17650100 8109.94645807 0 133.47909015 0 2025.31643885 0 343.72703721 0 -35.94386661 0 33984
0.17750000 0.17750300 7891.21268127 0 197.71850429 0 1981.63611744 0 68.58131559 0 409.32724006 0 34069
0.17850000 0.17849800 7877.30584130 0 124.61458690 0 2056.55146717 0 213.68922560 0 788.17458436 0 34536
