### header ###
fiducial parameters:
Omega_m = 0.31
Omega_nu = 0
Omega_de = 0.69
Omega_k = 0
H_0 = 100
w_de = -1
zeff = 0
beta = 0
fgrowth = 0
b_1 = 2
gamma = 0.55
Lx = 3500 Ly = 3500 Lz = 3500
nx = 700 ny = 700 nz = 700
xoffset = -685.467585 yoffset = -31.7331281 zoffset = 572.489161
bins = 400 dk = 0.001
kx_ny = 0.628318531 ky_ny = 0.628318531 kz_ny = 0.628318531
############################
A(data) = 8.00892827 (not used)
A(ran) = 8.0048227 (used)
Ngal = 475430
weighted Ngal = 0
Nran = 23820508
weighted Nran = 0
SN(data) = 3494.76617
SN(ran) = 69.7249088
SN(data+ran) = 3564.49108
############################
13 columns: k_central k_mean P_0(k) sigma^{lin}_{P_0(k)} P^img_1(k) sigma^{lin}_{P_1(k)} P_2(k) sigma^{lin}_{P_2(k)} P^img_3(k) sigma^{lin}_{P_3(k)} P_4(k) sigma^{lin}_{P_4(k)} N_modes
### header ###
0.00050000 0 0 0 0 0 0 0 0 0 0 0 0
0.00150000 0.00179520 8283.56051122 0 -19045.28447406 0 -14123.19319918 0 -15015.73330281 0 12051.67194886 0 3
0.00250000 0.00253879 10060.04859443 0 -12815.21946835 0 -15416.88363099 0 12720.21892141 0 11755.70870645 0 6
0.00350000 0.00331552 17793.44743006 0 -7620.42790551 0 -9909.77500199 0 -7174.05820277 0 10001.76387658 0 7
0.00450000 0.00420575 22361.77792699 0 -6422.33592618 0 -10034.27222225 0 -5693.14583060 0 -898.54573261 0 24
0.00550000 0.00557378 38403.14067774 0 -21894.41509639 0 -15402.82177847 0 -5641.81453274 0 -8195.61303519 0 45
0.00650000 0.00659388 41959.23923975 0 -13162.11540492 0 -429.29728510 0 -14252.40722981 0 -24151.06561768 0 40
0.00750000 0.00754703 66787.37752009 0 -9983.81563805 0 5825.59298008 0 -25361.27072036 0 2316.90611295 0 57
0.00850000 0.00846663 61727.98941746 0 -1985.98754110 0 12050.23254663 0 -16727.73616627 0 2976.35163450 0 75
0.00950000 0.00948925 62472.38181501 0 7613.90630619 0 -1500.30001293 0 -4845.93582478 0 5201.81141677 0 112
0.01050000 0.01054430 73860.93223048 0 -5922.79691967 0 636.08513065 0 -4455.19348193 0 -542.28814541 0 105
0.01150000 0.01145670 68808.51969248 0 -12014.46893746 0 -9706.70856481 0 12676.59396162 0 -18154.73738889 0 144
0.01250000 0.01249090 88894.71342274 0 -10093.76382350 0 -4135.74583859 0 -24072.11994172 0 -39986.70457331 0 169
0.01350000 0.01339930 80404.67619830 0 1234.19883056 0 -8263.20957821 0 -27801.72183364 0 -43809.09254720 0 180
0.01450000 0.01448870 83154.26662052 0 12968.90333683 0 -5829.86689746 0 -25201.82924297 0 -16772.68980503 0 267
0.01550000 0.01550050 75405.63226593 0 4494.38951179 0 -70.57444478 0 -12915.64545445 0 -25307.01632875 0 238
0.01650000 0.01653350 77724.06635971 0 -7.51787603 0 11347.69353689 0 8559.49391803 0 -23631.55213719 0 315
0.01750000 0.01747870 77595.73811506 0 2764.15052935 0 21703.97110951 0 6375.95395752 0 -18404.75048330 0 297
0.01850000 0.01844180 74585.28372012 0 4710.55450922 0 32670.88739588 0 7009.01412902 0 765.56600431 0 388
0.01950000 0.01947590 73211.31893337 0 6363.64153232 0 27221.97490613 0 4688.77524630 0 24131.46760275 0 399
0.02050000 0.02045430 69768.93314725 0 -2375.77766401 0 30611.21353312 0 6311.70125660 0 17483.64378164 0 462
0.02150000 0.02154770 75187.50746700 0 -2046.48672391 0 38773.84211267 0 5514.71531615 0 19562.47276634 0 571
0.02250000 0.02255340 78323.18985564 0 -2329.19639350 0 32778.06750013 0 1737.53564449 0 10105.40083688 0 510
0.02350000 0.02348930 74146.59821080 0 4361.77627743 0 37818.85409706 0 -885.86792070 0 6607.32125693 0 555
0.02450000 0.02439640 71823.62446385 0 4008.13729505 0 29141.36241344 0 1252.92213183 0 7074.65087055 0 592
0.02550000 0.02547300 68298.08551835 0 1090.50994969 0 33564.53473200 0 7180.86768253 0 -1661.04802464 0 837
0.02650000 0.02652900 69572.17793523 0 1547.75599710 0 28612.76962660 0 6942.32551664 0 -4393.48741571 0 723
0.02750000 0.02749970 62753.06524917 0 2880.42101227 0 18491.66823312 0 3687.25024948 0 -16180.98476672 0 826
0.02850000 0.02848090 61341.34383479 0 5111.20658278 0 12977.65047344 0 263.09836788 0 -4839.84604613 0 831
0.02950000 0.02946900 57139.72873586 0 3158.98963238 0 16595.86477768 0 2542.72617763 0 -3713.82382905 0 996
0.03050000 0.03053250 55744.39436221 0 -1606.69398211 0 11298.08952170 0 4340.57277541 0 -6462.32916343 0 1041
0.03150000 0.03150510 56135.80104455 0 1242.45878487 0 12985.51182406 0 1886.40305168 0 -6813.94191037 0 1036
0.03250000 0.03246190 55047.28079163 0 3560.52749193 0 15554.95552148 0 -1164.49854583 0 -8049.66872175 0 1059
0.03350000 0.03345080 51212.60253719 0 1488.99516929 0 16755.63842481 0 -2020.33389268 0 -648.58024920 0 1302
0.03450000 0.03451200 51753.37488133 0 1872.46299473 0 19366.60334029 0 2404.94216758 0 8080.66015892 0 1339
0.03550000 0.03553350 51136.31421919 0 2122.05534079 0 19438.46272837 0 3866.54440527 0 4284.10391883 0 1365
0.03650000 0.03647120 51394.07794097 0 -244.56218890 0 22375.61833301 0 4159.65098787 0 6689.25646059 0 1308
0.03750000 0.03744890 48333.79808434 0 2315.63279560 0 16450.48515281 0 1936.67140635 0 8751.76483850 0 1579
0.03850000 0.03847530 48695.86310591 0 -6.07857346 0 18049.55030312 0 827.69392610 0 2503.40835220 0 1662
0.03950000 0.03950240 47589.07351704 0 -976.73627602 0 17527.60091117 0 991.41928596 0 1765.68149418 0 1683
0.04050000 0.04050350 47736.22471388 0 892.58550016 0 14941.88089627 0 315.08404013 0 -3203.85469255 0 1822
0.04150000 0.04152450 46939.34949668 0 4120.83141705 0 14110.01713264 0 -3830.36004776 0 -4645.27208209 0 1887
0.04250000 0.04250150 44614.49345451 0 1799.45208488 0 17542.54854967 0 -1998.02315817 0 -198.60429027 0 1920
0.04350000 0.04349210 43123.93708742 0 1473.58249314 0 19421.74351789 0 1532.80835859 0 -331.46222300 0 2005
0.04450000 0.04448520 42353.08183355 0 3023.32043638 0 18511.93058754 0 4311.03181279 0 4861.60316440 0 2151
0.04550000 0.04548030 39266.78201360 0 851.24586822 0 19453.41036687 0 5319.78703772 0 10154.41801886 0 2274
0.04650000 0.04648670 40575.75225366 0 337.59407649 0 22296.00831756 0 6254.52377123 0 14325.15240387 0 2311
0.04750000 0.04749250 39126.60638140 0 1413.89159004 0 20269.32998276 0 3762.61956452 0 11839.08331234 0 2568
0.04850000 0.04851840 38242.48124463 0 2351.70642986 0 21491.71464274 0 -1390.77257582 0 14160.28548732 0 2493
0.04950000 0.04949480 36601.78415300 0 1327.32815461 0 20691.84989784 0 -340.17171371 0 16216.30548289 0 2644
0.05050000 0.05050630 35415.49527193 0 774.54676697 0 20470.18195497 0 -250.49252607 0 12068.28043608 0 2829
0.05150000 0.05149060 35863.37081084 0 -231.57324465 0 19355.75246197 0 1455.72283321 0 9549.23796124 0 2784
0.05250000 0.05249300 36096.11107853 0 -1260.82777175 0 17573.10816617 0 1917.00695748 0 2559.17965231 0 3055
0.05350000 0.05348950 35887.39775570 0 307.26365711 0 15516.86672410 0 341.10400346 0 1201.95622069 0 3009
0.05450000 0.05448610 36783.81317302 0 999.45779378 0 15353.21776328 0 -1121.18361114 0 -4508.00847131 0 3336
0.05550000 0.05550870 35098.93750536 0 662.99087996 0 15680.51568492 0 -1546.75948787 0 -1507.56345801 0 3349
0.05650000 0.05647670 34389.86582398 0 725.19520079 0 14985.06296306 0 1623.54606048 0 -808.44911833 0 3324
0.05750000 0.05747970 34482.09828972 0 -586.72027768 0 14428.34647118 0 2738.40737415 0 -2292.56914300 0 3639
0.05850000 0.05849280 35583.46243943 0 -411.48966510 0 13669.33860486 0 2776.52938850 0 -3160.58404716 0 3846
0.05950000 0.05951020 34209.27620619 0 996.80486475 0 13415.33947352 0 1295.39556983 0 -3626.73999435 0 3787
0.06050000 0.06049470 33505.74068721 0 1554.87550196 0 13018.39662877 0 -3.76746924 0 -1323.88466159 0 3930
0.06150000 0.06148310 33333.12314329 0 685.97813351 0 13449.55295721 0 -600.10782561 0 -792.68323502 0 4083
0.06250000 0.06249100 32573.11876773 0 212.97395342 0 15215.03514954 0 -226.36260859 0 2466.54858288 0 4303
0.06350000 0.06350600 32208.83928120 0 1018.25085069 0 14309.54042587 0 2091.44036267 0 -356.59197141 0 4470
0.06450000 0.06451750 31350.73410776 0 1251.68203145 0 14612.36850966 0 615.81613283 0 2394.11343391 0 4479
0.06550000 0.06550280 30647.19858878 0 834.64734608 0 14315.63020452 0 1578.84708519 0 2432.93300473 0 4636
0.06650000 0.06648880 29637.51328857 0 531.50148657 0 11964.08985954 0 1977.30683844 0 2377.37207879 0 4653
0.06750000 0.06749660 30022.16585277 0 -531.04752125 0 13769.65386772 0 1201.85656976 0 1638.23903552 0 5220
0.06850000 0.06852730 29646.70331817 0 -543.83827088 0 12047.57518867 0 223.18928030 0 1165.34004251 0 5029
0.06950000 0.06949320 29825.41064074 0 1022.58788032 0 11949.36366753 0 1312.72375817 0 -336.79354740 0 5040
0.07050000 0.07048030 28628.27088135 0 1580.41935531 0 9317.57170906 0 -485.45058042 0 625.97056192 0 5475
0.07150000 0.07148790 28508.91121980 0 41.41636315 0 10049.07592053 0 1176.77775405 0 176.92578551 0 5509
0.07250000 0.07249820 27754.11083692 0 -132.32646114 0 9556.87786537 0 904.46056853 0 -1980.81676541 0 5916
0.07350000 0.07351270 27096.30401944 0 884.06645345 0 9030.51061581 0 261.28361384 0 -3972.57298773 0 5721
0.07450000 0.07449140 26800.11933054 0 428.57426229 0 7320.20181805 0 492.24898786 0 -4347.71442491 0 6028
0.07550000 0.07549160 26398.74755586 0 227.90498344 0 8091.16779517 0 -226.73463871 0 -3305.81973180 0 6183
0.07650000 0.07648840 26787.27543375 0 680.14412556 0 8323.44302522 0 204.96755535 0 -3167.60390109 0 6330
0.07750000 0.07749960 25762.86394153 0 404.20850429 0 7678.98943148 0 164.62553987 0 -3438.75406358 0 6583
0.07850000 0.07848650 25370.01785696 0 719.19510797 0 8782.86699892 0 516.08438149 0 -2583.09587392 0 6549
0.07950000 0.07947320 25212.56939804 0 542.32911301 0 8496.14914774 0 547.76008834 0 -1767.32019825 0 6828
0.08050000 0.08048110 24659.94966634 0 637.93974505 0 8340.73799659 0 902.43322586 0 -463.90937248 0 7147
0.08150000 0.08149960 24016.42614788 0 329.97520978 0 8364.73172447 0 949.42970855 0 1256.35455252 0 7386
0.08250000 0.08250610 23749.91528950 0 366.35776190 0 8141.10398011 0 1256.57599902 0 -239.48663520 0 7227
0.08350000 0.08350160 22650.10126526 0 615.19829711 0 7966.51556237 0 1152.87260477 0 -69.17158122 0 7798
0.08450000 0.08449610 22856.48939988 0 489.27385418 0 7982.59257800 0 127.78680796 0 -468.17000307 0 7371
0.08550000 0.08548940 22147.52844175 0 450.78977481 0 8305.29548484 0 -125.93662249 0 243.23572438 0 8256
0.08650000 0.08650700 22369.75000086 0 72.60444481 0 7403.21103722 0 653.07893478 0 854.87648353 0 8037
0.08750000 0.08749060 22162.69752675 0 -360.84817307 0 7625.64297050 0 -505.38630125 0 1588.75681590 0 8155
0.08850000 0.08849210 22473.94057740 0 219.83547311 0 8147.84702592 0 602.66663988 0 969.56916016 0 8718
0.08950000 0.08949900 22225.92050146 0 1200.33966126 0 8633.14702272 0 -294.47401471 0 881.60839734 0 8571
0.09050000 0.09049190 21056.35083087 0 1008.90691578 0 7887.11592109 0 683.25877054 0 1434.63005443 0 8932
0.09150000 0.09150830 20784.08236358 0 225.27309183 0 7938.90118427 0 299.29601217 0 1115.29313433 0 9285
0.09250000 0.09250820 20566.06828790 0 -226.61616483 0 7911.81827776 0 1816.56989905 0 1318.59209033 0 9204
0.09350000 0.09350330 20657.96858389 0 58.90631816 0 7054.96427702 0 433.62988580 0 -440.35632313 0 9349
0.09450000 0.09448040 20266.56190155 0 584.03191721 0 6645.68686243 0 354.33321715 0 555.99236184 0 9564
0.09550000 0.09549270 19501.79642633 0 709.25437475 0 5689.12657669 0 88.94631046 0 -503.15965673 0 10155
0.09650000 0.09649430 18670.37555570 0 1028.91017779 0 5604.24613463 0 122.27057574 0 -294.04440851 0 9913
0.09750000 0.09749140 18220.06410532 0 577.71294144 0 5904.48329442 0 -765.79409420 0 -1657.49380838 0 10476
0.09850000 0.09850240 17230.19826654 0 466.96754860 0 5765.35953307 0 -73.37995044 0 -1084.34820093 0 10575
0.09950000 0.09950330 17503.46324306 0 426.83590729 0 6051.97773332 0 148.09345168 0 -931.50472190 0 10882
0.10050000 0.10051200 17003.43705425 0 -281.73309055 0 6395.38588757 0 333.53828391 0 -270.39835163 0 10875
0.10150000 0.10150300 17446.99438649 0 -144.19045718 0 6230.81792380 0 1411.34495533 0 -542.76093368 0 11118
0.10250000 0.10250800 17318.11252560 0 93.20683032 0 4837.12225422 0 1020.21397388 0 -567.74895633 0 11575
0.10350000 0.10349800 17026.57821312 0 193.11352439 0 4913.43271687 0 646.07790380 0 47.44258666 0 11364
0.10450000 0.10450100 16766.15713339 0 469.23073179 0 4278.41274387 0 733.54262647 0 716.28972994 0 12093
0.10550000 0.10551000 16409.84972072 0 414.13816519 0 4105.09764349 0 221.90489062 0 443.11001031 0 12067
0.10650000 0.10649700 15911.04148764 0 420.90889182 0 3939.23421770 0 -59.65835046 0 359.66011262 0 12054
0.10750000 0.10749900 15526.94253968 0 557.20810310 0 4209.29929236 0 -404.16310776 0 182.10541906 0 12807
0.10850000 0.10850100 15050.94329573 0 643.45376281 0 4513.58892302 0 -561.64589089 0 1080.63232872 0 12736
0.10950000 0.10950300 14764.72369917 0 47.60069946 0 5202.34288837 0 90.55722299 0 1063.48461927 0 12933
0.11050000 0.11050200 14776.68180997 0 27.30878193 0 5232.20494840 0 277.04838991 0 1299.45911304 0 13428
0.11150000 0.11150900 15022.48742095 0 -7.77228484 0 5800.71346622 0 486.11381268 0 1128.49134552 0 13453
0.11250000 0.11250000 14720.65584639 0 281.11636205 0 5736.62685016 0 421.35953544 0 1686.61402265 0 13668
0.11350000 0.11349100 14913.86791448 0 19.68116809 0 5866.10661659 0 235.22268291 0 1975.88958086 0 13791
0.11450000 0.11448600 14761.06983198 0 71.55312757 0 5947.89788003 0 -112.46271042 0 2191.98814435 0 14205
0.11550000 0.11549300 14652.78249525 0 339.63359872 0 5475.95110696 0 267.05893846 0 1842.70058562 0 14776
0.11650000 0.11649800 14345.19331179 0 160.03052507 0 5564.20860809 0 267.28592112 0 1906.59897215 0 14553
0.11750000 0.11747300 14074.47496997 0 317.28189661 0 5357.28900188 0 362.26210895 0 1227.56650799 0 14568
0.11850000 0.11849100 13771.53616294 0 352.14089683 0 5213.31556226 0 523.94794658 0 985.34279410 0 16015
0.11950000 0.11950300 13530.60237488 0 202.25926469 0 5075.26581642 0 -178.53348707 0 1232.22795674 0 15270
0.12050000 0.12050700 13492.07068451 0 86.66895469 0 4681.30142705 0 376.79121358 0 672.51750823 0 15999
0.12150000 0.12150000 13414.78585728 0 -34.66545599 0 4979.13589235 0 182.73986327 0 941.36905608 0 15670
0.12250000 0.12250700 13623.16701037 0 -116.52514639 0 4399.24502462 0 348.28883503 0 911.75280166 0 16887
0.12350000 0.12352200 13851.92124112 0 -132.44825671 0 4189.66806045 0 236.46499776 0 223.28560953 0 16407
0.12450000 0.12449800 13447.33849225 0 328.35865036 0 3640.81291919 0 141.36590712 0 384.99248457 0 16306
0.12550000 0.12549900 13491.84923802 0 470.82403933 0 4060.12186007 0 -373.45844381 0 434.46363186 0 17523
0.12650000 0.12650100 12833.59952755 0 279.16541842 0 3845.80594088 0 -30.13942177 0 302.03198364 0 17154
0.12750000 0.12750600 12915.09183821 0 170.91462037 0 4015.04642574 0 16.44328814 0 200.09905412 0 18007
0.12850000 0.12850300 12701.72813896 0 24.10710849 0 3944.00638970 0 414.82132763 0 730.13899382 0 17496
0.12950000 0.12949900 12724.64785133 0 -83.17762923 0 3882.69892718 0 245.86318706 0 333.84609454 0 18405
0.13050000 0.13049000 12887.41102617 0 17.71350524 0 4058.18420323 0 305.78550175 0 623.74502464 0 18100
0.13150000 0.13148800 12693.20244885 0 163.18503041 0 3809.43335386 0 486.06398721 0 567.73899124 0 19059
0.13250000 0.13249300 12626.43633019 0 207.31931714 0 3544.74942907 0 248.77520849 0 480.39938584 0 18957
0.13350000 0.13349100 12207.68100555 0 361.58226821 0 3613.54178316 0 290.93862140 0 235.98667332 0 19468
0.13450000 0.13450700 12193.72987628 0 151.39743341 0 3372.85158626 0 -245.60520189 0 105.83979933 0 19953
0.13550000 0.13551000 11876.95066322 0 141.14335339 0 3107.90192567 0 193.72250226 0 104.88226467 0 19956
0.13650000 0.13649900 11984.02004421 0 154.14779889 0 3022.06926368 0 -271.02504521 0 -103.61736229 0 19723
0.13750000 0.13749600 11815.16709073 0 39.40485390 0 3185.50785032 0 -70.11306100 0 -461.42142110 0 20946
0.13850000 0.13851100 11751.72266952 0 74.96118915 0 3218.22657016 0 163.89476643 0 -570.73184064 0 20955
0.13950000 0.13949800 11810.07382131 0 -36.10829064 0 3103.14082600 0 177.91786581 0 -0.31869030 0 20506
0.14050000 0.14048300 11718.83786481 0 58.27054527 0 3146.01286770 0 397.31376763 0 48.88686071 0 21447
0.14150000 0.14148400 11925.89033892 0 -100.75616283 0 2857.34628735 0 570.14722189 0 38.08049313 0 21771
0.14250000 0.14249400 11715.40544411 0 65.14114427 0 2673.05851307 0 233.57954991 0 32.45475562 0 22470
0.14350000 0.14350900 11614.09367202 0 282.24352472 0 2766.20998177 0 -176.97782544 0 136.13976981 0 22519
0.14450000 0.14449900 11460.85269653 0 377.70910931 0 2815.51504418 0 -264.36282737 0 138.40627470 0 22218
0.14550000 0.14550500 11098.67695171 0 279.82311451 0 2826.36592251 0 -66.59206171 0 188.25941719 0 23559
0.14650000 0.14650700 10829.86304977 0 258.22543772 0 3087.09702734 0 45.90552653 0 -188.77095860 0 23044
0.14750000 0.14750500 10622.36768267 0 281.44410287 0 2971.50195623 0 47.80919133 0 -77.91030286 0 23649
0.14850000 0.14849900 10510.43755107 0 370.14228252 0 2913.47190186 0 -129.74328776 0 152.76929445 0 23640
0.14950000 0.14949500 10190.98990773 0 226.64827457 0 2986.74854751 0 -12.42580580 0 373.90022957 0 24457
0.15050000 0.15050000 9956.15697065 0 240.93378805 0 3057.85501749 0 94.67978169 0 458.18055162 0 24591
0.15150000 0.15149900 9886.96601286 0 180.30395181 0 3221.64791853 0 230.54351844 0 195.19401423 0 25020
0.15250000 0.15250500 9713.98308222 0 -17.15457429 0 2973.52819167 0 457.56382313 0 336.73818578 0 25297
0.15350000 0.15350100 9627.35321284 0 133.32850654 0 2843.22907321 0 349.02514463 0 498.23800835 0 25452
0.15450000 0.15450400 9638.44768231 0 152.28875556 0 2645.87595564 0 278.89968262 0 395.25874414 0 26061
0.15550000 0.15549900 9478.39722705 0 -74.97846197 0 2312.82042509 0 237.60323275 0 598.03287194 0 26128
0.15650000 0.15649500 9545.29621361 0 20.62652318 0 2438.25879296 0 -12.81355862 0 529.40770995 0 26331
0.15750000 0.15749700 9492.83553862 0 114.02612268 0 2416.40202377 0 -146.24105174 0 654.80843191 0 27345
0.15850000 0.15849900 9448.16978030 0 242.15949441 0 2716.18521824 0 -132.81475066 0 622.78062514 0 26980
0.15950000 0.15949700 9191.09254266 0 281.11636205 0 2739.01635201 0 -237.35078374 0 875.47654385 0 27777
0.16050000 0.16050000 9182.76615440 0 162.82185816 0 3023.11006221 0 -54.09173916 0 1103.28076914 0 28224
0.16150000 0.16150500 8982.50101540 0 132.88229185 0 3014.15255143 0 404.58164164 0 874.89413957 0 28075
0.16250000 0.16249700 8919.83165693 0 58.39533037 0 2847.31476106 0 380.15720032 0 1123.42022075 0 28590
0.16350000 0.16349900 8887.99872307 0 10.80850454 0 2673.43497211 0 511.34542647 0 926.93849515 0 29163
0.16450000 0.16449100 8820.26931216 0 175.74547568 0 2656.53860444 0 95.74139620 0 1014.71102845 0 28996
0.16550000 0.16550500 8647.82892543 0 142.46096005 0 2547.55371125 0 0.28958005 0 1043.99843483 0 30777
0.16650000 0.16650700 8592.40086739 0 59.27801610 0 2397.53478228 0 -25.43124781 0 1296.66888719 0 29211
0.16750000 0.16749900 8705.46037611 0 -2.63666378 0 2709.75219752 0 -209.22486424 0 1096.83889056 0 30922
0.16850000 0.16850800 8572.41532109 0 115.88738048 0 2655.92962657 0 -62.87253563 0 955.61470919 0 30867
0.16950000 0.16949900 8441.41864616 0 228.08214064 0 2716.16307359 0 -35.93700177 0 785.45300692 0 30852
0.17050000 0.17049200 8343.52822244 0 232.15786340 0 2578.86624584 0 -67.06053177 0 855.05142626 0 31257
0.17150000 0.17149500 8238.62901711 0 79.15981472 0 2656.06249447 0 142.33252108 0 794.31751016 0 32608
0.17250000 0.17250900 8186.05761887 0 72.31966462 0 2500.30810125 0 244.37838830 0 522.56501321 0 32361
0.17350000 0.17350400 8102.53907276 0 42.47011631 0 2401.91942291 0 196.36989512 0 863.82181475 0 32508
0.17450000 0.17449800 8060.77426355 0 -47.81561328 0 2349.74662836 0 292.88513610 0 766.02772025 0 32791
0.17550000 0.17549800 8031.41045813 0 153.28526479 0 2261.64413978 0 114.09477109 0 670.17238983 0 33633
0.17650000 0.17650100 7934.39474807 0 129.31811049 0 2423.83155373 0 40.17748073 0 305.34260876 0 33984
0.17750000 0.17750300 7725.98037801 0 172.68508510 0 2294.34071497 0 -184.68748521 0 390.16768919 0 34069
0.17850000 0.17849800 7664.15251622 0 68.48221828 0 2254.59106887 0 -146.61640355 0 381.72947045 0 34536
