### header ###
fiducial parameters:
Omega_m = 0.31
Omega_nu = 0
Omega_de = 0.69
Omega_k = 0
H_0 = 100
w_de = -1
zeff = 0
beta = 0
fgrowth = 0
b_1 = 2
gamma = 0.55
Lx = 3500 Ly = 3500 Lz = 3500
nx = 700 ny = 700 nz = 700
xoffset = -685.467585 yoffset = -31.7331281 zoffset = 572.489161
bins = 400 dk = 0.001
kx_ny = 0.628318531 ky_ny = 0.628318531 kz_ny = 0.628318531
############################
A(data) = 8.05747603 (not used)
A(ran) = 8.05290301 (used)
Ngal = 478306
weighted Ngal = 0
Nran = 23820508
weighted Nran = 0
SN(data) = 3490.59867
SN(ran) = 70.1437058
SN(data+ran) = 3560.74237
############################
13 columns: k_central k_mean P_0(k) sigma^{lin}_{P_0(k)} P^img_1(k) sigma^{lin}_{P_1(k)} P_2(k) sigma^{lin}_{P_2(k)} P^img_3(k) sigma^{lin}_{P_3(k)} P_4(k) sigma^{lin}_{P_4(k)} N_modes
### header ###
0.00050000 0 0 0 0 0 0 0 0 0 0 0 0
0.00150000 0.00179520 25070.29002412 0 -26620.85839173 0 20410.61284744 0 -23997.60319569 0 -628.79400475 0 3
0.00250000 0.00253879 45785.50252733 0 -20527.09370454 0 6473.32398197 0 -33928.37132554 0 36380.89127287 0 6
0.00350000 0.00331552 52664.51649066 0 -9167.39776755 0 -10629.70863402 0 -13318.45663136 0 2361.69366684 0 7
0.00450000 0.00420575 50643.15287177 0 1532.49833350 0 -23670.96961354 0 -7592.12704327 0 37250.17949438 0 24
0.00550000 0.00557378 47412.58065943 0 -9882.11633459 0 -22019.20019710 0 -2819.75574459 0 -18585.89371733 0 45
0.00650000 0.00659388 60991.01547753 0 -21376.34101813 0 -16885.07390194 0 -13982.02105774 0 -756.49777028 0 40
0.00750000 0.00754703 75153.84759955 0 -1784.24978290 0 7031.98920302 0 -38772.95632669 0 -21996.50193122 0 57
0.00850000 0.00846663 67932.58807608 0 10158.26011557 0 2991.55393648 0 -22349.81981618 0 12738.15608761 0 75
0.00950000 0.00948925 72111.72635563 0 -10438.01347444 0 16986.71784377 0 -6609.56893887 0 -14168.92190068 0 112
0.01050000 0.01054430 84341.33056432 0 -9322.91964195 0 23312.66918241 0 13598.36500277 0 -1459.87495501 0 105
0.01150000 0.01145670 97363.71323003 0 -10737.36484823 0 17491.61585550 0 7195.12883690 0 -41419.46340484 0 144
0.01250000 0.01249090 91849.14185410 0 6546.76671250 0 24707.11777007 0 1903.58729980 0 -6940.95254836 0 169
0.01350000 0.01339930 87948.36182049 0 13750.05585279 0 15817.14817318 0 -13495.50310521 0 -19116.47952264 0 180
0.01450000 0.01448870 77284.27361791 0 5752.99174625 0 18426.78440969 0 1180.83022493 0 13694.47278220 0 267
0.01550000 0.01550050 76094.88448589 0 64.33541119 0 23096.53740195 0 -703.97619750 0 19050.48846672 0 238
0.01650000 0.01653350 77859.92378523 0 -6123.59353025 0 20296.67862506 0 9912.25520275 0 13984.67841569 0 315
0.01750000 0.01747870 78360.06069729 0 -5493.58932040 0 17762.11275082 0 4105.70662135 0 468.20654175 0 297
0.01850000 0.01844180 88177.00532800 0 -5314.71591295 0 13655.49819884 0 7388.44055591 0 4208.55744659 0 388
0.01950000 0.01947590 90538.84293506 0 1417.67832513 0 14584.13408138 0 5617.52185209 0 2254.11495890 0 399
0.02050000 0.02045430 90535.18906787 0 2154.91800085 0 16542.38544880 0 -3302.83020410 0 3756.75123237 0 462
0.02150000 0.02154770 87148.05418260 0 5519.22175235 0 15560.38096064 0 -738.16200038 0 8196.56525512 0 571
0.02250000 0.02255340 84553.25486135 0 4693.74672015 0 14780.11423067 0 -2845.78678024 0 9364.06440098 0 510
0.02350000 0.02348930 83086.06109963 0 4229.52842980 0 18389.91356804 0 9409.82631945 0 7048.61983490 0 555
0.02450000 0.02439640 78023.35129956 0 3652.67137907 0 17900.95970405 0 4168.42026913 0 7687.12759022 0 592
0.02550000 0.02547300 73699.60845787 0 6266.37115879 0 19309.69159073 0 -3830.34897544 0 -7739.47754196 0 837
0.02650000 0.02652900 66810.74012546 0 5920.73746725 0 21584.16855497 0 959.93955927 0 1000.75768471 0 723
0.02750000 0.02749970 63948.32271334 0 5377.42956072 0 16510.94004632 0 -1790.60529735 0 -597.53461733 0 826
0.02850000 0.02848090 59384.42114634 0 -2528.29893839 0 19565.24084754 0 6547.57499221 0 -6729.42685503 0 831
0.02950000 0.02946900 61575.85567445 0 -2925.88397798 0 13232.42466752 0 6935.87035127 0 -17745.50426360 0 996
0.03050000 0.03053250 60622.86067731 0 2417.78606437 0 9218.00936429 0 -1947.48906770 0 -24114.41622253 0 1041
0.03150000 0.03150510 60385.91292619 0 4613.27306336 0 7126.81259277 0 -9414.02273056 0 -18093.06453965 0 1036
0.03250000 0.03246190 52752.32002647 0 6501.55841026 0 8844.07481052 0 -3920.35590389 0 -14539.40188911 0 1059
0.03350000 0.03345080 51207.84143752 0 2596.49338695 0 9183.88445920 0 281.10639696 0 -5620.77711559 0 1302
0.03450000 0.03451200 50184.75862427 0 -1703.12285895 0 9017.92138250 0 10010.15669879 0 -11866.65340114 0 1339
0.03550000 0.03553350 53120.91771968 0 -2424.44053159 0 8075.54474486 0 8528.30317901 0 -12232.81518289 0 1365
0.03650000 0.03647120 51632.57581756 0 -211.16584278 0 10372.01134619 0 3508.14432322 0 -4016.51904494 0 1308
0.03750000 0.03744890 51892.55400430 0 3306.34013107 0 9504.22896086 0 -1335.87598937 0 3948.46853660 0 1579
0.03850000 0.03847530 50694.08556593 0 1495.60534720 0 11665.13708944 0 827.69392610 0 8402.08974841 0 1662
0.03950000 0.03950240 48602.30196119 0 1049.98191916 0 12137.03957321 0 -1557.57714921 0 9479.65947208 0 1683
0.04050000 0.04050350 47994.76349839 0 2351.73964683 0 16149.09647124 0 -800.38182247 0 13601.24380723 0 1822
0.04150000 0.04152450 45436.05995605 0 4857.59498281 0 18821.40206622 0 -1035.66097424 0 16132.15581427 0 1887
0.04250000 0.04250150 43827.02971341 0 3106.40716182 0 17807.73072908 0 3728.62752733 0 20149.74887472 0 1920
0.04350000 0.04349210 41807.32694324 0 -583.92119396 0 18527.32111904 0 8801.03668395 0 17099.87700342 0 2005
0.04450000 0.04448520 40787.56582744 0 951.23449749 0 15834.53172315 0 5019.95955395 0 12641.82686169 0 2151
0.04550000 0.04548030 41221.60096033 0 -730.13345766 0 13181.15980361 0 4625.48583764 0 11466.27813569 0 2274
0.04650000 0.04648670 39046.11057996 0 -412.08757064 0 10335.94878426 0 1042.74615489 0 13461.40034477 0 2311
0.04750000 0.04749250 40155.33608030 0 1194.03950844 0 10317.69052063 0 -162.21620199 0 10101.85769294 0 2568
0.04850000 0.04851840 39007.57888959 0 -136.62363040 0 8609.75120038 0 -2034.99365074 0 7568.11117074 0 2493
0.04950000 0.04949480 40299.38702619 0 320.69770881 0 10316.72722837 0 -3524.39849605 0 5503.16688136 0 2644
0.05050000 0.05050630 39413.49031745 0 904.90124706 0 13425.96890535 0 -3488.07019832 0 3226.40901820 0 2829
0.05150000 0.05149060 40292.74363129 0 1084.30169717 0 14861.93871108 0 -1669.26368966 0 2961.95761224 0 2784
0.05250000 0.05249300 38543.31630995 0 -378.51406732 0 16893.59959205 0 -1562.07251309 0 2265.17621140 0 3055
0.05350000 0.05348950 40122.67272208 0 981.68560521 0 16338.87611864 0 3305.10003069 0 2514.79070211 0 3009
0.05450000 0.05448610 37944.85715350 0 869.64696484 0 18430.21683038 0 1817.62176990 0 1914.99179436 0 3336
0.05550000 0.05550870 37050.32403140 0 1661.54627926 0 14977.64450543 0 3466.06948890 0 2393.95842136 0 3349
0.05650000 0.05647670 36277.36503581 0 810.69790750 0 13951.01854825 0 4054.07637072 0 5948.36291767 0 3324
0.05750000 0.05747970 35088.75096653 0 209.63564749 0 11257.23264312 0 2666.97980674 0 3219.41130892 0 3639
0.05850000 0.05849280 35492.22648292 0 479.42502125 0 10831.86714056 0 957.31098936 0 4840.92006164 0 3846
0.05950000 0.05951020 35089.52602927 0 -177.66984574 0 10894.51435438 0 -431.19508157 0 3412.30227958 0 3787
0.06050000 0.06049470 34068.65768099 0 1309.54600095 0 11352.67608305 0 -874.15229380 0 5421.34240095 0 3930
0.06150000 0.06148310 34128.44823501 0 1362.09525454 0 12454.92601875 0 -976.45614620 0 1920.38401655 0 4083
0.06250000 0.06249100 31934.68851869 0 1769.25785510 0 14203.35683086 0 -298.40469002 0 6051.91129938 0 4303
0.06350000 0.06350600 31314.30615910 0 1471.48982375 0 13474.13351831 0 1327.01812951 0 5240.37632412 0 4470
0.06450000 0.06451750 30373.93361226 0 562.94356736 0 12981.85795687 0 1682.39546689 0 4468.56885031 0 4479
0.06550000 0.06550280 29812.34529745 0 -114.40811789 0 11385.78233426 0 628.88590505 0 3401.29638872 0 4636
0.06650000 0.06648880 29964.47904046 0 85.66657712 0 10625.12469155 0 1860.51595625 0 1355.27470245 0 4653
0.06750000 0.06749660 29420.05282913 0 244.38724616 0 10503.78308386 0 -172.11818207 0 459.98534057 0 5220
0.06850000 0.06852730 29756.20861062 0 -92.07391005 0 9773.22002000 0 -255.37985024 0 -812.64110051 0 5029
0.06950000 0.06949320 29385.95006869 0 -184.87239303 0 9443.22045110 0 1061.17271785 0 379.72537966 0 5040
0.07050000 0.07048030 30531.93568742 0 -308.90236119 0 7815.93194483 0 -22.78363350 0 -2470.27995634 0 5475
0.07150000 0.07148790 29326.27023791 0 -207.64927242 0 8469.04409659 0 1417.92191628 0 -2208.74057180 0 5509
0.07250000 0.07249820 29298.70014912 0 1674.27945280 0 8630.50073709 0 -614.89602264 0 -2959.46633915 0 5916
0.07350000 0.07351270 28096.68856680 0 1566.82254044 0 8385.72485233 0 231.99399300 0 -2721.12347511 0 5721
0.07450000 0.07449140 26115.18531726 0 847.17900331 0 7905.60670354 0 245.75024935 0 -1782.05746259 0 6028
0.07550000 0.07549160 26143.97336179 0 622.03213599 0 8211.18072388 0 675.85913586 0 -2298.34889656 0 6183
0.07650000 0.07648840 25333.25773857 0 -337.77234092 0 7062.93635089 0 2461.43316881 0 462.48104258 0 6330
0.07750000 0.07749960 25960.17276980 0 150.22708867 0 7632.60746281 0 1300.88744294 0 -580.96488323 0 6583
0.07850000 0.07848650 26068.57082977 0 94.14277394 0 6700.57237655 0 343.77796990 0 2096.48934279 0 6549
0.07950000 0.07947320 25620.36312111 0 496.41882538 0 7908.57408659 0 871.49936478 0 2332.89454999 0 6828
0.08050000 0.08048110 25201.05418023 0 525.67855095 0 6772.98538087 0 -764.74000888 0 3465.29442617 0 7147
0.08150000 0.08149960 25096.08854095 0 346.53276431 0 8047.24388262 0 724.93278669 0 2969.04390012 0 7386
0.08250000 0.08250610 25002.41667299 0 388.75043162 0 8511.80541504 0 230.49922914 0 1386.01147615 0 7227
0.08350000 0.08350160 24269.42876999 0 468.29069141 0 6933.47872911 0 205.35397948 0 1371.30742879 0 7798
0.08450000 0.08449610 23519.27876353 0 526.91865133 0 7074.85017240 0 20.91584303 0 -272.67592884 0 7371
0.08550000 0.08548940 23471.44632031 0 607.83520110 0 6843.94791063 0 -1218.94116696 0 -1091.86077332 0 8256
0.08650000 0.08650700 22917.05501664 0 471.44630399 0 7729.15813523 0 -294.68992505 0 -1246.85449783 0 8037
0.08750000 0.08749060 22258.69458292 0 1051.12790478 0 7382.32863261 0 -272.06695098 0 -1895.23876688 0 8155
0.08850000 0.08849210 21721.02248973 0 540.54093255 0 7048.85235372 0 -278.33388683 0 -2311.85713283 0 8718
0.08950000 0.08949900 21153.78728927 0 438.18282577 0 7500.49248307 0 904.79605997 0 -1474.00324148 0 8571
0.09050000 0.09049190 21068.08749518 0 46.24002146 0 7305.95173601 0 1130.71688280 0 -604.33966816 0 8932
0.09150000 0.09150830 20910.86048275 0 133.04837672 0 6899.80778934 0 1461.49151444 0 -783.72461701 0 9285
0.09250000 0.09250820 20361.45172525 0 310.50231212 0 6365.70098474 0 1169.23750085 0 727.87248893 0 9204
0.09350000 0.09350330 20306.75444065 0 864.20713165 0 6326.12849583 0 445.54813624 0 672.94379274 0 9349
0.09450000 0.09448040 19661.57007346 0 541.00486296 0 6434.80336393 0 -345.70676888 0 939.40704012 0 9564
0.09550000 0.09549270 18971.43206752 0 560.77671339 0 6550.01090367 0 77.36698388 0 498.29890614 0 10155
0.09650000 0.09649430 18869.89884893 0 136.20066759 0 6398.23147505 0 -260.10441124 0 797.03244421 0 9913
0.09750000 0.09749140 18766.04044213 0 248.31902871 0 7349.47704487 0 153.43141948 0 -316.42268420 0 10476
0.09850000 0.09850240 18459.22632141 0 153.51556915 0 6088.31710338 0 284.18671773 0 173.05600799 0 10575
0.09950000 0.09950330 18092.95381641 0 428.14908502 0 5706.55441596 0 700.17396116 0 -239.05924346 0 10882
0.10050000 0.10051200 17840.17264080 0 330.71594831 0 5172.32581578 0 884.45066312 0 -322.54346536 0 10875
0.10150000 0.10150300 17404.91955217 0 64.51954395 0 5168.40621280 0 1316.94231393 0 -115.83755502 0 11118
0.10250000 0.10250800 17095.89096649 0 356.09371680 0 4350.05068545 0 499.23341035 0 -395.68502865 0 11575
0.10350000 0.10349800 17160.99623642 0 322.08396388 0 4497.67799226 0 837.51286375 0 97.06154949 0 11364
0.10450000 0.10450100 16563.64431245 0 421.24770496 0 4880.62541844 0 -730.78340312 0 99.24235458 0 12093
0.10550000 0.10551000 16209.77281125 0 846.43715755 0 5390.06308334 0 -933.95392015 0 1423.07054732 0 12067
0.10650000 0.10649700 15689.48426802 0 663.39280535 0 6072.68298074 0 -641.52274936 0 1578.11631175 0 12054
0.10750000 0.10749900 15521.62782377 0 181.45436636 0 6290.90743059 0 -315.07518227 0 915.40556161 0 12807
0.10850000 0.10850100 15421.64473066 0 50.27588386 0 6093.27750490 0 75.10590443 0 257.68400104 0 12736
0.10950000 0.10950300 15349.67461934 0 -96.62319615 0 5986.92782502 0 -156.51174024 0 -49.70366611 0 12933
0.11050000 0.11050200 15537.68269476 0 84.61968881 0 5497.89645475 0 463.72335743 0 -586.76678144 0 13428
0.11150000 0.11150900 15090.25004884 0 233.32377921 0 5471.63290028 0 182.95909530 0 -808.92744276 0 13453
0.11250000 0.11250000 15422.97340964 0 123.07774822 0 4873.30661173 0 627.45314622 0 -1436.80023009 0 13668
0.11350000 0.11349100 14932.46942017 0 135.14658227 0 4890.52407682 0 75.14908650 0 -1203.38455059 0 13791
0.11450000 0.11448600 14688.10321142 0 198.12375137 0 4922.54524020 0 416.62168765 0 -364.65705281 0 14205
0.11550000 0.11549300 14785.87183957 0 164.11732016 0 5181.12831401 0 0.22145203 0 -663.84455620 0 14776
0.11650000 0.11649800 14486.03328348 0 161.21415659 0 5033.82210463 0 485.94772780 0 -105.63407553 0 14553
0.11750000 0.11747300 14494.22680385 0 274.15076251 0 4994.62607477 0 61.47365812 0 9.85463482 0 14568
0.11850000 0.11849100 14076.91088143 0 400.68639777 0 5287.30083670 0 37.07014349 0 262.05535488 0 16015
0.11950000 0.11950300 13858.89680576 0 466.50472542 0 5055.73423544 0 389.85434240 0 736.01507660 0 15270
0.12050000 0.12050700 13515.32256663 0 130.14189145 0 4738.57856334 0 402.25423896 0 319.55283043 0 15999
0.12150000 0.12150000 13303.95188584 0 56.92093960 0 4510.95370972 0 874.43574532 0 548.43217845 0 15670
0.12250000 0.12250700 13406.92450666 0 -64.54600681 0 4224.61231758 0 465.84592209 0 1085.75992234 0 16887
0.12350000 0.12352200 13415.45019677 0 -14.92737615 0 4116.47999340 0 909.17737890 0 1231.23144751 0 16407
0.12450000 0.12449800 13312.80974570 0 -6.32605099 0 3666.60036369 0 573.12124833 0 1190.51850915 0 16306
0.12550000 0.12549900 13524.18042649 0 -4.54938575 0 4103.93504938 0 300.58925971 0 1744.26761798 0 17523
0.12650000 0.12650100 13306.05562756 0 141.52977753 0 3514.30053581 0 -179.06385143 0 1244.67324984 0 17154
0.12750000 0.12750600 13362.41376089 0 19.66145935 0 3649.81471927 0 -270.59986794 0 1395.31222900 0 18007
0.12850000 0.12850300 13193.45008415 0 215.57373529 0 3861.75008862 0 -528.14103599 0 812.22478109 0 17496
0.12950000 0.12949900 13256.00871938 0 282.53251240 0 3603.76492035 0 -119.80698347 0 833.65305132 0 18405
0.13050000 0.13049000 12830.94216959 0 196.71756612 0 3286.13313828 0 239.90516908 0 182.78304534 0 18100
0.13150000 0.13148800 12765.06183692 0 243.48374446 0 3215.35883804 0 524.88577249 0 -67.17834131 0 19059
0.13250000 0.13249300 12567.86373190 0 64.77797201 0 3189.00670497 0 210.54025643 0 -388.47140903 0 18957
0.13350000 0.13349100 12441.41778247 0 333.98449860 0 3166.87312765 0 242.83379899 0 -600.10339668 0 19468
0.13450000 0.13450700 12161.50941106 0 131.24801670 0 2723.73654376 0 52.61103716 0 -2.82482687 0 19953
0.13550000 0.13551000 11952.79608823 0 244.15804904 0 2752.90104734 0 299.90166834 0 -187.03481807 0 19956
0.13650000 0.13649900 11888.13371128 0 168.04245931 0 2756.83172265 0 -45.02671611 0 -111.88473506 0 19723
0.13750000 0.13749600 11702.22937758 0 139.36845972 0 2937.43241276 0 -27.85077223 0 83.17818284 0 20946
0.13850000 0.13851100 11722.93462499 0 193.20874639 0 3098.70082375 0 261.53495561 0 250.87009235 0 20955
0.13950000 0.13949800 11469.26766339 0 63.95086935 0 2974.97866622 0 124.51493598 0 474.29521316 0 20506
0.14050000 0.14048300 11569.47220300 0 18.20113043 0 3092.99857646 0 174.96266232 0 227.19524742 0 21447
0.14150000 0.14148400 11340.60724900 0 184.90007384 0 3004.81858161 0 -61.65756943 0 317.56866982 0 21771
0.14250000 0.14249400 11365.51997984 0 358.04798213 0 3109.07559210 0 54.06771221 0 263.24562980 0 22470
0.14350000 0.14350900 10793.64547529 0 340.24700551 0 2853.65920318 0 -216.37537161 0 168.69351201 0 22519
0.14450000 0.14449900 10771.26830683 0 142.12768307 0 3009.83434475 0 -26.90652437 0 -381.94538078 0 22218
0.14550000 0.14550500 10660.91044536 0 -150.67441060 0 2732.78263314 0 163.01230214 0 -177.05976064 0 23559
0.14650000 0.14650700 10805.02782520 0 24.90210141 0 2670.16863629 0 42.96438489 0 -613.60720403 0 23044
0.14750000 0.14750500 10789.33834093 0 30.97881472 0 2472.33940876 0 -109.35869488 0 -1062.39399528 0 23649
0.14850000 0.14849900 10610.14383607 0 286.37239464 0 2736.29256011 0 -130.25815086 0 -737.96712747 0 23640
0.14950000 0.14949500 10412.71321223 0 443.26391563 0 3058.65222488 0 -473.31531242 0 -1165.96009270 0 24457
0.15050000 0.15050000 10066.01657750 0 370.98931537 0 3197.79813087 0 29.42846780 0 -626.39352473 0 24591
0.15150000 0.15149900 9850.06195424 0 211.11380285 0 3280.26480612 0 177.37532190 0 -379.99997331 0 25020
0.15250000 0.15250500 9919.67366038 0 -95.71548696 0 3175.70884286 0 383.90628951 0 109.94021338 0 25297
0.15350000 0.15350100 9974.21593243 0 -303.72383487 0 2949.67840401 0 689.19021494 0 -291.06152421 0 25452
0.15450000 0.15450400 10072.85927424 0 7.70476580 0 2892.37912308 0 482.22189050 0 16.21342668 0 26061
0.15550000 0.15549900 10092.97768844 0 209.25033059 0 2853.72563713 0 -21.21324567 0 -130.35115839 0 26128
0.15650000 0.15649500 9616.62413009 0 381.82801414 0 2830.21909154 0 -149.64911332 0 270.94975340 0 26331
0.15750000 0.15749700 9447.25077734 0 482.14770593 0 2741.52976975 0 -237.44157681 0 293.44650297 0 27345
0.15850000 0.15849900 9043.36558493 0 216.64885803 0 2967.44948535 0 -108.00643185 0 238.81565232 0 26980
0.15950000 0.15949700 9088.39672997 0 98.76325509 0 2841.97790050 0 128.79660399 0 242.65332010 0 27777
0.16050000 0.16050000 8961.85112961 0 -0.56459224 0 2867.53282618 0 137.33225919 0 -155.84518629 0 28224
0.16150000 0.16150500 8934.65749986 0 77.80301204 0 2516.09723644 0 199.15126312 0 -459.82147016 0 28075
0.16250000 0.16249700 8930.57181200 0 92.04357188 0 2770.06315080 0 -78.27281078 0 -58.27386697 0 28590
0.16350000 0.16349900 8935.17789913 0 26.80410537 0 2695.16994573 0 -68.51742827 0 -173.23316518 0 29163
0.16450000 0.16449100 8901.87234607 0 -137.30236391 0 2696.01144242 0 129.70453462 0 3.75948610 0 28996
0.16550000 0.16550500 8922.30078536 0 147.07258333 0 2881.84934217 0 161.44556818 0 -176.52386012 0 30777
0.16650000 0.16650700 8969.21422562 0 116.71337591 0 2427.48542092 0 228.99117850 0 -86.38694257 0 29211
0.16750000 0.16749900 8579.74520012 0 256.60998553 0 2536.74712223 0 105.50419716 0 -139.65412571 0 30922
0.16850000 0.16850800 8521.80372435 0 208.80854482 0 2363.40987719 0 -90.90699774 0 -55.15036414 0 30867
0.16950000 0.16949900 8251.82722829 0 53.02912815 0 2235.03734324 0 316.10712294 0 -87.88901416 0 30852
0.17050000 0.17049200 8369.22708835 0 56.55256335 0 2224.91723836 0 321.08524018 0 87.43980994 0 31257
0.17150000 0.17149500 8300.98835049 0 -62.73114205 0 1886.28125610 0 372.71770528 0 -77.79072176 0 32608
0.17250000 0.17250900 8292.51802200 0 95.95232399 0 1897.82969089 0 245.45683274 0 -198.81466444 0 32361
0.17350000 0.17350400 8274.37048162 0 179.90645535 0 1946.84687286 0 -85.60136113 0 307.22268951 0 32508
0.17450000 0.17449800 8145.37789749 0 157.93342675 0 1904.17413301 0 -13.01706795 0 247.29373143 0 32791
0.17550000 0.17549800 7944.69201015 0 75.40939686 0 1875.75147520 0 88.86636827 0 621.81290396 0 33633
0.17650000 0.17650100 8066.74224662 0 86.72287691 0 2117.84785736 0 133.91423252 0 412.43524163 0 33984
0.17750000 0.17750300 7870.27491504 0 55.48784860 0 1842.39056052 0 171.50809698 0 786.81601010 0 34069
0.17850000 0.17849800 7860.75271570 0 151.18484477 0 1871.03466483 0 195.54722139 0 454.48239513 0 34536
