### header ###
fiducial parameters:
Omega_m = 0.31
Omega_nu = 0
Omega_de = 0.69
Omega_k = 0
H_0 = 100
w_de = -1
zeff = 0
beta = 0
fgrowth = 0
b_1 = 2
gamma = 0.55
Lx = 3500 Ly = 3500 Lz = 3500
nx = 700 ny = 700 nz = 700
xoffset = -685.467585 yoffset = -31.7331281 zoffset = 572.489161
bins = 400 dk = 0.001
kx_ny = 0.628318531 ky_ny = 0.628318531 kz_ny = 0.628318531
############################
A(data) = 8.0698823 (not used)
A(ran) = 8.07327999 (used)
Ngal = 479706
weighted Ngal = 0
Nran = 23820508
weighted Nran = 0
SN(data) = 3483.83339
SN(ran) = 70.3211966
SN(data+ran) = 3554.15458
############################
13 columns: k_central k_mean P_0(k) sigma^{lin}_{P_0(k)} P^img_1(k) sigma^{lin}_{P_1(k)} P_2(k) sigma^{lin}_{P_2(k)} P^img_3(k) sigma^{lin}_{P_3(k)} P_4(k) sigma^{lin}_{P_4(k)} N_modes
### header ###
0.00050000 0 0 0 0 0 0 0 0 0 0 0 0
0.00150000 0.00179520 178214.60411852 0 -79552.21791051 0 73960.80460035 0 119540.14043955 0 -386457.35314521 0 3
0.00250000 0.00253879 278988.26122295 0 -18518.57398243 0 86651.90330748 0 -19142.83165571 0 206350.48871518 0 6
0.00350000 0.00331552 242401.97832470 0 47024.38495129 0 69306.55286283 0 -98857.03767832 0 322661.93923762 0 7
0.00450000 0.00420575 164970.99640294 0 96138.33904235 0 80200.50252865 0 -17198.19924781 0 111662.18133108 0 24
0.00550000 0.00557378 118048.69828648 0 22167.34790317 0 125596.70211535 0 129170.84856681 0 -43324.01399690 0 45
0.00650000 0.00659388 96927.24218568 0 6877.61885040 0 137793.97513557 0 121609.55794816 0 -21807.71879306 0 40
0.00750000 0.00754703 81995.65855149 0 26888.47648259 0 54391.46699262 0 65353.62217932 0 4910.88608216 0 57
0.00850000 0.00846663 73480.04425672 0 2480.31148262 0 65937.57659026 0 31388.82290513 0 44179.57253563 0 75
0.00950000 0.00948925 83240.85220060 0 -11948.25643505 0 41084.19340933 0 34021.48957726 0 18763.71525392 0 112
0.01050000 0.01054430 88594.87486665 0 -10657.68839884 0 34239.72509944 0 -4065.49193761 0 14078.23956041 0 105
0.01150000 0.01145670 102037.12008948 0 -4489.81664164 0 28064.24665509 0 -4956.63692832 0 3975.11962244 0 144
0.01250000 0.01249090 92238.33407148 0 7472.53486291 0 27361.15402910 0 7980.90958463 0 7682.39970752 0 169
0.01350000 0.01339930 91555.28235342 0 2279.26020857 0 17699.11122261 0 -1594.44799086 0 73.31728108 0 180
0.01450000 0.01448870 88850.53484672 0 5191.14876797 0 25772.27541763 0 3302.63090226 0 -17324.75592049 0 267
0.01550000 0.01550050 90103.58984644 0 3631.92184236 0 33202.13754068 0 10087.37509208 0 -6763.64033872 0 238
0.01650000 0.01653350 73104.02810588 0 6772.16602883 0 24185.61127111 0 631.68498876 0 -8334.61500096 0 315
0.01750000 0.01747870 74050.93332437 0 4415.74278860 0 17356.97638571 0 7623.22920369 0 -5865.13225201 0 297
0.01850000 0.01844180 73214.64063082 0 -2263.37142245 0 26962.10744264 0 3921.54064264 0 -20706.24392010 0 388
0.01950000 0.01947590 70477.00831941 0 2490.86340818 0 25908.24356640 0 -9566.43328169 0 -6794.22209987 0 399
0.02050000 0.02045430 68641.88120396 0 10247.59163220 0 26326.99889104 0 -10582.24157752 0 -10577.29224833 0 462
0.02150000 0.02154770 63132.73526720 0 4816.67167028 0 28867.65454393 0 -6679.32458522 0 -1987.82554702 0 571
0.02250000 0.02255340 63464.35139552 0 -1990.56041125 0 33278.86875168 0 10016.40148999 0 3188.20949758 0 510
0.02350000 0.02348930 63167.61309038 0 -5148.47602812 0 26162.46414423 0 11297.75735195 0 -6096.10094773 0 555
0.02450000 0.02439640 67883.42695389 0 -2879.87846836 0 25361.27072036 0 14983.62356083 0 -9580.11867516 0 592
0.02550000 0.02547300 70198.09645722 0 2382.93038584 0 20595.07777892 0 7151.13849040 0 -7207.87308277 0 837
0.02650000 0.02652900 66999.52326361 0 2730.24707076 0 19210.26211385 0 1435.01758580 0 -8500.02446143 0 723
0.02750000 0.02749970 62737.01037818 0 -2196.84889494 0 12412.74046119 0 -4049.82459799 0 -10768.30092378 0 826
0.02850000 0.02848090 69534.08913785 0 -2092.61402910 0 24199.00878414 0 -4854.88226323 0 -13418.21827797 0 831
0.02950000 0.02946900 69655.33109461 0 2213.66775634 0 26782.18216433 0 -10336.15915843 0 -16433.10160284 0 996
0.03050000 0.03053250 66109.41907144 0 6655.40836362 0 31354.38797495 0 -10733.11307550 0 -9786.38501421 0 1041
0.03150000 0.03150510 65335.13139688 0 3815.66707273 0 36483.64244718 0 -3560.37247938 0 -7928.86965798 0 1036
0.03250000 0.03246190 60751.41036845 0 2390.38206045 0 36078.72752857 0 1808.42066798 0 -9769.79867163 0 1059
0.03350000 0.03345080 60187.05397245 0 2567.99322286 0 37468.19357006 0 3602.80162809 0 -13138.86352280 0 1302
0.03450000 0.03451200 58322.47447299 0 3214.57270297 0 36543.54372445 0 9236.09047072 0 -17460.83479251 0 1339
0.03550000 0.03553350 55918.22986186 0 976.93225617 0 30515.77009318 0 676.58105144 0 -7012.45762204 0 1365
0.03650000 0.03647120 54282.95820940 0 -191.12714932 0 29398.12962599 0 3391.70775542 0 -16773.68631426 0 1308
0.03750000 0.03744890 55437.02662525 0 602.84933324 0 27756.65747162 0 2129.01983310 0 -12818.76261229 0 1579
0.03850000 0.03847530 54998.56256243 0 822.35374384 0 27101.17584236 0 2608.11932801 0 -22536.60993587 0 1662
0.03950000 0.03950240 50588.89848015 0 3172.99612328 0 22097.03864057 0 1868.20014968 0 -16791.40203397 0 1683
0.04050000 0.04050350 51253.12724602 0 1839.47853910 0 24260.01729390 0 2502.45613226 0 -17096.22313623 0 1822
0.04150000 0.04152450 45446.02504839 0 210.17486971 0 17308.47960300 0 35.39977257 0 -18658.52816814 0 1887
0.04250000 0.04250150 49403.05249208 0 872.77932553 0 23570.98652043 0 3796.88840984 0 -12435.99234331 0 1920
0.04350000 0.04349210 46092.31664805 0 3229.03315919 0 19692.12968996 0 -422.16006452 0 -11765.89524529 0 2005
0.04450000 0.04448520 46243.45388183 0 2773.79452427 0 21339.91306947 0 2562.55671138 0 -7451.40886715 0 2151
0.04550000 0.04548030 42315.10375942 0 -718.57837948 0 19179.14888111 0 5954.39733470 0 -3068.35158142 0 2274
0.04650000 0.04648670 43626.73135744 0 -1453.32013872 0 15637.55506462 0 8783.32096424 0 -1521.40386403 0 2311
0.04750000 0.04749250 44435.23251570 0 -755.34735573 0 14290.71747368 0 9047.88309345 0 -4550.48190932 0 2568
0.04850000 0.04851840 42554.70886850 0 1937.24716724 0 7518.87254227 0 4134.87112492 0 -1349.83819097 0 2493
0.04950000 0.04949480 40771.62167970 0 2061.00254174 0 9359.33651828 0 1989.96250571 0 3257.59975722 0 2644
0.05050000 0.05050630 38707.62961026 0 2579.87382739 0 7344.46128173 0 -871.67209305 0 1801.48939264 0 2829
0.05150000 0.05149060 35640.04201925 0 2563.76359478 0 10023.47670555 0 -532.79584134 0 272.67149991 0 2784
0.05250000 0.05249300 34575.43798794 0 1182.95611130 0 6133.37039307 0 -2441.48083949 0 3566.84978940 0 3055
0.05350000 0.05348950 33357.26081139 0 445.36433565 0 9520.33919347 0 -492.09176085 0 1735.31010720 0 3009
0.05450000 0.05448610 34466.81848147 0 -681.76954285 0 10010.62173644 0 -1340.89175251 0 -193.15117030 0 3336
0.05550000 0.05550870 34953.55788050 0 159.47801606 0 11003.80927267 0 -702.01971771 0 -3307.72417167 0 3349
0.05650000 0.05647670 34467.48282096 0 733.27356897 0 10101.92412689 0 -59.18921606 0 -1934.42372442 0 3324
0.05750000 0.05747970 35198.58842873 0 256.02093785 0 10174.64715630 0 -372.19176985 0 -2985.16520506 0 3639
0.05850000 0.05849280 34853.24261764 0 -982.73304714 0 10208.65026582 0 922.17407378 0 -3231.63515552 0 3846
0.05950000 0.05951020 35410.29127926 0 -255.04878773 0 10246.27402555 0 1904.10769906 0 -4497.79978783 0 3787
0.06050000 0.06049470 35151.97394125 0 803.44221305 0 10056.41687189 0 -1058.30055679 0 -6381.31296273 0 3930
0.06150000 0.06148310 35089.63675252 0 1168.62852298 0 10184.70082723 0 -10.83665038 0 -6222.18151044 0 4083
0.06250000 0.06249100 33187.96496491 0 1157.54512584 0 9069.86165822 0 -602.73418106 0 -2509.86351757 0 4303
0.06350000 0.06350600 32494.94815452 0 1813.80181784 0 10155.37023879 0 134.75905090 0 -3752.72090613 0 4470
0.06450000 0.06451750 31326.59643965 0 944.95206039 0 10774.86681239 0 353.57254843 0 -2521.10192726 0 4479
0.06550000 0.06550280 30409.25432843 0 751.33253075 0 10177.80276887 0 744.33260700 0 -2557.50773126 0 4636
0.06650000 0.06648880 29871.36078874 0 912.41381945 0 11288.67804560 0 276.44937714 0 -1494.73063354 0 4653
0.06750000 0.06749660 28941.39622722 0 788.84888894 0 11236.52739571 0 24.27562927 0 -586.33606800 0 5220
0.06850000 0.06852730 29095.19081895 0 575.14526931 0 11093.25151255 0 -36.74948897 0 -1927.89105277 0 5029
0.06950000 0.06949320 28631.03896255 0 356.09593126 0 12579.60039621 0 877.87813111 0 488.72577410 0 5040
0.07050000 0.07048030 27748.79612100 0 -108.21481300 0 10958.33523464 0 1654.27176185 0 575.09876555 0 5475
0.07150000 0.07148790 27926.72838084 0 510.89367562 0 9729.75007276 0 1787.41646780 0 -1472.77421343 0 5509
0.07250000 0.07249820 27719.78662998 0 -104.97494003 0 10432.21157623 0 760.56352796 0 -1796.56220810 0 5916
0.07350000 0.07351270 27564.22046628 0 771.29925410 0 9891.21778559 0 -305.39575592 0 -660.42652953 0 5721
0.07450000 0.07449140 27000.86057950 0 516.09545382 0 8309.04900296 0 664.78902551 0 433.81479363 0 6028
0.07550000 0.07549160 26528.84737248 0 -103.66895932 0 7646.96826810 0 1063.27645957 0 -672.24291457 0 6183
0.07650000 0.07648840 27306.01385150 0 -473.03961153 0 7984.37522230 0 650.71942236 0 -2498.76904810 0 6330
0.07750000 0.07749960 26629.27335859 0 382.78466300 0 8137.10687085 0 1637.66327463 0 -3558.22444837 0 6583
0.07850000 0.07848650 26127.25415131 0 792.24144926 0 6505.68838742 0 -430.16867706 0 -1490.79995823 0 6549
0.07950000 0.07947320 25864.84005311 0 128.62055402 0 7624.11498967 0 -252.96608343 0 -3963.00649909 0 6828
0.08050000 0.08048110 25079.36933047 0 520.81004973 0 7831.51070585 0 -256.76389085 0 -3465.48265569 0 7147
0.08150000 0.08149960 24649.54168101 0 1427.65448979 0 7377.10249530 0 -574.18419152 0 -3855.77103322 0 7386
0.08250000 0.08250610 23108.71695925 0 1536.24077929 0 7373.86937645 0 -629.44948638 0 -1522.64396441 0 7227
0.08350000 0.08350160 22501.62138945 0 860.17237649 0 7392.21621867 0 502.03360130 0 -2842.86368649 0 7798
0.08450000 0.08449610 22092.27754090 0 357.25741813 0 8573.16823918 0 395.34842997 0 -1900.80814627 0 7371
0.08550000 0.08548940 21700.98158181 0 389.66168395 0 7466.21256544 0 495.44667527 0 -960.90285153 0 8256
0.08650000 0.08650700 21802.40407715 0 344.99592563 0 9429.41326206 0 865.88237440 0 254.48742086 0 8037
0.08750000 0.08749060 21240.81576235 0 540.39809956 0 8694.68700406 0 52.24321453 0 1433.99893191 0 8155
0.08850000 0.08849210 20818.07440077 0 606.93280663 0 10134.04494119 0 336.58428046 0 1464.87964583 0 8718
0.08950000 0.08949900 20091.06555318 0 1085.20298441 0 10069.26076868 0 831.53159388 0 2711.61234809 0 8571
0.09050000 0.09049190 19594.25033857 0 137.73750628 0 9267.60230716 0 777.65255408 0 2915.58671590 0 8932
0.09150000 0.09150830 19311.02026970 0 146.66844348 0 9364.27477515 0 393.18711217 0 3219.01270523 0 9285
0.09250000 0.09250820 19099.64958892 0 330.76134484 0 8591.72545558 0 832.15385854 0 1834.93888592 0 9204
0.09350000 0.09350330 19085.25556665 0 220.46327393 0 8475.70963613 0 303.70169022 0 1899.65662449 0 9349
0.09450000 0.09448040 18888.05746163 0 -155.03247765 0 7668.32678268 0 848.29620089 0 2815.50397186 0 9564
0.09550000 0.09549270 18849.30432477 0 -141.21310904 0 7526.67853127 0 924.26785040 0 1673.49331774 0 10155
0.09650000 0.09649430 19183.68853429 0 -12.98761557 0 6849.42871141 0 776.90185046 0 1635.38237571 0 9913
0.09750000 0.09749140 18701.04589545 0 144.11405814 0 6968.30119067 0 201.24836144 0 1552.55031375 0 10476
0.09850000 0.09850240 18784.19905483 0 783.28947465 0 7867.39611059 0 -610.18031950 0 2145.36258454 0 10575
0.09950000 0.09950330 17989.87047234 0 896.94578168 0 8087.40320474 0 -263.91550545 0 2023.69987943 0 10882
0.10050000 0.10051200 17194.32393412 0 599.03381011 0 7837.30153173 0 0.00007225 0 2283.44554735 0 10875
0.10150000 0.10150300 17126.89347598 0 241.69224230 0 8446.71121743 0 -280.98238692 0 2134.73315271 0 11118
0.10250000 0.10250800 17129.21866419 0 38.56933627 0 8350.43735313 0 534.14223604 0 1477.57960240 0 11575
0.10350000 0.10349800 16863.15069880 0 214.76988451 0 8028.83060645 0 921.47873178 0 2536.97964105 0 11364
0.10450000 0.10450100 16597.74707290 0 160.40366242 0 6994.86369791 0 972.01725118 0 2099.88854651 0 12093
0.10550000 0.10551000 16730.17207773 0 76.75689879 0 7590.08973551 0 1069.30866213 0 2082.69322606 0 12067
0.10650000 0.10649700 16282.40726206 0 315.44942685 0 6635.28994942 0 1024.77355724 0 1918.96675897 0 12054
0.10750000 0.10749900 16094.28846339 0 -88.15198187 0 6232.12445812 0 641.91138797 0 1628.62825757 0 12807
0.10850000 0.10850100 15851.69382662 0 181.29824658 0 5761.16312196 0 376.87868494 0 1888.31856387 0 12736
0.10950000 0.10950300 16025.30787977 0 290.22999261 0 5410.07077429 0 44.72200573 0 924.96208517 0 12933
0.11050000 0.11050200 15511.44128494 0 186.41366065 0 5397.11615425 0 -294.08759058 0 1506.25692368 0 13428
0.11150000 0.11150900 15525.72458395 0 339.51180315 0 5371.89339831 0 -104.70820773 0 1098.51524053 0 13453
0.11250000 0.11250000 15301.95289937 0 309.55119942 0 5465.21095189 0 -111.07756258 0 1038.53534976 0 13668
0.11350000 0.11349100 15177.49996841 0 197.61774613 0 5521.89018263 0 413.02428932 0 913.46015414 0 13791
0.11450000 0.11448600 14957.38215101 0 -39.30974263 0 5372.67953338 0 151.79492987 0 792.16947915 0 14205
0.11550000 0.11549300 14968.12230609 0 193.51655702 0 5992.37540883 0 -133.44144425 0 850.26928917 0 14776
0.11650000 0.11649800 14860.94220184 0 247.21733239 0 5770.71853828 0 160.26304389 0 1287.52314689 0 14553
0.11750000 0.11747300 14811.22746341 0 188.43657439 0 6197.29092424 0 771.89383794 0 1326.78561069 0 14568
0.11850000 0.11849100 14568.85427313 0 60.34848847 0 5543.65837323 0 454.57540266 0 1517.53962267 0 16015
0.11950000 0.11950300 14526.89016206 0 109.22261600 0 5780.22966530 0 614.74765349 0 1475.24334186 0 15270
0.12050000 0.12050700 14358.36937832 0 181.41007706 0 5373.05599242 0 434.35733754 0 1587.06275021 0 15999
0.12150000 0.12150000 14487.02979272 0 78.50499743 0 5282.44008610 0 278.73138329 0 1798.06804427 0 15670
0.12250000 0.12250700 14196.60271272 0 86.73693876 0 4537.84838670 0 211.40279053 0 1673.19436497 0 16887
0.12350000 0.12352200 14172.46504462 0 159.22113812 0 4963.86715642 0 161.33816663 0 1663.27356193 0 16407
0.12450000 0.12449800 14007.81957457 0 205.27758044 0 4675.51060117 0 618.96510201 0 1498.28484981 0 16306
0.12550000 0.12549900 13948.02902055 0 185.47694197 0 4260.69702416 0 107.63185510 0 1339.52985656 0 17523
0.12650000 0.12650100 13508.34700200 0 257.33854451 0 4176.25947510 0 373.51048373 0 1253.57539899 0 17154
0.12750000 0.12750600 13429.29060279 0 258.32398141 0 4318.47241507 0 -38.44255815 0 1803.46026646 0 18007
0.12850000 0.12850300 13161.22961893 0 210.84585259 0 4298.19898832 0 384.09341180 0 1212.18704882 0 17496
0.12950000 0.12949900 13028.02955136 0 106.54278123 0 4330.19800705 0 361.83139552 0 1941.01175768 0 18405
0.13050000 0.13049000 12949.74821490 0 52.90290364 0 4160.50355688 0 234.32139567 0 1475.01082304 0 18100
0.13150000 0.13148800 12997.91282786 0 23.04549398 0 4168.37597983 0 527.65938986 0 1704.32974236 0 19059
0.13250000 0.13249300 12774.03042002 0 322.38402388 0 3793.69958029 0 2.25444713 0 1624.37648484 0 18957
0.13350000 0.13349100 12730.07329049 0 221.53618220 0 4187.81898221 0 -151.01433097 0 2495.24804881 0 19468
0.13450000 0.13450700 12524.46021861 0 116.98686234 0 4060.06649845 0 238.75918346 0 2453.69361376 0 19953
0.13550000 0.13551000 12479.06368686 0 103.28685339 0 4140.35192571 0 180.71362783 0 1743.69185709 0 19956
0.13650000 0.13649900 12330.03019480 0 378.04902968 0 4217.94677804 0 -18.24752347 0 2096.26789629 0 19723
0.13750000 0.13749600 12077.69191218 0 323.09265267 0 4121.61755212 0 -479.73836804 0 1526.27568695 0 20946
0.13850000 0.13851100 11647.53209297 0 227.01144683 0 4142.18993163 0 -142.09889503 0 1601.30175992 0 20955
0.13950000 0.13949800 11632.36300797 0 -42.47199860 0 4230.44743276 0 320.72760409 0 1483.21541573 0 20506
0.14050000 0.14048300 11828.89677350 0 -252.20430749 0 3788.25199648 0 815.69263323 0 829.95710929 0 21447
0.14150000 0.14148400 11788.37206467 0 16.48436647 0 3180.25956836 0 904.32327170 0 890.97226244 0 21771
0.14250000 0.14249400 11653.73259487 0 260.47865582 0 3332.17186487 0 236.11289783 0 347.02216107 0 22470
0.14350000 0.14350900 11256.45758038 0 471.17503203 0 2891.82550683 0 -90.18364275 0 490.12310149 0 22519
0.14450000 0.14449900 10972.76247388 0 289.46268050 0 2837.31645175 0 -47.85647016 0 464.79072954 0 22218
0.14550000 0.14550500 10743.64285640 0 254.97128146 0 2716.46202636 0 -97.44099806 0 711.00158760 0 23559
0.14650000 0.14650700 10590.68976136 0 232.37266650 0 2974.19253116 0 -31.01380326 0 116.56057783 0 23044
0.14750000 0.14750500 10496.27604763 0 305.96265895 0 2668.92853591 0 -136.07112139 0 4.90259291 0 23649
0.14850000 0.14849900 10113.20682588 0 301.43629256 0 2849.93890205 0 -386.35438052 0 201.35244129 0 23640
0.14950000 0.14949500 10029.67720745 0 128.02707741 0 2821.99235420 0 -87.72005048 0 32.98799878 0 24457
0.15050000 0.15050000 10007.64328106 0 -100.67433835 0 2980.33767144 0 73.67093114 0 -494.28851009 0 24591
0.15150000 0.15149900 10075.07373921 0 -104.74120326 0 2699.90890075 0 449.16214306 0 -581.00363637 0 25020
0.15250000 0.15250500 10148.25073393 0 -1.57738554 0 2564.88189959 0 305.27728204 0 -578.06504136 0 25297
0.15350000 0.15350100 10038.56828428 0 144.59570427 0 2577.98045985 0 -58.88361989 0 -539.58649815 0 25452
0.15450000 0.15450400 9833.24309284 0 324.73689291 0 2480.44435052 0 -4.22377082 0 -308.13726354 0 26061
0.15550000 0.15549900 9564.42919089 0 330.83552942 0 2711.97773481 0 -60.49707907 0 -349.62194294 0 26128
0.15650000 0.15649500 9451.95651539 0 159.60756226 0 2791.28879748 0 -74.32286962 0 -111.32226096 0 26331
0.15750000 0.15749700 9341.14468860 0 -19.42085773 0 2764.51591607 0 210.67755325 0 354.21695774 0 27345
0.15850000 0.15849900 9444.48269613 0 28.17364122 0 2832.27854396 0 241.93029729 0 297.44361223 0 26980
0.15950000 0.15949700 9389.94042408 0 -85.47635458 0 2635.91086330 0 443.92493342 0 223.53252237 0 27777
0.16050000 0.16050000 9488.01907732 0 103.12198648 0 2624.99355103 0 233.34038769 0 146.47689226 0 28224
0.16150000 0.16150500 9370.84066376 0 188.35796088 0 2599.97009694 0 71.97409736 0 302.52359486 0 28075
0.16250000 0.16249700 9122.62128598 0 301.43961426 0 2661.77581408 0 -163.75525514 0 335.96644474 0 28590
0.16350000 0.16349900 8923.30836692 0 224.16807381 0 2309.66481252 0 -216.43516216 0 90.68145448 0 29163
0.16450000 0.16449100 8899.54715786 0 37.96556240 0 2620.55354878 0 -195.70112670 0 42.73230896 0 28996
0.16550000 0.16550500 8749.53930122 0 26.58443044 0 2593.12740020 0 -177.67095297 0 -371.06682165 0 30777
0.16650000 0.16650700 8898.84960140 0 112.30437617 0 2810.49928104 0 3.61242348 0 -206.10468310 0 29211
0.16750000 0.16749900 8616.67140339 0 185.05840809 0 2639.05540355 0 188.90825543 0 -234.64802925 0 30922
0.16850000 0.16850800 8668.45666657 0 26.06735287 0 2396.64899630 0 450.97468263 0 -156.26482740 0 30867
0.16950000 0.16949900 8520.32003282 0 -73.13591640 0 1953.08059174 0 598.70939099 0 -166.54105206 0 30852
0.17050000 0.17049200 8539.08762339 0 165.42717619 0 2001.05697517 0 329.98960380 0 -224.67407906 0 31257
0.17150000 0.17149500 8476.70614536 0 45.88448911 0 1888.14140667 0 129.92044496 0 -118.09630928 0 32608
0.17250000 0.17250900 8345.78697670 0 115.43230793 0 1736.59449688 0 -33.12739935 0 -58.34938022 0 32361
0.17350000 0.17350400 8395.19169005 0 106.23696362 0 1888.88325244 0 -33.89282916 0 149.81298373 0 32508
0.17450000 0.17449800 8151.72233961 0 142.74441156 0 1892.92465100 0 -310.71490076 0 131.84481501 0 32791
0.17550000 0.17549800 8162.82788140 0 199.95843560 0 2382.50963750 0 -41.81585263 0 205.77583506 0 33633
0.17650000 0.17650100 7986.76684446 0 140.13134290 0 2115.25693335 0 -65.16295675 0 283.75821875 0 33984
0.17750000 0.17750300 7893.00639790 0 110.30117116 0 2108.20386244 0 328.31214659 0 435.09253991 0 34069
