### header ###
fiducial parameters:
Omega_m = 0.31
Omega_nu = 0
Omega_de = 0.69
Omega_k = 0
H_0 = 100
w_de = -1
zeff = 0
beta = 0
fgrowth = 0
b_1 = 2
gamma = 0.55
Lx = 3500 Ly = 3500 Lz = 3500
nx = 700 ny = 700 nz = 700
xoffset = -685.467585 yoffset = -31.7331281 zoffset = 572.489161
bins = 400 dk = 0.001
kx_ny = 0.628318531 ky_ny = 0.628318531 kz_ny = 0.628318531
############################
A(data) = 7.96268336 (not used)
A(ran) = 7.96203465 (used)
Ngal = 472854
weighted Ngal = 0
Nran = 23820508
weighted Nran = 0
SN(data) = 3483.76754
SN(ran) = 69.3522093
SN(data+ran) = 3553.11975
############################
13 columns: k_central k_mean P_0(k) sigma^{lin}_{P_0(k)} P^img_1(k) sigma^{lin}_{P_1(k)} P_2(k) sigma^{lin}_{P_2(k)} P^img_3(k) sigma^{lin}_{P_3(k)} P_4(k) sigma^{lin}_{P_4(k)} N_modes
### header ###
0.00050000 0 0 0 0 0 0 0 0 0 0 0 0
0.00150000 0.00179520 34422.30773570 0 -25102.84265909 0 70514.87567029 0 -15066.55527372 0 -97914.56138976 0 3
0.00250000 0.00253879 74033.54977440 0 -39790.61370077 0 12691.87376987 0 16995.02208739 0 113769.24474407 0 6
0.00350000 0.00331552 64740.43683087 0 -9760.70829295 0 2948.03969994 0 -10817.29596110 0 11647.75353947 0 7
0.00450000 0.00420575 67790.30870216 0 10244.00419896 0 -27307.12108399 0 -10343.28973561 0 10024.05246644 0 24
0.00550000 0.00557378 63423.16234719 0 1386.11112707 0 1648.50308062 0 -32987.22371595 0 -23126.76484871 0 45
0.00650000 0.00659388 56791.28267382 0 16239.11447202 0 -5617.48863512 0 -36303.05282939 0 9977.08366456 0 40
0.00750000 0.00754703 34546.20705042 0 22740.67288228 0 5839.80984515 0 -9128.96572810 0 1891.46310412 0 57
0.00850000 0.00846663 32508.01349780 0 -9371.52714790 0 -11473.80731657 0 2335.51869097 0 -26807.31634167 0 75
0.00950000 0.00948925 50406.64801364 0 -23965.16128397 0 7028.11388934 0 -4940.85886545 0 -35050.77289240 0 112
0.01050000 0.01054430 63181.67494290 0 -11977.93026556 0 -2689.56734937 0 982.82384020 0 -13663.69171920 0 105
0.01150000 0.01145670 72121.35927822 0 -11056.81249158 0 -15431.49909975 0 -66.66104229 0 6255.36526792 0 144
0.01250000 0.01249090 85575.89478160 0 -10907.51326372 0 -14455.80583673 0 7397.08804159 0 -9814.04368161 0 169
0.01350000 0.01339930 103156.75357514 0 1277.17052318 0 8618.13295027 0 -19275.58883029 0 -2590.63612712 0 180
0.01450000 0.01448870 80057.00519900 0 15292.87359302 0 -1961.08588258 0 -13579.65277383 0 -1069.95417867 0 267
0.01550000 0.01550050 73404.97389445 0 9296.88860630 0 14042.80812099 0 -18219.73193558 0 34340.26180879 0 238
0.01650000 0.01653350 64130.13028686 0 5552.94805375 0 35359.69075484 0 1419.39453548 0 2870.30090739 0 315
0.01750000 0.01747870 65136.71533613 0 7343.69729132 0 28750.17717760 0 10326.38229561 0 -7161.64612665 0 297
0.01850000 0.01844180 60503.83318551 0 -5944.39902539 0 16524.55900584 0 5464.05943010 0 -2984.50086557 0 388
0.01950000 0.01947590 68787.59299858 0 -11647.64281622 0 23022.24210242 0 2685.02769620 0 5836.20026726 0 399
0.02050000 0.02045430 75246.74440478 0 -3100.81563779 0 22753.51677907 0 14680.35258405 0 -1044.84214598 0 462
0.02150000 0.02154770 74134.64010000 0 6928.67334014 0 22251.38684854 0 10391.80866297 0 14001.72979592 0 571
0.02250000 0.02255340 67809.90671709 0 10293.17639348 0 29388.60742664 0 4551.92131154 0 13083.83406845 0 510
0.02350000 0.02348930 63620.24972896 0 3733.07860191 0 33455.14016279 0 160.70482965 0 27218.32103894 0 555
0.02450000 0.02439640 61455.38878042 0 965.73370684 0 36631.67943001 0 -341.68640774 0 35834.25059657 0 592
0.02550000 0.02547300 67134.93779615 0 -4062.04844459 0 38573.43303346 0 6290.50882689 0 30871.41316636 0 837
0.02650000 0.02652900 69171.13833030 0 -1816.01628281 0 37023.41828209 0 1653.97280908 0 27833.38868262 0 723
0.02750000 0.02749970 69656.88122009 0 -383.88193039 0 24283.15845277 0 4598.46936508 0 7522.39354157 0 826
0.02850000 0.02848090 69421.04070145 0 1890.72125836 0 27367.57597750 0 3393.15822997 0 7197.73083323 0 831
0.02950000 0.02946900 65117.78166069 0 6423.58709889 0 24312.50011354 0 -2172.23511687 0 -12501.98339923 0 996
0.03050000 0.03053250 58332.43956532 0 7875.40140143 0 18615.23537810 0 -4309.32667477 0 -10952.65513201 0 1041
0.03150000 0.03150510 53477.11440910 0 3509.69444869 0 18015.44754267 0 -877.95120845 0 -1294.02260156 0 1036
0.03250000 0.03246190 54549.35834454 0 -55.27780659 0 18599.62340011 0 1755.49495535 0 -4231.80932871 0 1059
0.03350000 0.03345080 53571.33989330 0 -3071.41861539 0 20368.09512014 0 10046.64000907 0 -3679.80964720 0 1302
0.03450000 0.03451200 57954.76256576 0 -2935.25116477 0 17412.11656331 0 4331.40489046 0 -9255.62205170 0 1339
0.03550000 0.03553350 55731.88263517 0 3319.90372897 0 14089.31188523 0 2691.61572946 0 -2819.86646784 0 1365
0.03650000 0.03647120 54484.58524435 0 3392.47174583 0 17979.57321026 0 -1171.03121747 0 -1239.52461880 0 1308
0.03750000 0.03744890 52069.04686191 0 1337.47040414 0 13616.08072248 0 1030.93087707 0 30.32754057 0 1579
0.03850000 0.03847530 52673.26362726 0 891.00326495 0 18307.53547139 0 -2969.94075843 0 -8814.55599255 0 1662
0.03950000 0.03950240 51136.64638893 0 1268.76662864 0 17046.95129079 0 -2459.28513779 0 -5130.31741542 0 1683
0.04050000 0.04050350 49729.68607423 0 1876.99157558 0 16937.66744483 0 -1491.02140473 0 -2569.11152767 0 1822
0.04150000 0.04152450 49846.05620807 0 928.22509929 0 17995.96025099 0 2516.77264825 0 -4746.72779440 0 1887
0.04250000 0.04250150 49566.59072965 0 470.63248811 0 19089.46305008 0 2049.63126415 0 3028.40263347 0 1920
0.04350000 0.04349210 48205.80200944 0 -34.76643559 0 16577.92761147 0 6062.35250168 0 23.32972056 0 2005
0.04450000 0.04448520 47951.69215485 0 2188.58894063 0 20294.24271360 0 3733.14503585 0 2739.76927010 0 2151
0.04550000 0.04548030 46684.79674910 0 2010.11413688 0 17023.69940867 0 2509.26561203 0 -192.11701516 0 2274
0.04650000 0.04648670 43819.72197903 0 1949.59280942 0 18470.07719973 0 766.39089251 0 4017.82557927 0 2311
0.04750000 0.04749250 43525.97320159 0 307.04331785 0 15908.05195994 0 1566.56787697 0 -800.30653066 0 2568
0.04850000 0.04851840 42613.17074354 0 1237.16621361 0 19554.27924597 0 -5459.45334298 0 -2157.16568279 0 2493
0.04950000 0.04949480 40259.08376385 0 3367.44829174 0 18095.27900462 0 -4165.88470674 0 -3010.56511819 0 2644
0.05050000 0.05050630 38526.04348323 0 2366.54334511 0 18383.04872665 0 -791.97460623 0 -4672.41035022 0 2829
0.05150000 0.05149060 37319.04935475 0 -415.56317340 0 18473.28817393 0 3110.67000688 0 -1332.02282033 0 2784
0.05250000 0.05249300 38104.07718439 0 -451.93797489 0 15939.71880892 0 5755.08441564 0 -7455.53884431 0 3055
0.05350000 0.05348950 38548.40957937 0 -556.38432214 0 14376.97088402 0 3702.51898541 0 -7098.41207961 0 3009
0.05450000 0.05448610 38197.85977561 0 408.02956359 0 13113.84006871 0 1232.94765786 0 -4931.95671629 0 3336
0.05550000 0.05550870 37096.60634914 0 1577.96129920 0 14584.90914411 0 -649.59558139 0 -3190.40181789 0 3349
0.05650000 0.05647670 35658.53280170 0 1544.60038453 0 14825.28931593 0 -927.29945293 0 -1028.79613285 0 3324
0.05750000 0.05747970 34293.86876780 0 2370.13077835 0 14447.94448611 0 -884.11406444 0 -576.38315522 0 3639
0.05850000 0.05849280 33307.32462646 0 1537.66910919 0 16463.32904960 0 -391.46425843 0 1140.17264820 0 3846
0.05950000 0.05951020 32200.53503759 0 392.12859792 0 18149.86556597 0 670.75700858 0 125.41179429 0 3787
0.06050000 0.06049470 32163.11057970 0 -373.84043901 0 17866.30332737 0 3079.08066417 0 1520.46271642 0 3930
0.06150000 0.06148310 32206.18192324 0 -34.54521054 0 16423.91157324 0 1728.02451747 0 -756.20988984 0 4083
0.06250000 0.06249100 32985.78431373 0 149.16857442 0 15795.77858628 0 1660.81550582 0 -434.69504345 0 4303
0.06350000 0.06350600 32313.14058099 0 208.79636527 0 15410.35095934 0 673.59927436 0 653.94036165 0 4470
0.06450000 0.06451750 31935.90647442 0 853.23445776 0 14146.99869754 0 1703.20036523 0 -102.14131067 0 4479
0.06550000 0.06550280 31592.88585154 0 544.92225148 0 12863.93769755 0 249.73296459 0 -564.18698944 0 4636
0.06650000 0.06648880 30829.33833205 0 99.19396852 0 12701.61741571 0 1158.74093692 0 -1032.73123709 0 4653
0.06750000 0.06749660 30790.58519518 0 405.29580659 0 11209.28947665 0 1445.97918737 0 -1693.12454964 0 5220
0.06850000 0.06852730 30857.46203709 0 266.76773632 0 11423.98185489 0 -960.95156976 0 -2322.32047979 0 5029
0.06950000 0.06949320 29805.59117931 0 681.70421613 0 10386.49394705 0 1290.44624064 0 -216.51045397 0 5040
0.07050000 0.07048030 29684.45994580 0 235.60799982 0 11395.74742660 0 1245.08292586 0 -340.13185334 0 5475
0.07150000 0.07148790 29846.78022764 0 -283.52237824 0 10580.60287345 0 2775.47751764 0 -710.85432568 0 5509
0.07250000 0.07249820 29433.89323515 0 990.87563481 0 10035.75591377 0 702.31867048 0 -2406.12690634 0 5916
0.07350000 0.07351270 27740.82404713 0 2191.61168530 0 9516.55245838 0 708.20804005 0 442.25965577 0 5721
0.07450000 0.07449140 26558.18903325 0 1077.37263629 0 8713.69818578 0 384.15541682 0 2363.74204693 0 6028
0.07550000 0.07549160 25718.90681200 0 -124.04768387 0 8591.68116628 0 2025.98077834 0 2444.55894579 0 6183
0.07650000 0.07648840 26152.49905190 0 -609.55916208 0 7742.57779291 0 1142.15459434 0 1809.51682814 0 6330
0.07750000 0.07749960 26406.16601349 0 403.96269868 0 9073.62624866 0 773.43510556 0 2584.57956544 0 6583
0.07850000 0.07848650 25966.81616469 0 184.45053746 0 7698.45457851 0 -754.54129049 0 1093.85711348 0 6549
0.07950000 0.07947320 24968.75680554 0 724.61722543 0 8044.92976673 0 279.87293998 0 1796.70614832 0 6828
0.08050000 0.08048110 25324.06770897 0 479.07956472 0 7538.21589373 0 -145.66750531 0 1089.18348518 0 7147
0.08150000 0.08149960 24539.15060257 0 759.99662492 0 7780.99876003 0 -176.94682293 0 -126.29647304 0 7386
0.08250000 0.08250610 23889.64802871 0 702.44600221 0 6827.21762783 0 212.45355416 0 281.39981357 0 7227
0.08350000 0.08350160 22892.36373230 0 781.39942880 0 6125.97408009 0 448.16120489 0 -46.09597052 0 7798
0.08450000 0.08449610 22087.40571798 0 549.58591470 0 6485.83570902 0 807.04182585 0 -479.22461217 0 7371
0.08550000 0.08548940 22877.63754029 0 -61.74714454 0 7142.46886006 0 343.81229411 0 -563.47171725 0 8256
0.08650000 0.08650700 21770.84795142 0 204.05962471 0 6887.56179809 0 -55.85556050 0 1.38426205 0 8037
0.08750000 0.08749060 22028.72239644 0 891.07634229 0 7769.99286916 0 -90.17877093 0 223.16492118 0 8155
0.08850000 0.08849210 21715.81849707 0 755.86775500 0 7665.50333985 0 -1122.76695359 0 713.87707036 0 8718
0.08950000 0.08949900 20843.31930136 0 691.09576204 0 8102.11832442 0 22.56130122 0 377.21306915 0 8571
0.09050000 0.09049190 20330.89210875 0 475.36258528 0 8049.52478153 0 26.96764361 0 491.25690755 0 8932
0.09150000 0.09150830 19915.12631181 0 87.50646534 0 7927.90636572 0 1041.72528654 0 -259.39910415 0 9285
0.09250000 0.09250820 20020.09195109 0 31.12485868 0 7135.24970428 0 1354.97574968 0 -795.08925120 0 9204
0.09350000 0.09350330 19407.90311187 0 678.25186525 0 6901.54614433 0 341.18372419 0 -824.01680703 0 9349
0.09450000 0.09448040 18897.13676798 0 790.18088961 0 6434.27189234 0 428.09815232 0 561.59163650 0 9564
0.09550000 0.09549270 18349.27813596 0 182.82069124 0 6419.91108705 0 805.39980008 0 1052.49422966 0 10155
0.09650000 0.09649430 18458.22981217 0 -284.99942637 0 6187.06009611 0 1146.09634198 0 1045.98480990 0 9913
0.09750000 0.09749140 18411.94749443 0 126.93756065 0 5977.07345593 0 897.16501371 0 1218.25468282 0 10476
0.09850000 0.09850240 18000.61062742 0 720.85927839 0 5690.87600401 0 657.87657312 0 2073.49212414 0 10575
0.09950000 0.09950330 17634.67029216 0 521.86524228 0 5457.37174591 0 386.13736296 0 2301.92525747 0 10882
0.10050000 0.10051200 17445.11209127 0 11.75415858 0 5325.88788869 0 559.24873257 0 2357.82942548 0 10875
0.10150000 0.10150300 16866.69384274 0 318.49210171 0 4604.51485443 0 -186.32065312 0 2010.76740404 0 11118
0.10250000 0.10250800 17074.52137959 0 148.97813043 0 5219.59357043 0 -140.72039059 0 1667.75785348 0 11575
0.10350000 0.10349800 16951.06495786 0 77.01100864 0 5311.34992621 0 -50.50928846 0 1281.06798152 0 11364
0.10450000 0.10450100 16740.91223280 0 294.28799966 0 4764.01169345 0 -130.28029551 0 1042.88345172 0 12093
0.10550000 0.10551000 16899.35720096 0 -68.41323770 0 5106.55620636 0 366.26032544 0 1320.18650510 0 12067
0.10650000 0.10649700 16744.34465349 0 -63.34532390 0 5063.39628422 0 167.79886816 0 -634.03121439 0 12054
0.10750000 0.10749900 16640.15407695 0 665.19870152 0 5186.71983805 0 298.64385224 0 -673.19624174 0 12807
0.10850000 0.10850100 15828.10977475 0 708.62989563 0 4908.54982163 0 -522.34245948 0 -309.63645632 0 12736
0.10950000 0.10950300 15519.52408206 0 187.59839940 0 4904.06553008 0 592.67386673 0 627.89161028 0 12933
0.11050000 0.11050200 15530.15351388 0 28.85049244 0 5444.52784912 0 480.20119122 0 1146.41743940 0 13428
0.11150000 0.11150900 15487.96795632 0 200.85861561 0 5162.10605997 0 689.66743214 0 778.24270899 0 13453
0.11250000 0.11250000 15499.59389738 0 9.29435304 0 4783.74257627 0 785.34228367 0 2017.36650963 0 13668
0.11350000 0.11349100 15514.43081264 0 243.50588911 0 5066.36366727 0 -60.47626310 0 2148.92787313 0 13791
0.11450000 0.11448600 15182.92540757 0 217.93214048 0 5211.96473863 0 440.84682712 0 2512.77553899 0 14205
0.11550000 0.11549300 15060.35477183 0 156.46412924 0 4858.21503300 0 101.89384421 0 2219.50287152 0 14776
0.11650000 0.11649800 14787.75413479 0 327.49279456 0 4783.93080579 0 484.78181200 0 2632.45629796 0 14553
0.11750000 0.11747300 14585.57348360 0 22.55454710 0 4231.08962760 0 299.08563800 0 1517.31817617 0 14568
0.11850000 0.11849100 14407.19833077 0 292.16211329 0 4119.35879785 0 370.72690128 0 1439.12541830 0 16015
0.11950000 0.11950300 14245.76383492 0 289.26337865 0 3786.44720753 0 -274.24930620 0 945.89099354 0 15270
0.12050000 0.12050700 13953.56518295 0 154.14779889 0 3868.83637651 0 -161.77220176 0 579.24645842 0 15999
0.12150000 0.12150000 13891.22799423 0 151.85804212 0 3934.57276896 0 -159.77918330 0 907.33826575 0 15670
0.12250000 0.12250700 13796.22744728 0 139.27877389 0 4119.25914693 0 -138.17597034 0 -81.38723430 0 16887
0.12350000 0.12352200 13742.96956490 0 169.33127792 0 4515.54872451 0 -210.16601185 0 586.05261649 0 16407
0.12450000 0.12449800 13514.54750390 0 255.59908228 0 4387.66337286 0 26.41602038 0 299.03249084 0 16306
0.12550000 0.12549900 13454.53550338 0 194.65479201 0 4702.78173720 0 -0.23892638 0 440.00200874 0 17523
0.12650000 0.12650100 13328.86461669 0 177.04204492 0 4509.73575399 0 550.97881316 0 -209.14846520 0 17154
0.12750000 0.12750600 12966.68887187 0 106.52883010 0 4518.28358875 0 253.17977930 0 -154.88964466 0 18007
0.12850000 0.12850300 13013.74625235 0 168.01145680 0 3861.42899120 0 563.80942316 0 43.28902545 0 17496
0.12950000 0.12949900 12980.86144764 0 -124.06761406 0 3739.36768240 0 300.96682599 0 98.03691058 0 18405
0.13050000 0.13049000 12781.55960090 0 247.49967667 0 3742.01396803 0 225.51336128 0 229.57026109 0 18100
0.13150000 0.13148800 12782.99900313 0 186.94623947 0 3604.14137939 0 470.87718649 0 697.45570542 0 19059
0.13250000 0.13249300 12498.10808554 0 196.53155107 0 3577.99962050 0 141.85862558 0 1170.89834957 0 18957
0.13350000 0.13349100 12246.10197267 0 387.61441109 0 3613.79644663 0 311.69037257 0 1005.68154756 0 19468
0.13450000 0.13450700 12101.27596404 0 318.49210171 0 3700.08307395 0 -60.96123092 0 1145.07768809 0 19953
0.13550000 0.13551000 11807.52718660 0 184.24127052 0 3555.82175388 0 -168.82748714 0 1451.00602283 0 19956
0.13650000 0.13649900 11724.59547371 0 -16.02995826 0 3882.00137072 0 94.93322721 0 906.34839991 0 19723
0.13750000 0.13749600 11701.34359159 0 -39.25305233 0 3410.37569507 0 29.55956412 0 756.71478785 0 20946
0.13850000 0.13851100 11880.82597690 0 -166.70824417 0 3098.65653445 0 558.04517086 0 258.77351780 0 20955
0.13950000 0.13949800 11757.59100167 0 65.59920634 0 2998.10875277 0 3.91638094 0 187.26180073 0 20506
0.14050000 0.14048300 11690.93560626 0 334.40746141 0 2801.84072303 0 88.79860564 0 -89.64585994 0 21447
0.14150000 0.14148400 11314.03366944 0 413.92336209 0 2849.61780463 0 -52.10392469 0 25.53709924 0 21771
0.14250000 0.14249400 10909.24054639 0 574.49200215 0 2899.59827886 0 -152.90105512 0 26.96321468 0 22470
0.14350000 0.14350900 10629.21037940 0 232.38816776 0 3048.60962627 0 -263.18030308 0 243.22354483 0 22519
0.14450000 0.14449900 10498.67874212 0 139.28984622 0 3108.48875889 0 208.82404608 0 -19.74106937 0 22218
0.14550000 0.14550500 10407.59779816 0 29.07393196 0 3029.99704825 0 -307.07432036 0 -348.43720418 0 23559
0.14650000 0.14650700 10472.41518765 0 26.36918445 0 3205.54875825 0 -28.93386705 0 -572.81675940 0 23044
0.14750000 0.14750500 10259.48330906 0 79.24706464 0 3245.37591062 0 -380.72521059 0 -839.67861048 0 23649
0.14850000 0.14849900 10406.24697453 0 99.51285148 0 3136.42423440 0 -89.96452145 0 -889.85949379 0 23640
0.14950000 0.14949500 10234.34913172 0 6.34341239 0 3093.87329013 0 112.63433145 0 -924.36860855 0 24457
0.15050000 0.15050000 10419.94344033 0 115.20532527 0 2952.24718337 0 185.98626891 0 -1140.77055374 0 24591
0.15150000 0.15149900 10267.74326337 0 56.76238391 0 3052.97212225 0 12.75786483 0 -1011.65506680 0 25020
0.15250000 0.15250500 10244.66853845 0 219.63506403 0 3173.28400372 0 343.28303698 0 -896.66675909 0 25297
0.15350000 0.15350100 9906.92941451 0 181.63263079 0 2958.11551552 0 321.89241266 0 -813.91884679 0 25452
0.15450000 0.15450400 9902.63335248 0 150.71316373 0 3117.56806524 0 213.47331527 0 -742.31633665 0 26061
0.15550000 0.15549900 9716.00931766 0 189.79736311 0 2949.16907707 0 302.58892157 0 -372.58483738 0 26128
0.15650000 0.15649500 9615.43939133 0 248.18837527 0 3077.15407965 0 162.84400281 0 103.34132923 0 26331
0.15750000 0.15749700 9358.46180462 0 168.93931762 0 2703.57384027 0 200.68256564 0 523.01012067 0 27345
0.15850000 0.15849900 9324.51405672 0 141.75454572 0 3080.71936824 0 -60.89324685 0 539.77694214 0 26980
0.15950000 0.15949700 9217.64397757 0 181.80535906 0 3252.14110108 0 -178.04962648 0 655.92341502 0 27777
0.16050000 0.16050000 9045.86793034 0 260.88943907 0 3480.06490747 0 -221.34352375 0 737.39358104 0 28224
0.16150000 0.16150500 9062.62035779 0 118.57463372 0 3569.01996507 0 34.65991983 0 657.64848323 0 28075
0.16250000 0.16249700 8992.23358892 0 -27.10095440 0 3483.50840049 0 -107.76272998 0 810.78094994 0 28590
0.16350000 0.16349900 8983.77433275 0 -45.51744154 0 3511.14492324 0 233.41125057 0 355.69732757 0 29163
0.16450000 0.16449100 9015.03150572 0 178.19467393 0 3504.34651580 0 12.45404023 0 45.14463637 0 28996
0.16550000 0.16550500 8749.58359052 0 261.09649155 0 3283.74151612 0 194.78655267 0 132.74388779 0 30777
0.16650000 0.16650700 8681.85417960 0 30.01264365 0 2987.67862279 0 84.09762870 0 -115.97928078 0 29211
0.16750000 0.16749900 8616.74890967 0 -156.46302201 0 2794.11224031 0 287.33679414 0 -402.47125653 0 30922
0.16850000 0.16850800 8779.29063800 0 -90.14333949 0 2636.84093859 0 117.83500242 0 -764.60049758 0 30867
0.16950000 0.16949900 8742.35336241 0 48.75653945 0 2508.36875372 0 126.83790973 0 -688.71631944 0 30852
0.17050000 0.17049200 8720.28621905 0 76.47898343 0 2305.52376304 0 119.83023535 0 -725.98022862 0 31257
0.17150000 0.17149500 8562.66060293 0 139.00085854 0 2383.67223161 0 165.72502172 0 -532.88884887 0 32608
0.17250000 0.17250900 8557.95486488 0 249.99980762 0 2211.67473787 0 254.49295703 0 -853.05840779 0 32361
0.17350000 0.17350400 8304.96331510 0 110.24470231 0 2241.01639864 0 123.24715479 0 -49.43693381 0 32508
0.17450000 0.17449800 8267.94853323 0 140.11584165 0 2256.29620689 0 43.65762314 0 -493.55441495 0 32791
0.17550000 0.17549800 8111.83982561 0 45.65141667 0 2358.09516128 0 167.67375089 0 53.54354836 0 33633
0.17650000 0.17650100 8191.52734733 0 96.32557206 0 2118.01394223 0 195.48632360 0 -315.36416995 0 33984
0.17750000 0.17750300 8074.50394632 0 89.70542905 0 2168.27122459 0 125.46826315 0 181.80868075 0 34069
0.17850000 0.17849800 8130.39704201 0 -7.85128588 0 2087.19966226 0 270.39945886 0 -82.80415971 0 34536
