### header ###
fiducial parameters:
Omega_m = 0.31
Omega_nu = 0
Omega_de = 0.69
Omega_k = 0
H_0 = 100
w_de = -1
zeff = 0
beta = 0
fgrowth = 0
b_1 = 2
gamma = 0.55
Lx = 3500 Ly = 3500 Lz = 3500
nx = 700 ny = 700 nz = 700
xoffset = -685.467585 yoffset = -31.7331281 zoffset = 572.489161
bins = 400 dk = 0.001
kx_ny = 0.628318531 ky_ny = 0.628318531 kz_ny = 0.628318531
############################
A(data) = 8.02645052 (not used)
A(ran) = 8.02204953 (used)
Ngal = 477034
weighted Ngal = 0
Nran = 23820508
weighted Nran = 0
SN(data) = 3489.05291
SN(ran) = 69.8749607
SN(data+ran) = 3558.92787
############################
13 columns: k_central k_mean P_0(k) sigma^{lin}_{P_0(k)} P^img_1(k) sigma^{lin}_{P_1(k)} P_2(k) sigma^{lin}_{P_2(k)} P^img_3(k) sigma^{lin}_{P_3(k)} P_4(k) sigma^{lin}_{P_4(k)} N_modes
### header ###
0.00050000 0 0 0 0 0 0 0 0 0 0 0 0
0.00150000 0.00179520 71186.96578678 0 -67569.08365229 0 -4650.06639874 0 79463.41786547 0 -106407.69886515 0 3
0.00250000 0.00253879 108354.76718451 0 -43567.27297316 0 21865.62705186 0 -44764.63417905 0 61667.20235420 0 6
0.00350000 0.00331552 109582.79873014 0 9600.75748862 0 16207.89051603 0 -86279.09813083 0 34070.09708322 0 7
0.00450000 0.00420575 92535.51526961 0 41492.20857890 0 16198.47903994 0 -49331.74672024 0 54667.27860385 0 24
0.00550000 0.00557378 63331.81566744 0 18998.55926332 0 38484.07937217 0 -27904.03011496 0 -4353.08450245 0 45
0.00650000 0.00659388 63330.92988145 0 -4979.44591744 0 56247.07790898 0 13750.27729928 0 -4151.45746750 0 40
0.00750000 0.00754703 67162.50788494 0 -5089.00657152 0 66585.52903865 0 12649.57748906 0 -22991.12886968 0 57
0.00850000 0.00846663 71957.82104065 0 -7824.85623864 0 29950.52791119 0 23134.07258309 0 -35903.34190344 0 75
0.00950000 0.00948925 80530.78997799 0 -12860.50527686 0 37764.82115195 0 28188.47813955 0 -35464.10277788 0 112
0.01050000 0.01054430 87185.14647074 0 10438.25706558 0 16514.48319026 0 -6805.42729258 0 -32484.98306218 0 105
0.01150000 0.01145670 82371.23180934 0 12405.98634305 0 26345.37895024 0 -27256.07766657 0 -46474.64402404 0 144
0.01250000 0.01249090 65427.36386261 0 9494.72890616 0 27935.25407095 0 -24099.13641428 0 4.15559852 0 169
0.01350000 0.01339930 67426.36138537 0 -1212.47492927 0 27060.09751728 0 -746.04106672 0 -10294.98118243 0 180
0.01450000 0.01448870 75512.48020043 0 -13596.48270755 0 43827.25115990 0 7062.39380698 0 -22762.37463892 0 267
0.01550000 0.01550050 86346.97148197 0 -8491.07802297 0 32806.52337491 0 27145.68658813 0 -14255.83965050 0 238
0.01650000 0.01653350 83832.77868540 0 939.21438167 0 32604.23200048 0 13920.45893175 0 -6619.36794633 0 315
0.01750000 0.01747870 94480.59057050 0 2135.88467449 0 20341.96443357 0 13464.50059571 0 -3097.01783037 0 297
0.01850000 0.01844180 85610.10826529 0 4982.12542005 0 24928.45354320 0 -6386.80483584 0 -3860.39926500 0 388
0.01950000 0.01947590 84744.91680396 0 7151.22706900 0 33681.56920533 0 -4051.17542162 0 11672.77699356 0 399
0.02050000 0.02045430 74081.71438737 0 8886.17178948 0 32553.85292255 0 -5276.17315026 0 13194.00370040 0 462
0.02150000 0.02154770 72815.92621410 0 3516.30462661 0 30791.36025792 0 11043.92430549 0 8039.91400359 0 571
0.02250000 0.02255340 66776.52664177 0 -2810.11174967 0 25364.14952481 0 11575.45125841 0 -6341.34187014 0 510
0.02350000 0.02348930 72711.62491431 0 -1835.53679146 0 28088.05215345 0 9058.96649060 0 -14970.00460131 0 555
0.02450000 0.02439640 71787.19651520 0 254.79523149 0 20277.08061013 0 -685.44555469 0 -9141.87605884 0 592
0.02550000 0.02547300 70947.02850796 0 5242.90081418 0 24200.44818637 0 -4931.04878566 0 -9782.52077285 0 837
0.02650000 0.02652900 64989.78558578 0 5164.05478914 0 11243.17079060 0 -230.88343882 0 5317.67222368 0 723
0.02750000 0.02749970 62814.40592866 0 5295.12897035 0 18925.48191952 0 2225.73659039 0 -9551.75137898 0 826
0.02850000 0.02848090 56568.72894496 0 2196.12919383 0 12930.48236971 0 7439.38432240 0 -3310.81335030 0 831
0.02950000 0.02946900 55152.24643091 0 565.59206746 0 15288.22321659 0 10234.07232360 0 -13179.60967813 0 996
0.03050000 0.03053250 54062.17605252 0 837.88046493 0 10736.54549620 0 -332.40226338 0 -5191.46986539 0 1041
0.03150000 0.03150510 53763.88762190 0 352.56828857 0 12613.03881716 0 -1149.18552060 0 -11913.15716537 0 1036
0.03250000 0.03246190 48290.17312455 0 4797.39475277 0 15413.89410329 0 961.53397404 0 -742.76698027 0 1059
0.03350000 0.03345080 50807.90906507 0 3528.94922155 0 12461.56941364 0 -2905.88735935 0 1800.78076386 0 1302
0.03450000 0.03451200 47820.70655224 0 -1019.40901587 0 17578.20143559 0 2495.50271228 0 2160.52059721 0 1339
0.03550000 0.03553350 51027.58398947 0 139.87889390 0 22227.02773394 0 -564.72067549 0 -3138.01864918 0 1365
0.03650000 0.03647120 49513.44357052 0 -34.06245718 0 18129.27104181 0 -5937.42346075 0 -7560.33839872 0 1308
0.03750000 0.03744890 49879.05173603 0 2602.48351467 0 22853.38914893 0 -3555.98783876 0 -384.86958177 0 1579
0.03850000 0.03847530 47432.40012085 0 903.95567052 0 22741.66939151 0 -27.57307833 0 -5106.72229123 0 1662
0.03950000 0.03950240 45973.28915625 0 555.58490029 0 19772.40404490 0 4298.64188132 0 -5368.94815991 0 1683
0.04050000 0.04050350 45241.29776249 0 225.00292710 0 18018.10490063 0 6283.30074344 0 -14001.39762617 0 1822
0.04150000 0.04152450 43282.16060908 0 2822.61240439 0 15774.40899938 0 2783.83712288 0 -15850.69731738 0 1887
0.04250000 0.04250150 42011.61133614 0 654.54269612 0 12479.28513335 0 3798.33888439 0 -9970.97174126 0 1920
0.04350000 0.04349210 39879.96736206 0 -100.97417691 0 8808.96446852 0 2396.46076677 0 -5695.49316346 0 2005
0.04450000 0.04448520 41997.32803713 0 68.34735736 0 10063.51423209 0 622.06756743 0 -4921.30513982 0 2151
0.04550000 0.04548030 41080.20737240 0 -424.46642978 0 10487.44033243 0 -828.90966736 0 -3503.88147816 0 2274
0.04650000 0.04648670 40945.56790260 0 2393.67054092 0 10492.93220554 0 85.87484755 0 -1504.47427938 0 2311
0.04750000 0.04749250 39431.20603716 0 1039.73669700 0 13101.88195790 0 428.92193329 0 2614.05409411 0 2568
0.04850000 0.04851840 40077.05474383 0 80.55581343 0 10766.18610974 0 4746.51742023 0 891.81154466 0 2493
0.04950000 0.04949480 38489.17264159 0 -497.72203802 0 9469.72759672 0 2718.74292527 0 1223.20401202 0 2644
0.05050000 0.05050630 39865.13044680 0 826.93657908 0 11352.56535981 0 85.73079661 0 -1515.76805070 0 2829
0.05150000 0.05149060 38139.28717732 0 2425.04950946 0 13272.61720661 0 -2871.79567124 0 1728.17953002 0 2784
0.05250000 0.05249300 36094.45022981 0 1689.88035847 0 13043.53080611 0 -3907.74452592 0 -1042.92774102 0 3055
0.05350000 0.05348950 34459.06785409 0 2102.81164026 0 18108.78724090 0 -2657.39117345 0 198.18797086 0 3009
0.05450000 0.05448610 34731.33632139 0 1800.10535204 0 16505.07171416 0 -769.11025548 0 -234.15309633 0 3336
0.05550000 0.05550870 32680.74176497 0 166.49454830 0 19451.74951815 0 3384.24500849 0 -849.63816666 0 3349
0.05650000 0.05647670 33012.35789329 0 -469.34588397 0 14727.18851803 0 649.21801511 0 -344.01381042 0 3324
0.05750000 0.05747970 34726.13232872 0 -1105.02244583 0 16334.00429572 0 3751.92369875 0 -4069.69942104 0 3639
0.05850000 0.05849280 34566.80157458 0 -618.42809426 0 12672.94009443 0 1420.57927423 0 -3363.98265408 0 3846
0.05950000 0.05951020 35132.26520307 0 73.70204437 0 11173.08297450 0 -427.94203254 0 -5073.70461862 0 3787
0.06050000 0.06049470 34137.08464837 0 1190.62923240 0 9290.35593466 0 -983.38409984 0 -3161.42554384 0 3930
0.06150000 0.06148310 33566.85992021 0 1039.22737006 0 10497.94796868 0 2351.49605568 0 -3358.03681565 0 4083
0.06250000 0.06249100 31938.12093939 0 51.84162131 0 9389.92935175 0 970.65535523 0 -3731.22952366 0 4303
0.06350000 0.06350600 32228.10512639 0 -29.90214185 0 9977.94730590 0 3812.95435315 0 -5580.37420232 0 4470
0.06450000 0.06451750 31640.27540176 0 599.38369557 0 10037.77107689 0 1300.80993667 0 -3583.55792755 0 4479
0.06550000 0.06550280 31356.93460965 0 682.10171259 0 8172.51616562 0 1058.74234255 0 498.19814798 0 4636
0.06650000 0.06648880 31020.33593517 0 806.12614458 0 10691.16003676 0 -1423.87882703 0 1915.71149547 0 4653
0.06750000 0.06749660 30247.37693958 0 732.65905495 0 9871.14366070 0 91.36638849 0 1807.73418384 0 5220
0.06850000 0.06852730 30182.71456264 0 460.00194906 0 12661.64632311 0 -555.86835180 0 3167.24958670 0 5029
0.06950000 0.06949320 29429.46430522 0 1415.28670297 0 11928.99058986 0 -401.37288191 0 261.08320476 0 5040
0.07050000 0.07048030 28621.73820970 0 378.24722429 0 12209.34185427 0 -96.91019081 0 2310.41773061 0 5475
0.07150000 0.07148790 28756.48840275 0 -202.20833200 0 11310.82269524 0 998.06932425 0 424.86724794 0 5509
0.07250000 0.07249820 28807.31037366 0 -313.78968536 0 11269.19075392 0 1150.62492283 0 -1098.07234754 0 5916
0.07350000 0.07351270 29219.97591966 0 -264.59977512 0 10438.50065673 0 -319.14647611 0 -3494.04925372 0 5721
0.07450000 0.07449140 27976.55384252 0 949.10196773 0 9409.91489805 0 593.70912910 0 -2991.67573205 0 6028
0.07550000 0.07549160 27974.45010081 0 1052.31264353 0 8804.53553859 0 172.78695049 0 -2620.55354878 0 6183
0.07650000 0.07648840 26834.00064449 0 356.06935768 0 8697.64331479 0 875.19641404 0 -2617.94048012 0 6330
0.07750000 0.07749960 26898.22012843 0 301.15173381 0 7656.70084162 0 880.69603777 0 -2927.07978906 0 6583
0.07850000 0.07848650 26384.46425685 0 653.67684032 0 7714.77518529 0 809.46666498 0 -1070.35167513 0 6549
0.07950000 0.07947320 25769.06444343 0 821.21883054 0 8547.97870022 0 -977.98523426 0 -1865.84174449 0 6828
0.08050000 0.08048110 25253.20483013 0 743.43353423 0 8907.05419409 0 -41.67844508 0 245.35386012 0 7147
0.08150000 0.08149960 24213.40280641 0 838.62895409 0 8526.29908822 0 -39.03382030 0 -355.21900313 0 7386
0.08250000 0.08250610 24162.13794250 0 491.09635884 0 9306.54367354 0 277.60643509 0 388.13038143 0 7227
0.08350000 0.08350160 23599.44239521 0 -79.25260080 0 8664.23811081 0 1292.51676538 0 -853.69728093 0 7798
0.08450000 0.08449610 23191.75939539 0 696.65628357 0 8890.48999616 0 102.08307024 0 -1653.93959211 0 7371
0.08550000 0.08548940 23200.50653200 0 829.77330870 0 7970.26908048 0 395.10594606 0 -606.71800353 0 8256
0.08650000 0.08650700 22126.04813160 0 601.52065426 0 8596.12116853 0 205.34290716 0 833.73720098 0 8037
0.08750000 0.08749060 21952.32335519 0 644.16792776 0 8000.66261211 0 960.27837241 0 984.24884841 0 8155
0.08850000 0.08849210 21040.18523663 0 127.30184014 0 7881.57975868 0 1435.57120204 0 -129.40336739 0 8718
0.08950000 0.08949900 21166.74190931 0 280.23279053 0 8116.92202270 0 524.55249552 0 814.05946532 0 8571
0.09050000 0.09049190 20725.73121178 0 584.47481020 0 8468.65656522 0 -247.25608553 0 2156.11381193 0 8932
0.09150000 0.09150830 20539.71615483 0 429.91954976 0 8527.73849045 0 53.70498285 0 2444.64752438 0 9285
0.09250000 0.09250820 20074.56778920 0 242.79283139 0 8747.56842740 0 -407.51359325 0 3415.59076006 0 9204
0.09350000 0.09350330 20363.55546697 0 497.62792325 0 8735.28921917 0 -102.01353604 0 2255.28862534 0 9349
0.09450000 0.09448040 19926.97369937 0 312.84410882 0 9048.39242040 0 -83.04332193 0 2862.48384607 0 9564
0.09550000 0.09549270 19875.04449597 0 340.88587866 0 9090.26795286 0 59.76065874 0 1024.66837016 0 10155
0.09650000 0.09649430 19092.56330103 0 429.89297618 0 8354.92164468 0 -307.11750242 0 948.34572795 0 9913
0.09750000 0.09749140 18820.29483374 0 548.73888185 0 8265.72299594 0 574.65587255 0 137.44851860 0 10476
0.09850000 0.09850240 18608.25981347 0 47.60402116 0 6944.90536832 0 1352.52876590 0 379.45521493 0 10575
0.09950000 0.09950330 18604.60594628 0 -332.03466220 0 7334.10865802 0 1508.37173772 0 -31.15707915 0 10882
0.10050000 0.10051200 18426.12007020 0 107.70515389 0 6468.77325647 0 1243.04561809 0 156.66232386 0 10875
0.10150000 0.10150300 18320.37936818 0 447.15805227 0 6429.97583031 0 783.09792343 0 1799.28600000 0 11118
0.10250000 0.10250800 17930.41208807 0 478.61120538 0 6563.56342925 0 495.65483497 0 1570.69785412 0 11575
0.10350000 0.10349800 17438.57941962 0 477.09318965 0 6640.25035094 0 638.67605465 0 3606.51085690 0 11364
0.10450000 0.10450100 17314.34793516 0 306.61703334 0 6783.21620900 0 486.57442139 0 2930.99939204 0 12093
0.10550000 0.10551000 16944.31083972 0 -222.53379867 0 5949.93518780 0 1007.11762809 0 3159.10035563 0 12067
0.10650000 0.10649700 17222.77980891 0 215.44972525 0 5942.80461061 0 431.03674733 0 1771.09586102 0 12054
0.10750000 0.10749900 16754.64191558 0 504.83268501 0 5542.34076657 0 122.15985249 0 1524.42660871 0 12807
0.10850000 0.10850100 15965.40660250 0 533.39706858 0 4450.33273133 0 257.06062915 0 1675.45311923 0 12736
0.10950000 0.10950300 15549.41935907 0 487.68054664 0 4191.19604128 0 349.26319961 0 1957.86383606 0 12933
0.11050000 0.11050200 15371.70854573 0 104.53636525 0 4027.38099559 0 331.76228301 0 278.71366757 0 13428
0.11150000 0.11150900 15038.76373843 0 186.02945098 0 3705.45315148 0 238.65842530 0 -588.37891193 0 13453
0.11250000 0.11250000 14861.38509484 0 538.96091180 0 4153.05188228 0 -686.92038835 0 -348.09064042 0 13668
0.11350000 0.11349100 14448.83027209 0 381.06955989 0 3633.10658112 0 -1115.89103987 0 -993.21964597 0 13791
0.11450000 0.11448600 14406.42326804 0 -106.02681089 0 4294.24616836 0 19.73885490 0 -813.11167431 0 14205
0.11550000 0.11549300 14524.67569710 0 -217.04414003 0 3664.86200870 0 243.38409354 0 -1356.43729656 0 14776
0.11650000 0.11649800 14686.99597894 0 -147.29402983 0 3716.22652353 0 873.83673255 0 -1733.17314851 0 14553
0.11750000 0.11747300 14820.86038600 0 -251.79130977 0 3615.93340532 0 234.69674748 0 -2096.85472951 0 14568
0.11850000 0.11849100 14866.25691776 0 213.28397852 0 3246.71566192 0 616.35092612 0 -2173.59701282 0 16015
0.11950000 0.11950300 14843.78009837 0 210.56904447 0 3714.98642315 0 -332.55063253 0 -1077.96500567 0 15270
0.12050000 0.12050700 14410.85219796 0 553.12573694 0 3668.43836961 0 87.44268875 0 -147.84543161 0 15999
0.12150000 0.12150000 14425.79983647 0 317.60410126 0 4656.26690063 0 -31.99691498 0 498.73072681 0 15670
0.12250000 0.12250700 14047.56922066 0 184.72734558 0 4212.73171305 0 275.44733175 0 1244.68432216 0 16887
0.12350000 0.12352200 13866.31526338 0 402.01618398 0 4620.44792985 0 101.21599648 0 1378.41586132 0 16407
0.12450000 0.12449800 13417.22176874 0 409.57526013 0 4674.07119894 0 507.90525515 0 1652.15694781 0 16306
0.12550000 0.12549900 13311.25962022 0 204.49698154 0 4747.81288224 0 267.12869411 0 1327.64925203 0 17523
0.12650000 0.12650100 13067.88992071 0 86.92660769 0 4438.83965817 0 -122.16649589 0 1462.07834765 0 17154
0.12750000 0.12750600 12941.99758752 0 230.38518420 0 4522.35820428 0 -294.71428416 0 595.16071088 0 18007
0.12850000 0.12850300 12791.41396999 0 222.39096568 0 4305.47350573 0 -457.63247154 0 209.60796668 0 17496
0.12950000 0.12949900 12762.84737196 0 172.61422223 0 4570.86605931 0 -433.36415001 0 -143.21830706 0 18405
0.13050000 0.13049000 12536.75049916 0 102.47525198 0 4229.83845489 0 -47.98003731 0 283.63088702 0 18100
0.13150000 0.13148800 12608.27771749 0 31.08477687 0 4332.42354434 0 550.45952113 0 -26.26488315 0 19059
0.13250000 0.13249300 12520.36345843 0 100.27695261 0 3885.43379141 0 779.75297410 0 300.28809248 0 18957
0.13350000 0.13349100 12622.89318625 0 -92.05674794 0 3802.46886154 0 742.01627665 0 -251.21111995 0 19468
0.13450000 0.13450700 12489.91456518 0 31.35361291 0 3599.52421994 0 122.30379271 0 589.03217910 0 19953
0.13550000 0.13551000 12520.14201193 0 322.04631798 0 3494.12675999 0 152.87226707 0 593.31052541 0 19956
0.13650000 0.13649900 12024.87692279 0 259.23744821 0 3413.07734232 0 121.72249566 0 1121.93652922 0 19723
0.13750000 0.13749600 12098.17571309 0 116.26383953 0 3627.70328661 0 320.46740446 0 1073.37663427 0 20946
0.13850000 0.13851100 11807.30574011 0 96.44537461 0 3274.69542674 0 234.40222364 0 744.75003365 0 20955
0.13950000 0.13949800 11829.78255949 0 240.16093978 0 3403.37798578 0 73.47672256 0 177.47386559 0 20506
0.14050000 0.14048300 11573.12607019 0 188.08004553 0 3030.11884382 0 55.15335366 0 459.13941495 0 21447
0.14150000 0.14148400 11246.93538104 0 133.76475613 0 2895.12505963 0 37.86026459 0 -18.72573718 0 21771
0.14250000 0.14249400 11268.08352144 0 198.22229507 0 2712.69743592 0 -96.91882722 0 -273.09003379 0 22470
0.14350000 0.14350900 11107.64553482 0 72.55849466 0 2452.42029641 0 112.75834149 0 -368.08504457 0 22519
0.14450000 0.14449900 10867.45359253 0 219.61956278 0 2480.25612100 0 -338.23848579 0 -818.68216093 0 22218
0.14550000 0.14550500 10842.38584914 0 492.01757627 0 2740.58862214 0 -127.23319172 0 -882.89943041 0 23559
0.14650000 0.14650700 10408.56109042 0 224.03520592 0 3023.65260613 0 -497.24592805 0 -720.68322842 0 23044
0.14750000 0.14750500 10173.82780426 0 163.96009315 0 2964.03920930 0 -1.72487998 0 -357.72245578 0 23649
0.14850000 0.14849900 10402.63739664 0 -52.35382706 0 3263.68953587 0 353.40092740 0 -284.57424909 0 23640
0.14950000 0.14949500 10261.76420797 0 -46.72277482 0 3458.94998405 0 469.78656250 0 -106.17573366 0 24457
0.15050000 0.15050000 10301.48063710 0 172.92646179 0 3421.62517708 0 137.94012982 0 -109.36301308 0 24591
0.15150000 0.15149900 10129.01810572 0 270.30312964 0 3462.65921286 0 37.94574294 0 447.60094526 0 25020
0.15250000 0.15250500 9928.44294163 0 250.50138393 0 3507.07030771 0 -72.48641383 0 776.27072794 0 25297
0.15350000 0.15350100 9886.50097522 0 85.99542517 0 3336.30184203 0 185.06726595 0 713.78517006 0 25452
0.15450000 0.15450400 9709.70916484 0 145.44605882 0 3361.46923634 0 -50.74723273 0 896.94688891 0 26061
0.15550000 0.15549900 9651.63482117 0 21.37667319 0 3363.31831459 0 421.41821876 0 661.38428562 0 26128
0.15650000 0.15649500 9585.26730620 0 121.11351780 0 3057.01352080 0 402.08483239 0 813.32979911 0 26331
0.15750000 0.15749700 9561.12963810 0 68.27948401 0 2916.10711516 0 463.45651440 0 668.45839395 0 27345
0.15850000 0.15849900 9314.39395184 0 201.19632151 0 2701.01613324 0 193.23974890 0 576.30786342 0 26980
0.15950000 0.15949700 9281.03303716 0 241.93029729 0 2951.70463945 0 152.46037659 0 701.94221144 0 27777
0.16050000 0.16050000 9133.95934659 0 128.67923734 0 2818.37170399 0 -75.45313254 0 1086.70992781 0 28224
0.16150000 0.16150500 9011.55479572 0 15.25279178 0 2947.69645787 0 215.66009942 0 866.61868400 0 28075
0.16250000 0.16249700 9029.35909403 0 87.31779292 0 2994.38845163 0 -339.33353872 0 804.83289705 0 28590
0.16350000 0.16349900 9037.61904835 0 131.77616660 0 3053.94648683 0 67.45514943 0 584.33751337 0 29163
0.16450000 0.16449100 8721.11664341 0 203.48054212 0 2737.37764794 0 21.13308204 0 834.47904675 0 28996
0.16550000 0.16550500 8789.75398496 0 82.20880080 0 2742.27161551 0 267.76313832 0 466.52687007 0 30777
0.16650000 0.16650700 8644.34114311 0 -4.13368639 0 2644.15974529 0 7.88350634 0 471.08866790 0 29211
0.16750000 0.16749900 8578.72654624 0 133.45694550 0 2583.73806876 0 288.12625090 0 229.04543290 0 30922
0.16850000 0.16850800 8538.39006692 0 148.62049434 0 2577.21646944 0 -89.48143591 0 489.05240768 0 30867
0.16950000 0.16949900 8392.30181327 0 83.05550148 0 2557.06483827 0 -39.64800216 0 332.07120087 0 30852
0.17050000 0.17049200 8330.73968728 0 183.71422786 0 2930.53435440 0 36.52117763 0 359.89263144 0 31257
0.17150000 0.17149500 8187.13163438 0 72.63135056 0 2799.26087135 0 -167.58295783 0 480.05503653 0 32608
0.17250000 0.17250900 8224.68896016 0 138.32544673 0 2809.69100133 0 202.32126971 0 472.17929189 0 32361
0.17350000 0.17350400 8115.88122417 0 79.00225554 0 2727.41255560 0 74.96971484 0 823.34471691 0 32508
0.17450000 0.17449800 8160.09301717 0 -33.42480199 0 2556.52229435 0 199.23541279 0 493.45476403 0 32791
0.17550000 0.17549800 8115.87015185 0 165.19687183 0 2668.00953295 0 178.58331253 0 790.95595235 0 33633
0.17650000 0.17650100 7882.65377419 0 206.40917204 0 2399.17348635 0 227.46873384 0 570.78388056 0 33984
0.17750000 0.17750300 7894.94405474 0 74.95177767 0 2317.73653731 0 409.08918507 0 612.63837561 0 34069
0.17850000 0.17849800 7746.77420402 0 -66.71020342 0 2108.23707942 0 264.85333136 0 523.11641499 0 34536
