### header ###
fiducial parameters:
Omega_m = 0.31
Omega_nu = 0
Omega_de = 0.69
Omega_k = 0
H_0 = 100
w_de = -1
zeff = 0
beta = 0
fgrowth = 0
b_1 = 2
gamma = 0.55
Lx = 3500 Ly = 3500 Lz = 3500
nx = 700 ny = 700 nz = 700
xoffset = -685.467585 yoffset = -31.7331281 zoffset = 572.489161
bins = 400 dk = 0.001
kx_ny = 0.628318531 ky_ny = 0.628318531 kz_ny = 0.628318531
############################
A(data) = 8.01707645 (not used)
A(ran) = 8.01124901 (used)
Ngal = 475937
weighted Ngal = 0
Nran = 23820508
weighted Nran = 0
SN(data) = 3491.02765
SN(ran) = 69.7808843
SN(data+ran) = 3560.80854
############################
13 columns: k_central k_mean P_0(k) sigma^{lin}_{P_0(k)} P^img_1(k) sigma^{lin}_{P_1(k)} P_2(k) sigma^{lin}_{P_2(k)} P^img_3(k) sigma^{lin}_{P_3(k)} P_4(k) sigma^{lin}_{P_4(k)} N_modes
### header ###
0.00050000 0 0 0 0 0 0 0 0 0 0 0 0
0.00150000 0.00179520 16629.96753812 0 -8157.57959944 0 3044.14747936 0 4921.21656122 0 -20425.22831621 0 3
0.00250000 0.00253879 34003.66313430 0 -8417.13703784 0 7530.44312171 0 -6597.07935647 0 33742.90988482 0 6
0.00350000 0.00331552 30190.57591326 0 1600.74814368 0 13433.38736297 0 -7517.67673119 0 51826.89511813 0 7
0.00450000 0.00420575 31200.15049022 0 5204.47984706 0 21030.66303729 0 -1863.04044631 0 24432.85628431 0 24
0.00550000 0.00557378 39198.24432297 0 -6306.05437094 0 25843.47046621 0 25973.90245257 0 14401.44072187 0 45
0.00650000 0.00659388 46889.63475824 0 -6039.35528303 0 39753.52141263 0 47289.34568420 0 11853.03444161 0 40
0.00750000 0.00754703 57811.26523611 0 -9096.54596103 0 39742.00619482 0 7597.66320568 0 16132.70943051 0 57
0.00850000 0.00846663 74240.82369501 0 -7543.38666942 0 32558.06040598 0 44559.35327691 0 34819.13985720 0 75
0.00950000 0.00948925 79720.73869425 0 2654.08054833 0 52831.93004192 0 1708.38221324 0 31809.34980174 0 112
0.01050000 0.01054430 85324.99590121 0 -141.95384757 0 76186.67405864 0 16657.64835016 0 38591.14875317 0 105
0.01150000 0.01145670 86428.57451589 0 10555.09223707 0 98373.84142323 0 4905.68208950 0 66720.50067818 0 144
0.01250000 0.01249090 85081.62620170 0 11427.63572208 0 98009.56193670 0 25532.89175505 0 50577.49398559 0 169
0.01350000 0.01339930 77156.94188250 0 579.60630898 0 110209.93520787 0 41369.19505016 0 66692.70914289 0 180
0.01450000 0.01448870 83477.68922847 0 -1121.57114250 0 90071.70155097 0 43299.21198930 0 37081.65871064 0 267
0.01550000 0.01550050 81885.15674980 0 -706.41210896 0 86421.70967450 0 49889.34899811 0 35079.22876719 0 238
0.01650000 0.01653350 84211.34147095 0 305.33375090 0 57955.75907499 0 31009.59578009 0 12536.30760617 0 315
0.01750000 0.01747870 76126.66205812 0 -731.22629612 0 42046.26771282 0 20312.62277280 0 15426.62727683 0 297
0.01850000 0.01844180 75461.87967601 0 1364.57545530 0 28103.88557794 0 7142.23634124 0 3739.15730823 0 388
0.01950000 0.01947590 77070.90991866 0 1367.81964647 0 21518.17749905 0 -1774.86045145 0 -9708.45799214 0 399
0.02050000 0.02045430 73999.33629071 0 3059.67087876 0 19723.79653894 0 -7152.02427638 0 -3301.39080188 0 462
0.02150000 0.02154770 75332.44419888 0 3256.03855942 0 17142.17328423 0 -5278.84158054 0 -17209.38229588 0 571
0.02250000 0.02255340 72174.28499086 0 4254.59617319 0 21659.23891724 0 -9267.94554923 0 -7087.06294667 0 510
0.02350000 0.02348930 70702.21940622 0 1831.90506892 0 27105.27260254 0 2933.98891974 0 -10649.51702312 0 555
0.02450000 0.02439640 68690.48870992 0 -2054.59166567 0 27159.19482441 0 6357.25280090 0 -603.34980232 0 592
0.02550000 0.02547300 69586.23978775 0 -2499.04585622 0 16845.21353259 0 16963.02306866 0 -1158.95131109 0 837
0.02650000 0.02652900 72693.46630160 0 -3184.33418389 0 9719.56353393 0 15339.93097350 0 711.36697432 0 723
0.02750000 0.02749970 71730.39548888 0 -947.85743843 0 6478.90443368 0 8505.58276849 0 -4409.45370810 0 826
0.02850000 0.02848090 71796.27582155 0 2803.39084851 0 6470.34552660 0 -3521.59719787 0 -1162.29515319 0 831
0.02950000 0.02946900 64477.35839317 0 5441.28365795 0 11120.71087810 0 -5893.02343823 0 2064.40174546 0 996
0.03050000 0.03053250 60451.79325886 0 5313.65296977 0 13122.58720532 0 -3133.81116575 0 9229.49136513 0 1041
0.03150000 0.03150510 59620.04021848 0 4754.43413248 0 18015.89043567 0 -121.13234075 0 9438.92438907 0 1036
0.03250000 0.03246190 56498.30895911 0 1793.50624645 0 21372.46570444 0 3917.38852084 0 3858.36195723 0 1059
0.03350000 0.03345080 53801.75497278 0 2227.81818746 0 18960.24901945 0 4180.16800576 0 13210.28001788 0 1302
0.03450000 0.03451200 54307.42804725 0 328.40293966 0 21807.05445357 0 2521.93235162 0 11730.90669886 0 1339
0.03550000 0.03553350 54666.17137137 0 -1442.05958438 0 19898.73927108 0 696.65628357 0 8364.83137539 0 1365
0.03650000 0.03647120 52424.80065833 0 1553.52467833 0 17102.86653112 0 2018.32980189 0 3741.88110014 0 1308
0.03750000 0.03744890 54666.06064812 0 2457.26997468 0 18208.54888751 0 -3329.47021762 0 3767.70176161 0 1579
0.03850000 0.03847530 50396.90436780 0 2417.09958024 0 17848.25543791 0 -493.69946241 0 4690.62432455 0 1662
0.03950000 0.03950240 49432.50487609 0 3173.33936535 0 20151.40972344 0 -2460.69132305 0 2569.82015646 0 1683
0.04050000 0.04050350 48147.34013439 0 59.47277830 0 19630.45684072 0 2928.80707173 0 3801.09589327 0 1822
0.04150000 0.04152450 46661.10197399 0 782.11691545 0 22531.84883620 0 3355.85556766 0 -109.11809326 0 1887
0.04250000 0.04250150 47706.32943687 0 2286.96654664 0 19331.94696361 0 -267.74874430 0 854.15788965 0 1920
0.04350000 0.04349210 42880.67811116 0 3415.84542353 0 17655.81843257 0 2170.77356999 0 783.05363413 0 2005
0.04450000 0.04448520 42203.71617175 0 1500.84255684 0 16000.50587218 0 2347.03390878 0 4933.34075690 0 2151
0.04550000 0.04548030 40176.04132771 0 -236.69308765 0 13626.93160080 0 3061.91856070 0 724.36256196 0 2274
0.04650000 0.04648670 41472.61056397 0 64.44724167 0 10553.05492930 0 3782.32830270 0 -3846.59207595 0 2311
0.04750000 0.04749250 40095.65624952 0 231.06834664 0 10278.07374243 0 -2505.89962528 0 -5045.62520288 0 2568
0.04850000 0.04851840 39446.59656865 0 2750.45406355 0 10998.98173905 0 -2286.26899018 0 -5516.21008000 0 2493
0.04950000 0.04949480 37818.74337382 0 1388.02663927 0 12859.39804438 0 -2361.00718270 0 -3399.69090162 0 2644
0.05050000 0.05050630 37032.38686520 0 430.28272201 0 13809.18206732 0 1607.41368322 0 -1592.26674287 0 2829
0.05150000 0.05149060 38059.12354563 0 -774.88668734 0 16466.87219354 0 949.54375349 0 -4121.69505839 0 2784
0.05250000 0.05249300 38616.94726999 0 -485.61334359 0 14975.87293346 0 5412.69491527 0 -2189.58544986 0 3055
0.05350000 0.05348950 38372.91323099 0 1191.06105307 0 16010.58168776 0 -482.38686814 0 -3267.73093443 0 3009
0.05450000 0.05448610 36420.86236546 0 1698.91537552 0 12243.66606121 0 1275.79755490 0 -38.72689546 0 3336
0.05550000 0.05550870 35734.82111970 0 774.94537066 0 12610.49218245 0 2342.50532793 0 -26.35434753 0 3349
0.05650000 0.05647670 32984.67708124 0 393.63221963 0 8836.03630270 0 3210.27664094 0 -1769.65645879 0 3324
0.05750000 0.05747970 33803.25405509 0 -83.56549276 0 9752.23796447 0 2435.61250733 0 -4166.82585435 0 3639
0.05850000 0.05849280 33031.73446172 0 349.46028700 0 6312.21058354 0 2481.68445090 0 -3744.33915625 0 3846
0.05950000 0.05951020 32666.79063570 0 255.11522168 0 6298.40339449 0 -527.88415805 0 -3096.86281783 0 3787
0.06050000 0.06049470 32703.55075410 0 139.65966187 0 5154.33328795 0 1390.39611678 0 1406.32919219 0 3930
0.06150000 0.06148310 33182.65024900 0 494.74026094 0 6786.03965183 0 -1252.18028607 0 -1260.71704850 0 4083
0.06250000 0.06249100 32439.47580717 0 574.27166288 0 6749.51205225 0 1175.71481087 0 1030.25878696 0 4303
0.06350000 0.06350600 32066.67063053 0 1199.65317713 0 7178.19925225 0 77.23300875 0 2023.96561522 0 4470
0.06450000 0.06451750 31178.33801033 0 340.67107556 0 7729.70067915 0 553.06816085 0 1708.30470697 0 4479
0.06550000 0.06550280 30703.44599886 0 477.75531467 0 7246.31619454 0 1182.00389136 0 1586.70843581 0 4636
0.06650000 0.06648880 30628.48635984 0 569.84605465 0 6733.41289196 0 414.27546202 0 1456.15465387 0 4653
0.06750000 0.06749660 29980.09101846 0 -60.56550603 0 4952.16370909 0 924.88679336 0 504.33110870 0 5220
0.06850000 0.06852730 29729.74575431 0 232.20658163 0 5238.35008868 0 367.18818626 0 787.91106302 0 5029
0.06950000 0.06949320 29629.54121470 0 624.79910996 0 6507.29387452 0 -489.88615374 0 -283.94201935 0 5040
0.07050000 0.07048030 28502.82144115 0 1274.04812758 0 5315.04808269 0 -148.24292807 0 -4.54232161 0 5475
0.07150000 0.07148790 27974.22865431 0 1779.13436883 0 6968.64443274 0 -269.82591244 0 552.00189597 0 5509
0.07250000 0.07249820 26775.20659970 0 843.61482195 0 6949.48931080 0 -638.06486232 0 474.99941302 0 5916
0.07350000 0.07351270 26033.69300659 0 270.90324964 0 8799.32047360 0 -111.90687971 0 127.37713195 0 5721
0.07450000 0.07449140 26170.43621810 0 153.81341468 0 8089.21906601 0 781.33742378 0 1047.57368851 0 6028
0.07550000 0.07549160 25954.30443764 0 -8.91500412 0 8811.34501835 0 1580.77366971 0 1231.12072426 0 6183
0.07650000 0.07648840 25941.68198735 0 -506.21561838 0 8240.22343188 0 974.14756647 0 2801.66356584 0 6330
0.07750000 0.07749960 26519.54661964 0 -196.97333683 0 7240.97933397 0 1760.16747642 0 2234.53908863 0 6583
0.07850000 0.07848650 26566.60400012 0 415.76911864 0 8448.59351265 0 475.30279472 0 2350.12308741 0 6549
0.07950000 0.07947320 25715.91728430 0 896.37666418 0 6868.96029239 0 -465.15279456 0 2627.92771711 0 6828
0.08050000 0.08048110 25250.87964192 0 1296.28135582 0 7264.80697698 0 -532.58657440 0 4339.24409643 0 7147
0.08150000 0.08149960 24229.90057039 0 647.21946048 0 6984.59965280 0 -138.60668378 0 3339.98892619 0 7386
0.08250000 0.08250610 24254.25968499 0 18.97984703 0 7148.95724241 0 647.50734093 0 2944.31939880 0 7227
0.08350000 0.08350160 23827.08939349 0 221.13647128 0 6799.71397298 0 657.13694182 0 1746.14991320 0 7798
0.08450000 0.08449610 23810.70235275 0 627.58822858 0 7168.30059387 0 -979.70476630 0 735.60097165 0 7371
0.08550000 0.08548940 22822.05446970 0 768.72826028 0 7350.27425226 0 -235.49727657 0 1798.56629889 0 8256
0.08650000 0.08650700 22628.51023187 0 874.07589476 0 7682.26683962 0 -594.63366822 0 695.79596393 0 8037
0.08750000 0.08749060 21339.13800674 0 732.02239627 0 7846.21475321 0 101.42238462 0 2601.45378847 0 8155
0.08850000 0.08849210 21362.38988886 0 204.11720080 0 8462.25676147 0 1156.84756938 0 1819.13867840 0 8718
0.08950000 0.08949900 21542.42589041 0 -240.25173284 0 7427.93553854 0 937.75615649 0 1627.29957860 0 8571
0.09050000 0.09049190 21229.41126778 0 402.97394008 0 7643.31440091 0 352.20068739 0 869.28932874 0 8932
0.09150000 0.09150830 20594.52416268 0 924.31213970 0 7511.71982044 0 167.39694277 0 816.35475825 0 9285
0.09250000 0.09250820 20240.76338473 0 713.04000260 0 8026.02930827 0 -1233.45698480 0 1292.14030634 0 9204
0.09350000 0.09350330 19070.52937464 0 868.36921855 0 7244.41175467 0 210.92557333 0 945.70497848 0 9349
0.09450000 0.09448040 18998.33781683 0 537.45839732 0 8082.77497296 0 412.07096215 0 742.36173319 0 9564
0.09550000 0.09549270 18397.55347217 0 275.07751610 0 7245.84008457 0 172.71165868 0 960.88292134 0 10155
0.09650000 0.09649430 17940.37718040 0 454.09818546 0 7295.61018463 0 1443.49898661 0 1801.05757198 0 9913
0.09750000 0.09749140 18031.83458341 0 -15.69203090 0 5917.53756538 0 1943.09335475 0 1474.82259352 0 10476
0.09850000 0.09850240 17922.99363044 0 -656.45710108 0 5227.74280150 0 1693.15776662 0 1321.60376268 0 10575
0.09950000 0.09950330 18234.45812759 0 112.83916946 0 5016.66000116 0 825.99653870 0 -161.05914404 0 10882
0.10050000 0.10051200 17729.33866936 0 361.26338525 0 4773.62247139 0 -739.28473412 0 710.88532819 0 10875
0.10150000 0.10150300 17256.77184610 0 781.25216688 0 4918.49276931 0 -719.39108812 0 452.43955120 0 11118
0.10250000 0.10250800 16967.11982885 0 754.71955492 0 5471.14571799 0 -890.74527978 0 899.55442140 0 11575
0.10350000 0.10349800 16292.15090790 0 447.89657633 0 6051.03658572 0 -492.28774099 0 1550.13654694 0 11364
0.10450000 0.10450100 16017.77869889 0 294.86818948 0 6350.00042814 0 665.88297120 0 1683.45841008 0 12093
0.10550000 0.10551000 16271.99927673 0 -76.16032193 0 6016.19197951 0 991.53665260 0 1903.96375884 0 12067
0.10650000 0.10649700 16100.48896529 0 -63.33591243 0 5720.11801386 0 748.41829486 0 1605.32101383 0 12054
0.10750000 0.10749900 16210.54787399 0 116.19297665 0 5627.55337838 0 1170.45545658 0 1957.15520727 0 12807
0.10850000 0.10850100 16078.34431565 0 94.80655981 0 5071.57873226 0 285.41574578 0 1615.43004639 0 12736
0.10950000 0.10950300 15680.51568492 0 365.99901858 0 4769.06067356 0 335.52798068 0 1787.68220359 0 12933
0.11050000 0.11050200 15644.75207575 0 180.55086466 0 5130.12918590 0 -151.11398189 0 1093.09644477 0 13428
0.11150000 0.11150900 15364.73298109 0 286.71452948 0 4857.62819979 0 -644.12142400 0 178.67078390 0 13453
0.11250000 0.11250000 15110.06951026 0 439.66873176 0 5511.40469103 0 -823.90719101 0 851.11078586 0 13668
0.11350000 0.11349100 14976.20510320 0 221.83845667 0 5658.99878086 0 -438.78848194 0 465.18601154 0 13791
0.11450000 0.11448600 14765.27731541 0 107.71700127 0 5883.46802191 0 31.47795512 0 682.99746367 0 14205
0.11550000 0.11549300 14766.05237815 0 19.71992123 0 5683.47969104 0 645.66822778 0 -633.62264561 0 14776
0.11650000 0.11649800 14753.98354409 0 126.13481710 0 6235.29114302 0 -234.96469774 0 -20.86203153 0 14553
0.11750000 0.11747300 14430.67165939 0 733.47397805 0 6170.94986350 0 0.75069144 0 -389.51995819 0 14568
0.11850000 0.11849100 13931.75270306 0 618.68497219 0 6130.14834654 0 -264.33625379 0 11.57522981 0 16015
0.11950000 0.11950300 13485.53801287 0 260.64695516 0 5612.81611404 0 210.58786742 0 541.64927227 0 15270
0.12050000 0.12050700 13572.01286970 0 -216.21814459 0 5755.51623631 0 602.31121825 0 -295.90566631 0 15999
0.12150000 0.12150000 13616.30216898 0 -93.08248812 0 5385.97739548 0 753.20043195 0 -685.72125558 0 15670
0.12250000 0.12250700 13615.08421325 0 131.10186202 0 5015.90708307 0 596.15500565 0 -887.80114861 0 16887
0.12350000 0.12352200 13339.93694151 0 21.24491252 0 4304.87560019 0 367.96103454 0 -354.34096778 0 16407
0.12450000 0.12449800 13431.28362126 0 178.27218021 0 4396.14477367 0 391.51297666 0 -158.94875893 0 16306
0.12550000 0.12549900 13276.49252029 0 148.73453929 0 4037.63396837 0 274.45525144 0 -589.12740109 0 17523
0.12650000 0.12650100 12959.04896774 0 84.05267506 0 4091.52297326 0 163.18724487 0 -248.85160753 0 17154
0.12750000 0.12750600 13107.52884356 0 -18.85882652 0 4233.22658629 0 281.72644715 0 -216.78504762 0 18007
0.12850000 0.12850300 13060.80363283 0 -86.86958521 0 4204.63784361 0 -33.37863040 0 -26.97982316 0 17496
0.12950000 0.12949900 13050.94926374 0 378.51406732 0 4399.59933901 0 116.76098691 0 184.77827827 0 18405
0.13050000 0.13049000 12816.32670083 0 316.46254457 0 4381.06426727 0 92.35326480 0 399.23813768 0 18100
0.13150000 0.13148800 12586.24379110 0 288.92788721 0 4598.34756951 0 -80.43235701 0 704.14449684 0 19059
0.13250000 0.13249300 12398.67860867 0 318.00049049 0 4623.79177194 0 200.06694438 0 1133.97214630 0 18957
0.13350000 0.13349100 12124.86001591 0 13.92732377 0 4911.89366372 0 198.86559714 0 992.26521158 0 19468
0.13450000 0.13450700 12153.20516744 0 216.52374076 0 4750.11592580 0 224.21568481 0 1106.50281566 0 19953
0.13550000 0.13551000 12118.88096050 0 134.24418780 0 4651.61652421 0 173.87425279 0 1321.19408666 0 19956
0.13650000 0.13649900 11853.25588811 0 152.72168346 0 4378.31833071 0 317.92741315 0 1185.67990320 0 19723
0.13750000 0.13749600 11803.31970317 0 59.48473641 0 3983.24670886 0 16.84266690 0 1257.38427873 0 20946
0.13850000 0.13851100 11779.18203507 0 1.29364614 0 3991.39593992 0 321.95441768 0 483.31694343 0 20955
0.13950000 0.13949800 11622.95153188 0 132.52797745 0 3485.21353852 0 155.20852761 0 191.50028667 0 20506
0.14050000 0.14048300 11508.90658625 0 209.91134838 0 3229.52034148 0 80.29373150 0 -453.41613025 0 21447
0.14150000 0.14148400 11242.28500461 0 161.92167815 0 3283.05503198 0 -2.15533875 0 -423.48985073 0 21771
0.14250000 0.14249400 11128.68295197 0 226.76674845 0 2832.59964138 0 223.31107587 0 -625.79229750 0 22470
0.14350000 0.14350900 10960.89294167 0 95.56490334 0 2772.04509695 0 130.96456519 0 -780.98753832 0 22519
0.14450000 0.14449900 10720.04773222 0 349.96739947 0 2739.54782360 0 52.50706803 0 -819.66316891 0 22218
0.14550000 0.14550500 10583.35988233 0 318.58400201 0 2806.31394226 0 5.84206860 0 -637.61643317 0 23559
0.14650000 0.14650700 10301.00452713 0 128.07025948 0 2452.27635618 0 257.83126296 0 -205.10817387 0 23044
0.14750000 0.14750500 10215.20508211 0 42.88842874 0 2695.95608079 0 180.31723860 0 -240.86513964 0 23649
0.14850000 0.14849900 10323.68064836 0 -49.56138674 0 2675.17332711 0 271.03722477 0 -239.59735845 0 23640
0.14950000 0.14949500 10229.43301950 0 76.62469523 0 2773.48449917 0 306.86062449 0 -516.75425715 0 24457
0.15050000 0.15050000 10097.91594531 0 221.77091549 0 2606.48062393 0 79.21672647 0 -47.63602017 0 24591
0.15150000 0.15149900 10055.42036265 0 93.32917951 0 2386.18564934 0 288.20154270 0 100.28138154 0 25020
0.15250000 0.15250500 10024.58393803 0 -48.40842555 0 2277.10110523 0 348.73837142 0 124.69873657 0 25297
0.15350000 0.15350100 9786.31858026 0 146.57432872 0 2409.30466356 0 231.19124945 0 233.74784925 0 25452
0.15450000 0.15450400 9965.49094048 0 167.51984558 0 2070.11506507 0 101.22297205 0 -366.83719357 0 26061
0.15550000 0.15549900 9696.58845993 0 29.09906613 0 2029.67893483 0 -201.84405251 0 8.45644379 0 26128
0.15650000 0.15649500 9750.02349950 0 127.03056818 0 2285.17283002 0 -367.31883970 0 -453.59328745 0 26331
0.15750000 0.15749700 9614.36537583 0 218.04175649 0 2233.35434987 0 -587.88951518 0 -788.17458436 0 27345
0.15850000 0.15849900 9480.86635549 0 327.20048518 0 2888.51488171 0 -395.94301382 0 -696.86887220 0 26980
0.15950000 0.15949700 9184.20555662 0 207.99472895 0 2533.27041223 0 29.14911304 0 -266.27501787 0 27777
0.16050000 0.16050000 9123.21919152 0 127.70044383 0 2638.55714893 0 545.39171806 0 -229.30009637 0 28224
0.16150000 0.16150500 9092.63743037 0 -29.65976866 0 2313.78371735 0 746.99107219 0 -208.68121309 0 28075
0.16250000 0.16249700 9004.36885692 0 -12.47363825 0 2113.20855326 0 717.10908197 0 177.77614006 0 28590
0.16350000 0.16349900 8974.92754522 0 182.72657648 0 2067.32483921 0 205.89430893 0 221.76316486 0 29163
0.16450000 0.16449100 8874.20260635 0 181.51969308 0 1800.36001551 0 5.77622148 0 318.39798695 0 28996
0.16550000 0.16550500 8708.59384404 0 111.24475469 0 2217.78666117 0 -108.52118423 0 589.75741637 0 30777
0.16650000 0.16650700 8509.32521428 0 99.37832273 0 1939.76058498 0 -104.01020837 0 678.93281323 0 29211
0.16750000 0.16749900 8684.53368221 0 -14.65676853 0 2159.50194333 0 114.19110032 0 369.37275595 0 30922
0.16850000 0.16850800 8637.56488033 0 43.29589029 0 2076.99097878 0 -150.28466476 0 481.87311227 0 30867
0.16950000 0.16949900 8547.44722863 0 243.83030823 0 2144.51001553 0 -34.37181793 0 372.19176985 0 30852
0.17050000 0.17049200 8363.41411782 0 307.88370730 0 2302.82211578 0 -235.58917686 0 528.72233304 0 31257
0.17150000 0.17149500 8201.29313782 0 107.66318978 0 2135.88467449 0 132.08951339 0 741.79372292 0 32608
0.17250000 0.17250900 8090.89098705 0 12.37586962 0 2330.29255366 0 182.19178319 0 400.10399348 0 32361
0.17350000 0.17350400 8139.48742068 0 -39.36731872 0 2057.55904872 0 303.68951066 0 663.02741863 0 32508
0.17450000 0.17449800 8147.27126503 0 -37.76570694 0 2144.88647457 0 425.65670470 0 446.37966783 0 32791
0.17550000 0.17549800 8118.19534006 0 69.56509165 0 1854.07186321 0 56.16193173 0 434.69061452 0 33633
0.17650000 0.17650100 8144.12672478 0 11.25645758 0 1848.56891777 0 43.11452561 0 335.85572149 0 33984
0.17750000 0.17750300 8011.92316645 0 210.82038624 0 1845.45759450 0 -70.08349790 0 414.96194616 0 34069
0.17850000 0.17849800 7910.17957369 0 222.24038206 0 1789.04409955 0 -109.30100806 0 245.56644876 0 34536
