### header ###
fiducial parameters:
Omega_m = 0.31
Omega_nu = 0
Omega_de = 0.69
Omega_k = 0
H_0 = 100
w_de = -1
zeff = 0
beta = 0
fgrowth = 0
b_1 = 2
gamma = 0.55
Lx = 3500 Ly = 3500 Lz = 3500
nx = 700 ny = 700 nz = 700
xoffset = -685.467585 yoffset = -31.7331281 zoffset = 572.489161
bins = 400 dk = 0.001
kx_ny = 0.628318531 ky_ny = 0.628318531 kz_ny = 0.628318531
############################
A(data) = 8.05600069 (not used)
A(ran) = 8.05308302 (used)
Ngal = 478581
weighted Ngal = 0
Nran = 23820508
weighted Nran = 0
SN(data) = 3488.78454
SN(ran) = 70.1452737
SN(data+ran) = 3558.92981
############################
13 columns: k_central k_mean P_0(k) sigma^{lin}_{P_0(k)} P^img_1(k) sigma^{lin}_{P_1(k)} P_2(k) sigma^{lin}_{P_2(k)} P^img_3(k) sigma^{lin}_{P_3(k)} P_4(k) sigma^{lin}_{P_4(k)} N_modes
### header ###
0.00050000 0 0 0 0 0 0 0 0 0 0 0 0
0.00150000 0.00179520 124256.95081229 0 -93623.70335279 0 81520.98798652 0 83848.27994015 0 -192207.80822433 0 3
0.00250000 0.00253879 215807.36134279 0 -83021.17727620 0 31101.71752258 0 -59998.49228078 0 128897.36214379 0 6
0.00350000 0.00331552 189056.62458094 0 5516.75262392 0 -1355.25255780 0 -97691.34332141 0 109117.65036451 0 7
0.00450000 0.00420575 155283.81941911 0 58170.34072998 0 -50598.30995625 0 -50659.09701950 0 76144.04560809 0 24
0.00550000 0.00557378 84186.42874011 0 30419.10869752 0 -22836.11632222 0 -25600.76510618 0 -4785.70237776 0 45
0.00650000 0.00659388 74260.20026344 0 18045.89643593 0 5721.04808914 0 -57560.03418597 0 -5493.81076689 0 40
0.00750000 0.00754703 60455.89001904 0 -6529.51603043 0 7077.15321596 0 -29960.71445002 0 3145.23780496 0 57
0.00850000 0.00846663 58345.83707835 0 -2553.42204340 0 5176.98726453 0 -9733.75825435 0 37975.97038624 0 75
0.00950000 0.00948925 78485.95303048 0 -2870.41163064 0 14857.50978115 0 1684.44384699 0 12664.96802056 0 112
0.01050000 0.01054430 87155.47264023 0 -15898.64048385 0 14273.00175397 0 35059.07713602 0 25532.89175505 0 105
0.01150000 0.01145670 92845.98325753 0 -15082.94231446 0 14606.05728452 0 19306.25917003 0 25565.55511326 0 144
0.01250000 0.01249090 98568.93578654 0 6292.22503724 0 433.70517761 0 22230.23870814 0 17639.32066859 0 169
0.01350000 0.01339930 96609.35574013 0 14636.17400802 0 10102.59953870 0 -9842.48848406 0 14132.82612177 0 180
0.01450000 0.01448870 87296.75550492 0 7416.99608162 0 1682.68334734 0 -1362.75959403 0 25455.60692781 0 267
0.01550000 0.01550050 81261.34196952 0 1841.17260479 0 17296.74293870 0 -14184.42315542 0 30697.46694346 0 238
0.01650000 0.01653350 76657.02641693 0 9436.89815363 0 15786.69927993 0 551.52689324 0 -2098.64844613 0 315
0.01750000 0.01747870 74416.43076663 0 4895.38482742 0 28282.15000752 0 2377.20599391 0 -3257.06828563 0 297
0.01850000 0.01844180 82186.43470812 0 -11687.72463207 0 35153.41334347 0 1464.53640376 0 -733.13737938 0 388
0.01950000 0.01947590 77120.73538034 0 1616.78087002 0 35703.37571721 0 4359.98256081 0 980.97033303 0 399
0.02050000 0.02045430 83798.23303197 0 6403.46868469 0 43235.43539835 0 10225.62413976 0 10811.31690570 0 462
0.02150000 0.02154770 73135.47350836 0 8152.50847467 0 40649.82610670 0 11606.45376790 0 14818.75664428 0 571
0.02250000 0.02255340 71292.26359580 0 6673.20158960 0 28782.28691957 0 18554.22686835 0 24815.84799979 0 510
0.02350000 0.02348930 63571.75294626 0 1741.80956187 0 32024.04217998 0 22942.41064048 0 34804.41366519 0 555
0.02450000 0.02439640 67723.87475325 0 -4066.08984315 0 26215.72202661 0 17544.20939839 0 28413.57850311 0 592
0.02550000 0.02547300 67055.43850395 0 -2574.14943546 0 18955.59864303 0 7965.36404059 0 9908.75634810 0 837
0.02650000 0.02652900 70011.74923053 0 2264.50079958 0 16875.21953285 0 -9642.19012810 0 15434.82079719 0 723
0.02750000 0.02749970 62474.15338699 0 5488.30782146 0 15108.85155453 0 -8529.39933917 0 12553.69115613 0 826
0.02850000 0.02848090 64415.57482069 0 1625.10725828 0 27177.68560686 0 -12221.29996508 0 16795.16662441 0 831
0.02950000 0.02946900 64095.25246368 0 927.22748282 0 28482.55908673 0 3189.27244076 0 240.17422657 0 996
0.03050000 0.03053250 57438.23861297 0 5161.45279281 0 25026.77578759 0 5760.67593967 0 -1621.23194460 0 1041
0.03150000 0.03150510 58361.00616335 0 2913.43868488 0 21502.12262807 0 5769.86596927 0 -368.86121454 0 1036
0.03250000 0.03246190 53754.91903880 0 -887.67381687 0 16032.61561415 0 11970.51180793 0 4419.41880044 0 1059
0.03350000 0.03345080 54817.41932840 0 -650.94972672 0 15325.31550474 0 6792.46160022 0 -4610.02887219 0 1302
0.03450000 0.03451200 53510.55283005 0 2032.69060718 0 11451.55194368 0 107.84344722 0 828.18996625 0 1339
0.03550000 0.03553350 50697.62870987 0 2146.23729820 0 13337.27958355 0 -3838.44284488 0 -3067.97512237 0 1365
0.03650000 0.03647120 48974.11062860 0 4168.07702706 0 14779.56061443 0 -6228.93562858 0 3492.04516293 0 1308
0.03750000 0.03744890 47704.00424866 0 1652.58876848 0 20880.85448249 0 -3601.14077937 0 -2707.29414141 0 1579
0.03850000 0.03847530 46760.19928111 0 2281.28644401 0 24144.64366928 0 -651.17228044 0 -1285.12045240 0 1662
0.03950000 0.03950240 45612.88498341 0 1179.39082271 0 21677.17608345 0 2326.52796322 0 -1116.51109006 0 1683
0.04050000 0.04050350 44001.86172229 0 271.67277622 0 20335.09959218 0 3771.04560371 0 81.19900478 0 1822
0.04150000 0.04152450 46851.54596087 0 -1320.38580695 0 17788.24343740 0 3331.27500656 0 -8472.87512097 0 1887
0.04250000 0.04250150 43957.35097652 0 -449.45002350 0 16257.49453122 0 2813.80990616 0 -4878.77634019 0 1920
0.04350000 0.04349210 45079.75254339 0 2007.83323796 0 13758.36009640 0 1850.52871927 0 -5147.00340892 0 2005
0.04450000 0.04448520 44074.38544986 0 -502.06903274 0 10878.73629152 0 1000.26053733 0 -8290.09318287 0 2151
0.04550000 0.04548030 42642.73385080 0 1837.89519665 0 11864.66038267 0 -443.30488323 0 -5995.84104649 0 2274
0.04650000 0.04648670 42797.85712151 0 2660.14818233 0 12319.29003972 0 1320.96156784 0 -5077.86781275 0 2311
0.04750000 0.04749250 39800.91096285 0 2026.77798573 0 13361.74942140 0 -454.89539285 0 -2611.05349408 0 2568
0.04850000 0.04851840 37966.11601715 0 1280.66937782 0 12508.62679412 0 310.31408260 0 -3697.23748647 0 2493
0.04950000 0.04949480 37940.53894682 0 1009.27894589 0 15141.29346625 0 1911.54830134 0 276.26004039 0 2644
0.05050000 0.05050630 37235.01040938 0 863.08771961 0 16602.72961906 0 -1477.61281937 0 787.33973106 0 2829
0.05150000 0.05149060 36073.30208941 0 1135.37833155 0 17017.94179976 0 1392.72130499 0 3090.85054545 0 2784
0.05250000 0.05249300 35876.43615413 0 326.58707839 0 16037.81960682 0 784.12986410 0 4721.26144732 0 3055
0.05350000 0.05348950 35859.82766690 0 -589.71534154 0 15463.05522548 0 3719.57036563 0 3389.03932514 0 3009
0.05450000 0.05448610 36151.25125613 0 -135.72677209 0 15384.33099602 0 2545.46104186 0 2509.15488878 0 3336
0.05550000 0.05550870 35710.68345159 0 914.26621939 0 12832.82446481 0 4934.45906170 0 2990.46884864 0 3349
0.05650000 0.05647670 34588.83550097 0 946.25305856 0 10754.11727568 0 2455.60912595 0 3988.89359452 0 3324
0.05750000 0.05747970 33664.96071810 0 -120.85110370 0 7613.58520877 0 3609.93220527 0 4613.41700359 0 3639
0.05850000 0.05849280 33656.87792098 0 124.69320041 0 8745.86328938 0 1826.70107626 0 4031.22309230 0 3846
0.05950000 0.05951020 33580.36815649 0 449.78551495 0 7629.05324654 0 765.90592468 0 2105.90081888 0 3787
0.06050000 0.06049470 33515.48433305 0 412.66886769 0 8346.81670291 0 -1063.39714791 0 2817.97310029 0 3930
0.06150000 0.06148310 32595.92775686 0 966.26185674 0 7730.28751236 0 -2400.73468415 0 4910.78643124 0 4083
0.06250000 0.06249100 33111.56592367 0 -205.68947092 0 8866.48519595 0 -1209.25288274 0 1706.02380806 0 4303
0.06350000 0.06350600 33367.33662698 0 18.50119043 0 10716.39386503 0 -983.15268825 0 246.18760618 0 4470
0.06450000 0.06451750 32711.41210472 0 1228.33049841 0 11755.70870645 0 -1545.41973656 0 -844.31127119 0 4479
0.06550000 0.06550280 32083.27911776 0 1106.88481087 0 12179.44657726 0 -417.75770818 0 -1619.64860215 0 4636
0.06650000 0.06648880 31279.09616618 0 588.35123112 0 12233.14735263 0 45.51600214 0 1389.32210127 0 4653
0.06750000 0.06749660 30953.56981651 0 441.28086225 0 11265.09399374 0 2744.24248933 0 -1467.48164216 0 5220
0.06850000 0.06852730 31147.88911708 0 -27.70694273 0 10031.83631079 0 2313.83907898 0 -1513.65323666 0 5029
0.06950000 0.06949320 30426.74860164 0 -59.86252413 0 10205.30642372 0 1351.10043600 0 -1156.91400333 0 5040
0.07050000 0.07048030 29576.72622531 0 647.69778492 0 9587.65892836 0 -1061.36426907 0 -2268.90758486 0 5475
0.07150000 0.07148790 29512.39601812 0 704.95831272 0 8495.72839940 0 699.42436477 0 -612.18883922 0 5509
0.07250000 0.07249820 28708.76668278 0 -56.30963654 0 8000.97263720 0 428.89868141 0 -1132.97563707 0 5916
0.07350000 0.07351270 28474.58701286 0 576.86369412 0 8775.96894056 0 1894.97303109 0 -453.08174604 0 5721
0.07450000 0.07449140 28343.49068701 0 756.85872807 0 8205.02451128 0 2094.46310734 0 1230.46745710 0 6028
0.07550000 0.07549160 27380.86276728 0 1233.46805712 0 8071.82444372 0 1440.84162865 0 1705.82450621 0 6183
0.07650000 0.07648840 26909.95679274 0 598.46469261 0 7960.72473649 0 -10.50918638 0 3812.06856716 0 6330
0.07750000 0.07749960 25854.09989804 0 669.05297779 0 8734.54737341 0 222.77628258 0 4725.41356913 0 6583
0.07850000 0.07848650 26283.26320801 0 1327.30600996 0 10040.86025552 0 -898.46269018 0 6076.37006490 0 6549
0.07950000 0.07947320 24456.32961293 0 444.56380656 0 7809.27747762 0 680.38218055 0 5591.46867179 0 6828
0.08050000 0.08048110 24893.02210378 0 21.03276678 0 9187.15079502 0 2097.12046530 0 3921.64029357 0 7147
0.08150000 0.08149960 24671.57560740 0 -271.83664662 0 7227.06142168 0 687.12301190 0 1931.21275022 0 7386
0.08250000 0.08250610 23998.82115142 0 178.39286855 0 6521.06784659 0 953.98043405 0 858.37533817 0 7227
0.08350000 0.08350160 24157.81973582 0 663.25993745 0 5477.76696823 0 -62.54213746 0 686.93146068 0 7798
0.08450000 0.08449610 23810.03801327 0 269.76944358 0 5845.87747915 0 -658.35046862 0 -1324.18361436 0 7371
0.08550000 0.08548940 23094.65510673 0 446.61107942 0 5958.11763584 0 -272.65932036 0 768.79690869 0 8256
0.08650000 0.08650700 23041.72939410 0 518.36306594 0 6080.56647601 0 126.27543563 0 -900.21101027 0 8037
0.08750000 0.08749060 22313.61331403 0 708.57010507 0 6081.65156384 0 20.51281041 0 568.37897161 0 8155
0.08850000 0.08849210 22123.72294339 0 786.58681298 0 6710.53746889 0 -466.12494468 0 -879.32306950 0 8718
0.08950000 0.08949900 21135.73939982 0 836.47206521 0 6520.37029013 0 48.86693052 0 808.71485413 0 8571
0.09050000 0.09049190 20390.79338602 0 897.23809105 0 6270.23540015 0 296.74384130 0 493.24438986 0 8932
0.09150000 0.09150830 19899.18216407 0 213.47552974 0 5989.55196600 0 922.30915614 0 -140.80896918 0 9285
0.09250000 0.09250820 20180.41921446 0 -330.54654174 0 5993.53800293 0 309.88447640 0 -858.12510363 0 9204
0.09350000 0.09350330 19576.42389561 0 46.11224683 0 5680.73375448 0 700.28025548 0 -236.32327200 0 9349
0.09450000 0.09448040 20113.98526555 0 139.81910334 0 6363.11006073 0 168.61268404 0 -606.99038272 0 9564
0.09550000 0.09549270 19409.45323734 0 436.87075528 0 5906.25486639 0 119.38402066 0 394.56118768 0 10155
0.09650000 0.09649430 19474.55850728 0 278.05154254 0 5836.00096541 0 303.62639841 0 3.13346792 0 9913
0.09750000 0.09749140 18689.41995439 0 557.79272185 0 5645.03657926 0 1007.39222174 0 665.82760957 0 10476
0.09850000 0.09850240 18587.66528930 0 128.09683306 0 4802.07834617 0 682.72729895 0 -301.10301558 0 10575
0.09950000 0.09950330 18163.04163251 0 423.74451420 0 4573.36840472 0 184.07740011 0 54.81919090 0 10882
0.10050000 0.10051200 17839.06540831 0 529.91371519 0 4271.81363828 0 -239.28511889 0 -990.42831289 0 10875
0.10150000 0.10150300 17288.54941833 0 371.61158003 0 4944.70096216 0 -854.18999939 0 -161.77773793 0 11118
0.10250000 0.10250800 17203.40324048 0 244.69173510 0 5142.74056387 0 -141.25518387 0 -1021.23816393 0 11575
0.10350000 0.10349800 17068.43160094 0 260.65470579 0 5717.33886033 0 91.61141904 0 121.48333345 0 11364
0.10450000 0.10450100 16903.56468439 0 440.19688165 0 6051.41304476 0 141.42237598 0 48.32117563 0 12093
0.10550000 0.10551000 16583.02088089 0 396.70036083 0 5648.45792763 0 476.65029665 0 1083.34726277 0 12067
0.10650000 0.10649700 16239.44664176 0 89.52805040 0 5256.42012278 0 686.34130577 0 473.49357685 0 12054
0.10750000 0.10749900 16342.86215557 0 87.16743075 0 5140.21607381 0 663.80801753 0 913.63066795 0 12807
0.10850000 0.10850100 16093.07050766 0 139.55226032 0 4958.17598147 0 164.08410318 0 348.84577297 0 12736
0.10950000 0.10950300 15692.58451897 0 246.98592080 0 3807.88322838 0 188.22952192 0 487.67058154 0 12933
0.11050000 0.11050200 15557.50215618 0 350.17777364 0 4114.36517936 0 620.13766121 0 208.78972187 0 13428
0.11150000 0.11150900 15163.43811589 0 175.29372483 0 3697.19319717 0 658.08805453 0 412.60686267 0 13453
0.11250000 0.11250000 15272.27906886 0 -3.58485339 0 3016.82098171 0 1023.72611531 0 -424.74766683 0 13668
0.11350000 0.11349100 14896.37364126 0 50.64104913 0 2541.19819680 0 626.06024776 0 441.71489739 0 13791
0.11450000 0.11448600 14943.76319149 0 86.58414068 0 2583.70485178 0 -5.00150199 0 366.87151777 0 14205
0.11550000 0.11549300 15019.83006299 0 -2.48838321 0 2485.50440296 0 -122.83083538 0 -125.95765990 0 14776
0.11650000 0.11649800 15027.02707412 0 5.02338090 0 2695.50211548 0 -374.92774131 0 88.55368582 0 14553
0.11750000 0.11747300 14842.00852640 0 537.47279135 0 2868.24145497 0 -800.29213664 0 160.52324352 0 14568
0.11850000 0.11849100 14610.15404470 0 445.43741299 0 3376.27293463 0 -850.49405736 0 -455.60955780 0 16015
0.11950000 0.11950300 14152.97775294 0 347.81272506 0 3895.78641512 0 -161.91171306 0 -288.47281466 0 15270
0.12050000 0.12050700 13984.67841569 0 506.52896518 0 3821.87864695 0 -100.50781059 0 -925.17024487 0 15999
0.12150000 0.12150000 13662.91665646 0 199.52329323 0 3871.23907099 0 539.78912170 0 -523.84275949 0 15670
0.12250000 0.12250700 13324.65713326 0 258.26751256 0 3739.04658498 0 517.71754941 0 -586.32831738 0 16887
0.12350000 0.12352200 13256.45161237 0 238.48680427 0 3831.84373929 0 139.33967168 0 -986.70026112 0 16407
0.12450000 0.12449800 12832.71374156 0 382.50010426 0 3835.76334227 0 -252.16223265 0 -327.91797183 0 16306
0.12550000 0.12549900 12802.48629481 0 63.16761309 0 4096.02940946 0 -241.21059617 0 -325.23846922 0 17523
0.12650000 0.12650100 12734.39149717 0 -44.70672592 0 4358.31063977 0 -139.02300319 0 -253.28385916 0 17154
0.12750000 0.12750600 13059.58567710 0 15.21780323 0 4627.29062658 0 -54.15706588 0 -363.48670808 0 18007
0.12850000 0.12850300 12884.97511471 0 128.37807011 0 4634.70908421 0 225.94407471 0 375.61090375 0 17496
0.12950000 0.12949900 12906.23397836 0 294.51719678 0 4824.46658696 0 294.20717169 0 515.84411205 0 18405
0.13050000 0.13049000 12769.82293659 0 -4.85304426 0 4595.13659531 0 81.98757575 0 632.84204671 0 18100
0.13150000 0.13148800 12671.61141545 0 -90.28772261 0 4601.10457839 0 481.22648850 0 323.11811902 0 19059
0.13250000 0.13249300 12693.75606509 0 56.14000853 0 4451.82749518 0 140.16455988 0 521.37805999 0 18957
0.13350000 0.13349100 12733.61643444 0 64.55995794 0 4554.31293370 0 375.11154190 0 278.86646565 0 19468
0.13450000 0.13450700 12713.24335677 0 -48.29903098 0 4418.46658050 0 -189.73978702 0 467.51673591 0 19953
0.13550000 0.13551000 12540.84725934 0 268.22485427 0 4441.19806336 0 14.52733306 0 1.36938084 0 19956
0.13650000 0.13649900 12402.11102937 0 427.47920937 0 4505.50612590 0 -117.59141127 0 -63.55226565 0 19723
0.13750000 0.13749600 11947.81354206 0 377.93387750 0 4103.38143314 0 357.23195179 0 -305.77996559 0 20946
0.13850000 0.13851100 11713.52314889 0 294.97337656 0 3907.17983735 0 343.30961056 0 40.19575007 0 20955
0.13950000 0.13949800 11414.23820905 0 180.20540812 0 3703.27190349 0 412.34444857 0 -15.51664528 0 20506
0.14050000 0.14048300 11302.18628188 0 246.19867851 0 3703.30512047 0 314.05985009 0 -57.66178885 0 21447
0.14150000 0.14148400 11020.99352079 0 304.53100735 0 3755.71043384 0 -74.55893159 0 127.20993984 0 21771
0.14250000 0.14249400 10870.36561395 0 105.96225924 0 3797.55274932 0 -70.93086291 0 484.24923318 0 22470
0.14350000 0.14350900 10899.46368358 0 -16.89924648 0 3956.36310420 0 219.83104418 0 424.20844461 0 22519
0.14450000 0.14449900 11065.63713446 0 -297.55987164 0 3670.34280948 0 106.19920699 0 373.67656861 0 22218
0.14550000 0.14550500 11203.53186775 0 -5.62186220 0 3901.86512144 0 366.97559763 0 192.35728461 0 23559
0.14650000 0.14650700 11003.88677894 0 318.37252060 0 3619.84193599 0 167.90626971 0 351.22300111 0 23044
0.14750000 0.14750500 10794.37624872 0 330.04275096 0 3216.74287864 0 10.67628990 0 -149.89824063 0 23649
0.14850000 0.14849900 10393.27020984 0 364.08572085 0 3178.51014104 0 110.53103263 0 127.66722686 0 23640
0.14950000 0.14949500 10163.24266174 0 226.63055885 0 3010.55404587 0 217.07735700 0 -10.75341972 0 24457
0.15050000 0.15050000 10138.71746226 0 -15.71096458 0 2882.13722262 0 466.86236151 0 257.05177129 0 24591
0.15150000 0.15149900 9995.79589350 0 131.51707420 0 2462.48503967 0 327.53265493 0 91.15291407 0 25020
0.15250000 0.15250500 10026.85376462 0 70.02448240 0 2351.90573170 0 167.68039429 0 -13.92422352 0 25297
0.15350000 0.15350100 9821.34034366 0 172.22669086 0 2477.80913722 0 18.78342399 0 192.73595812 0 25452
0.15450000 0.15450400 9669.56091505 0 370.18214289 0 2740.64398376 0 -219.67603163 0 -213.49545992 0 26061
0.15550000 0.15549900 9360.23337659 0 385.42984140 0 2571.85746423 0 -318.93610194 0 12.75841844 0 26128
0.15650000 0.15649500 9172.42460301 0 195.01021364 0 2853.79207108 0 -133.25985812 0 182.29032688 0 26331
0.15750000 0.15749700 9077.35762212 0 -86.42613860 0 2487.60814468 0 135.47985925 0 256.99973137 0 27345
0.15850000 0.15849900 9293.47833026 0 -91.05647412 0 2729.37235710 0 441.98838381 0 -302.27225308 0 26980
0.15950000 0.15949700 9222.65974072 0 11.36341624 0 2553.08987366 0 133.45915997 0 -451.96565570 0 27777
0.16050000 0.16050000 9239.58932536 0 163.46183853 0 2789.09647717 0 -137.78622451 0 -526.05168830 0 28224
0.16150000 0.16150500 8945.41979958 0 239.08360258 0 2503.64087102 0 -33.36822241 0 176.82724182 0 28075
0.16250000 0.16249700 8889.84780132 0 84.23415046 0 2418.48362084 0 52.21951976 0 -120.45028554 0 28590
0.16350000 0.16349900 8813.74771284 0 90.82760917 0 2646.09740213 0 313.67564041 0 -183.39866660 0 29163
0.16450000 0.16449100 8858.67920695 0 45.70323515 0 2352.85795164 0 326.23608569 0 -258.85656024 0 28996
0.16550000 0.16550500 8624.57704331 0 110.54210495 0 2205.45209133 0 28.48156258 0 -92.99080927 0 30777
0.16650000 0.16650700 8665.65536839 0 46.02023581 0 2091.50679662 0 -86.23912704 0 -251.50342933 0 29211
0.16750000 0.16749900 8598.21383792 0 71.50607019 0 2134.98781618 0 -35.25837898 0 -656.38734543 0 30922
0.16850000 0.16850800 8526.98557236 0 47.18504438 0 2272.25142696 0 -232.13793322 0 -402.00954059 0 30867
0.16950000 0.16949900 8545.08882344 0 168.81087865 0 2181.95661806 0 -209.19054003 0 -410.07240752 0 30852
0.17050000 0.17049200 8377.79706776 0 174.59616837 0 2320.94751151 0 244.93975517 0 -331.57073179 0 31257
0.17150000 0.17149500 8288.49876809 0 138.81041455 0 2374.31611714 0 -53.02624934 0 -341.25237261 0 32608
0.17250000 0.17250900 8174.52025641 0 181.71013706 0 2394.97707525 0 221.66240671 0 -278.41582203 0 32361
0.17350000 0.17350400 7939.25549866 0 288.56360773 0 2386.76141023 0 61.76696400 0 113.96411766 0 32508
0.17450000 0.17449800 7924.68431920 0 -15.82224144 0 2318.87698677 0 276.09063382 0 103.80481675 0 32791
0.17550000 0.17549800 7856.66702784 0 -121.23420614 0 2252.90807550 0 324.46562095 0 100.93808113 0 33633
0.17650000 0.17650100 7936.97459975 0 4.30455450 0 1998.34425559 0 315.47378597 0 -94.40784540 0 33984
0.17750000 0.17750300 8002.15737596 0 -5.41652594 0 1824.39803269 0 275.58795027 0 188.38232000 0 34069
0.17850000 0.17849800 7965.67406568 0 33.86703065 0 1639.40162962 0 68.34270699 0 42.24401943 0 34536
