### header ###
fiducial parameters:
Omega_m = 0.31
Omega_nu = 0
Omega_de = 0.69
Omega_k = 0
H_0 = 100
w_de = -1
zeff = 0
beta = 0
fgrowth = 0
b_1 = 2
gamma = 0.55
Lx = 3500 Ly = 3500 Lz = 3500
nx = 700 ny = 700 nz = 700
xoffset = -685.467585 yoffset = -31.7331281 zoffset = 572.489161
bins = 400 dk = 0.001
kx_ny = 0.628318531 ky_ny = 0.628318531 kz_ny = 0.628318531
############################
A(data) = 8.03695263 (not used)
A(ran) = 8.02753979 (used)
Ngal = 477170
weighted Ngal = 0
Nran = 23820508
weighted Nran = 0
SN(data) = 3499.06405
SN(ran) = 69.9227829
SN(data+ran) = 3568.98683
############################
13 columns: k_central k_mean P_0(k) sigma^{lin}_{P_0(k)} P^img_1(k) sigma^{lin}_{P_1(k)} P_2(k) sigma^{lin}_{P_2(k)} P^img_3(k) sigma^{lin}_{P_3(k)} P_4(k) sigma^{lin}_{P_4(k)} N_modes
### header ###
0.00050000 0 0 0 0 0 0 0 0 0 0 0 0
0.00150000 0.00179520 26525.19350529 0 -34503.35715337 0 -22297.44771979 0 23637.86336234 0 46788.76587915 0 3
0.00250000 0.00253879 36900.73692310 0 -21204.60926019 0 -3974.47742760 0 -8942.19775306 0 10030.65157203 0 6
0.00350000 0.00331552 46756.54541392 0 -12767.71919488 0 -4123.79880011 0 -44691.44611200 0 -8889.40490833 0 7
0.00450000 0.00420575 47391.10034928 0 -4006.86397770 0 -15838.73920658 0 -12032.62755017 0 13820.25439214 0 24
0.00550000 0.00557378 45249.93417585 0 -3730.22194210 0 -10674.25259677 0 -16016.45001992 0 11570.35798899 0 45
0.00650000 0.00659388 61065.42150031 0 -17752.59055148 0 -39946.95492721 0 1704.65083978 0 -26438.49720196 0 40
0.00750000 0.00754703 62520.10353498 0 -9210.74591921 0 -13511.22580645 0 -6745.29349649 0 7194.75237786 0 57
0.00850000 0.00846663 67956.39357444 0 -1388.49167691 0 -25920.75529344 0 -23969.81166040 0 -27669.07538231 0 75
0.00950000 0.00948925 69389.15240597 0 -1372.75790334 0 -11029.95103157 0 -13022.71483545 0 8287.46904188 0 112
0.01050000 0.01054430 62725.27371387 0 1030.38058253 0 -9350.62259865 0 1831.76112870 0 -1925.21155017 0 105
0.01150000 0.01145670 73520.12607256 0 -11939.50929844 0 -54.68909108 0 -7855.99161603 0 -11474.91454905 0 144
0.01250000 0.01249090 80708.27934483 0 -13095.34928626 0 -1408.13398114 0 -1291.64205172 0 -10453.03861921 0 169
0.01350000 0.01339930 93291.86577797 0 -3995.85808683 0 25131.96287336 0 -35736.26052193 0 -11406.81975142 0 180
0.01450000 0.01448870 100267.76258346 0 3677.15228925 0 31210.44775230 0 -33046.79282348 0 7535.62496972 0 267
0.01550000 0.01550050 96714.43210266 0 2715.24407063 0 45220.03889884 0 -13732.56157957 0 -6439.06620898 0 238
0.01650000 0.01653350 93478.87734416 0 11494.84473373 0 48852.31505560 0 -10093.09948401 0 11916.47886282 0 315
0.01750000 0.01747870 85873.18670298 0 13725.14312195 0 48760.08258986 0 9275.04290943 0 -26265.21531855 0 297
0.01850000 0.01844180 85691.60057596 0 3905.81794140 0 50551.14185252 0 15931.85745830 0 -7695.11073641 0 388
0.01950000 0.01947590 78055.90393452 0 -395.76696385 0 36842.49649456 0 23463.80641619 0 -17422.85671838 0 399
0.02050000 0.02045430 76046.16625669 0 1184.26264563 0 21601.10921195 0 18167.13839269 0 -20144.98777505 0 462
0.02150000 0.02154770 77578.46528834 0 2775.08998627 0 17220.45462070 0 6495.04788327 0 -21256.98135658 0 571
0.02250000 0.02255340 68424.53146777 0 4411.04812288 0 19100.31392841 0 3937.06404204 0 -6441.59069904 0 510
0.02350000 0.02348930 66915.26287174 0 10649.16270873 0 12647.36302410 0 -10546.04614769 0 -5761.66137658 0 555
0.02450000 0.02439640 61371.23911180 0 6467.67709632 0 27157.09108269 0 2842.26578095 0 5589.94069097 0 592
0.02550000 0.02547300 55979.12764837 0 2048.53510400 0 18798.70380035 0 8992.21144427 0 7089.03382049 0 837
0.02650000 0.02652900 59159.98512227 0 -3551.92429555 0 20837.89386220 0 15540.34005271 0 17673.86632202 0 723
0.02750000 0.02749970 56618.55440664 0 -3679.83179185 0 16338.32250239 0 8485.73009009 0 2398.94096753 0 826
0.02850000 0.02848090 62541.36239863 0 -279.19863539 0 18734.04142341 0 9879.47004896 0 13765.33566104 0 831
0.02950000 0.02946900 59154.00606687 0 2383.00789212 0 13322.22122180 0 -1505.34899304 0 10009.09375561 0 996
0.03050000 0.03053250 54619.22471414 0 6670.11241098 0 17861.98512069 0 -2692.09183943 0 22194.91799197 0 1041
0.03150000 0.03150510 52171.57658973 0 1301.81751823 0 19151.35734582 0 648.22150588 0 22479.91963280 0 1036
0.03250000 0.03246190 52214.64793328 0 2634.16143598 0 22944.62510544 0 1062.73613012 0 15023.15176044 0 1059
0.03350000 0.03345080 50267.35816742 0 1815.68411306 0 22295.78687107 0 -2326.93763924 0 13654.05879661 0 1302
0.03450000 0.03451200 47833.32900254 0 2038.65859026 0 22149.74290671 0 -107.14744089 0 13394.85567261 0 1339
0.03550000 0.03553350 49896.65673249 0 -1353.99031277 0 20801.24446705 0 -841.19441175 0 10970.27120079 0 1365
0.03650000 0.03647120 51706.20677760 0 -3880.62840244 0 22750.97014436 0 4520.03301607 0 3981.44191991 0 1308
0.03750000 0.03744890 52115.88279589 0 489.59938053 0 17346.34695388 0 1585.90015610 0 -5299.75720212 0 1579
0.03850000 0.03847530 49896.65673249 0 3069.09342718 0 16608.81939771 0 -808.40482903 0 -5308.80329150 0 1662
0.03950000 0.03950240 46228.50624332 0 4600.32951565 0 16138.35631617 0 147.47561596 0 -5647.98181767 0 1683
0.04050000 0.04050350 45045.20688995 0 2128.44407221 0 17216.35786051 0 -669.57669876 0 -1819.83623487 0 1822
0.04150000 0.04152450 43544.13181429 0 575.98455153 0 12954.28786807 0 4525.33665965 0 -2223.52212543 0 1887
0.04250000 0.04250150 43443.04148870 0 167.26075318 0 14497.88067104 0 5094.11091326 0 -3686.34231885 0 1920
0.04350000 0.04349210 45009.22183429 0 -2428.86946152 0 11594.60638034 0 5093.44657377 0 3703.59300091 0 2005
0.04450000 0.04448520 46002.74154027 0 -1928.62182621 0 11198.10642859 0 5173.56591616 0 2532.75001297 0 2151
0.04550000 0.04548030 46288.73969034 0 1442.13709065 0 7728.60451899 0 4102.90532317 0 6141.05458649 0 2274
0.04650000 0.04648670 44508.64202924 0 1620.41259256 0 8131.18317707 0 1285.74050259 0 1497.10011105 0 2311
0.04750000 0.04749250 43155.60393640 0 4030.60304211 0 7807.29553147 0 -950.86911078 0 7997.99418183 0 2568
0.04850000 0.04851840 39980.72551791 0 2038.47036074 0 9555.62669266 0 -3707.24686810 0 2351.18603059 0 2493
0.04950000 0.04949480 37567.29087719 0 1822.38286958 0 10466.36969830 0 -1033.47308285 0 4505.88258495 0 2644
0.05050000 0.05050630 37416.81798290 0 1246.97629340 0 14077.79666742 0 -2195.63093921 0 -1892.92465100 0 2829
0.05150000 0.05149060 37294.02590066 0 -251.29194792 0 14072.70339800 0 -8.83499550 0 -2384.90125966 0 2784
0.05250000 0.05249300 36610.86345935 0 335.27331721 0 14223.61918528 0 -1756.13715019 0 -5117.68389280 0 3055
0.05350000 0.05348950 36372.03341301 0 771.36458082 0 11108.86349055 0 -561.09227465 0 -3158.74604124 0 3009
0.05450000 0.05448610 36683.60863341 0 -514.92289462 0 14013.57718347 0 2653.68194464 0 -3606.90946060 0 3336
0.05550000 0.05550870 37064.82877691 0 -191.73501995 0 12586.02234460 0 2280.67746614 0 -4490.21524533 0 3349
0.05650000 0.05647670 35415.05237894 0 1075.64535362 0 10936.34559755 0 3806.55454940 0 -4838.70559667 0 3324
0.05750000 0.05747970 35360.24437108 0 1874.94319549 0 10398.85066155 0 2224.05359702 0 -1642.09220455 0 3639
0.05850000 0.05849280 32995.86012931 0 1102.16135710 0 9138.41042117 0 -230.71071055 0 1818.44112194 0 3846
0.05950000 0.05951020 32198.76346562 0 1063.60973654 0 9716.61829553 0 -463.85179640 0 -199.18780179 0 3787
0.06050000 0.06049470 32407.58751170 0 205.01405911 0 9567.07547653 0 -406.84814653 0 848.19544273 0 3930
0.06150000 0.06148310 31715.67793378 0 -154.11568915 0 9672.21827300 0 -37.22482387 0 -500.96733642 0 4083
0.06250000 0.06249100 31590.22849358 0 162.92593801 0 8534.54797021 0 1481.84244745 0 -26.85835976 0 4303
0.06350000 0.06350600 31516.92970328 0 483.18739723 0 7831.62142910 0 2737.44408189 0 -854.32618898 0 4470
0.06450000 0.06451750 31047.79530072 0 127.16343608 0 7082.12468980 0 2934.27680019 0 937.29665501 0 4479
0.06550000 0.06550280 30634.13324549 0 -636.15820799 0 4584.07534282 0 3544.27331910 0 421.97737116 0 4636
0.06650000 0.06648880 30954.45560250 0 -311.77673671 0 4485.69773680 0 1801.24580150 0 1752.62722322 0 4653
0.06750000 0.06749660 31278.09965695 0 971.71940564 0 5091.46462763 0 -1618.23134457 0 1202.52090925 0 5220
0.06850000 0.06852730 30097.56838478 0 1182.67930318 0 4415.28882328 0 -1531.03678662 0 862.11556949 0 5029
0.06950000 0.06949320 29535.86934673 0 1326.15448818 0 6406.59108029 0 -3493.15239541 0 2170.30853235 0 5040
0.07050000 0.07048030 28043.87357742 0 764.84298150 0 5882.15041526 0 -967.92934886 0 863.35788434 0 5475
0.07150000 0.07148790 28941.83912021 0 -191.20133390 0 8683.89148737 0 2065.64184584 0 1034.27693363 0 5509
0.07250000 0.07249820 28377.03983121 0 -5.15470975 0 7963.29351584 0 676.65966494 0 1565.42742751 0 5916
0.07350000 0.07351270 28771.10387151 0 463.40558170 0 8537.37141304 0 1258.36971564 0 1086.93691047 0 5721
0.07450000 0.07449140 27970.79623362 0 1133.24137286 0 8650.35341549 0 -1331.33633619 0 2306.87458667 0 6028
0.07550000 0.07549160 26781.18565510 0 1255.15874144 0 10224.55012426 0 -2181.21477230 0 1509.77792297 0 6183
0.07650000 0.07648840 26202.76740657 0 1294.50978385 0 11589.18094118 0 -1717.07398823 0 1131.71339204 0 6330
0.07750000 0.07749960 24935.09693809 0 1112.62470405 0 11832.77208719 0 -858.45948784 0 193.56970418 0 6583
0.07850000 0.07848650 24393.21736146 0 831.56148916 0 12235.58326409 0 250.73500998 0 -957.10504411 0 6549
0.07950000 0.07947320 24209.52749272 0 -257.74711329 0 11710.20145145 0 516.17849626 0 -1585.44619078 0 6828
0.08050000 0.08048110 23932.05503277 0 -39.58311833 0 9948.82709162 0 814.88767521 0 -2282.27188092 0 7147
0.08150000 0.08149960 24257.24921269 0 -103.50453530 0 8877.95612446 0 2225.00581696 0 -3080.61971732 0 7386
0.08250000 0.08250610 23825.20709827 0 -95.27049022 0 7581.44224982 0 812.94669667 0 -3002.78127384 0 7227
0.08350000 0.08350160 23354.52257023 0 646.26613332 0 7383.35835882 0 1163.12557755 0 -4129.19102229 0 7798
0.08450000 0.08449610 23227.96589755 0 385.13974649 0 7728.64880829 0 48.50741214 0 -3366.18604672 0 7371
0.08550000 0.08548940 22436.62684276 0 784.13097133 0 7179.95975190 0 432.83932181 0 -2099.71138931 0 8256
0.08650000 0.08650700 21971.25703063 0 736.20109166 0 6346.14725911 0 1035.35205637 0 -1662.23276340 0 8037
0.08750000 0.08749060 21581.84336676 0 -129.33471897 0 5459.87409132 0 711.91394717 0 -1089.64520112 0 8155
0.08850000 0.08849210 21568.88874672 0 171.59667557 0 5047.16425603 0 1126.89693074 0 -2287.25442709 0 8718
0.08950000 0.08949900 21150.35486858 0 377.43340842 0 4895.38482742 0 1025.91511393 0 -1344.97744037 0 8571
0.09050000 0.09049190 20806.22701321 0 706.08768985 0 4911.24039656 0 -114.48340969 0 -1340.59279974 0 8932
0.09150000 0.09150830 19885.89537429 0 844.68883746 0 4801.63545318 0 -486.34854596 0 -981.08991414 0 9285
0.09250000 0.09250820 19498.91762188 0 818.27691384 0 5441.67118932 0 -480.40049307 0 -493.09159178 0 9204
0.09350000 0.09350330 18939.87594178 0 594.39782770 0 5572.34676683 0 752.98452162 0 559.83002962 0 9349
0.09450000 0.09448040 18490.56100064 0 226.37589538 0 5674.62183118 0 869.06123885 0 779.88473476 0 9564
0.09550000 0.09549270 18545.03683875 0 255.62454862 0 5662.34262296 0 1236.03683648 0 1275.59825306 0 10155
0.09650000 0.09649430 18357.13948658 0 -295.60449908 0 4780.31015558 0 732.79413731 0 928.15312918 0 9913
0.09750000 0.09749140 18124.95283513 0 -168.42224005 0 4719.55630930 0 928.48751339 0 1139.40865779 0 10476
0.09850000 0.09850240 18724.29777756 0 136.93586996 0 4700.51191061 0 69.96912078 0 1010.80360502 0 10575
0.09950000 0.09950330 18139.01468765 0 352.73326621 0 5018.73052590 0 -55.35863457 0 737.47551624 0 10882
0.10050000 0.10051200 17818.47088415 0 854.02945068 0 5400.27176682 0 -537.71527526 0 715.47591406 0 10875
0.10150000 0.10150300 17191.88802266 0 673.43540396 0 5488.69535283 0 -423.38134195 0 1738.73145557 0 11118
0.10250000 0.10250800 16726.96110353 0 93.83618127 0 5872.94931333 0 -10.31234259 0 1192.25686415 0 11575
0.10350000 0.10349800 17106.29895182 0 -117.28802957 0 5765.20452052 0 8.37599228 0 1007.41436639 0 11364
0.10450000 0.10450100 17078.61813977 0 67.76628176 0 5955.33848231 0 330.87206809 0 259.93057575 0 12093
0.10550000 0.10551000 16879.20556979 0 148.46548180 0 5824.03178228 0 -365.88054470 0 373.81054374 0 12067
0.10650000 0.10649700 16585.34606910 0 695.61216334 0 5684.91909326 0 -59.39372190 0 670.20560681 0 12054
0.10750000 0.10749900 16078.12286916 0 439.16826268 0 5135.66534831 0 365.27821023 0 114.76907568 0 12807
0.10850000 0.10850100 15747.72469657 0 84.96204509 0 5400.57071959 0 909.60366341 0 540.82327684 0 12736
0.10950000 0.10950300 15505.79439928 0 276.87676888 0 5069.12067615 0 375.86003106 0 199.51997153 0 12933
0.11050000 0.11050200 15415.11205902 0 343.80454348 0 4813.94787838 0 130.02452481 0 -279.17538351 0 13428
0.11150000 0.11150900 14912.98212849 0 373.27575045 0 5514.98105195 0 -206.98936186 0 -242.56806320 0 13453
0.11250000 0.11250000 15022.37669770 0 157.33219951 0 5084.65514787 0 -760.54913393 0 207.04915241 0 13668
0.11350000 0.11349100 14905.12077787 0 -196.28131653 0 6185.57640459 0 160.89527364 0 511.77392544 0 13791
0.11450000 0.11448600 14990.26695572 0 181.65256097 0 6283.16787554 0 -283.67185462 0 599.84208982 0 14205
0.11550000 0.11549300 15003.77519200 0 293.50407906 0 5895.13825227 0 836.84741703 0 696.67067759 0 14776
0.11650000 0.11649800 14739.36807533 0 282.98315602 0 5841.57034480 0 726.28471755 0 719.21614538 0 14553
0.11750000 0.11747300 14506.40636115 0 79.66415911 0 5503.44368948 0 898.66309926 0 1469.54109458 0 14568
0.11850000 0.11849100 14473.30010994 0 -115.57403369 0 4861.78032159 0 840.84784798 0 1694.69681977 0 16015
0.11950000 0.11950300 14388.15393209 0 -4.75389159 0 4582.29269852 0 823.69017344 0 1730.58222450 0 15270
0.12050000 0.12050700 14340.65365861 0 302.88123095 0 4493.13833908 0 74.74494664 0 1390.55112932 0 15999
0.12150000 0.12150000 13918.35519003 0 717.56969068 0 4562.25179060 0 -444.24824530 0 1548.60856611 0 15670
0.12250000 0.12250700 13158.68298422 0 610.98859921 0 4562.75004522 0 -294.71982033 0 1899.10300824 0 16887
0.12350000 0.12352200 12972.88937377 0 253.12663214 0 4943.93697175 0 258.45242038 0 1928.14571624 0 16407
0.12450000 0.12449800 12976.21107121 0 -59.14260157 0 4424.19097244 0 447.18241138 0 1078.40789866 0 16306
0.12550000 0.12549900 12876.89231759 0 -46.45504601 0 4526.68748328 0 142.20076041 0 970.61549486 0 17523
0.12650000 0.12650100 12917.08485668 0 39.74543862 0 3980.73329112 0 326.89599625 0 740.12180188 0 17154
0.12750000 0.12750600 12784.88129835 0 88.70316220 0 3829.73999757 0 159.62859968 0 727.76730184 0 18007
0.12850000 0.12850300 12880.98907777 0 252.01939966 0 3642.35197234 0 -0.86452712 0 247.80859453 0 17496
0.12950000 0.12949900 12725.31219082 0 130.51059987 0 3833.19456292 0 -86.44307926 0 110.41156224 0 18405
0.13050000 0.13049000 12424.58784875 0 431.68115663 0 4203.96243179 0 -349.86553408 0 316.02186604 0 18100
0.13150000 0.13148800 12071.60213353 0 295.06527686 0 3623.25221203 0 13.93175270 0 62.21495026 0 19059
0.13250000 0.13249300 12062.30138068 0 202.71544448 0 4036.17242149 0 -81.30740284 0 180.18437070 0 18957
0.13350000 0.13349100 11971.17614742 0 -97.09133404 0 4302.87150940 0 -47.77077037 0 222.64341469 0 19468
0.13450000 0.13450700 12089.20712999 0 -78.82709136 0 4142.16778698 0 791.87938424 0 -20.79559758 0 19953
0.13550000 0.13551000 12062.19065743 0 -91.16044325 0 3636.93760551 0 454.57983159 0 450.66355030 0 19956
0.13650000 0.13649900 12275.22218694 0 29.43909723 0 3685.47867751 0 334.63112237 0 -210.44724890 0 19723
0.13750000 0.13749600 12001.84648717 0 21.11924164 0 3449.58279725 0 300.28366355 0 203.47057703 0 20946
0.13850000 0.13851100 11906.29232399 0 452.86472848 0 3575.24261162 0 -24.62761848 0 316.95637026 0 20955
0.13950000 0.13949800 11793.35461084 0 277.20672416 0 3465.11726897 0 -443.28716751 0 559.77798969 0 20506
0.14050000 0.14048300 11486.87265986 0 194.48538544 0 3713.21485118 0 126.78808427 0 356.10146742 0 21447
0.14150000 0.14148400 11413.68459281 0 221.88717490 0 3516.98003842 0 -43.07566175 0 889.79084538 0 21771
0.14250000 0.14249400 11200.98523304 0 235.52606461 0 3699.11978169 0 243.17704106 0 981.61142063 0 22470
0.14350000 0.14350900 11090.26198485 0 -98.47537464 0 3523.56807169 0 369.65842193 0 881.14003800 0 22519
0.14450000 0.14449900 11211.83611136 0 149.13646468 0 3560.10674359 0 440.09280180 0 736.62184000 0 22218
0.14550000 0.14550500 10837.79083434 0 197.66092820 0 3272.00485181 0 -50.26270779 0 351.16874672 0 23559
0.14650000 0.14650700 10827.13925786 0 332.25721593 0 3310.43689125 0 113.37064105 0 561.61378115 0 23044
0.14750000 0.14750500 10492.37858930 0 193.95612831 0 3247.57930326 0 -112.91778297 0 180.15558266 0 23649
0.14850000 0.14849900 10475.50436627 0 86.12198184 0 3080.68615127 0 -11.05113239 0 406.99097952 0 23640
0.14950000 0.14949500 10400.85475234 0 27.95363413 0 3052.42957833 0 49.80807813 0 185.19681215 0 24457
0.15050000 0.15050000 10413.34433474 0 -63.53266764 0 2782.24270810 0 227.65364167 0 142.48531916 0 24591
0.15150000 0.15149900 10422.67830456 0 85.94471392 0 3056.88065291 0 -5.26863290 0 -214.05682679 0 25020
0.15250000 0.15250500 10260.53517992 0 299.55731904 0 2900.21832905 0 -245.74914212 0 -190.37201677 0 25297
0.15350000 0.15350100 9934.56593726 0 407.60660078 0 3022.15784228 0 1.96669955 0 -339.95248167 0 25452
0.15450000 0.15450400 9830.15391422 0 231.90098547 0 3147.83980129 0 -37.30764486 0 -98.20310617 0 26061
0.15550000 0.15549900 9558.57193107 0 68.01806642 0 3020.76272935 0 187.22636929 0 57.41365805 0 26128
0.15650000 0.15649500 9622.92428291 0 117.72760087 0 3156.96339694 0 328.52252076 0 -136.01022361 0 26331
0.15750000 0.15749700 9424.46393286 0 100.19701043 0 2876.21352884 0 373.41083281 0 161.15879497 0 27345
0.15850000 0.15849900 9356.42449685 0 77.42555648 0 2873.77761738 0 512.79147209 0 426.28007659 0 26980
0.15950000 0.15949700 9210.19230297 0 97.00231255 0 2707.53773255 0 416.66486972 0 587.42669200 0 27777
0.16050000 0.16050000 9284.81977225 0 32.63357366 0 2763.58584079 0 115.20532527 0 314.79394522 0 28224
0.16150000 0.16150500 9105.78027993 0 157.77730697 0 2720.40377399 0 37.07988714 0 822.27734480 0 28075
0.16250000 0.16249700 9046.66513772 0 72.71073913 0 2711.98880713 0 -83.12625364 0 750.17547281 0 28590
0.16350000 0.16349900 8896.39154529 0 72.36185017 0 2395.19852174 0 24.86013730 0 232.24422754 0 29163
0.16450000 0.16449100 8954.77591405 0 152.15478043 0 2430.02098330 0 38.38841449 0 -9.56646650 0 28996
0.16550000 0.16550500 8753.07137283 0 132.51690513 0 2227.22028192 0 -61.96239053 0 -6.17760433 0 30777
0.16650000 0.16650700 8815.87359920 0 30.41390470 0 2238.97909088 0 -45.22291770 0 -60.41049349 0 29211
0.16750000 0.16749900 8645.39301397 0 93.65249140 0 2095.00565126 0 106.02603583 0 -365.66684883 0 30922
0.16850000 0.16850800 8627.71051124 0 210.07411155 0 2264.17970216 0 131.82267036 0 -341.94107121 0 30867
0.16950000 0.16949900 8388.44864423 0 133.22774838 0 2202.50685293 0 -28.35356650 0 -406.61562771 0 30852
0.17050000 0.17049200 8319.86666430 0 177.32549644 0 2409.55932703 0 97.68813235 0 -245.75910721 0 31257
0.17150000 0.17149500 8212.97444050 0 191.68962342 0 2412.01738314 0 -244.44150056 0 -72.05304303 0 32608
0.17250000 0.17250900 8049.98981917 0 156.92141626 0 2459.30728244 0 48.66530349 0 158.07515251 0 32361
0.17350000 0.17350400 8034.10103306 0 66.73589121 0 2463.94658654 0 138.06524709 0 467.45362366 0 32508
0.17450000 0.17449800 8107.34446173 0 -44.66442964 0 2389.09767077 0 383.00057334 0 226.34821457 0 32791
0.17550000 0.17549800 8067.11870567 0 -21.05635083 0 2249.75246293 0 410.55516088 0 61.33912937 0 33633
0.17650000 0.17650100 7976.76853515 0 140.09812593 0 2155.52697872 0 5.78081650 0 253.88730086 0 33984
0.17750000 0.17750300 7911.56361429 0 169.47300367 0 2072.70598908 0 42.38474868 0 101.91554596 0 34069
0.17850000 0.17849800 7710.81129300 0 86.04967956 0 1993.00739503 0 -46.57562363 0 271.92743969 0 34536
