### header ###
fiducial parameters:
Omega_m = 0.31
Omega_nu = 0
Omega_de = 0.69
Omega_k = 0
H_0 = 100
w_de = -1
zeff = 0
beta = 0
fgrowth = 0
b_1 = 2
gamma = 0.55
Lx = 3500 Ly = 3500 Lz = 3500
nx = 700 ny = 700 nz = 700
xoffset = -685.467585 yoffset = -31.7331281 zoffset = 572.489161
bins = 400 dk = 0.001
kx_ny = 0.628318531 ky_ny = 0.628318531 kz_ny = 0.628318531
############################
A(data) = 8.04628138 (not used)
A(ran) = 8.04584667 (used)
Ngal = 478599
weighted Ngal = 0
Nran = 23820508
weighted Nran = 0
SN(data) = 3487.48365
SN(ran) = 70.0822425
SN(data+ran) = 3557.56589
############################
13 columns: k_central k_mean P_0(k) sigma^{lin}_{P_0(k)} P^img_1(k) sigma^{lin}_{P_1(k)} P_2(k) sigma^{lin}_{P_2(k)} P^img_3(k) sigma^{lin}_{P_3(k)} P_4(k) sigma^{lin}_{P_4(k)} N_modes
### header ###
0.00050000 0 0 0 0 0 0 0 0 0 0 0 0
0.00150000 0.00179520 51833.98140601 0 -59738.40337079 0 14004.27643062 0 -25635.08931312 0 3692.11100008 0 3
0.00250000 0.00253879 77930.01160133 0 -43004.35597938 0 12427.46665320 0 -74061.67347944 0 -66840.63540247 0 6
0.00350000 0.00331552 85955.45407639 0 2146.82413141 0 8229.36148124 0 -4356.80480359 0 34489.29530085 0 7
0.00450000 0.00420575 82439.10516048 0 20348.71855171 0 13058.47844462 0 -6234.40535704 0 59926.63289271 0 24
0.00550000 0.00557378 65463.23819503 0 19996.28645273 0 27250.87367391 0 3921.52957032 0 -2585.69787025 0 45
0.00650000 0.00659388 56741.78938188 0 10026.43301628 0 24256.69559645 0 12212.10993548 0 12185.31490942 0 40
0.00750000 0.00754703 53444.78322063 0 4842.10480039 0 34700.00164215 0 16206.78328355 0 -26651.19656173 0 57
0.00850000 0.00846663 43920.03724188 0 5011.88782916 0 17674.86283125 0 7504.13527794 0 -5163.84441497 0 75
0.00950000 0.00948925 44702.73988331 0 -3112.29763862 0 22983.93185855 0 -8010.28446237 0 -29613.37562046 0 112
0.01050000 0.01054430 50662.86160994 0 -1978.05975653 0 17680.62044016 0 -6623.79687626 0 -4331.99172367 0 105
0.01150000 0.01145670 51494.61465032 0 -9151.83007885 0 9587.95788113 0 -11958.55369713 0 -9796.32796190 0 144
0.01250000 0.01249090 65494.35142777 0 -13937.06741897 0 19071.52588388 0 4972.85788417 0 -20067.26005482 0 169
0.01350000 0.01339930 70724.91767210 0 -6898.91093103 0 14869.57861520 0 -9827.18653117 0 -30626.93623436 0 180
0.01450000 0.01448870 80681.81648851 0 6407.62080650 0 28184.15993287 0 -10896.59595145 0 -27570.19952168 0 267
0.01550000 0.01550050 78503.33658044 0 1133.96107398 0 20858.93127935 0 -22811.64648437 0 3296.74042545 0 238
0.01650000 0.01653350 78744.15964525 0 4497.91051108 0 34701.10887463 0 8113.13528761 0 10380.92456767 0 315
0.01750000 0.01747870 77063.04856803 0 -4642.23826509 0 29934.80520995 0 12991.49087946 0 6941.18506719 0 297
0.01850000 0.01844180 83461.30218774 0 -1990.64898985 0 34705.09491157 0 27186.21129697 0 -5017.31326832 0 388
0.01950000 0.01947590 78715.48232397 0 4455.78031514 0 30072.87710044 0 15567.68869502 0 -2316.55179856 0 399
0.02050000 0.02045430 73603.50067845 0 8251.26253973 0 25202.71502895 0 14995.24950189 0 17589.38448365 0 462
0.02150000 0.02154770 69363.90750539 0 -66.58586121 0 7255.09654812 0 14854.52025345 0 7969.33900520 0 571
0.02250000 0.02255340 66922.23843638 0 -4741.42415082 0 6382.43126754 0 18410.50809220 0 14180.10494874 0 510
0.02350000 0.02348930 69237.57227921 0 314.25693747 0 -1321.05014644 0 344.28840407 0 1019.68693122 0 555
0.02450000 0.02439640 68918.35715469 0 3025.50168437 0 3406.76611718 0 -3047.88992515 0 4593.13250452 0 592
0.02550000 0.02547300 64222.14130611 0 7060.77724755 0 2066.22867906 0 -11036.57228181 0 3648.79606539 0 837
0.02650000 0.02652900 62087.83997406 0 4212.98637652 0 5665.77504365 0 -13449.33151071 0 3958.54435219 0 723
0.02750000 0.02749970 56187.06590846 0 98.46319508 0 14167.81466820 0 -8446.85515765 0 683.35620699 0 826
0.02850000 0.02848090 61638.85720267 0 2017.79833030 0 19556.82588068 0 -8064.79351746 0 7296.61776619 0 831
0.02950000 0.02946900 61944.45336766 0 -1286.80344577 0 29380.30318303 0 -1006.35806660 0 -5846.94042233 0 996
0.03050000 0.03053250 60397.53886725 0 -1048.00108025 0 28068.89703151 0 4856.23308686 0 -7997.29662536 0 1041
0.03150000 0.03150510 64245.28246498 0 1242.24841070 0 29831.38969614 0 260.53844638 0 -2671.96235291 0 1036
0.03250000 0.03246190 62688.84576522 0 2105.18111777 0 32149.82378992 0 2244.48203631 0 -9537.78917738 0 1059
0.03350000 0.03345080 61390.61568023 0 2504.55987398 0 28621.73820970 0 2487.64136165 0 1705.89094016 0 1302
0.03450000 0.03451200 60425.33040254 0 307.67111867 0 23516.51068232 0 3376.36151322 0 -9045.39182037 0 1339
0.03550000 0.03553350 58074.12222730 0 478.21813785 0 26012.10197320 0 4969.62476533 0 -2159.47979868 0 1365
0.03650000 0.03647120 58244.74675276 0 -80.68879205 0 23673.84841800 0 6329.22874678 0 -9373.70839589 0 1308
0.03750000 0.03744890 56935.00144996 0 2628.93529867 0 22579.01693993 0 4379.91274549 0 -7688.46734152 0 1579
0.03850000 0.03847530 54750.32103999 0 3172.92968933 0 17880.58662638 0 1716.76396313 0 -386.81609647 0 1662
0.03950000 0.03950240 51201.75165887 0 2670.45651674 0 18073.79869447 0 5321.69147759 0 2517.99060398 0 1683
0.04050000 0.04050350 49652.51197024 0 3232.81989427 0 15338.27012477 0 2879.55737094 0 4829.50449475 0 1822
0.04150000 0.04152450 46285.52871614 0 4047.53262676 0 16621.88474100 0 900.29515993 0 4519.44618285 0 1887
0.04250000 0.04250150 43785.95138833 0 2538.23081375 0 14629.19844339 0 -481.18773536 0 7532.24791065 0 1920
0.04350000 0.04349210 40847.90999770 0 1254.15115988 0 15158.89846271 0 1766.60049714 0 8197.60605366 0 2005
0.04450000 0.04448520 41681.54533330 0 -146.88878274 0 16572.28072581 0 1953.11380871 0 6855.10881405 0 2151
0.04550000 0.04548030 39408.50777128 0 858.22475455 0 17645.41044724 0 1510.68585361 0 2083.70080762 0 2274
0.04650000 0.04648670 39881.07459454 0 1458.87844578 0 16379.84372046 0 -788.65955218 0 1814.95333962 0 2311
0.04750000 0.04749250 37726.28946158 0 2040.15335411 0 15920.34224049 0 708.94988581 0 3131.90672588 0 2568
0.04850000 0.04851840 37649.77969708 0 856.49636465 0 17250.90351395 0 -166.75917686 0 1514.95977099 0 2493
0.04950000 0.04949480 35820.41019055 0 680.67670439 0 16858.72176887 0 263.75274227 0 3939.86534022 0 2644
0.05050000 0.05050630 36770.74782973 0 443.87400072 0 16919.73027862 0 1918.43528738 0 2679.59118471 0 2829
0.05150000 0.05149060 36102.75447342 0 182.39772844 0 15146.82962866 0 -247.22508302 0 5431.58430141 0 2784
0.05250000 0.05249300 36571.00309000 0 -365.55834005 0 15551.96599377 0 3186.33827469 0 1922.54311989 0 3055
0.05350000 0.05348950 35335.55308674 0 822.46889602 0 15027.24852062 0 1165.98223735 0 4288.61035503 0 3009
0.05450000 0.05448610 35038.59333510 0 2265.87376786 0 14880.98310976 0 -573.60510893 0 2111.82451266 0 3336
0.05550000 0.05550870 32714.73380217 0 2036.75415039 0 16445.61332989 0 -180.91182244 0 6337.45548412 0 3349
0.05650000 0.05647670 32018.72746407 0 -481.57748120 0 16167.03363745 0 1263.67335923 0 2847.62478616 0 3324
0.05750000 0.05747970 32776.84954440 0 -1827.27683715 0 16226.60274497 0 1967.06493798 0 1990.85936402 0 3639
0.05850000 0.05849280 35343.74660710 0 -1281.38907894 0 15099.44007844 0 1633.99833511 0 520.76465320 0 3846
0.05950000 0.05951020 35140.45872343 0 -744.66699121 0 14830.16113885 0 -456.03473507 0 -2422.85718914 0 3787
0.06050000 0.06049470 35355.48327141 0 806.63547153 0 12359.70402531 0 533.86432069 0 -61.82287924 0 3930
0.06150000 0.06148310 34898.30697965 0 1871.84294454 0 13321.66760555 0 -846.22456891 0 -1156.10572361 0 4083
0.06250000 0.06249100 33314.30019109 0 1430.42257100 0 12060.64053196 0 563.57690434 0 -3236.51805076 0 4303
0.06350000 0.06350600 32309.37599055 0 55.41122811 0 12692.09521637 0 1558.95011749 0 -2194.06974141 0 4470
0.06450000 0.06451750 32436.37555622 0 -689.08059893 0 11682.85280915 0 1653.50777144 0 -3863.04555063 0 4479
0.06550000 0.06550280 33372.42989639 0 -386.11743277 0 11767.55609401 0 1174.26433632 0 -3091.30451077 0 4636
0.06650000 0.06648880 33014.68308150 0 359.99560406 0 11930.31926884 0 516.24493020 0 -6105.39062825 0 4653
0.06750000 0.06749660 32780.28196509 0 1672.85112290 0 10726.10429389 0 -402.64841373 0 -2359.51241885 0 5220
0.06850000 0.06852730 31255.95500731 0 642.99758303 0 12695.30619056 0 -851.15064623 0 -3376.19542835 0 5029
0.06950000 0.06949320 31418.71818214 0 1108.32864202 0 13070.10438567 0 326.56271927 0 -1559.19370864 0 5040
0.07050000 0.07048030 29529.33667509 0 561.41337207 0 13059.25350735 0 607.06235283 0 -2050.61670106 0 5475
0.07150000 0.07148790 29176.12951337 0 835.35043871 0 12331.91249002 0 2839.03266210 0 175.45980970 0 5509
0.07250000 0.07249820 28429.85482060 0 404.95920792 0 10454.40051517 0 2350.07879811 0 539.76808428 0 5916
0.07350000 0.07351270 28067.12545954 0 467.33736425 0 10273.85518667 0 1951.26473047 0 246.73790072 0 5721
0.07450000 0.07449140 27579.27882803 0 661.13737278 0 9940.47855871 0 -497.58141949 0 1403.37288146 0 6028
0.07550000 0.07549160 27272.90760030 0 375.20233497 0 10091.07324857 0 1201.83442512 0 1347.85624482 0 6183
0.07650000 0.07648840 27026.54837308 0 299.54292502 0 10108.47894318 0 -71.73272068 0 2687.40824603 0 6330
0.07750000 0.07749960 27543.40449562 0 37.36422444 0 10733.14629248 0 -426.93002205 0 1842.35734355 0 6583
0.07850000 0.07848650 27271.24675157 0 719.06113284 0 11652.73608564 0 -1224.00121940 0 2237.86078607 0 6549
0.07950000 0.07947320 26335.41385790 0 1004.50677389 0 11522.19337603 0 -635.93233256 0 1710.05413429 0 6828
0.08050000 0.08048110 25467.89720836 0 1057.09699509 0 11544.33802567 0 416.17436573 0 1704.56226118 0 7147
0.08150000 0.08149960 24686.63396916 0 785.93686751 0 11404.27311671 0 658.26742619 0 447.36178304 0 7386
0.08250000 0.08250610 23657.46137726 0 702.11826140 0 10369.59757938 0 1557.42213667 0 -700.10752721 0 7227
0.08350000 0.08350160 23233.28061346 0 646.79981937 0 9612.68238245 0 846.80254427 0 67.51748662 0 7798
0.08450000 0.08449610 22718.08533965 0 -183.69983383 0 8463.56329580 0 666.58274213 0 -930.47610292 0 7371
0.08550000 0.08548940 22316.27067198 0 351.51198879 0 8692.38396050 0 1658.95535525 0 751.48422160 0 8256
0.08650000 0.08650700 22510.92214229 0 692.13545334 0 8195.23657615 0 937.39519870 0 -590.45275837 0 8037
0.08750000 0.08749060 21713.71475535 0 -133.93637717 0 7836.00606973 0 1717.22900077 0 2087.37681946 0 8155
0.08850000 0.08849210 21820.89485960 0 186.06709688 0 8031.35509650 0 808.40815073 0 1646.12253079 0 8718
0.08950000 0.08949900 22018.75730410 0 245.10916174 0 7111.52171220 0 584.09392223 0 2078.71826145 0 8571
0.09050000 0.09049190 21601.44138169 0 328.11063028 0 7684.45915994 0 544.15272491 0 1941.47679533 0 8932
0.09150000 0.09150830 20783.30730084 0 542.53616549 0 7416.14351261 0 53.72657389 0 2437.00762026 0 9285
0.09250000 0.09250820 20809.32726416 0 440.23120586 0 7128.58416474 0 455.81550304 0 2067.19197132 0 9204
0.09350000 0.09350330 20189.05562782 0 225.01842836 0 6376.18647634 0 1056.03848083 0 1580.00967930 0 9349
0.09450000 0.09448040 20286.60280948 0 136.54501690 0 5689.24837227 0 303.94195967 0 1580.99511620 0 9564
0.09550000 0.09549270 19768.63945446 0 868.02708372 0 6224.05273333 0 40.89042773 0 1069.47917593 0 10155
0.09650000 0.09649430 18897.57966098 0 841.87868142 0 5918.23512184 0 -281.16286582 0 1932.29783805 0 9913
0.09750000 0.09749140 18185.62917514 0 698.99365134 0 6132.30744988 0 110.64098081 0 1113.74300886 0 10476
0.09850000 0.09850240 17990.64553508 0 137.78401004 0 6279.17076628 0 404.76876393 0 1057.35498025 0 10575
0.09950000 0.09950330 17754.14067695 0 97.25597951 0 6131.11163880 0 477.80624736 0 -298.65713903 0 10882
0.10050000 0.10051200 17690.69625574 0 434.80355223 0 5897.45236816 0 -657.27534588 0 284.89645375 0 10875
0.10150000 0.10150300 17387.20383246 0 -28.39165530 0 5909.74264870 0 -550.13731647 0 689.51684852 0 11118
0.10250000 0.10250800 17373.36342644 0 57.26307443 0 5898.63710691 0 495.44446080 0 -407.64092499 0 11575
0.10350000 0.10349800 17208.16434015 0 285.04925183 0 5308.64827895 0 710.39925313 0 -70.79755212 0 11364
0.10450000 0.10450100 16970.22007979 0 578.61644314 0 5626.81153261 0 138.72958658 0 -374.81923253 0 12093
0.10550000 0.10551000 16454.24974325 0 373.01665805 0 5155.20800161 0 -342.55558524 0 -140.90529841 0 12067
0.10650000 0.10649700 16557.00091756 0 195.51178995 0 5640.30869657 0 -513.77690900 0 -265.05595490 0 12054
0.10750000 0.10749900 16245.42569717 0 149.88384661 0 6309.65287650 0 -666.08338028 0 357.13230086 0 12807
0.10850000 0.10850100 16585.45679235 0 -23.73308536 0 6512.84110925 0 -57.55704466 0 -621.35783141 0 12736
0.10950000 0.10950300 16121.85855219 0 337.86202675 0 6298.37017751 0 160.32394168 0 571.09833459 0 12933
0.11050000 0.11050200 15849.70080815 0 402.74917188 0 6431.94670413 0 311.40913552 0 -319.81081560 0 13428
0.11150000 0.11150900 15606.77400163 0 305.66259894 0 5906.78633798 0 960.26840731 0 -315.61440449 0 13453
0.11250000 0.11250000 15048.17521453 0 394.90996591 0 5912.98683988 0 636.22685640 0 -456.27721899 0 13668
0.11350000 0.11349100 15018.27993752 0 217.66751191 0 5099.66922032 0 559.85660320 0 234.36457774 0 13791
0.11450000 0.11448600 14805.35913125 0 44.30424691 0 4945.67532674 0 401.50796427 0 -11.51887168 0 14205
0.11550000 0.11549300 14916.08237944 0 -102.24682992 0 4914.31850286 0 500.24099191 0 869.86398240 0 14776
0.11650000 0.11649800 14924.71879280 0 -56.71089760 0 4841.81691995 0 153.07710508 0 620.15094800 0 14553
0.11750000 0.11747300 15031.67745055 0 104.78626762 0 4946.73826993 0 228.76862478 0 1079.86280215 0 14568
0.11850000 0.11849100 14738.03939636 0 372.67452321 0 5396.15286199 0 159.62417075 0 1221.83104374 0 16015
0.11950000 0.11950300 14557.33905532 0 362.81351073 0 5417.92105258 0 -40.41553571 0 1613.07164120 0 15270
0.12050000 0.12050700 14297.91448481 0 300.84281595 0 5686.14812132 0 556.92022266 0 1933.07290079 0 15999
0.12150000 0.12150000 13984.01407621 0 138.07078326 0 5533.06215837 0 445.11963727 0 1973.97406867 0 15670
0.12250000 0.12250700 13951.79361098 0 327.27245529 0 5484.86432844 0 382.36834359 0 1976.60928198 0 16887
0.12350000 0.12352200 13573.34154868 0 496.82296524 0 5481.54263099 0 243.02313575 0 1598.58904034 0 16407
0.12450000 0.12449800 13228.66007708 0 130.45634548 0 4768.58456360 0 255.40531659 0 1906.44395960 0 16306
0.12550000 0.12549900 13136.09544159 0 30.31104281 0 4708.47291215 0 293.24609389 0 1627.80890554 0 17523
0.12650000 0.12650100 13112.06849674 0 -86.75930486 0 4492.00896195 0 179.91531321 0 815.31506695 0 17154
0.12750000 0.12750600 13293.10100752 0 10.66956900 0 4108.69614905 0 463.51851942 0 801.90094543 0 18007
0.12850000 0.12850300 13179.49895488 0 12.71280046 0 3749.28848544 0 160.59853533 0 572.78132796 0 17496
0.12950000 0.12949900 13079.07296878 0 166.75806963 0 3637.67945127 0 365.97023053 0 588.30362012 0 18405
0.13050000 0.13049000 12971.33924829 0 101.18421891 0 3363.01936182 0 204.25892656 0 596.22143960 0 18100
0.13150000 0.13148800 12972.33575753 0 25.22951006 0 3256.44823544 0 275.89022474 0 737.64270835 0 19059
0.13250000 0.13249300 12732.84137170 0 286.19302298 0 3592.38257044 0 407.62210204 0 709.42045962 0 18957
0.13350000 0.13349100 12778.01645696 0 102.96918839 0 3298.66700997 0 -40.02058589 0 731.16429110 0 19468
0.13450000 0.13450700 12501.98339923 0 303.44481228 0 3508.39898669 0 -232.61293595 0 733.78732485 0 19953
0.13550000 0.13551000 12300.13491779 0 292.87184931 0 3581.02236517 0 127.48121180 0 469.12775917 0 19956
0.13650000 0.13649900 12073.81659849 0 84.40831813 0 3330.87640287 0 205.73154576 0 187.39023970 0 19723
0.13750000 0.13749600 11938.62351246 0 199.22766216 0 3376.04041580 0 -94.94972497 0 246.77222493 0 20946
0.13850000 0.13851100 11820.81397639 0 289.34420663 0 3187.57837507 0 201.31479539 0 419.01663151 0 20955
0.13950000 0.13949800 11543.78440942 0 23.43977947 0 2926.31579864 0 265.30618944 0 -104.37072327 0 20506
0.14050000 0.14048300 11656.16850633 0 -88.11322874 0 3119.26213093 0 380.77392882 0 25.02323264 0 21447
0.14150000 0.14148400 11555.41035048 0 42.02755548 0 2812.01618954 0 170.80168265 0 -336.74925810 0 21771
0.14250000 0.14249400 11513.66768592 0 186.83773069 0 2663.20414398 0 -98.64522410 0 -147.49554614 0 22470
0.14350000 0.14350900 11477.01829077 0 315.09068353 0 3096.77423923 0 -470.61809409 0 55.37114629 0 22519
0.14450000 0.14449900 11100.66997018 0 232.96503588 0 3046.32872735 0 -335.03194053 0 -69.70892115 0 22218
0.14550000 0.14550500 10979.16227762 0 252.29620778 0 3123.76856714 0 318.45002688 0 101.91067414 0 23559
0.14650000 0.14650700 10884.26138160 0 215.47519160 0 2825.44691955 0 3.15952110 0 251.67394313 0 23044
0.14750000 0.14750500 10648.02225927 0 204.33311113 0 2711.11409347 0 358.36465062 0 -247.62479394 0 23649
0.14850000 0.14849900 10532.93651511 0 221.81963372 0 2727.87759325 0 249.90569285 0 59.85466278 0 23640
0.14950000 0.14949500 10207.16657429 0 138.14718230 0 2807.73119984 0 123.70997797 0 154.12676148 0 24457
0.15050000 0.15050000 10153.10041220 0 133.68392816 0 2682.39248289 0 414.79032512 0 383.06922175 0 24591
0.15150000 0.15149900 10119.72842520 0 67.58403129 0 2695.91179149 0 281.08978847 0 607.53624833 0 25020
0.15250000 0.15250500 10041.98963265 0 68.03157466 0 2568.90115350 0 620.74553184 0 572.41151231 0 25297
0.15350000 0.15350100 9901.41539675 0 116.09664742 0 2563.99611360 0 -84.03839176 0 762.58422723 0 25452
0.15450000 0.15450400 9828.41555922 0 161.24294464 0 2726.98073493 0 -72.15944808 0 423.59503782 0 26061
0.15550000 0.15549900 9568.79168687 0 282.08297601 0 2765.04738766 0 -381.84351539 0 582.00678900 0 26128
0.15650000 0.15649500 9604.28956024 0 265.47338155 0 2886.55508022 0 -663.59875059 0 255.37209962 0 26331
0.15750000 0.15749700 9228.11839685 0 271.34946433 0 3053.33750896 0 -364.98147193 0 416.08910882 0 27345
0.15850000 0.15849900 9287.03423721 0 63.07737364 0 2859.42788442 0 166.19448830 0 -163.16842192 0 26980
0.15950000 0.15949700 9069.33018663 0 -112.25787241 0 2891.52655406 0 195.42653305 0 -146.81459817 0 27777
0.16050000 0.16050000 9246.12199701 0 135.62158501 0 2663.11556538 0 393.96660384 0 -670.29639987 0 28224
0.16150000 0.16150500 9041.38363879 0 177.07194020 0 2505.54531089 0 240.19858569 0 -284.11142592 0 28075
0.16250000 0.16249700 8897.43234382 0 81.88194578 0 2367.28519088 0 121.01054518 0 32.40371220 0 28590
0.16350000 0.16349900 8788.91248827 0 19.19597881 0 2121.88925592 0 295.54470852 0 -264.09266264 0 29163
0.16450000 0.16449100 8792.48884919 0 54.05154662 0 2109.14501005 0 184.93107635 0 114.59966911 0 28996
0.16550000 0.16550500 8809.73953126 0 49.06933262 0 2076.18269907 0 146.79688245 0 -13.82700851 0 30777
0.16650000 0.16650700 8790.86121744 0 25.97722415 0 1857.55964553 0 158.01979088 0 -118.27235925 0 29211
0.16750000 0.16749900 8809.19698734 0 55.88833458 0 2089.86809255 0 -12.60916350 0 -7.82030551 0 30922
0.16850000 0.16850800 8706.74476579 0 63.87768128 0 2006.06166599 0 -66.76069322 0 223.21142495 0 30867
0.16950000 0.16949900 8591.06111609 0 203.54365437 0 2229.65619338 0 196.77514221 0 158.50808041 0 30852
0.17050000 0.17049200 8644.57366194 0 95.19154455 0 2185.80978710 0 127.21104707 0 575.88711507 0 31257
0.17150000 0.17149500 8469.14374751 0 1.96855970 0 2174.92569180 0 230.11834117 0 607.96142561 0 32608
0.17250000 0.17250900 8491.85308571 0 171.10395712 0 2135.71858962 0 -36.44931824 0 244.54225871 0 32361
0.17350000 0.17350400 8424.14581945 0 176.69326669 0 2103.06630373 0 -246.79215512 0 378.87170341 0 32508
0.17450000 0.17449800 8142.38836979 0 229.31449039 0 2336.16088581 0 -271.07265621 0 362.13809891 0 32791
0.17550000 0.17549800 8120.50945594 0 136.56162538 0 2033.11135552 0 35.06970657 0 525.22790733 0 33633
0.17650000 0.17650100 8053.66583101 0 -127.44356590 0 2129.35200285 0 229.64998183 0 94.55621455 0 33984
0.17750000 0.17750300 8204.26052087 0 -116.64694196 0 1987.83661934 0 447.84785810 0 126.89880751 0 34069
0.17850000 0.17849800 8262.34593687 0 -32.77264206 0 1844.08462622 0 135.89839313 0 -90.88883912 0 34536
