### header ###
fiducial parameters:
Omega_m = 0.31
Omega_nu = 0
Omega_de = 0.69
Omega_k = 0
H_0 = 100
w_de = -1
zeff = 0
beta = 0
fgrowth = 0
b_1 = 2
gamma = 0.55
Lx = 3500 Ly = 3500 Lz = 3500
nx = 700 ny = 700 nz = 700
xoffset = -685.467585 yoffset = -31.7331281 zoffset = 572.489161
bins = 400 dk = 0.001
kx_ny = 0.628318531 ky_ny = 0.628318531 kz_ny = 0.628318531
############################
A(data) = 7.99885323 (not used)
A(ran) = 7.9882439 (used)
Ngal = 474811
weighted Ngal = 0
Nran = 23820508
weighted Nran = 0
SN(data) = 3499.4376
SN(ran) = 69.5805015
SN(data+ran) = 3569.0181
############################
13 columns: k_central k_mean P_0(k) sigma^{lin}_{P_0(k)} P^img_1(k) sigma^{lin}_{P_1(k)} P_2(k) sigma^{lin}_{P_2(k)} P^img_3(k) sigma^{lin}_{P_3(k)} P_4(k) sigma^{lin}_{P_4(k)} N_modes
### header ###
0.00050000 0 0 0 0 0 0 0 0 0 0 0 0
0.00150000 0.00179520 15582.74705677 0 -20363.44474372 0 -3721.81804757 0 29076.58931325 0 1393.46315075 0 3
0.00250000 0.00253879 28786.60512625 0 -28334.96499690 0 -353.77849368 0 -64345.48700458 0 -24564.06333342 0 6
0.00350000 0.00331552 39840.66060895 0 -25070.06857763 0 -45599.26602388 0 56639.59182380 0 2122.91898213 0 7
0.00450000 0.00420575 55767.31407459 0 -26726.59909374 0 -30936.96132928 0 -29004.06558569 0 -3596.34646272 0 24
0.00550000 0.00557378 89504.68779700 0 -22106.45011667 0 -41253.26780931 0 -50067.83487419 0 -17366.05569206 0 45
0.00650000 0.00659388 94397.76958086 0 -13744.29824388 0 3123.45854204 0 -98338.40998381 0 -11240.95632563 0 40
0.00750000 0.00754703 109354.81956213 0 14162.94284528 0 -13918.68735978 0 -79056.62065163 0 -28827.12983509 0 57
0.00850000 0.00846663 96746.32039814 0 19311.13099295 0 24758.38263398 0 -52705.59481573 0 -4019.73001914 0 75
0.00950000 0.00948925 78529.46726702 0 13463.50408648 0 30276.60787710 0 -26510.57803653 0 -23400.47271822 0 112
0.01050000 0.01054430 81027.93736234 0 12734.61294367 0 47223.90824452 0 9521.57929385 0 -17794.66538579 0 105
0.01150000 0.01145670 65677.59840352 0 916.93243521 0 46730.30400410 0 29580.04792276 0 -7868.00508845 0 144
0.01250000 0.01249090 77333.98835635 0 94.17886972 0 43718.18876044 0 25390.16948813 0 -5321.44788644 0 169
0.01350000 0.01339930 74775.17409076 0 2113.57393998 0 44504.54526906 0 24343.94551602 0 2927.96557504 0 180
0.01450000 0.01448870 72394.84570124 0 2735.34034017 0 31937.45659990 0 25601.20799918 0 18442.06421794 0 267
0.01550000 0.01550050 66311.71044588 0 680.56155221 0 24461.86577534 0 12999.13078359 0 15829.32773048 0 238
0.01650000 0.01653350 79777.42899732 0 -8549.15236665 0 24761.59360818 0 3158.23671430 0 -10156.00136130 0 315
0.01750000 0.01747870 74180.25807825 0 -556.79842709 0 26957.12489647 0 -7494.00410073 0 685.07463181 0 297
0.01850000 0.01844180 75422.57292290 0 7493.30654427 0 23228.85168353 0 -12286.40523501 0 -12242.33738223 0 388
0.01950000 0.01947590 69064.06894930 0 7155.85530077 0 30873.51690807 0 -7204.40744510 0 9818.92657685 0 399
0.02050000 0.02045430 70643.31463818 0 193.66160447 0 32286.89917117 0 11324.22020827 0 -987.28820157 0 462
0.02150000 0.02154770 66992.99059197 0 1020.44759994 0 30199.10160337 0 14589.00590430 0 6824.30560640 0 571
0.02250000 0.02255340 68750.94360343 0 1140.57125189 0 26126.70053507 0 18114.76629630 0 27068.51248414 0 510
0.02350000 0.02348930 70643.42536143 0 -1119.99887238 0 33853.63313301 0 5941.90775230 0 22266.44521030 0 555
0.02450000 0.02439640 68106.42357573 0 1322.78850143 0 24048.75733636 0 8968.19557173 0 27004.18227695 0 592
0.02550000 0.02547300 70426.51851823 0 894.79000003 0 39746.87801774 0 49.51554731 0 20964.67198137 0 837
0.02650000 0.02652900 65213.00365413 0 5299.85685304 0 32101.43773046 0 -4878.49953207 0 19356.74897121 0 723
0.02750000 0.02749970 67014.47090212 0 5801.26708246 0 42286.31571489 0 2375.97696586 0 15369.60480401 0 826
0.02850000 0.02848090 63003.18906682 0 -592.20882909 0 36834.19225094 0 4101.75380139 0 13710.52765319 0 831
0.02950000 0.02946900 65541.40880825 0 -3655.43946028 0 38356.96908325 0 10660.11323797 0 12187.75082088 0 996
0.03050000 0.03053250 65880.33267095 0 -3346.47730854 0 28931.20968839 0 20429.65724613 0 11936.40904749 0 1041
0.03150000 0.03150510 67914.42946338 0 -2354.28628154 0 24029.27004467 0 17305.93296830 0 13795.34166130 0 1036
0.03250000 0.03246190 67796.84137381 0 1687.02369867 0 13693.80844271 0 8379.19218068 0 6249.85125016 0 1059
0.03350000 0.03345080 66295.43412840 0 4981.42786358 0 14408.63773300 0 4497.58941366 0 15240.61221987 0 1302
0.03450000 0.03451200 59892.86230201 0 4025.93052103 0 6969.06518108 0 -4186.54566485 0 8395.12525610 0 1339
0.03550000 0.03553350 56382.04954852 0 2332.45165700 0 10819.74294488 0 -5166.43533898 0 3461.70699293 0 1365
0.03650000 0.03647120 54516.69498632 0 2322.23190119 0 12325.93343461 0 -3426.49700000 0 -3057.71107727 0 1308
0.03750000 0.03744890 52687.43620303 0 1835.20462172 0 15244.93042655 0 -2925.20856616 0 -279.66478027 0 1579
0.03850000 0.03847530 50375.20261115 0 3330.64388405 0 15684.28027536 0 -2629.03494959 0 -10129.57172196 0 1662
0.03950000 0.03950240 47306.06489467 0 3797.66347257 0 19624.14561558 0 -3448.49770942 0 -9287.17817744 0 1683
0.04050000 0.04050350 45597.05155892 0 3075.39358000 0 19401.81333322 0 -974.90048456 0 -8710.87474295 0 1822
0.04150000 0.04152450 43648.65456058 0 1417.68939745 0 22891.03505332 0 -1508.77034141 0 -6197.24663495 0 1887
0.04250000 0.04250150 44353.96165153 0 406.89465030 0 23832.29338615 0 1250.72981151 0 -4615.76433645 0 1920
0.04350000 0.04349210 43669.91342423 0 -1217.54605403 0 21387.30261970 0 2651.34568410 0 -8216.92726046 0 2005
0.04450000 0.04448520 44788.66112391 0 442.61729186 0 20053.64109529 0 1592.55462332 0 -8096.09497972 0 2151
0.04550000 0.04548030 44312.21898696 0 1163.13664987 0 16785.64442507 0 1056.74710962 0 -13446.34198301 0 2274
0.04650000 0.04648670 43266.99152408 0 2115.44516288 0 18915.84899693 0 -573.32830081 0 -14087.09742027 0 2311
0.04750000 0.04749250 41098.47670835 0 1213.69288500 0 15907.49834370 0 2309.90840367 0 -8170.03596486 0 2568
0.04850000 0.04851840 39734.80918368 0 1727.07229754 0 15041.19964989 0 4270.82820137 0 -10508.98707652 0 2493
0.04950000 0.04949480 38591.59164616 0 883.17845300 0 13528.05574017 0 2672.73741565 0 -4265.41383454 0 2644
0.05050000 0.05050630 39657.30290995 0 -499.14151006 0 15325.53695123 0 4339.26624108 0 -5124.52658954 0 2829
0.05150000 0.05149060 38841.05112432 0 1123.03268938 0 15573.99992016 0 1218.47612932 0 -268.51827087 0 2784
0.05250000 0.05249300 38217.56851378 0 1466.49620526 0 14532.20487798 0 941.31369446 0 -853.67070736 0 3055
0.05350000 0.05348950 37096.05273290 0 91.74771936 0 13802.76011892 0 -237.04629481 0 1362.42742428 0 3009
0.05450000 0.05448610 37557.65795459 0 579.17891724 0 15436.59236916 0 35.76360916 0 58.89579945 0 3336
0.05550000 0.05550870 36353.76407706 0 77.45489814 0 14658.76155065 0 -4.43523008 0 -40.90736838 0 3349
0.05650000 0.05647670 35972.10104056 0 1810.54655435 0 14539.06971936 0 339.32910979 0 -1771.08478869 0 3324
0.05750000 0.05747970 34118.48314267 0 1519.62121974 0 14518.03230221 0 -538.50473202 0 -2172.93267333 0 3639
0.05850000 0.05849280 33855.18325849 0 1501.80584910 0 14901.02401769 0 -634.01128421 0 -2140.74542509 0 3846
0.05950000 0.05951020 32440.58303966 0 1016.59996706 0 15850.03297789 0 -390.54082654 0 -2290.23288246 0 3787
0.06050000 0.06049470 31603.73672986 0 828.69597149 0 15903.18013702 0 2636.77450464 0 460.71611401 0 3930
0.06150000 0.06148310 31270.45975282 0 199.02836031 0 14294.92495711 0 2671.82948501 0 1443.63185450 0 4083
0.06250000 0.06249100 31149.66068905 0 -724.03039222 0 13421.31852892 0 5379.48901314 0 303.22668748 0 4303
0.06350000 0.06350600 31473.41546675 0 473.99626039 0 10968.16745908 0 2112.27847798 0 1226.06067182 0 4470
0.06450000 0.06451750 31712.90985257 0 -217.74058926 0 10110.21729818 0 1610.72430834 0 3191.45368875 0 4479
0.06550000 0.06550280 30088.59980168 0 4.69484288 0 8472.12220289 0 -140.99387701 0 927.69141323 0 4636
0.06650000 0.06648880 31399.34161371 0 235.68550609 0 8113.92142268 0 1281.17870477 0 2282.67048461 0 4653
0.06750000 0.06749660 30221.35697625 0 104.49229739 0 7096.30833789 0 338.66366307 0 -172.02849624 0 5220
0.06850000 0.06852730 30082.62074628 0 926.49781662 0 7720.25598607 0 -512.45819512 0 -77.57924035 0 5029
0.06950000 0.06949320 30371.49770080 0 724.21419281 0 8572.32674249 0 -259.43785729 0 -156.08434850 0 5040
0.07050000 0.07048030 28849.16376148 0 569.70654336 0 8735.88712471 0 -993.30490288 0 95.47388883 0 5475
0.07150000 0.07148790 28528.17706499 0 1433.24601382 0 9517.67076319 0 -1417.36830003 0 1772.40239534 0 5509
0.07250000 0.07249820 27757.54325761 0 562.83284411 0 12231.04361092 0 807.63530246 0 903.43527125 0 5916
0.07350000 0.07351270 27293.05923147 0 175.61150055 0 11309.05112327 0 694.89246222 0 743.28405784 0 5721
0.07450000 0.07449140 27143.25067667 0 801.82011746 0 12620.56799804 0 821.34948398 0 145.11388907 0 6028
0.07550000 0.07549160 26692.49633330 0 160.92959784 0 10161.29393257 0 1585.15831034 0 -429.76564444 0 6183
0.07650000 0.07648840 26505.48476712 0 205.63410930 0 10240.01816203 0 58.49664214 0 -226.60952144 0 6330
0.07750000 0.07749960 26365.86275115 0 634.21501498 0 9436.43311599 0 -17.55229220 0 -1068.88791379 0 6583
0.07850000 0.07848650 25303.25173831 0 1021.94457825 0 9474.02365875 0 -561.32479347 0 -1530.58282131 0 6549
0.07950000 0.07947320 24395.32110318 0 613.18867015 0 9231.39580500 0 1100.31117162 0 -187.62718745 0 6828
0.08050000 0.08048110 24540.25783505 0 258.61629079 0 9928.95226857 0 1017.89432183 0 -1715.64565832 0 7147
0.08150000 0.08149960 23405.34454114 0 725.03133038 0 9408.25404933 0 1009.04974877 0 -1140.31658842 0 7386
0.08250000 0.08250610 23140.82670123 0 771.39447609 0 9311.14976067 0 473.15033478 0 885.06185545 0 7227
0.08350000 0.08350160 22809.09984966 0 -7.80374132 0 8910.39803618 0 390.77113089 0 556.82942959 0 7798
0.08450000 0.08449610 22432.75152907 0 73.11687200 0 9254.35980667 0 1328.36895314 0 1205.86475135 0 7371
0.08550000 0.08548940 22384.25474637 0 902.47308623 0 9436.76528574 0 1132.20057433 0 1740.33694267 0 8256
0.08650000 0.08650700 21728.88384035 0 438.45409773 0 7838.18731772 0 747.83810504 0 1712.01393578 0 8037
0.08750000 0.08749060 21154.45162876 0 363.09917671 0 8428.85155749 0 1020.98017876 0 2954.69416716 0 8155
0.08850000 0.08849210 21031.88099302 0 456.25064541 0 7886.69517275 0 342.38064251 0 1730.70402008 0 8718
0.08950000 0.08949900 20579.57652418 0 286.21073870 0 8129.67734089 0 237.22788094 0 2524.76686677 0 8571
0.09050000 0.09049190 20592.64186746 0 138.49374606 0 6820.97283663 0 168.95924780 0 1808.50924658 0 8932
0.09150000 0.09150830 20308.85818236 0 66.98756515 0 7073.38862552 0 722.70503494 0 1914.41603347 0 9285
0.09250000 0.09250820 20143.99126581 0 306.80083393 0 6761.72482652 0 995.45182666 0 1366.62383539 0 9204
0.09350000 0.09350330 19587.71766692 0 741.39954816 0 5775.53499958 0 560.66709738 0 107.29005243 0 9349
0.09450000 0.09448040 19025.90790562 0 392.23267777 0 5296.54622792 0 605.40814750 0 1146.95998331 0 9564
0.09550000 0.09549270 18796.82150513 0 63.57385669 0 5285.39639683 0 348.73062079 0 -238.30521814 0 10155
0.09650000 0.09649430 18608.92415295 0 584.93541891 0 5514.62673755 0 -736.31292214 0 707.80611466 0 9913
0.09750000 0.09749140 18027.62709998 0 310.05056127 0 5212.61800580 0 15.72303341 0 -328.48708932 0 10476
0.09850000 0.09850240 17827.10729751 0 91.34169721 0 5340.81338255 0 342.42936074 0 909.59812725 0 10575
0.09950000 0.09950330 18002.60364589 0 25.87713033 0 4832.18399735 0 1089.84450297 0 -71.08244304 0 10882
0.10050000 0.10051200 17700.66134808 0 375.97739770 0 4770.76581158 0 1282.10878005 0 -82.93392736 0 10875
0.10150000 0.10150300 17248.68904898 0 682.71954832 0 4532.47830916 0 141.09906409 0 296.25998071 0 11118
0.10250000 0.10250800 16434.76245156 0 638.31398963 0 4536.42005680 0 -582.43196627 0 689.49581111 0 11575
0.10350000 0.10349800 16171.46256738 0 415.32733288 0 5090.77814349 0 -935.02904289 0 1512.14740048 0 11364
0.10450000 0.10450100 16374.19683481 0 141.55524388 0 5523.20778929 0 -254.44866773 0 821.37716479 0 12093
0.10550000 0.10551000 16286.39329900 0 104.74740376 0 6039.29992141 0 -380.95994387 0 1476.48344224 0 12067
0.10650000 0.10649700 16294.58681936 0 62.86965683 0 6217.44255541 0 -80.84978366 0 740.58794675 0 12054
0.10750000 0.10749900 16329.68608904 0 -249.58459543 0 6226.94261011 0 574.97364828 0 1365.57196453 0 12807
0.10850000 0.10850100 16321.93546166 0 -16.71101696 0 5902.20239550 0 812.84483128 0 776.52428418 0 12736
0.10950000 0.10950300 16522.34454088 0 443.96368656 0 5686.98961800 0 117.29578020 0 450.47310632 0 12933
0.11050000 0.11050200 15750.60350102 0 649.47710751 0 5416.00554039 0 188.40557188 0 990.82913105 0 13428
0.11150000 0.11150900 15292.31997678 0 389.95177886 0 5626.82260494 0 -264.83118671 0 781.64191271 0 13453
0.11250000 0.11250000 15094.12536252 0 123.92921000 0 5415.85052784 0 536.93799806 0 1655.86617663 0 13668
0.11350000 0.11349100 15264.19627174 0 30.28059391 0 5697.89585795 0 302.30104113 0 276.69075382 0 13791
0.11450000 0.11448600 15044.29990084 0 206.60072326 0 5599.30787776 0 378.25165322 0 1659.13251245 0 14205
0.11550000 0.11549300 14997.24252036 0 41.25780746 0 5612.96005427 0 394.55122259 0 1808.40959566 0 14776
0.11650000 0.11649800 14938.00558258 0 80.22729755 0 5403.80383844 0 233.17651729 0 1736.20696551 0 14553
0.11750000 0.11747300 14797.27633414 0 67.66463782 0 5403.26129452 0 417.90275563 0 1202.41018601 0 14568
0.11850000 0.11849100 14732.83540369 0 130.10313832 0 5065.30072409 0 -24.78019511 0 992.52319674 0 16015
0.11950000 0.11950300 14616.46526985 0 309.81804245 0 5638.45961832 0 -570.13172063 0 1331.73493989 0 15270
0.12050000 0.12050700 14439.41879600 0 319.05346858 0 5545.44101752 0 -128.30056384 0 798.58146245 0 15999
0.12150000 0.12150000 14046.01909519 0 529.07886190 0 6056.18521676 0 -605.74696064 0 672.75777768 0 15670
0.12250000 0.12250700 13588.62135693 0 463.08780598 0 5715.48978209 0 -97.69599370 0 281.72644715 0 16887
0.12350000 0.12352200 13451.21380593 0 -27.72432628 0 5973.89569870 0 278.80778233 0 468.98271172 0 16407
0.12450000 0.12449800 13512.66520868 0 50.94775253 0 5493.72218829 0 682.95206714 0 163.88258687 0 16306
0.12550000 0.12549900 13487.53103134 0 31.40388127 0 5751.44162077 0 592.97724843 0 283.48583956 0 17523
0.12650000 0.12650100 13204.74385547 0 159.26874912 0 4769.75823003 0 601.91482902 0 -215.89483271 0 17154
0.12750000 0.12750600 13152.59320557 0 146.05392945 0 4616.24044642 0 602.86704896 0 466.12273022 0 18007
0.12850000 0.12850300 13083.39117546 0 183.14732483 0 4258.28325735 0 805.72754089 0 196.06983512 0 17496
0.12950000 0.12949900 12771.37306207 0 -40.07727619 0 3851.55247747 0 875.89064880 0 512.61210043 0 18405
0.13050000 0.13049000 12847.66138007 0 83.04177180 0 3293.90591030 0 298.93948331 0 271.66945452 0 18100
0.13150000 0.13148800 12635.62635979 0 254.07220868 0 3440.17132115 0 48.64260522 0 38.80484462 0 19059
0.13250000 0.13249300 12575.94652902 0 387.80817677 0 3747.21796070 0 -274.66451838 0 491.03988999 0 18957
0.13350000 0.13349100 12120.20963948 0 398.24273568 0 3670.58640063 0 -360.15393831 0 712.26272540 0 19468
0.13450000 0.13450700 12179.88947026 0 166.31628387 0 4211.04871968 0 -205.09488708 0 636.28996866 0 19953
0.13550000 0.13551000 12010.37217728 0 -118.70196545 0 3888.99908000 0 -71.47141381 0 442.09799982 0 19956
0.13650000 0.13649900 12104.92983123 0 37.99645419 0 4045.37352342 0 468.56860677 0 282.09183387 0 19723
0.13750000 0.13749600 12088.76423700 0 6.48845985 0 3682.07947379 0 246.83090825 0 -46.93071308 0 20946
0.13850000 0.13851100 11906.40304723 0 122.63928416 0 3405.50387215 0 349.08714965 0 -222.47622258 0 20955
0.13950000 0.13949800 11884.92273709 0 153.68276125 0 2946.99890141 0 187.65376103 0 -476.29708949 0 20506
0.14050000 0.14048300 11411.35940459 0 427.69844140 0 2837.95864659 0 124.46843222 0 94.94330302 0 21447
0.14150000 0.14148400 11294.32493126 0 446.75280518 0 2671.01013298 0 -12.10791936 0 240.44439130 0 21771
0.14250000 0.14249400 10896.30807100 0 271.98723024 0 2796.10525878 0 220.24847083 0 402.74474295 0 22470
0.14350000 0.14350900 10801.37395801 0 210.80820669 0 2947.51930067 0 167.25189532 0 346.79739288 0 22519
0.14450000 0.14449900 10425.68997691 0 255.03992987 0 3015.72482156 0 454.60086901 0 573.65271992 0 22218
0.14550000 0.14550500 10393.87918771 0 274.68998473 0 2870.47806458 0 -0.55923212 0 783.50870668 0 23559
0.14650000 0.14650700 10286.63264952 0 109.83524774 0 2850.01640832 0 288.89909917 0 1233.08052575 0 23044
0.14750000 0.14750500 10213.00168947 0 -195.73877261 0 3112.71838697 0 88.61303348 0 846.80918767 0 23649
0.14850000 0.14849900 10335.00763665 0 -145.16703623 0 2769.44310061 0 410.66145520 0 731.00927855 0 23640
0.14950000 0.14949500 10354.78280877 0 56.13956563 0 2959.57706240 0 223.15938502 0 291.84876650 0 24457
0.15050000 0.15050000 10164.30560492 0 304.55647369 0 2620.63105505 0 -462.34042406 0 409.67269659 0 24591
0.15150000 0.15149900 9968.73513165 0 353.50500725 0 2950.58633465 0 -208.27264430 0 744.15544981 0 25020
0.15250000 0.15250500 9831.44937622 0 143.37331961 0 2731.85255785 0 83.82735325 0 482.62049420 0 25297
0.15350000 0.15350100 9738.06538870 0 -34.07507963 0 2888.31557987 0 57.39217774 0 670.95520320 0 25452
0.15450000 0.15450400 9749.73561906 0 123.33019722 0 2908.67758521 0 282.48711587 0 456.55734880 0 26061
0.15550000 0.15549900 9626.85495822 0 152.53566840 0 2813.71025524 0 74.82344943 0 979.11350416 0 26128
0.15650000 0.15649500 9552.73681589 0 72.45895446 0 2714.38042929 0 121.44900924 0 767.20249392 0 26331
0.15750000 0.15749700 9379.23348598 0 182.22278570 0 2831.85779562 0 243.40513095 0 775.88651827 0 27345
0.15850000 0.15849900 9244.33935271 0 230.46379771 0 2779.49677155 0 114.96173413 0 581.73330258 0 26980
0.15950000 0.15949700 9038.46054503 0 273.89609904 0 2462.47396734 0 211.50133422 0 638.52989997 0 27777
0.16050000 0.16050000 8932.47625187 0 13.48365572 0 2353.92089482 0 -44.63597376 0 426.54802685 0 28224
0.16150000 0.16150500 8949.18439002 0 -63.14746146 0 2486.82200962 0 36.68859118 0 160.45902404 0 28075
0.16250000 0.16249700 9020.36836628 0 30.57666788 0 2485.02829300 0 -246.20089297 0 -44.29649629 0 28590
0.16350000 0.16349900 8966.45721674 0 205.04506162 0 2311.42531217 0 -150.43414115 0 -117.97894264 0 29163
0.16450000 0.16449100 8868.60000999 0 205.04949055 0 2426.44462238 0 -22.00480617 0 152.08945371 0 28996
0.16550000 0.16550500 8783.35418121 0 87.62737512 0 2453.18428682 0 72.90649783 0 217.91885369 0 30777
0.16650000 0.16650700 8733.86088927 0 -23.50134160 0 2512.15548880 0 306.28818530 0 142.92267599 0 29211
0.16750000 0.16749900 8699.22665724 0 116.40999421 0 2537.96507796 0 148.27614504 0 -20.96943308 0 30922
0.16850000 0.16850800 8531.00482627 0 206.83767101 0 2526.52736642 0 38.28566331 0 42.38851327 0 30867
0.16950000 0.16949900 8402.08974841 0 167.88412506 0 2491.46131372 0 -139.49911316 0 -83.03368900 0 30852
0.17050000 0.17049200 8280.72599607 0 29.70915123 0 2493.96365913 0 80.12199975 0 64.72748221 0 31257
0.17150000 0.17149500 8205.33453638 0 93.29983785 0 2321.20217498 0 228.57707356 0 -347.83044078 0 32608
0.17250000 0.17250900 8164.97591242 0 106.65671545 0 1923.08566380 0 332.70232338 0 -439.43067678 0 32361
0.17350000 0.17350400 8138.63485167 0 20.64014214 0 1762.24907349 0 372.53833362 0 -250.12271042 0 32508
0.17450000 0.17449800 8086.35133388 0 89.38599247 0 1646.86437655 0 315.43503283 0 -557.56463196 0 32791
0.17550000 0.17549800 7944.06088763 0 150.68437569 0 1712.16894833 0 197.84583602 0 -256.52694310 0 33633
0.17650000 0.17650100 7809.44356249 0 175.01138055 0 1382.28010268 0 113.65187810 0 -148.69135722 0 33984
0.17750000 0.17750300 7726.53399425 0 23.27192303 0 1558.77296029 0 -7.92122975 0 214.23287675 0 34069
0.17850000 0.17849800 7805.08106651 0 -88.67847092 0 1641.36143112 0 182.08991781 0 362.88658807 0 34536
