### header ###
fiducial parameters:
Omega_m = 0.31
Omega_nu = 0
Omega_de = 0.69
Omega_k = 0
H_0 = 100
w_de = -1
zeff = 0
beta = 0
fgrowth = 0
b_1 = 2
gamma = 0.55
Lx = 3500 Ly = 3500 Lz = 3500
nx = 700 ny = 700 nz = 700
xoffset = -685.467585 yoffset = -31.7331281 zoffset = 572.489161
bins = 400 dk = 0.001
kx_ny = 0.628318531 ky_ny = 0.628318531 kz_ny = 0.628318531
############################
A(data) = 8.07039238 (not used)
A(ran) = 8.07416203 (used)
Ngal = 479603
weighted Ngal = 0
Nran = 23820508
weighted Nran = 0
SN(data) = 3482.24341
SN(ran) = 70.3288796
SN(data+ran) = 3552.57229
############################
13 columns: k_central k_mean P_0(k) sigma^{lin}_{P_0(k)} P^img_1(k) sigma^{lin}_{P_1(k)} P_2(k) sigma^{lin}_{P_2(k)} P^img_3(k) sigma^{lin}_{P_3(k)} P_4(k) sigma^{lin}_{P_4(k)} N_modes
### header ###
0.00050000 0 0 0 0 0 0 0 0 0 0 0 0
0.00150000 0.00179520 19093.78125676 0 -13706.87378600 0 27997.25908993 0 -80030.43161943 0 13320.78181957 0 3
0.00250000 0.00253879 38656.25402310 0 -14374.09207957 0 4422.24224327 0 10719.62698387 0 -9511.49240594 0 6
0.00350000 0.00331552 51801.65021754 0 -13124.80167028 0 32712.51933720 0 -24516.12016695 0 73438.41231540 0 7
0.00450000 0.00420575 64124.15123146 0 -2645.58807519 0 56103.02696309 0 -26772.10634875 0 16164.26555625 0 24
0.00550000 0.00557378 82884.21261819 0 8562.09591436 0 94883.62319390 0 14190.95582707 0 13435.38038144 0 45
0.00650000 0.00659388 73165.36878537 0 14245.21021868 0 67096.07393603 0 34663.46297025 0 18448.15399659 0 40
0.00750000 0.00754703 68455.97687026 0 16895.03899428 0 100020.29612377 0 31374.09671312 0 14869.35716870 0 57
0.00850000 0.00846663 71912.53523214 0 6411.67327738 0 87195.00083983 0 48396.13527307 0 -8528.60213178 0 75
0.00950000 0.00948925 66768.00095166 0 -3143.49944996 0 96766.47202931 0 57216.57067010 0 -6952.79993592 0 112
0.01050000 0.01054430 67776.24684964 0 -3497.65883161 0 48237.46885842 0 43883.83073973 0 7641.06671897 0 105
0.01150000 0.01145670 70810.06384995 0 -3494.45892974 0 34138.19188085 0 43197.34660097 0 9301.52791040 0 144
0.01250000 0.01249090 69246.31941581 0 -4462.47907166 0 18803.68634651 0 18543.81888302 0 9710.53958920 0 169
0.01350000 0.01339930 72070.42658406 0 5852.83089914 0 21771.62301415 0 15462.39088599 0 17399.38338977 0 180
0.01450000 0.01448870 64689.94702969 0 8881.74285955 0 12508.29462438 0 -12692.42738611 0 14385.16440439 0 267
0.01550000 0.01550050 56555.66360167 0 2931.12118762 0 18920.72081985 0 -3041.06937307 0 49107.53214267 0 238
0.01650000 0.01653350 65116.23153521 0 -5930.97936771 0 33835.14235056 0 -13041.20561790 0 29583.70178995 0 315
0.01750000 0.01747870 69144.45402748 0 -4942.97367949 0 39033.70957617 0 -145.88009395 0 21818.90184113 0 297
0.01850000 0.01844180 72444.33899318 0 655.86362447 0 51456.30440645 0 5088.51938923 0 10066.08301145 0 388
0.01950000 0.01947590 77594.85232907 0 3429.90727605 0 42904.48360952 0 -7319.64820181 0 13220.79872646 0 399
0.02050000 0.02045430 68018.17714693 0 4525.25915338 0 40833.73742193 0 2867.48853688 0 470.56716140 0 462
0.02150000 0.02154770 69165.93433763 0 1420.94466095 0 37093.50609820 0 7224.79159509 0 -7736.47694193 0 571
0.02250000 0.02255340 67651.24030244 0 -2353.97625644 0 22211.41575595 0 14494.66969684 0 -16476.17294639 0 510
0.02350000 0.02348930 69007.37864623 0 -992.19545593 0 26094.25862335 0 11833.65787318 0 -16206.89400680 0 555
0.02450000 0.02439640 70998.84698811 0 3827.02727799 0 28790.25899344 0 -131.62669021 0 -12727.85882553 0 592
0.02550000 0.02547300 62171.54674969 0 6039.28884908 0 23841.37269250 0 5439.87747270 0 -8633.35739689 0 837
0.02650000 0.02652900 61033.64392808 0 3247.67895418 0 27799.83953842 0 7928.32711407 0 5186.23265575 0 723
0.02750000 0.02749970 61718.35649486 0 -2116.23129794 0 26507.58850883 0 3382.21877305 0 11402.72299123 0 826
0.02850000 0.02848090 64501.16389154 0 -2226.20162804 0 31760.52084929 0 7769.67177174 0 12225.72889500 0 831
0.02950000 0.02946900 65406.54789196 0 1067.24256632 0 31561.99406530 0 9172.80106206 0 15990.54077984 0 996
0.03050000 0.03053250 65225.40465792 0 2950.18773095 0 24535.27528889 0 9956.31198320 0 13763.78553556 0 1041
0.03150000 0.03150510 60590.86165858 0 3631.27964752 0 20175.21522180 0 -83.52784686 0 13117.93682889 0 1036
0.03250000 0.03246190 57659.35293960 0 4750.65846971 0 16984.83554856 0 4156.14106090 0 -329.74269096 0 1059
0.03350000 0.03345080 54229.70032702 0 1949.98034079 0 14490.79438316 0 -2329.94931159 0 -1443.74257775 0 1302
0.03450000 0.03451200 50074.58899233 0 2241.71395511 0 9549.89122841 0 -1038.78669153 0 -10051.97686963 0 1339
0.03550000 0.03553350 49474.91188015 0 824.76751065 0 6965.79884526 0 -2654.57880295 0 -11499.05221716 0 1365
0.03650000 0.03647120 50507.51689274 0 -2628.53669497 0 5212.77301834 0 8974.88325593 0 -9133.29500711 0 1308
0.03750000 0.03744890 50384.17119426 0 -964.98632492 0 7633.85863551 0 2745.10613066 0 -10707.40313727 0 1579
0.03850000 0.03847530 50522.46453124 0 984.74821026 0 6547.63035383 0 5011.11276642 0 -8820.08108264 0 1662
0.03950000 0.03950240 47510.34928758 0 3404.59594151 0 7440.85694160 0 1182.82324340 0 -4838.49522250 0 1683
0.04050000 0.04050350 46146.34959317 0 3597.83015425 0 10248.38883959 0 -1212.58565251 0 5340.13797073 0 1822
0.04150000 0.04152450 44427.70333482 0 452.17602987 0 12170.81016390 0 -2298.37104120 0 8535.71056432 0 1887
0.04250000 0.04250150 43772.22170555 0 501.92509252 0 15831.98508844 0 -567.81317581 0 7901.04490571 0 1920
0.04350000 0.04349210 46455.26745561 0 -249.95773278 0 16876.21604208 0 1591.76848825 0 6429.80974544 0 2005
0.04450000 0.04448520 44982.53753148 0 1357.26772092 0 16402.20981660 0 -3364.35911312 0 5799.91625883 0 2151
0.04550000 0.04548030 44545.62359414 0 2459.03047432 0 16710.79550929 0 -2451.92204179 0 2081.38669173 0 2274
0.04650000 0.04648670 42196.18699087 0 276.76826010 0 15968.72829995 0 2201.00101675 0 1949.57066477 0 2311
0.04750000 0.04749250 43469.72579151 0 -7.00491737 0 14737.26433362 0 1544.45644430 0 -786.21367563 0 2568
0.04850000 0.04851840 41808.87706871 0 376.04936782 0 13918.35519003 0 2474.49851210 0 -4528.64728478 0 2493
0.04950000 0.04949480 41166.68222923 0 2813.33379620 0 11934.63747552 0 1065.58171759 0 -2847.33690571 0 2644
0.05050000 0.05050630 38597.68142481 0 1273.54987297 0 11408.14843040 0 892.21014835 0 -4457.93941848 0 2829
0.05150000 0.05149060 38225.87275740 0 1308.19517732 0 13244.93639456 0 622.82823614 0 -536.82395311 0 2784
0.05250000 0.05249300 36487.73920737 0 823.85182939 0 13693.47627296 0 2550.38822640 0 -994.78416547 0 3055
0.05350000 0.05348950 37671.81362347 0 -341.28005342 0 14173.90444685 0 1121.88116760 0 965.13912300 0 3009
0.05450000 0.05448610 36631.01509052 0 1287.52314689 0 14393.24720150 0 -1184.30693493 0 133.11038174 0 3336
0.05550000 0.05550870 34948.90750407 0 2168.82484083 0 13137.97773681 0 -1046.94699492 0 -1395.83262826 0 3349
0.05650000 0.05647670 33210.44178430 0 1582.99920700 0 14819.08881403 0 1.53108108 0 2485.33831809 0 3324
0.05750000 0.05747970 32833.53984747 0 794.07170455 0 14900.47040145 0 2715.73125292 0 2104.16246389 0 3639
0.05850000 0.05849280 32325.54158479 0 -63.52358833 0 13803.31373517 0 3496.91698585 0 216.39973072 0 3846
0.05950000 0.05951020 32420.87430148 0 -242.58356445 0 12452.60083054 0 3053.29321967 0 -764.35247751 0 3787
0.06050000 0.06049470 31886.30245923 0 -2.54671221 0 9801.77554571 0 196.70760103 0 3679.80964720 0 3930
0.06150000 0.06148310 33504.19056173 0 -776.63500743 0 10814.87112196 0 1530.48317038 0 1993.76031312 0 4083
0.06250000 0.06249100 33445.06434720 0 -1027.03341874 0 10951.66969510 0 581.33802058 0 4235.50748520 0 4303
0.06350000 0.06350600 34521.40504282 0 -314.48281289 0 10387.46831164 0 1130.39578539 0 1821.48601127 0 4470
0.06450000 0.06451750 34515.31526417 0 1040.17405383 0 12814.33368236 0 -4.93334076 0 4257.75178576 0 4479
0.06550000 0.06550280 32656.05048063 0 2455.40982411 0 11929.65492935 0 -505.68082509 0 2842.18827467 0 4636
0.06650000 0.06648880 31073.59381755 0 2340.45694784 0 13210.72291087 0 -697.95728173 0 4134.05177289 0 4653
0.06750000 0.06749660 29218.09362444 0 1684.59885953 0 13277.26758303 0 7.91704442 0 2260.49261800 0 5220
0.06850000 0.06852730 28441.70220815 0 760.78608168 0 12960.59909322 0 218.39939258 0 2527.19170591 0 5029
0.06950000 0.06949320 28708.54523628 0 -293.75763530 0 12829.39204412 0 388.62974327 0 1429.38177246 0 5040
0.07050000 0.07048030 29081.35041293 0 -168.79316293 0 12754.21095860 0 -496.73881557 0 334.67873336 0 5475
0.07150000 0.07148790 28825.24753987 0 -68.24117377 0 13380.46165034 0 -2227.28671587 0 -681.01108860 0 5509
0.07250000 0.07249820 28918.80868459 0 1029.93436784 0 13687.38649431 0 -1469.98398757 0 -1594.39262924 0 5916
0.07350000 0.07351270 28754.05249129 0 -220.67364810 0 14575.38694477 0 -1039.42888637 0 -2613.29010370 0 5721
0.07450000 0.07449140 27672.61852625 0 445.42301897 0 14596.20291543 0 1057.04716962 0 -3732.00458640 0 6028
0.07550000 0.07549160 28059.48555541 0 1147.27000841 0 13773.63990465 0 1809.49468349 0 -4165.94006837 0 6183
0.07650000 0.07648840 26523.42193332 0 236.15386543 0 12156.19469514 0 2541.30892005 0 -2559.32359253 0 6330
0.07750000 0.07749960 26786.16820127 0 -416.20647547 0 10002.86003674 0 2242.81011526 0 -2907.75858225 0 6583
0.07850000 0.07848650 26444.69770386 0 327.74967249 0 9519.86308350 0 2373.44140348 0 -2162.93436402 0 6549
0.07950000 0.07947320 25961.72289527 0 1012.46223928 0 8688.24291102 0 1681.00035397 0 -3155.93367073 0 6828
0.08050000 0.08048110 24557.08776878 0 866.20347182 0 7246.33833919 0 676.20902132 0 258.86652533 0 7147
0.08150000 0.08149960 23981.10543171 0 728.02750148 0 6531.28760240 0 1005.36266460 0 -1295.26270193 0 7386
0.08250000 0.08250610 23391.50413512 0 18.15174786 0 6682.24767898 0 1109.98949074 0 -743.29070124 0 7227
0.08350000 0.08350160 23570.65435069 0 55.60300077 0 6136.20490822 0 236.94442942 0 -1817.40032341 0 7798
0.08450000 0.08449610 23163.96786010 0 229.90243084 0 6471.88457975 0 -956.34548263 0 -1696.42410244 0 7371
0.08550000 0.08548940 23392.72209085 0 1154.98741881 0 6945.19324877 0 -1327.74890295 0 -1173.47820125 0 8256
0.08650000 0.08650700 22007.79570253 0 648.47284765 0 6739.43623666 0 -423.56846424 0 -1793.41766785 0 8037
0.08750000 0.08749060 21865.84849836 0 356.24762211 0 7148.94617008 0 706.67784476 0 -342.66963018 0 8155
0.08850000 0.08849210 21433.03132120 0 142.63258108 0 7286.63052920 0 1386.86404516 0 -1731.57873374 0 8718
0.08950000 0.08949900 21312.12153418 0 494.92959770 0 7360.70438224 0 1284.09072619 0 -1054.10968185 0 8571
0.09050000 0.09049190 20804.78761099 0 549.38772008 0 7388.70629171 0 655.69200344 0 -61.38430446 0 8932
0.09150000 0.09150830 20011.34481448 0 819.20256019 0 7525.28341834 0 -253.97587946 0 991.33624352 0 9285
0.09250000 0.09250820 19178.04164863 0 1049.08506085 0 7731.11793672 0 212.87430250 0 1840.67435018 0 9204
0.09350000 0.09350330 19103.30345611 0 206.50550126 0 8323.79733961 0 253.06351989 0 238.54880929 0 9349
0.09450000 0.09448040 18643.69125288 0 571.57112286 0 7978.16364808 0 215.71546105 0 2707.01733329 0 9564
0.09550000 0.09549270 18073.02363173 0 484.29795141 0 8123.62077922 0 556.32453158 0 1594.27083366 0 10155
0.09650000 0.09649430 17889.00159325 0 54.82339838 0 7215.72336106 0 1098.44991382 0 2452.23206688 0 9913
0.09750000 0.09749140 17820.02100963 0 147.69706245 0 7122.72690491 0 232.84545477 0 490.62910674 0 10476
0.09850000 0.09850240 17479.76846795 0 538.08619814 0 6811.98210888 0 114.98387878 0 -70.76920697 0 10575
0.09950000 0.09950330 16854.84645518 0 358.30486006 0 6245.24516303 0 -282.42068192 0 330.09146919 0 10882
0.10050000 0.10051200 16955.82605753 0 99.90769058 0 6602.71516980 0 232.29073130 0 223.73293145 0 10875
0.10150000 0.10150300 16701.16258670 0 186.49670308 0 6443.60586216 0 831.03112480 0 162.04236649 0 11118
0.10250000 0.10250800 16432.21581686 0 232.03385336 0 5979.22148694 0 1265.43385887 0 443.82196080 0 11575
0.10350000 0.10349800 16360.35642878 0 223.67646259 0 6029.77772206 0 983.00985526 0 1110.22200957 0 11364
0.10450000 0.10450100 16335.11152820 0 195.92257320 0 6426.45483102 0 -187.82538206 0 1589.60938491 0 12093
0.10550000 0.10551000 16172.34835336 0 437.24167816 0 6156.42297334 0 -113.10379802 0 2080.94379874 0 12067
0.10650000 0.10649700 15676.52964798 0 620.53405044 0 6838.52247147 0 -134.12792839 0 2438.49131178 0 12054
0.10750000 0.10749900 15451.31856117 0 26.37948171 0 6135.93917242 0 200.31274999 0 1907.76156625 0 12807
0.10850000 0.10850100 15344.80279642 0 -50.29902502 0 5973.95106033 0 640.10770625 0 1560.99849758 0 12736
0.10950000 0.10950300 15256.55636761 0 -139.14369153 0 4988.76881494 0 572.42037017 0 891.27342967 0 12933
0.11050000 0.11050200 15482.43179391 0 -161.96596745 0 4814.81151971 0 917.96105418 0 292.81648769 0 13428
0.11150000 0.11150900 15411.67963832 0 -92.93411896 0 4113.42403175 0 679.88724763 0 -119.92656458 0 13453
0.11250000 0.11250000 15082.05652847 0 227.43108794 0 3353.90683849 0 454.49900362 0 149.70558218 0 13668
0.11350000 0.11349100 15104.09045486 0 347.06645037 0 3448.32055222 0 273.38898656 0 299.08010184 0 13791
0.11450000 0.11448600 14677.58450285 0 142.87949392 0 3714.41066226 0 257.94530791 0 589.11632877 0 14205
0.11550000 0.11549300 14624.88023671 0 266.74669890 0 3668.39408032 0 -591.87333765 0 -256.59116258 0 14776
0.11650000 0.11649800 14469.64624275 0 388.32414711 0 3817.20612588 0 -568.99016394 0 178.16367142 0 14553
0.11750000 0.11747300 14049.89440888 0 343.00733609 0 4412.80862252 0 -379.44303537 0 80.71104743 0 14568
0.11850000 0.11849100 14087.31886676 0 267.72659965 0 4212.34418168 0 62.35977627 0 232.81777396 0 16015
0.11950000 0.11950300 13743.63390439 0 112.93882038 0 4081.59109790 0 490.12088703 0 109.43332235 0 15270
0.12050000 0.12050700 13775.30075337 0 127.51885770 0 3937.80588780 0 155.76878725 0 -471.54595491 0 15999
0.12150000 0.12150000 13704.88076753 0 66.58276096 0 3666.57821905 0 117.37439371 0 -259.41681987 0 15670
0.12250000 0.12250700 13899.64296109 0 -140.34282431 0 3891.36855751 0 77.65010323 0 159.25546233 0 16887
0.12350000 0.12352200 13886.02400156 0 -206.10246864 0 3865.19358164 0 -93.39915661 0 445.22371712 0 16407
0.12450000 0.12449800 14380.18185822 0 -242.51823774 0 4221.86638103 0 247.42881379 0 -92.07822825 0 16306
0.12550000 0.12549900 14215.64711141 0 333.73758575 0 4033.13860449 0 -144.43847726 0 247.07007047 0 17523
0.12650000 0.12650100 13949.24697628 0 339.01354853 0 4269.76525819 0 192.77249679 0 266.42892318 0 17154
0.12750000 0.12750600 13539.46023474 0 426.54913408 0 3932.23650842 0 22.42311861 0 527.95612817 0 18007
0.12850000 0.12850300 13274.49950183 0 349.15358360 0 4311.62971833 0 396.04045028 0 37.99268960 0 17496
0.12950000 0.12949900 13056.81759589 0 140.07598128 0 4086.25254665 0 135.83638811 0 -203.99208353 0 18405
0.13050000 0.13049000 12868.92024372 0 134.83655718 0 3944.34963177 0 289.21023150 0 121.56526865 0 18100
0.13150000 0.13148800 12651.34906103 0 158.83249952 0 3824.36992004 0 282.02097099 0 -373.39754602 0 19059
0.13250000 0.13249300 12594.88020446 0 391.52958514 0 3636.72723133 0 300.48517986 0 -275.40193521 0 18957
0.13350000 0.13349100 12301.90648976 0 99.98807566 0 3562.73088457 0 160.25640050 0 138.02981565 0 19468
0.13450000 0.13450700 12331.13742728 0 104.30251775 0 3472.67966682 0 175.35683708 0 -131.13950792 0 19953
0.13550000 0.13551000 12006.49686360 0 74.15135931 0 3226.14328241 0 361.19141514 0 597.84464242 0 19956
0.13650000 0.13649900 12106.25851021 0 5.01644963 0 3001.23114837 0 37.17090165 0 -119.55785616 0 19723
0.13750000 0.13749600 12125.30290890 0 72.82190527 0 3353.02105251 0 183.48060180 0 96.40739654 0 20946
0.13850000 0.13851100 11826.57158529 0 504.85815136 0 3482.93263960 0 -107.28495916 0 -153.27751416 0 20955
0.13950000 0.13949800 11554.30311800 0 332.44544545 0 3151.02863084 0 -137.81611979 0 521.31937667 0 20506
0.14050000 0.14048300 11405.26962594 0 211.05179783 0 3546.31062686 0 208.52177161 0 413.99090327 0 21447
0.14150000 0.14148400 11297.20373571 0 84.64903047 0 3356.59741342 0 79.79348387 0 522.43435978 0 21771
0.14250000 0.14249400 11247.15682753 0 3.51940488 0 3393.19144695 0 -6.35579125 0 73.49255598 0 22470
0.14350000 0.14350900 11050.81129152 0 238.95848531 0 3367.80260614 0 -132.19137878 0 381.67078713 0 22519
0.14450000 0.14449900 10980.53524590 0 294.76964579 0 3278.18320906 0 -45.88116741 0 195.88714176 0 22218
0.14550000 0.14550500 10836.78325278 0 7.58456465 0 3303.38382034 0 26.29034950 0 146.61861802 0 23559
0.14650000 0.14650700 10932.41492224 0 -6.95678597 0 3012.92352338 0 179.45581173 0 372.93361561 0 23044
0.14750000 0.14750500 10890.22936468 0 -34.79134832 0 3165.33407450 0 251.88985346 0 233.61165965 0 23649
0.14850000 0.14849900 10921.73012879 0 173.38264157 0 3070.68784196 0 222.98112059 0 750.98818145 0 23640
0.14950000 0.14949500 10735.26110652 0 356.71044529 0 3033.09729920 0 293.69120135 0 537.52926020 0 24457
0.15050000 0.15050000 10331.48663736 0 436.98258576 0 3140.07810159 0 151.03979732 0 614.90155880 0 24591
0.15150000 0.15149900 9988.57673772 0 358.97916464 0 3227.00692374 0 -25.80305648 0 780.69190724 0 25020
0.15250000 0.15250500 9642.77696131 0 247.65911815 0 3273.18959056 0 195.72880752 0 987.98686527 0 25297
0.15350000 0.15350100 9599.10771223 0 107.55457027 0 3223.48592445 0 251.34177338 0 533.99608135 0 25452
0.15450000 0.15450400 9450.38424526 0 -34.97736338 0 2870.66629411 0 345.38788593 0 755.91758046 0 26061
0.15550000 0.15549900 9373.13263500 0 -48.11611618 0 2585.04460308 0 398.16190771 0 601.28702821 0 26128
0.15650000 0.15649500 9476.76959530 0 18.08409596 0 2126.30711352 0 257.39390613 0 294.10752076 0 26331
0.15750000 0.15749700 9508.74646938 0 2.67631378 0 2236.70926429 0 88.62344146 0 232.62400828 0 27345
0.15850000 0.15849900 9418.48487746 0 143.91475630 0 2430.38637002 0 -455.04819093 0 41.61522211 0 26980
0.15950000 0.15949700 9254.60339782 0 257.34740236 0 2427.29719139 0 -228.17071924 0 255.52379047 0 27777
0.16050000 0.16050000 9223.83340715 0 154.83317580 0 2605.77199515 0 -74.02579915 0 97.09642731 0 28224
0.16150000 0.16150500 9094.45329164 0 111.40198170 0 2774.48100841 0 -15.24758778 0 443.14322729 0 28075
0.16250000 0.16249700 9054.05037838 0 76.61439797 0 2790.11513105 0 53.59115935 0 289.48371792 0 28590
0.16350000 0.16349900 9032.01645199 0 81.14563618 0 2670.17970862 0 392.38769032 0 322.55343045 0 29163
0.16450000 0.16449100 8962.79227722 0 -98.73269547 0 2584.39133592 0 241.13419713 0 239.05038560 0 28996
0.16550000 0.16550500 8954.85342033 0 153.37937955 0 2560.53047594 0 138.25679831 0 117.03447333 0 30777
0.16650000 0.16650700 8800.59379096 0 358.56838139 0 2384.33657110 0 42.90204770 0 226.68592048 0 29211
0.16750000 0.16749900 8464.60409433 0 234.68788962 0 2334.68826661 0 37.93766014 0 64.80842091 0 30922
0.16850000 0.16850800 8474.75741619 0 62.56782525 0 2277.63257682 0 -5.61947058 0 130.36112348 0 30867
0.16950000 0.16949900 8396.83039412 0 41.26345435 0 2441.22617602 0 0.31013028 0 55.90549669 0 30852
0.17050000 0.17049200 8423.17145486 0 72.87051278 0 2311.76855424 0 115.44338026 0 222.79289107 0 31257
0.17150000 0.17149500 8333.18667106 0 84.72631530 0 2313.00865462 0 72.53192108 0 256.04529697 0 32608
0.17250000 0.17250900 8349.55156714 0 16.02497571 0 2262.72922761 0 140.13134290 0 389.80673140 0 32361
0.17350000 0.17350400 8309.62476385 0 -2.99207434 0 2234.06297866 0 262.25354949 0 445.36655011 0 32508
0.17450000 0.17449800 8279.67412521 0 117.49065312 0 2345.52807261 0 28.77664003 0 527.45787355 0 32791
0.17550000 0.17549800 8152.28702817 0 167.19985539 0 2315.27848120 0 20.74078957 0 824.35894186 0 33633
0.17650000 0.17650100 7999.59966892 0 176.77852359 0 2297.25273640 0 136.17963018 0 814.85224377 0 33984
0.17750000 0.17750300 8046.75670033 0 2.33385784 0 2318.33444285 0 -65.01580555 0 895.95370137 0 34069
0.17850000 0.17849800 7968.97361848 0 98.64323109 0 2500.95029609 0 87.29598044 0 799.92121376 0 34536
