### header ###
fiducial parameters:
Omega_m = 0.31
Omega_nu = 0
Omega_de = 0.69
Omega_k = 0
H_0 = 100
w_de = -1
zeff = 0
beta = 0
fgrowth = 0
b_1 = 2
gamma = 0.55
Lx = 3500 Ly = 3500 Lz = 3500
nx = 700 ny = 700 nz = 700
xoffset = -685.467585 yoffset = -31.7331281 zoffset = 572.489161
bins = 400 dk = 0.001
kx_ny = 0.628318531 ky_ny = 0.628318531 kz_ny = 0.628318531
############################
A(data) = 8.06643861 (not used)
A(ran) = 8.06341552 (used)
Ngal = 478919
weighted Ngal = 0
Nran = 23820508
weighted Nran = 0
SN(data) = 3489.63246
SN(ran) = 70.2352735
SN(data+ran) = 3559.86774
############################
13 columns: k_central k_mean P_0(k) sigma^{lin}_{P_0(k)} P^img_1(k) sigma^{lin}_{P_1(k)} P_2(k) sigma^{lin}_{P_2(k)} P^img_3(k) sigma^{lin}_{P_3(k)} P_4(k) sigma^{lin}_{P_4(k)} N_modes
### header ###
0.00050000 0 0 0 0 0 0 0 0 0 0 0 0
0.00150000 0.00179520 35992.69556473 0 -36816.25508474 0 -40423.28634091 0 17802.96962941 0 63517.16638490 0 3
0.00250000 0.00253879 60139.00008273 0 -29055.21972635 0 7963.28244352 0 -18941.97968350 0 25041.83414934 0 6
0.00350000 0.00331552 76122.01168170 0 -12844.33968262 0 43953.47566284 0 -92131.48613698 0 -6144.30984999 0 7
0.00450000 0.00420575 91722.69590467 0 2167.33007698 0 56020.98103618 0 18639.04087646 0 64349.80521126 0 24
0.00550000 0.00557378 80021.02014334 0 3318.87400277 0 44511.52083370 0 67099.61707997 0 37038.80881359 0 45
0.00650000 0.00659388 90895.03962448 0 12848.10427306 0 38927.52598116 0 110925.87173064 0 8321.09569236 0 40
0.00750000 0.00754703 79036.91191345 0 -919.86106512 0 6241.70201909 0 81344.05223592 0 10905.30987108 0 57
0.00850000 0.00846663 76588.48872631 0 -7557.01670127 0 -8852.77765783 0 39287.81943075 0 8639.02642720 0 75
0.00950000 0.00948925 83851.26946785 0 -6424.18500443 0 -36658.25300957 0 -1807.81169011 0 5337.15951536 0 112
0.01050000 0.01054430 79098.36331620 0 -5536.67173626 0 -11664.14058020 0 -21324.19036823 0 22392.33754349 0 105
0.01150000 0.01145670 78954.42309355 0 9660.33766847 0 -21810.70832076 0 -17835.74371087 0 25782.79412620 0 144
0.01250000 0.01249090 74396.61130521 0 6806.81133319 0 -9560.38779234 0 -10048.21227920 0 35031.28560072 0 169
0.01350000 0.01339930 65403.11547126 0 3506.48347449 0 5234.51906429 0 -4417.14897385 0 24146.63668775 0 180
0.01450000 0.01448870 68583.19788243 0 56.72363077 0 -7671.24987643 0 15131.43909716 0 9790.64785926 0 267
0.01550000 0.01550050 70499.48513879 0 -4440.11297553 0 -6193.48204451 0 1893.21253144 0 12426.69159046 0 238
0.01650000 0.01653350 66232.87549317 0 -822.49546960 0 -4523.00039912 0 -3093.28645691 0 6558.55873843 0 315
0.01750000 0.01747870 68204.52437363 0 1247.05379967 0 -8115.95873044 0 -16647.79398108 0 -2239.26697132 0 297
0.01850000 0.01844180 66100.78265808 0 5473.57055712 0 2633.06527582 0 -14632.74158733 0 -11400.39780302 0 388
0.01950000 0.01947590 63958.17708243 0 2268.21002840 0 4131.58264445 0 -13396.84869107 0 234.04015862 0 399
0.02050000 0.02045430 62567.71453170 0 3096.71887760 0 14020.44202486 0 -21023.02313316 0 -21756.23248265 0 462
0.02150000 0.02154770 58947.83937874 0 6467.75460259 0 17931.74076705 0 -15088.58920011 0 -21297.50606542 0 571
0.02250000 0.02255340 58903.43935622 0 2018.30765724 0 24315.15747149 0 -8258.50384016 0 -34669.22057915 0 510
0.02350000 0.02348930 57206.38413127 0 -1236.74546527 0 30098.12200102 0 -13077.52284330 0 -23835.39363710 0 555
0.02450000 0.02439640 60822.16252404 0 -2599.32790210 0 33275.65777748 0 -1214.62296028 0 -29541.62695564 0 592
0.02550000 0.02547300 62749.96499822 0 -545.21566809 0 34924.32694297 0 6080.16787231 0 -25602.64740140 0 837
0.02650000 0.02652900 65475.63919882 0 -934.50310746 0 32520.74667134 0 9946.51297574 0 -13885.13821558 0 723
0.02750000 0.02749970 63798.73560504 0 1719.89743105 0 29948.75633922 0 16160.83313555 0 -8686.40490510 0 826
0.02850000 0.02848090 63386.07005905 0 2632.82168468 0 26640.23496016 0 17433.15398046 0 1232.33867999 0 831
0.02950000 0.02946900 62035.68932417 0 2138.64168337 0 21394.83180057 0 7692.90734377 0 -3840.57980357 0 996
0.03050000 0.03053250 58287.59664981 0 3509.56158079 0 21559.92016362 0 1773.52070015 0 7826.04097739 0 1041
0.03150000 0.03150510 58017.21047774 0 2197.24749864 0 23868.05699531 0 -4964.42077266 0 3126.18233395 0 1036
0.03250000 0.03246190 54824.06272329 0 1562.05036844 0 24639.57658868 0 -8554.46708256 0 8993.83907601 0 1059
0.03350000 0.03345080 55471.90444843 0 2427.25290209 0 26610.89329939 0 -596.35430750 0 8354.33481146 0 1302
0.03450000 0.03451200 55034.32617159 0 -1487.86579216 0 25205.37238691 0 5410.52473961 0 6169.44402733 0 1339
0.03550000 0.03553350 54747.22078904 0 -606.87080161 0 22999.87600628 0 11818.37806493 0 4660.97263868 0 1365
0.03650000 0.03647120 58749.09114825 0 -3406.37858581 0 23634.43094164 0 5616.10459451 0 -5863.07279959 0 1308
0.03750000 0.03744890 58355.58072419 0 1203.51741849 0 21629.89725647 0 4253.50001303 0 1913.41952424 0 1579
0.03850000 0.03847530 55616.17684081 0 4266.77573049 0 20257.15042546 0 -2703.46311702 0 2913.53833580 0 1662
0.03950000 0.03950240 50716.34093882 0 3994.89479457 0 22515.90468846 0 3460.61083277 0 5380.06477403 0 1683
0.04050000 0.04050350 48713.24665588 0 1938.55370157 0 22286.81828796 0 2398.96311218 0 3810.50736936 0 1822
0.04150000 0.04152450 47176.74014079 0 1395.86584524 0 19358.96343617 0 2349.73555604 0 -111.38648044 0 1887
0.04250000 0.04250150 45755.27508057 0 3338.17306492 0 21300.82776286 0 -4085.30032671 0 -794.06506116 0 1920
0.04350000 0.04349210 44731.74937434 0 1513.90790013 0 19674.85686325 0 -4188.98157631 0 -2009.44979739 0 2005
0.04450000 0.04448520 42288.97307285 0 768.80576655 0 21961.62410804 0 571.68959673 0 -2501.92466067 0 2151
0.04550000 0.04548030 42609.40615310 0 -461.83220435 0 19188.33891071 0 1099.76419877 0 -9022.49425265 0 2274
0.04650000 0.04648670 43332.31824051 0 200.23413649 0 18732.49129793 0 5767.90616778 0 -9149.02878067 0 2311
0.04750000 0.04749250 41346.05389129 0 1812.63922374 0 14375.75292829 0 4650.33213453 0 -9824.44059461 0 2568
0.04850000 0.04851840 40318.98504112 0 2328.68706656 0 13984.34624595 0 4869.60845524 0 -5619.33771336 0 2493
0.04950000 0.04949480 37840.66657696 0 760.51702419 0 9887.55284608 0 1995.33258324 0 -2702.49982476 0 2644
0.05050000 0.05050630 37768.91791213 0 624.46694021 0 11652.07174615 0 1784.88090542 0 -682.32426632 0 2829
0.05150000 0.05149060 37102.14251155 0 669.56451920 0 11185.26253180 0 1990.92579797 0 611.79134276 0 2784
0.05250000 0.05249300 36642.19813859 0 -129.56391610 0 11242.17428136 0 824.09209883 0 818.16729782 0 3055
0.05350000 0.05348950 36989.20479840 0 -33.52500653 0 10874.07484277 0 -545.65523939 0 300.91257160 0 3009
0.05450000 0.05448610 36654.59914238 0 853.41715112 0 11772.31719368 0 -425.24592145 0 2385.65417775 0 3336
0.05550000 0.05550870 36654.70986563 0 387.71074031 0 12659.98547439 0 1149.51769035 0 828.97499408 0 3349
0.05650000 0.05647670 35624.98365750 0 361.26449249 0 10971.06840818 0 1199.78604502 0 -291.18664148 0 3324
0.05750000 0.05747970 34833.42315621 0 1095.10385726 0 13273.06009960 0 2271.87496791 0 829.78880995 0 3639
0.05850000 0.05849280 34360.96705620 0 1647.67265626 0 11480.11854172 0 25.77515422 0 3567.91273259 0 3846
0.05950000 0.05951020 33315.40742358 0 1078.20970405 0 12778.79151970 0 610.29436445 0 3512.66183174 0 3787
0.06050000 0.06049470 32645.31032555 0 165.00310614 0 11113.51386697 0 29.04735838 0 5970.08681897 0 3930
0.06150000 0.06148310 32704.65798658 0 118.19042404 0 12177.67500529 0 1113.24475424 0 3672.29153865 0 4083
0.06250000 0.06249100 33261.26375521 0 -144.73964449 0 13931.97414956 0 607.77541055 0 3028.45799510 0 4303
0.06350000 0.06350600 31899.36780252 0 1474.44613448 0 12029.41657597 0 -1060.97452324 0 1737.51349984 0 4470
0.06450000 0.06451750 32021.93843826 0 1261.02707360 0 14045.24403245 0 -889.89381800 0 2010.00341363 0 4479
0.06550000 0.06550280 30980.36484257 0 -333.87045365 0 11985.12727670 0 -253.36579436 0 1081.86910740 0 4636
0.06650000 0.06648880 30831.33135051 0 795.88867306 0 12183.21116770 0 617.41608377 0 -1379.55631078 0 4653
0.06750000 0.06749660 30782.83456781 0 -540.77788031 0 10328.89571335 0 1888.24105760 0 -1403.06285637 0 5220
0.06850000 0.06852730 30841.07499635 0 -1103.73030552 0 9313.12063449 0 1883.93392324 0 -4168.43134145 0 5029
0.06950000 0.06949320 32067.99930951 0 -88.32371363 0 8752.96064959 0 1021.31345574 0 -4643.45622082 0 5040
0.07050000 0.07048030 30710.53228674 0 1154.24557304 0 7661.42872431 0 879.67627666 0 -4960.19114458 0 5475
0.07150000 0.07148790 30516.98804891 0 1533.04087742 0 9229.83460720 0 -650.75596103 0 -2199.15193851 0 5509
0.07250000 0.07249820 28736.89038782 0 1500.43288082 0 8843.88658100 0 -291.22871631 0 -400.72182921 0 5916
0.07350000 0.07351270 28147.62126097 0 1039.04356947 0 10059.99323280 0 130.78740799 0 -1442.81250247 0 5721
0.07450000 0.07449140 27325.72258968 0 832.02652680 0 10566.00954934 0 38.30581494 0 1063.74260444 0 6028
0.07550000 0.07549160 26723.05594980 0 672.68580757 0 10518.36533564 0 455.68374238 0 1407.94575161 0 6183
0.07650000 0.07648840 26034.24662283 0 475.09684948 0 10543.38878973 0 978.78687057 0 3142.33685586 0 6330
0.07750000 0.07749960 26224.24771672 0 56.44383312 0 9369.35697224 0 1714.41663027 0 1837.21978483 0 6583
0.07850000 0.07848650 25531.78452256 0 19.84094174 0 9777.43857576 0 1290.37980669 0 893.87985493 0 6549
0.07950000 0.07947320 25078.15137474 0 983.36970582 0 9054.24968023 0 893.13800917 0 604.40831657 0 6828
0.08050000 0.08048110 24136.45014892 0 981.45640809 0 9652.55382413 0 -57.09089978 0 1850.37370672 0 7147
0.08150000 0.08149960 23837.05448582 0 257.34850960 0 8861.60230071 0 846.62870877 0 2655.13241919 0 7386
0.08250000 0.08250610 23561.35359784 0 214.59937071 0 9494.38566409 0 220.40016168 0 1760.35570594 0 7227
0.08350000 0.08350160 23560.46781185 0 848.01164214 0 9301.55005505 0 -565.26432664 0 1362.28348406 0 7798
0.08450000 0.08449610 22782.41554685 0 842.62938505 0 9728.68712958 0 -528.34365953 0 2597.88849987 0 7371
0.08550000 0.08548940 22225.03471548 0 122.69686025 0 9466.58305647 0 765.14525597 0 2808.36232235 0 8256
0.08650000 0.08650700 22735.91178261 0 -399.75410802 0 8885.45208837 0 1952.09515483 0 1336.41853329 0 8037
0.08750000 0.08749060 22608.80149369 0 -175.17746542 0 7642.39539795 0 1979.89776245 0 175.72886720 0 8155
0.08850000 0.08849210 22352.03428115 0 615.34223733 0 6665.31809433 0 20.73458907 0 -413.11065345 0 8718
0.08950000 0.08949900 21786.45992941 0 585.53664615 0 6618.61502824 0 -681.55252528 0 1031.37155560 0 8571
0.09050000 0.09049190 21173.82819719 0 846.75271881 0 6892.72150145 0 -268.71757272 0 184.05304100 0 8932
0.09150000 0.09150830 20339.19635236 0 209.76630092 0 6935.75962802 0 310.90534475 0 16.56054406 0 9285
0.09250000 0.09250820 20082.76130956 0 242.31229249 0 7135.15005336 0 547.06585357 0 -947.25731842 0 9204
0.09350000 0.09350330 20054.41615803 0 269.43063044 0 6903.68310302 0 653.34134888 0 -537.22144957 0 9349
0.09450000 0.09448040 19807.50331457 0 361.32428304 0 7281.08329447 0 877.16839509 0 -424.13758174 0 9564
0.09550000 0.09549270 19446.87769523 0 393.30115712 0 6392.01990083 0 506.51678562 0 408.27536920 0 10155
0.09650000 0.09649430 19114.81867392 0 426.44283976 0 6444.58022674 0 698.61497783 0 1501.15258194 0 9913
0.09750000 0.09749140 18534.96102317 0 499.21015847 0 5655.03488858 0 1079.80301159 0 953.81434918 0 10476
0.09850000 0.09850240 18187.84364010 0 403.15220451 0 5125.51202645 0 824.21500164 0 1183.62045079 0 10575
0.09950000 0.09950330 17704.64738502 0 406.84371760 0 5489.21575209 0 -270.52346890 0 619.23748120 0 10882
0.10050000 0.10051200 17576.76203336 0 520.50223910 0 4995.25719728 0 -320.77300062 0 76.04716277 0 10875
0.10150000 0.10150300 17031.22858955 0 425.55594654 0 5344.27902022 0 -1148.38831322 0 -142.72005245 0 11118
0.10250000 0.10250800 16748.55213693 0 297.46575688 0 5882.22792153 0 -699.95915806 0 -1340.17205140 0 11575
0.10350000 0.10349800 16393.13051025 0 52.74611952 0 6287.12069550 0 -282.55133535 0 -1043.92978641 0 11364
0.10450000 0.10450100 16614.13411363 0 181.49644119 0 5431.35178259 0 451.80842869 0 -2085.05163125 0 12093
0.10550000 0.10551000 16555.34006884 0 250.99631685 0 5571.11773878 0 440.41279199 0 -2293.58779688 0 12067
0.10650000 0.10649700 16164.37627949 0 152.50245142 0 5378.00532161 0 312.56730070 0 -2050.98208778 0 12054
0.10750000 0.10749900 15853.24395209 0 367.73848081 0 5282.71689422 0 563.59462006 0 -819.77278492 0 12807
0.10850000 0.10850100 15999.39863970 0 7.86384189 0 4752.38575239 0 579.69710204 0 -757.94824483 0 12736
0.10950000 0.10950300 15822.46288909 0 -240.21187248 0 5019.25092516 0 776.39695245 0 -591.75264931 0 12933
0.11050000 0.11050200 16315.51351327 0 -200.49655058 0 4783.31075560 0 810.56503960 0 -621.48405591 0 13428
0.11150000 0.11150900 15888.56466826 0 431.92585501 0 4898.69545254 0 257.34408067 0 283.50909145 0 13453
0.11250000 0.11250000 15772.63742741 0 734.70522057 0 4598.93440272 0 174.66813848 0 1252.64532371 0 13668
0.11350000 0.11349100 15121.91689782 0 555.20511954 0 5048.36006711 0 135.61383438 0 1406.17417964 0 13791
0.11450000 0.11448600 14860.27786235 0 314.76847887 0 4994.19425410 0 626.22854709 0 2229.31295131 0 14205
0.11550000 0.11549300 14427.46068519 0 244.95082750 0 4666.55309039 0 570.52368093 0 1260.67275920 0 14776
0.11650000 0.11649800 14269.90150302 0 272.21199843 0 4783.34397258 0 144.90683660 0 1686.73581822 0 14553
0.11750000 0.11747300 13926.32726390 0 -0.96972307 0 4655.97902019 0 141.44673509 0 2073.18209904 0 14568
0.11850000 0.11849100 14277.87357689 0 -85.91415430 0 4552.69637428 0 220.66921917 0 1905.52495664 0 16015
0.11950000 0.11950300 14329.69205704 0 -207.05247411 0 4573.16910287 0 98.26488975 0 2373.18674000 0 15270
0.12050000 0.12050700 14403.32301709 0 -53.01672714 0 4613.88204123 0 302.22796378 0 1911.80296481 0 15999
0.12150000 0.12150000 14577.71213298 0 157.69647900 0 4328.67002623 0 325.24732708 0 1712.36825018 0 15670
0.12250000 0.12250700 14293.15338514 0 438.51720998 0 4944.16949057 0 -303.90542099 0 822.37256679 0 16887
0.12350000 0.12352200 13836.08781663 0 669.63427485 0 4818.03356624 0 -576.36322504 0 1479.73870574 0 16407
0.12450000 0.12449800 13447.33849225 0 372.21391450 0 4847.29772073 0 -318.55853566 0 1802.80699930 0 16306
0.12550000 0.12549900 13382.01177582 0 -38.72811341 0 4915.44787999 0 209.42527332 0 932.56655785 0 17523
0.12650000 0.12650100 13347.13395264 0 -61.26671637 0 4854.25114072 0 203.55361947 0 291.99713565 0 17154
0.12750000 0.12750600 13243.71843883 0 129.54287868 0 4459.83278603 0 214.47757513 0 -499.45042792 0 18007
0.12850000 0.12850300 13259.66258657 0 108.23053570 0 4515.98054518 0 106.19953916 0 104.62184360 0 17496
0.12950000 0.12949900 12955.17365406 0 81.37439041 0 3736.77675840 0 756.70592999 0 -74.21281071 0 18405
0.13050000 0.13049000 12938.67589008 0 -34.69656922 0 3515.82851664 0 916.33452967 0 -150.63122853 0 18100
0.13150000 0.13148800 12844.89329886 0 66.38113392 0 2752.10383995 0 788.86549742 0 -229.00114360 0 19059
0.13250000 0.13249300 12616.24979136 0 200.96601716 0 2808.90486627 0 708.64318242 0 85.53736309 0 18957
0.13350000 0.13349100 12417.50156086 0 247.16418523 0 2281.76255398 0 -261.55377856 0 -134.99489142 0 19468
0.13450000 0.13450700 12193.72987628 0 305.25735186 0 2702.07907642 0 -7.20167258 0 71.58977696 0 19953
0.13550000 0.13551000 12071.38068703 0 352.59707662 0 2949.47910217 0 -829.28059024 0 197.92666399 0 19956
0.13650000 0.13649900 11982.02702575 0 241.21723957 0 3067.72045890 0 -668.92343159 0 283.59102665 0 19723
0.13750000 0.13749600 11863.22098044 0 63.54894396 0 3400.69848317 0 -139.78810084 0 483.43431007 0 20946
0.13850000 0.13851100 11789.81146689 0 14.74634364 0 3486.59757912 0 41.59994230 0 481.91850880 0 20955
0.13950000 0.13949800 11872.30028679 0 127.62072309 0 3341.50583469 0 576.10745434 0 396.71586209 0 20506
0.14050000 0.14048300 11725.81342944 0 230.51915933 0 3063.01472086 0 541.95929736 0 181.04690481 0 21447
0.14150000 0.14148400 11485.43325763 0 151.15716396 0 2732.90442871 0 605.95512035 0 689.95863428 0 21771
0.14250000 0.14249400 11291.99974305 0 119.51245963 0 2638.47964266 0 470.98680251 0 266.35806030 0 22470
0.14350000 0.14350900 11195.44907063 0 88.90822166 0 2417.15494186 0 413.15826445 0 333.90588509 0 22519
0.14450000 0.14449900 11010.59660778 0 189.11973683 0 2388.92051357 0 -93.46514766 0 247.88720804 0 22218
0.14550000 0.14550500 10910.42528515 0 235.55263819 0 2069.63895510 0 -355.36737229 0 94.16325774 0 23559
0.14650000 0.14650700 10790.06911437 0 59.78092110 0 2608.03074941 0 -190.37312400 0 -31.94897182 0 23044
0.14750000 0.14750500 10684.32841235 0 90.68721209 0 2364.05207203 0 -372.85389487 0 -293.35903161 0 23649
0.14850000 0.14849900 10693.29699545 0 239.11239062 0 2676.80095886 0 -128.05032930 0 -153.35723490 0 23640
0.14950000 0.14949500 10510.54827432 0 175.28154527 0 2429.17948661 0 -64.85802492 0 -567.75449249 0 24457
0.15050000 0.15050000 10405.85944316 0 118.07859356 0 2760.61845773 0 -1.79557677 0 -376.72145793 0 24591
0.15150000 0.15149900 10327.47845577 0 168.51303311 0 2578.96589676 0 89.17218588 0 -850.98566859 0 25020
0.15250000 0.15250500 10077.34356579 0 247.79309328 0 2751.57236836 0 43.39055867 0 -569.63568048 0 25297
0.15350000 0.15350100 9969.52126671 0 134.57414308 0 2793.34824990 0 -25.49469223 0 -470.48522619 0 25452
0.15450000 0.15450400 9939.31596460 0 41.18672314 0 2888.03877175 0 75.25615588 0 -552.12922771 0 26061
0.15550000 0.15549900 9945.00713956 0 71.80125837 0 2859.68254789 0 89.72812731 0 -499.51464740 0 26128
0.15650000 0.15649500 9876.34765336 0 90.92892094 0 2988.15473276 0 -97.45040953 0 -262.44842241 0 26331
0.15750000 0.15749700 9777.68216690 0 202.68887090 0 2914.05873507 0 125.90229828 0 -91.90959675 0 27345
0.15850000 0.15849900 9601.92008273 0 205.35730118 0 3085.65762511 0 159.22335259 0 330.00067613 0 26980
0.15950000 0.15949700 9361.06380095 0 219.79450551 0 2770.89357517 0 294.42197479 0 361.11723057 0 27777
0.16050000 0.16050000 9310.17539608 0 15.17107802 0 2907.79179922 0 500.69938616 0 415.88427082 0 28224
0.16150000 0.16150500 9282.51672869 0 9.91334029 0 2584.01487688 0 352.96910673 0 732.07000727 0 28075
0.16250000 0.16249700 9344.07885468 0 13.89687488 0 2427.65150579 0 415.77797650 0 470.45975985 0 28590
0.16350000 0.16349900 9219.98023811 0 112.04860547 0 2275.13023141 0 86.85508047 0 339.73103518 0 29163
0.16450000 0.16449100 9066.56210542 0 203.82932035 0 2226.63344870 0 -221.15418700 0 264.23771010 0 28996
0.16550000 0.16550500 8933.55026738 0 290.91758398 0 2169.66633751 0 -285.84867368 0 152.62756870 0 30777
0.16650000 0.16650700 8710.58686250 0 168.93599592 0 2147.98672552 0 -242.62231759 0 213.10682132 0 29211
0.16750000 0.16749900 8696.12640629 0 43.27064539 0 2373.26424628 0 71.84521550 0 47.54666651 0 30922
0.16850000 0.16850800 8688.22076637 0 -7.12623683 0 2432.32402686 0 -0.51779063 0 -38.80196582 0 30867
0.16950000 0.16949900 8681.37806963 0 140.59748778 0 2693.92984535 0 42.02467668 0 113.67402275 0 30852
0.17050000 0.17049200 8585.77961715 0 184.00100107 0 2602.87104604 0 117.98447880 0 85.44967028 0 31257
0.17150000 0.17149500 8430.98851618 0 140.14573693 0 2781.60051327 0 45.50803007 0 419.45952450 0 32608
0.17250000 0.17250900 8418.35499357 0 24.66227485 0 2435.24712061 0 225.57647353 0 222.88479137 0 32361
0.17350000 0.17350400 8241.15350717 0 54.51193389 0 2335.75120979 0 371.27276689 0 328.89012195 0 32508
0.17450000 0.17449800 8296.28261244 0 75.07169095 0 2252.86378620 0 222.87261181 0 24.64278756 0 32791
0.17550000 0.17549800 8146.14188790 0 32.76810241 0 1767.64129567 0 272.70250242 0 38.45529133 0 33633
0.17650000 0.17650100 8156.90418762 0 18.70602844 0 1792.74225604 0 88.14334546 0 -153.91860177 0 33984
0.17750000 0.17750300 8085.96380251 0 102.79834242 0 1689.53711640 0 68.58618741 0 -91.85202066 0 34069
0.17850000 0.17849800 8044.32078887 0 150.96782720 0 1703.38859475 0 -14.80070875 0 215.43976016 0 34536
