### header ###
fiducial parameters:
Omega_m = 0.31
Omega_nu = 0
Omega_de = 0.69
Omega_k = 0
H_0 = 100
w_de = -1
zeff = 0
beta = 0
fgrowth = 0
b_1 = 2
gamma = 0.55
Lx = 3500 Ly = 3500 Lz = 3500
nx = 700 ny = 700 nz = 700
xoffset = -685.467585 yoffset = -31.7331281 zoffset = 572.489161
bins = 400 dk = 0.001
kx_ny = 0.628318531 ky_ny = 0.628318531 kz_ny = 0.628318531
############################
A(data) = 8.08821146 (not used)
A(ran) = 8.09108285 (used)
Ngal = 480390
weighted Ngal = 0
Nran = 23820508
weighted Nran = 0
SN(data) = 3480.82676
SN(ran) = 70.476266
SN(data+ran) = 3551.30303
############################
13 columns: k_central k_mean P_0(k) sigma^{lin}_{P_0(k)} P^img_1(k) sigma^{lin}_{P_1(k)} P_2(k) sigma^{lin}_{P_2(k)} P^img_3(k) sigma^{lin}_{P_3(k)} P_4(k) sigma^{lin}_{P_4(k)} N_modes
### header ###
0.00050000 0 0 0 0 0 0 0 0 0 0 0 0
0.00150000 0.00179520 10040.00768650 0 -7954.94498293 0 -1390.62863560 0 -4773.84391788 0 -42406.56116242 0 3
0.00250000 0.00253879 26204.87114829 0 -14599.52461287 0 3095.67807907 0 14199.59224042 0 25262.61630622 0 6
0.00350000 0.00331552 35798.15481766 0 -13369.50004877 0 20114.98177479 0 -62055.61950884 0 8785.17004248 0 7
0.00450000 0.00420575 57359.73583000 0 -19415.87518574 0 18050.87898209 0 -24812.19413260 0 21869.61308880 0 24
0.00550000 0.00557378 81819.83003337 0 -17294.86064348 0 37923.04467361 0 -22474.93708663 0 -19633.66781492 0 45
0.00650000 0.00659388 102896.22177216 0 -850.29696998 0 54055.08976463 0 -12761.18652323 0 6633.21942468 0 40
0.00750000 0.00754703 91762.44555077 0 14751.87980238 0 60753.84627991 0 -30741.86696598 0 -32703.77220059 0 57
0.00850000 0.00846663 77353.03275503 0 29381.63186201 0 46520.92634178 0 7543.22058455 0 -6022.96824230 0 75
0.00950000 0.00948925 72061.45800095 0 -426.46387718 0 29302.13256981 0 31356.15954692 0 -31089.53796528 0 112
0.01050000 0.01054430 67215.32287433 0 -9971.50321285 0 4501.01076203 0 28576.23095470 0 -31928.93090979 0 105
0.01150000 0.01145670 82027.76829347 0 -7712.23962291 0 5288.88417915 0 13838.63445134 0 -63843.68924380 0 144
0.01250000 0.01249090 77211.74989035 0 2384.73517479 0 -5503.76478690 0 -21015.49395229 0 -36788.68499594 0 169
0.01350000 0.01339930 73694.07229546 0 11561.16795939 0 -6716.02934200 0 -13910.05094642 0 -20374.07417554 0 180
0.01450000 0.01448870 71138.80117382 0 -1301.08674479 0 333.17843335 0 -10973.18322222 0 -15253.78828641 0 267
0.01550000 0.01550050 74814.03795087 0 -8319.56771153 0 19469.57596111 0 -5034.68574596 0 -3056.27167504 0 238
0.01650000 0.01653350 84107.59378740 0 -2674.12145625 0 13942.16068839 0 -1326.81882767 0 -16216.30548289 0 315
0.01750000 0.01747870 84836.81709996 0 457.56493036 0 26970.30096300 0 8288.19981532 0 9744.07766108 0 297
0.01850000 0.01844180 84952.08000132 0 779.17499874 0 9846.31950845 0 -3399.20371932 0 5394.45879629 0 388
0.01950000 0.01947590 82375.32856952 0 4592.02527204 0 27447.51816269 0 2947.23142023 0 -5000.59405785 0 399
0.02050000 0.02045430 83592.73068333 0 3957.28210716 0 21709.17510218 0 -2068.86389236 0 -11958.11080414 0 462
0.02150000 0.02154770 78615.16706111 0 202.84720514 0 26231.88762085 0 -6858.25335429 0 -11062.20471376 0 571
0.02250000 0.02255340 76937.37768134 0 4472.77633374 0 20785.07887281 0 3585.49558440 0 -20222.27260228 0 510
0.02350000 0.02348930 77141.32990450 0 3029.04482831 0 24808.20809567 0 -11046.49308484 0 -25151.33944180 0 555
0.02450000 0.02439640 67194.39618042 0 2445.95405871 0 18802.02549779 0 3670.34280948 0 -29133.72250932 0 592
0.02550000 0.02547300 68840.07581822 0 6681.29545904 0 22085.30197626 0 -2358.62663287 0 -26142.53395956 0 837
0.02650000 0.02652900 61793.86975013 0 2112.95388979 0 16262.58780063 0 56.87487873 0 -19584.28524623 0 723
0.02750000 0.02749970 61440.10897217 0 3473.95298418 0 18575.48573200 0 6109.96349840 0 -24000.59272339 0 826
0.02850000 0.02848090 55683.27512921 0 3352.58923184 0 14697.95758051 0 1301.29711896 0 -14214.65060218 0 831
0.02950000 0.02946900 56130.26488214 0 2620.57569343 0 22204.32946807 0 -1522.84326626 0 -20536.50518063 0 996
0.03050000 0.03053250 52403.54179468 0 1183.52079987 0 22767.57863159 0 1779.63262345 0 -8872.23173253 0 1041
0.03150000 0.03150510 51483.87449525 0 -1072.93595574 0 21072.51642510 0 4682.54152743 0 -7503.60380635 0 1036
0.03250000 0.03246190 56262.80061022 0 -3135.47201447 0 23420.18145640 0 -2124.88985595 0 -17351.32950005 0 1059
0.03350000 0.03345080 57430.82015534 0 831.42862126 0 27453.05432510 0 1507.87348310 0 -16202.90796986 0 1302
0.03450000 0.03451200 52957.82237510 0 5959.66776131 0 27692.77015742 0 -7431.57833340 0 -15128.56029271 0 1339
0.03550000 0.03553350 49961.54055593 0 3485.92216730 0 24362.32557522 0 -2942.23780173 0 -3578.55323674 0 1365
0.03650000 0.03647120 50089.64735408 0 -2130.31529511 0 27700.07789180 0 4150.68240477 0 -6462.34023575 0 1308
0.03750000 0.03744890 50257.17162859 0 960.87849241 0 30286.68369268 0 7560.93630426 0 -3255.69531735 0 1579
0.03850000 0.03847530 50768.93448171 0 2032.07055699 0 22586.54612080 0 10755.26879746 0 2739.73605313 0 1662
0.03950000 0.03950240 49155.47530913 0 -68.82468529 0 22134.90599145 0 5427.90828957 0 1904.10769906 0 1683
0.04050000 0.04050350 47581.98722915 0 1781.78065447 0 20977.95877115 0 6310.28399902 0 11113.84603672 0 1822
0.04150000 0.04152450 45305.51724644 0 1917.37234420 0 20292.80331137 0 1530.80426780 0 2002.76211320 0 1887
0.04250000 0.04250150 43922.36243010 0 1801.93228564 0 18766.15116538 0 2417.80820902 0 11045.69587746 0 1920
0.04350000 0.04349210 44145.13760545 0 49.48554131 0 16672.70671192 0 -3959.10904075 0 3831.05760423 0 2005
0.04450000 0.04448520 42923.97090120 0 2038.83574746 0 18065.16228111 0 -1234.99603795 0 4313.98812352 0 2151
0.04550000 0.04548030 42011.27916640 0 152.28654109 0 16970.22007979 0 2213.98885376 0 -796.97818982 0 2274
0.04650000 0.04648670 43271.53117726 0 -1306.83328137 0 14365.56638946 0 1002.38420923 0 -2546.75650386 0 2311
0.04750000 0.04749250 43835.99829651 0 200.87965302 0 16432.43726335 0 1570.96358992 0 -6402.80434520 0 2568
0.04850000 0.04851840 41147.85927704 0 1491.40893610 0 12231.48650391 0 -829.99918413 0 -5835.01552850 0 2493
0.04950000 0.04949480 41753.51544462 0 2453.84862631 0 14670.49821496 0 -897.16058478 0 -2019.48132367 0 2644
0.05050000 0.05050630 40228.63487059 0 208.40994113 0 14075.25003271 0 1011.28303668 0 -5659.06521481 0 2829
0.05150000 0.05149060 40224.98100340 0 840.67179802 0 14425.57838997 0 987.03132363 0 -2871.93961146 0 2784
0.05250000 0.05249300 37903.11448893 0 817.74212055 0 12244.44112395 0 2703.68456352 0 -3316.43809131 0 3055
0.05350000 0.05348950 38246.57800481 0 -6.63017454 0 12841.01798518 0 1717.93762956 0 303.04953029 0 3009
0.05450000 0.05448610 38313.89773971 0 -506.57879064 0 13036.44451823 0 5102.19371038 0 -1501.37402843 0 3336
0.05550000 0.05550870 38242.48124463 0 165.02967972 0 12790.97107700 0 1704.29652539 0 557.76725551 0 3349
0.05650000 0.05647670 37632.28542387 0 2793.37039455 0 9525.14458244 0 1102.64632492 0 1981.22644142 0 3324
0.05750000 0.05747970 35959.81076001 0 1261.84642563 0 12066.28741762 0 -966.59513372 0 7726.43434332 0 3639
0.05850000 0.05849280 35045.67962299 0 413.13501256 0 11895.88433866 0 916.44525291 0 4196.59933579 0 3846
0.05950000 0.05951020 35480.82198836 0 -224.73386961 0 13954.89386193 0 -746.21490222 0 3911.77485215 0 3787
0.06050000 0.06049470 35841.33688445 0 734.36087127 0 12765.83689966 0 -416.05589185 0 1785.44559398 0 3930
0.06150000 0.06148310 34918.79078056 0 682.41395215 0 15592.82287236 0 -2561.29446635 0 2277.44434730 0 4083
0.06250000 0.06249100 34329.18948397 0 1065.97699959 0 15659.92116076 0 -1345.85215403 0 2260.62548590 0 4303
0.06350000 0.06350600 33115.99485359 0 1120.61892257 0 15819.25191490 0 1701.59487813 0 -1364.44258740 0 4470
0.06450000 0.06451750 32992.75987836 0 265.40030421 0 16457.23927095 0 2228.79255204 0 -2855.64114933 0 4479
0.06550000 0.06550280 32294.09618230 0 157.78062867 0 15833.42449066 0 408.21890034 0 -2300.54121687 0 4636
0.06650000 0.06648880 32145.94847623 0 1002.08968539 0 15065.66948774 0 2383.72759323 0 -2405.49578383 0 4653
0.06750000 0.06749660 31108.91453372 0 367.44838590 0 12947.64447318 0 818.94678949 0 -895.38126218 0 5220
0.06850000 0.06852730 30635.57264772 0 1173.09066989 0 12048.68242115 0 1583.40888302 0 -2087.11108367 0 5029
0.06950000 0.06949320 29330.69916784 0 338.53854580 0 10441.72270325 0 667.13635837 0 -1833.83165344 0 5040
0.07050000 0.07048030 29131.95093735 0 880.75250663 0 10021.61655498 0 1475.87446438 0 -2328.99709165 0 5475
0.07150000 0.07148790 28631.48185554 0 188.34467410 0 10471.93907768 0 -266.99250451 0 -2837.80363404 0 5509
0.07250000 0.07249820 27936.02913369 0 1097.12787824 0 10269.14944863 0 -750.37366742 0 -2937.93066738 0 5916
0.07350000 0.07351270 27643.49831198 0 1086.58259608 0 10816.90842973 0 -829.63711910 0 -600.55404030 0 5721
0.07450000 0.07449140 26694.48935177 0 393.82155638 0 11940.72725417 0 -293.76649316 0 130.23379175 0 6028
0.07550000 0.07549160 26138.21575288 0 583.85586724 0 11906.18160074 0 266.10561130 0 563.23698397 0 6183
0.07650000 0.07648840 26455.43785894 0 -260.46979796 0 13431.83723750 0 1083.29079391 0 47.68717431 0 6330
0.07750000 0.07749960 26635.25241399 0 152.33193762 0 13104.20714612 0 1223.48082014 0 773.83149479 0 6583
0.07850000 0.07848650 26186.15891935 0 486.92984301 0 13201.31143478 0 694.35988340 0 1032.93828956 0 6549
0.07950000 0.07947320 26057.49850495 0 414.89219051 0 11686.94956933 0 1263.14188764 0 573.47888442 0 6828
0.08050000 0.08048110 25017.25358824 0 572.48680412 0 12061.30487145 0 337.70590697 0 1765.93615765 0 7147
0.08150000 0.08149960 25241.13599608 0 687.95122179 0 10975.45304881 0 474.52883922 0 217.83913295 0 7386
0.08250000 0.08250610 23798.41207221 0 1154.67739371 0 11126.02559402 0 51.85601533 0 1211.38984143 0 7227
0.08350000 0.08350160 23370.79888771 0 716.87434869 0 10746.23378041 0 625.40033720 0 1771.00728242 0 7798
0.08450000 0.08449610 22843.86694959 0 351.22743004 0 10935.67018573 0 1398.67821574 0 1594.39262924 0 7371
0.08550000 0.08548940 22543.36405401 0 432.64998506 0 9843.14175123 0 2225.94696457 0 1930.90272512 0 8256
0.08650000 0.08650700 22007.35280954 0 -168.56950197 0 9080.18106495 0 1364.75261250 0 -409.10025740 0 8037
0.08750000 0.08749060 21588.15459191 0 711.16767247 0 8974.45143526 0 -305.81982596 0 1261.40353264 0 8155
0.08850000 0.08849210 21199.18382103 0 921.95262728 0 8305.35084647 0 -91.13331605 0 -388.60759862 0 8718
0.08950000 0.08949900 20390.46121627 0 496.45204236 0 7905.90565631 0 255.69651873 0 1388.29237506 0 8571
0.09050000 0.09049190 20431.20737161 0 -364.25402019 0 7380.26918019 0 446.33537853 0 36.56480259 0 8932
0.09150000 0.09150830 20504.83833165 0 -296.30980617 0 8015.94242036 0 387.56790732 0 -1030.26543035 0 9285
0.09250000 0.09250820 21010.06851313 0 507.36603293 0 8114.55254519 0 -41.70778674 0 -1200.35073359 0 9204
0.09350000 0.09350330 20080.98973759 0 708.87348677 0 8487.77847018 0 -347.11849030 0 -502.80644957 0 9349
0.09450000 0.09448040 19595.24684780 0 625.66053683 0 8522.20232804 0 294.46072792 0 1955.45006925 0 9564
0.09550000 0.09549270 19112.05059271 0 336.44476917 0 9588.86581177 0 1724.49244585 0 1250.35335247 0 10155
0.09650000 0.09649430 18964.12433314 0 486.77483047 0 8879.69447946 0 1636.19065543 0 1917.77094789 0 9913
0.09750000 0.09749140 18267.23220905 0 445.67546797 0 8112.29379093 0 1063.70274407 0 1880.42399628 0 10476
0.09850000 0.09850240 18100.92589027 0 238.48569704 0 7163.94917021 0 543.53599642 0 2644.86837408 0 10575
0.09950000 0.09950330 17620.49771639 0 154.83539026 0 7246.19439896 0 666.05680670 0 3218.59195688 0 10882
0.10050000 0.10051200 17780.27136353 0 135.49093157 0 6070.05883975 0 678.94831448 0 2677.57602159 0 10875
0.10150000 0.10150300 17307.70454027 0 166.72485265 0 5693.37834942 0 433.82032979 0 1607.21438138 0 11118
0.10250000 0.10250800 17061.23458980 0 399.25253171 0 5635.92405594 0 -117.12194470 0 397.75001723 0 11575
0.10350000 0.10349800 16695.07280805 0 588.52949555 0 5858.56636339 0 -152.09720434 0 470.26156523 0 11364
0.10450000 0.10450100 16287.61125473 0 663.63861096 0 5550.43463601 0 -638.79895746 0 250.74165338 0 12093
0.10550000 0.10551000 15616.51764747 0 269.36530372 0 5512.31262166 0 115.29944003 0 232.59079130 0 12067
0.10650000 0.10649700 15658.59248178 0 -14.65377900 0 5756.20272044 0 -91.40824188 0 -125.39186411 0 12054
0.10750000 0.10749900 15589.72262141 0 171.91445130 0 5198.36792376 0 453.70290347 0 328.98977287 0 12807
0.10850000 0.10850100 15646.74509422 0 -279.01040587 0 5223.60175202 0 318.39466525 0 -267.91815087 0 12736
0.10950000 0.10950300 16080.33733412 0 -177.29560116 0 5104.08707793 0 196.91908243 0 -195.99786501 0 12933
0.11050000 0.11050200 16121.19421270 0 178.30318272 0 5389.58697337 0 210.83920920 0 -486.37954847 0 13428
0.11150000 0.11150900 15989.76571710 0 244.68398447 0 5297.85276225 0 -287.14856461 0 -462.07247380 0 13453
0.11250000 0.11250000 15619.39645192 0 458.87257192 0 5660.12815799 0 -91.16819388 0 486.97634678 0 13668
0.11350000 0.11349100 15385.32750525 0 375.18904818 0 5854.81284528 0 145.78044303 0 -353.77517198 0 13791
0.11450000 0.11448600 14951.18164911 0 182.36783316 0 5831.15128714 0 490.40987471 0 188.96361705 0 14205
0.11550000 0.11549300 14945.31331696 0 328.14938342 0 5456.62990015 0 474.03722800 0 -63.38773091 0 14776
0.11650000 0.11649800 14681.23837004 0 -29.39325780 0 5344.03542907 0 674.64671629 0 765.88267280 0 14553
0.11750000 0.11747300 14675.81293087 0 -71.02309538 0 5089.64876636 0 445.29347277 0 380.79828793 0 14568
0.11850000 0.11849100 14911.54272626 0 -56.15661702 0 5130.38384937 0 201.70564845 0 125.63545525 0 16015
0.11950000 0.11950300 14773.24938928 0 101.04016796 0 4956.45977112 0 -58.15018910 0 -235.83830417 0 15270
0.12050000 0.12050700 14592.10615525 0 186.22653836 0 4656.11188809 0 96.37373667 0 190.78944342 0 15999
0.12150000 0.12150000 14469.42479626 0 239.16000162 0 4782.81250099 0 -71.68544185 0 -46.57617724 0 15670
0.12250000 0.12250700 14277.65213040 0 180.94503942 0 4887.86671887 0 561.29157650 0 -220.12999695 0 16887
0.12350000 0.12352200 14117.21414377 0 116.25830336 0 4278.53453945 0 739.90699877 0 -278.70259524 0 16407
0.12450000 0.12449800 13954.11879920 0 279.76332396 0 3992.93499307 0 374.94988596 0 -494.28740286 0 16306
0.12550000 0.12549900 13824.24042907 0 195.42321135 0 3934.68349220 0 310.34397788 0 190.70972268 0 17523
0.12650000 0.12650100 13491.73851477 0 404.17085839 0 4099.93794012 0 39.27143239 0 357.88521895 0 17154
0.12750000 0.12750600 13394.08060987 0 313.48298196 0 4052.11656923 0 -148.93716283 0 314.14289252 0 18007
0.12850000 0.12850300 13144.73185495 0 315.29109261 0 4300.18093447 0 -295.38194535 0 513.32847985 0 17496
0.12950000 0.12949900 12806.91522474 0 333.05663778 0 4402.99854273 0 -244.38171000 0 912.70391436 0 18405
0.13050000 0.13049000 12889.73621438 0 101.80592995 0 4734.17177806 0 -285.00053360 0 732.06890003 0 18100
0.13150000 0.13148800 12792.96409546 0 -34.49239555 0 4748.76510217 0 143.50065135 0 990.88117097 0 19059
0.13250000 0.13249300 12751.22143090 0 146.95078776 0 4624.91007675 0 216.71307751 0 583.44840569 0 18957
0.13350000 0.13349100 12495.22928109 0 202.29580337 0 4665.96625718 0 376.03497379 0 419.83487631 0 19468
0.13450000 0.13450700 12376.20178929 0 188.86507336 0 4461.47149010 0 283.03519594 0 395.69942267 0 19953
0.13550000 0.13551000 12254.07404654 0 99.50377217 0 4343.26335034 0 544.88903451 0 -8.28183323 0 19956
0.13650000 0.13649900 12069.94128481 0 220.47213179 0 3964.23552714 0 -107.37973826 0 224.58550046 0 19723
0.13750000 0.13749600 12049.01459090 0 245.55869813 0 4003.94088394 0 -50.37420610 0 617.39172466 0 20946
0.13850000 0.13851100 11674.10567254 0 95.05491206 0 3713.92347997 0 214.35799402 0 215.89926164 0 20955
0.13950000 0.13949800 11739.54311222 0 91.06677138 0 3842.50638809 0 -34.22976001 0 271.93076138 0 20506
0.14050000 0.14048300 11546.22032088 0 113.08054614 0 3784.00022375 0 340.86816294 0 194.28497636 0 21447
0.14150000 0.14148400 11562.05374538 0 27.50177255 0 3789.18207176 0 505.51363299 0 553.26746270 0 21771
0.14250000 0.14249400 11583.97694852 0 -161.69469549 0 3651.86309936 0 379.96897080 0 315.41399541 0 22470
0.14350000 0.14350900 11645.42835126 0 80.70075016 0 3758.47851504 0 120.21665949 0 112.58672045 0 22519
0.14450000 0.14449900 11538.35897026 0 259.13115389 0 3519.31629896 0 -23.49724484 0 344.01823935 0 22218
0.14550000 0.14550500 11430.84669627 0 177.14058861 0 3449.10668728 0 160.04491909 0 695.78821330 0 23559
0.14650000 0.14650700 11331.52794265 0 191.47703479 0 3401.78357101 0 138.90785101 0 641.23708338 0 23044
0.14750000 0.14750500 10983.96766659 0 369.81786341 0 3362.31073303 0 433.73618012 0 596.11403805 0 23649
0.14850000 0.14849900 10697.91415490 0 368.41057092 0 3293.86162100 0 265.24418443 0 782.82775870 0 23640
0.14950000 0.14949500 10346.96574745 0 357.82321393 0 3018.31574556 0 89.15745969 0 1145.13304972 0 24457
0.15050000 0.15050000 10184.09184937 0 263.05740027 0 3165.88769075 0 -210.29887975 0 688.97984077 0 24591
0.15150000 0.15149900 9934.82060073 0 79.04953436 0 3339.75640737 0 35.35016856 0 651.01948236 0 25020
0.15250000 0.15250500 9918.93181461 0 97.78058626 0 3382.46236420 0 -257.52898849 0 749.04609568 0 25297
0.15350000 0.15350100 9871.22116697 0 116.35795429 0 3557.50474726 0 -55.04373765 0 318.20422127 0 25452
0.15450000 0.15450400 9802.63918704 0 177.87025482 0 3639.35137232 0 -316.54890871 0 310.92859663 0 26061
0.15550000 0.15549900 9662.52998879 0 217.27776608 0 3840.96733494 0 -79.84330933 0 368.06732885 0 26128
0.15650000 0.15649500 9585.02371506 0 160.44241555 0 3787.17798097 0 141.12010151 0 382.18122130 0 26331
0.15750000 0.15749700 9550.15696420 0 -88.70914126 0 3702.10930939 0 400.70079179 0 587.98473717 0 27345
0.15850000 0.15849900 9643.74025357 0 -96.43241999 0 3710.14781721 0 219.95948315 0 -110.68172697 0 26980
0.15950000 0.15949700 9694.08611452 0 111.41526849 0 3432.04423474 0 -99.43368435 0 -321.22918041 0 27777
0.16050000 0.16050000 9475.65129050 0 331.83093142 0 3539.42364083 0 -540.93067839 0 10.94855837 0 28224
0.16150000 0.16150500 9145.52992603 0 429.07583860 0 3531.62872416 0 -213.51206841 0 82.03219722 0 28075
0.16250000 0.16249700 8956.43676278 0 173.74138489 0 3621.07096404 0 59.26672233 0 105.86903026 0 28590
0.16350000 0.16349900 8962.29402261 0 -48.87357392 0 3468.31717084 0 507.08701035 0 -326.70887396 0 29163
0.16450000 0.16449100 8930.31714853 0 -42.18212514 0 3285.03697812 0 616.04865165 0 -118.52812995 0 28996
0.16550000 0.16550500 8853.88489031 0 106.25755814 0 3206.62277375 0 523.42976178 0 185.68842337 0 30777
0.16650000 0.16650700 8805.84207292 0 53.18513720 0 2800.84421380 0 365.98905349 0 386.59243551 0 29211
0.16750000 0.16749900 8632.33874301 0 265.85426952 0 2896.64196813 0 184.58561982 0 518.14272668 0 30922
0.16850000 0.16850800 8451.89306544 0 288.55474987 0 2837.48253662 0 -169.24491378 0 401.70948058 0 30867
0.16950000 0.16949900 8233.82362814 0 80.30823625 0 2662.20763475 0 58.32147796 0 390.24740993 0 30852
0.17050000 0.17049200 8132.03574608 0 28.30861286 0 2605.51733167 0 -144.84704605 0 197.12945661 0 31257
0.17150000 0.17149500 8165.28593751 0 63.43478829 0 2717.83499463 0 327.65887943 0 209.97113893 0 32608
0.17250000 0.17250900 8143.38487902 0 -1.53214402 0 2325.59788793 0 354.24242409 0 98.76569100 0 32361
0.17350000 0.17350400 8056.69964801 0 52.19648932 0 2345.37306006 0 346.61580675 0 376.56312369 0 32508
0.17450000 0.17449800 8138.03694613 0 -54.96922090 0 2344.29904455 0 271.37825238 0 256.59669874 0 32791
0.17550000 0.17549800 8082.08848882 0 95.06122328 0 2560.65227151 0 155.39786436 0 582.56261971 0 33633
0.17650000 0.17650100 7990.47607327 0 152.02301976 0 2422.22606663 0 -353.82721190 0 746.00674252 0 33984
0.17750000 0.17750300 7946.36393120 0 167.94280838 0 2793.58076872 0 -104.79180378 0 1098.96588416 0 34069
