### header ###
fiducial parameters:
Omega_m = 0.31
Omega_nu = 0
Omega_de = 0.69
Omega_k = 0
H_0 = 100
w_de = -1
zeff = 0
beta = 0
fgrowth = 0
b_1 = 2
gamma = 0.55
Lx = 3500 Ly = 3500 Lz = 3500
nx = 700 ny = 700 nz = 700
xoffset = -685.467585 yoffset = -31.7331281 zoffset = 572.489161
bins = 400 dk = 0.001
kx_ny = 0.628318531 ky_ny = 0.628318531 kz_ny = 0.628318531
############################
A(data) = 8.0754482 (not used)
A(ran) = 8.073496 (used)
Ngal = 479332
weighted Ngal = 0
Nran = 23820508
weighted Nran = 0
SN(data) = 3484.63911
SN(ran) = 70.3230782
SN(data+ran) = 3554.96218
############################
13 columns: k_central k_mean P_0(k) sigma^{lin}_{P_0(k)} P^img_1(k) sigma^{lin}_{P_1(k)} P_2(k) sigma^{lin}_{P_2(k)} P^img_3(k) sigma^{lin}_{P_3(k)} P_4(k) sigma^{lin}_{P_4(k)} N_modes
### header ###
0.00050000 0 0 0 0 0 0 0 0 0 0 0 0
0.00150000 0.00179520 14805.13768476 0 -29241.56695305 0 -5496.03630418 0 -54047.56058375 0 4584.47394651 0 3
0.00250000 0.00253879 18153.96232616 0 -16013.57121546 0 -9688.83783256 0 -12820.42346101 0 7704.67722506 0 6
0.00350000 0.00331552 27963.59922248 0 -2888.06091640 0 10469.85748061 0 -39803.78976730 0 -18639.70521595 0 7
0.00450000 0.00420575 26601.26037680 0 686.66683212 0 1013.05793035 0 -3243.44932610 0 49052.50268832 0 24
0.00550000 0.00557378 40109.93954854 0 -17943.58815460 0 -14413.06666293 0 14129.39370107 0 19298.28709616 0 45
0.00650000 0.00659388 57705.74598059 0 -39316.27530554 0 -38225.42986441 0 23513.85332437 0 11952.46391848 0 40
0.00750000 0.00754703 86312.42582854 0 -30554.63395330 0 -32559.49980821 0 16189.39973358 0 3707.87799062 0 57
0.00850000 0.00846663 89853.68747529 0 -7559.35296181 0 -37429.99404943 0 9087.85418605 0 21325.85121695 0 75
0.00950000 0.00948925 91642.97516598 0 1207.72490192 0 -36690.80564454 0 -14531.42981524 0 -2691.53822319 0 112
0.01050000 0.01054430 89369.27326447 0 13943.26792087 0 -26329.32407925 0 -37688.42211070 0 14420.37439731 0 105
0.01150000 0.01145670 76441.55897596 0 8682.40779584 0 -9117.43943797 0 -31626.98861198 0 5828.70430336 0 144
0.01250000 0.01249090 76133.41617626 0 9090.04650636 0 -3683.20885092 0 -30255.57045994 0 9716.37470438 0 169
0.01350000 0.01339930 73197.25708085 0 4463.25413440 0 -3216.65430004 0 -19568.11965199 0 7025.47867603 0 180
0.01450000 0.01448870 69509.28713026 0 24.05130397 0 11196.55630311 0 -2362.83411630 0 -12743.24935703 0 267
0.01550000 0.01550050 70679.85331008 0 374.80151681 0 1288.09890778 0 -1117.25293583 0 -3370.29387922 0 238
0.01650000 0.01653350 70627.03832070 0 3607.05340082 0 10594.73115992 0 8522.21340036 0 -31891.28500540 0 315
0.01750000 0.01747870 69310.98179275 0 654.54269612 0 3924.17585595 0 -6946.95374842 0 -18178.87505700 0 297
0.01850000 0.01844180 64612.10858622 0 8524.46108230 0 2347.14463203 0 1377.65187091 0 -20838.00458544 0 388
0.01950000 0.01947590 60125.93473945 0 648.20157570 0 3472.40285870 0 -3498.25673715 0 -380.54251723 0 399
0.02050000 0.02045430 62319.25156277 0 -2385.38844195 0 5683.28038919 0 6617.58530204 0 -13444.01679480 0 462
0.02150000 0.02154770 65109.80958682 0 503.37113814 0 12881.43197076 0 -4718.84768051 0 -15047.06798204 0 571
0.02250000 0.02255340 59975.46184516 0 7110.11552694 0 13667.12413990 0 -4277.89234461 0 -5665.86362225 0 510
0.02350000 0.02348930 59434.02516153 0 834.86104195 0 22605.25834975 0 -3636.25112137 0 6377.06119000 0 555
0.02450000 0.02439640 57847.80390801 0 134.98603356 0 21611.73864377 0 -1565.46064448 0 5255.45683052 0 592
0.02550000 0.02547300 60505.60475748 0 -1123.86311374 0 23764.75220476 0 8795.14620714 0 -3995.53698941 0 837
0.02650000 0.02652900 60558.53047011 0 1001.60250309 0 23246.89957299 0 4017.51555417 0 7623.77174761 0 723
0.02750000 0.02749970 57704.52802486 0 1132.79847987 0 17356.42276947 0 6274.69754705 0 -3201.48521504 0 826
0.02850000 0.02848090 59804.06225697 0 -1966.61097266 0 16321.93546166 0 2768.87841205 0 8000.59617816 0 831
0.02950000 0.02946900 60329.99768585 0 -3495.80975337 0 13869.63696083 0 3511.25564649 0 3989.82366980 0 996
0.03050000 0.03053250 68546.10559428 0 -7244.03529562 0 15798.65739073 0 1606.83792233 0 5482.84916532 0 1041
0.03150000 0.03150510 69609.49166987 0 425.15069946 0 16992.58617593 0 947.58063030 0 5645.83378665 0 1036
0.03250000 0.03246190 69080.34526678 0 8097.86655169 0 21666.32520513 0 -4547.63632184 0 5426.56853827 0 1059
0.03350000 0.03345080 63926.06734045 0 6609.28105842 0 26227.23724442 0 -2655.33172103 0 15429.61680453 0 1302
0.03450000 0.03451200 55806.28865795 0 7069.09256349 0 29428.46779599 0 881.52535490 0 11272.95534436 0 1339
0.03550000 0.03553350 52039.37303140 0 3119.58322835 0 25451.62089088 0 4530.03132538 0 11661.26177575 0 1365
0.03650000 0.03647120 50322.27689852 0 680.36557206 0 24173.65316031 0 7784.18758958 0 328.39076010 0 1308
0.03750000 0.03744890 49691.48655360 0 1310.11068952 0 19123.23364078 0 3027.21789472 0 9207.11419667 0 1579
0.03850000 0.03847530 46342.44046571 0 1746.73674642 0 18250.73444507 0 2681.18559948 0 2218.14097557 0 1662
0.03950000 0.03950240 47309.27586887 0 -338.78988757 0 14269.56933328 0 3078.09522726 0 -2196.61637612 0 1683
0.04050000 0.04050350 45654.18475498 0 23.63033418 0 14772.25288005 0 531.14938664 0 -2924.78781782 0 1822
0.04150000 0.04152450 46585.58871872 0 1808.85248865 0 15729.34463737 0 -3676.74261323 0 -8851.02823050 0 1887
0.04250000 0.04250150 45839.97836544 0 2481.78410183 0 18714.22196198 0 -3599.72352179 0 -1253.16572297 0 1920
0.04350000 0.04349210 43275.40649094 0 1079.14863719 0 20479.26126132 0 -2400.15892326 0 -257.08055934 0 2005
0.04450000 0.04448520 43484.56270677 0 937.96542343 0 19713.94216986 0 3607.31913662 0 2208.47483600 0 2151
0.04550000 0.04548030 42343.33818771 0 -1411.57747415 0 15666.67527890 0 8271.60240042 0 155.87840326 0 2274
0.04650000 0.04648670 43376.60753978 0 134.73137009 0 15210.71694286 0 11099.00912146 0 813.35194376 0 2311
0.04750000 0.04749250 40734.30794506 0 -372.77306690 0 8766.35816262 0 7296.01986065 0 1106.24372326 0 2568
0.04850000 0.04851840 40642.73981881 0 2085.88205561 0 5512.68908071 0 4440.74409804 0 2294.01961755 0 2493
0.04950000 0.04949480 38290.53513434 0 2397.14725091 0 4278.80027524 0 -1781.48170170 0 3385.99443582 0 2644
0.05050000 0.05050630 36133.75698291 0 1791.62395123 0 7516.28161827 0 -2336.69235740 0 4283.02990332 0 2829
0.05150000 0.05149060 35583.35171618 0 1495.53891325 0 7810.61722892 0 -3354.73726285 0 1002.67984030 0 2784
0.05250000 0.05249300 34483.86986169 0 1429.37070014 0 10261.57597845 0 -3811.27135978 0 1540.42611807 0 3055
0.05350000 0.05348950 34567.57663732 0 -158.54794078 0 10493.97300407 0 -1637.76292555 0 -1330.02980187 0 3009
0.05450000 0.05448610 34456.29977289 0 -221.65576331 0 12800.93616933 0 -814.70055292 0 -2000.20440616 0 3336
0.05550000 0.05550870 35011.57686255 0 581.21843947 0 12354.05713965 0 983.32320205 0 620.71231487 0 3349
0.05650000 0.05647670 33915.85959849 0 998.56536440 0 12233.03662939 0 1958.14064418 0 879.90879548 0 3324
0.05750000 0.05747970 33325.15106942 0 1462.33301112 0 10589.70432445 0 3310.30402336 0 -1308.13981570 0 3639
0.05850000 0.05849280 32423.53165943 0 -534.59398689 0 8141.17041406 0 2234.63873955 0 3633.44982319 0 3846
0.05950000 0.05951020 32422.31370370 0 -145.96313639 0 8204.68126922 0 3189.99214188 0 1107.05421744 0 3787
0.06050000 0.06049470 32980.91249081 0 -331.61169939 0 6582.49710469 0 -214.81970997 0 2952.26932802 0 3930
0.06150000 0.06148310 32883.58675565 0 483.75872919 0 9390.87049936 0 811.04779297 0 20.76703098 0 4083
0.06250000 0.06249100 31385.05831469 0 1720.89394029 0 8259.55571102 0 -2793.29288827 0 493.89212086 0 4303
0.06350000 0.06350600 30409.69722142 0 811.93247172 0 8144.18208641 0 -2102.10301147 0 -1990.46076032 0 4470
0.06450000 0.06451750 29630.75917043 0 707.30896727 0 9545.05262246 0 -426.06970242 0 -1732.74132784 0 4479
0.06550000 0.06550280 31025.98282083 0 -280.18075061 0 9724.90039449 0 -294.56923671 0 -1609.80530538 0 4636
0.06650000 0.06648880 30634.68686173 0 -617.74825351 0 10053.69307998 0 265.79337174 0 -511.99869364 0 4653
0.06750000 0.06749660 31510.83992463 0 259.08686459 0 9787.50331902 0 -94.30099746 0 -1022.77500261 0 5220
0.06850000 0.06852730 31418.93962864 0 61.98641748 0 10189.51728853 0 1399.29826593 0 -618.30076252 0 5029
0.06950000 0.06949320 31313.08820337 0 785.61134116 0 12708.81442684 0 1063.87325787 0 2689.54520472 0 5040
0.07050000 0.07048030 29767.28093544 0 957.30434596 0 10606.26852238 0 1211.43413073 0 1452.02467672 0 5475
0.07150000 0.07148790 29867.15330531 0 1121.80366133 0 12655.33509797 0 948.74100995 0 2731.91899180 0 5509
0.07250000 0.07249820 28638.34669693 0 559.17344076 0 12303.56733848 0 310.38051655 0 3654.19935990 0 5916
0.07350000 0.07351270 27958.39522982 0 1055.72070511 0 11669.12312637 0 274.26923639 0 4738.96609471 0 5721
0.07450000 0.07449140 27598.21250347 0 185.81464787 0 10088.92521755 0 1519.42191789 0 4714.64019708 0 6028
0.07550000 0.07549160 27403.22886341 0 -117.18505695 0 10895.61051454 0 723.46681088 0 3861.61722073 0 6183
0.07650000 0.07648840 27738.05596593 0 -355.41830498 0 10651.60969251 0 1686.07147873 0 3527.12228795 0 6330
0.07750000 0.07749960 27668.85393581 0 349.70277091 0 10137.61022978 0 704.87416305 0 2905.20087522 0 6583
0.07850000 0.07848650 26554.09227307 0 518.41510587 0 9418.35200956 0 827.80797104 0 3566.81657243 0 6549
0.07950000 0.07947320 26927.89395895 0 916.56040509 0 9933.33690920 0 82.45826028 0 3541.09556188 0 6828
0.08050000 0.08048110 26081.52544981 0 731.60939855 0 9885.48232134 0 1296.82389973 0 4645.81462601 0 7147
0.08150000 0.08149960 25279.66768644 0 18.90289438 0 8756.70309537 0 1545.14292844 0 3302.67519156 0 7386
0.08250000 0.08250610 25381.53307478 0 15.40005370 0 7338.65938353 0 1155.00956346 0 2513.25164896 0 7227
0.08350000 0.08350160 24701.91377741 0 720.69430075 0 7276.85366639 0 1089.83564511 0 1603.01797027 0 7798
0.08450000 0.08449610 24391.77795924 0 943.92454865 0 7127.95304223 0 -1223.32580759 0 1694.44215630 0 7371
0.08550000 0.08548940 22686.30776742 0 1494.14380033 0 7173.62638210 0 -260.32917944 0 1452.95475200 0 8256
0.08650000 0.08650700 21883.67494132 0 1140.47160097 0 7865.79062349 0 -1035.04092405 0 1122.77802591 0 8037
0.08750000 0.08749060 21624.58254056 0 217.69962165 0 8481.34544946 0 86.89726603 0 787.61653918 0 8155
0.08850000 0.08849210 21087.90695660 0 75.96511684 0 7526.53459105 0 475.42237583 0 312.85961008 0 8718
0.08950000 0.08949900 20790.94720496 0 737.53641403 0 7907.41149248 0 695.97201389 0 385.49295365 0 8571
0.09050000 0.09049190 20017.43459313 0 245.50887267 0 6911.40051342 0 764.43884164 0 -284.36941108 0 8932
0.09150000 0.09150830 20058.51291821 0 321.08302572 0 6156.07973127 0 1216.91493152 0 -481.04379514 0 9285
0.09250000 0.09250820 19715.71374183 0 114.04273117 0 4757.57867273 0 673.48744388 0 -1349.99320351 0 9204
0.09350000 0.09350330 19366.27117055 0 74.84050081 0 5129.15482131 0 -704.61285618 0 -2683.52186002 0 9349
0.09450000 0.09448040 19070.52937464 0 721.04640068 0 4679.64057833 0 -1578.58134939 0 -1753.59051548 0 9564
0.09550000 0.09549270 19008.19218591 0 376.26859985 0 5710.78404404 0 -444.80850494 0 -1690.73292748 0 10155
0.09650000 0.09649430 18576.70368773 0 -121.03933322 0 5738.02196309 0 602.41972704 0 -525.06403692 0 9913
0.09750000 0.09749140 18536.51114864 0 33.72652284 0 5290.30143673 0 1407.55822025 0 -2066.16224511 0 10476
0.09850000 0.09850240 18783.86688509 0 276.22571618 0 5914.39302513 0 645.07253670 0 -1263.21939391 0 10575
0.09950000 0.09950330 18438.41035075 0 463.97912813 0 5797.17032227 0 303.24661767 0 -370.58296105 0 10882
0.10050000 0.10051200 17701.43641082 0 537.47832751 0 5260.30650879 0 -295.21253878 0 339.51069591 0 10875
0.10150000 0.10150300 17888.55870025 0 188.20627003 0 5699.06952438 0 -17.99319217 0 367.40188213 0 11118
0.10250000 0.10250800 17679.62393093 0 68.63723083 0 5595.53221500 0 -254.61475260 0 -267.55054969 0 11575
0.10350000 0.10349800 17387.97889520 0 566.25087078 0 6271.78552562 0 -374.72511777 0 -1066.05893479 0 11364
0.10450000 0.10450100 16984.28193231 0 739.22937249 0 6070.63460064 0 -456.77215191 0 -1802.81807162 0 12093
0.10550000 0.10551000 16241.10749049 0 543.42195147 0 5197.13889570 0 306.56942235 0 -1236.50187412 0 12067
0.10650000 0.10649700 15636.00493915 0 320.17288062 0 5376.74307658 0 373.82604499 0 -1548.61963844 0 12054
0.10750000 0.10749900 15652.94559612 0 -137.18389004 0 4320.98583280 0 1726.25294550 0 -1323.77393834 0 12807
0.10850000 0.10850100 15548.20140334 0 -216.81272844 0 3914.26612524 0 1477.96713377 0 -1671.37850370 0 12736
0.10950000 0.10950300 15557.94504918 0 165.58661766 0 3229.09959314 0 718.66142191 0 -871.22366389 0 12933
0.11050000 0.11050200 15319.66861908 0 225.69826910 0 3745.06992968 0 455.80775241 0 -1018.59077106 0 13428
0.11150000 0.11150900 15429.06318829 0 44.11756752 0 3374.94425565 0 274.33234864 0 351.96484687 0 13453
0.11250000 0.11250000 15245.04114980 0 -3.05064693 0 3880.59518546 0 -436.59505439 0 715.01419812 0 13668
0.11350000 0.11349100 15611.64582455 0 97.66709493 0 4119.94563107 0 286.92268919 0 1242.86846089 0 13791
0.11450000 0.11448600 15159.34135571 0 142.96475083 0 4172.52810163 0 251.01846150 0 1447.05320287 0 14205
0.11550000 0.11549300 15193.66556264 0 353.89032416 0 4192.04861029 0 503.01239481 0 1470.08363850 0 14776
0.11650000 0.11649800 14879.98660053 0 245.99494773 0 3515.03130925 0 343.04608923 0 1546.67090927 0 14553
0.11750000 0.11747300 14692.53214135 0 159.39165193 0 3762.23203315 0 80.77936367 0 1302.93582303 0 14568
0.11850000 0.11849100 14664.51915956 0 304.05046845 0 3693.01893071 0 -77.11652790 0 1533.58342133 0 16015
0.11950000 0.11950300 14200.25657991 0 598.21113637 0 4265.76814893 0 -455.97826622 0 2521.89913464 0 15270
0.12050000 0.12050700 13972.83102814 0 485.34428610 0 4247.41023438 0 38.58395174 0 2208.55234228 0 15999
0.12150000 0.12150000 13591.27871489 0 199.66944792 0 4820.02658470 0 298.75346826 0 2764.78165187 0 15670
0.12250000 0.12250700 13495.06021221 0 88.21686570 0 4513.22353630 0 285.25408984 0 2181.83482249 0 16887
0.12350000 0.12352200 13510.56146696 0 63.87092716 0 4900.06842082 0 70.52749812 0 2397.09188929 0 16407
0.12450000 0.12449800 13563.48717959 0 -49.94637147 0 4827.14608956 0 56.80534453 0 2005.23124163 0 16306
0.12550000 0.12549900 13522.96247076 0 69.81820499 0 4717.22004876 0 -83.00811193 0 2020.79893033 0 17523
0.12650000 0.12650100 13635.67873741 0 182.37669102 0 4418.52194213 0 -27.75200710 0 1244.87255169 0 17154
0.12750000 0.12750600 13155.69345652 0 95.43934318 0 4137.57277218 0 74.65946830 0 1329.77513839 0 18007
0.12850000 0.12850300 13339.93694151 0 89.80131538 0 3860.47677127 0 458.50607797 0 775.59310166 0 17496
0.12950000 0.12949900 13105.75727159 0 -140.81007642 0 3577.98854817 0 348.01424137 0 675.84363461 0 18405
0.13050000 0.13049000 13078.18718279 0 237.54454943 0 3852.28325090 0 295.49156137 0 256.12833940 0 18100
0.13150000 0.13148800 12919.18859840 0 245.84768581 0 3826.06398573 0 67.26559123 0 1006.38021125 0 19059
0.13250000 0.13249300 12842.23594091 0 347.57467008 0 3714.23350506 0 -158.31652919 0 823.73114105 0 18957
0.13350000 0.13349100 12590.67272103 0 171.51141867 0 3651.70808681 0 -44.73197082 0 1284.69970406 0 19468
0.13450000 0.13450700 12465.55545058 0 175.35019369 0 4312.42692572 0 -8.80277504 0 897.20598131 0 19953
0.13550000 0.13551000 12238.46206855 0 351.18314074 0 3898.27768820 0 90.12905619 0 879.79696500 0 19956
0.13650000 0.13649900 12019.11931389 0 356.83224086 0 3843.87935637 0 411.24053779 0 749.29743745 0 19723
0.13750000 0.13749600 11729.79946638 0 17.64995010 0 3423.40782138 0 333.18950568 0 1267.86977033 0 20946
0.13850000 0.13851100 11805.64489139 0 -104.77608108 0 3328.98303532 0 804.08662235 0 603.41623627 0 20955
0.13950000 0.13949800 11840.41199132 0 9.93813123 0 3150.08748323 0 391.40003894 0 484.52493406 0 20506
0.14050000 0.14048300 11765.00945930 0 202.28915997 0 3316.69275478 0 -208.21396098 0 851.19050660 0 21447
0.14150000 0.14148400 11696.91466167 0 301.42854193 0 3530.72079352 0 -546.36165371 0 1257.72752080 0 21771
0.14250000 0.14249400 11326.98828948 0 292.44224311 0 3763.89288188 0 -433.24013997 0 1171.64019533 0 22470
0.14350000 0.14350900 11335.29253309 0 259.59286984 0 4245.99297680 0 -211.55780308 0 1213.17248573 0 22519
0.14450000 0.14449900 10998.02951911 0 133.50123480 0 4094.21354819 0 138.66315263 0 713.60026224 0 22218
0.14550000 0.14550500 10857.89817621 0 170.34107394 0 3987.94137458 0 241.74981839 0 709.25991091 0 23559
0.14650000 0.14650700 10789.32726861 0 42.02445523 0 3851.76285164 0 171.90116451 0 327.84378725 0 23044
0.14750000 0.14750500 10744.40684682 0 44.74547906 0 3265.06250415 0 695.04968924 0 60.35313884 0 23649
0.14850000 0.14849900 10565.54451170 0 100.20907926 0 3080.67507894 0 501.80994034 0 613.16209657 0 23640
0.14950000 0.14949500 10544.08634620 0 7.64544029 0 2498.07149163 0 609.34325174 0 72.71815759 0 24457
0.15050000 0.15050000 10443.32819035 0 44.76729154 0 2446.44124100 0 390.67258720 0 39.24375158 0 24591
0.15150000 0.15149900 10355.79039033 0 301.22813285 0 2347.02283646 0 -207.76442459 0 213.54860708 0 25020
0.15250000 0.15250500 9970.37383572 0 310.87323500 0 2298.29353493 0 -127.83995512 0 621.46301849 0 25297
0.15350000 0.15350100 9928.91905160 0 153.82005808 0 2568.34753726 0 -80.89097270 0 644.12917463 0 25452
0.15450000 0.15450400 9841.38125158 0 109.72696040 0 2671.56374922 0 -155.99355544 0 275.42629433 0 26061
0.15550000 0.15549900 9702.46786441 0 200.04590696 0 3152.45696074 0 -115.28947494 0 458.42857170 0 26128
0.15650000 0.15649500 9623.28966963 0 235.72758092 0 2897.53882644 0 -207.96261921 0 411.45866259 0 26331
0.15750000 0.15749700 9428.28388492 0 217.51139213 0 3328.69515488 0 78.60354112 0 504.14177195 0 27345
0.15850000 0.15849900 9337.42438746 0 -51.66678930 0 2890.44146623 0 153.93410302 0 82.88122309 0 26980
0.15950000 0.15949700 9344.98678531 0 -37.24242887 0 3144.16378945 0 279.99252108 0 307.75305387 0 27777
0.16050000 0.16050000 9434.65047169 0 49.37880410 0 2824.17360219 0 106.56658673 0 -349.79799290 0 28224
0.16150000 0.16150500 9267.97876620 0 249.21920872 0 2598.23174194 0 228.12310824 0 154.69920067 0 28075
0.16250000 0.16249700 9172.63497719 0 151.98315939 0 2334.52218174 0 -16.20910847 0 179.73040539 0 28590
0.16350000 0.16349900 9026.77924235 0 92.25250665 0 2571.79103028 0 237.13376618 0 262.30448219 0 29163
0.16450000 0.16449100 8951.86389263 0 50.76738436 0 2180.55043281 0 343.54102215 0 341.68640774 0 28996
0.16550000 0.16550500 8879.26265879 0 181.56066068 0 2277.69901077 0 331.51204847 0 412.19165049 0 30777
0.16650000 0.16650700 8744.83356317 0 135.38685172 0 2174.27242464 0 160.97831607 0 631.31295865 0 29211
0.16750000 0.16749900 8602.12236858 0 164.96435301 0 2113.21962559 0 24.16601326 0 388.66074578 0 30922
0.16850000 0.16850800 8429.95878998 0 183.34551944 0 2261.73271838 0 -11.23796680 0 628.34225390 0 30867
0.16950000 0.16949900 8369.06100347 0 132.78485539 0 2231.63813952 0 -158.90668410 0 334.87803521 0 30852
0.17050000 0.17049200 8273.56220191 0 3.42926508 0 2209.75922568 0 41.17974757 0 591.72829019 0 31257
0.17150000 0.17149500 8326.77579499 0 -42.80605064 0 2218.18526487 0 12.49412205 0 341.69637283 0 32608
0.17250000 0.17250900 8528.18138344 0 -82.39924479 0 2172.88838404 0 152.85898028 0 361.29992392 0 32361
0.17350000 0.17350400 8468.02544270 0 20.87343602 0 2268.13252213 0 61.09055568 0 345.77763176 0 32508
0.17450000 0.17449800 8443.20129046 0 223.26789381 0 2087.90829105 0 -81.35678541 0 303.10599914 0 32791
0.17550000 0.17549800 8386.57742134 0 169.72655991 0 2352.02752728 0 -125.29442765 0 510.83056337 0 33633
0.17650000 0.17650100 8171.97362170 0 117.13190979 0 2146.79091444 0 14.22716233 0 450.01249760 0 33984
0.17750000 0.17750300 8088.07861655 0 88.85817475 0 2283.82200639 0 129.02358665 0 428.40485572 0 34069
0.17850000 0.17849800 7971.12164949 0 140.26974697 0 2270.76773543 0 243.66422335 0 16.06727199 0 34536
