### header ###
fiducial parameters:
Omega_m = 0.31
Omega_nu = 0
Omega_de = 0.69
Omega_k = 0
H_0 = 100
w_de = -1
zeff = 0
beta = 0
fgrowth = 0
b_1 = 2
gamma = 0.55
Lx = 3500 Ly = 3500 Lz = 3500
nx = 700 ny = 700 nz = 700
xoffset = -685.467585 yoffset = -31.7331281 zoffset = 572.489161
bins = 400 dk = 0.001
kx_ny = 0.628318531 ky_ny = 0.628318531 kz_ny = 0.628318531
############################
A(data) = 8.06229269 (not used)
A(ran) = 8.06123741 (used)
Ngal = 479364
weighted Ngal = 0
Nran = 23820508
weighted Nran = 0
SN(data) = 3489.56821
SN(ran) = 70.2163014
SN(data+ran) = 3559.78451
############################
13 columns: k_central k_mean P_0(k) sigma^{lin}_{P_0(k)} P^img_1(k) sigma^{lin}_{P_1(k)} P_2(k) sigma^{lin}_{P_2(k)} P^img_3(k) sigma^{lin}_{P_3(k)} P_4(k) sigma^{lin}_{P_4(k)} N_modes
### header ###
0.00050000 0 0 0 0 0 0 0 0 0 0 0 0
0.00150000 0.00179520 10872.95653796 0 -5571.33918527 0 31171.80533869 0 -10793.30223322 0 -1874.20134973 0 3
0.00250000 0.00253879 21425.94503331 0 -3930.25456228 0 16722.86434335 0 8999.27558750 0 21429.59890050 0 6
0.00350000 0.00331552 24749.85694387 0 -1165.06323439 0 26902.64905836 0 13109.52186203 0 12281.20124235 0 7
0.00450000 0.00420575 28611.55167087 0 -1136.71808286 0 29108.14543899 0 14559.55352028 0 -2757.54035143 0 24
0.00550000 0.00557378 40618.04853447 0 930.02656654 0 36520.07039584 0 10837.20400112 0 -14862.49232732 0 45
0.00650000 0.00659388 36749.59968933 0 6867.19979275 0 19659.68777824 0 7958.97530916 0 -21673.30076976 0 40
0.00750000 0.00754703 31610.82301775 0 9621.19700024 0 15235.18678071 0 -872.61766958 0 -3676.02291212 0 57
0.00850000 0.00846663 30648.74871425 0 -3560.68250448 0 4032.25281851 0 6311.00370013 0 -9576.70839912 0 75
0.00950000 0.00948925 34665.12381897 0 -8497.46675439 0 -5910.82773654 0 10203.21375433 0 -11052.67144209 0 112
0.01050000 0.01054430 47149.94511473 0 -13441.91305308 0 -12130.94979456 0 6351.58377059 0 -11879.38657468 0 105
0.01150000 0.01145670 54309.53178896 0 -13786.04090845 0 -24098.36135154 0 11794.57256657 0 -6844.35758665 0 144
0.01250000 0.01249090 67727.97151343 0 -14720.10223015 0 -22416.58593484 0 7079.38982557 0 -5875.19699527 0 169
0.01350000 0.01339930 75913.29835887 0 -9318.47963970 0 -23630.88779770 0 427.87449136 0 -5385.67844271 0 180
0.01450000 0.01448870 87091.36387953 0 -11229.99472406 0 -17320.10554406 0 -3290.45134496 0 -8761.08773600 0 267
0.01550000 0.01550050 93028.78734028 0 -537.41521526 0 -12693.75606509 0 -16738.36559809 0 4893.43609825 0 238
0.01650000 0.01653350 85736.99710771 0 10093.54237700 0 -13430.84072827 0 -12451.82576780 0 734.23575400 0 315
0.01750000 0.01747870 79432.85824897 0 8198.35897174 0 -3924.30872385 0 -20775.88884321 0 7513.98964703 0 297
0.01850000 0.01844180 72676.08275164 0 10746.75417968 0 5200.60453337 0 -9152.77122646 0 7039.89484294 0 388
0.01950000 0.01947590 69234.36130501 0 8852.53406668 0 9488.60591054 0 313.60588477 0 5542.83902119 0 399
0.02050000 0.02045430 60174.65296865 0 669.14819979 0 9926.23954899 0 6606.34689234 0 2206.90256588 0 462
0.02150000 0.02154770 67329.36781996 0 -2637.70457992 0 12356.60377436 0 5828.82609893 0 4480.43838251 0 571
0.02250000 0.02255340 66808.63638374 0 -2384.76839176 0 19621.04536463 0 -4183.55613715 0 10027.99421408 0 510
0.02350000 0.02348930 68472.91752723 0 783.45113059 0 22364.10311520 0 3501.96596597 0 15085.71039566 0 555
0.02450000 0.02439640 67666.18794095 0 2701.17114578 0 30479.45286778 0 2376.02125516 0 24773.21954924 0 592
0.02550000 0.02547300 68256.45357703 0 2451.75595692 0 24560.74163597 0 7319.38246602 0 10862.51533566 0 837
0.02650000 0.02652900 64343.27253962 0 424.90600108 0 18018.43707038 0 12617.35702384 0 12045.47144696 0 723
0.02750000 0.02749970 67006.60955150 0 -3695.49913147 0 13093.13482130 0 -247.31476885 0 362.90762549 0 826
0.02850000 0.02848090 65702.17896461 0 -1489.00624161 0 16627.64234991 0 199.70820106 0 -6656.57095772 0 831
0.02950000 0.02946900 69143.78968799 0 3395.83773258 0 13638.11464887 0 -3787.56551234 0 -4756.88111626 0 996
0.03050000 0.03053250 62831.67875538 0 2254.01530798 0 12776.68777798 0 -2632.27914076 0 -3528.81635365 0 1041
0.03150000 0.03150510 60224.92132333 0 2086.45781650 0 9972.94261508 0 774.25556483 0 -3495.06790760 0 1036
0.03250000 0.03246190 64833.77652909 0 170.07865984 0 13847.04941820 0 -3525.42822226 0 -18983.05800858 0 1059
0.03350000 0.03345080 57467.46955049 0 5327.41586952 0 18498.97596751 0 -5241.11816988 0 -12309.76784038 0 1302
0.03450000 0.03451200 56111.44192995 0 8113.63354223 0 21294.62726097 0 -10787.43390106 0 -10526.37062649 0 1339
0.03550000 0.03553350 50132.82942087 0 3860.98609821 0 26307.84376910 0 -3128.03141219 0 1816.64740532 0 1365
0.03650000 0.03647120 49245.38258666 0 125.02426292 0 25810.25349175 0 6936.05858079 0 -6931.05388998 0 1308
0.03750000 0.03744890 48681.24763715 0 -174.27174925 0 25101.73542661 0 6970.11705194 0 -4425.73002559 0 1579
0.03850000 0.03847530 47982.14104810 0 781.38724924 0 24242.85519043 0 5778.04841731 0 -2708.13563809 0 1662
0.03950000 0.03950240 48538.63609349 0 440.76932085 0 20082.53986307 0 6260.62462221 0 -2644.46977039 0 1683
0.04050000 0.04050350 46959.72257435 0 487.08374833 0 21443.21786003 0 2199.80520567 0 2840.88174034 0 1822
0.04150000 0.04152450 46578.61315409 0 1248.99145652 0 18916.84550616 0 3257.11257493 0 1464.49211446 0 1887
0.04250000 0.04250150 44383.41403554 0 1261.37031567 0 19743.28383062 0 2055.20064354 0 4174.43254150 0 1920
0.04350000 0.04349210 43606.35827977 0 420.13825801 0 14971.77617328 0 4552.51921708 0 1517.71677987 0 2005
0.04450000 0.04448520 42112.70166174 0 1106.36662606 0 16951.72929735 0 4196.41110627 0 2099.44565351 0 2151
0.04550000 0.04548030 40447.53473226 0 3676.42151581 0 12681.02289155 0 3387.32311479 0 -2257.38129473 0 2274
0.04650000 0.04648670 37746.33036950 0 1606.25108912 0 11861.00651548 0 35.96911151 0 1107.66430253 0 2311
0.04750000 0.04749250 36349.99948662 0 986.65597182 0 9790.09424302 0 163.15734960 0 -1023.65414520 0 2568
0.04850000 0.04851840 35741.46451459 0 310.11810245 0 10338.09681527 0 1849.80901815 0 -134.74908581 0 2493
0.04950000 0.04949480 35846.87304686 0 -479.75054760 0 9081.11114024 0 -237.79146227 0 -3608.73639419 0 2644
0.05050000 0.05050630 35374.85983984 0 944.78154659 0 9892.93399594 0 1102.26986588 0 -2939.38114193 0 2829
0.05150000 0.05149060 34837.85208614 0 903.05991944 0 10825.45626449 0 -142.04242617 0 -1256.02238278 0 2784
0.05250000 0.05249300 34446.22395731 0 446.15489964 0 11098.34478197 0 3368.74375375 0 1865.22169430 0 3055
0.05350000 0.05348950 34481.32322698 0 -219.69928352 0 12224.84310902 0 1691.81801531 0 2908.38970476 0 3009
0.05450000 0.05448610 34382.44736635 0 -128.84532222 0 10511.36762636 0 1760.38892292 0 3939.65496605 0 3336
0.05550000 0.05550870 35138.46570497 0 65.63209115 0 10097.70557113 0 1304.76275663 0 6706.16390058 0 3349
0.05650000 0.05647670 35731.16725251 0 -604.44817694 0 11318.35187612 0 46.39957366 0 4876.97155125 0 3324
0.05750000 0.05747970 36022.36939524 0 -949.89142449 0 11184.37674581 0 -1126.45403775 0 4006.96362862 0 3639
0.05850000 0.05849280 36962.74194209 0 475.59288963 0 13109.96475502 0 -1526.64107367 0 1719.17772994 0 3846
0.05950000 0.05951020 36432.48830652 0 648.70204478 0 10744.28505124 0 -1287.36813434 0 -1515.93413557 0 3787
0.06050000 0.06049470 35383.16408346 0 1730.74830938 0 12848.10427306 0 -178.76046973 0 2872.78110815 0 3930
0.06150000 0.06148310 33953.72694937 0 1827.39863272 0 11269.41220042 0 -271.46461651 0 -17.28877086 0 4083
0.06250000 0.06249100 33099.93998261 0 845.02986507 0 10911.93112132 0 3686.33124652 0 1074.41743280 0 4303
0.06350000 0.06350600 32354.66179906 0 -511.66209496 0 10091.12861019 0 2814.38566705 0 -1926.17484243 0 4470
0.06450000 0.06451750 32526.06138726 0 -376.22541778 0 8512.59155010 0 748.56777125 0 -1193.16479478 0 4479
0.06550000 0.06550280 32476.34664882 0 945.63854453 0 7054.44387776 0 -354.45169102 0 -3959.08689610 0 4636
0.06650000 0.06648880 31591.33572607 0 924.66313239 0 8072.09017951 0 -1541.42262730 0 615.02889054 0 4653
0.06750000 0.06749660 31272.34204804 0 739.03007065 0 9154.11097776 0 -523.27032030 0 -1923.68356934 0 5220
0.06850000 0.06852730 30357.98946452 0 1357.65525229 0 9826.25645588 0 -385.67564701 0 -1316.70979511 0 5029
0.06950000 0.06949320 28623.95267467 0 2007.85538261 0 8496.20450937 0 1358.38602573 0 -71.43011404 0 5040
0.07050000 0.07048030 27886.20367200 0 575.39993278 0 8171.59716266 0 2077.92105407 0 460.91209416 0 5475
0.07150000 0.07148790 27249.98788792 0 -90.89360022 0 7505.07642555 0 2425.60312570 0 1574.04169622 0 5509
0.07250000 0.07249820 27863.83757587 0 -719.42098339 0 7222.33353898 0 1763.51131852 0 1797.72480221 0 5916
0.07350000 0.07351270 27070.83767236 0 -94.00182325 0 6564.80352963 0 628.70653339 0 1136.38591311 0 5721
0.07450000 0.07449140 28304.95899664 0 707.94562595 0 6897.32758858 0 15.84815068 0 2594.62216405 0 6028
0.07550000 0.07549160 26831.34328653 0 648.98660353 0 6087.65276389 0 -742.12367820 0 1399.64150800 0 6183
0.07650000 0.07648840 26617.31524778 0 838.44736796 0 7689.91781607 0 -503.85278427 0 861.51544949 0 6330
0.07750000 0.07749960 26182.06215916 0 522.33249439 0 7581.61940702 0 -775.86437362 0 411.03348531 0 6583
0.07850000 0.07848650 25676.49980794 0 560.82875332 0 7915.32820473 0 715.81361997 0 157.00113700 0 6549
0.07950000 0.07947320 25310.22730294 0 44.92462927 0 6610.74260530 0 363.43909708 0 -470.17187940 0 6828
0.08050000 0.08048110 25298.93353163 0 -205.06831350 0 6423.55388191 0 720.25805115 0 -1516.08914812 0 7147
0.08150000 0.08149960 25004.18824496 0 359.74758399 0 6432.59997129 0 799.35209626 0 -2517.89095306 0 7386
0.08250000 0.08250610 24434.07424004 0 1264.58128986 0 6512.04390186 0 -1736.57235223 0 -1575.86862981 0 7227
0.08350000 0.08350160 23446.53358947 0 1177.46423819 0 6221.93791929 0 -1052.71346169 0 -1257.08532596 0 7798
0.08450000 0.08449610 22706.90229158 0 686.84952548 0 7986.44574704 0 -1035.51039062 0 -1164.05565283 0 7371
0.08550000 0.08548940 22787.61953951 0 64.26775928 0 8683.30465415 0 -435.20769209 0 522.70895343 0 8256
0.08650000 0.08650700 22935.43507584 0 188.78424539 0 10808.60418612 0 239.60953801 0 488.94389890 0 8037
0.08750000 0.08749060 22434.52310104 0 559.33620393 0 9876.94555890 0 280.63360869 0 1333.58401813 0 8155
0.08850000 0.08849210 21989.85853633 0 686.36345042 0 10303.97191018 0 2143.35849374 0 1723.21912850 0 8718
0.08950000 0.08949900 21908.91984190 0 79.89180611 0 9823.37765143 0 1298.98300307 0 2224.48541769 0 8571
0.09050000 0.09049190 21382.54152003 0 45.64145158 0 8819.98143171 0 1445.53629437 0 1769.41286764 0 8932
0.09150000 0.09150830 21657.24589878 0 252.80553472 0 8182.08265426 0 909.06222673 0 1644.18487394 0 9285
0.09250000 0.09250820 20307.97239638 0 855.59729187 0 7185.23017851 0 192.85886092 0 1015.08305856 0 9204
0.09350000 0.09350330 19867.29386859 0 1143.11788660 0 6553.07793764 0 -905.24006020 0 579.49337127 0 9349
0.09450000 0.09448040 18633.61543730 0 1047.98336453 0 7171.30119389 0 -269.06302926 0 -382.32183983 0 9564
0.09550000 0.09549270 18162.48801627 0 507.03718489 0 6847.18102947 0 -173.59633744 0 -1945.66213411 0 10155
0.09650000 0.09649430 17884.79410981 0 160.54981710 0 6906.01936356 0 -236.38416979 0 -1517.17423595 0 9913
0.09750000 0.09749140 17797.76563674 0 183.99103598 0 6608.70529753 0 371.65808379 0 -1348.31021014 0 10476
0.09850000 0.09850240 17635.99897114 0 -92.98084417 0 6544.10935454 0 879.01415163 0 -672.16319384 0 10575
0.09950000 0.09950330 17668.66232935 0 -91.81459620 0 6677.46443465 0 718.36246914 0 -1342.09863592 0 10882
0.10050000 0.10051200 17617.61891194 0 130.91916866 0 6351.56162594 0 649.92885837 0 -1620.03613352 0 10875
0.10150000 0.10150300 17313.90504217 0 833.95089685 0 6654.77724110 0 732.15083524 0 -364.99808041 0 11118
0.10250000 0.10250800 16389.03375006 0 844.53825384 0 6165.85659408 0 49.08726979 0 -156.46855817 0 11575
0.10350000 0.10349800 15872.17762753 0 583.38750790 0 5963.96382334 0 355.64196594 0 1368.91580663 0 11364
0.10450000 0.10450100 15563.59193483 0 272.55745497 0 6117.13836488 0 490.91145102 0 1166.91231264 0 12093
0.10550000 0.10551000 15420.09460518 0 -129.09998569 0 5961.33968236 0 677.53327137 0 1580.48578926 0 12067
0.10650000 0.10649700 15619.50717517 0 -118.91566132 0 6154.08671280 0 875.55958629 0 1126.26580823 0 12054
0.10750000 0.10749900 15547.75851034 0 84.98009298 0 5675.35260462 0 385.52727786 0 1187.93865747 0 12807
0.10850000 0.10850100 15545.76549188 0 122.37687006 0 5609.67157379 0 399.68878130 0 1858.02468317 0 12736
0.10950000 0.10950300 15481.10311493 0 -6.97854309 0 5074.22501789 0 9.94531716 0 2208.27553416 0 12933
0.11050000 0.11050200 15415.77639850 0 212.44691076 0 5890.03391053 0 315.67751674 0 2035.68013488 0 13428
0.11150000 0.11150900 15513.10213366 0 154.85532045 0 5621.25322555 0 118.24689290 0 2018.52910374 0 13453
0.11250000 0.11250000 15196.87653684 0 274.13193956 0 5968.56991047 0 140.26199634 0 2324.94462077 0 13668
0.11350000 0.11349100 15011.74726587 0 372.33571007 0 5638.22709950 0 174.95712616 0 1330.20695906 0 13791
0.11450000 0.11448600 14688.43538117 0 111.38205151 0 6115.18963571 0 -311.99818320 0 1821.57458986 0 14205
0.11550000 0.11549300 14499.09862677 0 561.70235975 0 5666.40616616 0 -31.23768567 0 1095.99185771 0 14776
0.11650000 0.11649800 14227.05160598 0 372.49182985 0 5874.86482553 0 477.49290057 0 1823.47902973 0 14553
0.11750000 0.11747300 13989.32879212 0 -102.97040635 0 5306.61097118 0 -45.10123285 0 714.58569915 0 14568
0.11850000 0.11849100 13997.85448223 0 -65.59732405 0 5411.28873002 0 613.05801672 0 1017.28645120 0 16015
0.11950000 0.11950300 14181.65507422 0 -225.45246349 0 4859.06760201 0 397.72455088 0 805.08202435 0 15270
0.12050000 0.12050700 14364.68060347 0 -139.40278393 0 4573.22446450 0 393.56689291 0 469.03142995 0 15999
0.12150000 0.12150000 14197.26705221 0 230.41618671 0 4268.18191574 0 250.30318932 0 1005.53982180 0 15670
0.12250000 0.12250700 14072.70339800 0 346.55823066 0 4099.94901245 0 -134.55753459 0 873.67064768 0 16887
0.12350000 0.12352200 13954.67241544 0 171.80040635 0 4595.43554808 0 294.22931634 0 1388.82384665 0 16407
0.12450000 0.12449800 14093.29792217 0 16.30565914 0 4682.68546765 0 -193.24639229 0 1001.70326125 0 16306
0.12550000 0.12549900 13876.05890922 0 -2.46690290 0 4962.67134534 0 -159.89654994 0 832.39302075 0 17523
0.12650000 0.12650100 13867.42249587 0 415.78351266 0 5024.07845879 0 -143.52058153 0 1170.11221451 0 17154
0.12750000 0.12750600 13684.28624336 0 203.37314057 0 5396.75076753 0 -25.14392098 0 1362.83710030 0 18007
0.12850000 0.12850300 13476.56942977 0 167.73243421 0 5131.91183019 0 277.92199634 0 1182.04818066 0 17496
0.12950000 0.12949900 13465.49710495 0 75.00304254 0 5190.37370524 0 367.16161268 0 1141.61205043 0 18405
0.13050000 0.13049000 13125.57673302 0 305.27285311 0 4868.62301833 0 685.27171919 0 1217.57927101 0 18100
0.13150000 0.13148800 12902.58011117 0 362.93087737 0 4257.49712229 0 601.69116806 0 901.42232260 0 19059
0.13250000 0.13249300 12628.54007191 0 262.84591887 0 4249.85721817 0 517.35548438 0 1504.56285798 0 18957
0.13350000 0.13349100 12295.92743435 0 153.61522007 0 3896.49504390 0 41.47106044 0 1286.49342068 0 19468
0.13450000 0.13450700 12303.67806173 0 94.79725906 0 3927.59720432 0 488.63940997 0 1202.56519855 0 19953
0.13550000 0.13551000 12135.60017098 0 145.94099174 0 3817.52722330 0 -188.37014044 0 599.99599513 0 19956
0.13650000 0.13649900 11989.22403688 0 170.02994161 0 3670.19886926 0 -167.54974085 0 891.21917528 0 19723
0.13750000 0.13749600 12022.10884159 0 185.91762049 0 3886.71818109 0 -129.54177145 0 857.68996126 0 20946
0.13850000 0.13851100 11733.12116382 0 250.70179301 0 3803.77539587 0 -173.08811773 0 1094.42955268 0 20955
0.13950000 0.13949800 11651.96102290 0 201.06123915 0 3798.12851022 0 376.01504361 0 833.46482179 0 20506
0.14050000 0.14048300 11454.65219463 0 125.72403385 0 3471.62779596 0 682.69629644 0 1021.83939117 0 21447
0.14150000 0.14148400 11473.03225383 0 -175.40666254 0 3271.60624811 0 882.14429786 0 1205.48829231 0 21771
0.14250000 0.14249400 11356.44067349 0 51.63899777 0 3295.81035017 0 155.25060244 0 477.92029231 0 22470
0.14350000 0.14350900 11377.36736740 0 387.70298969 0 3073.75487593 0 -148.06798533 0 555.01135386 0 22519
0.14450000 0.14449900 11111.63157175 0 308.57572760 0 3724.42004390 0 -864.33335616 0 722.73160851 0 22218
0.14550000 0.14550500 10810.47540901 0 294.80618446 0 3565.78684622 0 -503.72655976 0 1079.69118111 0 23559
0.14650000 0.14650700 10779.73863531 0 183.72308572 0 3969.90455745 0 -124.27577376 0 724.69141001 0 23044
0.14750000 0.14750500 10599.42582564 0 43.91361529 0 3766.97098818 0 337.64500918 0 541.44997042 0 23649
0.14850000 0.14849900 10607.07680209 0 118.33325703 0 4117.50971961 0 581.49635483 0 61.11402901 0 23640
0.14950000 0.14949500 10388.67519504 0 181.14655573 0 3448.58628802 0 333.15296700 0 51.08593514 0 24457
0.15050000 0.15050000 10201.01036169 0 201.06013192 0 3668.87019028 0 82.74060457 0 259.55300947 0 24591
0.15150000 0.15149900 10063.86854649 0 255.17722670 0 3645.70688676 0 -385.44534266 0 -14.55700689 0 25020
0.15250000 0.15250500 9767.07487973 0 208.38558202 0 3929.84488626 0 -93.08459186 0 267.63359212 0 25297
0.15350000 0.15350100 9753.47806485 0 127.21215431 0 3579.58296294 0 20.27276240 0 354.33986054 0 25452
0.15450000 0.15450400 9781.66820384 0 -154.36592369 0 3489.97463819 0 445.95116886 0 175.29151037 0 26061
0.15550000 0.15549900 9742.93721162 0 -1.99936291 0 3417.99345454 0 728.30209513 0 87.32532210 0 26128
0.15650000 0.15649500 9789.14202309 0 211.96305017 0 3052.21920416 0 322.76380463 0 108.62559625 0 26331
0.15750000 0.15749700 9492.82446629 0 151.88461570 0 2612.64790886 0 356.09039510 0 463.65470901 0 27345
0.15850000 0.15849900 9374.19557818 0 89.97326858 0 2589.75034113 0 237.33971142 0 405.21608585 0 26980
0.15950000 0.15949700 9460.48220550 0 56.52045361 0 2491.33951814 0 161.83863571 0 205.79133631 0 27777
0.16050000 0.16050000 9185.89962232 0 175.38119620 0 2444.24892069 0 -60.44625710 0 362.68617899 0 28224
0.16150000 0.16150500 9148.24264561 0 267.45975662 0 2474.81960951 0 -69.85419005 0 529.69226870 0 28075
0.16250000 0.16249700 8906.78845829 0 125.26010344 0 2442.68772289 0 -152.03077039 0 558.64529086 0 28590
0.16350000 0.16349900 8859.80858409 0 121.12459012 0 2493.39897056 0 71.78786085 0 494.21211105 0 29163
0.16450000 0.16449100 8712.77918282 0 148.00819478 0 2564.14005383 0 211.83904013 0 865.36197513 0 28996
0.16550000 0.16550500 8722.09100799 0 25.70473424 0 2536.22672296 0 175.92041842 0 594.15534379 0 30777
0.16650000 0.16650700 8659.96419343 0 150.57697414 0 2689.67807262 0 14.79661199 0 588.33462263 0 29211
0.16750000 0.16749900 8568.47357346 0 277.95299885 0 2570.41806200 0 -129.34136237 0 478.03544449 0 30922
0.16850000 0.16850800 8315.64810855 0 142.34912957 0 2621.00751410 0 -106.52185453 0 742.11039141 0 30867
0.16950000 0.16949900 8222.04267453 0 28.92600570 0 2808.29588840 0 88.70393727 0 588.85723637 0 30852
0.17050000 0.17049200 8239.19370568 0 126.51459784 0 2591.01258616 0 157.23919198 0 366.41644522 0 31257
0.17150000 0.17149500 8142.35515281 0 65.17214678 0 2499.43338759 0 231.82458643 0 388.57548888 0 32608
0.17250000 0.17250900 8038.54103531 0 156.81290748 0 2304.67119403 0 200.74457066 0 616.48711572 0 32361
0.17350000 0.17350400 8031.05614373 0 31.09308111 0 2368.73566543 0 208.03569655 0 721.72070526 0 32508
0.17450000 0.17449800 7949.84064119 0 27.04415337 0 2305.16944864 0 123.06778313 0 502.63815023 0 32791
0.17550000 0.17549800 7938.82367799 0 112.39516923 0 2306.66421249 0 -21.39184227 0 552.80685399 0 33633
0.17650000 0.17650100 7869.10124861 0 137.96448894 0 2389.51841911 0 -101.18322240 0 437.01912443 0 33984
0.17750000 0.17750300 7845.26253328 0 100.28027431 0 2441.21510369 0 -49.14085984 0 635.58909049 0 34069
0.17850000 0.17849800 7752.31036642 0 15.93827941 0 2388.58834383 0 111.92570266 0 533.37049500 0 34536
