### header ###
fiducial parameters:
Omega_m = 0.31
Omega_nu = 0
Omega_de = 0.69
Omega_k = 0
H_0 = 100
w_de = -1
zeff = 0
beta = 0
fgrowth = 0
b_1 = 2
gamma = 0.55
Lx = 3500 Ly = 3500 Lz = 3500
nx = 700 ny = 700 nz = 700
xoffset = -685.467585 yoffset = -31.7331281 zoffset = 572.489161
bins = 400 dk = 0.001
kx_ny = 0.628318531 ky_ny = 0.628318531 kz_ny = 0.628318531
############################
A(data) = 8.03949087 (not used)
A(ran) = 8.04176048 (used)
Ngal = 477864
weighted Ngal = 0
Nran = 23820508
weighted Nran = 0
SN(data) = 3482.68013
SN(ran) = 70.0466502
SN(data+ran) = 3552.72678
############################
13 columns: k_central k_mean P_0(k) sigma^{lin}_{P_0(k)} P^img_1(k) sigma^{lin}_{P_1(k)} P_2(k) sigma^{lin}_{P_2(k)} P^img_3(k) sigma^{lin}_{P_3(k)} P_4(k) sigma^{lin}_{P_4(k)} N_modes
### header ###
0.00050000 0 0 0 0 0 0 0 0 0 0 0 0
0.00150000 0.00179520 36606.87742242 0 -57503.89749914 0 -8473.48409884 0 -71495.10858648 0 20686.64590517 0 3
0.00250000 0.00253879 46949.75748201 0 -29133.61178607 0 -25880.89492410 0 23973.46552759 0 46559.12586241 0 6
0.00350000 0.00331552 68330.85959981 0 -22338.30459837 0 -28384.12611910 0 -42815.79428772 0 -29284.41685010 0 7
0.00450000 0.00420575 59864.40642723 0 -901.33374400 0 -35879.75785158 0 -28533.93467389 0 14398.89408716 0 24
0.00550000 0.00557378 52100.60298764 0 7491.71212949 0 -37436.08382808 0 -36885.67856135 0 -16562.97997296 0 45
0.00650000 0.00659388 42029.88067209 0 -8631.27579983 0 -34695.12981923 0 -25894.62460687 0 11235.64160972 0 40
0.00750000 0.00754703 52516.03661484 0 -7230.63778259 0 -16813.43596036 0 -48151.99051082 0 -16314.73845053 0 57
0.00850000 0.00846663 59206.37816326 0 -6149.95673564 0 -13642.98647179 0 -29770.04901665 0 11397.51899857 0 75
0.00950000 0.00948925 65333.24910166 0 -4535.75571731 0 15423.74847237 0 -30761.90787390 0 -2763.38653894 0 112
0.01050000 0.01054430 72876.49183086 0 -4786.44422353 0 13322.44266829 0 8136.79684575 0 19723.02147621 0 105
0.01150000 0.01145670 78439.89215923 0 -9071.88789366 0 11849.93419066 0 15543.44030366 0 -13901.19308656 0 144
0.01250000 0.01249090 81129.47058093 0 -1792.54295419 0 26524.30771931 0 3150.51930390 0 -17801.41950393 0 169
0.01350000 0.01339930 78617.38152608 0 7074.31870080 0 16051.32784310 0 8108.46276654 0 -25626.45289976 0 180
0.01450000 0.01448870 69784.76657174 0 14196.15981973 0 19417.42531121 0 -16810.11426292 0 4343.50694148 0 267
0.01550000 0.01550050 61893.63139674 0 5201.58997028 0 22714.21002596 0 -11847.16610946 0 9078.27662508 0 238
0.01650000 0.01653350 64581.77041621 0 761.61096988 0 20341.07864758 0 -7870.38563829 0 -5976.05480204 0 315
0.01750000 0.01747870 67625.33106236 0 -4851.62699974 0 28558.84740473 0 -792.56143945 0 -19587.05332743 0 297
0.01850000 0.01844180 70787.91920031 0 -6447.69155002 0 23693.55715617 0 -6979.83855313 0 -21766.86191448 0 388
0.01950000 0.01947590 78481.08120756 0 -4671.81244468 0 28970.51644149 0 5966.93120639 0 -16039.70190204 0 399
0.02050000 0.02045430 82647.04342057 0 -2864.47686453 0 20262.79731112 0 14480.94001407 0 -25095.86709445 0 462
0.02150000 0.02154770 80565.11418492 0 2950.02164608 0 23904.15277422 0 2662.75017866 0 -22745.87687495 0 571
0.02250000 0.02255340 77881.73626512 0 9575.51258804 0 15462.61233249 0 -1109.53552543 0 -20120.73938369 0 510
0.02350000 0.02348930 70962.08686971 0 8775.32674572 0 15805.85440187 0 -2298.95787442 0 -5285.04208244 0 555
0.02450000 0.02439640 65603.74599698 0 2934.96328433 0 11914.15367461 0 143.81067644 0 3353.37536690 0 592
0.02550000 0.02547300 63020.12972379 0 -1082.44486829 0 16436.20185379 0 2072.22987911 0 -6914.24610090 0 837
0.02650000 0.02652900 64514.89357431 0 1193.82913427 0 19779.49033278 0 3594.61918005 0 -2492.81213735 0 723
0.02750000 0.02749970 62619.31156536 0 5332.12160757 0 24836.77469370 0 631.25981149 0 -3967.59044156 0 826
0.02850000 0.02848090 57391.73484873 0 6069.40557259 0 25595.00749728 0 -3941.84728636 0 8698.19693103 0 831
0.02950000 0.02946900 56001.93663749 0 4494.76597083 0 32560.49631744 0 744.62713084 0 16219.18428735 0 996
0.03050000 0.03053250 55348.33730345 0 1549.69365394 0 41270.31918953 0 3511.08956162 0 16635.28225403 0 1041
0.03150000 0.03150510 56140.67286747 0 -2120.44985369 0 35337.98899820 0 4838.96026014 0 13948.13974379 0 1036
0.03250000 0.03246190 54065.16558022 0 -2612.08322029 0 36711.62161520 0 7059.51500252 0 5205.33241607 0 1059
0.03350000 0.03345080 61343.00468351 0 -1323.62999812 0 34427.29028187 0 853.77478721 0 6055.37693704 0 1302
0.03450000 0.03451200 59578.07610742 0 1266.17570464 0 32646.41755803 0 2345.70522980 0 -3685.91049818 0 1339
0.03550000 0.03553350 56801.46921265 0 4595.32482483 0 30352.12113236 0 -2324.62352335 0 1079.10988406 0 1365
0.03650000 0.03647120 53518.85707366 0 3963.64869393 0 28048.96684684 0 3046.41730595 0 -1170.85406027 0 1308
0.03750000 0.03744890 50920.51460847 0 1890.30051001 0 26935.97675607 0 8201.70281384 0 2503.60765404 0 1579
0.03850000 0.03847530 47014.64130545 0 -503.52615069 0 23919.98619871 0 13772.42194892 0 3426.10946863 0 1662
0.03950000 0.03950240 48698.63118711 0 966.95055534 0 18277.30802464 0 10505.34428166 0 3620.36233525 0 1683
0.04050000 0.04050350 47116.28524728 0 1295.27377426 0 17511.32459368 0 4019.33141544 0 5858.96496709 0 1822
0.04150000 0.04152450 43492.97767363 0 3250.42489074 0 12087.32483477 0 1322.76635678 0 7741.48163275 0 1887
0.04250000 0.04250150 43700.91593372 0 2536.51460340 0 15050.94329573 0 -5435.24924093 0 10570.78172134 0 1920
0.04350000 0.04349210 41482.57565631 0 384.02808508 0 13028.80461410 0 259.95050593 0 6123.40530073 0 2005
0.04450000 0.04448520 40794.09849908 0 289.64315940 0 16903.34323789 0 365.09219518 0 3874.23967102 0 2151
0.04550000 0.04548030 41537.71583390 0 45.99499091 0 13251.35834296 0 -852.02203819 0 -690.33730779 0 2274
0.04650000 0.04648670 41587.54129559 0 622.52596167 0 16984.83554856 0 40.68957575 0 -2144.53216017 0 2311
0.04750000 0.04749250 41185.61590467 0 302.15710091 0 15856.23347979 0 -315.15047408 0 -893.99168541 0 2568
0.04850000 0.04851840 41346.27533779 0 878.55686462 0 14900.47040145 0 904.51703739 0 -2212.95912755 0 2493
0.04950000 0.04949480 40822.44365062 0 1208.34495211 0 18175.77480605 0 276.61656925 0 -660.38113300 0 2644
0.05050000 0.05050630 38323.08776931 0 2191.53417903 0 17533.69068982 0 2008.88510882 0 -3868.05024145 0 2829
0.05150000 0.05149060 36443.89280109 0 1573.13376558 0 14943.20957525 0 5019.29521446 0 -1164.24388236 0 2784
0.05250000 0.05249300 35449.15513938 0 1137.78102604 0 10975.14302371 0 2489.31328270 0 -1097.88854695 0 3055
0.05350000 0.05348950 34638.10734641 0 -738.41112769 0 11249.14984600 0 2861.00015454 0 -3530.24468355 0 3009
0.05450000 0.05448610 35553.45643917 0 -670.70275419 0 8758.80683709 0 -448.30182342 0 -6554.20731477 0 3336
0.05550000 0.05550870 34934.62420506 0 1480.24803268 0 8091.25637377 0 -2676.86739281 0 -5181.65978560 0 3349
0.05650000 0.05647670 34781.93684581 0 919.10925427 0 8991.55817710 0 -3279.04685039 0 -5526.86165648 0 3324
0.05750000 0.05747970 33700.94577376 0 1145.91918478 0 12164.72038525 0 -1939.42841523 0 -3042.81880039 0 3639
0.05850000 0.05849280 32902.40970784 0 1490.03596782 0 10676.24561523 0 3001.20900372 0 -3442.93940236 0 3846
0.05950000 0.05951020 32158.46020328 0 -312.24288158 0 11933.75168954 0 2990.40241470 0 -878.40738823 0 3787
0.06050000 0.06049470 31553.02548219 0 -36.23152561 0 9701.93639282 0 4415.84243952 0 -1627.70925461 0 3930
0.06150000 0.06148310 32524.62198503 0 881.76673158 0 12069.05549882 0 635.77953448 0 477.84057157 0 4083
0.06250000 0.06249100 31402.55258791 0 427.89220708 0 10012.13864494 0 -1110.13343097 0 268.84268999 0 4303
0.06350000 0.06350600 31724.86796338 0 -36.48674270 0 12921.73523310 0 -2908.56686196 0 2486.45662290 0 4470
0.06450000 0.06451750 31914.31544103 0 -134.14232241 0 12419.93747232 0 -931.88782434 0 1384.53885695 0 4479
0.06550000 0.06550280 32219.02582003 0 296.81359695 0 12759.19350477 0 1424.45458792 0 639.30717717 0 4636
0.06650000 0.06648880 31882.98076179 0 349.68173349 0 13751.38453177 0 1367.67570625 0 -2581.97756911 0 4653
0.06750000 0.06749660 30417.78001854 0 1059.26606352 0 11231.65557279 0 2327.74591895 0 -1035.72076479 0 5220
0.06850000 0.06852730 29451.71967811 0 1389.12279942 0 9520.08453000 0 3421.64732173 0 -2330.19290273 0 5029
0.06950000 0.06949320 28071.22221972 0 951.84458259 0 8434.21056271 0 828.59189164 0 -784.13318580 0 5040
0.07050000 0.07048030 27016.69400399 0 574.94264577 0 7177.44633417 0 476.58718440 0 -1749.52697227 0 5475
0.07150000 0.07148790 27143.13995342 0 456.95041634 0 8314.13120005 0 -1598.88799311 0 -2074.27825920 0 5509
0.07250000 0.07249820 26771.22056276 0 568.16638298 0 8201.90211569 0 -1467.22697869 0 -2414.14326951 0 5916
0.07350000 0.07351270 26273.51956217 0 135.77327586 0 9173.07787018 0 -1357.73275856 0 -2233.81938751 0 5721
0.07450000 0.07449140 26767.67741882 0 -383.48332670 0 9403.53723895 0 195.51178995 0 -3200.71015230 0 6028
0.07550000 0.07549160 27182.44670653 0 -102.60623759 0 10650.36959213 0 -838.80389682 0 -3675.84575492 0 6183
0.07650000 0.07648840 27212.45270679 0 664.51111015 0 10648.39871831 0 774.52462232 0 -2832.55535208 0 6330
0.07750000 0.07749960 26268.09412300 0 1099.65679722 0 10823.07571465 0 81.87463804 0 -2509.63099874 0 6583
0.07850000 0.07848650 25173.59481468 0 706.59369509 0 9936.83576384 0 -140.04054984 0 -2052.35505606 0 6549
0.07950000 0.07947320 25556.69725341 0 453.09171114 0 10976.19489457 0 406.03765235 0 -3727.01096791 0 6828
0.08050000 0.08048110 24893.02210378 0 183.45181376 0 10778.09993124 0 800.98194247 0 -1816.24880163 0 7147
0.08150000 0.08149960 24563.50971717 0 566.93956939 0 10041.61317360 0 1004.08159662 0 -1621.74127154 0 7386
0.08250000 0.08250610 24097.80773530 0 202.39434706 0 9574.34999393 0 1126.85264144 0 -1159.90353103 0 7227
0.08350000 0.08350160 23975.34782281 0 217.45270881 0 8336.54158548 0 2213.84491354 0 -692.08784235 0 7798
0.08450000 0.08449610 23380.76398005 0 44.70816532 0 8417.51349688 0 2346.81246229 0 -1735.99659134 0 7371
0.08550000 0.08548940 23212.79681255 0 345.37459914 0 6685.18184505 0 1250.71873919 0 -1251.81489935 0 8256
0.08650000 0.08650700 22313.72403727 0 659.45880834 0 7095.46684121 0 -29.17756892 0 -2805.95962787 0 8037
0.08750000 0.08749060 21439.23182310 0 1436.66736219 0 6616.35627398 0 -1115.59208710 0 -1224.93129469 0 8155
0.08850000 0.08849210 20646.78553583 0 902.65467235 0 6690.19760820 0 -414.99405590 0 -1761.08647938 0 8718
0.08950000 0.08949900 20315.16940751 0 54.96988524 0 6778.74298977 0 -12.39657487 0 -361.81367980 0 8571
0.09050000 0.09049190 20690.41049561 0 -377.72239610 0 6990.83337167 0 122.16538865 0 -1956.87839915 0 8932
0.09150000 0.09150830 20502.40242019 0 287.56931296 0 6567.66018943 0 799.28344785 0 -1839.05779075 0 9285
0.09250000 0.09250820 20472.17497344 0 463.59491846 0 7078.45975029 0 -194.08124558 0 -1493.64554571 0 9204
0.09350000 0.09350330 19952.88293944 0 856.50079358 0 6449.78421941 0 175.45980970 0 -1470.46009754 0 9349
0.09450000 0.09448040 19150.47155983 0 799.86585213 0 7508.60849717 0 -223.13502591 0 -1668.96473689 0 9564
0.09550000 0.09549270 18664.28577705 0 473.60540733 0 6983.13810592 0 200.90290490 0 -1481.06738472 0 10155
0.09650000 0.09649430 18329.90156752 0 308.62887476 0 7057.07909106 0 419.29565409 0 -1166.95660194 0 9913
0.09750000 0.09749140 17950.67444249 0 223.13059698 0 6508.08000958 0 524.15942798 0 -517.66772394 0 10476
0.09850000 0.09850240 17905.94225022 0 306.55170663 0 6745.64781089 0 811.76749408 0 -665.20202322 0 10575
0.09950000 0.09950330 17792.78309057 0 16.31340977 0 6411.40754159 0 495.92057077 0 -478.83929527 0 10882
0.10050000 0.10051200 17413.88813528 0 501.15335148 0 7431.64476735 0 -300.41763868 0 -320.03115486 0 10875
0.10150000 0.10150300 17146.27004441 0 718.25506759 0 7543.01021038 0 -77.38292803 0 34.08880931 0 11118
0.10250000 0.10250800 16591.54657100 0 467.26539414 0 7790.26629590 0 -375.62640501 0 616.86136030 0 11575
0.10350000 0.10349800 16463.21832635 0 327.01225566 0 7517.53279097 0 410.14216316 0 1103.86428065 0 11364
0.10450000 0.10450100 16346.07312977 0 -116.76984477 0 7372.28603400 0 650.72606575 0 321.96106108 0 12093
0.10550000 0.10551000 16317.94942473 0 -128.05918716 0 6668.29654970 0 1551.26592407 0 680.37000099 0 12067
0.10650000 0.10649700 16531.42384723 0 -282.55244258 0 6031.07318407 0 1069.76373468 0 140.18891899 0 12054
0.10750000 0.10749900 16179.43464125 0 96.00547114 0 4909.56847551 0 1053.14306789 0 200.45004682 0 12807
0.10850000 0.10850100 16585.78896209 0 79.55321442 0 5222.32843466 0 415.80122838 0 265.21761085 0 12736
0.10950000 0.10950300 15943.92629235 0 314.69872323 0 4806.91695212 0 647.50401923 0 860.04283029 0 12933
0.11050000 0.11050200 16078.34431565 0 315.45828471 0 5160.84381495 0 -440.69513627 0 913.56423400 0 13428
0.11150000 0.11150900 15552.74105651 0 438.07099529 0 5415.73980460 0 -1.56166284 0 1073.41870910 0 13453
0.11250000 0.11250000 15788.58157515 0 274.89592997 0 5523.59532065 0 -193.91294625 0 987.82631656 0 13668
0.11350000 0.11349100 15076.52036606 0 315.14383069 0 5578.29260526 0 121.89079500 0 1390.03073006 0 13791
0.11450000 0.11448600 15160.89148118 0 218.60644506 0 5413.97930495 0 65.34553938 0 1104.83200184 0 14205
0.11550000 0.11549300 14669.05881274 0 213.65822310 0 5166.01459064 0 299.56285520 0 1102.51899319 0 14776
0.11650000 0.11649800 14612.36850966 0 375.21894345 0 5089.87021286 0 187.11896774 0 2.53528558 0 14553
0.11750000 0.11747300 14162.05705929 0 189.01897868 0 4788.78048406 0 29.50829926 0 83.63546986 0 14568
0.11850000 0.11849100 14149.43460900 0 377.35590214 0 4709.67979556 0 128.17212487 0 -400.88680685 0 16015
0.11950000 0.11950300 13789.36260589 0 65.76252313 0 4510.98692669 0 32.84959472 0 388.56109486 0 15270
0.12050000 0.12050700 13754.92767571 0 89.44135410 0 4228.16653385 0 620.61266394 0 -66.31370346 0 15999
0.12150000 0.12150000 13600.13657474 0 202.67779857 0 4444.33153128 0 432.46286277 0 558.14039285 0 15670
0.12250000 0.12250700 13512.44376218 0 223.96766473 0 4205.54577424 0 434.54888876 0 223.49709093 0 16887
0.12350000 0.12352200 13190.46055645 0 179.71711860 0 4249.28145728 0 208.73878918 0 1069.28983918 0 16407
0.12450000 0.12449800 13357.32049147 0 -139.50686379 0 3843.08214898 0 218.39607089 0 765.37666755 0 16306
0.12550000 0.12549900 13239.28950890 0 -95.12909664 0 4104.32258075 0 369.23767359 0 907.81991188 0 17523
0.12650000 0.12650100 13641.87923931 0 -30.18559337 0 4107.05744498 0 -81.16169105 0 568.00029810 0 17154
0.12750000 0.12750600 13476.01581353 0 206.91074835 0 4494.23449924 0 -414.60098837 0 589.32781017 0 18007
0.12850000 0.12850300 13301.73742088 0 489.25281676 0 4396.34407552 0 -631.23434514 0 874.56086259 0 17496
0.12950000 0.12949900 12878.77461281 0 238.72375202 0 4630.25800964 0 -346.33567693 0 528.75887171 0 18405
0.13050000 0.13049000 13022.16121921 0 75.46254402 0 4778.32820944 0 398.03679044 0 556.44411269 0 18100
0.13150000 0.13148800 12759.85784426 0 2.68353293 0 4221.12453526 0 378.04792245 0 -457.56714483 0 19059
0.13250000 0.13249300 12688.21990268 0 212.60635224 0 3958.96510053 0 531.22910738 0 -321.14724520 0 18957
0.13350000 0.13349100 12552.36247715 0 213.65268693 0 3863.87597499 0 163.17285085 0 -603.49706424 0 19468
0.13450000 0.13450700 12128.29243660 0 222.07983335 0 3426.66308487 0 122.02919906 0 -631.91972205 0 19953
0.13550000 0.13551000 12084.88892331 0 340.86041231 0 3792.12731016 0 -39.00381430 0 -374.63100301 0 19956
0.13650000 0.13649900 11877.50427946 0 110.25223149 0 3785.58356620 0 50.04812614 0 -507.86650201 0 19723
0.13750000 0.13749600 11819.26385091 0 45.66337478 0 3905.85115838 0 168.65365164 0 296.93760699 0 20946
0.13850000 0.13851100 11685.17799736 0 152.47034168 0 3765.25477783 0 340.13406780 0 180.85867529 0 20955
0.13950000 0.13949800 11693.70368747 0 117.78849865 0 3490.83827952 0 476.57389761 0 386.33555757 0 20506
0.14050000 0.14048300 11821.03542288 0 -152.97745416 0 3484.84815180 0 697.58192992 0 399.89583378 0 21447
0.14150000 0.14148400 11603.68568669 0 187.70690819 0 2955.02633690 0 316.76149734 0 216.34436910 0 21771
0.14250000 0.14249400 11539.02330975 0 244.51347067 0 2921.69863920 0 -270.13372307 0 -60.26876773 0 22470
0.14350000 0.14350900 11216.48648779 0 278.48779214 0 2729.71559916 0 -367.27344316 0 -77.58211916 0 22519
0.14450000 0.14449900 11028.37876144 0 286.06458401 0 3040.56004612 0 -303.61532608 0 -293.90821892 0 22218
0.14550000 0.14550500 10899.69620240 0 187.05031932 0 3143.22264184 0 -216.55585050 0 -575.06665580 0 23559
0.14650000 0.14650700 10616.46613354 0 205.29418893 0 3307.02661521 0 234.79529117 0 -296.09057414 0 23044
0.14750000 0.14750500 10558.83468286 0 151.69749341 0 3364.92380169 0 340.93791858 0 -383.09690256 0 23649
0.14850000 0.14849900 10455.15343325 0 97.04649112 0 3466.58988817 0 336.55106349 0 113.13037160 0 23640
0.14950000 0.14949500 10394.05634491 0 53.30859363 0 3281.47168953 0 303.64079243 0 364.90507289 0 24457
0.15050000 0.15050000 10274.34236897 0 107.72818432 0 3500.12796005 0 640.86283881 0 973.14552108 0 24591
0.15150000 0.15149900 10337.38818648 0 138.97871389 0 3432.09959636 0 241.24934931 0 910.67989338 0 25020
0.15250000 0.15250500 10290.31973368 0 139.79142253 0 3311.66591931 0 85.88337324 0 966.18213600 0 25297
0.15350000 0.15350100 9881.36341650 0 379.85714032 0 3240.13870098 0 -137.24257336 0 836.82305791 0 25452
0.15450000 0.15450400 9634.04089703 0 442.40138152 0 3300.30571404 0 -185.46365518 0 1382.64548940 0 26061
0.15550000 0.15549900 9254.18264948 0 293.64580482 0 3139.84558277 0 218.15801590 0 823.65031307 0 26128
0.15650000 0.15649500 9165.98050997 0 27.56732072 0 2866.97920994 0 300.09986295 0 482.59392062 0 26331
0.15750000 0.15749700 9074.34594977 0 -125.99419858 0 2549.35850019 0 558.61871729 0 150.89696433 0 27345
0.15850000 0.15849900 9265.36569754 0 -8.10191902 0 2526.79310221 0 58.94396407 0 -230.70074546 0 26980
0.15950000 0.15949700 9076.69328263 0 16.73526535 0 2228.01748931 0 34.63578216 0 -125.24903112 0 27777
0.16050000 0.16050000 9068.61048552 0 199.53547279 0 2257.51416262 0 -274.17844332 0 27.79740363 0 28224
0.16150000 0.16150500 9104.41838398 0 167.64607008 0 2477.42160585 0 -262.97435784 0 -31.17800584 0 28075
0.16250000 0.16249700 8896.43583459 0 114.45794335 0 2668.28634107 0 4.21321890 0 267.43318304 0 28590
0.16350000 0.16349900 8846.82074707 0 122.25507449 0 2712.85244847 0 110.68925615 0 263.23677194 0 29163
0.16450000 0.16449100 8794.51508463 0 105.93302830 0 2556.33406483 0 166.98283782 0 364.01375074 0 28996
0.16550000 0.16550500 8769.73522169 0 61.39714835 0 2664.35566576 0 246.01155622 0 279.64927901 0 30777
0.16650000 0.16650700 8675.84190722 0 3.86011138 0 2508.10301792 0 0.19850242 0 317.05048502 0 29211
0.16750000 0.16749900 8605.90910367 0 183.84045236 0 2505.60067251 0 -73.37884321 0 -126.48691703 0 30922
0.16850000 0.16850800 8508.32870504 0 172.39166850 0 2568.91222582 0 -163.03333956 0 -214.97361528 0 30867
0.16950000 0.16949900 8322.11434624 0 249.93226643 0 2401.13328785 0 -333.99889262 0 -318.76669537 0 30852
0.17050000 0.17049200 8242.58183707 0 65.12066047 0 2614.40840850 0 -207.78989094 0 -331.57516072 0 31257
0.17150000 0.17149500 8279.80699311 0 -21.17150301 0 2531.91958860 0 15.65405283 0 -326.99564717 0 32608
0.17250000 0.17250900 8256.20079660 0 -7.11812082 0 2489.39078898 0 348.42613186 0 -497.58917012 0 32361
0.17350000 0.17350400 8316.02456759 0 -34.06400730 0 2415.39444221 0 479.80037306 0 -14.36479133 0 32508
0.17450000 0.17449800 8344.14827263 0 -58.11187885 0 2311.48067379 0 384.36579099 0 -213.71469195 0 32791
0.17550000 0.17549800 8427.00247925 0 -25.63852173 0 2048.43545307 0 378.61593271 0 -49.02205380 0 33633
0.17650000 0.17650100 8259.82144681 0 193.22314041 0 2163.48798026 0 21.62026433 0 53.91458196 0 33984
0.17750000 0.17750300 8110.26755549 0 283.92319639 0 2059.41919929 0 5.32213437 0 361.91333072 0 34069
