### header ###
fiducial parameters:
Omega_m = 0.31
Omega_nu = 0
Omega_de = 0.69
Omega_k = 0
H_0 = 100
w_de = -1
zeff = 0
beta = 0
fgrowth = 0
b_1 = 2
gamma = 0.55
Lx = 3500 Ly = 3500 Lz = 3500
nx = 700 ny = 700 nz = 700
xoffset = -685.467585 yoffset = -31.7331281 zoffset = 572.489161
bins = 400 dk = 0.001
kx_ny = 0.628318531 ky_ny = 0.628318531 kz_ny = 0.628318531
############################
A(data) = 8.00954699 (not used)
A(ran) = 8.00451669 (used)
Ngal = 475649
weighted Ngal = 0
Nran = 23820508
weighted Nran = 0
SN(data) = 3492.09171
SN(ran) = 69.7222433
SN(data+ran) = 3561.81395
############################
13 columns: k_central k_mean P_0(k) sigma^{lin}_{P_0(k)} P^img_1(k) sigma^{lin}_{P_1(k)} P_2(k) sigma^{lin}_{P_2(k)} P^img_3(k) sigma^{lin}_{P_3(k)} P_4(k) sigma^{lin}_{P_4(k)} N_modes
### header ###
0.00050000 0 0 0 0 0 0 0 0 0 0 0 0
0.00150000 0.00179520 36696.34180695 0 -43457.10334122 0 10166.92974590 0 21246.24120151 0 -73150.75331661 0 3
0.00250000 0.00253879 46400.01655476 0 -19779.60105603 0 10393.34771612 0 -5031.75157988 0 41092.49765295 0 6
0.00350000 0.00331552 53003.88324635 0 3159.12250028 0 18886.50733616 0 -57955.20545875 0 -22097.92442656 0 7
0.00450000 0.00420575 46657.22666030 0 13214.81967105 0 -1473.16174480 0 -18861.70532856 0 26982.81269005 0 24
0.00550000 0.00557378 39986.70457331 0 9324.99016669 0 15750.27133128 0 -35905.11347541 0 5559.94576303 0 45
0.00650000 0.00659388 34097.11355577 0 4140.24120246 0 23714.70529658 0 -26716.52327816 0 10703.23994314 0 40
0.00750000 0.00754703 50238.01650665 0 -20273.31601969 0 53636.99877948 0 957.62765785 0 2769.19950947 0 57
0.00850000 0.00846663 56095.38705896 0 -13507.12904627 0 45018.30114064 0 23931.27997003 0 -895.39676343 0 75
0.00950000 0.00948925 69610.59890235 0 1191.85826045 0 39730.38025376 0 18601.17352558 0 -8984.71548036 0 112
0.01050000 0.01054430 75325.13646450 0 3664.50769430 0 31927.38078431 0 36212.92410537 0 10487.45140475 0 105
0.01150000 0.01145670 67574.06619845 0 4664.49363798 0 10967.74671073 0 21260.30305403 0 7255.03011417 0 144
0.01250000 0.01249090 64983.03146764 0 2707.83668532 0 11640.33508184 0 28173.64122429 0 13776.40798586 0 169
0.01350000 0.01339930 68538.13352041 0 2353.69944832 0 8240.05734701 0 13624.16351960 0 -694.77952451 0 180
0.01450000 0.01448870 69763.28626160 0 -13165.87999536 0 8753.80214627 0 496.61037660 0 -1615.17538292 0 267
0.01550000 0.01550050 74171.73238814 0 -4937.98006100 0 5081.14522090 0 -13009.20659917 0 -1169.66932152 0 238
0.01650000 0.01653350 75857.49384178 0 11710.97651419 0 21739.29182568 0 -15644.41990601 0 3125.08617379 0 315
0.01750000 0.01747870 73962.90834206 0 9669.40590250 0 20457.00588843 0 -7255.89375551 0 3727.97426016 0 297
0.01850000 0.01844180 73780.43642905 0 -5181.40512213 0 26911.72836471 0 -53.51077428 0 2378.93327659 0 388
0.01950000 0.01947590 74467.47418405 0 -3906.74801669 0 42585.60065474 0 7267.77436004 0 -8972.71308026 0 399
0.02050000 0.02045430 77624.08326659 0 15.45087567 0 29144.35194114 0 11342.82171397 0 -18897.80110747 0 462
0.02150000 0.02154770 74419.19884784 0 2824.07395127 0 30696.91332722 0 5955.31633766 0 -9171.10699636 0 571
0.02250000 0.02255340 71884.41152710 0 1489.10589253 0 22445.92759561 0 -591.33411543 0 4923.84070220 0 510
0.02350000 0.02348930 71555.45275674 0 1979.00090414 0 24159.92347753 0 3195.14077292 0 8967.43158132 0 555
0.02450000 0.02439640 67273.45257963 0 3371.73328145 0 25774.37915934 0 -398.55054631 0 1031.39370025 0 592
0.02550000 0.02547300 70850.25638904 0 895.87287340 0 27790.31733907 0 931.19801850 0 1439.92262569 0 837
0.02650000 0.02652900 72620.38895780 0 -395.47908341 0 35676.13779816 0 -6392.57351707 0 7850.12328387 0 723
0.02750000 0.02749970 69045.13527386 0 3373.16161135 0 37993.24321296 0 -3096.06561044 0 10858.09747806 0 826
0.02850000 0.02848090 69145.22909022 0 5541.93109055 0 44835.93995088 0 3289.73164384 0 17176.05459817 0 831
0.02950000 0.02946900 65419.94540499 0 2272.66110298 0 41452.68037930 0 8172.70439514 0 9947.36554475 0 996
0.03050000 0.03053250 63018.46887507 0 1062.88117757 0 39837.33891150 0 12272.78627548 0 9272.62914262 0 1041
0.03150000 0.03150510 63070.28735522 0 2107.16306391 0 38115.92457195 0 7766.05112152 0 7783.67826264 0 1036
0.03250000 0.03246190 58914.40095779 0 2374.17217691 0 29116.11751286 0 11779.84637456 0 5731.03532613 0 1059
0.03350000 0.03345080 57630.01127883 0 5045.02729734 0 23218.55442145 0 4726.17755954 0 2650.98029738 0 1302
0.03450000 0.03451200 53133.98306297 0 1417.55652956 0 19442.11659556 0 5322.10115360 0 4647.19866661 0 1339
0.03550000 0.03553350 52219.18758645 0 264.93748103 0 15597.25180228 0 4373.24720595 0 3026.33210873 0 1365
0.03650000 0.03647120 50876.00386270 0 -1188.95731135 0 11693.03934798 0 8626.62542340 0 3965.28739800 0 1308
0.03750000 0.03744890 51141.96110485 0 1015.34325819 0 7954.52423459 0 5898.95820433 0 -776.00942108 0 1579
0.03850000 0.03847530 49356.99162083 0 1545.71868933 0 5008.89830146 0 2421.99354781 0 -2146.51410632 0 1662
0.03950000 0.03950240 47232.87682762 0 2726.28317847 0 7374.10189527 0 -2930.01395513 0 103.31508782 0 1683
0.04050000 0.04050350 46274.45639132 0 2061.98797865 0 10224.95980028 0 -5992.55256602 0 1484.12334637 0 1822
0.04150000 0.04152450 43127.36950812 0 2133.48198001 0 8462.32319542 0 -2548.94882418 0 2453.39466099 0 1887
0.04250000 0.04250150 41958.24273052 0 3032.98657595 0 14769.26335234 0 -4060.09971542 0 1609.10774892 0 1920
0.04350000 0.04349210 40468.68287266 0 1951.54153859 0 14564.97895944 0 2774.81317815 0 -3800.65300027 0 2005
0.04450000 0.04448520 38357.07980650 0 46.68202867 0 15119.59170961 0 3261.59686648 0 -398.34903000 0 2151
0.04550000 0.04548030 39033.93102266 0 1141.23559138 0 12725.20146757 0 3019.51155664 0 -1817.46675736 0 2274
0.04650000 0.04648670 38671.20166160 0 -1597.49288018 0 14046.90488118 0 2360.97396573 0 -1353.41455188 0 2311
0.04750000 0.04749250 39103.13305278 0 -593.39688954 0 13161.45106543 0 -1133.08636032 0 -266.24512259 0 2568
0.04850000 0.04851840 39833.57432107 0 1348.31021014 0 13614.30915051 0 -367.23358280 0 1935.42023365 0 2493
0.04950000 0.04949480 39117.85924479 0 1446.56602058 0 14031.18217993 0 -2200.33667726 0 2905.40017706 0 2644
0.05050000 0.05050630 38698.32885741 0 895.47316248 0 14446.28363738 0 1173.73286473 0 728.45821491 0 2829
0.05150000 0.05149060 38968.49358298 0 -281.98443232 0 16376.30057652 0 785.81064301 0 2955.03740922 0 2784
0.05250000 0.05249300 39628.95775842 0 116.05678705 0 18218.29253335 0 304.61847871 0 4942.43113557 0 3055
0.05350000 0.05348950 38812.48452629 0 1096.52222207 0 18275.64717591 0 2463.66977842 0 4911.71650653 0 3009
0.05450000 0.05448610 38669.98370587 0 752.55380818 0 17204.17830321 0 149.66461457 0 6097.04209534 0 3336
0.05550000 0.05550870 37601.17219113 0 569.34004941 0 16848.75667653 0 1652.65520243 0 7284.41606424 0 3349
0.05650000 0.05647670 37031.50107921 0 697.05156556 0 19151.80023881 0 787.57667882 0 2667.07945767 0 3324
0.05750000 0.05747970 36499.58659492 0 988.38657619 0 16662.18800334 0 -1484.49980541 0 1742.92786668 0 3639
0.05850000 0.05849280 35428.89278496 0 1465.87615507 0 15841.06439479 0 -1039.21519050 0 -1212.27562742 0 3846
0.05950000 0.05951020 34347.12665018 0 981.35122100 0 14957.38215101 0 1181.76030022 0 -1879.07317265 0 3787
0.06050000 0.06049470 33821.63411429 0 -399.10194809 0 14418.71354859 0 1340.36028092 0 -1070.95843853 0 3930
0.06150000 0.06148310 33540.06489415 0 -484.35774196 0 14839.35116845 0 4238.20913246 0 -2966.02115544 0 4083
0.06250000 0.06249100 33381.95209574 0 1424.83104696 0 13078.96224553 0 3961.24599944 0 -1388.33666436 0 4303
0.06350000 0.06350600 31821.52935904 0 2191.62275763 0 13270.29201840 0 1369.58014612 0 -2020.64391778 0 4470
0.06450000 0.06451750 30434.16705927 0 1417.71154210 0 12274.55784745 0 670.37058445 0 4459.23488049 0 4479
0.06550000 0.06550280 29466.55659337 0 285.54086305 0 11740.53962145 0 1191.24928259 0 5271.51170151 0 4636
0.06650000 0.06648880 30361.86477820 0 -317.04716332 0 11127.57571949 0 3375.77468001 0 4266.97503234 0 4653
0.06750000 0.06749660 30067.89455427 0 -1293.55756391 0 9017.10203046 0 2117.57104924 0 2145.67260963 0 5220
0.06850000 0.06852730 29963.26108473 0 179.21554228 0 6836.95020134 0 1518.18181751 0 1945.55141086 0 5029
0.06950000 0.06949320 30312.15003977 0 1085.29820640 0 8679.92759508 0 -699.55058927 0 353.90693264 0 5040
0.07050000 0.07048030 29336.78894649 0 946.16447996 0 6869.73535513 0 -28.66945993 0 -218.49572181 0 5475
0.07150000 0.07148790 28630.70679281 0 22.68907585 0 7593.82110897 0 -473.27323758 0 1559.24907026 0 5509
0.07250000 0.07249820 28870.97624137 0 -165.54011390 0 8332.06836625 0 -1089.93529603 0 705.72451759 0 5916
0.07350000 0.07351270 29556.46387089 0 740.20262985 0 10589.28357611 0 -371.90278217 0 1979.54344805 0 5721
0.07450000 0.07449140 27826.85601097 0 1457.76014097 0 10262.24031794 0 -127.04164050 0 1834.97210289 0 6028
0.07550000 0.07549160 26932.65505862 0 1648.46986365 0 11358.43369196 0 416.84645584 0 3130.15729856 0 6183
0.07650000 0.07648840 26033.02866710 0 487.34284073 0 10906.82677958 0 1155.88427712 0 3998.22756434 0 6330
0.07750000 0.07749960 25769.28588992 0 451.22491717 0 10550.94011526 0 2617.87404617 0 3240.61481095 0 6583
0.07850000 0.07848650 25996.26854871 0 -340.85155445 0 9513.44113510 0 507.13794304 0 2957.37366976 0 6549
0.07950000 0.07947320 25641.17909177 0 -362.00301655 0 8167.09072646 0 988.57812741 0 1857.05031858 0 6828
0.08050000 0.08048110 25683.14320284 0 58.75041983 0 7531.40641397 0 -326.69558717 0 -57.26141359 0 7147
0.08150000 0.08149960 25203.93298468 0 378.09442621 0 8313.81010263 0 -651.33393639 0 -357.93947334 0 7386
0.08250000 0.08250610 24656.84941540 0 1021.58251323 0 7059.88038924 0 419.87030775 0 -1187.41825820 0 7227
0.08350000 0.08350160 23803.17317188 0 1014.04336726 0 6370.66138625 0 965.73592131 0 -253.62820846 0 7798
0.08450000 0.08449610 23494.91964893 0 643.71285521 0 7093.10843602 0 488.18212295 0 -72.65781342 0 7371
0.08550000 0.08548940 22655.74815092 0 763.60066665 0 6405.67207733 0 1045.97484481 0 -715.01751981 0 8256
0.08650000 0.08650700 21343.67765991 0 1116.06819707 0 6918.70824780 0 -493.35843480 0 524.43955780 0 8037
0.08750000 0.08749060 20774.00654799 0 987.81635146 0 6871.07510643 0 539.68725631 0 949.60575851 0 8155
0.08850000 0.08849210 19979.45651901 0 250.53460090 0 7378.91835657 0 -185.37950551 0 173.97501095 0 8718
0.08950000 0.08949900 20171.78280111 0 -122.77547375 0 6289.93306600 0 375.70612575 0 -823.04133521 0 8571
0.09050000 0.09049190 20008.90890302 0 273.01142029 0 6812.89003951 0 56.13336513 0 -1035.33655512 0 8932
0.09150000 0.09150830 19912.69040035 0 740.37425088 0 6496.21047737 0 -309.76157359 0 -840.23001226 0 9285
0.09250000 0.09250820 19231.74242400 0 212.27418249 0 6596.70289743 0 -287.14524292 0 -1843.20991256 0 9204
0.09350000 0.09350330 18995.79118212 0 227.72450455 0 6368.45799362 0 630.46481857 0 -1895.74809382 0 9349
0.09450000 0.09448040 18995.90190537 0 -337.10910866 0 6277.21096479 0 813.37630288 0 -886.09158166 0 9564
0.09550000 0.09549270 19343.46218142 0 -232.41806304 0 6093.66503627 0 1575.53646007 0 -822.87303587 0 10155
0.09650000 0.09649430 19623.37055284 0 -82.65147235 0 5919.09876318 0 599.61289269 0 -107.15784887 0 9913
0.09750000 0.09749140 19054.80667340 0 608.89039366 0 6141.94037248 0 307.50503379 0 337.25969228 0 10476
0.09850000 0.09850240 18827.38112163 0 815.77567566 0 5179.72212876 0 -145.15485668 0 165.49028844 0 10575
0.09950000 0.09950330 17861.54222770 0 668.37756598 0 5831.89313290 0 -109.22925940 0 928.73885516 0 10882
0.10050000 0.10051200 17384.54647451 0 521.97818000 0 5518.20309847 0 -428.67612768 0 -283.99516651 0 10875
0.10150000 0.10150300 17061.12386656 0 356.56207613 0 5669.34033224 0 -278.07036550 0 -1536.00826047 0 11118
0.10250000 0.10250800 16443.50958817 0 511.98097792 0 5546.98007067 0 -272.27289622 0 -1388.71312340 0 11575
0.10350000 0.10349800 16012.57470623 0 693.25597262 0 5076.16267473 0 126.05398913 0 -649.16818965 0 11364
0.10450000 0.10450100 15745.28878511 0 -142.53957355 0 4541.86764061 0 1225.30775373 0 -604.85010233 0 12093
0.10550000 0.10551000 16137.80269993 0 -545.68181297 0 4043.03726288 0 1742.29674416 0 -634.45417720 0 12067
0.10650000 0.10649700 16258.71248695 0 97.93936340 0 4184.60800801 0 831.37325964 0 -716.34066263 0 12054
0.10750000 0.10749900 16409.96044397 0 593.09461507 0 4469.68715512 0 141.45337849 0 504.93565763 0 12807
0.10850000 0.10850100 15359.19681868 0 574.36577764 0 4617.29231727 0 -492.75831480 0 1628.37359410 0 12736
0.10950000 0.10950300 15491.17893052 0 405.52168202 0 5109.01426247 0 -438.75858666 0 2058.81022143 0 12933
0.11050000 0.11050200 15081.94580522 0 57.82864879 0 5280.24776579 0 -146.50678754 0 2299.03538069 0 13428
0.11150000 0.11150900 15325.42622798 0 -194.93381459 0 5642.88854825 0 38.27580894 0 1452.08003834 0 13453
0.11250000 0.11250000 15155.68748851 0 197.62881846 0 5887.01116585 0 135.90060759 0 1738.76467255 0 13668
0.11350000 0.11349100 14988.71683025 0 594.60045125 0 5618.76195247 0 261.16071103 0 823.48754990 0 13791
0.11450000 0.11448600 14568.85427313 0 422.07923655 0 5090.45704607 0 214.96475742 0 1017.67287534 0 14205
0.11550000 0.11549300 14414.61678840 0 93.99717287 0 5275.67489564 0 684.77125011 0 332.61374478 0 14776
0.11650000 0.11649800 14137.80866794 0 96.28670819 0 4897.74323260 0 101.28929527 0 -245.58084278 0 14553
0.11750000 0.11747300 13971.94524215 0 348.58335887 0 4349.31991201 0 298.67485475 0 -142.54621695 0 14568
0.11850000 0.11849100 13664.57750519 0 103.40986692 0 4143.91721430 0 -87.15447613 0 -297.23102359 0 16015
0.11950000 0.11950300 13746.95560184 0 -106.07442189 0 3792.73628803 0 219.20545783 0 -1157.67799374 0 15270
0.12050000 0.12050700 13627.48521705 0 -89.33982088 0 3488.77882711 0 326.71662459 0 -1513.13283739 0 15999
0.12150000 0.12150000 13756.14563144 0 208.91262468 0 3639.59496346 0 223.50816325 0 -1571.34004896 0 15670
0.12250000 0.12250700 13508.56844849 0 23.22586216 0 3028.07046373 0 305.16877326 0 -1206.55123549 0 16887
0.12350000 0.12352200 13557.72957069 0 200.39911413 0 3451.32115225 0 242.39754939 0 -577.32430283 0 16407
0.12450000 0.12449800 13318.67807785 0 349.05061098 0 3899.58422253 0 48.15697306 0 -70.90650380 0 16306
0.12550000 0.12549900 13112.40066648 0 234.58713147 0 4226.27316630 0 -217.52578615 0 166.15130623 0 17523
0.12650000 0.12650100 13094.02060728 0 189.86490429 0 4357.70166190 0 -227.82747717 0 779.22150251 0 17154
0.12750000 0.12750600 13042.42357363 0 31.33667226 0 4645.58210718 0 -193.20763916 0 1367.43211510 0 18007
0.12850000 0.12850300 13057.48193538 0 97.66399468 0 4904.06553008 0 22.64223991 0 1091.00377538 0 17496
0.12950000 0.12949900 12947.86591968 0 122.63153353 0 4894.15579936 0 392.71432390 0 1174.61865071 0 18405
0.13050000 0.13049000 12797.94664163 0 101.54130138 0 4417.62508382 0 235.33451339 0 565.83233690 0 18100
0.13150000 0.13148800 12889.07187489 0 -26.18804121 0 4221.87745335 0 363.12575029 0 311.80995368 0 19059
0.13250000 0.13249300 12566.31360643 0 274.17290716 0 4587.62955908 0 -108.79312052 0 68.72569870 0 18957
0.13350000 0.13349100 12516.48814474 0 638.83217443 0 4138.74643861 0 -565.09381284 0 -21.93006798 0 19468
0.13450000 0.13450700 12063.07644342 0 282.01211313 0 4626.23875573 0 -234.01579951 0 268.37322342 0 19953
0.13550000 0.13551000 11891.56613198 0 145.77047793 0 4969.65798230 0 -113.02629175 0 495.86742361 0 19956
0.13650000 0.13649900 11995.86743177 0 14.99801758 0 4934.72479750 0 553.21320831 0 41.96610408 0 19723
0.13750000 0.13749600 11957.44646465 0 -98.69892488 0 4795.56781918 0 558.56114120 0 371.38349014 0 20946
0.13850000 0.13851100 11997.86045024 0 57.97735011 0 4199.58886349 0 318.35591212 0 118.25021460 0 20955
0.13950000 0.13949800 12003.17516615 0 110.78636044 0 4421.15715544 0 278.79781724 0 431.96903708 0 20506
0.14050000 0.14048300 11681.74557666 0 97.33116060 0 3821.21430746 0 526.23216719 0 40.04073752 0 21447
0.14150000 0.14148400 11543.78440942 0 177.53587061 0 3675.09283683 0 169.65126810 0 173.77570910 0 21771
0.14250000 0.14249400 11386.66812025 0 306.56277895 0 3759.02105896 0 -115.12449730 0 11.99332080 0 22470
0.14350000 0.14350900 10962.12196973 0 255.52600493 0 3818.92233622 0 104.04851862 0 -82.71713124 0 22519
0.14450000 0.14449900 10880.61858674 0 356.01399606 0 3545.98952945 0 144.92233785 0 -127.34723667 0 22218
0.14550000 0.14550500 10571.61214570 0 331.93390404 0 3603.73170337 0 287.14302845 0 290.23109984 0 23559
0.14650000 0.14650700 10444.52400143 0 60.18915771 0 3330.36707593 0 456.86294497 0 -242.40640725 0 23044
0.14750000 0.14750500 10358.51418224 0 67.31320223 0 3306.62801152 0 198.07946208 0 -90.73438019 0 23649
0.14850000 0.14849900 10121.44463555 0 197.18813993 0 3091.20485984 0 296.42828004 0 102.29023343 0 23640
0.14950000 0.14949500 10116.39565543 0 206.26744628 0 3283.23218917 0 82.23017039 0 271.75138972 0 24457
0.15050000 0.15050000 9871.44261347 0 116.67905171 0 3039.95106826 0 384.04026464 0 745.36565491 0 24591
0.15150000 0.15149900 9944.29851077 0 18.11421268 0 3234.69111717 0 351.40015830 0 864.94344125 0 25020
0.15250000 0.15250500 9867.06904516 0 6.17203495 0 3033.87236193 0 174.82647272 0 985.39704849 0 25297
0.15350000 0.15350100 9871.65298764 0 134.66272168 0 3263.10270265 0 358.00922899 0 1430.19005217 0 25452
0.15450000 0.15450400 9823.36657910 0 173.93736504 0 3232.12233781 0 -151.71853083 0 1388.19272414 0 26061
0.15550000 0.15549900 9583.15249216 0 212.69714530 0 3190.87792786 0 -37.91551549 0 1355.79510172 0 26128
0.15650000 0.15649500 9528.14518246 0 287.47187650 0 3278.69253600 0 -90.10547214 0 1268.52303750 0 26331
0.15750000 0.15749700 9369.03587482 0 151.90233142 0 3321.50921607 0 -209.54706889 0 1297.37751598 0 27345
0.15850000 0.15849900 9124.25999005 0 77.99943508 0 3387.69957384 0 67.09341658 0 1092.51071879 0 26980
0.15950000 0.15949700 9291.09778042 0 -0.87930425 0 3099.17693371 0 -72.54775451 0 1048.21477612 0 27777
0.16050000 0.16050000 9253.40758674 0 138.39741684 0 3227.02906839 0 299.98360354 0 821.03945888 0 28224
0.16150000 0.16150500 9054.30504185 0 114.49226755 0 3111.31220171 0 -39.05674001 0 736.65616421 0 28075
0.16250000 0.16249700 9094.86296766 0 99.85653644 0 3224.72602483 0 78.03209844 0 917.62224104 0 28590
0.16350000 0.16349900 9031.80607782 0 35.86392443 0 3408.03943453 0 -7.22669603 0 650.16137719 0 29163
0.16450000 0.16449100 9039.93316423 0 -23.84270137 0 3400.83135107 0 173.76795847 0 964.80695326 0 28996
0.16550000 0.16550500 9127.75884470 0 -11.73190321 0 3398.50616286 0 138.58343190 0 837.21501821 0 30777
0.16650000 0.16650700 9012.58452193 0 167.11902742 0 2992.86047080 0 164.56685655 0 866.00859890 0 29211
0.16750000 0.16749900 8903.41139922 0 160.87312899 0 2722.95040870 0 216.73411493 0 535.05570284 0 30922
0.16850000 0.16850800 8609.10900554 0 194.99692685 0 2640.88233714 0 194.16428802 0 761.77262583 0 30867
0.16950000 0.16949900 8522.56771476 0 196.78842900 0 2349.35909699 0 240.62597742 0 170.49940818 0 30852
0.17050000 0.17049200 8227.26881185 0 116.47199923 0 2106.93054509 0 264.26760538 0 21.59590522 0 31257
0.17150000 0.17149500 8161.64314265 0 54.19626191 0 1999.18575228 0 326.08550207 0 -230.36636125 0 32608
0.17250000 0.17250900 8105.26286467 0 65.04193624 0 1937.52397537 0 -166.78575044 0 -387.85135884 0 32361
0.17350000 0.17350400 8018.02401742 0 197.74729233 0 2033.43245294 0 -179.35062464 0 -382.95406957 0 32508
0.17450000 0.17449800 7984.62988577 0 202.84166898 0 2322.56407093 0 -443.66694825 0 -92.07767464 0 32791
0.17550000 0.17549800 7893.27213369 0 97.44288035 0 2512.17763345 0 -243.37745014 0 -69.60151960 0 33633
0.17650000 0.17650100 7794.28554981 0 61.71879939 0 2741.58513137 0 -77.46619191 0 -99.45948287 0 33984
0.17750000 0.17750300 7834.19020846 0 -9.29003484 0 2782.04340626 0 284.53328149 0 17.04141513 0 34069
0.17850000 0.17849800 7847.05624990 0 63.40312144 0 2699.86461145 0 279.30160802 0 -61.68668965 0 34536
