### header ###
fiducial parameters:
Omega_m = 0.31
Omega_nu = 0
Omega_de = 0.69
Omega_k = 0
H_0 = 100
w_de = -1
zeff = 0
beta = 0
fgrowth = 0
b_1 = 2
gamma = 0.55
Lx = 3500 Ly = 3500 Lz = 3500
nx = 700 ny = 700 nz = 700
xoffset = -685.467585 yoffset = -31.7331281 zoffset = 572.489161
bins = 400 dk = 0.001
kx_ny = 0.628318531 ky_ny = 0.628318531 kz_ny = 0.628318531
############################
A(data) = 7.99089603 (not used)
A(ran) = 7.98583179 (used)
Ngal = 474792
weighted Ngal = 0
Nran = 23820508
weighted Nran = 0
SN(data) = 3494.4962
SN(ran) = 69.5594911
SN(data+ran) = 3564.05569
############################
13 columns: k_central k_mean P_0(k) sigma^{lin}_{P_0(k)} P^img_1(k) sigma^{lin}_{P_1(k)} P_2(k) sigma^{lin}_{P_2(k)} P^img_3(k) sigma^{lin}_{P_3(k)} P_4(k) sigma^{lin}_{P_4(k)} N_modes
### header ###
0.00050000 0 0 0 0 0 0 0 0 0 0 0 0
0.00150000 0.00179520 16180.43115048 0 -18329.34795128 0 -3205.98057891 0 -27613.71375821 0 40572.54127946 0 3
0.00250000 0.00253879 22042.23063272 0 -7442.93853867 0 -13151.04308010 0 12229.60420869 0 -8367.51087800 0 6
0.00350000 0.00331552 38780.26406107 0 -28419.22538877 0 -16147.65706902 0 -20840.55122015 0 4645.38280534 0 7
0.00450000 0.00420575 41718.30545170 0 -31851.53535930 0 -20988.14530999 0 -14320.16985770 0 3992.08242406 0 24
0.00550000 0.00557378 66696.25228683 0 -2546.41326179 0 -5535.91881818 0 -30448.67180478 0 -12026.64849477 0 45
0.00650000 0.00659388 51561.93438522 0 2245.77749832 0 -8613.26112735 0 -29979.20523247 0 14077.24305118 0 40
0.00750000 0.00754703 53702.32549591 0 13227.77429109 0 -6701.26993301 0 -26723.72028929 0 15196.43364385 0 57
0.00850000 0.00846663 47042.21139425 0 -2965.54504548 0 -4203.90707017 0 -10232.32289628 0 19630.56756397 0 75
0.00950000 0.00948925 52204.90428744 0 -2248.04732490 0 10479.09179951 0 5657.69224653 0 -4031.40024949 0 112
0.01050000 0.01054430 60426.99125127 0 -1888.62858897 0 7027.90351516 0 1227.63294194 0 3318.97365369 0 105
0.01150000 0.01145670 58154.39658224 0 6462.71669480 0 23331.93502760 0 -2483.94320517 0 7736.22227846 0 144
0.01250000 0.01249090 58946.95359276 0 7247.35699307 0 22600.71869657 0 -6518.45477793 0 7512.66096805 0 169
0.01350000 0.01339930 52508.17526422 0 2941.97206594 0 41907.31003635 0 37.14322084 0 7265.88099249 0 180
0.01450000 0.01448870 63009.94318496 0 -513.83337786 0 49454.64952573 0 -5714.89187655 0 17133.09397788 0 267
0.01550000 0.01550050 61847.34907900 0 -3138.24009567 0 56096.27284495 0 4044.56524370 0 30083.94942525 0 238
0.01650000 0.01653350 70623.16300701 0 -1409.58445569 0 57826.10215137 0 11908.39606570 0 21123.22767277 0 315
0.01750000 0.01747870 72648.51266284 0 -4159.16380558 0 59572.65066826 0 17016.61312078 0 31604.40106935 0 297
0.01850000 0.01844180 74900.06991471 0 677.27528620 0 53886.23681115 0 25713.92426583 0 -602.78732822 0 388
0.01950000 0.01947590 73896.25294665 0 3265.72684364 0 43051.41335986 0 20235.55939206 0 28344.93008924 0 399
0.02050000 0.02045430 78293.95891812 0 -1845.86727052 0 37464.65042612 0 21434.91361642 0 7051.98582165 0 462
0.02150000 0.02154770 70422.31103480 0 -101.32062995 0 28780.95824060 0 12833.93169729 0 12772.25884805 0 571
0.02250000 0.02255340 78624.24636746 0 1843.59744393 0 23741.72176913 0 4712.64717861 0 6888.82404312 0 510
0.02350000 0.02348930 67035.61904252 0 2105.12575615 0 14411.62726070 0 4354.75642350 0 3710.92287994 0 555
0.02450000 0.02439640 71993.80609631 0 2077.88783709 0 14018.55972964 0 4522.95610982 0 10753.24256202 0 592
0.02550000 0.02547300 64098.13126814 0 2604.34366524 0 10820.76159877 0 866.11046429 0 -4027.29241699 0 837
0.02650000 0.02652900 64194.34977081 0 3569.69537688 0 8656.28818159 0 3111.25684009 0 -9811.61884247 0 723
0.02750000 0.02749970 57525.82070228 0 5894.36318953 0 7217.86031975 0 -3709.82671979 0 -8731.53570106 0 826
0.02850000 0.02848090 53454.41614322 0 2908.03539037 0 2402.60590705 0 -1962.94603315 0 -8975.33722124 0 831
0.02950000 0.02946900 54025.08376437 0 -2384.11512460 0 8282.19861527 0 -5461.68995259 0 -12762.62592546 0 996
0.03050000 0.03053250 55628.13495162 0 -1650.20821865 0 9090.78835213 0 -3907.26841595 0 -11694.36802696 0 1041
0.03150000 0.03150510 55605.21523924 0 1586.99631626 0 12017.56918841 0 -3721.88448151 0 -11735.55707528 0 1036
0.03250000 0.03246190 56131.26139138 0 2442.80951846 0 15543.88319666 0 -4171.38765218 0 -12390.70653480 0 1059
0.03350000 0.03345080 54048.77853948 0 652.24297425 0 14950.40658638 0 1167.53236283 0 -5677.02452567 0 1302
0.03450000 0.03451200 54499.20071311 0 2805.82675997 0 17078.95030951 0 322.75605400 0 -4568.36371390 0 1339
0.03550000 0.03553350 52393.46597910 0 3312.57384994 0 21342.34898093 0 3645.92833326 0 -652.23079470 0 1365
0.03650000 0.03647120 51806.41131721 0 1211.47842003 0 22417.47172082 0 3894.70132728 0 7589.12644325 0 1308
0.03750000 0.03744890 48676.81870722 0 972.14901184 0 20963.34330239 0 10572.49793168 0 11629.48420352 0 1579
0.03850000 0.03847530 49281.36764232 0 1485.17521722 0 18724.40850081 0 3959.93946512 0 12512.28066131 0 1662
0.03950000 0.03950240 47682.74538500 0 1494.33202985 0 16229.48154943 0 7034.39189751 0 10759.40984695 0 1683
0.04050000 0.04050350 45792.14592222 0 -172.57214739 0 17038.97921692 0 -3131.00986757 0 14064.28843114 0 1822
0.04150000 0.04152450 46339.89383100 0 1441.97100578 0 21537.55406749 0 89.51598157 0 15059.24753934 0 1887
0.04250000 0.04250150 43908.07913108 0 1203.17417642 0 17316.00878388 0 -865.46605498 0 8877.87861819 0 1920
0.04350000 0.04349210 44222.97604892 0 1947.48906770 0 20954.37471929 0 3261.24255208 0 10180.32725893 0 2005
0.04450000 0.04448520 42506.21208579 0 -8.06436170 0 16410.95695320 0 -569.90805967 0 2349.09336120 0 2151
0.04550000 0.04548030 41519.88939095 0 1330.45055021 0 17471.46422433 0 883.51283721 0 1272.61979768 0 2274
0.04650000 0.04648670 40742.94435842 0 1449.63305456 0 16870.01554019 0 -1646.42148356 0 2101.67119080 0 2311
0.04750000 0.04749250 40447.53473226 0 776.62061341 0 16331.56838426 0 -1699.76794453 0 2911.27958154 0 2568
0.04850000 0.04851840 39277.52216867 0 980.11001339 0 17544.98446113 0 2660.84573879 0 6991.86309788 0 2493
0.04950000 0.04949480 38637.76324065 0 717.79888781 0 13977.70285106 0 3270.91976398 0 2631.38228245 0 2644
0.05050000 0.05050630 38385.75712778 0 232.51660673 0 15099.99369468 0 7120.87782667 0 5147.63453144 0 2829
0.05150000 0.05149060 36891.43617025 0 628.91912202 0 11425.53198036 0 2575.61098234 0 4329.99870520 0 2784
0.05250000 0.05249300 37575.70584405 0 33.22217845 0 11802.98753343 0 2544.32059240 0 6236.42052015 0 3055
0.05350000 0.05348950 36995.62674680 0 -409.89303586 0 9471.26664987 0 1701.57273348 0 3798.84821133 0 3009
0.05450000 0.05448610 37407.73867655 0 503.40435511 0 7600.30949131 0 -641.04774663 0 772.52717492 0 3336
0.05550000 0.05550870 37026.85070279 0 -147.30842385 0 8167.47825782 0 -2041.03914009 0 -2024.81818424 0 3349
0.05650000 0.05647670 37147.64976656 0 30.78150589 0 7417.42790228 0 -2234.14048493 0 -1302.40435144 0 3324
0.05750000 0.05747970 36327.52266724 0 826.60994550 0 8930.41679945 0 -2638.76752310 0 -4460.56355947 0 3639
0.05850000 0.05849280 36843.60372704 0 1550.39121041 0 11568.91858676 0 -2563.01067670 0 -3605.87973439 0 3846
0.05950000 0.05951020 35240.44181655 0 2116.90670975 0 13211.38725036 0 -1169.60288757 0 -2130.87998367 0 3787
0.06050000 0.06049470 33844.11093367 0 815.08144090 0 14188.40919236 0 -1254.45011265 0 -3380.33647783 0 3930
0.06150000 0.06148310 33649.34874011 0 209.50167236 0 17431.38240849 0 -145.03306110 0 -2212.35014969 0 4083
0.06250000 0.06249100 34065.66815329 0 531.55020480 0 16878.43050705 0 2263.10568666 0 -1251.21699381 0 4303
0.06350000 0.06350600 33666.62156682 0 -47.06601689 0 15591.27274688 0 1697.37632237 0 -2034.99365074 0 4470
0.06450000 0.06451750 33474.73817772 0 199.00843013 0 14926.93325776 0 3162.13417263 0 -1603.57158651 0 4479
0.06550000 0.06550280 32411.35210213 0 984.84121778 0 13498.38190966 0 2618.70447053 0 -3607.79524658 0 4636
0.06650000 0.06648880 31381.07227776 0 1138.47858250 0 11297.09301246 0 851.80723509 0 -3064.07766404 0 4653
0.06750000 0.06749660 30328.75852700 0 670.74150733 0 10262.77178953 0 1654.33819580 0 -1350.74612160 0 5220
0.06850000 0.06852730 30006.11098178 0 649.89564139 0 11285.79924115 0 1116.11248637 0 -1247.93958566 0 5029
0.06950000 0.06949320 29718.67342949 0 646.94375960 0 9455.42215305 0 1406.74994053 0 -88.17844473 0 5040
0.07050000 0.07048030 28778.74377563 0 471.11745594 0 10418.52618275 0 873.75701181 0 1400.51622166 0 5475
0.07150000 0.07148790 28526.07332327 0 256.60998553 0 9043.08877681 0 1774.11860569 0 2386.58425304 0 5509
0.07250000 0.07249820 28449.45283553 0 421.68174009 0 9151.48683678 0 2243.55196103 0 1507.53024103 0 5916
0.07350000 0.07351270 28368.29269461 0 102.86953747 0 7479.54364452 0 1743.90223126 0 2112.20097170 0 5721
0.07450000 0.07449140 27391.60292235 0 101.76130848 0 7464.93924808 0 315.34756146 0 2623.13340046 0 6028
0.07550000 0.07549160 27167.72051452 0 1021.87592984 0 6595.87247307 0 154.50211329 0 796.78553137 0 6183
0.07650000 0.07648840 26501.94162317 0 1335.38880708 0 7387.26688948 0 -2008.67473465 0 2092.62510142 0 6330
0.07750000 0.07749960 25159.20079242 0 746.57143108 0 7609.27807442 0 -269.67532882 0 1945.18602414 0 6583
0.07850000 0.07848650 25313.32755389 0 97.41829979 0 7697.20340580 0 676.36292664 0 1936.05135616 0 6549
0.07950000 0.07947320 24702.57811690 0 -457.11207228 0 6168.71325389 0 2292.24804558 0 90.70038815 0 6828
0.08050000 0.08048110 25240.02876359 0 -58.34074381 0 5708.89067649 0 1733.57175221 0 210.65430137 0 7147
0.08150000 0.08149960 24862.68393377 0 202.64347437 0 4795.46816825 0 661.51493906 0 760.96766781 0 7386
0.08250000 0.08250610 24472.05231417 0 364.34370602 0 4712.93505906 0 -596.72301592 0 -147.82660865 0 7227
0.08350000 0.08350160 24312.05722054 0 1190.76210030 0 5366.99943074 0 -1373.84299117 0 -859.30541346 0 7798
0.08450000 0.08449610 23461.37050473 0 1016.98196227 0 6786.20573670 0 -2228.91434762 0 -442.87416979 0 7371
0.08550000 0.08548940 23005.74433844 0 528.82752013 0 6352.95673887 0 -538.81254265 0 100.36586338 0 8256
0.08650000 0.08650700 22608.24787745 0 89.26630064 0 7323.19134575 0 407.30100462 0 -1144.33584233 0 8037
0.08750000 0.08749060 22714.65291896 0 133.16685059 0 6998.34040790 0 318.40463034 0 -1746.74781874 0 8155
0.08850000 0.08849210 22132.24863350 0 727.21368560 0 6983.70279449 0 984.28095815 0 -2160.94134556 0 8718
0.08950000 0.08949900 21517.18098982 0 634.66898030 0 6149.22596221 0 -524.04427581 0 -2443.60672585 0 8571
0.09050000 0.09049190 20556.87825830 0 787.02416981 0 6306.24260046 0 218.52672432 0 -2053.28513134 0 8932
0.09150000 0.09150830 20559.97850925 0 422.33943618 0 5920.52709308 0 697.15232372 0 -1834.82816267 0 9285
0.09250000 0.09250820 19842.49186100 0 -21.40878293 0 5749.74755507 0 849.44329374 0 -1314.29602830 0 9204
0.09350000 0.09350330 20451.46972603 0 -341.64765460 0 5375.53619318 0 1576.22294421 0 -1398.53427552 0 9349
0.09450000 0.09448040 20110.66356811 0 -250.26665064 0 5389.04442946 0 1362.74852170 0 -348.80148367 0 9564
0.09550000 0.09549270 20151.52044669 0 588.78305179 0 4519.86693119 0 845.72299260 0 -120.30191639 0 10155
0.09650000 0.09649430 19817.80057665 0 373.72528684 0 5246.52146439 0 369.14245159 0 776.77119702 0 9913
0.09750000 0.09749140 19204.17233520 0 726.13081223 0 4554.54545253 0 -184.42285664 0 791.47081545 0 10476
0.09850000 0.09850240 18455.01883798 0 1117.48545465 0 5490.51121410 0 -658.49883778 0 907.39030568 0 10575
0.09950000 0.09950330 17395.84024582 0 1261.37031567 0 5173.16731247 0 -1067.11634181 0 833.27769950 0 10882
0.10050000 0.10051200 16763.38905218 0 1014.94244004 0 5823.50031069 0 -873.87770015 0 1071.96823455 0 10875
0.10150000 0.10150300 16010.24951802 0 451.88039880 0 5930.62505331 0 111.08752767 0 1136.13124964 0 11118
0.10250000 0.10250800 16064.06101664 0 -266.54850429 0 6276.42482972 0 172.00967329 0 712.99571330 0 11575
0.10350000 0.10349800 16342.08709283 0 -203.54919054 0 6665.72777035 0 436.56515911 0 654.05551383 0 11364
0.10450000 0.10450100 16471.74401646 0 77.58366928 0 6967.75864675 0 129.93705344 0 452.36979556 0 12093
0.10550000 0.10551000 16202.46507687 0 416.42349303 0 6929.90236820 0 261.34008269 0 988.54269597 0 12067
0.10650000 0.10649700 15769.75862296 0 26.77077767 0 6917.96640204 0 447.84121471 0 1536.89404645 0 12054
0.10750000 0.10749900 16062.28944467 0 46.64936531 0 6737.88611119 0 653.67241139 0 1118.69233805 0 12807
0.10850000 0.10850100 15942.92978312 0 45.78063070 0 6384.22498416 0 535.20628646 0 461.46681763 0 12736
0.10950000 0.10950300 15763.00450482 0 284.87098740 0 6159.80003241 0 -369.00736923 0 248.50504376 0 12933
0.11050000 0.11050200 15702.54961131 0 49.84660982 0 5474.82172983 0 -109.26446939 0 258.08260473 0 13428
0.11150000 0.11150900 15666.23238590 0 28.39619495 0 5796.12952374 0 -233.35810341 0 -615.56257660 0 13453
0.11250000 0.11250000 15240.39077338 0 516.20064091 0 5372.15913411 0 -209.55149782 0 -918.96974297 0 13668
0.11350000 0.11349100 14940.99511028 0 657.00075223 0 5092.93724683 0 481.05597470 0 -2042.85500137 0 13791
0.11450000 0.11448600 14471.63926122 0 401.52900169 0 4905.39420905 0 663.80912476 0 -1296.58030859 0 14205
0.11550000 0.11549300 13875.39456973 0 278.16005133 0 4502.81555097 0 870.36445148 0 -1657.37201280 0 14776
0.11650000 0.11649800 13911.15817890 0 -102.59516526 0 3853.16903689 0 1299.19337725 0 -1027.06774295 0 14553
0.11750000 0.11747300 13763.45336582 0 6.07028029 0 3710.44676998 0 832.32437234 0 -284.43030887 0 14568
0.11850000 0.11849100 13998.74026821 0 -66.19102211 0 3384.36680407 0 9.77946481 0 -571.04408020 0 16015
0.11950000 0.11950300 13817.37558769 0 156.09431360 0 3718.23061432 0 300.21169344 0 310.19117979 0 15270
0.12050000 0.12050700 14013.68790672 0 179.88098900 0 3923.03540649 0 -657.88100205 0 544.40849561 0 15999
0.12150000 0.12150000 13771.09326994 0 103.17712665 0 4022.59775126 0 -111.58246059 0 801.63520964 0 15670
0.12250000 0.12250700 13733.44736556 0 128.47993550 0 3996.12382262 0 332.81969003 0 759.53933791 0 16887
0.12350000 0.12352200 13660.03785201 0 -83.59306285 0 4204.60462663 0 168.99135754 0 407.23789236 0 16407
0.12450000 0.12449800 13675.87127650 0 60.05341101 0 3963.34974116 0 412.60354097 0 617.05291152 0 16306
0.12550000 0.12549900 13691.15108475 0 181.36689499 0 4050.41143121 0 233.43560969 0 181.80646629 0 17523
0.12650000 0.12650100 13585.85327573 0 25.29539039 0 3966.58286001 0 -169.27813076 0 -55.72889311 0 17154
0.12750000 0.12750600 13313.69553168 0 303.69726129 0 4495.07599593 0 -622.09414101 0 130.35669455 0 18007
0.12850000 0.12850300 13280.47855723 0 455.98048068 0 4778.47214966 0 -635.51379869 0 256.63434465 0 17496
0.12950000 0.12949900 12915.20256146 0 282.88904126 0 5183.81888894 0 -310.63185832 0 175.43655782 0 18405
0.13050000 0.13049000 12915.86690095 0 160.58857024 0 5320.44030488 0 -183.85706085 0 386.12075447 0 18100
0.13150000 0.13148800 12753.98951210 0 134.97053231 0 5362.03902923 0 385.17517793 0 -10.50638508 0 19059
0.13250000 0.13249300 12588.56897931 0 96.61777071 0 5019.95955395 0 600.20304761 0 360.17608296 0 18957
0.13350000 0.13349100 12508.29462438 0 148.00819478 0 4564.17837512 0 694.07753912 0 324.54866339 0 19468
0.13450000 0.13450700 12275.22218694 0 284.50006452 0 4145.88808812 0 862.85741526 0 159.27317805 0 19953
0.13550000 0.13551000 12053.66496732 0 44.95718191 0 3867.26410638 0 807.30977611 0 297.15573179 0 19956
0.13650000 0.13649900 12013.02953524 0 -22.26733100 0 3032.16722391 0 785.71320655 0 98.56771783 0 19723
0.13750000 0.13749600 12137.92535919 0 -71.32714142 0 3093.04286576 0 45.69404512 0 869.74218683 0 20946
0.13850000 0.13851100 12064.51584565 0 82.06131744 0 3027.42826889 0 -104.28435913 0 351.18978413 0 20955
0.13950000 0.13949800 11855.47035307 0 354.07633921 0 3202.23813313 0 -275.24692267 0 461.05160545 0 20506
0.14050000 0.14048300 11575.78342815 0 468.43684610 0 2917.50222809 0 -231.75150908 0 492.25895295 0 21447
0.14150000 0.14148400 11339.16784678 0 221.66129947 0 3047.71276796 0 104.73987458 0 638.04936107 0 21771
0.14250000 0.14249400 11158.68895223 0 97.11026771 0 3117.29125712 0 314.91906249 0 140.45354756 0 22470
0.14350000 0.14350900 10995.41645046 0 186.35719179 0 2818.49349956 0 167.88855399 0 -263.20023326 0 22519
0.14450000 0.14449900 10768.15698355 0 214.21183934 0 2669.53751378 0 265.78783557 0 -215.87268806 0 22218
0.14550000 0.14550500 10757.68256427 0 124.81278152 0 2427.60721649 0 -152.02412699 0 107.75951900 0 23559
0.14650000 0.14650700 10625.65616314 0 19.99207897 0 2889.23458283 0 -57.57874641 0 -112.19918908 0 23044
0.14750000 0.14750500 10814.46144594 0 47.09967676 0 2958.54733619 0 -290.22002752 0 -1.46258767 0 23649
0.14850000 0.14849900 10674.31903072 0 151.88793740 0 3425.74408191 0 -209.15067966 0 458.50386351 0 23640
0.14950000 0.14949500 10649.67203567 0 273.48531579 0 3648.65212516 0 -158.14822985 0 108.87738092 0 24457
0.15050000 0.15050000 10435.42255043 0 43.32002796 0 3583.05967294 0 364.02260860 0 944.52023972 0 24591
0.15150000 0.15149900 10561.65812569 0 -27.06463717 0 3450.41322161 0 448.92630254 0 454.02289365 0 25020
0.15250000 0.15250500 10403.11350661 0 54.52477778 0 3302.39838343 0 137.53266827 0 155.77875234 0 25297
0.15350000 0.15350100 10386.26142823 0 244.50461281 0 3356.02165253 0 198.19239979 0 85.84395577 0 25452
0.15450000 0.15450400 10023.01166791 0 345.43771139 0 2887.39657691 0 -115.07135014 0 217.26780099 0 26061
0.15550000 0.15549900 9748.19656591 0 327.72642061 0 2794.98695397 0 159.88658485 0 79.87818715 0 26128
0.15650000 0.15649500 9487.11114669 0 122.33147353 0 2845.52104444 0 -50.74014644 0 -480.68394458 0 26331
0.15750000 0.15749700 9454.66923497 0 43.30973070 0 2860.18080250 0 8.59160366 0 -453.24783092 0 27345
0.15850000 0.15849900 9419.90213504 0 122.98141899 0 2878.48335543 0 -101.78234590 0 -353.17948090 0 26980
0.15950000 0.15949700 9480.22416065 0 27.23105421 0 2821.79305236 0 97.37478555 0 -180.47557285 0 27777
0.16050000 0.16050000 9326.65101541 0 27.50586931 0 2885.65822191 0 43.42521505 0 -432.36874801 0 28224
0.16150000 0.16150500 9233.31131719 0 228.65015090 0 2608.73937820 0 332.99463276 0 -389.66611288 0 28075
0.16250000 0.16249700 8972.34769354 0 205.32962037 0 2577.44898826 0 442.15336145 0 -232.67383374 0 28590
0.16350000 0.16349900 8989.17762727 0 92.11354897 0 2126.37354747 0 292.67586916 0 -440.97858778 0 29163
0.16450000 0.16449100 8821.66442508 0 -112.57896983 0 2044.28333127 0 362.04952031 0 -282.49597373 0 28996
0.16550000 0.16550500 8874.94445211 0 219.60184706 0 2099.35707491 0 -13.82435115 0 -314.34994500 0 30777
0.16650000 0.16650700 8628.43021235 0 236.46499776 0 1940.53564772 0 126.81355061 0 -102.99875150 0 29211
0.16750000 0.16749900 8496.58096841 0 240.43110451 0 2214.96321835 0 -277.44256468 0 -172.36288045 0 30922
0.16850000 0.16850800 8317.12072775 0 256.94990590 0 2179.79751472 0 -158.46046941 0 -38.66810141 0 30867
0.16950000 0.16949900 8207.63757994 0 184.11393878 0 2639.19934377 0 -120.64626569 0 115.96710122 0 30852
0.17050000 0.17049200 8026.91509425 0 166.29303199 0 2789.68331038 0 -53.98865582 0 495.73677018 0 31257
0.17150000 0.17149500 7956.51725306 0 136.66791970 0 2643.32932093 0 267.66791633 0 466.82360838 0 32608
0.17250000 0.17250900 7987.05472490 0 -225.90864327 0 2403.74635650 0 449.03038239 0 635.52044208 0 32361
0.17350000 0.17350400 8119.35793416 0 -260.71006741 0 2193.20610008 0 567.12890614 0 214.65694679 0 32508
0.17450000 0.17449800 8274.84659159 0 -66.64343730 0 1945.29674739 0 230.57562819 0 122.12774275 0 32791
0.17550000 0.17549800 8343.01889550 0 123.71440690 0 1981.65826209 0 -100.64732188 0 173.36935478 0 33633
0.17650000 0.17650100 8075.12399651 0 263.44603888 0 1761.93904839 0 -321.31775900 0 217.24897803 0 33984
0.17750000 0.17750300 7958.52134385 0 295.99756661 0 2153.27929678 0 -307.25479925 0 101.00772605 0 34069
0.17850000 0.17849800 7775.70618877 0 236.40077827 0 2229.89978453 0 -149.30365678 0 121.43240075 0 34536
