### header ###
fiducial parameters:
Omega_m = 0.31
Omega_nu = 0
Omega_de = 0.69
Omega_k = 0
H_0 = 100
w_de = -1
zeff = 0
beta = 0
fgrowth = 0
b_1 = 2
gamma = 0.55
Lx = 3500 Ly = 3500 Lz = 3500
nx = 700 ny = 700 nz = 700
xoffset = -685.467585 yoffset = -31.7331281 zoffset = 572.489161
bins = 400 dk = 0.001
kx_ny = 0.628318531 ky_ny = 0.628318531 kz_ny = 0.628318531
############################
A(data) = 8.03618741 (not used)
A(ran) = 8.04123845 (used)
Ngal = 478241
weighted Ngal = 0
Nran = 23820508
weighted Nran = 0
SN(data) = 3480.4103
SN(ran) = 70.0421032
SN(data+ran) = 3550.4524
############################
13 columns: k_central k_mean P_0(k) sigma^{lin}_{P_0(k)} P^img_1(k) sigma^{lin}_{P_1(k)} P_2(k) sigma^{lin}_{P_2(k)} P^img_3(k) sigma^{lin}_{P_3(k)} P_4(k) sigma^{lin}_{P_4(k)} N_modes
### header ###
0.00050000 0 0 0 0 0 0 0 0 0 0 0 0
0.00150000 0.00179520 28112.07909830 0 -41741.88950356 0 14639.60642872 0 -4928.24748748 0 -25811.02855449 0 3
0.00250000 0.00253879 51219.35665533 0 -38388.74665548 0 6881.97027406 0 10651.73148809 0 67226.61664564 0 6
0.00350000 0.00331552 60928.12467256 0 -16090.30242646 0 22871.54776164 0 -65877.34314324 0 -31927.71295406 0 7
0.00450000 0.00420575 62246.50638871 0 10312.13221357 0 259.09904415 0 -23831.29687692 0 24264.55694707 0 24
0.00550000 0.00557378 48141.47180224 0 15665.12515342 0 -2473.87846191 0 -25312.44176791 0 17838.73323857 0 45
0.00650000 0.00659388 34412.01047362 0 3239.00932385 0 -39723.62613562 0 -3822.23296135 0 -14755.75511607 0 40
0.00750000 0.00754703 59943.24137994 0 -24585.65436681 0 7282.00229743 0 -15135.20368760 0 -7575.98359369 0 57
0.00850000 0.00846663 63128.85995351 0 -23252.87862839 0 -11843.51224227 0 -17768.20252947 0 -43305.52321445 0 75
0.00950000 0.00948925 74679.84137407 0 5273.31649045 0 13045.41310133 0 -19372.47167245 0 -34428.84040734 0 112
0.01050000 0.01054430 84427.47325141 0 7791.76105975 0 -773.95771929 0 -24456.44033618 0 -25919.64806096 0 105
0.01150000 0.01145670 71527.66122145 0 14557.56050181 0 21954.31637366 0 -42005.41083424 0 -25342.11559842 0 144
0.01250000 0.01249090 70139.08096594 0 10682.14716436 0 29252.08566163 0 -10466.67972339 0 -30478.67780504 0 169
0.01350000 0.01339930 64055.83498733 0 250.88670083 0 43845.63121910 0 -5456.09842856 0 -27552.92669496 0 180
0.01450000 0.01448870 67306.55883084 0 -797.31921742 0 43226.68826174 0 7688.13517178 0 -26976.72291140 0 267
0.01550000 0.01550050 74386.86765937 0 -9486.51324115 0 45364.64346097 0 29347.08620857 0 -15277.26161502 0 238
0.01650000 0.01653350 76641.96805518 0 -6933.61159701 0 25403.12410817 0 28125.69805783 0 -24914.17024418 0 315
0.01750000 0.01747870 83411.47672605 0 5942.50565784 0 23673.29480175 0 24775.98763044 0 -21302.26716509 0 297
0.01850000 0.01844180 77396.10409858 0 1159.36098711 0 14443.95844917 0 3867.93951820 0 -15809.06537606 0 388
0.01950000 0.01947590 75579.24631909 0 5663.05125174 0 17280.57734446 0 2701.99049782 0 4135.94514043 0 399
0.02050000 0.02045430 70300.73690829 0 6426.15587825 0 21524.48872420 0 -9530.11605628 0 -2057.33760223 0 462
0.02150000 0.02154770 67359.15237372 0 2772.74265341 0 27338.78793297 0 5408.03346652 0 1875.31965453 0 571
0.02250000 0.02255340 64657.17294823 0 -2538.71799604 0 33069.38036611 0 307.58032560 0 5796.20703001 0 510
0.02350000 0.02348930 67702.83733609 0 -1692.85881385 0 30172.08513081 0 8390.44166270 0 -535.39562321 0 555
0.02450000 0.02439640 71779.44588782 0 -71.62697998 0 33711.13231260 0 10540.02280299 0 11802.65536368 0 592
0.02550000 0.02547300 69059.64001937 0 2300.56336152 0 27513.50921861 0 8539.36443151 0 15415.33350551 0 837
0.02650000 0.02652900 67105.04251914 0 2084.83018475 0 26455.54858218 0 10751.94710002 0 18932.01459116 0 723
0.02750000 0.02749970 68528.16842808 0 3403.30047951 0 25178.68808410 0 1456.75255941 0 7737.72811464 0 826
0.02850000 0.02848090 62904.97754568 0 3324.58732237 0 26904.75280008 0 -6860.85535063 0 12391.92449053 0 831
0.02950000 0.02946900 62540.03371966 0 5257.40555969 0 29676.37714868 0 -1012.81323197 0 11542.56645369 0 996
0.03050000 0.03053250 61256.41910343 0 -616.17266169 0 30252.91310199 0 -2215.50576226 0 4147.70394939 0 1041
0.03150000 0.03150510 58048.65588022 0 485.28228108 0 28989.33939368 0 4063.14460475 0 -1947.71051420 0 1036
0.03250000 0.03246190 58438.73388358 0 4129.03600975 0 34642.97916933 0 -676.32528073 0 -5421.75207697 0 1059
0.03350000 0.03345080 55682.50006648 0 2962.12369711 0 25026.22217135 0 292.31269691 0 -7290.92659123 0 1302
0.03450000 0.03451200 53108.73816238 0 660.04453432 0 27540.85786091 0 4603.57370682 0 460.00194906 0 1339
0.03550000 0.03553350 52166.59404356 0 372.39992956 0 25100.07457789 0 7329.00431628 0 487.68165387 0 1365
0.03650000 0.03647120 54548.47255855 0 -299.35358826 0 24690.62000609 0 6579.34149211 0 -1682.40653922 0 1308
0.03750000 0.03744890 51503.47251017 0 1481.01202309 0 22799.13475732 0 4662.17952209 0 -1853.21929420 0 1579
0.03850000 0.03847530 50213.76811530 0 3594.20950403 0 17851.13424237 0 2485.84764503 0 1654.49320835 0 1662
0.03950000 0.03950240 47137.32266444 0 660.59482887 0 19566.56952652 0 235.91470321 0 8306.29199408 0 1683
0.04050000 0.04050350 47673.55535540 0 355.12045944 0 19965.61611298 0 4239.49352214 0 5492.17206282 0 1822
0.04150000 0.04152450 47335.96017168 0 -622.36319850 0 18405.41482279 0 4766.35902631 0 4856.41024406 0 1887
0.04250000 0.04250150 47523.96824710 0 -526.40489546 0 17136.30495207 0 91.63456020 0 1657.36094048 0 1920
0.04350000 0.04349210 47827.34994714 0 372.29584970 0 16703.48777491 0 321.12842225 0 3422.07914240 0 2005
0.04450000 0.04448520 46306.34468680 0 1848.12602478 0 15530.26423713 0 421.02625846 0 -1256.87495179 0 2151
0.04550000 0.04548030 43618.09494408 0 2420.50985628 0 14827.94667388 0 -207.75556673 0 -1244.00891035 0 2274
0.04650000 0.04648670 42050.14302651 0 3026.40961501 0 15613.19595002 0 6.77897551 0 862.63375430 0 2311
0.04750000 0.04749250 39224.48573279 0 3294.97992581 0 17152.24909981 0 4068.45932066 0 1752.42792137 0 2568
0.04850000 0.04851840 37599.51134241 0 874.43353086 0 15877.93523644 0 4115.18453140 0 1033.58602057 0 2493
0.04950000 0.04949480 36384.32369356 0 531.16267343 0 16668.38850524 0 1794.70205753 0 4895.39589974 0 2644
0.05050000 0.05050630 38155.89566454 0 -144.11959430 0 17223.22270190 0 1667.82428743 0 3671.56076521 0 2829
0.05150000 0.05149060 37359.68478684 0 -850.75647146 0 15014.18317733 0 400.55906603 0 7762.14259086 0 2784
0.05250000 0.05249300 37010.79583180 0 1184.15192238 0 17109.06703302 0 -3085.79049301 0 4125.51501045 0 3055
0.05350000 0.05348950 37128.93753761 0 1450.83993796 0 17023.92085517 0 -242.47505567 0 4676.23030228 0 3009
0.05450000 0.05448610 35477.16812117 0 12.24012292 0 17652.82890486 0 711.28503912 0 -1101.77936189 0 3336
0.05550000 0.05550870 35064.61329843 0 1265.46707585 0 15830.65640946 0 -92.84775483 0 -5497.14353666 0 3349
0.05650000 0.05647670 34440.13417865 0 185.18020366 0 15213.48502407 0 655.28897081 0 -6974.60134349 0 3324
0.05750000 0.05747970 33477.50625892 0 849.21963278 0 13295.31547249 0 -1841.50477454 0 -7217.39528211 0 3639
0.05850000 0.05849280 33521.13121871 0 1012.57849869 0 13256.23016588 0 -132.58555354 0 -6441.46890347 0 3846
0.05950000 0.05951020 32539.56962353 0 762.12583299 0 13063.90388378 0 347.99431119 0 -6439.52017430 0 3787
0.06050000 0.06049470 32533.14767514 0 407.96423687 0 10998.62742465 0 2787.31383287 0 -4164.91034216 0 3930
0.06150000 0.06148310 32491.18356408 0 96.22968572 0 12548.93005646 0 3706.99220463 0 -4013.66238514 0 4083
0.06250000 0.06249100 32269.40489796 0 -54.57548903 0 10255.56370607 0 4117.96368493 0 -4447.24355271 0 4303
0.06350000 0.06350600 31417.72167291 0 430.42223330 0 9062.42105594 0 1830.79783644 0 -1970.71880517 0 4470
0.06450000 0.06451750 30919.79922581 0 1316.65443348 0 8173.85591692 0 -826.07736667 0 -844.73644846 0 4479
0.06550000 0.06550280 30163.00582446 0 553.05598130 0 8773.31158260 0 1259.23335698 0 735.62090184 0 4636
0.06650000 0.06648880 29274.45175776 0 97.57165149 0 7771.03366769 0 -502.07346167 0 -451.61909194 0 4653
0.06750000 0.06749660 29532.10475629 0 465.85256549 0 8255.75790360 0 222.78514044 0 -2509.21025040 0 5220
0.06850000 0.06852730 30066.67659854 0 -396.16335308 0 7589.09322627 0 -1245.39295095 0 -2746.61196684 0 5029
0.06950000 0.06949320 29289.17794977 0 79.43562633 0 8446.66692813 0 -590.79378598 0 -2899.12216889 0 5040
0.07050000 0.07048030 30153.04073212 0 795.17782980 0 10173.00845223 0 -1855.96523075 0 -2213.55703309 0 5475
0.07150000 0.07148790 29401.67276993 0 285.25851877 0 12021.66594860 0 97.02202129 0 -1324.59329038 0 5509
0.07250000 0.07249820 28807.75326666 0 893.40374497 0 12101.82958028 0 1180.44269357 0 -602.79618608 0 5916
0.07350000 0.07351270 28916.15132663 0 682.06738839 0 11063.02406580 0 2253.66099359 0 718.02033430 0 5721
0.07450000 0.07449140 27915.32388627 0 210.53472026 0 11053.13647974 0 1370.34413653 0 104.61143561 0 6028
0.07550000 0.07549160 27799.50736867 0 508.44669183 0 10981.47639351 0 1443.86437333 0 964.58218506 0 6183
0.07650000 0.07648840 26920.91839431 0 1136.09803267 0 11240.95632563 0 -688.10180541 0 1641.94826433 0 6330
0.07750000 0.07749960 25703.07338751 0 1102.09160145 0 9828.86952454 0 926.91745773 0 1428.05309348 0 6583
0.07850000 0.07848650 25033.41918248 0 496.97244163 0 10305.09021499 0 267.23609566 0 1253.21001227 0 6549
0.07950000 0.07947320 25148.01774435 0 -78.61749225 0 9010.03788722 0 1419.11772736 0 841.97279618 0 6828
0.08050000 0.08048110 25246.67215848 0 255.90578567 0 8972.53592306 0 985.20881897 0 1920.70511397 0 7147
0.08150000 0.08149960 24424.88421044 0 447.49907987 0 8714.06357250 0 695.61548503 0 -65.90624191 0 7386
0.08250000 0.08250610 23759.21604235 0 1099.85942077 0 8026.30611639 0 -104.09867625 0 2445.37829782 0 7227
0.08350000 0.08350160 23109.93491498 0 1117.78440742 0 8396.99647899 0 416.53089459 0 1205.45507533 0 7798
0.08450000 0.08449610 22335.86868691 0 602.68546283 0 7808.03737724 0 728.07400524 0 1484.72125191 0 7371
0.08550000 0.08548940 21611.51719727 0 296.87670920 0 7544.68213143 0 397.07903434 0 1132.90920312 0 8256
0.08650000 0.08650700 21285.10506162 0 241.67895551 0 7450.22412840 0 498.12617787 0 331.16437747 0 8037
0.08750000 0.08749060 20804.78761099 0 383.99597534 0 6963.41829542 0 353.77517198 0 -597.39289157 0 8155
0.08850000 0.08849210 20425.67120920 0 353.36549596 0 7088.93416957 0 -688.11952113 0 -1624.78616086 0 8718
0.08950000 0.08949900 20172.55786384 0 338.28831125 0 6735.05159604 0 276.05520238 0 -2519.41893388 0 8571
0.09050000 0.09049190 20008.57673328 0 509.79640823 0 7355.51146190 0 -751.73002721 0 -2655.14349151 0 8932
0.09150000 0.09150830 19470.57247034 0 634.38442155 0 6484.87241676 0 185.91540603 0 -2441.60263506 0 9285
0.09250000 0.09250820 18897.35821448 0 311.97603856 0 6714.80031394 0 340.67107556 0 -2229.46796386 0 9204
0.09350000 0.09350330 18884.95721068 0 110.58251894 0 6628.65762685 0 1042.21468330 0 -3580.34695336 0 9349
0.09450000 0.09448040 18666.83241176 0 126.35404913 0 6240.19618292 0 603.37416143 0 -2099.03597749 0 9564
0.09550000 0.09549270 18453.13654276 0 315.83031482 0 5978.62358140 0 345.24948187 0 -2134.92138223 0 10155
0.09650000 0.09649430 18247.30202438 0 253.87069237 0 5776.39864091 0 226.86307767 0 -1392.78773894 0 9913
0.09750000 0.09749140 18240.65862949 0 335.42390082 0 5706.38833109 0 729.66066939 0 -704.71693603 0 10476
0.09850000 0.09850240 17838.17962233 0 294.42640372 0 5083.30432424 0 667.72540605 0 -1051.98600995 0 10575
0.09950000 0.09950330 17560.70716237 0 422.88862350 0 5157.54426215 0 -384.24731711 0 -1280.51436528 0 10882
0.10050000 0.10051200 17134.97627310 0 322.21018839 0 5716.90703966 0 241.76974858 0 134.57414308 0 10875
0.10150000 0.10150300 16947.41109067 0 130.91473973 0 5099.85744984 0 615.58693571 0 -141.65489480 0 11118
0.10250000 0.10250800 17042.41163761 0 54.29812729 0 5206.83825224 0 982.53263806 0 483.99346247 0 11575
0.10350000 0.10349800 16730.06135448 0 12.63905878 0 5017.74508899 0 682.03527864 0 230.66974295 0 11364
0.10450000 0.10450100 16705.81296313 0 205.90205956 0 5213.69202130 0 85.13089805 0 1027.36891018 0 12093
0.10550000 0.10551000 16578.92412070 0 307.43084922 0 5335.79761940 0 -80.63320898 0 24.31382879 0 12067
0.10650000 0.10649700 16526.10913132 0 246.75008028 0 5459.84087435 0 -750.66486957 0 -128.67480841 0 12054
0.10750000 0.10749900 16100.48896529 0 342.32306642 0 5709.48858203 0 -373.25360580 0 525.65751353 0 12807
0.10850000 0.10850100 16218.96284085 0 -127.72480295 0 5739.87104134 0 -228.54717828 0 -296.78923783 0 12736
0.10950000 0.10950300 16155.51841964 0 -251.21997781 0 5721.02594450 0 709.64412058 0 -182.11095522 0 12933
0.11050000 0.11050200 16298.24068655 0 346.57483915 0 5961.84900930 0 565.47248635 0 -387.78935382 0 13428
0.11150000 0.11150900 16076.57274368 0 521.79659387 0 5274.44586758 0 499.14704622 0 -468.98049725 0 13453
0.11250000 0.11250000 15312.02871495 0 470.57491202 0 5167.29898031 0 319.55947382 0 -625.00837690 0 13668
0.11350000 0.11349100 15112.17325198 0 402.00178996 0 5056.90790187 0 110.52737876 0 -620.26277848 0 13791
0.11450000 0.11448600 14793.17957395 0 341.87242280 0 5128.85586854 0 -253.94819865 0 -1005.53539287 0 14205
0.11550000 0.11549300 14496.33054556 0 372.11094188 0 4664.37184240 0 -162.01025675 0 -577.47377922 0 14776
0.11650000 0.11649800 14276.65562116 0 47.21394315 0 4576.33578777 0 554.13221127 0 177.37421466 0 14553
0.11750000 0.11747300 14189.29497834 0 78.19740825 0 3962.15393008 0 958.54444634 0 -359.52613749 0 14568
0.11850000 0.11849100 14014.35224621 0 102.25989526 0 4235.37461730 0 1174.96189278 0 -383.59072825 0 16015
0.11950000 0.11950300 13821.25090137 0 219.80668507 0 4114.43161331 0 524.77947817 0 -139.55890371 0 15270
0.12050000 0.12050700 13757.14214067 0 213.16439741 0 4375.28451371 0 -171.93105978 0 613.41786728 0 15999
0.12150000 0.12150000 13515.43328988 0 290.77917992 0 4067.87248745 0 -70.68151416 0 1344.12487136 0 15670
0.12250000 0.12250700 13543.77844142 0 -40.07174003 0 4485.97454492 0 -9.03398733 0 1859.38657912 0 16887
0.12350000 0.12352200 13546.54652262 0 -81.54025383 0 4156.88290666 0 110.01030119 0 1989.13208134 0 16407
0.12450000 0.12449800 13688.05083380 0 50.58823414 0 4307.07899283 0 -169.73652500 0 713.94018261 0 16306
0.12550000 0.12549900 13442.90956232 0 421.80796459 0 4149.92948668 0 -142.99575334 0 899.08163313 0 17523
0.12650000 0.12650100 13133.32736039 0 591.20456923 0 4354.41318143 0 -421.28424363 0 642.58126362 0 17154
0.12750000 0.12750600 12537.74700839 0 305.51201533 0 4233.49232208 0 -47.33651379 0 1289.63796093 0 18007
0.12850000 0.12850300 12675.92962213 0 -76.39428015 0 4043.03726288 0 551.69297811 0 1403.61647261 0 17496
0.12950000 0.12949900 12725.86580706 0 -213.09907069 0 4023.38388633 0 1143.50541797 0 554.31269016 0 18405
0.13050000 0.13049000 12759.85784426 0 219.27078455 0 3510.46951143 0 392.76414936 0 305.12448396 0 18100
0.13150000 0.13148800 12475.07764992 0 276.43055419 0 3165.82125680 0 268.37211619 0 -160.56310389 0 19059
0.13250000 0.13249300 11921.57213224 0 483.95360210 0 2976.11911568 0 -53.30781856 0 77.35724024 0 18957
0.13350000 0.13349100 11609.77546534 0 346.53830048 0 2582.68619790 0 -17.58152313 0 16.35371303 0 19468
0.13450000 0.13450700 11394.97236386 0 145.15707114 0 2985.33128993 0 -115.73126070 0 -292.54743020 0 19953
0.13550000 0.13551000 11398.40478456 0 150.97004167 0 2830.66198454 0 -104.10022637 0 -192.99394329 0 19956
0.13650000 0.13649900 11205.19271647 0 226.72024468 0 3084.00784871 0 -139.53675906 0 239.46116885 0 19723
0.13750000 0.13749600 11249.03912275 0 73.33920429 0 3327.07859546 0 -118.86694309 0 224.56003411 0 20946
0.13850000 0.13851100 11540.46271198 0 -362.59760039 0 3539.99940172 0 407.96866580 0 678.87523714 0 20955
0.13950000 0.13949800 11491.41231303 0 -49.74319431 0 3685.86620888 0 -125.54466219 0 1076.89320463 0 20506
0.14050000 0.14048300 11644.21039553 0 242.75739995 0 3847.01282429 0 -248.75527831 0 636.80483176 0 21447
0.14150000 0.14148400 11560.50361990 0 334.29009476 0 4173.53568319 0 -209.74304904 0 968.64019211 0 21771
0.14250000 0.14249400 11094.69091478 0 340.15621245 0 4300.53524886 0 -203.73409836 0 889.05675024 0 22470
0.14350000 0.14350900 10961.53513651 0 213.41131025 0 4129.95501271 0 -104.77718831 0 667.57150073 0 22519
0.14450000 0.14449900 10955.43428554 0 119.80144731 0 4244.56464690 0 409.07589828 0 394.69073388 0 22218
0.14550000 0.14550500 10764.79099681 0 -76.55217150 0 3856.32464946 0 366.88259010 0 92.69982857 0 23559
0.14650000 0.14650700 10716.95855359 0 -38.97126166 0 3355.77806139 0 181.13659064 0 -111.85373255 0 23044
0.14750000 0.14750500 10856.56949723 0 116.82299193 0 3452.43945705 0 498.71301109 0 -91.38410421 0 23649
0.14850000 0.14849900 10620.18643468 0 13.03345499 0 3314.35649424 0 359.06663601 0 402.45575528 0 23640
0.14950000 0.14949500 10613.90842650 0 223.08520045 0 3292.48865272 0 226.27956616 0 -88.82994032 0 24457
0.15050000 0.15050000 10395.40716853 0 191.86124446 0 3458.08634271 0 -305.41790057 0 -104.13820445 0 24591
0.15150000 0.15149900 10226.37705785 0 332.60488692 0 3575.64121531 0 -70.11494330 0 144.02880124 0 25020
0.15250000 0.15250500 10066.20480703 0 130.69218600 0 3602.67983252 0 -245.34389503 0 304.96172078 0 25297
0.15350000 0.15350100 10047.45936111 0 -28.37161439 0 3609.06856394 0 256.33871357 0 249.22695934 0 25452
0.15450000 0.15450400 10131.84154855 0 20.54038049 0 3669.05841980 0 -3.81292114 0 109.46498919 0 26061
0.15550000 0.15549900 10041.20349759 0 177.48715238 0 3395.22875471 0 172.31084053 0 -107.03804632 0 26128
0.15650000 0.15649500 9860.58066282 0 265.53206487 0 3534.69575813 0 341.84252752 0 608.06882716 0 26331
0.15750000 0.15749700 9620.74303492 0 227.71675392 0 3140.07810159 0 425.30792647 0 582.08318804 0 27345
0.15850000 0.15849900 9462.14305422 0 62.48710801 0 3037.50408447 0 789.67931330 0 422.38151102 0 26980
0.15950000 0.15949700 9364.24155817 0 62.35534734 0 2584.42455289 0 642.29449040 0 868.39357767 0 27777
0.16050000 0.16050000 9175.36984142 0 108.06732963 0 2314.61414171 0 308.49711410 0 588.48631348 0 28224
0.16150000 0.16150500 9187.74870056 0 66.26675681 0 2159.67910053 0 197.70853919 0 871.88135998 0 28075
0.16250000 0.16249700 9043.69775467 0 203.58794367 0 2339.25006444 0 -248.54379690 0 719.23164664 0 28590
0.16350000 0.16349900 8837.80787467 0 252.15558926 0 2049.99665087 0 -286.87950712 0 378.37898496 0 29163
0.16450000 0.16449100 8786.62051703 0 188.74770672 0 2487.95138675 0 -197.97206052 0 534.79107428 0 28996
0.16550000 0.16550500 8480.39322952 0 196.48172560 0 2327.48018315 0 -72.22898228 0 550.70975567 0 30777
0.16650000 0.16650700 8628.47450165 0 44.03939690 0 2439.43245939 0 143.28031208 0 682.09728366 0 29211
0.16750000 0.16749900 8549.76134451 0 -24.11153742 0 2455.18837761 0 59.17770084 0 562.73651489 0 30922
0.16850000 0.16850800 8404.70281706 0 180.51100429 0 2483.76604797 0 204.58002398 0 564.13494951 0 30867
0.16950000 0.16949900 8306.36950035 0 209.86595185 0 2419.80122749 0 84.60684491 0 669.00647403 0 30852
0.17050000 0.17049200 8227.94422366 0 69.64735902 0 2429.81060913 0 190.64771766 0 666.73664744 0 31257
0.17150000 0.17149500 8120.05549063 0 94.71056276 0 2573.48509597 0 33.58701155 0 718.06019467 0 32608
0.17250000 0.17250900 8076.16479505 0 140.38932807 0 2386.72819326 0 309.40172303 0 814.75480732 0 32361
0.17350000 0.17350400 7984.51916252 0 -25.88410590 0 2212.71553641 0 168.31040957 0 918.20353810 0 32508
0.17450000 0.17449800 8085.72021136 0 -12.26492492 0 2150.67730045 0 95.36493715 0 550.09081271 0 32791
0.17550000 0.17549800 8000.95049255 0 82.88155526 0 2252.95236480 0 -216.95777589 0 587.38240270 0 33633
0.17650000 0.17650100 7911.75184381 0 109.88363380 0 2059.25311442 0 -26.39631164 0 425.54265976 0 33984
0.17750000 0.17750300 7826.04097739 0 142.37459591 0 2120.81524041 0 -39.22160693 0 602.02555227 0 34069
0.17850000 0.17849800 7828.33294863 0 39.11409465 0 2079.61511976 0 206.26744628 0 272.72686154 0 34536
