### header ###
fiducial parameters:
Omega_m = 0.31
Omega_nu = 0
Omega_de = 0.69
Omega_k = 0
H_0 = 100
w_de = -1
zeff = 0
beta = 0
fgrowth = 0
b_1 = 2
gamma = 0.55
Lx = 3500 Ly = 3500 Lz = 3500
nx = 700 ny = 700 nz = 700
xoffset = -685.467585 yoffset = -31.7331281 zoffset = 572.489161
bins = 400 dk = 0.001
kx_ny = 0.628318531 ky_ny = 0.628318531 kz_ny = 0.628318531
############################
A(data) = 8.02110226 (not used)
A(ran) = 8.01819734 (used)
Ngal = 476288
weighted Ngal = 0
Nran = 23820508
weighted Nran = 0
SN(data) = 3490.67884
SN(ran) = 69.8414068
SN(data+ran) = 3560.52025
############################
13 columns: k_central k_mean P_0(k) sigma^{lin}_{P_0(k)} P^img_1(k) sigma^{lin}_{P_1(k)} P_2(k) sigma^{lin}_{P_2(k)} P^img_3(k) sigma^{lin}_{P_3(k)} P_4(k) sigma^{lin}_{P_4(k)} N_modes
### header ###
0.00050000 0 0 0 0 0 0 0 0 0 0 0 0
0.00150000 0.00179520 7387.34439575 0 -11604.46074943 0 -4096.69374895 0 -9765.21472916 0 -40325.18554301 0 3
0.00250000 0.00253879 25031.75833375 0 -22261.01977114 0 -11786.60049270 0 10394.80926299 0 42236.37952996 0 6
0.00350000 0.00331552 29643.49234397 0 -15627.25780254 0 -2005.26445861 0 -38120.57494837 0 15121.03111183 0 7
0.00450000 0.00420575 39729.93736076 0 -6997.79786398 0 -13679.19297395 0 -10908.68693015 0 13439.58786487 0 24
0.00550000 0.00557378 43159.36852684 0 -6792.87127624 0 -16257.60525447 0 -402.74585019 0 11327.98479871 0 45
0.00650000 0.00659388 58762.04576829 0 -8212.49833054 0 -7149.51085865 0 -24509.14460231 0 9400.93524262 0 40
0.00750000 0.00754703 57022.69426252 0 800.76935384 0 11832.43991745 0 -27460.47278272 0 18675.69027161 0 57
0.00850000 0.00846663 61073.72574392 0 9239.19072167 0 23359.50511639 0 3288.52476044 0 33582.91479120 0 75
0.00950000 0.00948925 51871.51658715 0 1252.87784253 0 30695.03103200 0 2019.20451555 0 33191.95100185 0 112
0.01050000 0.01054430 69198.70841909 0 -484.83828086 0 46367.13175005 0 46874.13350350 0 28124.81227184 0 105
0.01150000 0.01145670 59169.95021460 0 -8866.36340038 0 34423.74713792 0 25705.73074547 0 3790.89828211 0 144
0.01250000 0.01249090 76958.30437525 0 -425.80618109 0 31755.20613338 0 21521.60991975 0 12576.05725227 0 169
0.01350000 0.01339930 69718.22189958 0 1450.95066121 0 23068.30297366 0 2715.48766177 0 11903.63496603 0 180
0.01450000 0.01448870 69616.35651125 0 3552.11252507 0 29308.99741120 0 3423.71784647 0 13596.81487730 0 267
0.01550000 0.01550050 67881.10176567 0 3748.76808617 0 28924.78773999 0 -8416.09623930 0 19066.65406096 0 238
0.01650000 0.01653350 64222.47347585 0 5840.34131674 0 23972.13684861 0 3371.86614935 0 17876.48986620 0 315
0.01750000 0.01747870 62183.83703024 0 3191.95194337 0 39392.67434679 0 -16756.52421079 0 13062.35375830 0 297
0.01850000 0.01844180 69369.33294455 0 -8155.95196769 0 38416.09529778 0 12016.12978619 0 5783.54029042 0 388
0.01950000 0.01947590 72328.30102908 0 -8465.96599029 0 50261.48983527 0 4552.36420454 0 3410.02138067 0 399
0.02050000 0.02045430 83857.35924650 0 -3039.00992065 0 50937.34454220 0 5183.45350223 0 -7632.91748791 0 462
0.02150000 0.02154770 83709.54371017 0 7320.56720477 0 53278.69834835 0 -7354.33779547 0 -2889.57782490 0 571
0.02250000 0.02255340 74728.55960327 0 9139.37371343 0 52851.30661035 0 -5811.29860874 0 -5953.44511476 0 510
0.02350000 0.02348930 70958.32227927 0 3328.30762351 0 51047.18200440 0 4710.63201549 0 -972.90414440 0 555
0.02450000 0.02439640 69530.54599391 0 365.32028507 0 47076.42487793 0 8648.75900072 0 -7986.18001124 0 592
0.02550000 0.02547300 71655.76801960 0 -5407.83416468 0 31623.88836103 0 16144.44609482 0 -12006.27541710 0 837
0.02650000 0.02652900 72853.35067198 0 -3395.33947796 0 26133.23320671 0 17980.68044274 0 -8383.58789364 0 723
0.02750000 0.02749970 72843.05340990 0 674.43744935 0 19657.47331328 0 12346.63868202 0 -9795.70791171 0 826
0.02850000 0.02848090 72560.59840378 0 3396.95603739 0 21126.10647723 0 6382.12124244 0 -1757.69834799 0 831
0.02950000 0.02946900 66969.84943310 0 5161.61887768 0 10885.28003548 0 2976.13018800 0 5672.59559574 0 996
0.03050000 0.03053250 66153.92981721 0 1127.15159421 0 17689.36757677 0 -3294.02770587 0 -4284.32536533 0 1041
0.03150000 0.03150510 61764.97098235 0 3648.30888309 0 23092.55136502 0 -5792.56423515 0 8856.23222317 0 1036
0.03250000 0.03246190 61032.97958859 0 7394.66320246 0 24239.09059999 0 -12842.01449441 0 -148.00598032 0 1059
0.03350000 0.03345080 55928.52712395 0 5610.44663653 0 18519.23832192 0 -2276.13781297 0 6642.22122476 0 1302
0.03450000 0.03451200 54062.72966876 0 -2848.34448727 0 15857.89432851 0 3843.19287223 0 -7629.87259858 0 1339
0.03550000 0.03553350 56416.26303221 0 -3119.38392651 0 18433.31708133 0 4517.75211715 0 -9734.86548683 0 1365
0.03650000 0.03647120 57332.05501796 0 3538.28319137 0 19580.40993254 0 3121.76447634 0 -21671.30775130 0 1308
0.03750000 0.03744890 52506.07152250 0 5735.14315864 0 17650.17154691 0 -3758.98784198 0 -12347.52446801 0 1579
0.03850000 0.03847530 49013.97099795 0 4830.62279955 0 23392.94353735 0 -6398.34219830 0 -5084.38941207 0 1662
0.03950000 0.03950240 46325.49980873 0 1784.15013198 0 27629.99007570 0 192.58316004 0 -3159.22215121 0 1683
0.04050000 0.04050350 45768.56187036 0 -1349.17385148 0 29837.03658180 0 5827.25382881 0 -1848.23674803 0 1822
0.04150000 0.04152450 48711.47508390 0 -2162.46932638 0 24328.77643102 0 9308.02736507 0 -5899.10214455 0 1887
0.04250000 0.04250150 49679.52844280 0 326.33352215 0 23490.82288874 0 2333.24886438 0 -3684.59289153 0 1920
0.04350000 0.04349210 48360.37166391 0 3634.15845198 0 23979.66602949 0 -4798.05909226 0 -3160.22973276 0 2005
0.04450000 0.04448520 45588.96876180 0 2993.45837635 0 21799.85744244 0 300.30027203 0 1894.10938975 0 2151
0.04550000 0.04548030 42895.40430317 0 1782.34534303 0 22440.72360294 0 2730.50173423 0 1447.67325306 0 2274
0.04650000 0.04648670 42017.59039154 0 1477.39137288 0 21760.10779634 0 7289.28788716 0 721.76056563 0 2311
0.04750000 0.04749250 40291.19350582 0 1359.43789658 0 22134.46309846 0 4920.12040106 0 -1535.07818518 0 2568
0.04850000 0.04851840 39242.09072925 0 1396.66305262 0 18159.94138156 0 2272.34000556 0 -328.02980231 0 2493
0.04950000 0.04949480 37587.99612460 0 1023.51795561 0 18453.02581951 0 1007.77864588 0 1179.76728175 0 2644
0.05050000 0.05050630 37058.29610527 0 379.50282593 0 16387.15145484 0 -297.14798116 0 460.11820847 0 2829
0.05150000 0.05149060 36753.36427977 0 10.01770802 0 16809.89281642 0 3114.83320101 0 -2728.50871576 0 2784
0.05250000 0.05249300 36357.30722100 0 419.09524501 0 15429.72752778 0 1646.78687028 0 -3828.35595697 0 3055
0.05350000 0.05348950 35096.61231715 0 771.25607203 0 11723.93113422 0 2124.56875853 0 -6084.44178969 0 3009
0.05450000 0.05448610 34300.51216269 0 467.74482580 0 10858.38535850 0 1543.88068341 0 -5444.06281148 0 3336
0.05550000 0.05550870 34753.70241752 0 244.66183982 0 11613.09716279 0 -429.86972429 0 -6657.62282858 0 3349
0.05650000 0.05647670 33861.16231389 0 -39.23633312 0 10927.25521887 0 295.24686299 0 -7403.32176047 0 3324
0.05750000 0.05747970 34854.79274311 0 377.07134340 0 11893.55915045 0 16.54227473 0 -4388.00661493 0 3639
0.05850000 0.05849280 33820.30543531 0 155.94705168 0 11706.54758426 0 91.65249737 0 -3031.99006671 0 3846
0.05950000 0.05951020 34736.76176055 0 413.30884806 0 11896.88084789 0 19.69367982 0 -1639.25768940 0 3787
0.06050000 0.06049470 33747.33881475 0 980.78431797 0 11426.97138259 0 561.57059908 0 -3641.15616126 0 3930
0.06150000 0.06148310 33246.53756320 0 1278.14488777 0 11832.10774770 0 1433.40102637 0 -1174.24219167 0 4083
0.06250000 0.06249100 32835.64358918 0 78.22198881 0 10349.68953936 0 1021.35553057 0 -2979.75083822 0 4303
0.06350000 0.06350600 32488.52620612 0 -58.15483948 0 10568.10221873 0 -621.57374174 0 -4144.82514494 0 4470
0.06450000 0.06451750 32804.64107969 0 -365.00583104 0 11980.25545378 0 -1309.85602605 0 -6373.34088886 0 4479
0.06550000 0.06550280 33237.34753361 0 -313.17960026 0 10563.59578253 0 481.77899751 0 -5799.96054813 0 4636
0.06650000 0.06648880 32815.38123477 0 59.47687506 0 10134.36603861 0 1174.79580791 0 -5523.42923578 0 4653
0.06750000 0.06749660 32827.33934557 0 1104.22523844 0 9944.22100450 0 1412.31931992 0 -4345.77676807 0 5220
0.06850000 0.06852730 32102.65568619 0 1097.01494052 0 11083.84003646 0 2277.66579379 0 -5089.56018776 0 5029
0.06950000 0.06949320 30375.59446098 0 1760.84288823 0 10527.63287152 0 1187.06394381 0 -633.48313431 0 5040
0.07050000 0.07048030 29246.88166897 0 1344.66741528 0 10478.81499139 0 1854.84692594 0 600.99582606 0 5475
0.07150000 0.07148790 29325.60589843 0 35.99657088 0 11469.59983314 0 -465.72744822 0 2075.70658910 0 5509
0.07250000 0.07249820 28857.57872834 0 596.25797827 0 12014.24749097 0 1.70297892 0 3222.76622334 0 5916
0.07350000 0.07351270 28051.73492804 0 1201.91193139 0 12927.16067227 0 -582.38989144 0 4190.71993131 0 5721
0.07450000 0.07449140 27575.07134460 0 530.40754088 0 12429.23822517 0 402.44689742 0 5024.53242410 0 6028
0.07550000 0.07549160 27397.47125451 0 -332.84072744 0 11437.93298416 0 1858.45650384 0 4233.12693537 0 6183
0.07650000 0.07648840 27063.41921473 0 292.34480665 0 11253.24660618 0 3400.59883225 0 2643.90508182 0 6330
0.07750000 0.07749960 27425.15206655 0 -131.24912394 0 9667.93328330 0 1860.42737765 0 2378.88898729 0 6583
0.07850000 0.07848650 26201.21728110 0 214.38567484 0 9354.14359794 0 1617.32341393 0 2818.57100583 0 6549
0.07950000 0.07947320 26013.76282192 0 1158.86273249 0 8753.55855513 0 351.18203351 0 1554.76477871 0 6828
0.08050000 0.08048110 24906.53034006 0 1450.77350401 0 9454.66923497 0 -1210.17188570 0 1260.94956732 0 7147
0.08150000 0.08149960 24114.74839227 0 183.33444711 0 8612.18711184 0 -905.21570108 0 1986.76260383 0 7386
0.08250000 0.08250610 23891.64104718 0 230.21024147 0 9657.79103376 0 460.01191415 0 1706.58849662 0 7227
0.08350000 0.08350160 23426.82485129 0 744.18313062 0 8681.12340616 0 1005.55310859 0 30.11528410 0 7798
0.08450000 0.08449610 22680.77160501 0 976.67648546 0 7345.07025960 0 932.35618368 0 778.03233482 0 7371
0.08550000 0.08548940 21750.36415050 0 955.12863413 0 6602.84803770 0 947.63488470 0 574.75109455 0 8256
0.08650000 0.08650700 21201.06611625 0 82.43212960 0 5988.23435934 0 844.99332639 0 -839.49038096 0 8037
0.08750000 0.08749060 20793.60456292 0 257.56884886 0 5514.22813386 0 763.81989868 0 -1202.12230556 0 8155
0.08850000 0.08849210 20751.97262160 0 -305.60502285 0 5234.98410193 0 -341.93885675 0 -869.74440129 0 8718
0.08950000 0.08949900 20805.56267373 0 211.10937392 0 5434.28594867 0 -251.65069125 0 -641.17840006 0 8571
0.09050000 0.09049190 20999.21763480 0 442.34823436 0 5742.21837420 0 307.77962745 0 -743.35049179 0 8932
0.09150000 0.09150830 20486.12610271 0 310.77247685 0 6136.73637981 0 -832.65322038 0 -853.31085680 0 9285
0.09250000 0.09250820 20647.33915207 0 418.09984301 0 6385.19934874 0 -496.47972317 0 28.06192147 0 9204
0.09350000 0.09350330 20387.25024208 0 89.46327730 0 7535.81319925 0 -274.60472783 0 -527.54534491 0 9349
0.09450000 0.09448040 20255.48957674 0 729.26981632 0 8038.43031206 0 -712.17525403 0 255.60572567 0 9564
0.09550000 0.09549270 19632.11768945 0 763.49105064 0 8479.78425166 0 -877.40423560 0 -848.72137816 0 10155
0.09650000 0.09649430 19343.79435117 0 778.32021527 0 9077.40191142 0 -338.53300963 0 155.33918104 0 9913
0.09750000 0.09749140 18525.21737733 0 520.95841888 0 9427.03271222 0 -123.92921000 0 157.25137154 0 10476
0.09850000 0.09850240 18184.52194266 0 443.82638973 0 9403.64796220 0 1236.42436785 0 567.80985412 0 10575
0.09950000 0.09950330 17845.59807996 0 39.02872703 0 8319.51234991 0 1952.70413269 0 -111.92902436 0 10882
0.10050000 0.10051200 17772.63145940 0 -109.95361089 0 7613.46341320 0 1502.68056276 0 -288.73301430 0 10875
0.10150000 0.10150300 17537.23383376 0 48.75266413 0 6747.68511865 0 862.77990898 0 -1366.47989517 0 11118
0.10250000 0.10250800 17183.80522555 0 -13.93751031 0 5778.75704610 0 527.29732484 0 -853.89547555 0 11575
0.10350000 0.10349800 17008.97321666 0 431.89042357 0 4482.71928143 0 544.04975229 0 -1807.68989454 0 11364
0.10450000 0.10450100 16757.63144328 0 462.64159129 0 4082.51010086 0 323.97068803 0 -1933.13933474 0 12093
0.10550000 0.10551000 16570.17698410 0 -51.83564225 0 4006.32143378 0 -60.63592602 0 -2012.83792878 0 12067
0.10650000 0.10649700 16487.90961069 0 200.26513899 0 4044.58738835 0 433.67860403 0 -2856.39406742 0 12054
0.10750000 0.10749900 15978.13977604 0 463.93151713 0 3552.83222618 0 -74.32043371 0 -1944.44417838 0 12807
0.10850000 0.10850100 15867.63797435 0 352.71776496 0 3832.20912601 0 342.20459254 0 -1177.70782934 0 12736
0.10950000 0.10950300 15385.65967500 0 358.51634147 0 3837.86708399 0 540.63504731 0 -1363.65645234 0 12933
0.11050000 0.11050200 15391.86017690 0 540.38038384 0 4087.24905588 0 76.71349527 0 -635.41636223 0 13428
0.11150000 0.11150900 14796.61199465 0 647.91812418 0 4292.58531964 0 -176.97450374 0 -314.06649348 0 13453
0.11250000 0.11250000 14102.48795177 0 676.96083218 0 4423.85880269 0 15.96164201 0 389.85323517 0 13668
0.11350000 0.11349100 14161.28199655 0 27.06950899 0 4812.61919940 0 341.20254715 0 102.43306642 0 13791
0.11450000 0.11448600 14002.28341216 0 -175.57939081 0 4786.14527076 0 146.50235861 0 754.17701100 0 14205
0.11550000 0.11549300 14199.48151718 0 -89.22057194 0 4834.74170439 0 72.11715179 0 -107.22018606 0 14776
0.11650000 0.11649800 14319.83768796 0 45.83566016 0 5308.92508707 0 -116.00031820 0 761.48695985 0 14553
0.11750000 0.11747300 14056.86997351 0 385.47413070 0 5035.47188102 0 5.95136352 0 979.29730475 0 14568
0.11850000 0.11849100 13824.35115232 0 367.68865535 0 4969.32581256 0 361.94544046 0 1484.77661353 0 16015
0.11950000 0.11950300 13660.14857526 0 87.94935833 0 4888.79679415 0 836.33476839 0 1351.89764338 0 15270
0.12050000 0.12050700 13577.21686237 0 80.95198121 0 4677.48147499 0 917.76950296 0 1429.96860568 0 15999
0.12150000 0.12150000 13523.29464050 0 1.37018912 0 3769.67263543 0 525.13489980 0 1430.55543889 0 15670
0.12250000 0.12250700 13536.58143028 0 -106.33816467 0 3569.10854367 0 737.60395521 0 1639.52342520 0 16887
0.12350000 0.12352200 13517.86920134 0 -45.05683283 0 3374.32420546 0 -100.24118900 0 1291.48703917 0 16407
0.12450000 0.12449800 13602.79393270 0 96.72971191 0 3249.57232173 0 9.31043006 0 969.42521994 0 16306
0.12550000 0.12549900 13314.58131767 0 104.53714031 0 3051.85381744 0 -149.42434513 0 748.52237471 0 17523
0.12650000 0.12650100 13328.97533993 0 52.80447068 0 3231.26976880 0 26.85647746 0 639.01265333 0 17154
0.12750000 0.12750600 13237.85010668 0 44.00075449 0 3485.24675549 0 -142.03246108 0 -24.75351081 0 18007
0.12850000 0.12850300 13232.75683726 0 203.06865164 0 3639.41780626 0 -67.26337676 0 28.86599370 0 17496
0.12950000 0.12949900 13006.10634822 0 352.56053795 0 3678.25952173 0 -495.14218633 0 -230.99748376 0 18405
0.13050000 0.13049000 12797.06085565 0 540.48003477 0 3851.45282654 0 -575.38553876 0 249.22142318 0 18100
0.13150000 0.13148800 12436.10306656 0 217.28662394 0 4299.14013593 0 -129.66578149 0 138.27119234 0 19059
0.13250000 0.13249300 12231.15433417 0 123.24715479 0 3952.54315214 0 352.81520142 0 205.14249808 0 18957
0.13350000 0.13349100 12384.61675615 0 37.98460680 0 4068.91328598 0 497.79179366 0 75.52698495 0 19468
0.13450000 0.13450700 12289.06259297 0 -37.69772286 0 3668.19477847 0 0.44368245 0 -437.52623691 0 19953
0.13550000 0.13551000 12105.04055448 0 391.04018839 0 3407.00970832 0 266.43999551 0 -471.47177034 0 19956
0.13650000 0.13649900 11937.40555673 0 140.75028586 0 3243.30538588 0 80.75279009 0 446.38852569 0 19723
0.13750000 0.13749600 11653.84331812 0 93.16132307 0 3281.68206370 0 486.90991283 0 155.15648768 0 20946
0.13850000 0.13851100 11809.74165157 0 150.15733303 0 2958.91272291 0 588.59039334 0 198.17689853 0 20955
0.13950000 0.13949800 11692.15356199 0 -51.67631150 0 3070.13422571 0 2.21965788 0 -168.59939725 0 20506
0.14050000 0.14048300 11622.06574589 0 174.45665708 0 3097.64895289 0 -335.71288850 0 174.71021331 0 21447
0.14150000 0.14148400 11508.13152351 0 353.24037869 0 3528.25166509 0 -341.42399364 0 292.57843271 0 21771
0.14250000 0.14249400 11319.01621561 0 145.43166480 0 3343.02274319 0 -135.62269224 0 639.21416964 0 22470
0.14350000 0.14350900 11303.07206787 0 113.98626231 0 3871.83697653 0 22.43463382 0 576.91573405 0 22519
0.14450000 0.14449900 11122.59317332 0 136.50183483 0 3594.34237193 0 489.84961507 0 369.75142946 0 22218
0.14550000 0.14550500 10970.82481703 0 220.20971769 0 3625.79884674 0 586.39364409 0 445.11963727 0 23559
0.14650000 0.14650700 10709.17470924 0 284.34062304 0 3333.43410990 0 33.25229517 0 511.42957614 0 23044
0.14750000 0.14750500 10654.04560397 0 183.79394859 0 3559.37597015 0 269.51256564 0 576.07202290 0 23649
0.14850000 0.14849900 10511.34548171 0 126.64414404 0 3579.21757623 0 -268.29793161 0 1415.17597972 0 23640
0.14950000 0.14949500 10324.54428969 0 198.47806577 0 3597.40940590 0 53.35775475 0 958.40050612 0 24457
0.15050000 0.15050000 10285.56970633 0 168.64147208 0 3618.90078838 0 174.40018822 0 1354.51071204 0 24591
0.15150000 0.15149900 10172.98630758 0 -24.90763757 0 3295.24566160 0 524.67096939 0 1026.49751822 0 25020
0.15250000 0.15250500 10184.32436819 0 6.41357772 0 2994.22236676 0 233.21969935 0 962.59359553 0 25297
0.15350000 0.15350100 10065.64011846 0 130.87377212 0 2970.26185585 0 250.25447109 0 395.60862961 0 25452
0.15450000 0.15450400 9929.64982504 0 180.26298421 0 2690.47528001 0 149.08885368 0 222.46957919 0 26061
0.15550000 0.15549900 9640.51820705 0 101.92838986 0 2436.43185937 0 35.56940059 0 142.76877068 0 26128
0.15650000 0.15649500 9561.76076061 0 182.52395294 0 2336.89165925 0 113.10933418 0 -639.50537178 0 26331
0.15750000 0.15749700 9482.01787727 0 165.28655766 0 2318.42302145 0 -203.03543466 0 -764.88394910 0 27345
0.15850000 0.15849900 9293.91015092 0 153.15904029 0 2001.85418256 0 -20.53750169 0 -767.95984093 0 26980
0.15950000 0.15949700 9243.49785603 0 139.96415080 0 2190.69268234 0 -232.39924008 0 -687.61573035 0 27777
0.16050000 0.16050000 9178.04934402 0 124.34995834 0 2139.20637194 0 80.94821662 0 -823.92933566 0 28224
0.16150000 0.16150500 9026.93425490 0 117.16512677 0 2053.86089223 0 310.25539928 0 -523.55266458 0 28075
0.16250000 0.16249700 8965.39427356 0 146.24658790 0 2337.21275667 0 139.03296828 0 -305.62938197 0 28590
0.16350000 0.16349900 8865.99801366 0 56.21784697 0 2167.62902975 0 205.52227882 0 -216.10852858 0 29163
0.16450000 0.16449100 8808.07868253 0 152.89330449 0 2559.82184715 0 160.30511872 0 -184.46825318 0 28996
0.16550000 0.16550500 8592.44515669 0 198.77701854 0 2318.54481702 0 -55.26706644 0 238.67392656 0 30777
0.16650000 0.16650700 8518.20521878 0 206.99046909 0 2422.84611682 0 30.81272984 0 100.33895763 0 29211
0.16750000 0.16749900 8373.43457178 0 45.51411985 0 2228.58217787 0 -214.42774967 0 236.40299274 0 30922
0.16850000 0.16850800 8425.52986005 0 -22.01820369 0 2433.84093536 0 -35.78874334 0 -94.18296648 0 30867
0.16950000 0.16949900 8456.46593559 0 100.38479706 0 2238.72442741 0 -124.79506580 0 -117.86046876 0 30852
0.17050000 0.17049200 8464.70374526 0 5.29921466 0 2378.29108175 0 -163.12191816 0 -597.62541039 0 31257
0.17150000 0.17149500 8270.50624026 0 113.22337913 0 2450.26119307 0 -209.37323339 0 -630.84127761 0 32608
0.17250000 0.17250900 8202.43358728 0 341.39188390 0 2401.03363692 0 -245.88090278 0 -897.73413120 0 32361
0.17350000 0.17350400 8148.28991891 0 86.03971447 0 2458.13361601 0 140.04165707 0 -812.51266154 0 32508
0.17450000 0.17449800 8049.69086640 0 -126.44705666 0 2082.21711610 0 311.88745996 0 -481.41139632 0 32791
0.17550000 0.17549800 8152.17630493 0 -16.44450610 0 2219.27035270 0 420.86570975 0 -748.61759671 0 33633
0.17650000 0.17650100 8172.01791100 0 43.93553850 0 2084.22120689 0 213.52203350 0 -772.91802799 0 33984
0.17750000 0.17750300 7973.98938162 0 245.87647385 0 1863.71585812 0 69.35958930 0 -456.02698445 0 34069
0.17850000 0.17849800 7917.85269479 0 118.11070331 0 2234.09619563 0 26.69770033 0 -377.68807189 0 34536
