### header ###
fiducial parameters:
Omega_m = 0.31
Omega_nu = 0
Omega_de = 0.69
Omega_k = 0
H_0 = 100
w_de = -1
zeff = 0
beta = 0
fgrowth = 0
b_1 = 2
gamma = 0.55
Lx = 3500 Ly = 3500 Lz = 3500
nx = 700 ny = 700 nz = 700
xoffset = -685.467585 yoffset = -31.7331281 zoffset = 572.489161
bins = 400 dk = 0.001
kx_ny = 0.628318531 ky_ny = 0.628318531 kz_ny = 0.628318531
############################
A(data) = 8.07688471 (not used)
A(ran) = 8.07358601 (used)
Ngal = 480125
weighted Ngal = 0
Nran = 23820508
weighted Nran = 0
SN(data) = 3489.5319
SN(ran) = 70.3238621
SN(data+ran) = 3559.85576
############################
13 columns: k_central k_mean P_0(k) sigma^{lin}_{P_0(k)} P^img_1(k) sigma^{lin}_{P_1(k)} P_2(k) sigma^{lin}_{P_2(k)} P^img_3(k) sigma^{lin}_{P_3(k)} P_4(k) sigma^{lin}_{P_4(k)} N_modes
### header ###
0.00050000 0 0 0 0 0 0 0 0 0 0 0 0
0.00150000 0.00179520 17158.44960171 0 -19649.50123941 0 29858.95978494 0 -63545.29008994 0 19026.90441486 0 3
0.00250000 0.00253879 27745.80659330 0 -19678.40000719 0 -21922.64952468 0 19660.90573397 0 -29561.11424732 0 6
0.00350000 0.00331552 40825.54390157 0 -15449.21481946 0 14433.88263359 0 -8547.21470981 0 10957.89234165 0 7
0.00450000 0.00420575 49410.69239620 0 -15336.27710631 0 -1569.97815301 0 -3196.55803049 0 -6762.93170993 0 24
0.00550000 0.00557378 75006.36423297 0 -13507.57193926 0 26074.77133167 0 -3900.12676644 0 -5481.21046125 0 45
0.00650000 0.00659388 71773.90972541 0 1763.89884988 0 -16827.94070588 0 -17882.35819835 0 16953.39014607 0 40
0.00750000 0.00754703 92835.13237920 0 6882.94463864 0 38293.30321554 0 -3175.07772035 0 -22551.00395814 0 57
0.00850000 0.00846663 74404.80482557 0 4310.43390725 0 10832.15502101 0 -3612.72243113 0 32105.64521389 0 75
0.00950000 0.00948925 79312.83424793 0 13583.52808752 0 29248.21034794 0 7213.97393374 0 2698.62451107 0 112
0.01050000 0.01054430 73046.67346332 0 -271.05272603 0 12304.56384771 0 20741.56463627 0 -25144.58532366 0 105
0.01150000 0.01145670 74380.00281798 0 -13905.06840025 0 19466.03281717 0 -1228.85089767 0 -14861.27437159 0 144
0.01250000 0.01249090 83318.35847433 0 2149.06074103 0 18242.54092471 0 3941.99122658 0 -48319.40406208 0 169
0.01350000 0.01339930 79256.03322161 0 10429.54314595 0 17164.53938036 0 -19597.12914302 0 -27343.32758614 0 180
0.01450000 0.01448870 66670.01087701 0 12468.10208528 0 21990.96576881 0 -12580.48618219 0 -25241.80033556 0 267
0.01550000 0.01550050 65665.97246246 0 7969.26149892 0 35293.03535944 0 -6219.93382850 0 -15559.49517465 0 238
0.01650000 0.01653350 59076.94268613 0 2280.38958570 0 32669.66944015 0 -11794.68328981 0 -41267.32966183 0 315
0.01750000 0.01747870 60209.42006858 0 4117.10004359 0 36885.23566836 0 -16438.41631876 0 -33215.20288397 0 297
0.01850000 0.01844180 59729.98840393 0 3086.96415944 0 47286.02398675 0 -15905.17315549 0 -34125.56943056 0 388
0.01950000 0.01947590 61031.98307936 0 -1882.50559334 0 44095.31214376 0 8667.28300014 0 -28165.66915042 0 399
0.02050000 0.02045430 63582.27165484 0 -9656.01946179 0 41709.44759184 0 13350.23420359 0 -35169.24676796 0 462
0.02150000 0.02154770 71600.96001175 0 -5836.59887095 0 39144.54354760 0 18490.78244714 0 -42066.19789750 0 571
0.02250000 0.02255340 71701.82889085 0 -304.22098225 0 31142.90657091 0 15538.01486450 0 -33730.84105077 0 510
0.02350000 0.02348930 67956.28285119 0 8280.01736728 0 26949.70643884 0 14484.37243476 0 -20022.74930905 0 555
0.02450000 0.02439640 67596.98591083 0 7208.71457945 0 12802.70774130 0 1910.38570723 0 -8257.16408886 0 592
0.02550000 0.02547300 59883.34010267 0 44.02013106 0 7394.39746666 0 9900.52961076 0 -6257.55758823 0 837
0.02650000 0.02652900 62425.76732753 0 -3182.19722520 0 8466.51960653 0 2803.32441456 0 -9934.75416678 0 723
0.02750000 0.02749970 60960.23441453 0 329.34519450 0 13172.74483674 0 -1018.04158375 0 -13595.37547507 0 826
0.02850000 0.02848090 61471.22220491 0 3463.84395162 0 11323.88803853 0 -1456.63076384 0 -1613.10485818 0 831
0.02950000 0.02946900 57007.30373103 0 1787.05108108 0 6193.34917661 0 -2760.18663707 0 -2469.01771131 0 996
0.03050000 0.03053250 58053.63842639 0 2378.24679245 0 16241.55038348 0 -1997.60240983 0 -5077.42491976 0 1041
0.03150000 0.03150510 55744.28363896 0 3274.85043929 0 16497.76397978 0 -4077.04037240 0 -6950.41938608 0 1036
0.03250000 0.03246190 50940.22334665 0 5353.21438634 0 19330.06466839 0 56.31295824 0 -4474.02750644 0 1059
0.03350000 0.03345080 48201.15163301 0 2675.36155663 0 22061.16430816 0 -369.82118511 0 956.40748765 0 1302
0.03450000 0.03451200 48716.12546033 0 578.43153532 0 21066.75881620 0 3897.02651550 0 2774.68031025 0 1339
0.03550000 0.03553350 46690.33291151 0 193.39808314 0 20426.77844168 0 4165.44181375 0 400.19367932 0 1365
0.03650000 0.03647120 47151.93813320 0 405.12418556 0 19404.80286092 0 4073.30899893 0 -121.10576717 0 1308
0.03750000 0.03744890 46971.23779216 0 -12.94432278 0 17610.64334731 0 1833.73200252 0 1568.85984820 0 1579
0.03850000 0.03847530 49355.88438835 0 -2370.95013039 0 15876.93872720 0 3785.00780531 0 -302.65535552 0 1662
0.03950000 0.03950240 50271.67637410 0 -2019.27094950 0 13398.84170954 0 -1836.17898630 0 1613.49238955 0 1683
0.04050000 0.04050350 51487.30691594 0 587.43001370 0 14766.71671764 0 2010.32451105 0 1916.23189474 0 1822
0.04150000 0.04152450 49376.58963576 0 2390.26026487 0 16771.25040280 0 -2408.06456318 0 -644.60971352 0 1887
0.04250000 0.04250150 47003.23681088 0 3262.61552036 0 17100.87351265 0 1508.68176281 0 2675.45013523 0 1920
0.04350000 0.04349210 43598.71837565 0 3524.53136395 0 18287.93745646 0 2150.82124067 0 1443.31075709 0 2005
0.04450000 0.04448520 43025.72556628 0 1424.11134585 0 17425.62479959 0 1391.49227693 0 3102.81972858 0 2151
0.04550000 0.04548030 42315.10375942 0 328.01762275 0 16431.10858437 0 2117.53783227 0 1327.50531181 0 2274
0.04650000 0.04648670 41950.49210314 0 497.54155912 0 15653.94210535 0 -506.41049130 0 1071.76782547 0 2311
0.04750000 0.04749250 41298.11072483 0 1429.79144848 0 17048.39069301 0 -412.67994001 0 16.86171130 0 2568
0.04850000 0.04851840 39809.54737621 0 1191.18284864 0 14668.72664299 0 -112.09953816 0 574.90832156 0 2493
0.04950000 0.04949480 39880.63170154 0 505.71072037 0 17139.51592627 0 1940.03739310 0 -91.26109068 0 2644
0.05050000 0.05050630 39165.91313450 0 -411.72772008 0 16255.50151275 0 -181.73449618 0 -1079.56163491 0 2829
0.05150000 0.05149060 40694.22612922 0 421.15469743 0 17442.56545656 0 -824.36669249 0 -3985.01828083 0 2784
0.05250000 0.05249300 38794.10446709 0 1024.68054971 0 16919.06593913 0 627.70227353 0 -1970.56379262 0 3055
0.05350000 0.05348950 38475.88585180 0 1420.45747866 0 15358.42175594 0 2589.16350792 0 -2188.28998786 0 3009
0.05450000 0.05448610 37015.22476173 0 543.06099368 0 13645.42238325 0 2967.07302630 0 -3043.47206755 0 3336
0.05550000 0.05550870 36410.56510338 0 263.11386913 0 12219.97128610 0 4628.03247235 0 -2519.02033019 0 3349
0.05650000 0.05647670 36261.08871833 0 647.29918122 0 8991.08206714 0 4058.28385415 0 -5731.86575049 0 3324
0.05750000 0.05747970 34233.74604404 0 1455.55674833 0 7600.42021456 0 1306.51218395 0 -4234.35596342 0 3639
0.05850000 0.05849280 33091.52501574 0 2077.31207620 0 8263.71890515 0 -2189.77367938 0 -4324.18573467 0 3846
0.05950000 0.05951020 31088.32000955 0 1098.18528526 0 8012.08925132 0 -127.26751593 0 -2443.93889560 0 3787
0.06050000 0.06049470 30770.54428726 0 550.87473331 0 9297.18755907 0 -1075.03416129 0 -3036.49650292 0 3930
0.06150000 0.06148310 31081.67661466 0 32.53359057 0 10284.24102735 0 -1156.50432731 0 -3223.96203442 0 4083
0.06250000 0.06249100 30971.17481297 0 278.38814122 0 9603.43699123 0 504.31560744 0 -4256.52275771 0 4303
0.06350000 0.06350600 29943.55234655 0 954.49308269 0 10566.09812794 0 1454.05091216 0 -1854.43724993 0 4470
0.06450000 0.06451750 29779.90338573 0 20.28549558 0 8415.16616402 0 600.96925248 0 -3473.18899376 0 4479
0.06550000 0.06550280 30051.39679029 0 143.61912522 0 10215.82513230 0 1593.03073328 0 -3099.92985180 0 4636
0.06650000 0.06648880 29561.44641706 0 205.82123159 0 9644.81426908 0 1281.48872986 0 -1570.18852718 0 4653
0.06750000 0.06749660 29508.18853469 0 -7.32494077 0 10584.45604249 0 -609.69313721 0 1.01643610 0 5220
0.06850000 0.06852730 30038.88506324 0 -257.91430540 0 11393.09006864 0 -286.29156667 0 573.83209159 0 5029
0.06950000 0.06949320 30243.83379564 0 10.91289441 0 12548.37644022 0 435.35938294 0 461.37823903 0 5040
0.07050000 0.07048030 30480.22793051 0 626.09567920 0 11509.01730949 0 -424.23501819 0 1262.35575257 0 5475
0.07150000 0.07148790 30051.28606704 0 1459.59814689 0 13995.97218701 0 743.90964420 0 4629.02898158 0 5509
0.07250000 0.07249820 29190.85570538 0 655.33547458 0 12379.30204024 0 1137.39349467 0 5393.13011732 0 5916
0.07350000 0.07351270 28801.33131826 0 -284.25979507 0 12141.24705664 0 2381.18095852 0 3672.88944419 0 5721
0.07450000 0.07449140 28290.45425113 0 141.85973281 0 11580.32308133 0 1591.18165504 0 3293.87269332 0 6028
0.07550000 0.07549160 28732.79362764 0 984.35957165 0 12055.43653929 0 752.57816730 0 1668.93151991 0 6183
0.07650000 0.07648840 27117.67360634 0 1183.41007662 0 11942.60954939 0 -1473.77072266 0 3480.48565582 0 6330
0.07750000 0.07749960 26758.93028222 0 894.48218940 0 10629.38753660 0 -1434.86257325 0 2526.08447343 0 6583
0.07850000 0.07848650 26614.21499684 0 337.40916866 0 11866.21050814 0 1123.12126798 0 2530.40268010 0 6549
0.07950000 0.07947320 25277.45322148 0 181.94487035 0 11151.27049460 0 1389.26673965 0 196.52380044 0 6828
0.08050000 0.08048110 25302.47667557 0 860.82342919 0 10748.53682397 0 1177.26493634 0 -1139.54152569 0 7147
0.08150000 0.08149960 24135.12146994 0 1614.68820063 0 10785.34123167 0 345.05128725 0 -611.84559715 0 7386
0.08250000 0.08250610 22631.49975957 0 828.99824596 0 9713.01978996 0 -303.42377487 0 -851.62122003 0 7227
0.08350000 0.08350160 22207.65116551 0 794.96413393 0 10585.13145430 0 1091.83309251 0 173.09365389 0 7798
0.08450000 0.08449610 22650.87632800 0 -386.19051012 0 10082.28182266 0 1400.90375303 0 104.89023675 0 7371
0.08550000 0.08548940 22019.42164359 0 -198.95196127 0 9894.01908377 0 1919.64217078 0 2402.91593214 0 8256
0.08650000 0.08650700 22519.11566266 0 135.47543032 0 7548.67924069 0 2308.48007376 0 1544.06891293 0 8037
0.08750000 0.08749060 21855.32978978 0 244.27873738 0 8084.60190656 0 1922.62062616 0 3973.95702834 0 8155
0.08850000 0.08849210 21731.20902856 0 319.72445146 0 6862.81515212 0 1173.77715402 0 1765.22752886 0 8718
0.08950000 0.08949900 20798.58710909 0 733.08533945 0 6262.37404953 0 901.27395345 0 2774.06026006 0 8571
0.09050000 0.09049190 20530.08323224 0 356.29412587 0 6280.35550503 0 -186.11470788 0 3061.20993191 0 8932
0.09150000 0.09150830 20445.93356362 0 43.19225333 0 6119.69607192 0 -154.99926067 0 3589.07194531 0 9285
0.09250000 0.09250820 20331.99934123 0 293.36235330 0 6176.34208569 0 1.57379811 0 2130.62532020 0 9204
0.09350000 0.09350330 20310.07613809 0 580.32601009 0 6582.12064564 0 -783.55963937 0 511.09187023 0 9349
0.09450000 0.09448040 19528.59145239 0 639.92501289 0 7108.68719704 0 -1381.07321928 0 1824.96272126 0 9564
0.09550000 0.09549270 19272.15640959 0 561.17420985 0 7807.05194033 0 -662.91558815 0 1207.78026354 0 10155
0.09650000 0.09649430 18786.08135005 0 558.69290186 0 7712.99254099 0 -232.47453189 0 770.32599675 0 9913
0.09750000 0.09749140 18585.34010109 0 206.39699248 0 8283.35013705 0 691.91289961 0 425.59580691 0 10476
0.09850000 0.09850240 18121.63113769 0 588.85834360 0 7776.37052826 0 944.36079825 0 1207.74704657 0 10575
0.09950000 0.09950330 17687.48528155 0 335.59995079 0 7113.76939413 0 1233.02516413 0 677.29964532 0 10882
0.10050000 0.10051200 17422.30310214 0 117.26367046 0 6420.47577561 0 1299.90200603 0 1203.87173288 0 10875
0.10150000 0.10150300 17333.39233385 0 196.39979040 0 6412.65871429 0 375.61865438 0 494.53542293 0 11118
0.10250000 0.10250800 17149.48101861 0 -7.18153202 0 6185.29959647 0 45.62506454 0 220.44887991 0 11575
0.10350000 0.10349800 16852.18909723 0 174.46108601 0 5747.32271594 0 38.56856121 0 340.55370891 0 11364
0.10450000 0.10450100 16757.74216652 0 275.43404496 0 5494.47510638 0 -322.47813865 0 -172.15029182 0 12093
0.10550000 0.10551000 16516.25476223 0 236.35648897 0 5305.01655641 0 118.15388537 0 -479.41948509 0 12067
0.10650000 0.10649700 16613.13760439 0 191.13822165 0 4749.08619959 0 199.18558733 0 -1037.91640680 0 12054
0.10750000 0.10749900 16249.19028760 0 352.78309167 0 5197.55964404 0 39.28073314 0 -423.22743664 0 12807
0.10850000 0.10850100 15875.83149472 0 244.04621856 0 4679.96167575 0 772.98889087 0 -1196.95152987 0 12736
0.10950000 0.10950300 15853.90829158 0 98.78296383 0 4880.80257563 0 882.84849772 0 -149.89602616 0 12933
0.11050000 0.11050200 15232.08652976 0 172.23111979 0 4291.81025690 0 126.84233866 0 -251.04392785 0 13428
0.11150000 0.11150900 15431.38837650 0 437.33247122 0 4769.88002560 0 72.76122893 0 -230.67749357 0 13453
0.11250000 0.11250000 14869.24644546 0 453.67300819 0 4609.39774968 0 -566.08810761 0 496.62698509 0 13668
0.11350000 0.11349100 14697.73613402 0 375.26766168 0 4976.75534251 0 -109.27864197 0 -68.16754281 0 13791
0.11450000 0.11448600 14700.28276872 0 283.82575994 0 5092.18432875 0 -716.48681732 0 264.53444840 0 14205
0.11550000 0.11549300 14493.78391086 0 -32.77386002 0 5203.04044483 0 333.69440369 0 477.85496559 0 14776
0.11650000 0.11649800 14688.76755091 0 -80.58271918 0 5457.27209499 0 574.75220178 0 81.08451694 0 14553
0.11750000 0.11747300 14463.00284786 0 262.51928529 0 4951.01218731 0 924.52915726 0 632.20649526 0 14568
0.11850000 0.11849100 14419.59933457 0 161.87406715 0 5156.49239129 0 585.35063110 0 714.43179383 0 16015
0.11950000 0.11950300 14151.31690422 0 163.94237743 0 4473.55139648 0 376.87757771 0 1068.67975408 0 15270
0.12050000 0.12050700 14045.90837194 0 276.50030984 0 4877.03798519 0 381.25557495 0 791.68229686 0 15999
0.12150000 0.12150000 13855.24293856 0 227.04909273 0 4573.31304309 0 -249.16827602 0 1289.90369672 0 15670
0.12250000 0.12250700 13698.90171213 0 213.62279166 0 4610.99216445 0 -393.36759106 0 459.56459223 0 16887
0.12350000 0.12352200 13564.92658182 0 211.03186765 0 4811.16872485 0 -510.00899687 0 559.50007434 0 16407
0.12450000 0.12449800 13358.42772395 0 200.11123368 0 5250.16425926 0 -32.32543086 0 205.00077232 0 16306
0.12550000 0.12549900 13386.21925925 0 89.58485143 0 4931.30344913 0 -136.30364021 0 -129.26607056 0 17523
0.12650000 0.12650100 13292.21522154 0 -13.11682960 0 5480.81185755 0 378.40888023 0 -77.97297222 0 17154
0.12750000 0.12750600 13315.68855015 0 -74.97060062 0 4751.00171178 0 748.13373611 0 -77.38193152 0 18007
0.12850000 0.12850300 13400.05966527 0 -136.97573033 0 4331.27202256 0 718.32593047 0 -140.34060984 0 17496
0.12950000 0.12949900 13443.79534830 0 16.27487808 0 4187.39823386 0 649.94214516 0 -55.18845293 0 18405
0.13050000 0.13049000 13531.59888412 0 225.90864327 0 3970.98964528 0 21.03719571 0 288.52264012 0 18100
0.13150000 0.13148800 13155.58273327 0 403.35814975 0 4192.31434608 0 -364.71462890 0 499.85567501 0 19059
0.13250000 0.13249300 12980.97217088 0 296.85899348 0 4404.31614939 0 -453.22347180 0 715.27550498 0 18957
0.13350000 0.13349100 12571.62832234 0 504.75739321 0 4780.14407071 0 2.70909893 0 581.05235460 0 19468
0.13450000 0.13450700 12397.79282269 0 244.28759524 0 4744.26973829 0 46.67217430 0 454.39603100 0 19953
0.13550000 0.13551000 12091.53231820 0 57.67562926 0 4561.00061790 0 381.13377937 0 142.80420212 0 19956
0.13650000 0.13649900 12043.25698199 0 178.13820508 0 4501.69724617 0 31.44684189 0 -426.73736360 0 19723
0.13750000 0.13749600 11904.41002877 0 121.04376215 0 4292.36387315 0 132.79592771 0 -279.14770270 0 20946
0.13850000 0.13851100 11650.41089743 0 -4.35544291 0 3872.55667765 0 413.91228977 0 -749.87652004 0 20955
0.13950000 0.13949800 11687.28173907 0 87.05560027 0 3546.99711100 0 228.71326315 0 -1031.85320173 0 20506
0.14050000 0.14048300 11552.42082278 0 256.47379594 0 3517.63330558 0 -17.59702439 0 -1651.47046368 0 21447
0.14150000 0.14148400 11389.76837120 0 263.47925585 0 3306.36227572 0 13.60766576 0 -1079.43430317 0 21771
0.14250000 0.14249400 11019.46553996 0 162.53729941 0 3063.19187805 0 172.30198267 0 -508.05030261 0 22470
0.14350000 0.14350900 11177.73335092 0 43.47437617 0 2941.26343715 0 596.26240720 0 -843.83073229 0 22519
0.14450000 0.14449900 11133.00115865 0 -125.57787916 0 3174.43552551 0 508.86965464 0 -627.95804423 0 22218
0.14550000 0.14550500 11011.93635909 0 192.74703044 0 2908.27898152 0 189.16070443 0 -547.56853712 0 23559
0.14650000 0.14650700 10942.20285738 0 199.74806143 0 3087.00844874 0 -64.40671696 0 -487.89092081 0 23044
0.14750000 0.14750500 10663.34635682 0 322.79148544 0 3333.95450917 0 -278.82217635 0 -378.39891514 0 23649
0.14850000 0.14849900 10641.31243043 0 228.66233046 0 3569.18604994 0 -263.80146050 0 49.63811795 0 23640
0.14950000 0.14949500 10537.27686643 0 108.09047079 0 3893.17334646 0 37.59829339 0 -125.15602359 0 24457
0.15050000 0.15050000 10304.65839432 0 255.74634420 0 3794.72930650 0 257.36068915 0 335.64534732 0 24591
0.15150000 0.15149900 10124.57810347 0 178.58220530 0 3693.39538976 0 341.07521541 0 171.70518436 0 25020
0.15250000 0.15250500 9994.12397246 0 42.13185678 0 3492.27768175 0 671.83656025 0 748.96083878 0 25297
0.15350000 0.15350100 10000.65664410 0 186.47677290 0 3343.05596017 0 214.95922126 0 567.70023810 0 25452
0.15450000 0.15450400 9736.17202116 0 289.33645600 0 3008.47244880 0 357.37699924 0 572.11145231 0 26061
0.15550000 0.15549900 9539.51646005 0 108.29851977 0 2871.40813987 0 163.14627727 0 991.73373998 0 26128
0.15650000 0.15649500 9529.99426071 0 -1.07369662 0 2641.04842202 0 221.42767342 0 472.72626474 0 26331
0.15750000 0.15749700 9314.53789206 0 -27.92639621 0 2604.49867779 0 235.90030919 0 721.79710430 0 27345
0.15850000 0.15849900 9489.53598582 0 132.82471576 0 2559.37895415 0 136.91151085 0 -18.58423287 0 26980
0.15950000 0.15949700 9373.46480475 0 -7.96481042 0 2479.28175642 0 164.38859212 0 425.64009621 0 27777
0.16050000 0.16050000 9344.47745837 0 154.83206857 0 2484.53003838 0 -11.10731337 0 88.29525776 0 28224
0.16150000 0.16150500 9117.59445051 0 209.75965753 0 2324.78960822 0 -167.99041938 0 607.58275210 0 28075
0.16250000 0.16249700 8974.73931570 0 274.44639358 0 2463.44833193 0 99.51373726 0 411.62253299 0 28590
0.16350000 0.16349900 8842.11500902 0 178.53016538 0 2334.92078543 0 182.87051670 0 344.45448895 0 29163
0.16450000 0.16449100 8616.77105432 0 152.77261615 0 2285.73751859 0 45.29854168 0 216.76733190 0 28996
0.16550000 0.16550500 8570.45551960 0 59.77649217 0 2294.76146331 0 -15.03477770 0 173.77792356 0 30777
0.16650000 0.16650700 8420.48087993 0 81.58587181 0 2142.76058820 0 100.35866637 0 272.00937489 0 29211
0.16750000 0.16749900 8501.74067177 0 71.51348865 0 1993.79353009 0 5.45128197 0 -44.48007543 0 30922
0.16850000 0.16850800 8450.13256580 0 22.62164539 0 2152.37136615 0 -268.55370231 0 78.64616957 0 30867
0.16950000 0.16949900 8400.84964803 0 140.36054003 0 2219.89040289 0 -91.12080433 0 -186.37380028 0 30852
0.17050000 0.17049200 8213.69414162 0 111.21596664 0 2209.18346479 0 -57.53224265 0 -2.62435136 0 31257
0.17150000 0.17149500 8191.83737243 0 125.77496654 0 2174.84818553 0 -14.74789377 0 1.51367538 0 32608
0.17250000 0.17250900 8202.11248986 0 -42.49392181 0 2040.20871573 0 333.48513675 0 -143.00904013 0 32361
0.17350000 0.17350400 8165.07556334 0 126.73382987 0 2159.59052193 0 261.75861657 0 -142.94149894 0 32508
0.17450000 0.17449800 8081.35771539 0 109.90267819 0 1927.94641440 0 38.88379030 0 -105.16250522 0 32791
0.17550000 0.17549800 7938.63544847 0 130.41537788 0 1954.05495632 0 267.13090857 0 -7.59044405 0 33633
0.17650000 0.17650100 7755.85351037 0 227.04244934 0 1909.45563195 0 -30.95578428 0 119.12603549 0 33984
0.17750000 0.17750300 7735.30327550 0 175.93924137 0 2060.67037200 0 158.70406056 0 226.95387074 0 34069
0.17850000 0.17849800 7553.51784663 0 65.19672734 0 1871.55506410 0 46.81788609 0 357.57851555 0 34536
