### header ###
fiducial parameters:
Omega_m = 0.31
Omega_nu = 0
Omega_de = 0.69
Omega_k = 0
H_0 = 100
w_de = -1
zeff = 0
beta = 0
fgrowth = 0
b_1 = 2
gamma = 0.55
Lx = 3500 Ly = 3500 Lz = 3500
nx = 700 ny = 700 nz = 700
xoffset = -685.467585 yoffset = -31.7331281 zoffset = 572.489161
bins = 400 dk = 0.001
kx_ny = 0.628318531 ky_ny = 0.628318531 kz_ny = 0.628318531
############################
A(data) = 8.10150801 (not used)
A(ran) = 8.09898523 (used)
Ngal = 481731
weighted Ngal = 0
Nran = 23820508
weighted Nran = 0
SN(data) = 3492.30041
SN(ran) = 70.5450986
SN(data+ran) = 3562.84551
############################
13 columns: k_central k_mean P_0(k) sigma^{lin}_{P_0(k)} P^img_1(k) sigma^{lin}_{P_1(k)} P_2(k) sigma^{lin}_{P_2(k)} P^img_3(k) sigma^{lin}_{P_3(k)} P_4(k) sigma^{lin}_{P_4(k)} N_modes
### header ###
0.00050000 0 0 0 0 0 0 0 0 0 0 0 0
0.00150000 0.00179520 78963.05950691 0 -79786.28685718 0 -4605.19026625 0 4960.21328923 0 -76503.12110195 0 3
0.00250000 0.00253879 123087.71331145 0 -52106.69276629 0 -18572.38548105 0 -11081.29340175 0 114277.46445325 0 6
0.00350000 0.00331552 136748.74767269 0 -17309.58683549 0 4681.93254956 0 -117134.12425646 0 18410.72953870 0 7
0.00450000 0.00420575 116020.24837970 0 26966.20420282 0 -5217.41232244 0 -63248.99467779 0 62963.66086722 0 24
0.00550000 0.00557378 71635.72711168 0 38627.79814832 0 24919.81712984 0 -11838.19752635 0 18490.33955415 0 45
0.00650000 0.00659388 48608.28101659 0 9571.63727435 0 -4994.40462827 0 -84.57229926 0 6959.50976476 0 40
0.00750000 0.00754703 48286.74070386 0 -14568.30065689 0 33415.39051669 0 1204.51392772 0 -28280.04626580 0 57
0.00850000 0.00846663 55052.81695404 0 -15982.23653623 0 15611.75654779 0 5359.08271850 0 1612.71732681 0 75
0.00950000 0.00948925 80076.04959768 0 -4357.28091356 0 34215.80887783 0 -6639.51957750 0 -13998.62954497 0 112
0.01050000 0.01054430 66635.13305383 0 -873.52892192 0 3021.63744301 0 -7628.76536610 0 9795.03249989 0 105
0.01150000 0.01145670 83332.30960360 0 4961.25408776 0 19373.80035143 0 -23445.75852673 0 378.79308991 0 144
0.01250000 0.01249090 70643.09319169 0 4887.56776610 0 9476.45957021 0 -12788.64588878 0 -3929.97775416 0 169
0.01350000 0.01339930 77322.14096879 0 3426.75166347 0 38806.83764063 0 12988.94424475 0 -5194.08293405 0 180
0.01450000 0.01448870 68320.45161448 0 2728.55300506 0 16473.62631168 0 14403.32301709 0 -4215.07904591 0 267
0.01550000 0.01550050 76826.43298666 0 854.08591954 0 23889.64802871 0 4451.81642286 0 -11169.53983055 0 238
0.01650000 0.01653350 76300.38683453 0 -1669.23047268 0 29773.14926760 0 7967.00274466 0 -5340.82445487 0 315
0.01750000 0.01747870 76336.59333668 0 3748.71272455 0 38317.99449989 0 -747.00878791 0 6464.39968817 0 297
0.01850000 0.01844180 74322.42672892 0 -1562.01715147 0 30142.96491654 0 15064.89442500 0 16027.74379123 0 388
0.01950000 0.01947590 84571.96709030 0 -2798.10934957 0 40760.32790839 0 3397.58715990 0 7964.03536161 0 399
0.02050000 0.02045430 80211.90702321 0 3676.48794976 0 37220.83783361 0 8638.50602793 0 115.34815826 0 462
0.02150000 0.02154770 74389.74646382 0 9884.88441580 0 28854.36775414 0 6647.73524252 0 8106.63583295 0 571
0.02250000 0.02255340 64716.96350225 0 5946.28132061 0 18362.01130950 0 7685.99821309 0 3880.84984894 0 510
0.02350000 0.02348930 66995.86939642 0 -2853.94708363 0 17890.44099547 0 10322.37411403 0 6998.07467210 0 555
0.02450000 0.02439640 65380.74937513 0 -3172.52001331 0 18245.97334540 0 13491.51706827 0 -1670.81381513 0 592
0.02550000 0.02547300 66765.89720994 0 -352.20733078 0 11056.32530928 0 7149.64372655 0 1938.59799087 0 837
0.02650000 0.02652900 65883.54364514 0 3066.25891203 0 11840.74416106 0 -353.87814460 0 7851.86163887 0 723
0.02750000 0.02749970 65017.46639783 0 1111.45103762 0 9839.31072684 0 5350.00341215 0 17550.52062354 0 826
0.02850000 0.02848090 63806.04333942 0 221.14532914 0 14323.60227839 0 -2863.01531766 0 13751.16308527 0 831
0.02950000 0.02946900 64119.39013179 0 1711.69283836 0 15868.63448359 0 1175.81446179 0 8301.95164275 0 996
0.03050000 0.03053250 61325.62113355 0 5563.61070255 0 17803.19107590 0 -3856.53502363 0 13281.03217347 0 1041
0.03150000 0.03150510 54066.60498244 0 6497.59451798 0 21586.05085019 0 -3881.14880171 0 12198.04808296 0 1036
0.03250000 0.03246190 53668.22273547 0 3796.01369618 0 23746.70431530 0 -2108.52495986 0 10364.54859926 0 1059
0.03350000 0.03345080 50045.13660831 0 1154.28986234 0 23265.39035544 0 4481.74491684 0 15535.46822979 0 1302
0.03450000 0.03451200 49070.99347077 0 464.56263965 0 19547.08223484 0 7301.35672121 0 11333.41023787 0 1339
0.03550000 0.03553350 49621.50946075 0 -2372.63312376 0 19164.09051936 0 9506.37699187 0 12179.55730051 0 1365
0.03650000 0.03647120 51902.18692689 0 -1583.97357158 0 17575.98697062 0 6034.51667709 0 5944.33259144 0 1308
0.03750000 0.03744890 50524.34682646 0 101.87026015 0 10541.61721776 0 5122.93217477 0 9129.24253622 0 1579
0.03850000 0.03847530 50755.53696867 0 1234.54207263 0 9185.56745257 0 329.07502977 0 5588.22448062 0 1662
0.03950000 0.03950240 50741.47511616 0 716.98396470 0 11008.43750444 0 924.86243424 0 3345.99012625 0 1683
0.04050000 0.04050350 49137.09524993 0 624.99951904 0 8962.78120490 0 -1551.07769454 0 1377.70723253 0 1822
0.04150000 0.04152450 45206.30921607 0 2999.14955130 0 6701.03741419 0 1288.42000520 0 -3702.92866142 0 1887
0.04250000 0.04250150 44594.34182334 0 2314.19339337 0 4916.17865343 0 1225.56241720 0 -466.69959834 0 1920
0.04350000 0.04349210 43842.86313790 0 -159.70721318 0 7008.36086186 0 -616.50261697 0 -7095.17896076 0 2005
0.04450000 0.04448520 43319.58506697 0 709.68287372 0 10992.57086298 0 -3403.96481900 0 -9157.00085454 0 2151
0.04550000 0.04548030 41951.48861238 0 2373.61856067 0 12700.95307622 0 -6560.81749269 0 -8041.89594973 0 2274
0.04650000 0.04648670 41329.99902031 0 3188.19842526 0 13602.57248620 0 -4313.81096632 0 -2216.83444124 0 2311
0.04750000 0.04749250 41386.80004663 0 -307.27805113 0 16858.94321537 0 -275.26131669 0 514.36152775 0 2568
0.04850000 0.04851840 41208.42489380 0 -185.39832846 0 15581.08620805 0 5245.29243634 0 545.79475068 0 2493
0.04950000 0.04949480 40699.43012188 0 -245.55648367 0 14893.49483681 0 10093.04412239 0 1493.20265272 0 2644
0.05050000 0.05050630 39709.67500634 0 77.89745897 0 11516.54649037 0 6308.40170380 0 2602.66067187 0 2829
0.05150000 0.05149060 39404.52173434 0 2165.01596109 0 13436.37689068 0 1459.90817199 0 693.65236184 0 2784
0.05250000 0.05249300 36769.75132050 0 2645.70987077 0 9554.28694136 0 219.22760248 0 5509.96528880 0 3055
0.05350000 0.05348950 34630.02454929 0 1695.15078509 0 8954.16693619 0 -1121.89223992 0 8852.94374270 0 3009
0.05450000 0.05448610 34142.95298052 0 -565.08163328 0 7490.71562026 0 2801.47533631 0 5924.12559864 0 3336
0.05550000 0.05550870 35026.63522430 0 -1431.57409278 0 9371.75966672 0 2423.36651608 0 7682.65437099 0 3349
0.05650000 0.05647670 35125.51108493 0 479.46266716 0 4778.08461829 0 3227.47196139 0 3115.01035820 0 3324
0.05750000 0.05747970 34049.50255905 0 807.05289817 0 5697.24259078 0 -1453.69659776 0 1330.46162253 0 3639
0.05850000 0.05849280 34069.32202048 0 688.52698269 0 6522.19722372 0 -2367.35162483 0 758.34463406 0 3846
0.05950000 0.05951020 33712.46099157 0 589.12186493 0 8771.16355159 0 -3545.48020250 0 -1045.14774214 0 3787
0.06050000 0.06049470 33543.38659159 0 417.23620168 0 9651.97806324 0 -3863.51058827 0 1340.84746321 0 3930
0.06150000 0.06148310 33933.13242521 0 308.42957292 0 13219.35932423 0 -1201.09257935 0 1322.09094497 0 4083
0.06250000 0.06249100 33326.92264139 0 432.35324675 0 11822.25337861 0 912.01078682 0 247.80638007 0 4303
0.06350000 0.06350600 33197.81933400 0 918.99299486 0 11739.65383547 0 2095.35996566 0 159.82015090 0 4470
0.06450000 0.06451750 32856.23811335 0 229.43517873 0 10555.45762379 0 2821.23943612 0 -1076.02956329 0 4479
0.06550000 0.06550280 31963.14439348 0 353.06654319 0 10690.67285447 0 2324.01454548 0 312.43332557 0 4636
0.06650000 0.06648880 30758.25400671 0 1165.69435691 0 9363.15647034 0 1158.58592437 0 -3079.80036528 0 4653
0.06750000 0.06749660 29513.94614359 0 1620.97728113 0 7685.61068172 0 425.96672980 0 -1159.29455316 0 5220
0.06850000 0.06852730 28377.81489395 0 763.81104082 0 7995.19288365 0 -231.58985314 0 -2289.23637323 0 5029
0.06950000 0.06949320 28893.01016776 0 -222.73088605 0 8423.78043273 0 -766.13844350 0 -103.18543090 0 5040
0.07050000 0.07048030 29067.06711391 0 -718.14434434 0 7661.93805126 0 -676.97411897 0 -2031.68302562 0 5475
0.07150000 0.07148790 29642.27438824 0 -398.77088558 0 8228.53105687 0 566.69597824 0 93.99728359 0 5509
0.07250000 0.07249820 30089.04269467 0 68.10719864 0 9397.00456731 0 -238.43033541 0 -1174.82902488 0 5916
0.07350000 0.07351270 30060.91898963 0 1147.32537003 0 9846.62953355 0 -1046.33912429 0 63.18510736 0 5721
0.07450000 0.07449140 29114.01377114 0 718.03805002 0 10152.84574873 0 34.26020890 0 -1423.23663219 0 6028
0.07550000 0.07549160 28181.50257491 0 652.83755810 0 10288.01669012 0 376.10805114 0 1283.66997785 0 6183
0.07650000 0.07648840 28419.55755852 0 345.37238467 0 10810.71900016 0 1231.05429031 0 497.89587351 0 6330
0.07750000 0.07749960 28083.29105377 0 232.25419263 0 10389.21773896 0 1200.40609521 0 322.51578455 0 6583
0.07850000 0.07848650 27455.37951331 0 772.39209256 0 9363.78759286 0 860.19673560 0 288.16389680 0 6549
0.07950000 0.07947320 26212.17888267 0 1708.29363464 0 9798.97424753 0 -260.75657118 0 852.49704092 0 6828
0.08050000 0.08048110 25624.12771155 0 1382.35760896 0 8456.55451419 0 690.42035023 0 553.03937281 0 7147
0.08150000 0.08149960 23891.41960068 0 78.48451363 0 8998.98770706 0 1292.17352331 0 79.71143794 0 7386
0.08250000 0.08250610 23969.81166040 0 663.52456601 0 8143.32951740 0 31.40509922 0 -783.99810343 0 7227
0.08350000 0.08350160 23330.71707187 0 291.24089587 0 8419.10791165 0 1085.28270514 0 33.22350713 0 7798
0.08450000 0.08449610 23424.05677009 0 346.59476933 0 7773.17062638 0 37.02829011 0 76.86441106 0 7371
0.08550000 0.08548940 23029.66056005 0 -196.01225903 0 6920.75662789 0 756.82551110 0 397.24622645 0 8256
0.08650000 0.08650700 23368.80586924 0 -70.95167888 0 7929.44541887 0 1135.43369318 0 392.38547585 0 8037
0.08750000 0.08749060 23412.09865928 0 474.99276963 0 6511.15811588 0 1119.25702662 0 -296.31091340 0 8155
0.08850000 0.08849210 22766.13922936 0 1159.77066313 0 7210.66330862 0 65.38949651 0 -3.05785502 0 8718
0.08950000 0.08949900 21745.71377408 0 792.13072601 0 6276.92308434 0 309.02194229 0 1874.07955415 0 8571
0.09050000 0.09049190 21203.94492070 0 210.80156329 0 6943.76491887 0 980.85185915 0 1227.63294194 0 8932
0.09150000 0.09150830 21207.82023439 0 -68.20596378 0 6825.53463445 0 810.66801222 0 2361.23970153 0 9285
0.09250000 0.09250820 20889.60161910 0 598.00962006 0 6483.64338870 0 1212.54136321 0 934.67915743 0 9204
0.09350000 0.09350330 20142.77331008 0 914.18096249 0 5801.69890312 0 -332.15313607 0 1672.60753175 0 9349
0.09450000 0.09448040 19347.22677186 0 922.85834345 0 5688.68368370 0 -59.04660452 0 2698.81274060 0 9564
0.09550000 0.09549270 18863.47690053 0 342.77924620 0 5800.40344112 0 -154.30724037 0 2015.43992511 0 10155
0.09650000 0.09649430 18368.76542764 0 336.65514334 0 5806.40464117 0 451.00125621 0 1586.44270002 0 9913
0.09750000 0.09749140 18166.69549970 0 -79.18694191 0 5369.95574147 0 329.35737406 0 481.11133632 0 10476
0.09850000 0.09850240 18006.58968282 0 286.86843480 0 5252.62231537 0 579.14459303 0 808.10919796 0 10575
0.09950000 0.09950330 17745.06137060 0 395.78578680 0 5538.35472964 0 -532.27544208 0 536.47628211 0 10882
0.10050000 0.10051200 17181.03714434 0 575.31578311 0 5953.14616199 0 -478.09744951 0 1053.53945712 0 10875
0.10150000 0.10150300 17386.20732323 0 457.62361368 0 5931.73228579 0 -331.95051253 0 1198.01447305 0 11118
0.10250000 0.10250800 16988.60013899 0 3.02655356 0 6392.68424032 0 -573.56081963 0 813.84576945 0 11575
0.10350000 0.10349800 17135.08699634 0 103.43477965 0 6363.70796627 0 271.49561902 0 1017.92975327 0 11364
0.10450000 0.10450100 17363.50905735 0 -92.86093090 0 6881.44987479 0 -145.84023358 0 227.24950181 0 12093
0.10550000 0.10551000 16991.47894345 0 140.00844010 0 6390.09331631 0 519.99291216 0 -68.36883767 0 12067
0.10650000 0.10649700 16874.22302362 0 571.76931747 0 6369.31056263 0 238.53995143 0 -947.38907909 0 12054
0.10750000 0.10749900 16559.43682902 0 327.69098917 0 5911.70245020 0 631.39600109 0 -370.08027751 0 12807
0.10850000 0.10850100 16122.96578467 0 308.84699956 0 5648.00396232 0 -110.14881597 0 -821.20775822 0 12736
0.10950000 0.10950300 15920.56368699 0 494.66386190 0 5611.22169927 0 425.94569238 0 -315.12279327 0 12933
0.11050000 0.11050200 15538.01486450 0 160.70040072 0 5757.65319500 0 33.91729900 0 -510.02228366 0 13428
0.11150000 0.11150900 15187.02216775 0 231.90984333 0 5662.59728643 0 3.27362141 0 -239.26297424 0 13453
0.11250000 0.11250000 15146.82962866 0 140.89976225 0 6177.17251005 0 519.09383938 0 -10.09204761 0 13668
0.11350000 0.11349100 15120.58821884 0 243.66422335 0 6004.95356982 0 435.34941785 0 -343.04166030 0 13791
0.11450000 0.11448600 14555.12459035 0 320.03779826 0 5602.93960030 0 315.01760618 0 489.50083684 0 14205
0.11550000 0.11549300 14507.18142389 0 182.62914002 0 5623.99916211 0 116.21290683 0 622.86145312 0 14776
0.11650000 0.11649800 14682.12415602 0 -137.07648849 0 5696.93256569 0 -202.96235732 0 222.05104531 0 14553
0.11750000 0.11747300 14520.24676717 0 282.43507594 0 6172.24532550 0 -143.72763401 0 735.13039785 0 14568
0.11850000 0.11849100 14373.20629358 0 144.28125025 0 5704.72748236 0 61.90603240 0 68.41711301 0 16015
0.11950000 0.11950300 14368.55591716 0 166.69606461 0 5562.69169959 0 344.95052910 0 917.47165743 0 15270
0.12050000 0.12050700 14171.68998188 0 156.59699714 0 5297.96348550 0 454.88764222 0 586.37925007 0 15999
0.12150000 0.12150000 13970.39511668 0 237.89997105 0 5233.23467461 0 1100.64444860 0 842.75560955 0 15670
0.12250000 0.12250700 13798.44191225 0 387.27670518 0 4900.95420680 0 667.26369010 0 1220.01518247 0 16887
0.12350000 0.12352200 13324.10351701 0 272.06252205 0 4261.81532897 0 835.25521672 0 956.45842034 0 16407
0.12450000 0.12449800 13204.96530197 0 269.15935848 0 4482.12137589 0 -104.77419878 0 620.19523730 0 16306
0.12550000 0.12549900 12969.34622982 0 23.89861661 0 3968.55373382 0 169.97015106 0 849.90943861 0 17523
0.12650000 0.12650100 13124.35877729 0 -178.54566663 0 3815.09131184 0 371.80534571 0 748.35407538 0 17154
0.12750000 0.12750600 13196.99322810 0 -268.30346777 0 3660.72095922 0 37.49487787 0 56.71698737 0 18007
0.12850000 0.12850300 13172.96628324 0 228.90702884 0 3822.41011854 0 -21.60996707 0 -99.84369254 0 17496
0.12950000 0.12949900 13148.60716864 0 411.47970000 0 3714.36637296 0 -171.52802716 0 -123.36452143 0 18405
0.13050000 0.13049000 12671.94358520 0 262.59346986 0 3878.71289025 0 441.23989465 0 1091.14439390 0 18100
0.13150000 0.13148800 12745.13165225 0 124.14733480 0 3686.29802955 0 622.48388684 0 749.83333797 0 19059
0.13250000 0.13249300 12655.66726771 0 -79.88615923 0 3735.63630894 0 692.30264545 0 924.60887800 0 18957
0.13350000 0.13349100 12803.81497379 0 -8.83718782 0 3453.86778695 0 324.32943136 0 897.34106367 0 19468
0.13450000 0.13450700 12623.44680249 0 351.01262694 0 3349.98723551 0 -123.25490542 0 831.49948414 0 19953
0.13550000 0.13551000 12104.59766149 0 405.13525788 0 3300.16177382 0 -468.67268662 0 1022.69638911 0 19956
0.13650000 0.13649900 12006.60758684 0 375.54889873 0 2975.91981383 0 -159.34071923 0 415.00180653 0 19723
0.13750000 0.13749600 11695.80742918 0 109.94442086 0 3378.27702542 0 -32.32797750 0 551.26447914 0 20946
0.13850000 0.13851100 11490.74797354 0 -45.62196429 0 2942.04957221 0 454.88321329 0 -357.78446079 0 20955
0.13950000 0.13949800 11643.21388630 0 33.38892766 0 3074.74031284 0 344.09353116 0 -83.44823684 0 20506
0.14050000 0.14048300 11436.05068894 0 257.19349705 0 3191.85229245 0 -40.00242727 0 -245.45351104 0 21447
0.14150000 0.14148400 11336.17831907 0 329.93645664 0 3119.11819071 0 -36.51353772 0 707.41858329 0 21771
0.14250000 0.14249400 11179.83709264 0 250.63203736 0 3432.33211518 0 -178.98855962 0 847.59864442 0 22470
0.14350000 0.14350900 10994.81854492 0 126.99402951 0 3506.83778889 0 11.70632614 0 882.98579455 0 22519
0.14450000 0.14449900 11016.39850599 0 121.25081462 0 3960.90275737 0 -194.41895149 0 432.15173044 0 22218
0.14550000 0.14550500 10808.53775217 0 200.67702948 0 3853.85552103 0 -59.29119217 0 1029.07847713 0 23559
0.14650000 0.14650700 10636.46275216 0 192.74370875 0 3797.72990652 0 196.59577055 0 855.66594029 0 23044
0.14750000 0.14750500 10630.79372185 0 -93.40081745 0 3675.94540584 0 490.53056305 0 644.47241670 0 23649
0.14850000 0.14849900 10586.08367424 0 104.09856552 0 3430.35016904 0 371.36466718 0 275.87915241 0 23640
0.14950000 0.14949500 10447.09278079 0 191.73612719 0 3509.04118153 0 -158.35638956 0 529.44867755 0 24457
0.15050000 0.15050000 10335.06299827 0 155.85958031 0 3471.28455389 0 -215.69442363 0 536.47296042 0 24591
0.15150000 0.15149900 10236.61895831 0 169.11647482 0 3584.84231723 0 -174.25846246 0 641.09425039 0 25020
0.15250000 0.15250500 10132.27336922 0 167.01826926 0 3633.12872577 0 125.13941510 0 234.54948556 0 25297
0.15350000 0.15350100 10012.74762280 0 159.90872950 0 3658.65043447 0 -106.25855465 0 258.40702385 0 25452
0.15450000 0.15450400 9939.69242365 0 213.51317564 0 3657.15567062 0 229.02771718 0 53.44456177 0 26061
0.15550000 0.15549900 9709.14447627 0 198.94310341 0 3414.77140802 0 149.55167686 0 457.36230682 0 26128
0.15650000 0.15649500 9627.06533239 0 103.62079471 0 3184.21238832 0 512.82911800 0 178.26664405 0 26331
0.15750000 0.15749700 9599.10771223 0 20.52100393 0 3227.36123814 0 485.56019643 0 883.64570510 0 27345
0.15850000 0.15849900 9472.76141372 0 117.35335629 0 2973.97108466 0 354.79493309 0 564.38629128 0 26980
0.15950000 0.15949700 9306.43295029 0 146.96075285 0 2792.04171557 0 266.32595056 0 860.26206232 0 27777
0.16050000 0.16050000 9080.21428193 0 280.79747910 0 2716.56167728 0 215.53941108 0 945.08271383 0 28224
0.16150000 0.16150500 8925.31245771 0 206.06592997 0 2681.61742015 0 280.00027171 0 1139.58581498 0 28075
0.16250000 0.16249700 8762.91466960 0 63.76806527 0 2679.22579799 0 46.38041854 0 1058.54304071 0 28590
0.16350000 0.16349900 8762.73751240 0 24.56052019 0 2788.62036720 0 35.50994220 0 949.48396294 0 29163
0.16450000 0.16449100 8872.88499970 0 -102.36176065 0 2577.84759195 0 3.33264797 0 1156.51539963 0 28996
0.16550000 0.16550500 8914.74945984 0 -58.28062109 0 2549.83461016 0 -71.96036768 0 979.27294563 0 30777
0.16650000 0.16650700 9073.24978961 0 -57.21424548 0 2621.06287572 0 -159.14031015 0 694.64776384 0 29211
0.16750000 0.16749900 9001.74471594 0 144.00887106 0 2614.76272290 0 -17.69778254 0 393.88688310 0 30922
0.16850000 0.16850800 8895.40610838 0 310.12696031 0 2713.41713703 0 -212.81340471 0 243.10617818 0 30867
0.16950000 0.16949900 8513.68771025 0 286.16644940 0 2360.11032439 0 24.12548855 0 24.02284810 0 30852
0.17050000 0.17049200 8503.97728139 0 159.68949746 0 2599.69328882 0 372.57265782 0 131.68758800 0 31257
0.17150000 0.17149500 8177.04474647 0 -71.56851810 0 2156.93316397 0 459.46715577 0 -153.20332959 0 32608
0.17250000 0.17250900 8291.86475484 0 -8.17283726 0 1891.99457571 0 682.93767312 0 -473.46146711 0 32361
0.17350000 0.17350400 8260.22005051 0 -1.81887294 0 1548.60856611 0 273.79201919 0 -289.75609711 0 32508
0.17450000 0.17449800 8228.33175503 0 128.79438952 0 1460.06318454 0 37.35913117 0 -255.20933644 0 32791
0.17550000 0.17549800 8101.22146611 0 121.48001175 0 1411.48889556 0 -201.25168314 0 -108.56026953 0 33633
0.17650000 0.17650100 8122.34746186 0 126.74268773 0 1639.31305102 0 -274.72430894 0 -319.12986762 0 33984
0.17750000 0.17750300 7917.57588667 0 255.92128693 0 1904.19627766 0 -448.49780357 0 -362.99177516 0 34069
0.17850000 0.17849800 7754.94557973 0 243.42395391 0 2041.19415264 0 -389.10253154 0 -319.40113958 0 34536
