### header ###
fiducial parameters:
Omega_m = 0.31
Omega_nu = 0
Omega_de = 0.69
Omega_k = 0
H_0 = 100
w_de = -1
zeff = 0
beta = 0
fgrowth = 0
b_1 = 2
gamma = 0.55
Lx = 3500 Ly = 3500 Lz = 3500
nx = 700 ny = 700 nz = 700
xoffset = -685.467585 yoffset = -31.7331281 zoffset = 572.489161
bins = 400 dk = 0.001
kx_ny = 0.628318531 ky_ny = 0.628318531 kz_ny = 0.628318531
############################
A(data) = 8.0263016 (not used)
A(ran) = 8.0277378 (used)
Ngal = 477312
weighted Ngal = 0
Nran = 23820508
weighted Nran = 0
SN(data) = 3479.80212
SN(ran) = 69.9245077
SN(data+ran) = 3549.72662
############################
13 columns: k_central k_mean P_0(k) sigma^{lin}_{P_0(k)} P^img_1(k) sigma^{lin}_{P_1(k)} P_2(k) sigma^{lin}_{P_2(k)} P^img_3(k) sigma^{lin}_{P_3(k)} P_4(k) sigma^{lin}_{P_4(k)} N_modes
### header ###
0.00050000 0 0 0 0 0 0 0 0 0 0 0 0
0.00150000 0.00179520 21001.98571601 0 -36748.82462659 0 -21613.28876925 0 -46211.45486310 0 25133.73444533 0 3
0.00250000 0.00253879 32019.50252680 0 -28976.60622014 0 -32022.15988476 0 -16804.57810051 0 -8845.08239208 0 6
0.00350000 0.00331552 52000.06627829 0 -35034.05368193 0 -39838.22469749 0 1660.05151541 0 -18301.44569274 0 7
0.00450000 0.00420575 65316.30844468 0 -33153.08714174 0 -38699.76825964 0 -27511.40547689 0 7325.01827935 0 24
0.00550000 0.00557378 74636.77003052 0 3118.81923794 0 -26822.70687317 0 -25668.30628758 0 6827.02939831 0 45
0.00650000 0.00659388 78905.81558760 0 8296.44869731 0 -44375.88485467 0 -24755.94672252 0 41667.70492727 0 40
0.00750000 0.00754703 54459.45106701 0 3581.08879912 0 -32653.28239942 0 -24210.41327871 0 23308.57242223 0 57
0.00850000 0.00846663 66005.00704840 0 8266.23232288 0 -27180.12151832 0 -12034.73129188 0 25259.84822502 0 75
0.00950000 0.00948925 60716.31109878 0 -1818.30825404 0 -7774.69860721 0 1111.74999039 0 5412.58419202 0 112
0.01050000 0.01054430 61595.56441263 0 2354.76239151 0 -1978.30334767 0 9433.03391227 0 42229.18251883 0 105
0.01150000 0.01145670 57303.59914317 0 -4317.16588074 0 -9270.10465256 0 19431.37644048 0 28673.77813635 0 144
0.01250000 0.01249090 75015.33281607 0 -16426.56893120 0 -1434.20930608 0 34965.40526805 0 25418.51463967 0 169
0.01350000 0.01339930 80361.27268501 0 -13285.68254989 0 535.79865583 0 13342.92646921 0 8605.10082396 0 180
0.01450000 0.01448870 88161.17190351 0 153.94960428 0 2510.38391683 0 -12256.62068125 0 15670.55059258 0 267
0.01550000 0.01550050 87496.61096789 0 6380.40503210 0 19282.78584142 0 -24111.20524833 0 33210.66323079 0 238
0.01650000 0.01653350 78064.98324087 0 10611.70503387 0 19286.43970861 0 -18634.83339303 0 14173.68300035 0 315
0.01750000 0.01747870 82624.78804769 0 5661.46790930 0 49006.10964733 0 -8783.03308379 0 22050.09198334 0 297
0.01850000 0.01844180 77491.65826176 0 5982.27744859 0 44111.14556825 0 -5927.56909166 0 13916.36217156 0 388
0.01950000 0.01947590 66755.59994786 0 11093.69440555 0 45016.30812218 0 8231.81953735 0 9799.18462170 0 399
0.02050000 0.02045430 72072.53032577 0 -1902.17004222 0 46886.53450730 0 8933.61670133 0 13408.36390888 0 462
0.02150000 0.02154770 68921.34668239 0 -5804.42269503 0 39680.22262233 0 20316.27663999 0 -857.63792134 0 571
0.02250000 0.02255340 73466.86819019 0 -4020.64902210 0 33087.53897881 0 7970.30229745 0 -7521.96172090 0 510
0.02350000 0.02348930 80649.59602329 0 -2591.76550425 0 37296.12964238 0 -1645.34746805 0 -18750.53918738 0 555
0.02450000 0.02439640 76994.28943091 0 1396.37517218 0 29752.44402018 0 -9289.82446307 0 -13712.96356465 0 592
0.02550000 0.02547300 75817.85491893 0 5432.74689552 0 31146.22826836 0 -5826.81093581 0 -16919.84100187 0 837
0.02650000 0.02652900 69493.67515226 0 4976.87713808 0 24286.81231996 0 -9415.11889071 0 -11930.76216184 0 723
0.02750000 0.02749970 70325.98180888 0 4317.67520768 0 30345.36701422 0 4229.31805563 0 -23664.21549540 0 826
0.02850000 0.02848090 64285.03211108 0 6124.36859299 0 22835.11981298 0 50.12806832 0 -14828.61101337 0 831
0.02950000 0.02946900 59534.00825464 0 1466.78408570 0 30020.50500404 0 7149.95375164 0 -5783.99425574 0 996
0.03050000 0.03053250 60265.44603216 0 602.82940305 0 27184.55044824 0 6724.45538119 0 -2592.44091606 0 1041
0.03150000 0.03150510 58207.10084838 0 2108.28136872 0 33069.71253585 0 9510.96093434 0 7601.92605074 0 1036
0.03250000 0.03246190 59893.74808800 0 2502.47827691 0 28276.17095211 0 5441.02899448 0 3926.36817626 0 1059
0.03350000 0.03345080 55457.28897966 0 1111.35138670 0 30357.65729477 0 4176.38127067 0 11227.55881260 0 1302
0.03450000 0.03451200 54594.42270655 0 3427.84782363 0 23063.09898100 0 3553.13117895 0 11582.20537654 0 1339
0.03550000 0.03553350 54444.39270525 0 1038.66600319 0 22365.43179418 0 3532.54772712 0 6160.30935935 0 1365
0.03650000 0.03647120 51904.84428485 0 310.21664614 0 16074.13683222 0 3006.82267240 0 145.53685188 0 1308
0.03750000 0.03744890 52580.47754528 0 2032.15913559 0 14121.20018071 0 -814.49682215 0 -7068.43929633 0 1579
0.03850000 0.03847530 49208.73319151 0 -70.16244357 0 14697.95758051 0 1117.40794837 0 -6943.86456979 0 1662
0.03950000 0.03950240 48822.08760884 0 1534.55778592 0 16461.11458463 0 -3411.49399987 0 -11237.74535144 0 1683
0.04050000 0.04050350 47891.56943108 0 2849.46279208 0 20432.64677383 0 520.28522153 0 -7405.55837008 0 1822
0.04150000 0.04152450 45387.00955711 0 2562.75601322 0 21413.10113652 0 -1985.51143113 0 -705.79870217 0 1887
0.04250000 0.04250150 43952.36843035 0 3199.93508956 0 25152.66812077 0 984.07722737 0 852.38188875 0 1920
0.04350000 0.04349210 43605.36177054 0 706.50843819 0 27273.01832355 0 4606.64074080 0 4943.60480200 0 2005
0.04450000 0.04448520 42420.95518469 0 -687.17062289 0 24552.10522261 0 4971.68421774 0 4833.88913538 0 2151
0.04550000 0.04548030 43419.67888333 0 214.71563012 0 21500.90467234 0 3008.87105249 0 1298.44045916 0 2274
0.04650000 0.04648670 41907.86365259 0 1147.05963424 0 21129.31745142 0 1791.20320289 0 4010.91644858 0 2311
0.04750000 0.04749250 41161.58895981 0 1769.13605952 0 20343.07166605 0 2023.96561522 0 867.09368673 0 2568
0.04850000 0.04851840 39191.26875834 0 2185.24509853 0 17156.34586000 0 -306.28043467 0 1116.59966866 0 2493
0.04950000 0.04949480 36957.64867267 0 1696.11407734 0 19334.38287507 0 1032.76334683 0 -1508.95857093 0 2644
0.05050000 0.05050630 36207.60938946 0 1686.08255106 0 18979.29341814 0 1638.87015803 0 -3156.38763605 0 2829
0.05150000 0.05149060 34612.19810634 0 1434.48611420 0 16352.38435491 0 1394.02783932 0 -3707.03649393 0 2784
0.05250000 0.05249300 34642.75772284 0 -77.34616791 0 16934.67791713 0 1087.16389313 0 -1146.12955895 0 3055
0.05350000 0.05348950 35477.50029091 0 -792.77070639 0 15670.88276233 0 795.56425394 0 -3868.36026654 0 3009
0.05450000 0.05448610 35997.01377140 0 -1820.23483856 0 14847.32324232 0 775.81344093 0 -2717.43639094 0 3336
0.05550000 0.05550870 36597.35522307 0 -1038.33715515 0 13210.05857138 0 4285.31080224 0 -4998.62318403 0 3349
0.05650000 0.05647670 37620.77020606 0 215.03008414 0 12565.64926694 0 2321.40147683 0 -4285.58761036 0 3324
0.05750000 0.05747970 36359.63240922 0 -95.44155764 0 10854.84221456 0 4594.32831560 0 -4150.47203059 0 3639
0.05850000 0.05849280 35806.68050777 0 147.16337640 0 8646.53346343 0 4444.91836450 0 -6188.99775296 0 3846
0.05950000 0.05951020 36127.44575777 0 1419.27273990 0 5178.62596860 0 1137.31598840 0 -5126.39781243 0 3787
0.06050000 0.06049470 33754.97871888 0 1621.96271803 0 5655.97603619 0 191.51800239 0 -4584.09748747 0 3930
0.06150000 0.06148310 32285.45976895 0 1991.08081051 0 5134.13736748 0 -547.89738516 0 -1153.44836566 0 4083
0.06250000 0.06249100 31891.72789840 0 160.03052507 0 4032.95037497 0 886.09822505 0 -425.40757739 0 4303
0.06350000 0.06350600 30783.16673755 0 -418.53055645 0 3623.77261130 0 3005.72651224 0 -1982.92050712 0 4470
0.06450000 0.06451750 32040.42922071 0 486.21567806 0 5204.91166772 0 -1398.11352718 0 -2512.65374342 0 4479
0.06550000 0.06550280 31269.79541333 0 1465.75435949 0 4766.45867723 0 328.72514431 0 -1237.14406896 0 4636
0.06650000 0.06648880 29357.27274741 0 1737.73494634 0 7507.71163886 0 -3255.83925757 0 1806.26156464 0 4653
0.06750000 0.06749660 29679.80956937 0 225.39156571 0 7835.72926161 0 -1333.17434211 0 2645.16732685 0 5220
0.06850000 0.06852730 30121.26315989 0 -990.81805872 0 10881.95833804 0 -581.33691335 0 1832.93479513 0 5029
0.06950000 0.06949320 30458.30472737 0 18.48369616 0 9910.77151122 0 1783.75152828 0 1278.33311729 0 5040
0.07050000 0.07048030 30649.63450024 0 840.00635130 0 11840.41199132 0 79.50516053 0 1644.06307837 0 5475
0.07150000 0.07148790 29203.36743243 0 1862.13251568 0 10460.67852334 0 218.91757738 0 2379.03292751 0 5509
0.07250000 0.07249820 28662.70581153 0 775.31518631 0 11177.62262767 0 -1028.83599322 0 2474.87497114 0 5916
0.07350000 0.07351270 27703.06741950 0 592.79344784 0 11557.07119921 0 1680.98928164 0 3985.35045057 0 5721
0.07450000 0.07449140 27935.36479420 0 212.70046700 0 12231.37578066 0 1001.55599933 0 3177.83472923 0 6028
0.07550000 0.07549160 27531.88927781 0 -224.97081736 0 10097.52841394 0 1427.33339237 0 3389.61508603 0 6183
0.07650000 0.07648840 27698.52776633 0 9.35134230 0 10271.33069662 0 1378.00618530 0 2287.61981381 0 6330
0.07750000 0.07749960 26867.21761894 0 839.53799196 0 9326.28562869 0 655.91012823 0 3683.34171882 0 6583
0.07850000 0.07848650 26322.45923786 0 1341.75539385 0 9634.41735607 0 1054.50496385 0 3736.34493773 0 6549
0.07950000 0.07947320 25312.33104466 0 366.72425585 0 8516.53329773 0 894.55194505 0 3458.85033312 0 6828
0.08050000 0.08048110 24689.95566660 0 309.03744355 0 7830.48097964 0 756.08366533 0 3263.97741631 0 7147
0.08150000 0.08149960 24957.79520397 0 -94.33831120 0 7416.18780191 0 632.90737342 0 2314.84666054 0 7386
0.08250000 0.08250610 24550.88726688 0 133.68946433 0 7095.95402350 0 427.13596730 0 1372.21535942 0 7227
0.08350000 0.08350160 24490.87526636 0 140.26088911 0 6658.89614593 0 344.07138651 0 530.12076767 0 7798
0.08450000 0.08449610 23794.42603527 0 764.47648755 0 6066.63749138 0 -1472.77421343 0 -890.63898546 0 7371
0.08550000 0.08548940 22699.92672695 0 1604.72310829 0 6078.66203614 0 751.13987230 0 -738.09667367 0 8256
0.08650000 0.08650700 22233.67112883 0 563.64776722 0 5581.41500086 0 -84.83327396 0 -1054.29791137 0 8037
0.08750000 0.08749060 21032.76677900 0 440.76599915 0 4908.47231535 0 -74.08215728 0 -1500.28894060 0 8155
0.08850000 0.08849210 21525.59595668 0 243.10507095 0 6243.87219476 0 438.79955426 0 -937.98867531 0 8718
0.08950000 0.08949900 21068.41966492 0 -21.95852386 0 6594.54379409 0 -968.06443122 0 -205.80683757 0 8571
0.09050000 0.09049190 21016.60118477 0 202.89260167 0 6920.86735114 0 86.35361488 0 -999.28395828 0 8932
0.09150000 0.09150830 21133.96782785 0 500.49233368 0 8214.39169808 0 -394.56118768 0 -208.35679397 0 9285
0.09250000 0.09250820 20799.03000208 0 764.28825802 0 8490.19223699 0 -222.40646693 0 -566.31841196 0 9204
0.09350000 0.09350330 19828.65145498 0 635.20488082 0 9089.84720452 0 371.30819833 0 38.82422119 0 9349
0.09450000 0.09448040 19728.66836186 0 287.55602617 0 8935.66508142 0 611.28312305 0 338.56511937 0 9564
0.09550000 0.09549270 19054.14233391 0 337.11021589 0 8092.87293320 0 774.71728077 0 -615.41752914 0 10155
0.09650000 0.09649430 19083.48399468 0 417.22402212 0 7104.20290549 0 1225.50705558 0 -520.85212456 0 9913
0.09750000 0.09749140 18792.17112870 0 58.27419914 0 6460.90083353 0 679.91382121 0 -322.85016876 0 10476
0.09850000 0.09850240 18195.15137448 0 185.92758559 0 6362.63395076 0 -7.57798768 0 -20.12527904 0 10575
0.09950000 0.09950330 18470.40936947 0 516.18624688 0 6329.62735048 0 364.84749680 0 259.68144844 0 10882
0.10050000 0.10051200 18015.55826592 0 169.87271460 0 6961.20383046 0 318.16214643 0 1430.22326915 0 10875
0.10150000 0.10150300 17626.25532530 0 139.57883390 0 6403.02579170 0 1749.94772061 0 2004.16829845 0 11118
0.10250000 0.10250800 17852.02002835 0 51.21370977 0 6443.65015146 0 1125.71219199 0 2484.68505093 0 11575
0.10350000 0.10349800 17474.01085904 0 477.14522957 0 6462.07449996 0 805.81722672 0 2760.06484149 0 11364
0.10450000 0.10450100 16872.89434464 0 651.24757225 0 5749.20501116 0 362.41047810 0 3004.43105024 0 12093
0.10550000 0.10551000 16272.99578596 0 403.94719743 0 5948.90546159 0 -141.88077023 0 3584.67623236 0 12067
0.10650000 0.10649700 16188.18177785 0 393.58350140 0 5332.45377731 0 231.45587801 0 3007.68631374 0 12054
0.10750000 0.10749900 16245.42569717 0 -220.37690980 0 5632.28126107 0 215.35450326 0 2377.63781458 0 12807
0.10850000 0.10850100 16028.51885397 0 314.89470338 0 5571.75993362 0 -424.77313318 0 1753.67909408 0 12736
0.10950000 0.10950300 15834.86389289 0 619.42571072 0 5526.36340186 0 -282.79271203 0 1367.35460883 0 12933
0.11050000 0.11050200 15588.61538892 0 139.96525803 0 5606.88134794 0 -53.33815673 0 1373.38902586 0 13428
0.11150000 0.11150900 15107.41215231 0 92.34662141 0 5144.62285909 0 883.99337610 0 1141.66741205 0 13453
0.11250000 0.11250000 15437.92104814 0 7.94744902 0 4954.49996963 0 921.21410321 0 902.64913619 0 13668
0.11350000 0.11349100 15018.61210726 0 16.18242417 0 4247.60953623 0 843.99681716 0 -25.77991532 0 13791
0.11450000 0.11448600 14867.80704323 0 452.07195002 0 3615.68981418 0 275.00554599 0 -201.19521428 0 14205
0.11550000 0.11549300 14433.99335684 0 348.85463083 0 3676.44366046 0 -99.76673989 0 732.23941384 0 14776
0.11650000 0.11649800 14510.28167484 0 -84.63175764 0 3764.94475273 0 287.67671451 0 738.13431957 0 14553
0.11750000 0.11747300 14368.11302416 0 -26.02372791 0 3521.33146207 0 382.31408920 0 719.28811550 0 14568
0.11850000 0.11849100 14506.18491465 0 -12.18044309 0 3078.11737191 0 241.35453640 0 189.07544753 0 16015
0.11950000 0.11950300 14463.88863385 0 228.08656957 0 3663.44475112 0 76.84337364 0 1097.69478127 0 15270
0.12050000 0.12050700 14403.10157059 0 156.83615936 0 3666.24604930 0 -97.72611042 0 1019.58617307 0 15999
0.12150000 0.12150000 14165.48947998 0 325.13328214 0 4583.51065425 0 131.56136350 0 1463.73919638 0 15670
0.12250000 0.12250700 13943.71081387 0 680.71767199 0 4312.18333457 0 -736.82557078 0 1361.38662575 0 16887
0.12350000 0.12352200 13487.75247783 0 352.35237824 0 4716.79930042 0 29.57063645 0 2490.03298382 0 16407
0.12450000 0.12449800 13282.91446869 0 5.59796813 0 4414.25909707 0 386.32116355 0 1674.63376720 0 16306
0.12550000 0.12549900 13425.63673560 0 -182.01351876 0 4482.75249840 0 418.96791328 0 712.04460060 0 17523
0.12650000 0.12650100 13518.75498733 0 -122.25728895 0 3784.98566066 0 228.62800625 0 230.98308974 0 17154
0.12750000 0.12750600 13471.14399061 0 4.67757005 0 3533.38922380 0 -294.45297730 0 -285.65158630 0 18007
0.12850000 0.12850300 13463.61480973 0 232.57639728 0 3391.78526170 0 -566.79341470 0 -821.58975343 0 17496
0.12950000 0.12949900 13283.80025467 0 356.08264447 0 3472.10390593 0 -159.85226064 0 -1263.62906993 0 18405
0.13050000 0.13049000 12866.37360901 0 312.08786904 0 3570.89118796 0 -410.21634774 0 -986.69693942 0 18100
0.13150000 0.13148800 12750.55709141 0 118.42294287 0 3656.19237837 0 -3.66689932 0 -1682.68334734 0 19059
0.13250000 0.13249300 12747.23539396 0 229.94893460 0 3890.47169920 0 179.23768693 0 -1307.39796994 0 18957
0.13350000 0.13349100 12515.49163551 0 312.23070203 0 3937.01975274 0 -49.72127111 0 -1194.58205236 0 19468
0.13450000 0.13450700 12351.17833520 0 410.98033815 0 4002.45719242 0 -41.89025866 0 -974.83515785 0 19953
0.13550000 0.13551000 11933.97313603 0 334.15169070 0 3910.28008830 0 369.81564894 0 -166.20334616 0 19956
0.13650000 0.13649900 11828.12171077 0 -81.88571037 0 4091.82192603 0 654.35003767 0 -194.23847260 0 19723
0.13750000 0.13749600 11692.04283875 0 -29.73384251 0 3714.64318108 0 769.13793629 0 -108.36351432 0 20946
0.13850000 0.13851100 11851.92720913 0 -22.61666284 0 3384.23393617 0 610.01202016 0 -526.38053634 0 20955
0.13950000 0.13949800 11613.98294877 0 78.56943836 0 3268.42849089 0 349.72270109 0 -65.61847219 0 20506
0.14050000 0.14048300 11596.71012206 0 253.20635288 0 3241.94348993 0 -238.99613121 0 -355.30868897 0 21447
0.14150000 0.14148400 11238.96330717 0 400.58896131 0 2889.55568025 0 -324.11684272 0 -224.00752510 0 21771
0.14250000 0.14249400 11112.29591124 0 160.89638087 0 3113.55988365 0 171.10174266 0 195.26709157 0 22470
0.14350000 0.14350900 10900.03944447 0 277.06499840 0 3094.53762961 0 -33.34751717 0 -44.95009562 0 22519
0.14450000 0.14449900 10744.36255752 0 257.26989609 0 3093.10929971 0 1.61940501 0 -152.29539895 0 22218
0.14550000 0.14550500 10562.11209100 0 197.94437971 0 2957.35152511 0 192.42261133 0 -617.12709609 0 23559
0.14650000 0.14650700 10385.23170203 0 89.69778914 0 2835.12413144 0 -74.81592025 0 -152.94312995 0 23044
0.14750000 0.14750500 10442.55312761 0 -86.06949902 0 2989.85987078 0 -39.49077514 0 -848.27516347 0 23649
0.14850000 0.14849900 10423.78553704 0 -19.54619645 0 3151.79262125 0 -62.97993718 0 -484.89142802 0 23640
0.14950000 0.14949500 10456.90286058 0 87.81161861 0 2718.17823670 0 359.45416738 0 -704.03930976 0 24457
0.15050000 0.15050000 10376.21882962 0 212.77243711 0 2699.57673101 0 353.31456327 0 -313.67121148 0 24591
0.15150000 0.15149900 10206.48009015 0 130.83059006 0 2520.06112872 0 558.71836821 0 -428.76692074 0 25020
0.15250000 0.15250500 10083.44441677 0 250.50470563 0 2710.36117538 0 161.65815682 0 -427.42163328 0 25297
0.15350000 0.15350100 9892.76791107 0 131.42738836 0 2419.79015517 0 -138.47160141 0 -270.07393251 0 25452
0.15450000 0.15450400 9780.70491158 0 129.15424008 0 2840.59385990 0 -280.90598788 0 -111.75075993 0 26061
0.15550000 0.15549900 9649.32070528 0 246.57403032 0 3006.22476686 0 -226.21866837 0 382.96624913 0 26128
0.15650000 0.15649500 9607.04656912 0 131.56025626 0 3252.69471732 0 93.68205450 0 342.56333587 0 26331
0.15750000 0.15749700 9512.14567310 0 57.24845897 0 3386.80271553 0 -50.23192673 0 173.12022747 0 27345
0.15850000 0.15849900 9452.98624159 0 208.72882409 0 3576.47163967 0 118.16385046 0 289.56233142 0 26980
0.15950000 0.15949700 9295.95853102 0 202.11864617 0 3174.51303178 0 -66.49971852 0 409.78120538 0 27777
0.16050000 0.16050000 9319.23255779 0 -28.65550880 0 3460.12365048 0 90.59320805 0 261.21607266 0 28224
0.16150000 0.16150500 9353.77821122 0 -214.34692170 0 3138.53904844 0 154.46114569 0 -33.58070033 0 28075
0.16250000 0.16249700 9466.21766975 0 -67.22927400 0 2935.83799799 0 126.02409385 0 -268.94234091 0 28590
0.16350000 0.16349900 9452.56549325 0 174.56516586 0 2745.51580668 0 279.80429156 0 -394.17476354 0 29163
0.16450000 0.16449100 9220.61136063 0 138.52917750 0 2615.99175095 0 392.34007932 0 -161.15436604 0 28996
0.16550000 0.16550500 9156.87905897 0 99.12399143 0 2510.61643565 0 308.11290443 0 -175.55946063 0 30777
0.16650000 0.16650700 9020.82233160 0 274.22383985 0 2432.35724384 0 192.63630719 0 58.16591180 0 29211
0.16750000 0.16749900 8731.30318224 0 283.47033831 0 2452.65281523 0 145.26447269 0 238.79350767 0 30922
0.16850000 0.16850800 8531.30377904 0 234.82740092 0 2397.04759999 0 65.16029939 0 644.40819721 0 30867
0.16950000 0.16949900 8519.44531916 0 26.30208616 0 2362.54623585 0 119.77376649 0 504.00115342 0 30852
0.17050000 0.17049200 8412.14341934 0 60.47869901 0 2257.33700543 0 324.38147128 0 853.85118625 0 31257
0.17150000 0.17149500 8435.82712213 0 22.76658212 0 2326.78262669 0 -14.18420171 0 462.22416465 0 32608
0.17250000 0.17250900 8372.17232675 0 107.18176509 0 2223.09030476 0 94.89978879 0 512.35743696 0 32361
0.17350000 0.17350400 8314.59623769 0 212.11806271 0 2425.89100614 0 -187.36255888 0 562.43091872 0 32508
0.17450000 0.17449800 8042.90353129 0 156.83283766 0 2232.03674322 0 63.25220565 0 739.53939759 0 32791
0.17550000 0.17549800 8074.48180167 0 40.42627587 0 2314.37055057 0 187.00492279 0 721.29995692 0 33633
0.17650000 0.17650100 8064.49456469 0 -46.53731338 0 2109.22251633 0 376.49447527 0 497.10198783 0 33984
0.17750000 0.17750300 8121.77170097 0 -41.12958994 0 2090.48814273 0 253.54405879 0 115.33487147 0 34069
0.17850000 0.17849800 8065.85646064 0 43.71984961 0 1867.90119691 0 -128.10015476 0 -37.50905045 0 34536
