### header ###
fiducial parameters:
Omega_m = 0.31
Omega_nu = 0
Omega_de = 0.69
Omega_k = 0
H_0 = 100
w_de = -1
zeff = 0
beta = 0
fgrowth = 0
b_1 = 2
gamma = 0.55
Lx = 3500 Ly = 3500 Lz = 3500
nx = 700 ny = 700 nz = 700
xoffset = -685.467585 yoffset = -31.7331281 zoffset = 572.489161
bins = 400 dk = 0.001
kx_ny = 0.628318531 ky_ny = 0.628318531 kz_ny = 0.628318531
############################
A(data) = 8.01956359 (not used)
A(ran) = 8.0214735 (used)
Ngal = 476639
weighted Ngal = 0
Nran = 23820508
weighted Nran = 0
SN(data) = 3484.11075
SN(ran) = 69.8699433
SN(data+ran) = 3553.98069
############################
13 columns: k_central k_mean P_0(k) sigma^{lin}_{P_0(k)} P^img_1(k) sigma^{lin}_{P_1(k)} P_2(k) sigma^{lin}_{P_2(k)} P^img_3(k) sigma^{lin}_{P_3(k)} P_4(k) sigma^{lin}_{P_4(k)} N_modes
### header ###
0.00050000 0 0 0 0 0 0 0 0 0 0 0 0
0.00150000 0.00179520 24095.03965410 0 -35383.05336021 0 9412.07400139 0 -55218.12676358 0 19401.70260997 0 3
0.00250000 0.00253879 52277.76018474 0 -47096.90867885 0 -31615.80556391 0 -25197.17886655 0 4889.47220597 0 6
0.00350000 0.00331552 80448.30115809 0 -34946.58231586 0 -8933.11844671 0 -10069.64830004 0 -38309.35808653 0 7
0.00450000 0.00420575 95975.68659076 0 -629.51924203 0 13260.43764931 0 -58372.41065792 0 1330.87129855 0 24
0.00550000 0.00557378 78024.12636229 0 35542.82700734 0 30699.90285492 0 -16362.01727751 0 35219.62584589 0 45
0.00650000 0.00659388 48243.89080681 0 23453.39843086 0 38736.86054778 0 2790.17049267 0 31261.93406271 0 40
0.00750000 0.00754703 43638.24657525 0 1767.13196873 0 40012.72453663 0 43194.91068951 0 -7655.46074124 0 57
0.00850000 0.00846663 53454.52686647 0 -11548.54550910 0 36399.04988557 0 33025.53395982 0 -24811.64051636 0 75
0.00950000 0.00948925 53440.90790694 0 -6566.60831857 0 14812.22397264 0 32761.45901290 0 -6583.21680580 0 112
0.01050000 0.01054430 63684.57993616 0 -4750.13807045 0 12315.19327954 0 -2409.39324216 0 1945.96108688 0 105
0.01150000 0.01145670 56426.33884779 0 327.73638570 0 -5237.24285619 0 7151.51494944 0 -2984.32370837 0 144
0.01250000 0.01249090 62365.09098752 0 -1.54349315 0 2697.21832582 0 -3277.28635075 0 -4629.92583989 0 169
0.01350000 0.01339930 67105.26396563 0 -6183.98198981 0 3168.14644501 0 -9849.12080663 0 -1330.72735833 0 180
0.01450000 0.01448870 67190.85303648 0 1371.47351366 0 14107.47049793 0 -22910.19017525 0 -12806.14016200 0 267
0.01550000 0.01550050 65094.97267156 0 747.35092275 0 20346.50408674 0 -14588.12011831 0 -524.38419618 0 238
0.01650000 0.01653350 71580.47621083 0 -3822.99695176 0 35027.18884054 0 -322.93321120 0 -7682.67651564 0 315
0.01750000 0.01747870 78479.86325183 0 -2765.45706368 0 32134.32253517 0 29.00129750 0 -10779.39539324 0 297
0.01850000 0.01844180 78010.95029576 0 348.46045607 0 29376.42786934 0 19005.64555121 0 -9938.74020371 0 388
0.01950000 0.01947590 75005.81061673 0 2157.11032117 0 18040.69244326 0 10613.35481026 0 3626.98358549 0 399
0.02050000 0.02045430 72104.08645151 0 6974.57919884 0 19926.53080637 0 7179.53900356 0 -9510.42946275 0 462
0.02150000 0.02154770 69353.16735031 0 4190.15524274 0 18841.55369739 0 -3683.87319041 0 -1856.13131562 0 571
0.02250000 0.02255340 63561.78785392 0 1117.97263694 0 15555.73058421 0 -3228.03664995 0 1316.45513164 0 510
0.02350000 0.02348930 63874.58103005 0 4586.07943361 0 18953.16273157 0 2993.00441103 0 -2011.91892582 0 555
0.02450000 0.02439640 58495.64563315 0 2460.41451493 0 24909.18769801 0 1002.42406960 0 19177.59875564 0 592
0.02550000 0.02547300 63000.08881587 0 -181.53962326 0 27638.18359606 0 8965.54928610 0 3596.21359482 0 837
0.02650000 0.02652900 59906.92415453 0 -2281.28644401 0 24804.88639822 0 -451.64234382 0 10280.93040223 0 723
0.02750000 0.02749970 59985.64838399 0 4556.58276029 0 33334.78399201 0 4406.12093833 0 -1117.60725022 0 826
0.02850000 0.02848090 59483.29700697 0 4336.16599013 0 29615.70080867 0 814.31523602 0 18980.62209712 0 831
0.02950000 0.02946900 57681.27614274 0 419.55474649 0 25053.90298339 0 6697.64928280 0 11245.05308582 0 996
0.03050000 0.03053250 60328.22611388 0 -6191.44473674 0 27047.36434374 0 8797.08386399 0 6952.29060898 0 1041
0.03150000 0.03150510 60245.51584749 0 -2320.06172552 0 20886.39064490 0 1257.10747061 0 -10413.22253917 0 1036
0.03250000 0.03246190 60898.11867230 0 6332.29578076 0 24811.41906986 0 -3663.43367880 0 -7052.87160763 0 1059
0.03350000 0.03345080 56642.91352125 0 8043.84467890 0 19291.20080828 0 -13944.48587660 0 -2877.61971409 0 1302
0.03450000 0.03451200 51716.94693268 0 4140.05297294 0 30299.63831272 0 -9299.42416868 0 -4913.65416337 0 1339
0.03550000 0.03553350 48846.77889319 0 1977.92688863 0 27917.20618149 0 -2326.50581857 0 -8077.51561867 0 1365
0.03650000 0.03647120 47357.55120508 0 1655.25719876 0 27728.86593633 0 6698.09217579 0 -14220.40821108 0 1308
0.03750000 0.03744890 45992.99789443 0 734.11285120 0 26737.33924882 0 5651.02670699 0 -11713.63387214 0 1579
0.03850000 0.03847530 45503.82258394 0 -669.39289817 0 21755.23597342 0 8484.21318159 0 -15106.08347333 0 1662
0.03950000 0.03950240 43554.20762988 0 1331.49134874 0 15546.65127786 0 10124.65560974 0 -12232.26156665 0 1683
0.04050000 0.04050350 44337.35316430 0 -407.25671532 0 12449.38985634 0 2011.29887563 0 -5701.74902699 0 1822
0.04150000 0.04152450 43485.66993925 0 270.42492521 0 14901.46691068 0 5653.91658377 0 -1609.42884634 0 1887
0.04250000 0.04250150 44527.35425819 0 -365.82629031 0 11890.56962274 0 2501.52605698 0 1865.93032309 0 1920
0.04350000 0.04349210 44804.49454840 0 65.34963614 0 15502.58342508 0 -2313.46261993 0 -1284.58898081 0 2005
0.04450000 0.04448520 46144.68874445 0 1844.11784320 0 18166.91694619 0 -4400.76193312 0 -1848.67964102 0 2151
0.04550000 0.04548030 44523.14677476 0 2014.95274282 0 19902.61458476 0 -4040.36883260 0 1671.36743137 0 2274
0.04650000 0.04648670 43754.94887884 0 324.65495770 0 21181.24665482 0 -2780.12789406 0 1762.94662995 0 2311
0.04750000 0.04749250 45401.40357937 0 -418.68889069 0 23314.66220088 0 1669.08653246 0 -5065.32286874 0 2568
0.04850000 0.04851840 43565.72284769 0 1173.46712893 0 22413.37496064 0 821.69161881 0 -8914.29549452 0 2493
0.04950000 0.04949480 43012.43877650 0 1699.75687221 0 22334.31856144 0 1671.42279300 0 -6355.02726361 0 2644
0.05050000 0.05050630 40837.50201237 0 2983.44899471 0 23436.01488089 0 2007.30176637 0 -4115.15131442 0 2829
0.05150000 0.05149060 39439.39955752 0 1314.86071686 0 24730.36965219 0 1371.45136901 0 -1699.08146040 0 2784
0.05250000 0.05249300 38106.84526560 0 2224.88402138 0 24351.69614339 0 2650.93600808 0 239.61175247 0 3055
0.05350000 0.05348950 37086.41981031 0 1299.58090861 0 23935.04456047 0 2746.12478455 0 4423.23875250 0 3009
0.05450000 0.05448610 35097.27665664 0 500.70824402 0 21933.05751001 0 3460.57761579 0 5086.02811615 0 3336
0.05550000 0.05550870 36364.28278564 0 -582.24152229 0 20777.32824544 0 5281.63180639 0 5507.54044967 0 3349
0.05650000 0.05647670 34945.58580663 0 -217.54682357 0 16652.55508075 0 5192.97570157 0 2951.07351694 0 3324
0.05750000 0.05747970 35554.12077866 0 9.55568205 0 15214.81370305 0 2000.06046594 0 1632.61429451 0 3639
0.05850000 0.05849280 34777.61863913 0 -159.52341259 0 13768.32518874 0 1765.43790303 0 2372.27880937 0 3846
0.05950000 0.05951020 34326.64284926 0 341.41070685 0 11350.57234134 0 -461.78459335 0 -1034.58252980 0 3787
0.06050000 0.06049470 34616.18414327 0 1672.54109781 0 11116.17122493 0 -1201.29188120 0 661.49500887 0 3930
0.06150000 0.06148310 33390.47778585 0 764.85183936 0 11241.50994188 0 242.58134999 0 -932.98177003 0 4083
0.06250000 0.06249100 32062.24170060 0 -121.41468503 0 11173.08297450 0 1227.43364010 0 3076.81083758 0 4303
0.06350000 0.06350600 32517.09280415 0 139.46368172 0 10118.03435950 0 3188.55273965 0 -421.34071249 0 4470
0.06450000 0.06451750 32551.52773434 0 -156.49513175 0 10129.77102381 0 3491.28117252 0 176.45521170 0 4479
0.06550000 0.06550280 32216.70063182 0 177.10958610 0 9008.43240013 0 2254.01530798 0 1026.42444087 0 4636
0.06650000 0.06648880 32548.87037638 0 -318.20089957 0 7021.54800072 0 233.77885176 0 1099.80738084 0 4653
0.06750000 0.06749660 32381.01393213 0 -96.13590313 0 7128.63952636 0 1.46481321 0 1958.61675414 0 5220
0.06850000 0.06852730 32663.02604526 0 232.07924990 0 8916.78676760 0 -576.36765397 0 449.72683162 0 5029
0.06950000 0.06949320 31433.11220441 0 1403.58325564 0 8726.06597260 0 -2750.36548495 0 1100.62230395 0 5040
0.07050000 0.07048030 30863.44109249 0 1883.07028191 0 8660.01955506 0 541.97258415 0 -1048.01879597 0 5475
0.07150000 0.07148790 28920.46953331 0 1002.44067808 0 9567.02011490 0 -1275.37680656 0 1209.74006504 0 5509
0.07250000 0.07249820 28654.18012142 0 666.13431297 0 8835.17266136 0 1634.45230043 0 -1623.96680883 0 5916
0.07350000 0.07351270 27616.59256267 0 311.61950970 0 9550.46698930 0 -39.32557606 0 -911.51806837 0 5721
0.07450000 0.07449140 28572.24491777 0 251.97178867 0 9622.92428291 0 76.36327764 0 -1961.68378812 0 6028
0.07550000 0.07549160 27539.52918193 0 901.15769404 0 10674.35224769 0 -894.26517184 0 -1354.41106112 0 6183
0.07650000 0.07648840 26724.38462878 0 1515.86770162 0 10520.91197035 0 -1055.60555293 0 -1854.83585362 0 6330
0.07750000 0.07749960 26361.87671422 0 158.51915273 0 10609.52378588 0 -1.41918416 0 -1387.04120236 0 6583
0.07850000 0.07848650 25702.96266426 0 516.40104998 0 10434.25995632 0 553.96169747 0 -1836.53330069 0 6549
0.07950000 0.07947320 25162.30104337 0 993.96481343 0 10134.19995374 0 1003.40507758 0 -2323.46092924 0 6828
0.08050000 0.08048110 24147.85464348 0 471.59467314 0 9745.33990611 0 1898.05113739 0 -650.44372147 0 7147
0.08150000 0.08149960 23778.70333403 0 326.33795108 0 9039.76707936 0 1854.81370897 0 -1462.07834765 0 7386
0.08250000 0.08250610 23402.13356695 0 258.46238547 0 8099.39453251 0 1646.58756843 0 -457.73101524 0 7227
0.08350000 0.08350160 22719.52474188 0 573.94945823 0 7463.17874844 0 692.62485010 0 -1570.77536040 0 7798
0.08450000 0.08449610 22945.40016818 0 31.90523613 0 7955.67575637 0 -951.55670215 0 -987.32141854 0 7371
0.08550000 0.08548940 22872.76571737 0 231.13810229 0 8496.74705328 0 -1153.10512359 0 -318.47992215 0 8256
0.08650000 0.08650700 22153.83966689 0 1206.77268198 0 8689.28370955 0 -713.28470098 0 -118.14834921 0 8037
0.08750000 0.08749060 22630.17108059 0 32.79401165 0 8862.38843577 0 221.27930427 0 45.48865350 0 8155
0.08850000 0.08849210 21321.75445677 0 473.63640984 0 9098.08501418 0 244.42932100 0 -1078.51419298 0 8718
0.08950000 0.08949900 21563.68475406 0 963.38969568 0 8641.07480729 0 589.47507209 0 -189.06326798 0 8571
0.09050000 0.09049190 20625.08377918 0 405.65897885 0 8545.63136736 0 1076.15357333 0 -86.58978757 0 8932
0.09150000 0.09150830 20494.43034632 0 -440.81803907 0 7903.21508138 0 1635.99135358 0 219.49887444 0 9285
0.09250000 0.09250820 20694.50725579 0 -281.68990848 0 7528.42795859 0 1763.68847571 0 323.40267777 0 9204
0.09350000 0.09350330 20937.65550881 0 421.84782496 0 7842.72697089 0 142.29155348 0 -1439.98905964 0 9349
0.09450000 0.09448040 20027.06751573 0 895.48091310 0 6959.12223339 0 -128.01600509 0 1326.19877748 0 9564
0.09550000 0.09549270 19534.34906130 0 859.39399205 0 7016.31079108 0 65.38229950 0 1589.31043214 0 10155
0.09650000 0.09649430 18867.13076773 0 139.15254939 0 6778.34438608 0 969.06647662 0 1464.83535653 0 9913
0.09750000 0.09749140 18829.48486334 0 122.19196223 0 6327.41288551 0 1295.47307611 0 1281.49980219 0 10476
0.09850000 0.09850240 18259.92447467 0 684.11244678 0 6268.53026213 0 303.01742054 0 1309.81173675 0 10575
0.09950000 0.09950330 17603.88922917 0 770.19202162 0 5564.61828411 0 -180.61840584 0 1203.21846572 0 10882
0.10050000 0.10051200 17097.99470820 0 635.70645714 0 5954.95095094 0 162.41328937 0 1842.75594724 0 10875
0.10150000 0.10150300 16860.38261759 0 190.73408179 0 5625.39427504 0 -306.63032013 0 892.16032289 0 11118
0.10250000 0.10250800 16476.94800912 0 56.81741336 0 6114.33706670 0 623.96536390 0 250.72283043 0 11575
0.10350000 0.10349800 16678.35359758 0 52.77280383 0 6394.03506395 0 -335.84464917 0 820.37733386 0 11364
0.10450000 0.10450100 16543.60340453 0 -54.76394000 0 6243.58431431 0 -358.52519933 0 -453.24118752 0 12093
0.10550000 0.10551000 16613.13760439 0 203.14172898 0 6760.61759404 0 -127.24758575 0 406.95776255 0 12067
0.10650000 0.10649700 16317.94942473 0 462.04700745 0 6078.82812101 0 -449.05806320 0 20.28173099 0 12054
0.10750000 0.10749900 16272.66361622 0 383.92400523 0 6675.68179036 0 -35.10336644 0 -200.16991700 0 12807
0.10850000 0.10850100 15791.79254935 0 288.87695452 0 6230.47468173 0 -27.41219745 0 -41.13025428 0 12736
0.10950000 0.10950300 15606.10966214 0 224.09056754 0 6344.95144803 0 600.09343159 0 -407.71068063 0 12933
0.11050000 0.11050200 15416.33001475 0 50.61270398 0 5699.85565944 0 609.10630399 0 -1043.09161142 0 13428
0.11150000 0.11150900 15303.50302484 0 14.85917063 0 5810.15815929 0 412.85045382 0 -1088.55014820 0 13453
0.11250000 0.11250000 15255.33841188 0 158.47486343 0 5278.42083219 0 352.82738097 0 -900.41141934 0 13668
0.11350000 0.11349100 14942.54523576 0 448.73032239 0 5663.89274843 0 -44.30745789 0 -1030.67510637 0 13791
0.11450000 0.11448600 14841.12274042 0 406.81714402 0 5658.19050115 0 -341.37638265 0 -479.10503107 0 14205
0.11550000 0.11549300 14421.81379954 0 415.03391627 0 6025.58131096 0 -37.08010859 0 -462.26070332 0 14776
0.11650000 0.11649800 14382.50704643 0 259.29170260 0 6392.24134733 0 74.93838016 0 572.18231519 0 14553
0.11750000 0.11747300 14239.23116328 0 -34.74617324 0 6363.74118324 0 446.95542872 0 354.44504763 0 14568
0.11850000 0.11849100 14239.00971678 0 169.07107828 0 6396.91386840 0 748.02965626 0 395.65181167 0 16015
0.11950000 0.11950300 14108.79917691 0 103.04625177 0 5973.76283081 0 427.39948863 0 695.01425780 0 15270
0.12050000 0.12050700 14057.64503625 0 15.47169164 0 5678.07639652 0 1196.48649223 0 834.78575014 0 15999
0.12150000 0.12150000 13623.94207310 0 137.17392495 0 5082.17494711 0 1043.27873371 0 1336.87249860 0 15670
0.12250000 0.12250700 13822.02596411 0 15.66844685 0 4284.63539042 0 655.06198815 0 701.55800176 0 16887
0.12350000 0.12352200 13589.28569642 0 -105.64182616 0 4419.60702996 0 360.64776399 0 834.40264771 0 16407
0.12450000 0.12449800 13666.12763066 0 110.71117935 0 3863.89811964 0 -425.12412588 0 -56.87831115 0 16306
0.12550000 0.12549900 13609.10515785 0 136.99676775 0 4141.47023052 0 -31.87312639 0 799.00553249 0 17523
0.12650000 0.12650100 13459.51804955 0 109.17721947 0 3722.67061658 0 148.50644940 0 642.70416642 0 17154
0.12750000 0.12750600 13517.64775484 0 156.74758076 0 3477.59577904 0 350.12351925 0 376.52104885 0 18007
0.12850000 0.12850300 13410.79982034 0 144.28567918 0 3526.24757429 0 326.46749728 0 -162.03904479 0 17496
0.12950000 0.12949900 12837.91773423 0 591.68842982 0 3299.36456643 0 71.68101292 0 -325.30933210 0 18405
0.13050000 0.13049000 12614.14604964 0 540.76016459 0 3779.29448570 0 -651.12577668 0 -248.71098901 0 18100
0.13150000 0.13148800 12080.57071663 0 248.05550738 0 3729.60189191 0 -378.43434658 0 -476.83188278 0 19059
0.13250000 0.13249300 12121.87048821 0 104.94161234 0 4217.88034409 0 -455.29288931 0 -242.20046201 0 18957
0.13350000 0.13349100 12181.88248872 0 -75.36023573 0 4328.94683435 0 192.86328985 0 -331.46886640 0 19468
0.13450000 0.13450700 12285.18727928 0 -158.02421981 0 4113.08078968 0 224.69290201 0 -196.82828937 0 19953
0.13550000 0.13551000 12357.93245334 0 127.43581527 0 4134.39501496 0 826.25563110 0 -104.56493185 0 19956
0.13650000 0.13649900 12410.08310324 0 -20.40020486 0 3962.90684817 0 545.01747348 0 176.43638875 0 19723
0.13750000 0.13749600 12320.39727220 0 -66.74829221 0 3665.75886701 0 444.51287387 0 744.62380915 0 20946
0.13850000 0.13851100 12217.42465139 0 241.11205248 0 3351.84738608 0 301.89025788 0 368.04518420 0 20955
0.13950000 0.13949800 12002.95371965 0 290.13698508 0 3246.16204568 0 210.26344831 0 28.87595879 0 20506
0.14050000 0.14048300 11583.75550202 0 458.77292100 0 3101.72356842 0 -329.35405236 0 212.90862671 0 21447
0.14150000 0.14148400 11263.43314502 0 474.37382667 0 2965.60040710 0 -93.24879443 0 -114.35497073 0 21771
0.14250000 0.14249400 11017.59431707 0 120.59090406 0 3156.45407000 0 -74.89553026 0 -334.45175070 0 22470
0.14350000 0.14350900 10852.39523077 0 84.89538970 0 2973.97108466 0 72.66202090 0 -856.57719262 0 22519
0.14450000 0.14449900 10779.39539324 0 127.83331173 0 2829.21150999 0 180.09689934 0 -652.77555308 0 22218
0.14550000 0.14550500 10717.96613515 0 -58.21042255 0 2682.30390429 0 546.98724006 0 152.03519932 0 23559
0.14650000 0.14650700 10908.99695525 0 -103.25496510 0 2675.18439943 0 647.54720130 0 -666.06455733 0 23044
0.14750000 0.14750500 10761.59109494 0 266.29716252 0 2758.35970347 0 -59.68758140 0 -139.72498858 0 23649
0.14850000 0.14849900 10567.08356485 0 522.99240495 0 2789.97119083 0 -238.88097903 0 352.55500178 0 23640
0.14950000 0.14949500 10118.62119272 0 402.50668797 0 3015.09369904 0 -231.80354901 0 1088.33091617 0 24457
0.15050000 0.15050000 10112.94109009 0 -16.22793142 0 3404.35235037 0 270.05289509 0 1610.60251277 0 24591
0.15150000 0.15149900 10137.98668882 0 -91.04573397 0 3419.64323094 0 445.80833587 0 1219.10725183 0 25020
0.15250000 0.15250500 10286.05688862 0 -41.73413888 0 3247.23606119 0 277.97957243 0 1100.96000985 0 25297
0.15350000 0.15350100 10270.68850178 0 110.81625571 0 3335.38283907 0 3.69657315 0 1177.66354004 0 25452
0.15450000 0.15450400 10021.81585683 0 219.29514366 0 3023.78547402 0 -180.18547794 0 1055.12169234 0 26061
0.15550000 0.15549900 9767.97173804 0 259.01378725 0 3148.74773193 0 -263.43828825 0 834.52665774 0 26128
0.15650000 0.15649500 9803.89035975 0 200.74899959 0 3140.00059532 0 119.69626022 0 623.69077024 0 26331
0.15750000 0.15749700 9477.48929642 0 83.55940299 0 2991.29927301 0 118.38197526 0 479.17478671 0 27345
0.15850000 0.15849900 9451.27003125 0 103.67305608 0 2910.58202508 0 160.70593688 0 -46.92318390 0 26980
0.15950000 0.15949700 9448.43551609 0 205.85998473 0 2995.72820293 0 -38.01915245 0 -93.76653634 0 27777
0.16050000 0.16050000 9082.59483176 0 349.53336434 0 3114.29065709 0 -3.32692358 0 109.81520683 0 28224
0.16150000 0.16150500 8992.79827748 0 236.81156152 0 3131.31989266 0 -126.21896677 0 309.12048598 0 28075
0.16250000 0.16249700 8747.53521042 0 135.10007851 0 3216.31105797 0 198.26436990 0 652.57403677 0 28590
0.16350000 0.16349900 8750.91226949 0 -4.87439170 0 2785.63083950 0 358.99466590 0 466.17698461 0 29163
0.16450000 0.16449100 8701.65149638 0 -92.88097180 0 2723.85833934 0 292.90285182 0 359.18400265 0 28996
0.16550000 0.16550500 8815.82930991 0 -34.68748992 0 2561.20588775 0 584.39730393 0 332.79090198 0 30777
0.16650000 0.16650700 8662.25616467 0 107.68821323 0 2303.40894900 0 241.85611271 0 405.03339249 0 29211
0.16750000 0.16749900 8540.54917026 0 181.44440127 0 2055.15635424 0 278.00393155 0 432.15173044 0 30922
0.16850000 0.16850800 8433.23619812 0 124.21044705 0 2036.04552160 0 212.03834197 0 463.22399558 0 30867
0.16950000 0.16949900 8276.85068238 0 187.81098804 0 1994.81218398 0 -66.73124083 0 579.45904706 0 30852
0.17050000 0.17049200 8187.38629785 0 193.31282624 0 2110.25224254 0 -131.04539316 0 632.76454043 0 31257
0.17150000 0.17149500 8159.11865259 0 78.71537160 0 2375.87731494 0 -331.14776898 0 990.10832270 0 32608
0.17250000 0.17250900 8205.89922495 0 21.63244389 0 2565.61267303 0 -236.10736167 0 796.88075336 0 32361
0.17350000 0.17350400 8130.21988481 0 91.75801662 0 2840.47206433 0 -270.80470595 0 668.13508207 0 32508
0.17450000 0.17449800 8064.11810564 0 102.73910548 0 2853.74778178 0 2.06564185 0 444.39661446 0 32791
0.17550000 0.17549800 7983.66659351 0 120.37388650 0 2763.54155149 0 136.67456310 0 482.05026947 0 33633
0.17650000 0.17650100 7999.97612797 0 15.15812340 0 2670.14649164 0 256.48708273 0 567.79435286 0 33984
0.17750000 0.17750300 7894.21328130 0 9.88831684 0 2601.75274124 0 255.06096729 0 230.58559328 0 34069
0.17850000 0.17849800 7922.96810885 0 86.63153023 0 2438.19235901 0 263.83467748 0 336.61306851 0 34536
