### header ###
fiducial parameters:
Omega_m = 0.31
Omega_nu = 0
Omega_de = 0.69
Omega_k = 0
H_0 = 100
w_de = -1
zeff = 0
beta = 0
fgrowth = 0
b_1 = 2
gamma = 0.55
Lx = 3500 Ly = 3500 Lz = 3500
nx = 700 ny = 700 nz = 700
xoffset = -685.467585 yoffset = -31.7331281 zoffset = 572.489161
bins = 400 dk = 0.001
kx_ny = 0.628318531 ky_ny = 0.628318531 kz_ny = 0.628318531
############################
A(data) = 8.06723706 (not used)
A(ran) = 8.06575563 (used)
Ngal = 479321
weighted Ngal = 0
Nran = 23820508
weighted Nran = 0
SN(data) = 3490.50413
SN(ran) = 70.2556567
SN(data+ran) = 3560.75979
############################
13 columns: k_central k_mean P_0(k) sigma^{lin}_{P_0(k)} P^img_1(k) sigma^{lin}_{P_1(k)} P_2(k) sigma^{lin}_{P_2(k)} P^img_3(k) sigma^{lin}_{P_3(k)} P_4(k) sigma^{lin}_{P_4(k)} N_modes
### header ###
0.00050000 0 0 0 0 0 0 0 0 0 0 0 0
0.00150000 0.00179520 25322.96047649 0 -24983.59372079 0 20630.95211134 0 9963.42041573 0 2072.15237284 0 3
0.00250000 0.00253879 43659.50543890 0 -19033.54780975 0 15361.52200689 0 -30503.36908939 0 -7518.54037253 0 6
0.00350000 0.00331552 44227.95859509 0 5485.73904210 0 -746.43302702 0 6066.79250393 0 42983.20783898 0 7
0.00450000 0.00420575 43781.41173515 0 10470.49967545 0 -1040.06997398 0 -19331.72551712 0 25318.64226981 0 24
0.00550000 0.00557378 43202.10770064 0 -9368.31617371 0 1815.30765402 0 15823.90229132 0 21960.73832205 0 45
0.00650000 0.00659388 67244.55381185 0 -23638.63842507 0 813.60882170 0 18062.17275341 0 -6753.59774011 0 40
0.00750000 0.00754703 66694.92360785 0 -13161.11889568 0 -4870.20636078 0 25111.81124219 0 8661.47002961 0 57
0.00850000 0.00846663 84113.24067306 0 -648.91020448 0 10406.74522915 0 -10435.43362275 0 -12112.45901211 0 75
0.00950000 0.00948925 80583.16207438 0 6208.34110441 0 11287.34936662 0 -5849.43169542 0 32928.65111766 0 112
0.01050000 0.01054430 72358.19630609 0 10657.35622909 0 33483.26386783 0 -16729.06484524 0 13345.14093417 0 105
0.01150000 0.01145670 70338.60425917 0 2864.34399663 0 49647.97231707 0 5566.99883394 0 36994.07662132 0 144
0.01250000 0.01249090 71633.18047697 0 -733.29682086 0 54928.14257658 0 19391.07317814 0 20834.23999501 0 169
0.01350000 0.01339930 79396.54102356 0 -6935.10636086 0 51991.20841844 0 11260.44361732 0 23802.61955564 0 180
0.01450000 0.01448870 85573.34814689 0 -5108.92568387 0 42606.52734865 0 27221.19984339 0 13664.02388895 0 267
0.01550000 0.01550050 88091.63770365 0 -6397.41212302 0 30898.20819242 0 8032.01943599 0 17775.95315685 0 238
0.01650000 0.01653350 96081.64873928 0 -3932.26972539 0 29033.07507672 0 3551.69177673 0 -1229.51523716 0 315
0.01750000 0.01747870 98426.43496612 0 3973.28161652 0 33433.43840614 0 -6303.58524250 0 1559.71410790 0 297
0.01850000 0.01844180 91924.10149312 0 8939.62897370 0 20679.33817079 0 -3433.56114324 0 -12238.57279179 0 388
0.01950000 0.01947590 82511.85033454 0 9778.66760381 0 28657.28037237 0 5722.18853860 0 1987.37158170 0 399
0.02050000 0.02045430 77439.28616537 0 3262.26120597 0 23558.69623988 0 1711.37174094 0 -5679.75938990 0 462
0.02150000 0.02154770 79532.17700259 0 -1734.66791236 0 25126.98032720 0 11438.81877014 0 -12595.21237420 0 571
0.02250000 0.02255340 78864.40509278 0 1860.61560717 0 35013.90205076 0 8487.12520301 0 -3517.10183399 0 510
0.02350000 0.02348930 78159.31944833 0 6734.46476282 0 29229.60884225 0 1882.30629149 0 -4257.58570089 0 555
0.02450000 0.02439640 68480.33598486 0 8484.77787015 0 31713.46346881 0 -211.46811725 0 17933.84450876 0 592
0.02550000 0.02547300 64332.20021480 0 3840.80125007 0 33359.58599960 0 -2051.46927007 0 12608.16699424 0 837
0.02650000 0.02652900 66592.17243354 0 -2138.18771805 0 33423.14114406 0 8319.05838459 0 8148.46707611 0 723
0.02750000 0.02749970 62691.50312318 0 -1899.67876914 0 32964.30400358 0 1233.66735897 0 4520.57555998 0 826
0.02850000 0.02848090 67023.10731548 0 3516.83609820 0 25926.73434885 0 6055.98591491 0 6421.20654905 0 831
0.02950000 0.02946900 61038.29430450 0 1329.34331773 0 22102.13190999 0 -463.31478864 0 -1894.48584880 0 996
0.03050000 0.03053250 60024.40152086 0 4964.28790476 0 20639.58852469 0 3601.72761258 0 -12641.38396870 0 1041
0.03150000 0.03150510 57615.17436357 0 3811.79175904 0 25456.93560679 0 -2754.29616026 0 -7428.16805736 0 1036
0.03250000 0.03246190 51323.76867837 0 1698.01851721 0 20802.01952978 0 2114.59259387 0 -9789.33025261 0 1059
0.03350000 0.03345080 52587.01021693 0 -361.97644297 0 20663.83691605 0 6621.83707477 0 -3827.29301379 0 1302
0.03450000 0.03451200 53171.29679761 0 -444.89708354 0 24931.44307090 0 3679.35568189 0 -8267.76030371 0 1339
0.03550000 0.03553350 52836.69114159 0 1053.24271882 0 21221.43919391 0 597.92768486 0 -2521.00227633 0 1365
0.03650000 0.03647120 49198.32520618 0 4635.96025692 0 21218.44966621 0 5846.48645702 0 684.55644701 0 1308
0.03750000 0.03744890 49195.55712498 0 536.24487052 0 19361.62079413 0 800.09726372 0 3167.95821549 0 1579
0.03850000 0.03847530 49954.01137505 0 -1774.39541381 0 19247.68657174 0 521.89181586 0 -4840.45502399 0 1662
0.03950000 0.03950240 49084.61243029 0 318.89956326 0 15942.70833662 0 1221.69817584 0 -3174.86734617 0 1683
0.04050000 0.04050350 50684.00975035 0 1042.86462876 0 14511.27818407 0 -1442.73499619 0 -7646.47001348 0 1822
0.04150000 0.04152450 48586.46853670 0 249.50708916 0 14031.29290318 0 -3480.64066837 0 -9463.05098485 0 1887
0.04250000 0.04250150 50370.10934174 0 1938.90801597 0 15192.44760691 0 -3892.49793464 0 -14990.37767897 0 1920
0.04350000 0.04349210 45559.29493128 0 3498.17923088 0 15531.26074636 0 3.58095593 0 -10017.76338594 0 2005
0.04450000 0.04448520 45839.42474920 0 1535.56536747 0 14741.36109380 0 975.29908826 0 -7110.02694834 0 2151
0.04550000 0.04548030 44693.66057696 0 -502.21629466 0 15330.85166715 0 4947.88979171 0 -6717.53517817 0 2274
0.04650000 0.04648670 44925.73650516 0 575.97237197 0 16031.06548868 0 5541.94216288 0 -9224.25415549 0 2311
0.04750000 0.04749250 44257.52170236 0 824.54052799 0 14215.64711141 0 705.17643751 0 -5603.81431397 0 2568
0.04850000 0.04851840 41840.43319445 0 2070.71297061 0 14134.37624724 0 413.17155124 0 -1491.59716562 0 2493
0.04950000 0.04949480 41136.34405923 0 2194.80051485 0 14800.04441534 0 628.25146084 0 -554.69136367 0 2644
0.05050000 0.05050630 39220.83186560 0 519.83125621 0 13677.31067873 0 2744.80717789 0 -1078.93715579 0 2829
0.05150000 0.05149060 39537.50035542 0 172.21340407 0 14291.60325967 0 1536.92726343 0 -4584.28571699 0 2784
0.05250000 0.05249300 38113.37793724 0 1052.24731682 0 12670.28273647 0 1441.12950910 0 -2548.31770166 0 3055
0.05350000 0.05348950 38636.76673142 0 150.16176196 0 10002.87110906 0 1659.89650286 0 -2117.74820644 0 3009
0.05450000 0.05448610 38543.09486345 0 -2078.27536846 0 11069.93319649 0 2119.44227214 0 -3427.51565389 0 3336
0.05550000 0.05550870 39190.93658859 0 897.49829068 0 8722.62247958 0 168.95260441 0 -5350.20271399 0 3349
0.05650000 0.05647670 38041.18637942 0 3100.82671011 0 11103.54877463 0 -1148.32187927 0 -5375.44761458 0 3324
0.05750000 0.05747970 34834.97328169 0 2838.65620306 0 9395.99698575 0 -2238.37011301 0 -1657.82597812 0 3639
0.05850000 0.05849280 33282.41189562 0 1983.36340011 0 11980.80907002 0 -1770.12149643 0 -1722.85374178 0 3846
0.05950000 0.05951020 32610.21105588 0 -540.04267794 0 12879.99256854 0 1294.85302592 0 -4403.95076267 0 3787
0.06050000 0.06049470 32915.25360463 0 -889.21951342 0 11406.37685842 0 3496.71768400 0 -2291.24046402 0 3930
0.06150000 0.06148310 33472.63443600 0 -1376.95431445 0 10097.21838884 0 3958.74365403 0 -3080.92974241 0 4083
0.06250000 0.06249100 34679.18567149 0 -300.50843174 0 9747.37721387 0 2004.56690214 0 -2637.70457992 0 4303
0.06350000 0.06350600 33999.23420438 0 1567.44259063 0 8579.15836691 0 1156.83649705 0 -2338.67430354 0 4470
0.06450000 0.06451750 31643.70782246 0 2316.31927974 0 8767.04464675 0 -803.12554456 0 1402.19921503 0 4479
0.06550000 0.06550280 31372.43586440 0 850.06445116 0 11072.03693820 0 -1474.45720680 0 531.22800015 0 4636
0.06650000 0.06648880 30282.14403951 0 727.50267328 0 12240.12291727 0 -811.91364877 0 1644.37310347 0 4653
0.06750000 0.06749660 29919.52540170 0 330.02835694 0 12207.12738931 0 -945.03178113 0 -1217.85607913 0 5220
0.06850000 0.06852730 29941.44860484 0 634.29916465 0 12804.81148302 0 -1129.32176988 0 -1592.85357609 0 5029
0.06950000 0.06949320 29989.28104806 0 502.09782078 0 12261.93539716 0 -1938.54262925 0 -1292.92644140 0 5040
0.07050000 0.07048030 29549.15613651 0 824.30136577 0 13725.36456844 0 -119.74940738 0 -1495.42819001 0 5475
0.07150000 0.07148790 28736.77966457 0 228.74869459 0 11236.63811896 0 622.99874994 0 -1684.48813628 0 5509
0.07250000 0.07249820 29257.84327054 0 -420.71069720 0 12021.11233236 0 1736.35090574 0 -3594.04341916 0 5916
0.07350000 0.07351270 28596.27186262 0 110.27282601 0 11342.26809772 0 1938.12188091 0 -3968.81946962 0 5721
0.07450000 0.07449140 28530.17008345 0 100.41856765 0 10473.11274411 0 1905.41423339 0 -3690.31728346 0 6028
0.07550000 0.07549160 28455.43189093 0 315.10397032 0 8987.38391065 0 1329.03329263 0 -2336.91380390 0 6183
0.07650000 0.07648840 27618.14268814 0 555.06007209 0 9657.82425074 0 1108.90440291 0 -3703.67050719 0 6330
0.07750000 0.07749960 27557.35562489 0 816.74671855 0 7937.31784182 0 594.78868077 0 -1504.95038935 0 6583
0.07850000 0.07848650 26734.68189086 0 424.59043982 0 8813.13873497 0 900.17779329 0 -1110.97492765 0 6549
0.07950000 0.07947320 26375.16350400 0 127.46017438 0 6835.87618584 0 2790.44730080 0 -1010.36071203 0 6828
0.08050000 0.08048110 26451.00892901 0 526.52890550 0 6708.21228068 0 1345.71928613 0 -737.69253381 0 7147
0.08150000 0.08149960 25307.56994499 0 997.47806210 0 6620.87378251 0 1123.27628053 0 -158.62655428 0 7386
0.08250000 0.08250610 24274.96493240 0 1361.23161320 0 5842.69972193 0 5.11365357 0 1184.65017700 0 7227
0.08350000 0.08350160 23560.57853510 0 1022.15495242 0 6806.62310366 0 -178.79590117 0 1306.61183487 0 7798
0.08450000 0.08449610 22344.72654677 0 489.36354001 0 5890.89755186 0 -1324.96974942 0 826.37964114 0 7371
0.08550000 0.08548940 22832.79462477 0 398.82403274 0 7203.46629749 0 -361.93658260 0 1595.99811633 0 8256
0.08650000 0.08650700 21911.46647661 0 668.28566568 0 6860.93285690 0 -797.71117772 0 933.18882251 0 8037
0.08750000 0.08749060 22038.46604228 0 126.82130124 0 7173.99176882 0 -275.85147160 0 -100.01044175 0 8155
0.08850000 0.08849210 21437.12808138 0 234.92705184 0 7622.42092398 0 -175.69454299 0 -1123.47558237 0 8718
0.08950000 0.08949900 21331.49810261 0 589.43631895 0 7948.01370759 0 -455.08805130 0 -1102.83455445 0 8571
0.09050000 0.09049190 20825.27141190 0 604.07725406 0 8577.30928866 0 -100.49053776 0 -628.14295205 0 8932
0.09150000 0.09150830 20380.93901693 0 521.07135659 0 8974.21891644 0 798.70436526 0 1015.22146262 0 9285
0.09250000 0.09250820 20420.91010953 0 -86.05421921 0 8325.57998391 0 1403.84899143 0 896.19839975 0 9204
0.09350000 0.09350330 20546.80244271 0 -115.90620343 0 8940.49261504 0 1664.07076932 0 2438.86777083 0 9349
0.09450000 0.09448040 20590.53812575 0 223.43176421 0 7693.09557329 0 1824.11015225 0 2922.52906356 0 9564
0.09550000 0.09549270 20056.51989974 0 15.81903047 0 7217.49493303 0 2369.89825953 0 4308.07550206 0 10155
0.09650000 0.09649430 19913.35473984 0 79.00823459 0 5275.46452147 0 1654.39355743 0 3455.71686520 0 9913
0.09750000 0.09749140 19813.81453972 0 300.60918990 0 5153.28141709 0 1060.69217895 0 2443.21919448 0 10476
0.09850000 0.09850240 18918.17418514 0 932.46026353 0 5174.83923352 0 -1257.79395475 0 1686.37043150 0 10575
0.09950000 0.09950330 18440.62481571 0 926.31069433 0 4829.65950729 0 -1605.15492896 0 1986.03183040 0 10882
0.10050000 0.10051200 17658.14362078 0 619.10793500 0 5967.65090751 0 -1349.59459982 0 1378.92518826 0 10875
0.10150000 0.10150300 16943.09288399 0 574.65587255 0 5674.62183118 0 -749.85658986 0 641.70101379 0 11118
0.10250000 0.10250800 16716.11022521 0 443.12661880 0 6129.56151333 0 393.43623948 0 547.10903564 0 11575
0.10350000 0.10349800 16544.59991377 0 38.17028969 0 5982.02278512 0 1094.88683969 0 817.09217508 0 11364
0.10450000 0.10450100 16379.51155072 0 66.03202352 0 5815.71646634 0 702.88446628 0 800.24341841 0 12093
0.10550000 0.10551000 16326.14294509 0 363.19661317 0 5413.68035218 0 1042.67307754 0 1419.87064544 0 12067
0.10650000 0.10649700 15772.08381117 0 440.96972992 0 5260.27329182 0 710.43800627 0 1768.13955029 0 12054
0.10750000 0.10749900 15710.18951543 0 99.37489031 0 4842.08265574 0 304.30181022 0 1853.17500490 0 12807
0.10850000 0.10850100 15579.20391283 0 -116.38784956 0 5142.84021479 0 208.92258977 0 1505.45971629 0 12736
0.10950000 0.10950300 15538.01486450 0 139.11601072 0 4363.20460734 0 90.39047378 0 1016.65865038 0 12933
0.11050000 0.11050200 15678.19049671 0 5.79589700 0 4750.85777156 0 -374.63100301 0 960.40902584 0 13428
0.11150000 0.11150900 15503.69065756 0 130.40430555 0 4413.50617899 0 -143.78963902 0 -192.32517487 0 13453
0.11250000 0.11250000 15486.19638435 0 174.30053730 0 4175.00830239 0 86.50419849 0 -482.11891788 0 13668
0.11350000 0.11349100 15228.32193933 0 146.48907182 0 4339.36589200 0 -187.17654383 0 -522.72445469 0 13791
0.11450000 0.11448600 14936.34473386 0 465.51928851 0 4108.68507673 0 387.55351330 0 -549.11976982 0 14205
0.11550000 0.11549300 14626.43036218 0 374.98642463 0 4167.95523148 0 620.19855900 0 -763.24524503 0 14776
0.11650000 0.11649800 14565.08968269 0 56.20732826 0 3966.36141351 0 514.40913875 0 -334.17715705 0 14553
0.11750000 0.11747300 14074.25352348 0 263.37074707 0 4027.24812769 0 395.42704348 0 -67.97034470 0 14568
0.11850000 0.11849100 14163.93935451 0 193.15892093 0 4138.60249839 0 -122.98474069 0 40.54430685 0 16015
0.11950000 0.11950300 14077.13232793 0 68.90329879 0 4297.78931231 0 59.22985149 0 923.34663297 0 15270
0.12050000 0.12050700 13947.03251131 0 114.31732482 0 4325.61406458 0 32.68638865 0 726.05773489 0 15999
0.12150000 0.12150000 14007.15523508 0 70.80973168 0 4209.45430490 0 -74.81459157 0 430.69239803 0 15670
0.12250000 0.12250700 14009.70186978 0 103.79341225 0 3880.37373897 0 230.91776302 0 15.13077476 0 16887
0.12350000 0.12352200 13779.39751356 0 161.44224648 0 4215.79874702 0 -639.06469326 0 -208.88494387 0 16407
0.12450000 0.12449800 13777.29377184 0 144.23142479 0 3898.37733912 0 -346.03008077 0 -362.09270238 0 16306
0.12550000 0.12549900 13768.54663523 0 103.66364461 0 4476.80665997 0 -454.08600591 0 -821.81784332 0 17523
0.12650000 0.12650100 13393.63771688 0 334.70530694 0 3923.16827439 0 252.45343480 0 -607.32698140 0 17154
0.12750000 0.12750600 13387.32649173 0 61.11879011 0 4026.90488562 0 723.27968859 0 -414.11159161 0 18007
0.12850000 0.12850300 13406.81378341 0 -112.74173300 0 3584.59872609 0 342.17248280 0 -573.26075963 0 17496
0.12950000 0.12949900 13557.28667770 0 35.33577453 0 3694.87908128 0 634.85610259 0 -219.09584181 0 18405
0.13050000 0.13049000 13181.04908036 0 402.36274775 0 3682.50022213 0 400.82037290 0 -82.14956387 0 18100
0.13150000 0.13148800 13101.99268115 0 262.92231791 0 3340.97436310 0 254.23829356 0 511.07636898 0 19059
0.13250000 0.13249300 12747.45684046 0 231.67843174 0 4026.40663100 0 -10.45596171 0 798.91363220 0 18957
0.13350000 0.13349100 12479.61730310 0 440.96419376 0 4018.15774901 0 351.96706134 0 1061.69976051 0 19468
0.13450000 0.13450700 12335.67708045 0 229.12626087 0 4235.78429332 0 -3.67139468 0 1520.04196808 0 19953
0.13550000 0.13551000 12035.61707787 0 215.44086739 0 3873.73034408 0 344.57849898 0 2035.69120721 0 19956
0.13650000 0.13649900 12054.32930681 0 -35.40885188 0 4001.16173041 0 598.24988951 0 1924.43648743 0 19723
0.13750000 0.13749600 11971.95121016 0 14.11477823 0 3666.83288252 0 221.45424700 0 1637.35324953 0 20946
0.13850000 0.13851100 11999.63202221 0 340.88920035 0 3558.34624394 0 185.31307156 0 1612.59553124 0 20955
0.13950000 0.13949800 11586.52358322 0 210.07300432 0 3342.94523692 0 -192.08933435 0 1342.24257614 0 20506
0.14050000 0.14048300 11480.89360445 0 139.20791101 0 3119.55001138 0 204.19802877 0 1176.56737988 0 21447
0.14150000 0.14148400 11318.35187612 0 1.94442203 0 3524.35420675 0 69.50253301 0 556.97558428 0 21771
0.14250000 0.14249400 11237.96679793 0 309.89444149 0 3159.14464493 0 217.37409530 0 280.03902485 0 22470
0.14350000 0.14350900 10978.29863629 0 411.78086724 0 3513.56976238 0 -285.10793515 0 635.90354452 0 22519
0.14450000 0.14449900 10736.82230432 0 333.89370553 0 3387.99852661 0 -166.37718165 0 569.85380528 0 22218
0.14550000 0.14550500 10620.39680885 0 63.66011010 0 3333.67770105 0 -154.25852214 0 218.22998601 0 23559
0.14650000 0.14650700 10524.21152315 0 118.44065859 0 3488.78989943 0 -9.58751499 0 259.45778748 0 23044
0.14750000 0.14750500 10585.69614287 0 43.73557231 0 3555.65566901 0 -48.04503185 0 -297.29081415 0 23649
0.14850000 0.14849900 10402.10592505 0 23.93891987 0 3312.58492227 0 -70.37503221 0 -133.31632698 0 23640
0.14950000 0.14949500 10383.09474334 0 131.32552298 0 3346.39980226 0 168.90720788 0 -635.91018791 0 24457
0.15050000 0.15050000 10185.56446857 0 199.59304888 0 3116.20616928 0 115.29611834 0 -237.21459415 0 24591
0.15150000 0.15149900 10232.27860698 0 59.50665961 0 3159.53217630 0 219.09916351 0 -199.81892430 0 25020
0.15250000 0.15250500 10136.97910727 0 -40.04372705 0 2877.24325505 0 589.96446885 0 207.47543692 0 25297
0.15350000 0.15350100 10252.60739535 0 -50.02033460 0 3023.02148361 0 249.81489979 0 -108.76178584 0 25452
0.15450000 0.15450400 10161.28286024 0 160.83437585 0 3114.00277665 0 -20.73381401 0 35.44970876 0 26061
0.15550000 0.15549900 10017.23191435 0 331.84532544 0 3214.26267788 0 -197.22578583 0 359.13639166 0 26128
0.15650000 0.15649500 9730.15974878 0 237.53901326 0 3395.85987723 0 -303.92978011 0 514.34159757 0 26331
0.15750000 0.15749700 9666.30565155 0 161.60611689 0 3598.97060370 0 -307.69990671 0 235.95013465 0 27345
0.15850000 0.15849900 9467.32490223 0 184.13829790 0 3502.89604125 0 -18.68244439 0 141.24632601 0 26980
0.15950000 0.15949700 9385.78830227 0 228.75865968 0 3636.89331621 0 7.57245152 0 36.76499022 0 27777
0.16050000 0.16050000 9218.60726983 0 113.21341404 0 3832.88453782 0 -3.83081401 0 34.34491219 0 28224
0.16150000 0.16150500 9225.02921823 0 158.97090358 0 3648.47496797 0 136.73324642 0 -99.78046957 0 28075
0.16250000 0.16249700 9037.14293838 0 176.75748617 0 3516.79180890 0 332.16310116 0 265.29068819 0 28590
0.16350000 0.16349900 8956.12673768 0 125.12834278 0 3371.10215893 0 185.68288721 0 260.58716461 0 29163
0.16450000 0.16449100 8951.36563801 0 -35.80557328 0 3332.64797484 0 386.45403145 0 186.23539622 0 28996
0.16550000 0.16550500 8807.09324562 0 28.08517335 0 3121.91948889 0 169.77638537 0 165.60101169 0 30777
0.16650000 0.16650700 8757.66638763 0 226.17880800 0 2908.88795938 0 188.34467410 0 27.68701255 0 29211
0.16750000 0.16749900 8631.80727142 0 51.00931465 0 2842.99655438 0 31.56276913 0 233.44446755 0 30922
0.16850000 0.16850800 8633.04737180 0 -38.33094912 0 2449.28682848 0 222.84271653 0 -107.50950591 0 30867
0.16950000 0.16949900 8636.96697479 0 1.95966863 0 2620.46497018 0 409.68155445 0 -88.44683788 0 30852
0.17050000 0.17049200 8667.15013224 0 12.62854007 0 2286.87796804 0 216.34990526 0 -325.60828487 0 31257
0.17150000 0.17149500 8440.24497973 0 190.87802201 0 2313.98301920 0 291.58745963 0 -131.00553279 0 32608
0.17250000 0.17250900 8372.27197767 0 235.46959576 0 2137.56766786 0 0.76416203 0 -32.66823004 0 32361
0.17350000 0.17350400 8125.52521909 0 249.26239078 0 2272.60574135 0 204.87011889 0 348.27886994 0 32508
0.17450000 0.17449800 8054.06443471 0 149.42988129 0 2274.64304912 0 -109.39800163 0 323.31631363 0 32791
0.17550000 0.17549800 7908.09797662 0 119.91881395 0 2499.77662966 0 -194.10117577 0 300.34345410 0 33633
0.17650000 0.17650100 7885.15611960 0 122.46212696 0 2431.29430065 0 4.89426652 0 289.39624655 0 33984
0.17750000 0.17750300 7890.01687019 0 60.46851247 0 2475.06320066 0 17.57576552 0 296.76820042 0 34069
0.17850000 0.17849800 7803.94061705 0 27.28010461 0 2337.93245778 0 99.44165643 0 405.10093367 0 34536
