### header ###
fiducial parameters:
Omega_m = 0.31
Omega_nu = 0
Omega_de = 0.69
Omega_k = 0
H_0 = 100
w_de = -1
zeff = 0
beta = 0
fgrowth = 0
b_1 = 2
gamma = 0.55
Lx = 3500 Ly = 3500 Lz = 3500
nx = 700 ny = 700 nz = 700
xoffset = -685.467585 yoffset = -31.7331281 zoffset = 572.489161
bins = 400 dk = 0.001
kx_ny = 0.628318531 ky_ny = 0.628318531 kz_ny = 0.628318531
############################
A(data) = 8.09847668 (not used)
A(ran) = 8.09603309 (used)
Ngal = 481687
weighted Ngal = 0
Nran = 23820508
weighted Nran = 0
SN(data) = 3488.27583
SN(ran) = 70.5193843
SN(data+ran) = 3558.79521
############################
13 columns: k_central k_mean P_0(k) sigma^{lin}_{P_0(k)} P^img_1(k) sigma^{lin}_{P_1(k)} P_2(k) sigma^{lin}_{P_2(k)} P^img_3(k) sigma^{lin}_{P_3(k)} P_4(k) sigma^{lin}_{P_4(k)} N_modes
### header ###
0.00050000 0 0 0 0 0 0 0 0 0 0 0 0
0.00150000 0.00179520 102281.04340524 0 -112387.41860671 0 32978.91947234 0 59986.97706297 0 -209128.53501218 0 3
0.00250000 0.00253879 146390.52812477 0 -61918.87629733 0 37925.36986182 0 20615.11868684 0 174546.34290610 0 6
0.00350000 0.00331552 147356.03484895 0 18603.60943704 0 76367.26367643 0 -149899.34785980 0 32919.90398105 0 7
0.00450000 0.00420575 117678.88263754 0 69938.22899373 0 27881.22112583 0 -18323.36889588 0 85822.69690181 0 24
0.00550000 0.00557378 59475.21420986 0 27380.41987429 0 20087.63313248 0 33402.76806640 0 34262.31264207 0 45
0.00650000 0.00659388 60087.62449557 0 2628.37061010 0 8510.28850653 0 42675.61865552 0 -122.16649589 0 40
0.00750000 0.00754703 63429.47357234 0 -14026.08891052 0 25367.91411525 0 51079.84536261 0 -23795.53326775 0 57
0.00850000 0.00846663 78085.13487204 0 -15532.03580910 0 3409.09130539 0 27412.64033951 0 -22085.63414601 0 75
0.00950000 0.00948925 70475.79036368 0 7793.99766937 0 -3036.25291177 0 7589.12644325 0 13475.46219729 0 112
0.01050000 0.01054430 61153.22503612 0 8866.58484687 0 -15424.96642810 0 17886.34423529 0 21373.46221367 0 105
0.01150000 0.01145670 50619.90098965 0 4450.46559923 0 -18504.29068342 0 21817.79460865 0 17679.95610067 0 144
0.01250000 0.01249090 55108.95364087 0 -9988.93105212 0 -29502.87381877 0 9011.78731455 0 10434.00529285 0 169
0.01350000 0.01339930 62206.20312637 0 -4882.59629225 0 -31777.12933652 0 -3288.33653092 0 16828.60504536 0 180
0.01450000 0.01448870 62844.30120567 0 -5080.14871167 0 -11072.05908285 0 -15731.78054883 0 18855.72627316 0 267
0.01550000 0.01550050 73265.35187849 0 125.00654720 0 -8136.81899040 0 -29090.87261227 0 38913.68557513 0 238
0.01650000 0.01653350 71909.43498119 0 6554.53948452 0 14508.39937962 0 -14994.25299266 0 31306.44480848 0 315
0.01750000 0.01747870 72756.68927632 0 1372.96827751 0 17684.82792359 0 -8824.78682068 0 22032.59771013 0 297
0.01850000 0.01844180 72645.96602813 0 2114.58152154 0 25636.19654560 0 -1072.45098791 0 24148.74042947 0 388
0.01950000 0.01947590 73452.03127493 0 -5465.84207440 0 26783.51084331 0 24207.64519750 0 28370.50715957 0 399
0.02050000 0.02045430 75247.85163726 0 -1819.20511235 0 14422.14596928 0 15300.07060415 0 17364.17339684 0 462
0.02150000 0.02154770 77964.33580827 0 -1110.14450329 0 14391.03273654 0 18181.53241495 0 22366.87119640 0 571
0.02250000 0.02255340 79113.86457094 0 2100.63039227 0 11434.50056346 0 9398.96436880 0 13496.83178419 0 510
0.02350000 0.02348930 71418.48809874 0 6390.85730672 0 14854.85242319 0 3079.04744719 0 22065.48251484 0 555
0.02450000 0.02439640 71518.80336159 0 6240.94910100 0 16559.10465928 0 -9047.89416578 0 12036.61358710 0 592
0.02550000 0.02547300 64510.46464438 0 2849.88354042 0 20986.37373801 0 -8797.26102118 0 24322.35448262 0 837
0.02650000 0.02652900 64820.26829281 0 -482.90726741 0 21718.25440853 0 -5094.24378116 0 12794.18205119 0 723
0.02750000 0.02749970 68605.67470181 0 -3031.15964235 0 24034.80620708 0 4783.82008255 0 9678.72880000 0 826
0.02850000 0.02848090 71105.36275286 0 -2478.00843906 0 17448.76595846 0 544.40960285 0 -3069.70240505 0 831
0.02950000 0.02946900 69218.41715727 0 2669.74788795 0 18540.16501583 0 3127.78782104 0 -6942.50267384 0 996
0.03050000 0.03053250 66902.08680521 0 5236.32385323 0 15274.16136407 0 -538.83468730 0 -13766.77506326 0 1041
0.03150000 0.03150510 61722.89614804 0 5675.10901347 0 18214.30649642 0 -6186.01929758 0 -6588.02219477 0 1036
0.03250000 0.03246190 58327.34629591 0 7256.58023964 0 23099.96982265 0 -6345.20611150 0 -9567.23048907 0 1059
0.03350000 0.03345080 53135.20101870 0 2905.94272098 0 28202.65071532 0 390.38027783 0 -3006.51264731 0 1302
0.03450000 0.03451200 51857.89762762 0 3089.34470927 0 31189.29961190 0 2275.06379746 0 3583.77937405 0 1339
0.03550000 0.03553350 49595.93239042 0 1363.92218814 0 32525.61849426 0 6208.47397231 0 4325.31511181 0 1365
0.03650000 0.03647120 48734.50551953 0 310.88320010 0 31035.06212718 0 5549.60421165 0 5310.61915277 0 1308
0.03750000 0.03744890 48381.40908106 0 861.33718506 0 29132.39383034 0 7834.55559518 0 -1100.42853826 0 1579
0.03850000 0.03847530 46954.74002818 0 -283.41165499 0 22746.31976794 0 3555.97676643 0 2548.35091864 0 1662
0.03950000 0.03950240 45923.13152482 0 180.83320894 0 16150.09298048 0 3632.54189255 0 -5198.89939535 0 1683
0.04050000 0.04050350 46487.26647433 0 -488.28731004 0 12446.28960539 0 549.03783462 0 -10538.79377494 0 1822
0.04150000 0.04152450 44832.83969993 0 2028.62706397 0 12930.37164646 0 -2242.14577578 0 -16920.61606461 0 1887
0.04250000 0.04250150 43210.74411400 0 3229.22138871 0 11593.16697812 0 -3947.27272552 0 -12831.60650908 0 1920
0.04350000 0.04349210 40660.23409203 0 2242.10148648 0 11751.05833003 0 -759.41864957 0 -12097.95426660 0 2005
0.04450000 0.04448520 40411.66039985 0 993.80980089 0 14512.38541655 0 2614.76272290 0 -8670.10644297 0 2151
0.04550000 0.04548030 38848.35885870 0 -183.02774372 0 14776.90325647 0 1265.57779910 0 -11065.61498981 0 2274
0.04650000 0.04648670 40410.77461386 0 -1065.17647051 0 17005.31934947 0 -1003.68852909 0 -8273.16359822 0 2311
0.04750000 0.04749250 39498.74721855 0 200.36811162 0 16756.30276430 0 98.70435032 0 -4922.43451695 0 2568
0.04850000 0.04851840 39902.00128844 0 177.90457902 0 12578.38244048 0 2164.28518765 0 -5732.75153648 0 2493
0.04950000 0.04949480 39101.47220406 0 -168.86513304 0 13879.38060667 0 2621.86008311 0 -4828.26439437 0 2644
0.05050000 0.05050630 40119.01885489 0 235.63678786 0 11159.13184522 0 4450.80884130 0 -9788.07907991 0 2829
0.05150000 0.05149060 38291.42092032 0 1556.52527836 0 9465.15472657 0 1452.08003834 0 -5507.05326737 0 2784
0.05250000 0.05249300 36811.82615481 0 2478.37382578 0 10416.97605728 0 1544.24607013 0 -5222.33950699 0 3055
0.05350000 0.05348950 34841.28450683 0 2028.66028095 0 8628.07589796 0 902.29482180 0 2871.40813987 0 3009
0.05450000 0.05448610 34420.75761022 0 167.07363089 0 12297.47755983 0 1214.42365843 0 1037.79128953 0 3336
0.05550000 0.05550870 34300.73360919 0 180.68705425 0 11338.39278404 0 1480.11516478 0 4482.34282238 0 3349
0.05650000 0.05647670 35132.59737281 0 659.11778073 0 13668.00992588 0 220.56071039 0 3842.22957997 0 3324
0.05750000 0.05747970 34252.34754973 0 74.20063116 0 14956.82853477 0 868.82872003 0 7910.23493531 0 3639
0.05850000 0.05849280 35084.10059011 0 24.71376116 0 13362.30303764 0 1779.41117696 0 7211.89233668 0 3846
0.05950000 0.05951020 35252.17848085 0 -403.08355609 0 12546.27269850 0 2365.59112518 0 5877.42253256 0 3787
0.06050000 0.06049470 35518.46789274 0 -109.13957357 0 11745.41144437 0 1401.83382831 0 7487.11711469 0 3930
0.06150000 0.06148310 35104.80583752 0 886.18126749 0 12104.15476850 0 -89.40858002 0 4999.71934418 0 4083
0.06250000 0.06249100 34138.52405059 0 2360.74144691 0 12346.19578903 0 -797.18524229 0 7377.02498902 0 4303
0.06350000 0.06350600 32424.74961516 0 744.68138524 0 14320.16985770 0 -2727.41255560 0 4783.11145376 0 4470
0.06450000 0.06451750 31974.65961129 0 754.92328569 0 15134.20717837 0 1166.92338496 0 4740.60479878 0 4479
0.06550000 0.06550280 31590.89283307 0 630.61208049 0 16656.43039443 0 -713.93464645 0 4147.58215382 0 4636
0.06650000 0.06648880 31298.80490436 0 379.17951404 0 13872.95865827 0 25.77006095 0 2586.40649904 0 4653
0.06750000 0.06749660 31662.53077465 0 -714.52369413 0 14268.24065430 0 2827.81639706 0 2862.83816046 0 5220
0.06850000 0.06852730 31906.45409040 0 -511.36535666 0 11633.13807071 0 3333.52268850 0 676.50797409 0 5029
0.06950000 0.06949320 31970.89502085 0 391.85178980 0 11217.04010403 0 1997.42525263 0 926.36384149 0 5040
0.07050000 0.07048030 30570.13520804 0 1728.69992929 0 10633.62823701 0 -322.59661252 0 -117.46407954 0 5475
0.07150000 0.07148790 29873.24308396 0 1425.28501228 0 10785.85055861 0 550.39087271 0 3076.36794459 0 5509
0.07250000 0.07249820 28414.68573560 0 -113.33742408 0 10172.41054669 0 805.58913683 0 2508.15837954 0 5916
0.07350000 0.07351270 29695.42154737 0 -695.92329566 0 10791.88497564 0 2372.62205144 0 906.64513822 0 5721
0.07450000 0.07449140 29626.21951725 0 -444.60366693 0 10028.72498751 0 669.72396068 0 2567.90464427 0 6028
0.07550000 0.07549160 29785.55027139 0 860.30081546 0 10559.38829910 0 -273.66358022 0 2733.28088776 0 6183
0.07650000 0.07648840 28933.20270685 0 1095.76819675 0 9972.75438556 0 1180.05516220 0 5074.90042970 0 6330
0.07750000 0.07749960 28353.34505610 0 6.91897398 0 9838.84568920 0 990.41170440 0 2822.53489812 0 6583
0.07850000 0.07848650 27927.39272033 0 864.80503719 0 10087.47474300 0 -1215.50874627 0 3587.68790471 0 6549
0.07950000 0.07947320 26511.46382252 0 2128.94232683 0 9977.77014870 0 269.54135369 0 706.08104645 0 6828
0.08050000 0.08048110 25614.05189597 0 959.92737971 0 10836.03033469 0 -1315.56934565 0 3346.84269526 0 7147
0.08150000 0.08149960 24765.57964511 0 391.95919135 0 10270.11274089 0 2400.05927234 0 1881.25442064 0 7386
0.08250000 0.08250610 24193.58334498 0 252.83100107 0 9389.67468828 0 1478.15536329 0 671.69040557 0 7227
0.08350000 0.08350160 23578.84787105 0 869.97470565 0 8617.09215174 0 974.56388589 0 383.90739674 0 7798
0.08450000 0.08449610 23000.20817603 0 761.06731873 0 8192.28026542 0 315.17040427 0 152.51463098 0 7371
0.08550000 0.08548940 22225.69905497 0 518.69745015 0 7666.55521070 0 69.62964330 0 1787.68220359 0 8256
0.08650000 0.08650700 22182.18481843 0 109.03460793 0 6925.84989731 0 699.85950714 0 339.19845635 0 8037
0.08750000 0.08749060 21825.87740576 0 -269.81705458 0 7222.69892570 0 947.77107429 0 421.67952563 0 8155
0.08850000 0.08849210 22258.25168993 0 96.99777289 0 6208.35217674 0 -118.20592530 0 -1856.06488167 0 8718
0.08950000 0.08949900 21651.15612013 0 756.94730667 0 6344.91823105 0 201.79422705 0 -861.95612802 0 8571
0.09050000 0.09049190 21207.70951114 0 989.73629259 0 5948.98296786 0 -419.04763402 0 -642.82153307 0 8932
0.09150000 0.09150830 20376.06719401 0 571.15923237 0 6815.49203584 0 -97.88765564 0 986.58843064 0 9285
0.09250000 0.09250820 20110.77429136 0 140.31403626 0 6061.76566846 0 1513.23248831 0 -66.69171263 0 9204
0.09350000 0.09350330 20019.53833485 0 -95.04007514 0 7232.08825715 0 9.66094665 0 -541.47211507 0 9349
0.09450000 0.09448040 20068.25656405 0 309.04851587 0 6560.04242995 0 -68.41467710 0 -128.03039911 0 9564
0.09550000 0.09549270 19651.49425788 0 428.49011262 0 6867.39909459 0 20.58588775 0 -184.92332573 0 10155
0.09650000 0.09649430 19284.00379715 0 70.29287556 0 6303.37486833 0 435.75355770 0 620.64366645 0 9913
0.09750000 0.09749140 19590.48574813 0 -304.35163569 0 6384.28034578 0 1211.83273443 0 -845.44507725 0 10476
0.09850000 0.09850240 19280.01776021 0 283.54120119 0 5630.49861678 0 392.21939098 0 -1934.77803881 0 10575
0.09950000 0.09950330 18790.39955673 0 1035.29780198 0 5360.13458936 0 132.41614697 0 -1208.62176023 0 10882
0.10050000 0.10051200 17673.31270578 0 1020.17411351 0 4929.69796203 0 -472.86023987 0 -76.82377563 0 10875
0.10150000 0.10150300 17087.69744612 0 685.32043742 0 4790.12023537 0 263.20909112 0 6.23294381 0 11118
0.10250000 0.10250800 16836.46639599 0 58.85117798 0 4617.59127004 0 1121.94760155 0 343.24096215 0 11575
0.10350000 0.10349800 16917.18364391 0 -189.63570717 0 4857.60605514 0 619.95496785 0 356.22437023 0 11364
0.10450000 0.10450100 16976.30985844 0 128.58512258 0 4861.69174300 0 223.24574916 0 141.89627148 0 12093
0.10550000 0.10551000 16656.76256418 0 514.56415130 0 5157.54426215 0 17.48342234 0 1536.37364719 0 12067
0.10650000 0.10649700 16574.16302103 0 747.11618946 0 5651.90142065 0 -654.18838173 0 1561.62962010 0 12054
0.10750000 0.10749900 16034.83007912 0 151.84143363 0 5396.36323616 0 2.02921390 0 2837.95864659 0 12807
0.10850000 0.10850100 15968.39613020 0 -5.23891478 0 5958.13978049 0 448.08812755 0 2455.90807872 0 12736
0.10950000 0.10950300 16257.93742421 0 -55.97802042 0 6314.28110828 0 469.36359969 0 1546.80377716 0 12933
0.11050000 0.11050200 16215.41969691 0 -204.39843785 0 5621.06499603 0 434.63857459 0 1083.29079391 0 13428
0.11150000 0.11150900 16239.33591852 0 152.81469098 0 5404.85570930 0 -299.28826155 0 801.65181812 0 13453
0.11250000 0.11250000 16201.46856764 0 105.68257231 0 5361.00930302 0 37.34318702 0 756.68378534 0 13668
0.11350000 0.11349100 15910.59859465 0 154.66819816 0 5300.31081836 0 -135.51196899 0 463.70232001 0 13791
0.11450000 0.11448600 15984.56172444 0 188.86064443 0 5277.13644252 0 490.31908164 0 969.93676135 0 14205
0.11550000 0.11549300 15656.59946331 0 244.61201436 0 4914.47351541 0 648.50938633 0 433.41951163 0 14776
0.11650000 0.11649800 15468.14849490 0 333.65122162 0 4834.57561951 0 318.58843094 0 946.31617081 0 14553
0.11750000 0.11747300 15315.46113565 0 184.40403369 0 4383.90985475 0 531.72957646 0 548.45100140 0 14568
0.11850000 0.11849100 15081.72435873 0 -42.41586192 0 4121.29645470 0 85.73998664 0 93.54409334 0 16015
0.11950000 0.11950300 15181.92889834 0 21.98454382 0 4066.52166382 0 -397.71790749 0 -244.35292196 0 15270
0.12050000 0.12050700 14990.48840222 0 297.07933274 0 3818.12512884 0 -324.86533188 0 -951.24999875 0 15999
0.12150000 0.12150000 14579.26225846 0 609.40747123 0 4130.97366659 0 -514.90296444 0 -1021.26030858 0 15670
0.12250000 0.12250700 13983.57118321 0 598.50344575 0 3541.75990136 0 -222.05104531 0 -1902.28076547 0 16887
0.12350000 0.12352200 13579.98494357 0 269.94106461 0 3886.26421577 0 360.64887123 0 -2182.14484758 0 16407
0.12450000 0.12449800 13355.65964275 0 200.94387251 0 3724.46433320 0 637.94971015 0 -2471.91866041 0 16306
0.12550000 0.12549900 13216.81268952 0 146.04950052 0 3695.44376985 0 351.66921580 0 -2497.25213960 0 17523
0.12650000 0.12650100 13153.58971481 0 108.58562516 0 3905.02073401 0 -51.44578570 0 -1635.76990708 0 17154
0.12750000 0.12750600 13051.94577297 0 74.85699857 0 3779.46057057 0 151.17266521 0 -688.96323228 0 18007
0.12850000 0.12850300 13240.17529489 0 67.93048433 0 4267.13004488 0 213.41463195 0 -99.18433560 0 17496
0.12950000 0.12949900 13209.61567839 0 163.02669616 0 4154.50235683 0 518.79931554 0 565.52009734 0 18405
0.13050000 0.13049000 13208.84061565 0 99.70473487 0 4376.26995062 0 535.85180299 0 924.62216479 0 18100
0.13150000 0.13148800 12901.14070894 0 149.80855480 0 4015.43395711 0 486.98520464 0 854.04384470 0 19059
0.13250000 0.13249300 12925.27837705 0 135.99029342 0 3849.60374830 0 -14.21642217 0 318.90288496 0 18957
0.13350000 0.13349100 12546.16197526 0 284.53771042 0 3845.70628996 0 -215.22717152 0 119.51467409 0 19468
0.13450000 0.13450700 12467.99136204 0 249.49048067 0 3753.13058215 0 -371.37131058 0 258.39816599 0 19953
0.13550000 0.13551000 12193.61915303 0 145.12385417 0 3695.97524144 0 78.17061322 0 -71.85905590 0 19956
0.13650000 0.13649900 12190.29745559 0 111.83380237 0 3636.94867783 0 -2.97343961 0 -371.94707147 0 19723
0.13750000 0.13749600 12085.44253955 0 72.20683763 0 3330.95390914 0 343.44801462 0 -353.31345603 0 20946
0.13850000 0.13851100 12039.27094506 0 103.77060326 0 3763.48320586 0 222.93240236 0 -416.27512388 0 20955
0.13950000 0.13949800 11942.27737965 0 56.17798660 0 3237.60313860 0 -92.25250665 0 -416.50210654 0 20506
0.14050000 0.14048300 11906.40304723 0 160.94731356 0 3692.52067610 0 56.38083159 0 46.12542290 0 21447
0.14150000 0.14148400 11781.61794653 0 233.78549515 0 3682.27877564 0 -69.64115852 0 77.34140681 0 21771
0.14250000 0.14249400 11478.67913949 0 119.84795107 0 3257.35616607 0 473.65523279 0 -203.66323548 0 22470
0.14350000 0.14350900 11484.99036464 0 215.85829404 0 3474.19657532 0 264.11591453 0 -378.86727448 0 22519
0.14450000 0.14449900 11147.94879716 0 391.06786920 0 3442.46329239 0 -15.46427318 0 -187.41902774 0 22218
0.14550000 0.14550500 10947.69473049 0 285.29727190 0 3271.81662229 0 129.62592112 0 105.15597254 0 23559
0.14650000 0.14650700 10737.91846447 0 50.28407738 0 3363.39582086 0 180.83320894 0 -30.63125444 0 23044
0.14750000 0.14750500 10642.91791753 0 20.32690607 0 3163.59571951 0 321.67650233 0 123.43649154 0 23649
0.14850000 0.14849900 10643.40509982 0 43.56561212 0 3106.28536625 0 303.22115132 0 -164.76615839 0 23640
0.14950000 0.14949500 10655.75074199 0 240.20855078 0 2814.24172683 0 159.86554743 0 380.91344011 0 24457
0.15050000 0.15050000 10303.94976553 0 171.54020672 0 2824.73829076 0 133.86994322 0 37.64147545 0 24591
0.15150000 0.15149900 10159.92096429 0 288.11517857 0 2862.50599071 0 131.51485973 0 181.81532415 0 25020
0.15250000 0.15250500 10012.30472981 0 179.05388634 0 2754.77227023 0 104.61365007 0 -68.16721064 0 25297
0.15350000 0.15350100 9704.17300243 0 100.32910326 0 2717.17065515 0 11.48676194 0 -111.17278457 0 25452
0.15450000 0.15450400 9914.18178727 0 61.95840450 0 2658.26588711 0 -120.52668458 0 -39.04766071 0 26061
0.15550000 0.15549900 9800.39150510 0 -23.48085780 0 2559.19072463 0 187.30166110 0 126.03959511 0 26128
0.15650000 0.15649500 9841.83521690 0 80.67716611 0 2791.17807423 0 -52.27576717 0 -212.79458176 0 26331
0.15750000 0.15749700 9718.34557820 0 269.20586225 0 2767.51651610 0 -189.18284908 0 -180.03046539 0 27345
0.15850000 0.15849900 9490.83144782 0 241.17184304 0 2912.27609077 0 -155.64256274 0 -394.54790089 0 26980
0.15950000 0.15949700 9305.41429641 0 229.45289445 0 3159.64289955 0 -63.82254110 0 -153.00292051 0 27777
0.16050000 0.16050000 9211.34382475 0 24.04001020 0 2968.34634366 0 146.56879255 0 -46.72897533 0 28224
0.16150000 0.16150500 9178.30400749 0 13.92942751 0 2889.44495700 0 435.25087416 0 -91.47987982 0 28075
0.16250000 0.16249700 9254.75841037 0 -5.49571521 0 2751.22912629 0 499.31977449 0 -163.62903063 0 28590
0.16350000 0.16349900 9098.56112415 0 120.52889905 0 2463.27117473 0 288.44734832 0 -305.55741186 0 29163
0.16450000 0.16449100 8940.80264013 0 195.98014929 0 2185.37796643 0 274.68001964 0 19.73675116 0 28996
0.16550000 0.16550500 8815.19818739 0 64.99100354 0 2273.97870963 0 -46.34321553 0 -155.36354016 0 30777
0.16650000 0.16650700 8742.91805097 0 196.54815955 0 2215.37289436 0 -144.57909578 0 -143.88153932 0 29211
0.16750000 0.16749900 8676.55053601 0 250.16921418 0 2278.42978421 0 -149.36898350 0 17.43702929 0 30922
0.16850000 0.16850800 8568.62858600 0 36.13098890 0 2420.58736255 0 -68.49705520 0 367.35205667 0 30867
0.16950000 0.16949900 8535.03515250 0 122.70903980 0 2523.41604314 0 -67.19317822 0 241.71660142 0 30852
0.17050000 0.17049200 8577.16534844 0 97.60863306 0 2614.57449338 0 247.61815055 0 256.31878339 0 31257
0.17150000 0.17149500 8311.77279486 0 189.91362252 0 2667.48913368 0 -152.13374301 0 55.93018797 0 32608
0.17250000 0.17250900 8241.80677433 0 248.26477432 0 2501.20495956 0 -126.37619378 0 307.68219099 0 32361
0.17350000 0.17350400 8124.90516890 0 72.82921300 0 2906.41883095 0 80.12244264 0 248.31238531 0 32508
0.17450000 0.17449800 8053.46652917 0 -12.78620998 0 2496.39957059 0 88.29127172 0 483.12982114 0 32791
0.17550000 0.17549800 8192.26919309 0 -35.26435804 0 2738.17485533 0 396.64167751 0 217.66751191 0 33633
0.17650000 0.17650100 8202.71039540 0 -34.89908204 0 2549.87889946 0 243.59557494 0 467.68392801 0 33984
0.17750000 0.17750300 8140.87146129 0 81.64632670 0 2653.39406419 0 -76.83750531 0 311.82213324 0 34069
0.17850000 0.17849800 8145.02358309 0 192.08047649 0 2678.63896478 0 86.99259874 0 507.74138474 0 34536
