### header ###
fiducial parameters:
Omega_m = 0.31
Omega_nu = 0
Omega_de = 0.69
Omega_k = 0
H_0 = 100
w_de = -1
zeff = 0
beta = 0
fgrowth = 0
b_1 = 2
gamma = 0.55
Lx = 3500 Ly = 3500 Lz = 3500
nx = 700 ny = 700 nz = 700
xoffset = -685.467585 yoffset = -31.7331281 zoffset = 572.489161
bins = 400 dk = 0.001
kx_ny = 0.628318531 ky_ny = 0.628318531 kz_ny = 0.628318531
############################
A(data) = 7.98002632 (not used)
A(ran) = 7.97551729 (used)
Ngal = 473538
weighted Ngal = 0
Nran = 23820508
weighted Nran = 0
SN(data) = 3489.29125
SN(ran) = 69.4696481
SN(data+ran) = 3558.7609
############################
13 columns: k_central k_mean P_0(k) sigma^{lin}_{P_0(k)} P^img_1(k) sigma^{lin}_{P_1(k)} P_2(k) sigma^{lin}_{P_2(k)} P^img_3(k) sigma^{lin}_{P_3(k)} P_4(k) sigma^{lin}_{P_4(k)} N_modes
### header ###
0.00050000 0 0 0 0 0 0 0 0 0 0 0 0
0.00150000 0.00179520 39118.19141453 0 -59561.35689694 0 -36092.12504160 0 -16170.24461165 0 -42647.27350398 0 3
0.00250000 0.00253879 51406.25749827 0 -35553.67788567 0 6188.00124372 0 -32917.91096259 0 60001.03891549 0 6
0.00350000 0.00331552 66025.93374231 0 4149.66375088 0 8001.50410879 0 -41625.40864647 0 38064.88115454 0 7
0.00450000 0.00420575 59338.13882860 0 32581.75518109 0 28722.71781205 0 -43989.23927200 0 49375.59312653 0 24
0.00550000 0.00557378 47854.14497320 0 -6622.06959359 0 21353.19985926 0 7740.99445046 0 9317.41669651 0 45
0.00650000 0.00659388 46134.83437536 0 -19792.77712256 0 52004.16303847 0 21305.58886254 0 -3603.43275060 0 40
0.00750000 0.00754703 74932.40110318 0 -11178.50841366 0 18888.16818488 0 10188.07788630 0 -45109.09420416 0 57
0.00850000 0.00846663 59038.18954926 0 5244.35128873 0 11676.98447699 0 6216.37961223 0 -61928.06632693 0 75
0.00950000 0.00948925 62439.71845680 0 7734.97110576 0 4318.92638039 0 -28322.34254661 0 -26190.47712603 0 112
0.01050000 0.01054430 71951.84198525 0 -9410.56816521 0 -10125.45281713 0 -8718.01639246 0 -20522.88622111 0 105
0.01150000 0.01145670 73659.19447229 0 -15847.92923618 0 -12902.80155766 0 3204.41938111 0 -38263.29721529 0 144
0.01250000 0.01249090 85555.18953419 0 -5310.13197048 0 -4860.61772749 0 -11731.34959185 0 -50940.00190015 0 169
0.01350000 0.01339930 82431.13308661 0 4764.43244179 0 7830.91280031 0 -5611.48743506 0 -25590.24639761 0 180
0.01450000 0.01448870 74276.80875067 0 11457.75244558 0 1854.47046690 0 -6353.23354699 0 -5647.68286490 0 267
0.01550000 0.01550050 67946.31775886 0 10711.73241628 0 3181.12320970 0 17509.99591470 0 -14066.61361935 0 238
0.01650000 0.01653350 71184.64059857 0 -10148.09572138 0 1238.64990514 0 5366.84441820 0 -12852.86537273 0 315
0.01750000 0.01747870 75628.73961103 0 -13798.10974250 0 4271.11608182 0 2957.90514135 0 -12048.68242115 0 297
0.01850000 0.01844180 84240.46168522 0 -963.28783029 0 16014.45700145 0 -6467.38921587 0 -9183.06510717 0 388
0.01950000 0.01947590 81359.88566041 0 8404.24885175 0 10979.09584367 0 -15588.83683542 0 -10832.39861215 0 399
0.02050000 0.02045430 77768.24493573 0 11490.85869679 0 12072.04502652 0 -10730.69930869 0 -7296.57347689 0 462
0.02150000 0.02154770 73883.96266610 0 -445.65996672 0 17401.04423849 0 -11130.12235420 0 -4723.44269531 0 571
0.02250000 0.02255340 74744.28230451 0 -4839.60245498 0 20727.61350700 0 7229.92915381 0 -10341.14170460 0 510
0.02350000 0.02348930 82420.50365478 0 -7962.64024868 0 22160.15089204 0 25717.91030277 0 -5950.05698337 0 555
0.02450000 0.02439640 84344.09864553 0 -1723.89454031 0 19678.95362343 0 6759.17819182 0 -7448.74043687 0 592
0.02550000 0.02547300 81445.69617775 0 9912.56522784 0 17299.17885016 0 7322.16161955 0 -8889.58206552 0 837
0.02650000 0.02652900 69811.00798157 0 8692.67184095 0 11793.13316434 0 1086.94133940 0 3883.99438918 0 723
0.02750000 0.02749970 66430.51649118 0 -10.83927453 0 10269.50376302 0 -3345.01576166 0 1938.31011043 0 826
0.02850000 0.02848090 68599.25275341 0 -1523.47438877 0 11765.56307554 0 2804.48700867 0 2995.90536013 0 831
0.02950000 0.02946900 67957.61153017 0 1562.84757583 0 12151.76576522 0 -567.46329035 0 -5426.45781502 0 996
0.03050000 0.03053250 66277.71840869 0 6433.98401189 0 12960.37764672 0 -8890.42356221 0 -5302.30383683 0 1041
0.03150000 0.03150510 58468.07554435 0 4671.43598564 0 14544.05226553 0 -1496.41362692 0 -5241.89323262 0 1036
0.03250000 0.03246190 55185.46340537 0 7923.70995462 0 13945.26093934 0 1571.05216852 0 -549.25374495 0 1059
0.03350000 0.03345080 51895.32208551 0 2912.17643985 0 16815.31825558 0 3346.38872994 0 -852.38078151 0 1302
0.03450000 0.03451200 48529.66751038 0 -928.92819192 0 15735.65586252 0 7124.84171895 0 -4244.13282624 0 1339
0.03550000 0.03553350 48333.13374485 0 1253.73041154 0 15067.77322945 0 3459.29322612 0 1150.37025936 0 1365
0.03650000 0.03647120 47475.25001790 0 2066.01830489 0 15989.43354736 0 -684.94397837 0 -2519.60716341 0 1308
0.03750000 0.03744890 46569.75529423 0 1726.44117502 0 15074.63807084 0 -1372.42573360 0 2128.66551871 0 1579
0.03850000 0.03847530 47259.89330018 0 91.26740191 0 16857.94670613 0 526.77692557 0 4744.97836708 0 1662
0.03950000 0.03950240 45284.36910604 0 648.01334617 0 18605.49173226 0 -2324.81175287 0 -720.70537307 0 1683
0.04050000 0.04050350 44030.42832033 0 3574.04680054 0 20335.32103868 0 1366.63490772 0 1051.18215917 0 1822
0.04150000 0.04152450 41792.37930473 0 3582.11852533 0 20581.34809615 0 -1994.45786958 0 -4152.32110884 0 1887
0.04250000 0.04250150 40784.13340675 0 579.12466285 0 22154.17183664 0 -878.64322875 0 981.41544049 0 1920
0.04350000 0.04349210 40592.80363388 0 -851.57803796 0 22405.73505652 0 2851.40044892 0 1307.95158618 0 2005
0.04450000 0.04448520 41353.69379542 0 -409.13458161 0 21450.85776416 0 1397.33846444 0 -1575.99042539 0 2151
0.04550000 0.04548030 41999.43177884 0 6.98407925 0 22002.92387961 0 3889.65234717 0 -125.92776463 0 2274
0.04650000 0.04648670 41227.80146223 0 1115.39278526 0 15842.39307377 0 4397.86098402 0 -214.54068738 0 2311
0.04750000 0.04749250 40518.17616460 0 534.39136335 0 16922.05546683 0 4107.16816823 0 -936.52712844 0 2568
0.04850000 0.04851840 39020.31206314 0 1293.12574324 0 15469.58789712 0 2258.31137001 0 -555.06450102 0 2493
0.04950000 0.04949480 38933.06214357 0 1819.78087324 0 12724.53712808 0 2651.53391362 0 -2294.57323379 0 2644
0.05050000 0.05050630 35814.54185839 0 1364.85226342 0 10514.87755333 0 2055.56603026 0 724.58622292 0 2829
0.05150000 0.05149060 35434.42894737 0 1329.09972658 0 10817.84957734 0 2459.53980127 0 1468.21241560 0 2784
0.05250000 0.05249300 33282.96551186 0 1483.20434341 0 8882.77258576 0 2398.89667823 0 2520.09434570 0 3055
0.05350000 0.05348950 32168.53601886 0 1379.00269454 0 11420.43871094 0 350.42468649 0 2616.09140188 0 3009
0.05450000 0.05448610 31237.46422486 0 1032.11007967 0 8619.18482113 0 407.47262565 0 3854.63058376 0 3336
0.05550000 0.05550870 31277.32459421 0 -639.81650411 0 11182.49445059 0 243.56014350 0 3240.07226703 0 3349
0.05650000 0.05647670 32878.82565598 0 -1798.28949077 0 9916.25231201 0 442.47113717 0 2951.92608595 0 3324
0.05750000 0.05747970 32891.66955277 0 -971.81684210 0 10390.18103122 0 -514.51764753 0 156.56267294 0 3639
0.05850000 0.05849280 34120.03326815 0 741.10945325 0 10530.06878298 0 133.30857635 0 -342.38617867 0 3846
0.05950000 0.05951020 33284.62636058 0 768.33076382 0 9770.65124064 0 -1011.49341086 0 -2795.76201671 0 3787
0.06050000 0.06049470 32315.13359946 0 1792.50973722 0 9980.84825500 0 521.42899268 0 -2386.11921539 0 3930
0.06150000 0.06148310 31270.12758308 0 657.44696692 0 11258.11842910 0 -2165.97925335 0 -3115.36467260 0 4083
0.06250000 0.06249100 31795.28794922 0 -1005.33830549 0 11502.37391460 0 1649.76532565 0 -1068.63325031 0 4303
0.06350000 0.06350600 32380.68176239 0 -250.41280533 0 11198.99221457 0 29.23890960 0 -3450.42429394 0 4470
0.06450000 0.06451750 32692.14625954 0 79.38569015 0 10943.90799540 0 675.80488147 0 -1229.89169621 0 4479
0.06550000 0.06550280 32692.58915253 0 90.48436710 0 11277.82716728 0 1153.50372728 0 -1591.20379969 0 4636
0.06650000 0.06648880 31942.21769957 0 717.57633408 0 9381.33722769 0 2078.85112935 0 -2922.16367684 0 4653
0.06750000 0.06749660 31445.95610120 0 848.00942768 0 9588.68865457 0 2348.76119145 0 -1613.48131722 0 5220
0.06850000 0.06852730 30721.38316506 0 811.19837658 0 9303.66486909 0 696.10266733 0 -1118.18301111 0 5029
0.06950000 0.06949320 29673.38762098 0 817.58489354 0 9500.60831064 0 -468.24086595 0 -1224.13408730 0 5040
0.07050000 0.07048030 29742.92182084 0 -494.42027075 0 9549.02758707 0 629.20700247 0 197.65871373 0 5475
0.07150000 0.07148790 30844.06452405 0 237.54454943 0 10206.65724735 0 -849.16980732 0 897.47725327 0 5509
0.07250000 0.07249820 30196.33352216 0 890.45407764 0 12896.60105577 0 -1815.17478612 0 1895.42699640 0 5916
0.07350000 0.07351270 29816.33133439 0 1067.31785813 0 11571.79739122 0 -232.27744451 0 2587.04869388 0 5721
0.07450000 0.07449140 28616.42349379 0 1207.72490192 0 13793.79153582 0 277.23883390 0 3971.34395968 0 6028
0.07550000 0.07549160 27813.67994444 0 1522.90970021 0 13326.31798198 0 748.79918284 0 2694.79348669 0 6183
0.07650000 0.07648840 26689.39608235 0 289.34642109 0 12380.18782622 0 1204.70215724 0 2426.64392423 0 6330
0.07750000 0.07749960 25968.25556692 0 385.80519321 0 12537.74700839 0 2118.78900497 0 1569.31381352 0 6583
0.07850000 0.07848650 25658.89481148 0 840.97739418 0 11949.36366753 0 30.33728422 0 1626.04840589 0 6549
0.07950000 0.07947320 24629.83294284 0 878.92668027 0 10306.89500393 0 1297.04534623 0 -939.79789319 0 6828
0.08050000 0.08048110 24541.25434429 0 349.61751401 0 9961.54919284 0 682.41505939 0 1690.19038357 0 7147
0.08150000 0.08149960 23535.88725076 0 65.11844600 0 8774.31916416 0 1123.13234030 0 142.96142913 0 7386
0.08250000 0.08250610 23425.93906531 0 401.22119106 0 8357.39077311 0 2567.16279850 0 635.27131477 0 7227
0.08350000 0.08350160 22298.55495227 0 657.20559024 0 6251.83319630 0 1074.22809605 0 385.64796620 0 7798
0.08450000 0.08449610 22368.42132188 0 -105.86139036 0 5456.31987506 0 1994.75682235 0 -91.19222082 0 7371
0.08550000 0.08548940 22020.08598308 0 -63.87469175 0 5500.76418688 0 663.46920439 0 471.20049838 0 8256
0.08650000 0.08650700 22100.69250776 0 418.88929977 0 5052.35717637 0 -235.47623915 0 -641.57921822 0 8037
0.08750000 0.08749060 21262.51751899 0 779.82826591 0 4915.87970066 0 -176.01342594 0 45.49684702 0 8155
0.08850000 0.08849210 20836.67590647 0 527.83433259 0 5379.25649432 0 -407.77157842 0 109.90356398 0 8718
0.08950000 0.08949900 20403.52655956 0 588.57378485 0 5524.23751549 0 -418.75753911 0 424.33245465 0 8571
0.09050000 0.09049190 20469.51761548 0 138.87241957 0 6210.23447196 0 506.77587802 0 172.74709012 0 8932
0.09150000 0.09150830 20235.33794557 0 -158.43389583 0 6302.38943142 0 20.98737025 0 105.93502132 0 9285
0.09250000 0.09250820 20024.29943452 0 329.32526431 0 6467.22313100 0 -523.58255986 0 -128.40242922 0 9204
0.09350000 0.09350330 19916.45499079 0 1079.13202871 0 6835.56616074 0 -775.18342565 0 415.25647000 0 9349
0.09450000 0.09448040 19246.91150900 0 727.16053844 0 7010.94071354 0 -173.42139470 0 1137.07239725 0 9564
0.09550000 0.09549270 18829.59558659 0 293.08997411 0 7303.19472713 0 589.14179511 0 529.34127600 0 10155
0.09650000 0.09649430 18564.08123744 0 352.44870746 0 6768.43465536 0 1009.55575401 0 760.55577733 0 9913
0.09750000 0.09749140 18199.91247415 0 281.71648206 0 6570.50577691 0 936.73639538 0 397.87624173 0 10476
0.09850000 0.09850240 17780.04991703 0 371.34362977 0 5688.03041654 0 922.36894669 0 1139.06541572 0 10575
0.09950000 0.09950330 17408.01980312 0 354.54691302 0 5881.54143739 0 522.53401070 0 869.00587723 0 10882
0.10050000 0.10051200 16930.13826395 0 433.38408019 0 5370.40970679 0 1114.01981698 0 1943.15978870 0 10875
0.10150000 0.10150300 16683.22542050 0 403.78997042 0 5207.69082125 0 553.28407119 0 1690.19038357 0 11118
0.10250000 0.10250800 16251.07258282 0 110.04252166 0 4564.57697881 0 540.66272813 0 2408.55174548 0 11575
0.10350000 0.10349800 16359.80281254 0 74.21524662 0 4877.33693796 0 183.23147449 0 2185.79871477 0 11364
0.10450000 0.10450100 16303.99829546 0 128.08908243 0 4596.15524919 0 -316.14587608 0 1349.50602122 0 12093
0.10550000 0.10551000 16233.68903286 0 74.27304416 0 4880.78043098 0 -424.93257466 0 1672.59645943 0 12067
0.10650000 0.10649700 15895.87240264 0 216.55142157 0 5019.29521446 0 -803.03142980 0 562.68779666 0 12054
0.10750000 0.10749900 16170.90895114 0 84.82054078 0 5135.64320366 0 -129.44433499 0 764.62596393 0 12807
0.10850000 0.10850100 15745.28878511 0 339.97684079 0 5112.63491269 0 -30.21748166 0 190.13064009 0 12736
0.10950000 0.10950300 15632.68324170 0 651.79897403 0 5331.60120830 0 21.81270134 0 655.93005842 0 12933
0.11050000 0.11050200 15353.77137952 0 77.32634845 0 4697.65525081 0 400.12503090 0 704.79333508 0 13428
0.11150000 0.11150900 15281.57982170 0 179.35062464 0 5210.84643383 0 538.98748538 0 -13.41478586 0 13453
0.11250000 0.11250000 15179.38226363 0 22.19613595 0 4969.40331883 0 117.41646854 0 694.27684096 0 13668
0.11350000 0.11349100 15073.30939186 0 80.18046162 0 5111.25087208 0 410.06908582 0 -116.48639325 0 13791
0.11450000 0.11448600 14852.30578848 0 178.28546700 0 4917.66234495 0 -238.69164228 0 495.74452080 0 14205
0.11550000 0.11549300 14974.98714747 0 287.51062964 0 5364.51922998 0 -248.38878435 0 -26.09381573 0 14776
0.11650000 0.11649800 14490.01932042 0 328.97316438 0 5100.85395908 0 119.05406538 0 473.51793596 0 14553
0.11750000 0.11747300 14486.25472998 0 -56.29933928 0 5089.16158407 0 165.87117641 0 355.38508801 0 14568
0.11850000 0.11849100 14536.85525440 0 49.00610965 0 5105.91401152 0 643.79368319 0 -433.19474344 0 16015
0.11950000 0.11950300 14570.84729159 0 78.72854767 0 5185.10327862 0 194.78655267 0 401.61315136 0 15270
0.12050000 0.12050700 14552.46723240 0 41.25470721 0 4336.55352150 0 418.28475084 0 627.19405382 0 15999
0.12150000 0.12150000 14430.56093614 0 25.83893081 0 4825.52953014 0 376.65170229 0 599.28183018 0 15670
0.12250000 0.12250700 14039.26497705 0 234.13538062 0 3850.30130476 0 426.91119910 0 -88.64237514 0 16887
0.12350000 0.12352200 14149.65605549 0 436.46550819 0 4295.88487244 0 80.87668941 0 -98.97816891 0 16407
0.12450000 0.12449800 13646.08672274 0 400.60667703 0 3763.83752025 0 -21.52758898 0 -369.57095056 0 16306
0.12550000 0.12549900 13294.20824000 0 187.83202546 0 4006.63145888 0 -237.59658935 0 -359.44641675 0 17523
0.12650000 0.12650100 13315.24565716 0 255.36102729 0 4029.51795428 0 111.59796185 0 -127.33948604 0 17154
0.12750000 0.12750600 12923.83897482 0 199.39263980 0 3792.81379430 0 312.85185945 0 -968.98121971 0 18007
0.12850000 0.12850300 12688.33062593 0 225.04943087 0 3600.83075427 0 255.42081785 0 -318.05253042 0 17496
0.12950000 0.12949900 12692.20593961 0 46.13660595 0 3715.46253312 0 370.66711072 0 -704.95941995 0 18405
0.13050000 0.13049000 12602.40938534 0 -41.54380561 0 3388.48570890 0 204.89779970 0 -599.62728672 0 18100
0.13150000 0.13148800 12756.09325382 0 154.48993373 0 3772.10854689 0 12.56398842 0 -1061.07638863 0 19059
0.13250000 0.13249300 12176.23560307 0 499.10164969 0 3345.99012625 0 -26.92512588 0 -159.55884403 0 18957
0.13350000 0.13349100 11923.01153446 0 347.27571731 0 3516.09425243 0 22.71122050 0 -63.04725692 0 19468
0.13450000 0.13450700 11986.78812542 0 -91.83341915 0 3391.55274287 0 340.05323983 0 -164.29890629 0 19953
0.13550000 0.13551000 12028.30934349 0 -170.16059505 0 3634.62348962 0 -127.63843881 0 140.16566711 0 19956
0.13650000 0.13649900 12128.95677609 0 185.02740558 0 3439.17481192 0 276.03748666 0 -269.92445613 0 19723
0.13750000 0.13749600 12111.13033313 0 -19.70497359 0 3480.86211486 0 -54.41449743 0 434.18018035 0 20946
0.13850000 0.13851100 12075.80961696 0 174.40129545 0 3612.65599718 0 2.40578366 0 214.64698170 0 20955
0.13950000 0.13949800 11868.09280336 0 475.07249037 0 3553.83980774 0 -196.35328664 0 137.74304244 0 20506
0.14050000 0.14048300 11412.02374408 0 348.88452611 0 3888.91050140 0 74.34047462 0 324.91405011 0 21447
0.14150000 0.14148400 11197.88498209 0 157.17165080 0 3267.67557280 0 349.53779327 0 338.92718440 0 21771
0.14250000 0.14249400 11273.50896060 0 -203.33660190 0 3418.54707078 0 699.42768647 0 242.02773375 0 22470
0.14350000 0.14350900 11082.84352722 0 87.01241820 0 2718.87579317 0 463.99795108 0 94.05209160 0 22519
0.14450000 0.14449900 11274.50546983 0 174.19977914 0 2591.38904521 0 346.93358247 0 -98.82149552 0 22218
0.14550000 0.14550500 10883.14307679 0 293.74213404 0 2339.01754561 0 -157.51267841 0 182.61696047 0 23559
0.14650000 0.14650700 10745.35906675 0 202.95571393 0 2301.27199031 0 -218.62858971 0 11.97959111 0 23044
0.14750000 0.14750500 10559.10041865 0 135.05136028 0 2263.27177153 0 -24.04510347 0 39.99545171 0 23649
0.14850000 0.14849900 10486.80920991 0 71.81509877 0 2402.61697937 0 539.30747557 0 -157.83709752 0 23640
0.14950000 0.14949500 10435.28968253 0 26.90729943 0 2288.66061234 0 356.44360226 0 -92.98815191 0 24457
0.15050000 0.15050000 10182.50850692 0 362.55884726 0 2191.42345578 0 190.03984702 0 269.62439612 0 24591
0.15150000 0.15149900 10122.38578316 0 149.40773664 0 2300.35298735 0 236.64215495 0 404.11217507 0 25020
0.15250000 0.15250500 9825.31530827 0 181.99248135 0 2307.28426268 0 38.91900029 0 832.38969905 0 25297
0.15350000 0.15350100 9775.87737796 0 270.24666078 0 2817.80701542 0 -221.50517969 0 826.67305775 0 25452
0.15450000 0.15450400 9625.64807482 0 199.84439065 0 2884.32954293 0 -145.78376472 0 984.25327734 0 26061
0.15550000 0.15549900 9493.96491575 0 114.54430748 0 3042.58628157 0 66.66425327 0 1067.65224234 0 26128
0.15650000 0.15649500 9376.33253687 0 100.01243477 0 2963.60738863 0 123.37780822 0 1206.92769453 0 26331
0.15750000 0.15749700 9488.00800500 0 -51.11715910 0 2997.33369003 0 275.81493293 0 634.09875557 0 27345
0.15850000 0.15849900 9211.07808896 0 130.17953736 0 2693.11049331 0 71.65144981 0 617.22121085 0 26980
0.15950000 0.15949700 9298.52731037 0 205.91202465 0 2691.97004386 0 61.92706982 0 480.63633359 0 27777
0.16050000 0.16050000 9034.96169039 0 -63.79020991 0 2355.10563358 0 293.55058282 0 486.11934884 0 28224
0.16150000 0.16150500 9037.13186606 0 147.99158629 0 2161.17386438 0 104.62627253 0 326.11982628 0 28075
0.16250000 0.16249700 9018.04317807 0 199.06822068 0 2220.48830843 0 73.43929810 0 133.51341436 0 28590
0.16350000 0.16349900 8847.89476258 0 153.18118494 0 2014.07802916 0 -4.57249369 0 291.60406812 0 29163
0.16450000 0.16449100 8660.34065248 0 203.29784876 0 2122.33214891 0 116.64915643 0 790.22960784 0 28996
0.16550000 0.16550500 8582.15896693 0 225.11918652 0 2163.17795517 0 82.54805684 0 598.99505697 0 30777
0.16650000 0.16650700 8511.76112574 0 -1.27590828 0 2185.97587197 0 -87.35023483 0 433.41397547 0 29211
0.16750000 0.16749900 8401.45862589 0 43.50227843 0 2073.63606436 0 37.85727506 0 440.92876232 0 30922
0.16850000 0.16850800 8489.20680008 0 -55.59491798 0 1900.06630050 0 82.26305520 0 516.13863589 0 30867
0.16950000 0.16949900 8608.63289557 0 -46.76584617 0 1995.01148582 0 244.66959045 0 63.37975883 0 30852
0.17050000 0.17049200 8587.38510425 0 -35.28107725 0 1782.92110392 0 103.17535508 0 316.17909306 0 31257
0.17150000 0.17149500 8488.43173734 0 127.07707194 0 1690.15716659 0 202.00792292 0 91.32287426 0 32608
0.17250000 0.17250900 8331.69190721 0 280.92038190 0 1760.39999524 0 -28.37227873 0 117.30020913 0 32361
0.17350000 0.17350400 8243.55620165 0 181.54405219 0 1868.66518732 0 -221.62254634 0 209.61571730 0 32508
0.17450000 0.17449800 7971.61990411 0 176.03557059 0 1941.67609717 0 -260.71892527 0 144.11184368 0 32791
0.17550000 0.17549800 8051.03061771 0 110.02580245 0 2314.85773286 0 -460.84233851 0 219.61291938 0 33633
0.17650000 0.17650100 7944.64772085 0 62.33940319 0 2177.32838629 0 3.03269870 0 72.56170564 0 33984
0.17750000 0.17750300 7909.93598254 0 134.08031739 0 2302.95498368 0 24.36553655 0 -87.78869890 0 34069
0.17850000 0.17849800 7761.09072001 0 89.47279950 0 2100.75218784 0 230.73174797 0 -133.55327473 0 34536
