### header ###
fiducial parameters:
Omega_m = 0.31
Omega_nu = 0
Omega_de = 0.69
Omega_k = 0
H_0 = 100
w_de = -1
zeff = 0
beta = 0
fgrowth = 0
b_1 = 2
gamma = 0.55
Lx = 3500 Ly = 3500 Lz = 3500
nx = 700 ny = 700 nz = 700
xoffset = -685.467585 yoffset = -31.7331281 zoffset = 572.489161
bins = 400 dk = 0.001
kx_ny = 0.628318531 ky_ny = 0.628318531 kz_ny = 0.628318531
############################
A(data) = 8.07831454 (not used)
A(ran) = 8.08163239 (used)
Ngal = 479850
weighted Ngal = 0
Nran = 23820508
weighted Nran = 0
SN(data) = 3486.95597
SN(ran) = 70.3939491
SN(data+ran) = 3557.34992
############################
13 columns: k_central k_mean P_0(k) sigma^{lin}_{P_0(k)} P^img_1(k) sigma^{lin}_{P_1(k)} P_2(k) sigma^{lin}_{P_2(k)} P^img_3(k) sigma^{lin}_{P_3(k)} P_4(k) sigma^{lin}_{P_4(k)} N_modes
### header ###
0.00050000 0 0 0 0 0 0 0 0 0 0 0 0
0.00150000 0.00179520 1247.44133104 0 -8338.84462904 0 2727.08038586 0 -36759.78622816 0 -30068.00527752 0 3
0.00250000 0.00253879 7586.83447201 0 -12233.47952238 0 -11146.73084143 0 19843.82053998 0 7346.56502345 0 6
0.00350000 0.00331552 18835.24247225 0 -21515.96303409 0 2348.83869773 0 -15604.89170641 0 -15380.56640558 0 7
0.00450000 0.00420575 30980.14339608 0 -21129.09600493 0 -7518.25249208 0 6348.60531522 0 8120.90805964 0 24
0.00550000 0.00557378 52192.94617663 0 -12262.71045990 0 -4525.11521316 0 -7266.04707736 0 9789.64027771 0 45
0.00650000 0.00659388 58212.19411779 0 189.55487920 0 -33255.06325332 0 13959.87640810 0 8531.09340487 0 40
0.00750000 0.00754703 60968.09576515 0 1359.36039031 0 -13129.23060021 0 2340.54552644 0 30025.59827346 0 57
0.00850000 0.00846663 59082.70029503 0 -4980.34277575 0 -31135.48811328 0 20571.71517356 0 31234.36397391 0 75
0.00950000 0.00948925 66171.09192068 0 -8923.34158389 0 -26594.83842840 0 25594.89677403 0 24443.26426964 0 112
0.01050000 0.01054430 76895.08140053 0 -10710.12692918 0 -33623.66094653 0 4584.40751256 0 11116.94628767 0 105
0.01150000 0.01145670 77840.43649355 0 -2132.50761542 0 -4673.48436573 0 -13795.56310779 0 33121.30956951 0 144
0.01250000 0.01249090 80484.28621375 0 7380.34668647 0 1913.88456188 0 -14097.17323585 0 37063.38937469 0 169
0.01350000 0.01339930 67305.89449135 0 13637.22886289 0 27351.74255301 0 -9836.06653567 0 42164.52014189 0 180
0.01450000 0.01448870 71747.66831559 0 5022.40653774 0 30626.71478786 0 4672.76466461 0 38648.06050273 0 267
0.01550000 0.01550050 65356.39026053 0 -1703.16714825 0 37978.73846745 0 14799.93369209 0 23194.30603010 0 238
0.01650000 0.01653350 78902.82605990 0 -6635.75498706 0 44262.94714152 0 9169.51258159 0 15404.26118069 0 315
0.01750000 0.01747870 76541.65279232 0 -963.99756631 0 43677.66405160 0 1800.81398083 0 16314.40628079 0 297
0.01850000 0.01844180 83704.56116400 0 740.03986667 0 32788.80765520 0 1808.14385986 0 5748.19742960 0 388
0.01950000 0.01947590 73006.37020098 0 -1998.97537811 0 26291.01383538 0 -2150.17904583 0 446.24901440 0 399
0.02050000 0.02045430 86372.32710581 0 -3049.88294362 0 23449.30167067 0 18251.17733806 0 -20674.90924087 0 462
0.02150000 0.02154770 76623.14510299 0 3784.59812929 0 20827.04298387 0 -1024.01731746 0 -21278.68311323 0 571
0.02250000 0.02255340 76735.41847665 0 11652.73608564 0 17832.20056693 0 -1211.93238535 0 -15454.75098187 0 510
0.02350000 0.02348930 64547.44620928 0 8979.98759767 0 11758.03389467 0 -13694.36205895 0 -15717.60797306 0 555
0.02450000 0.02439640 59873.15356384 0 4537.95910995 0 18301.55641599 0 3365.57706885 0 -8118.49429283 0 592
0.02550000 0.02547300 61620.03425048 0 -1634.77339785 0 21216.34592450 0 -1191.54823536 0 -19046.05953679 0 837
0.02650000 0.02652900 59142.49084905 0 -353.45407456 0 18679.89775504 0 2043.01001391 0 -18106.35132944 0 723
0.02750000 0.02749970 64419.45013437 0 1705.23767299 0 22008.12787228 0 -1220.74595591 0 -19273.04219558 0 826
0.02850000 0.02848090 61398.14486111 0 923.07425378 0 18724.96211705 0 1806.79303623 0 -4514.51899831 0 831
0.02950000 0.02946900 63317.86453817 0 905.43161142 0 22259.35892241 0 8936.13011906 0 145.93213388 0 996
0.03050000 0.03053250 62418.79176289 0 1128.41383924 0 18163.70597200 0 11531.27268238 0 -1529.71917997 0 1041
0.03150000 0.03150510 60207.64849661 0 428.69605786 0 21236.71900216 0 4816.88204445 0 -3820.42817240 0 1036
0.03250000 0.03246190 56462.32390345 0 4540.01856236 0 18376.07316202 0 3770.22625167 0 -1021.31124127 0 1059
0.03350000 0.03345080 53772.63475851 0 6390.40334141 0 18570.83535558 0 -2765.70065483 0 10003.10362788 0 1302
0.03450000 0.03451200 47493.63007710 0 2546.85615479 0 16337.10454666 0 2835.53380746 0 5686.21455527 0 1339
0.03550000 0.03553350 48163.61645188 0 -683.96850656 0 17443.89413554 0 1460.15176313 0 7672.51212146 0 1365
0.03650000 0.03647120 46099.18148944 0 -592.61739787 0 11146.62011818 0 4236.08324609 0 -3122.08557376 0 1308
0.03750000 0.03744890 50089.53663083 0 -2237.24073588 0 13172.96628324 0 1691.46370092 0 -5069.49713519 0 1579
0.03850000 0.03847530 51045.18898593 0 -2618.94806168 0 8527.87135835 0 2189.24220779 0 -902.79418365 0 1662
0.03950000 0.03950240 53738.97489106 0 -1552.25136098 0 10958.51239184 0 -2907.27139996 0 -5032.52664262 0 1683
0.04050000 0.04050350 52052.65982118 0 2290.66470313 0 12414.17986342 0 -4842.53662106 0 -5562.56990402 0 1822
0.04150000 0.04152450 50977.53708129 0 6290.95171989 0 14768.37756636 0 -4562.26286292 0 -5701.99261813 0 1887
0.04250000 0.04250150 46363.92077586 0 3890.16167411 0 16868.35469146 0 -1545.18721774 0 890.35664118 0 1920
0.04350000 0.04349210 43718.85309993 0 1171.64019533 0 17311.69057720 0 1914.59319067 0 -3325.43989138 0 2005
0.04450000 0.04448520 42320.97209157 0 1458.09231072 0 18772.13022078 0 3806.45489848 0 -4232.86119957 0 2151
0.04550000 0.04548030 42495.25048422 0 1121.11717719 0 15794.89280030 0 4441.20913568 0 -4615.53181763 0 2274
0.04650000 0.04648670 42002.97492278 0 -128.07579564 0 14709.14062858 0 1873.07197260 0 -3042.18767787 0 2311
0.04750000 0.04749250 40292.41146155 0 814.40713632 0 13878.82699043 0 -1632.18247384 0 -3295.91000109 0 2568
0.04850000 0.04851840 39884.39629198 0 2277.20075615 0 13820.91873163 0 -2295.24864561 0 -3548.11541581 0 2493
0.04950000 0.04949480 38869.06410611 0 482.70242940 0 15933.18613728 0 2371.12728759 0 3615.21370421 0 2644
0.05050000 0.05050630 38079.05373030 0 -252.36374896 0 12191.07251832 0 2988.53119180 0 -891.88572923 0 2829
0.05150000 0.05149060 39376.06585956 0 -813.46488147 0 14313.41573956 0 3730.23301443 0 -2544.97385957 0 2784
0.05250000 0.05249300 40146.03532745 0 1609.69458213 0 14982.73777485 0 165.76045316 0 867.99718844 0 3055
0.05350000 0.05348950 38206.49618897 0 2562.40169883 0 17663.01544370 0 -2111.34840269 0 4244.13282624 0 3009
0.05450000 0.05448610 36905.71946927 0 823.27496126 0 17932.62655303 0 -32.68672082 0 6162.68990919 0 3336
0.05550000 0.05550870 37503.62500948 0 -160.09806625 0 19396.27717081 0 1292.18459564 0 8450.87441156 0 3349
0.05650000 0.05647670 37751.64508542 0 -381.96531097 0 22646.55812132 0 2784.39073912 0 4963.39104645 0 3324
0.05750000 0.05747970 37587.99612460 0 1746.62602317 0 23739.72875067 0 1353.72457698 0 7625.53224725 0 3639
0.05850000 0.05849280 35574.93674932 0 2675.95946217 0 21148.02968037 0 588.11428337 0 7809.00066950 0 3846
0.05950000 0.05951020 34928.86659615 0 1161.68617532 0 19773.73272388 0 2173.16519216 0 10843.39343070 0 3787
0.06050000 0.06049470 33777.56626151 0 191.96864601 0 19482.64130439 0 3571.56659978 0 9283.28071910 0 3930
0.06150000 0.06148310 32844.50144904 0 59.91788576 0 17410.67716108 0 3853.78908708 0 8989.62052026 0 4083
0.06250000 0.06249100 32250.36049927 0 409.76681135 0 13560.49765189 0 3563.94884030 0 5077.85674043 0 4303
0.06350000 0.06350600 30848.49345398 0 1493.86699221 0 13555.73655222 0 818.34113332 0 2590.06036623 0 4470
0.06450000 0.06451750 30619.62849998 0 1015.76732824 0 14146.88797429 0 -756.12352570 0 2952.31361732 0 4479
0.06550000 0.06550280 28667.90980420 0 1286.05052769 0 14451.93052304 0 -1413.09438265 0 2621.27324989 0 4636
0.06650000 0.06648880 28891.57076553 0 56.99124886 0 13834.86986090 0 -833.85346039 0 4258.36076363 0 4653
0.06750000 0.06749660 29333.24580255 0 -429.50987374 0 15423.30557938 0 2011.39852656 0 3675.15927078 0 5220
0.06850000 0.06852730 28856.25004936 0 571.18469872 0 14018.44900639 0 712.86173817 0 1758.87201442 0 5029
0.06950000 0.06949320 29768.05599818 0 186.05602456 0 15613.74956626 0 3193.90067254 0 4360.06006709 0 5040
0.07050000 0.07048030 28394.53410443 0 614.43319946 0 13535.47419780 0 241.73320991 0 3706.58252861 0 5475
0.07150000 0.07148790 28311.60239153 0 588.51842323 0 13325.43219599 0 1314.12994343 0 4304.43270720 0 5509
0.07250000 0.07249820 28174.74845678 0 190.80383744 0 12677.47974761 0 1307.48654853 0 3190.13608210 0 5916
0.07350000 0.07351270 27279.44027194 0 169.43314330 0 11555.07818074 0 450.76541569 0 2881.45073848 0 5721
0.07450000 0.07449140 27133.17486109 0 166.18120151 0 10556.38769907 0 1447.19714310 0 2546.57934666 0 6028
0.07550000 0.07549160 27357.38943866 0 39.25515607 0 9443.28688505 0 1683.87915842 0 1236.57938040 0 6183
0.07650000 0.07648840 26411.48072941 0 543.98664004 0 8991.60246640 0 1379.23521336 0 566.42581352 0 6330
0.07750000 0.07749960 26295.44276531 0 926.05381639 0 7857.44209058 0 -361.30213839 0 -85.56172221 0 6583
0.07850000 0.07848650 25446.19545172 0 771.85729927 0 9461.05796639 0 -354.74953656 0 1833.95344901 0 6549
0.07950000 0.07947320 25270.25621035 0 -10.79102133 0 8371.92873560 0 689.37512277 0 1704.41832096 0 6828
0.08050000 0.08048110 25028.43663631 0 -34.14339587 0 8638.51710026 0 575.53058621 0 2066.20653441 0 7147
0.08150000 0.08149960 25152.11450453 0 179.42480922 0 8726.32063607 0 111.23700406 0 -819.87907924 0 7386
0.08250000 0.08250610 24610.78854415 0 694.68540975 0 9670.91173868 0 -576.47726999 0 2165.54743268 0 7227
0.08350000 0.08350160 24021.40869405 0 994.50625012 0 8670.21716622 0 1233.97738406 0 861.57856174 0 7798
0.08450000 0.08449610 23055.34835363 0 370.00609293 0 7932.04741521 0 764.93931072 0 1371.78353876 0 7371
0.08550000 0.08548940 22829.80509707 0 387.88789751 0 7451.57495203 0 1262.13430608 0 184.62326572 0 8256
0.08650000 0.08650700 22435.18744053 0 436.20530856 0 8112.70346695 0 261.47737952 0 -674.91577379 0 8037
0.08750000 0.08749060 21557.48425216 0 874.83434901 0 7304.53447843 0 -184.21469694 0 -435.34831061 0 8155
0.08850000 0.08849210 21011.28646886 0 1307.45333156 0 7789.19228040 0 -1050.79352057 0 69.03993128 0 8718
0.08950000 0.08949900 20391.56844876 0 705.05907087 0 7854.02074221 0 -839.58117402 0 -28.62052025 0 8571
0.09050000 0.09049190 19651.93715087 0 103.12453311 0 8377.46489801 0 57.70297790 0 130.14853485 0 8932
0.09150000 0.09150830 20442.27969643 0 -455.66602666 0 8244.51949391 0 1006.63266026 0 -348.06849577 0 9285
0.09250000 0.09250820 20185.62320713 0 -559.95957582 0 7129.21528726 0 1827.19933087 0 -1541.15689151 0 9204
0.09350000 0.09350330 20616.66881232 0 -157.74851892 0 6799.44823718 0 1867.76832901 0 -1003.39179079 0 9349
0.09450000 0.09448040 20452.13406551 0 218.80242521 0 5348.13218925 0 378.34687522 0 -1229.60381576 0 9564
0.09550000 0.09549270 20011.56626098 0 941.32033785 0 5554.13279250 0 655.20039221 0 -594.77650121 0 10155
0.09650000 0.09649430 19146.15335316 0 806.66425957 0 4908.74912347 0 354.82150667 0 641.47846007 0 9913
0.09750000 0.09749140 18739.02396957 0 738.19964629 0 5525.30045868 0 144.45951468 0 1255.67914071 0 10476
0.09850000 0.09850240 18096.71840684 0 642.31663505 0 5829.72295724 0 -235.70986520 0 943.80718201 0 10575
0.09950000 0.09950330 17920.33627248 0 537.89575415 0 6707.71402606 0 -396.28293419 0 759.30903355 0 10882
0.10050000 0.10051200 17238.05961716 0 405.14522297 0 7137.70776039 0 -899.20342871 0 1069.88885195 0 10875
0.10150000 0.10150300 17126.45058299 0 431.82398962 0 8195.10370825 0 -394.70955683 0 1579.79930512 0 11118
0.10250000 0.10250800 17046.17622805 0 -138.17486311 0 7385.93821050 0 417.79756854 0 1445.70237925 0 11575
0.10350000 0.10349800 16870.01554019 0 33.30843186 0 7355.47824492 0 1157.79978931 0 565.25436155 0 11364
0.10450000 0.10450100 17028.01761535 0 -119.69183129 0 6245.90950252 0 1002.39749602 0 879.26549341 0 12093
0.10550000 0.10551000 16882.41654398 0 232.46567403 0 5987.99076820 0 1104.72570753 0 -370.23307559 0 12067
0.10650000 0.10649700 16606.16203976 0 150.48285938 0 4883.05025757 0 -11.99952130 0 -780.53357300 0 12054
0.10750000 0.10749900 16492.00637088 0 108.22865340 0 4622.48523761 0 -104.88813301 0 -663.63418203 0 12807
0.10850000 0.10850100 16229.70299592 0 80.59877405 0 4467.94880012 0 -154.67705602 0 -755.16798407 0 12736
0.10950000 0.10950300 16218.96284085 0 265.97938679 0 5009.06438633 0 -202.08875089 0 -587.81643783 0 12933
0.11050000 0.11050200 16140.01716489 0 369.29635691 0 4640.11237872 0 167.50212986 0 -988.19834667 0 13428
0.11150000 0.11150900 15580.53259181 0 247.47974649 0 5000.21759880 0 406.24802653 0 -425.28467459 0 13453
0.11250000 0.11250000 15651.83836364 0 98.87763220 0 5013.12792954 0 332.75657777 0 163.12302539 0 13668
0.11350000 0.11349100 15401.71454599 0 392.41758560 0 5197.84752449 0 139.74824047 0 -295.37087302 0 13791
0.11450000 0.11448600 15233.63665524 0 451.01565023 0 5139.82854244 0 267.92368703 0 697.04824387 0 14205
0.11550000 0.11549300 14678.13811909 0 385.01795092 0 5155.08620604 0 357.81324884 0 1424.70925139 0 14776
0.11650000 0.11649800 14604.06426605 0 181.25174282 0 5191.25949122 0 401.07503637 0 1337.58112739 0 14553
0.11750000 0.11747300 14245.43166517 0 279.36582750 0 5180.91793984 0 676.55558509 0 987.66244615 0 14568
0.11850000 0.11849100 14098.61263808 0 412.31787499 0 4767.57698204 0 295.47273841 0 1659.14358477 0 16015
0.11950000 0.11950300 13632.57848646 0 168.79205570 0 4777.90746109 0 406.58351797 0 1517.60605662 0 15270
0.12050000 0.12050700 13787.25886418 0 -20.82881456 0 4227.00393974 0 137.13185011 0 932.27757017 0 15999
0.12150000 0.12150000 13639.88622084 0 -156.61582009 0 4166.61548018 0 -4.26951059 0 717.31059828 0 15670
0.12250000 0.12250700 13750.60946903 0 175.96360048 0 4304.63200904 0 -40.11769018 0 240.37242119 0 16887
0.12350000 0.12352200 13622.28122438 0 155.36132569 0 4622.11985089 0 -155.23842289 0 243.89563494 0 16407
0.12450000 0.12449800 13647.63684822 0 227.45544705 0 4548.64390340 0 -402.54654834 0 289.23016168 0 16306
0.12550000 0.12549900 13351.00926632 0 375.57547231 0 4831.87397226 0 -275.79832444 0 638.43357074 0 17523
0.12650000 0.12650100 13326.87159822 0 194.08788898 0 5173.53269919 0 429.86529536 0 427.25887010 0 17154
0.12750000 0.12750600 13029.91184658 0 104.26775065 0 5088.65225713 0 161.33263047 0 823.88504636 0 18007
0.12850000 0.12850300 13081.61960349 0 135.12443762 0 5114.59471418 0 166.40486247 0 11.02970744 0 17496
0.12950000 0.12949900 12838.58207372 0 363.38927162 0 4800.12961700 0 50.03915755 0 891.67092613 0 18405
0.13050000 0.13049000 12549.04077971 0 135.26062722 0 4433.43636366 0 505.57785247 0 470.16191431 0 18100
0.13150000 0.13148800 12710.03238257 0 -246.61056899 0 4097.09235264 0 456.71125412 0 445.76515380 0 19059
0.13250000 0.13249300 12692.42738611 0 -138.61886333 0 3616.34308134 0 1123.84096909 0 -74.36483373 0 18957
0.13350000 0.13349100 12683.23735651 0 54.09960051 0 3324.58732237 0 545.96415725 0 -294.63677789 0 19468
0.13450000 0.13450700 12521.13852117 0 130.64568223 0 2729.69345452 0 566.79009300 0 97.42217511 0 19953
0.13550000 0.13551000 12474.08114069 0 196.17945114 0 2744.75181627 0 -128.44007513 0 201.04241620 0 19956
0.13650000 0.13649900 12177.78572854 0 356.84220595 0 2939.12647846 0 17.99573880 0 764.91052268 0 19723
0.13750000 0.13749600 11936.63049399 0 322.92103164 0 3093.23109529 0 -78.92751734 0 808.55430542 0 20946
0.13850000 0.13851100 11687.72463207 0 134.08917525 0 2970.29507282 0 189.73425086 0 1079.37783432 0 20955
0.13950000 0.13949800 11675.21290502 0 94.03891553 0 2856.59336926 0 230.43168796 0 926.55207101 0 20506
0.14050000 0.14048300 11675.21290502 0 -80.75135069 0 2723.88048399 0 144.79168442 0 538.72950021 0 21447
0.14150000 0.14148400 11462.51354526 0 186.67164582 0 3167.94714316 0 55.45263860 0 353.52383020 0 21771
0.14250000 0.14249400 11457.30955259 0 499.25666224 0 3426.97310997 0 -730.79004652 0 220.30161799 0 22470
0.14350000 0.14350900 10956.48615639 0 595.76636705 0 3570.86904331 0 -575.76531950 0 244.99622403 0 22519
0.14450000 0.14449900 10612.81226635 0 360.39531499 0 4048.20803857 0 -340.61128500 0 745.46087690 0 22218
0.14550000 0.14550500 10500.68283291 0 15.82334868 0 4005.59066034 0 390.90953495 0 693.01238147 0 23559
0.14650000 0.14650700 10493.25330296 0 -59.27890189 0 4374.27693215 0 740.79057029 0 856.68459417 0 23044
0.14750000 0.14750500 10497.40542476 0 -50.22616912 0 3887.48217150 0 808.64288402 0 792.03882572 0 23649
0.14850000 0.14849900 10401.47480253 0 149.19625523 0 3544.58334419 0 518.89121584 0 1204.20390263 0 23640
0.14950000 0.14949500 10456.06136389 0 180.61619137 0 3203.25678701 0 118.47387556 0 801.54441657 0 24457
0.15050000 0.15050000 10135.69471759 0 91.09423075 0 3153.36489138 0 -115.82094653 0 604.61536905 0 24591
0.15150000 0.15149900 10035.78913075 0 267.10544223 0 2962.53337313 0 -521.32602006 0 200.92726402 0 25020
0.15250000 0.15250500 9804.97544758 0 186.49227415 0 3014.31863630 0 -174.41568947 0 31.19428216 0 25297
0.15350000 0.15350100 9655.54335183 0 193.20321023 0 2937.49884671 0 32.13122228 0 -311.83984896 0 25452
0.15450000 0.15450400 9572.14660129 0 173.92186379 0 2859.46110139 0 316.09605062 0 -368.63201742 0 26061
0.15550000 0.15549900 9405.07629210 0 81.80067491 0 2533.99011335 0 627.44539559 0 -25.10649653 0 26128
0.15650000 0.15649500 9444.36090056 0 -98.66028247 0 2485.63727086 0 569.71872292 0 228.75090906 0 26331
0.15750000 0.15749700 9421.31939261 0 59.39172888 0 2482.72524944 0 347.92787724 0 681.01994646 0 27345
0.15850000 0.15849900 9406.68177920 0 100.13411962 0 2558.28279400 0 483.51181634 0 456.77547360 0 26980
0.15950000 0.15949700 9308.72492153 0 199.25645020 0 2573.73975944 0 -250.05184754 0 1103.84545770 0 27777
0.16050000 0.16050000 9095.99234479 0 285.47885803 0 2625.12641893 0 -185.76150071 0 1377.12039932 0 28224
0.16150000 0.16150500 9027.52108811 0 60.17731033 0 2982.69607662 0 -268.27135803 0 1154.06841585 0 28075
0.16250000 0.16249700 8998.72197126 0 136.64466782 0 3159.56539327 0 -332.78979475 0 1040.06443782 0 28590
0.16350000 0.16349900 8990.82740366 0 173.39371389 0 3410.33140577 0 -269.81816181 0 667.25151055 0 29163
0.16450000 0.16449100 8863.44030663 0 105.46466896 0 3203.34536561 0 -40.60465102 0 680.46300852 0 28996
0.16550000 0.16550500 8850.52997589 0 -0.87907726 0 3101.03708428 0 -104.28291973 0 538.47483674 0 30777
0.16650000 0.16650700 8824.35500002 0 -36.46005840 0 3233.67246329 0 248.56704878 0 624.92976339 0 29211
0.16750000 0.16749900 8823.13704429 0 167.88523230 0 2992.32899921 0 187.99478863 0 410.88843786 0 30922
0.16850000 0.16850800 8729.42088702 0 32.32310567 0 2932.99241051 0 234.94476756 0 402.05382988 0 30867
0.16950000 0.16949900 8656.36568787 0 99.65214132 0 2743.58922216 0 471.78622436 0 571.66966655 0 30852
0.17050000 0.17049200 8569.33721479 0 118.19374574 0 2470.31317331 0 317.28632554 0 619.33048873 0 31257
0.17150000 0.17149500 8455.96768097 0 25.94090692 0 2330.27040901 0 286.40671885 0 383.96386560 0 32608
0.17250000 0.17250900 8420.76876038 0 29.25164277 0 2143.39171072 0 207.11669359 0 180.00057011 0 32361
0.17350000 0.17350400 8333.68492568 0 60.86368374 0 1992.91881643 0 118.27457371 0 250.17364311 0 32508
0.17450000 0.17449800 8261.23870439 0 195.51400442 0 1929.38581662 0 -26.55619601 0 130.94242054 0 32791
0.17550000 0.17549800 8113.84391640 0 105.77724069 0 1973.32080150 0 -155.70013883 0 81.59284737 0 33633
0.17650000 0.17650100 8045.88198667 0 92.24929567 0 2005.97308739 0 -1.80057039 0 152.89773342 0 33984
0.17750000 0.17750300 8051.79460812 0 176.50725163 0 2169.26773382 0 -121.02051027 0 97.49015918 0 34069
0.17850000 0.17849800 7795.47028857 0 272.88187409 0 2169.75491611 0 13.37603272 0 186.00177016 0 34536
