### header ###
fiducial parameters:
Omega_m = 0.31
Omega_nu = 0
Omega_de = 0.69
Omega_k = 0
H_0 = 100
w_de = -1
zeff = 0
beta = 0
fgrowth = 0
b_1 = 2
gamma = 0.55
Lx = 3500 Ly = 3500 Lz = 3500
nx = 700 ny = 700 nz = 700
xoffset = -685.467585 yoffset = -31.7331281 zoffset = 572.489161
bins = 400 dk = 0.001
kx_ny = 0.628318531 ky_ny = 0.628318531 kz_ny = 0.628318531
############################
A(data) = 8.07850984 (not used)
A(ran) = 8.07400003 (used)
Ngal = 479934
weighted Ngal = 0
Nran = 23820508
weighted Nran = 0
SN(data) = 3491.57259
SN(ran) = 70.3274684
SN(data+ran) = 3561.90006
############################
13 columns: k_central k_mean P_0(k) sigma^{lin}_{P_0(k)} P^img_1(k) sigma^{lin}_{P_1(k)} P_2(k) sigma^{lin}_{P_2(k)} P^img_3(k) sigma^{lin}_{P_3(k)} P_4(k) sigma^{lin}_{P_4(k)} N_modes
### header ###
0.00050000 0 0 0 0 0 0 0 0 0 0 0 0
0.00150000 0.00179520 37360.01695658 0 -48111.68724848 0 17629.90919249 0 -102554.64055151 0 68282.58426360 0 3
0.00250000 0.00253879 43486.88789498 0 -15969.28191619 0 -4824.52194858 0 720.06539270 0 -9232.11550611 0 6
0.00350000 0.00331552 55830.75849580 0 -874.34827395 0 7507.67842188 0 -5726.31851576 0 29720.11283171 0 7
0.00450000 0.00420575 49474.57971041 0 6370.49530138 0 6912.41916731 0 -20833.13276252 0 31160.84373712 0 24
0.00550000 0.00557378 47004.34404337 0 2828.83505094 0 11682.63136265 0 15940.82604141 0 16772.46835853 0 45
0.00650000 0.00659388 43932.65969218 0 -3324.44338215 0 -780.76277012 0 31472.64040401 0 30542.01150300 0 40
0.00750000 0.00754703 54119.97358807 0 -13899.20006809 0 -3009.17000526 0 33266.13557813 0 4585.74726387 0 57
0.00850000 0.00846663 55276.92080837 0 -3514.71021183 0 -9541.29910435 0 16784.86936233 0 21530.24633311 0 75
0.00950000 0.00948925 67970.45542696 0 -3034.21560400 0 -21853.00460157 0 12047.24301893 0 13282.91446869 0 112
0.01050000 0.01054430 58279.07095970 0 3067.69831425 0 -11125.91487077 0 -12848.65788930 0 19955.09740441 0 105
0.01150000 0.01145670 60798.24630244 0 3152.15800797 0 -10269.14944863 0 -10949.75418290 0 4106.11629737 0 144
0.01250000 0.01249090 59888.98698833 0 -8333.55205778 0 -2620.50925948 0 -15694.46681419 0 -9005.78611449 0 169
0.01350000 0.01339930 64294.99720341 0 -8154.76722893 0 -319.64694519 0 -20332.99585047 0 -11747.18301634 0 180
0.01450000 0.01448870 73007.25598696 0 -3416.89729438 0 9384.17174285 0 -13832.32322619 0 -27870.25952426 0 267
0.01550000 0.01550050 70310.36983089 0 -1488.78479512 0 7655.08428219 0 -1680.61282260 0 8198.91258798 0 238
0.01650000 0.01653350 73055.64204642 0 3160.86085528 0 11687.50318557 0 -9696.63274923 0 -11748.84386507 0 315
0.01750000 0.01747870 72652.05580678 0 -1962.84638223 0 11030.43821386 0 4035.54129898 0 7503.79203587 0 297
0.01850000 0.01844180 80991.39869044 0 3468.43896642 0 25218.54845345 0 -4831.88504458 0 -8557.11336819 0 388
0.01950000 0.01947590 70346.24416330 0 -1362.64887078 0 31211.66570803 0 -1919.98541285 0 6817.75079011 0 399
0.02050000 0.02045430 84108.59029663 0 2152.54852334 0 45256.57757074 0 -2541.27570308 0 5556.90087371 0 462
0.02150000 0.02154770 85453.98848535 0 -2552.17087070 0 43523.64801338 0 -4012.43335708 0 -2564.22863243 0 571
0.02250000 0.02255340 84470.87676470 0 1217.22495661 0 56167.35717028 0 -2943.63291466 0 5554.36531133 0 510
0.02350000 0.02348930 83179.40079785 0 7933.45360046 0 57139.72873586 0 -3398.10755917 0 -6046.79588531 0 555
0.02450000 0.02439640 77821.28137161 0 11886.25141607 0 54334.55524305 0 12432.44919937 0 -5078.52107992 0 592
0.02550000 0.02547300 69887.96063905 0 5632.73522639 0 41666.26552505 0 13528.94152616 0 -9777.82610712 0 837
0.02650000 0.02652900 61941.57456321 0 1967.75142212 0 38743.61466592 0 9812.93644912 0 -18034.49194136 0 723
0.02750000 0.02749970 63760.64680766 0 3280.64126517 0 31854.52488700 0 13893.77462893 0 -14175.34384907 0 826
0.02850000 0.02848090 58677.67465317 0 2381.45776664 0 24976.72887941 0 5212.69551207 0 -16013.57121546 0 831
0.02950000 0.02946900 53524.83612907 0 1686.08255106 0 15509.00537348 0 3358.91152931 0 -9432.94533367 0 996
0.03050000 0.03053250 54029.40197105 0 491.20818932 0 15845.49332472 0 10000.91130757 0 -9818.28438201 0 1041
0.03150000 0.03150510 56335.21361454 0 38.66489044 0 13682.84684114 0 611.17682873 0 -6292.85615975 0 1036
0.03250000 0.03246190 53536.57279337 0 -540.17000967 0 12962.37066519 0 -1076.19121924 0 -7042.35289905 0 1059
0.03350000 0.03345080 53243.04546243 0 2093.43338114 0 12564.32058796 0 -2169.89885633 0 -5882.13934293 0 1302
0.03450000 0.03451200 52222.28783740 0 2320.57105247 0 11587.40936921 0 -6183.47266287 0 -8644.19720289 0 1339
0.03550000 0.03553350 49747.18034744 0 1964.24149515 0 15250.46658896 0 -387.35199699 0 -7713.94476093 0 1365
0.03650000 0.03647120 51937.83981281 0 -387.62991234 0 17934.50884825 0 -3035.93181435 0 -14292.48904565 0 1308
0.03750000 0.03744890 48322.39358978 0 794.73493681 0 14664.51915956 0 -1758.07480703 0 -14853.74519071 0 1579
0.03850000 0.03847530 49412.35324492 0 2471.86329879 0 17550.07773055 0 136.77975018 0 -11698.68623364 0 1662
0.03950000 0.03950240 47354.45095413 0 1549.70472627 0 17720.48080951 0 1213.61537872 0 -9003.04017794 0 1683
0.04050000 0.04050350 45287.69080348 0 2201.35533114 0 16783.65140660 0 3569.65108758 0 -3610.74048498 0 1822
0.04150000 0.04152450 45805.10054226 0 254.10542566 0 18237.22620879 0 4068.71398413 0 -7304.62305703 0 1887
0.04250000 0.04250150 42700.08849336 0 1806.12869674 0 16256.94091498 0 3390.91054804 0 2108.25922407 0 1920
0.04350000 0.04349210 44940.79486691 0 -753.13731970 0 17184.91245803 0 2533.24826758 0 -1714.79308931 0 2005
0.04450000 0.04448520 44194.63089739 0 152.19353356 0 16120.64059646 0 4034.47835579 0 4579.98965496 0 2151
0.04550000 0.04548030 44283.98455867 0 278.50882956 0 18842.55020663 0 -1395.58903712 0 -318.53306931 0 2274
0.04650000 0.04648670 43059.27471048 0 1583.43102766 0 16023.75775430 0 1579.11282099 0 292.69690658 0 2311
0.04750000 0.04749250 42859.19780101 0 1881.91876013 0 17825.22500229 0 -2207.88800279 0 1283.91356900 0 2568
0.04850000 0.04851840 40068.97194671 0 2218.25169882 0 15925.32478666 0 1027.54717461 0 198.78366193 0 2493
0.04950000 0.04949480 39344.28828733 0 738.00809507 0 17707.74763596 0 311.17329501 0 -738.60267891 0 2644
0.05050000 0.05050630 38261.63636656 0 787.83798568 0 14120.31439472 0 3571.94305882 0 -2679.31437659 0 2829
0.05150000 0.05149060 38348.11122340 0 359.05667092 0 12900.69781595 0 4096.78232755 0 -385.29475904 0 2784
0.05250000 0.05249300 36345.57055670 0 747.81706762 0 10981.81963558 0 1521.44815333 0 -1374.10872697 0 3055
0.05350000 0.05348950 36635.55474370 0 293.96136608 0 11286.35285739 0 2084.94090800 0 1467.99096911 0 3009
0.05450000 0.05448610 35584.68039516 0 892.86895168 0 10883.95135651 0 1338.90980637 0 2127.53614158 0 3336
0.05550000 0.05550870 34519.07985461 0 1087.53813771 0 8887.11293709 0 1298.96085842 0 2686.04635008 0 3349
0.05650000 0.05647670 34053.48859599 0 -102.78704865 0 8517.17549257 0 761.04406685 0 3662.70290536 0 3324
0.05750000 0.05747970 34463.38606077 0 -552.70277413 0 8164.97591242 0 2553.79850245 0 2254.35855005 0 3639
0.05850000 0.05849280 34610.09436462 0 359.31244162 0 8885.97248763 0 379.41424733 0 3048.26638420 0 3846
0.05950000 0.05951020 33395.34960877 0 931.75717091 0 7076.64388902 0 -80.79176467 0 1665.29979737 0 3787
0.06050000 0.06049470 33508.84093816 0 135.10007851 0 7214.47218836 0 -511.64216478 0 2126.04137773 0 3930
0.06150000 0.06148310 33541.83646612 0 217.72619523 0 7467.59660604 0 -401.05842788 0 1359.70363238 0 4083
0.06250000 0.06249100 34493.72423078 0 -178.16920759 0 8502.71503636 0 -1726.75120012 0 1175.39371345 0 4303
0.06350000 0.06350600 33166.04176177 0 167.48884307 0 9263.88200602 0 -1407.50285862 0 -883.25706650 0 4470
0.06450000 0.06451750 33141.46120068 0 1752.38363207 0 10771.96586329 0 -1584.23930738 0 -254.52728123 0 4479
0.06550000 0.06550280 31721.65698918 0 2169.94314563 0 11521.08614355 0 -1258.56901749 0 -1326.86311697 0 4636
0.06650000 0.06648880 30404.93612175 0 1451.05031213 0 11403.38733072 0 1115.79138895 0 -798.87155736 0 4653
0.06750000 0.06749660 29909.89247911 0 -183.42191848 0 11434.72200996 0 6.04443748 0 -4479.34222236 0 5220
0.06850000 0.06852730 29472.97854176 0 384.81422014 0 11288.45659911 0 -333.39766538 0 -3130.91021664 0 5029
0.06950000 0.06949320 29251.53204539 0 1401.00340395 0 11073.65349762 0 1709.68874757 0 -3063.00364853 0 5040
0.07050000 0.07048030 28053.17433027 0 519.85672256 0 10732.79197808 0 984.84896841 0 -2874.32016130 0 5475
0.07150000 0.07148790 27400.12861246 0 226.75678336 0 9466.14016348 0 945.84448977 0 -2269.26189926 0 5509
0.07250000 0.07249820 27567.87433347 0 1151.67679369 0 10516.72663157 0 205.46138103 0 -2530.41375243 0 5916
0.07350000 0.07351270 26303.19339268 0 196.64338155 0 9871.34296254 0 430.27718585 0 -1361.98453129 0 5721
0.07450000 0.07449140 25812.35723347 0 300.37334938 0 10327.86598714 0 736.80342613 0 -875.10562097 0 6028
0.07550000 0.07549160 26252.92503800 0 337.68265509 0 9820.28847280 0 835.59402986 0 -1159.98103730 0 6183
0.07650000 0.07648840 25811.58217073 0 -300.22498023 0 9532.72912494 0 1341.88826175 0 -1215.24301047 0 6330
0.07750000 0.07749960 25902.70740399 0 137.00119668 0 8270.59481886 0 -365.12098322 0 -3452.78269912 0 6583
0.07850000 0.07848650 25513.51518661 0 1111.18530182 0 9158.39596747 0 31.32670716 0 -1217.00351012 0 6549
0.07950000 0.07947320 25048.14537449 0 1017.52007725 0 8118.64930537 0 -1411.09029186 0 -2858.42030286 0 6828
0.08050000 0.08048110 24070.90198599 0 357.65823629 0 7996.72086447 0 854.09367016 0 -527.80775901 0 7147
0.08150000 0.08149960 24138.11099764 0 -189.75307381 0 7896.26166139 0 1681.77541670 0 -2679.21472567 0 7386
0.08250000 0.08250610 24018.30844310 0 -183.82605834 0 7234.47987931 0 929.04555856 0 -2417.52032858 0 7227
0.08350000 0.08350160 23786.45396140 0 880.51112995 0 7936.70886395 0 661.71202644 0 -2594.51144080 0 7798
0.08450000 0.08449610 23007.95880340 0 756.10359552 0 7624.10391735 0 630.46703303 0 -1608.16660131 0 7371
0.08550000 0.08548940 22552.66480686 0 113.57769352 0 7416.67498420 0 374.01538175 0 -694.92125027 0 8256
0.08650000 0.08650700 22585.32816507 0 150.90028602 0 7762.54119456 0 315.24126714 0 -1566.55680464 0 8037
0.08750000 0.08749060 22738.90131031 0 483.80412572 0 8091.38924167 0 -605.07819222 0 -1205.46614766 0 8155
0.08850000 0.08849210 22144.98180704 0 275.32110724 0 7775.37401902 0 -682.61989739 0 -1111.04136160 0 8718
0.08950000 0.08949900 22095.48851510 0 100.05428816 0 7940.17450162 0 -120.53111351 0 -595.52277591 0 8571
0.09050000 0.09049190 21834.51381912 0 381.47923591 0 8590.07567918 0 255.65776560 0 -1686.86868612 0 8932
0.09150000 0.09150830 21245.79830851 0 781.29202725 0 7898.07752266 0 422.74136158 0 -1622.32810475 0 9285
0.09250000 0.09250820 20635.49176451 0 893.27973493 0 7837.08008524 0 771.21288997 0 -601.88382651 0 9204
0.09350000 0.09350330 19703.42346128 0 743.03271607 0 7716.57997424 0 409.35713534 0 -942.31131092 0 9349
0.09450000 0.09448040 19193.10001039 0 638.96504233 0 7644.37734409 0 427.41498988 0 -641.32787645 0 9564
0.09550000 0.09549270 18644.57703887 0 828.39480426 0 7959.39605751 0 296.04849930 0 -786.10627408 0 10155
0.09650000 0.09649430 17985.99515866 0 147.10580031 0 7493.05188080 0 562.77858972 0 -384.51858907 0 9913
0.09750000 0.09749140 17904.05995500 0 114.27082106 0 7339.96591785 0 120.81899396 0 -742.69279570 0 10476
0.09850000 0.09850240 18037.48146906 0 36.10419388 0 7750.57201143 0 415.13688889 0 -764.27164954 0 10575
0.09950000 0.09950330 17818.36016090 0 161.29609180 0 7189.44873427 0 749.63514336 0 -610.45712762 0 10882
0.10050000 0.10051200 17535.24081529 0 491.80055870 0 6304.28279897 0 -51.17119204 0 44.51550687 0 10875
0.10150000 0.10150300 17003.21560775 0 331.77446256 0 6415.93612244 0 916.36553218 0 -65.66608319 0 11118
0.10250000 0.10250800 17070.75678915 0 316.66627535 0 6652.19738942 0 509.89716639 0 -103.21178303 0 11575
0.10350000 0.10349800 16653.66231323 0 311.17883117 0 6089.65685468 0 501.89741170 0 -390.77113089 0 11364
0.10450000 0.10450100 16375.30406729 0 229.10743791 0 6013.60105550 0 -172.01078052 0 -44.08257897 0 12093
0.10550000 0.10551000 16224.27755676 0 288.24251031 0 6292.51291768 0 -473.47918282 0 701.68311903 0 12067
0.10650000 0.10649700 15947.13726655 0 357.80771268 0 6074.24417853 0 547.33048213 0 -34.73122560 0 12054
0.10750000 0.10749900 15678.19049671 0 1.69528365 0 5318.90125173 0 740.16055501 0 321.74515074 0 12807
0.10850000 0.10850100 15729.56608387 0 19.43248367 0 5269.97264836 0 1013.10221965 0 -440.70177966 0 12736
0.10950000 0.10950300 15487.41434008 0 126.79915659 0 4600.17450310 0 690.04167672 0 -926.45684902 0 12933
0.11050000 0.11050200 15404.26118069 0 300.78191816 0 4299.59410125 0 1059.65470212 0 -247.86617062 0 13428
0.11150000 0.11150900 14839.46189169 0 100.00446270 0 3208.59364757 0 139.10383116 0 -354.09516217 0 13453
0.11250000 0.11250000 14886.74071867 0 -106.54765305 0 3424.02787157 0 313.13641820 0 -350.30510538 0 13668
0.11350000 0.11349100 15045.85002631 0 157.09857346 0 3832.06518578 0 -245.45018935 0 -873.27315121 0 13791
0.11450000 0.11448600 14851.53072575 0 393.61007498 0 3491.18152159 0 168.96367673 0 -623.37520899 0 14205
0.11550000 0.11549300 14388.59682508 0 289.74170309 0 3408.43803822 0 201.21625170 0 -434.19014544 0 14776
0.11650000 0.11649800 14420.59584380 0 -37.20721887 0 3270.38829238 0 331.31496108 0 352.20068739 0 14553
0.11750000 0.11747300 14361.02673628 0 120.10261454 0 3237.61421092 0 544.61333362 0 153.45799306 0 14568
0.11850000 0.11849100 14300.79328927 0 10.00651390 0 3137.43181596 0 588.71661784 0 -1.60415842 0 16015
0.11950000 0.11950300 14041.03654902 0 309.34193248 0 2933.68996697 0 260.10773294 0 320.35778844 0 15270
0.12050000 0.12050700 14097.39468235 0 259.11233094 0 3235.74298803 0 -280.03902485 0 161.73344863 0 15999
0.12150000 0.12150000 13484.09861064 0 271.09037193 0 3188.67453522 0 242.90687634 0 915.09996545 0 15670
0.12250000 0.12250700 13527.05923094 0 250.67079050 0 2868.31896124 0 -5.71271063 0 451.15737599 0 16887
0.12350000 0.12352200 13409.69258786 0 198.69286887 0 3205.74806009 0 -186.43137637 0 837.92696870 0 16407
0.12450000 0.12449800 13306.60924380 0 80.02533835 0 3149.93247068 0 -177.01547134 0 170.60902420 0 16306
0.12550000 0.12549900 13039.87693892 0 368.74827683 0 3424.18288412 0 -321.62114070 0 590.91890325 0 17523
0.12650000 0.12650100 12903.57662040 0 227.27718262 0 3236.47376146 0 -130.63128821 0 -5.49856079 0 17154
0.12750000 0.12750600 12721.21543064 0 30.80265403 0 3334.07630474 0 381.39176454 0 -245.94180057 0 18007
0.12850000 0.12850300 12859.50876762 0 -18.10590844 0 3023.19864081 0 -109.05520245 0 -790.51527382 0 17496
0.12950000 0.12949900 12821.64141674 0 134.46120537 0 3438.17830269 0 -191.72505486 0 -1017.95189792 0 18405
0.13050000 0.13049000 12558.56297905 0 318.50317404 0 2912.28716310 0 -251.98618269 0 -720.21708355 0 18100
0.13150000 0.13148800 12405.54345006 0 221.00471061 0 3187.41229019 0 -25.12908407 0 -1143.54970727 0 19059
0.13250000 0.13249300 12250.08800961 0 266.89728252 0 3061.20993191 0 92.30731466 0 -1271.31326335 0 18957
0.13350000 0.13349100 12128.51388310 0 260.24724423 0 2903.05284420 0 295.86469871 0 -1229.54845414 0 19468
0.13450000 0.13450700 11948.92077454 0 -152.92430700 0 2772.21118182 0 182.87826733 0 -1262.07894445 0 19953
0.13550000 0.13551000 12113.34479810 0 -103.80769555 0 2880.71996504 0 70.48830209 0 -1164.94143882 0 19956
0.13650000 0.13649900 12159.95928558 0 34.22123432 0 3137.11071854 0 147.34164083 0 -804.71885210 0 19723
0.13750000 0.13749600 11917.25392556 0 265.59849882 0 2951.41675901 0 232.23647691 0 -688.03647870 0 20946
0.13850000 0.13851100 11861.11723873 0 385.25157697 0 3199.62506447 0 -41.55620662 0 -784.51960993 0 20955
0.13950000 0.13949800 11552.86371578 0 288.04653016 0 3041.84443580 0 -197.72846938 0 -587.10227288 0 20506
0.14050000 0.14048300 11434.05767047 0 157.47613973 0 3555.05776347 0 -61.55614694 0 -158.24788077 0 21447
0.14150000 0.14148400 11208.40369067 0 138.35202031 0 3011.65020602 0 205.33515653 0 193.49441237 0 21771
0.14250000 0.14249400 11293.10697553 0 2.08215068 0 3125.35190958 0 730.82326349 0 159.08494853 0 22470
0.14350000 0.14350900 11127.90788924 0 -16.72375013 0 2881.59467870 0 393.59235926 0 80.55725283 0 22519
0.14450000 0.14449900 11173.63659074 0 42.37954469 0 2439.94178634 0 730.03380673 0 204.00204862 0 22218
0.14550000 0.14550500 11115.83905518 0 54.96158100 0 2391.91004127 0 97.97003374 0 506.92646164 0 23559
0.14650000 0.14650700 11139.97672329 0 164.71190400 0 2478.05272836 0 -91.02093196 0 321.07416786 0 23044
0.14750000 0.14750500 10921.38688672 0 269.97981775 0 2724.75519765 0 -347.94448573 0 423.27172593 0 23649
0.14850000 0.14849900 10693.45200800 0 408.51785311 0 3216.18926240 0 -746.00452805 0 437.03462568 0 23640
0.14950000 0.14949500 10324.38927715 0 477.41317983 0 3467.53103578 0 -474.99719856 0 424.17301317 0 24457
0.15050000 0.15050000 10057.60161064 0 188.21402066 0 3607.33020894 0 -13.63689669 0 460.87112655 0 24591
0.15150000 0.15149900 10048.01297735 0 0.09976253 0 3577.51243820 0 198.19350702 0 -347.11073967 0 25020
0.15250000 0.15250500 9969.45483276 0 23.53954112 0 3384.35573174 0 298.81325881 0 -389.58860660 0 25297
0.15350000 0.15350100 9926.58279106 0 111.66218133 0 3193.36920095 0 169.05779149 0 -698.63601524 0 25452
0.15450000 0.15450400 9840.05257260 0 125.27449746 0 2736.22612616 0 184.21801864 0 -701.59232597 0 26061
0.15550000 0.15549900 9679.21598229 0 137.73086288 0 2801.50855329 0 198.40055950 0 -707.86036905 0 26128
0.15650000 0.15649500 9533.69241720 0 179.80126827 0 2330.81295292 0 205.74040362 0 -790.97477530 0 26331
0.15750000 0.15749700 9284.96371247 0 211.86007754 0 2253.74957219 0 318.52642592 0 -629.77501273 0 27345
0.15850000 0.15849900 9170.64195872 0 32.71772333 0 2150.45585395 0 452.78943667 0 -612.24420085 0 26980
0.15950000 0.15949700 9186.19857509 0 26.79646546 0 2061.93261703 0 225.01842836 0 -268.48062497 0 27777
0.16050000 0.16050000 9137.30318869 0 83.98380520 0 2039.10148325 0 292.90063736 0 -261.32458144 0 28224
0.16150000 0.16150500 9002.08795800 0 215.68445854 0 2059.61850114 0 -228.50399621 0 138.75283846 0 28075
0.16250000 0.16249700 9068.44440064 0 148.52416512 0 2294.52894449 0 -289.62765814 0 14.68312067 0 28590
0.16350000 0.16349900 8736.16393284 0 294.77628918 0 2580.61567316 0 -335.93876393 0 60.80677199 0 29163
0.16450000 0.16449100 8678.72071168 0 300.06332428 0 2744.19820003 0 -196.31785520 0 52.77712203 0 28996
0.16550000 0.16550500 8372.83666624 0 67.37155338 0 2815.55933348 0 -77.19890599 0 215.55048341 0 30777
0.16650000 0.16650700 8510.00062609 0 9.21082343 0 2767.97048141 0 481.15894732 0 239.44566760 0 29211
0.16750000 0.16749900 8530.42906538 0 -148.52748681 0 2501.92466067 0 499.03189404 0 73.82727236 0 30922
0.16850000 0.16850800 8446.96588090 0 29.39768673 0 2314.87987751 0 399.90690610 0 229.04764736 0 30867
0.16950000 0.16949900 8425.27519658 0 277.59646999 0 2280.78818939 0 313.58374012 0 470.42432841 0 30852
0.17050000 0.17049200 8269.05576571 0 204.21463726 0 2063.33880228 0 278.64059022 0 827.79579149 0 31257
0.17150000 0.17149500 8133.20941251 0 45.61587451 0 1998.64320836 0 220.04584728 0 920.18216254 0 32608
0.17250000 0.17250900 8038.62961391 0 34.89564962 0 1929.95050519 0 158.89671901 0 734.46162943 0 32361
0.17350000 0.17350400 8059.77775431 0 30.69923852 0 1862.11037103 0 152.80804759 0 776.20872292 0 32508
0.17450000 0.17449800 7851.48517983 0 127.19333135 0 1489.84773830 0 52.81033901 0 611.16243471 0 32791
0.17550000 0.17549800 7865.66882792 0 98.51246693 0 1474.72294260 0 39.59551934 0 660.77087883 0 33633
0.17650000 0.17650100 7782.73711503 0 -73.97752381 0 1335.46631335 0 10.95985214 0 207.71459913 0 33984
0.17750000 0.17750300 7850.87620196 0 -44.95895348 0 1384.50563997 0 -121.94726386 0 -56.06294515 0 34069
0.17850000 0.17849800 7924.35214946 0 57.15146540 0 1405.03373019 0 -225.79792003 0 -205.96960074 0 34536
