### header ###
fiducial parameters:
Omega_m = 0.31
Omega_nu = 0
Omega_de = 0.69
Omega_k = 0
H_0 = 100
w_de = -1
zeff = 0
beta = 0
fgrowth = 0
b_1 = 2
gamma = 0.55
Lx = 3500 Ly = 3500 Lz = 3500
nx = 700 ny = 700 nz = 700
xoffset = -685.467585 yoffset = -31.7331281 zoffset = 572.489161
bins = 400 dk = 0.001
kx_ny = 0.628318531 ky_ny = 0.628318531 kz_ny = 0.628318531
############################
A(data) = 8.01726285 (not used)
A(ran) = 8.01355312 (used)
Ngal = 476205
weighted Ngal = 0
Nran = 23820508
weighted Nran = 0
SN(data) = 3493.05094
SN(ran) = 69.8009539
SN(data+ran) = 3562.85189
############################
13 columns: k_central k_mean P_0(k) sigma^{lin}_{P_0(k)} P^img_1(k) sigma^{lin}_{P_1(k)} P_2(k) sigma^{lin}_{P_2(k)} P^img_3(k) sigma^{lin}_{P_3(k)} P_4(k) sigma^{lin}_{P_4(k)} N_modes
### header ###
0.00050000 0 0 0 0 0 0 0 0 0 0 0 0
0.00150000 0.00179520 1751.42033981 0 -4185.61558957 0 4621.56623465 0 -13447.67066199 0 1989.79642083 0 3
0.00250000 0.00253879 7242.66232735 0 -10075.58306615 0 -12793.40698846 0 4755.29777381 0 -7090.81646478 0 6
0.00350000 0.00331552 11834.87582891 0 -17402.26219422 0 -26730.91730042 0 23585.15909620 0 12289.39476271 0 7
0.00450000 0.00420575 26460.53112835 0 -29481.39350862 0 -42038.95997844 0 13366.28907457 0 -17754.69429320 0 24
0.00550000 0.00557378 59942.90921019 0 -37359.02044735 0 -37404.19553261 0 -13864.32224492 0 -22969.42711303 0 45
0.00650000 0.00659388 94364.55260640 0 -28355.00590482 0 -60682.20833834 0 -25141.70651920 0 -3530.18932193 0 40
0.00750000 0.00754703 83851.49091435 0 464.09870924 0 -43801.56336632 0 -40523.04798752 0 8247.06612862 0 57
0.00850000 0.00846663 100853.04567338 0 1911.75867551 0 -63250.43408002 0 -11340.16435601 0 32658.37566884 0 75
0.00950000 0.00948925 88133.38036821 0 -5530.80340411 0 -37989.25717602 0 -14594.98495970 0 9116.02218039 0 112
0.01050000 0.01054430 99288.63689975 0 4871.39109954 0 -22336.64374965 0 -12296.48105060 0 2436.75295679 0 105
0.01150000 0.01145670 78206.59827530 0 16782.43345087 0 -26941.73436497 0 -13966.96269599 0 284.38491234 0 144
0.01250000 0.01249090 73271.22021064 0 12811.78704766 0 -5750.13508644 0 -18574.82139251 0 -8780.25393026 0 169
0.01350000 0.01339930 67356.60573902 0 -437.85065602 0 -8685.44161284 0 -11660.48671301 0 5925.23283113 0 180
0.01450000 0.01448870 62374.05957062 0 1666.03057081 0 12928.48935124 0 -11769.43838923 0 -1017.30638139 0 267
0.01550000 0.01550050 67159.40763400 0 3863.24485247 0 -1597.44859089 0 -1820.88810573 0 21937.15427019 0 238
0.01650000 0.01653350 62227.79415977 0 94.79360519 0 7298.93188208 0 10967.84636166 0 5640.54121539 0 315
0.01750000 0.01747870 59216.23253235 0 2324.90033147 0 -5028.93920938 0 11352.45463656 0 -3122.62811768 0 297
0.01850000 0.01844180 62472.16036852 0 -5113.84179609 0 -9932.32932764 0 6616.26769538 0 -13353.55590103 0 388
0.01950000 0.01947590 65161.29589722 0 -5354.73129484 0 -1536.59509368 0 400.25014817 0 -7067.65316126 0 399
0.02050000 0.02045430 65392.26459294 0 -3818.05869489 0 -1548.79679563 0 -12068.61260583 0 -13261.43415854 0 462
0.02150000 0.02154770 72838.18158698 0 -1501.49582401 0 3073.03517482 0 -13110.73981776 0 -5217.43446709 0 571
0.02250000 0.02255340 70375.25365432 0 1723.47379197 0 5543.12690163 0 -12792.96409546 0 -2031.33978355 0 510
0.02350000 0.02348930 72459.28663169 0 5808.30908104 0 9851.61207972 0 -4563.25937216 0 -6925.47343827 0 555
0.02450000 0.02439640 69124.30239631 0 729.67063448 0 10697.19445379 0 -2619.19165283 0 -17620.16554665 0 592
0.02550000 0.02547300 67271.68100766 0 2346.69066671 0 12299.91347129 0 -1945.35210901 0 -25283.54300013 0 837
0.02650000 0.02652900 64907.07531939 0 2764.91451976 0 11268.52641443 0 -9553.02469633 0 -21928.18568709 0 723
0.02750000 0.02749970 63745.92061566 0 1057.96395812 0 15167.64559932 0 -4248.45103291 0 -20807.99858519 0 826
0.02850000 0.02848090 66471.15192327 0 -922.98788965 0 14592.65977149 0 -6399.78160053 0 -21765.75468200 0 831
0.02950000 0.02946900 62888.25833520 0 1901.11817136 0 7925.65868379 0 4867.37184563 0 -20763.48783941 0 996
0.03050000 0.03053250 62560.07462758 0 4358.96390693 0 17949.12431701 0 -1402.48709548 0 -18772.01949753 0 1041
0.03150000 0.03150510 56898.24133156 0 3802.91175454 0 15748.16758956 0 3565.74255692 0 -11266.86556571 0 1036
0.03250000 0.03246190 54869.45925504 0 1957.94134233 0 22795.14872039 0 4509.79111561 0 -11830.66834548 0 1059
0.03350000 0.03345080 54676.69007995 0 3964.54555224 0 19357.08114095 0 4635.12983256 0 -444.14527268 0 1302
0.03450000 0.03451200 50238.57012289 0 621.87048004 0 18595.74808642 0 4009.48811868 0 3673.39877113 0 1339
0.03550000 0.03553350 51287.11928322 0 556.66002302 0 17249.24266522 0 6880.11012349 0 10576.73863209 0 1365
0.03650000 0.03647120 52025.86479512 0 -2081.43098103 0 16876.88038157 0 1406.06345640 0 -537.39196338 0 1308
0.03750000 0.03744890 52335.33627380 0 -1783.17576739 0 13814.82895298 0 5614.44374579 0 3753.98315116 0 1579
0.03850000 0.03847530 54155.40502749 0 -160.01059488 0 9933.72444057 0 -718.91719261 0 452.76839925 0 1662
0.03950000 0.03950240 53435.03957479 0 2487.13203471 0 13621.17399190 0 -1234.94067632 0 3721.53016712 0 1683
0.04050000 0.04050350 49544.88897300 0 4220.53770205 0 13412.23922257 0 -2726.67070984 0 4106.83599848 0 1822
0.04150000 0.04152450 47500.71636499 0 5430.39956266 0 17905.16718748 0 596.20150942 0 4941.22425217 0 1887
0.04250000 0.04250150 43289.68978996 0 3538.89216924 0 15645.74858499 0 844.75416418 0 11260.99723356 0 1920
0.04350000 0.04349210 42255.20248215 0 1151.46641952 0 17499.14503638 0 3897.38082989 0 12264.59275512 0 2005
0.04450000 0.04448520 40732.86854284 0 -280.78751401 0 16645.24734637 0 3339.40209298 0 11221.69048045 0 2151
0.04550000 0.04548030 40905.81825650 0 1423.50236798 0 16579.14556720 0 451.40207437 0 6714.13597445 0 2274
0.04650000 0.04648670 38735.86403855 0 1097.84425765 0 13840.29530006 0 -239.85534362 0 8655.00379191 0 2311
0.04750000 0.04749250 38091.67618060 0 1115.94640150 0 12430.78835065 0 -455.45454525 0 2803.91124777 0 2568
0.04850000 0.04851840 37162.92957481 0 -273.83741572 0 13885.13821558 0 -667.55599948 0 -2240.47385473 0 2493
0.04950000 0.04949480 38102.85922866 0 842.48765929 0 14754.64788358 0 -2579.32021115 0 -2479.21532247 0 2644
0.05050000 0.05050630 38087.80086691 0 31.11799384 0 14726.96707154 0 -4039.33910639 0 -6893.82873394 0 2829
0.05150000 0.05149060 37826.60472444 0 -558.87891692 0 15959.98116334 0 -1506.32335763 0 -8480.34894023 0 2784
0.05250000 0.05249300 37868.23666576 0 1599.79592375 0 16575.71314651 0 -22.46397549 0 -7997.85024160 0 3055
0.05350000 0.05348950 38079.93951629 0 1553.66861855 0 18426.12007020 0 -284.23765042 0 -8958.98339749 0 3009
0.05450000 0.05448610 35412.17357448 0 526.83339443 0 14850.20204677 0 3524.46493000 0 -6277.83101498 0 3336
0.05550000 0.05550870 35637.93827754 0 344.55413987 0 13663.13810296 0 2644.13760064 0 -6087.91849969 0 3349
0.05650000 0.05647670 34340.92614828 0 1363.78932024 0 12818.09827280 0 3004.53070116 0 -6693.56359494 0 3324
0.05750000 0.05747970 33421.92318833 0 532.59432503 0 10832.52040772 0 2692.13612873 0 -5903.67501470 0 3639
0.05850000 0.05849280 32594.59907788 0 942.10536568 0 11403.60877722 0 716.45692204 0 -5194.34866985 0 3846
0.05950000 0.05951020 31835.03759532 0 901.84749987 0 9138.65401232 0 -447.68509493 0 -6509.56370110 0 3787
0.06050000 0.06049470 31566.64444172 0 167.99484831 0 11506.02778179 0 -1430.82117469 0 -4704.49794754 0 3930
0.06150000 0.06148310 31866.04010482 0 -333.84941623 0 10088.11693784 0 1479.26259577 0 -5639.09074084 0 4083
0.06250000 0.06249100 32187.13752456 0 -535.32143863 0 11859.89928300 0 1079.90709144 0 -4409.75266087 0 4303
0.06350000 0.06350600 32227.55151014 0 230.67638634 0 9625.10553090 0 2510.99289470 0 -1966.33416454 0 4470
0.06450000 0.06451750 32133.43674919 0 554.03698928 0 11690.27126677 0 2536.70283293 0 -101.36713371 0 4479
0.06550000 0.06550280 31597.86839771 0 125.19366949 0 10673.18965358 0 1992.63093599 0 5898.70354086 0 4636
0.06650000 0.06648880 31645.14722468 0 466.37407199 0 12093.85750641 0 1499.28135904 0 4880.54791216 0 4653
0.06750000 0.06749660 31494.23143741 0 435.01946257 0 10369.65294101 0 2331.16726732 0 8082.94105783 0 5220
0.06850000 0.06852730 30600.36265480 0 1165.03001742 0 10327.14628603 0 326.96907359 0 6255.52028047 0 5029
0.06950000 0.06949320 30251.58442301 0 1726.04257133 0 10144.32005862 0 815.82993006 0 7596.45632228 0 5040
0.07050000 0.07048030 28509.79700579 0 145.71733078 0 9351.18728721 0 -704.42905559 0 4894.44367981 0 5475
0.07150000 0.07148790 29001.40822774 0 -330.63733480 0 8879.19622484 0 117.07654817 0 3164.04968483 0 5509
0.07250000 0.07249820 28759.47793045 0 159.31082396 0 9985.36576352 0 -1245.18257678 0 -1422.71623292 0 5916
0.07350000 0.07351270 28288.46123266 0 828.87091423 0 10416.82104473 0 -341.31548486 0 -1531.18072685 0 5721
0.07450000 0.07449140 27292.17344548 0 1434.17608911 0 10826.75172649 0 -1848.44712220 0 -790.85962312 0 6028
0.07550000 0.07549160 27002.29998173 0 1054.37984658 0 11738.87877273 0 -478.03323002 0 -1413.38226310 0 6183
0.07650000 0.07648840 26418.45629404 0 744.01593851 0 12511.39487533 0 1325.91089703 0 -354.02208482 0 6330
0.07750000 0.07749960 26052.18378904 0 -339.72882071 0 11239.95981640 0 1041.15506181 0 173.21877116 0 6583
0.07850000 0.07848650 26687.95668013 0 -675.76945003 0 11810.62743755 0 2344.47620175 0 151.58344846 0 6549
0.07950000 0.07947320 26723.60956604 0 110.03200295 0 10569.91808000 0 1461.90119046 0 -900.12686060 0 6828
0.08050000 0.08048110 26477.47178533 0 828.70261489 0 9549.33761217 0 866.22893816 0 254.85723651 0 7147
0.08150000 0.08149960 25429.91913423 0 848.33495403 0 8923.19764367 0 -321.45062690 0 -767.03862351 0 7386
0.08250000 0.08250610 24671.90777715 0 1026.48312419 0 9006.80476838 0 527.63835244 0 540.37263322 0 7227
0.08350000 0.08350160 23980.99470847 0 642.47718376 0 8333.23096036 0 -211.17137894 0 -115.00491619 0 7798
0.08450000 0.08449610 23367.25574377 0 18.33388760 0 8599.89683129 0 1351.84228176 0 218.82456986 0 7371
0.08550000 0.08548940 23526.14360492 0 49.67908555 0 7898.03323336 0 941.61596892 0 -396.39033574 0 8256
0.08650000 0.08650700 23136.06560155 0 595.00237664 0 8184.45213177 0 145.06295638 0 -73.92349087 0 8037
0.08750000 0.08749060 22951.82211657 0 908.69794724 0 7601.68245959 0 141.23746815 0 -1379.72239565 0 8155
0.08850000 0.08849210 21785.35269693 0 933.71254347 0 7335.53698793 0 393.64107749 0 178.18913777 0 8718
0.08950000 0.08949900 21158.76983544 0 275.41743647 0 7197.63118231 0 336.98731309 0 -283.94755551 0 8571
0.09050000 0.09049190 20978.29094090 0 -93.48208832 0 7266.29066851 0 1454.20592471 0 -1518.73543375 0 8932
0.09150000 0.09150830 20637.04188999 0 485.60670020 0 6898.00300039 0 880.66946419 0 -815.81885773 0 9285
0.09250000 0.09250820 20385.70011660 0 854.00176987 0 6568.80063888 0 -361.57783928 0 -473.33634983 0 9204
0.09350000 0.09350330 19590.70719462 0 707.07866292 0 6618.44894337 0 509.29926085 0 -42.99195498 0 9349
0.09450000 0.09448040 19132.53439363 0 1.55139879 0 6594.96454243 0 235.73976048 0 1008.54485076 0 9564
0.09550000 0.09549270 19199.41123553 0 181.16648592 0 6198.47566300 0 507.09586821 0 -215.96237389 0 10155
0.09650000 0.09649430 18957.70238474 0 548.41556996 0 6800.33402317 0 -594.41443619 0 9.83897856 0 9913
0.09750000 0.09749140 18484.47122199 0 707.17499214 0 6989.33860782 0 -819.49819127 0 717.73688279 0 10476
0.09850000 0.09850240 17851.90930510 0 871.92232759 0 7012.86729806 0 -57.04572470 0 1605.69747288 0 10575
0.09950000 0.09950330 17290.54243680 0 430.33365470 0 7621.54621032 0 695.61880673 0 1140.15050355 0 10882
0.10050000 0.10051200 17276.36986103 0 -256.14826959 0 7944.11624926 0 1535.73145235 0 2149.96867166 0 10875
0.10150000 0.10150300 17556.72112544 0 -277.85888409 0 7209.05782152 0 1230.92142241 0 1640.67494698 0 11118
0.10250000 0.10250800 17435.70061517 0 94.76326702 0 7161.75684990 0 1465.34468347 0 3101.72356842 0 11575
0.10350000 0.10349800 17411.78439356 0 -77.05297275 0 6731.44201815 0 735.23447770 0 3081.73802212 0 11364
0.10450000 0.10450100 17356.09059972 0 88.86769695 0 6106.49786073 0 652.60836097 0 2620.38746391 0 12093
0.10550000 0.10551000 16957.48690625 0 663.74933421 0 6204.58758630 0 -493.60202595 0 2103.98530669 0 12067
0.10650000 0.10649700 16574.38446753 0 753.36762406 0 5977.70457844 0 -552.58762196 0 2002.86176412 0 12054
0.10750000 0.10749900 15929.75371659 0 351.03255712 0 5777.66088594 0 -496.79196273 0 1498.14090959 0 12807
0.10850000 0.10850100 15690.92367025 0 161.44335372 0 5077.19240094 0 679.38124238 0 1024.81673931 0 12736
0.10950000 0.10950300 15893.65793768 0 -238.35504360 0 5426.51317664 0 471.95009477 0 112.37745351 0 12933
0.11050000 0.11050200 15621.94308663 0 -111.26247041 0 4600.26308170 0 641.48399623 0 -347.79390211 0 13428
0.11150000 0.11150900 15754.92170770 0 173.03829227 0 4168.47563075 0 906.86879918 0 -82.87015077 0 13453
0.11250000 0.11250000 15503.24776457 0 222.00897047 0 3636.24004904 0 490.87934128 0 -124.97000853 0 13668
0.11350000 0.11349100 15385.99184474 0 171.34422657 0 3297.90301956 0 530.14844848 0 323.09265267 0 13791
0.11450000 0.11448600 15255.55985838 0 335.21574112 0 3755.02394970 0 12.54051509 0 251.20669102 0 14205
0.11550000 0.11549300 14810.23095417 0 616.14498088 0 3607.10876244 0 -362.51787965 0 87.53636061 0 14776
0.11650000 0.11649800 14334.45315672 0 515.63484511 0 4206.59764510 0 -332.66467748 0 554.18092950 0 14553
0.11750000 0.11747300 13993.64699880 0 312.61269723 0 4112.92577713 0 -604.70616211 0 347.22478462 0 14568
0.11850000 0.11849100 14017.78466690 0 -43.72571794 0 4798.04801994 0 -166.59087752 0 -335.32535713 0 16015
0.11950000 0.11950300 14174.45806309 0 148.08016489 0 5074.76756181 0 -91.09976691 0 -406.40525354 0 15270
0.12050000 0.12050700 13746.06981585 0 317.73143300 0 4796.55325609 0 -102.24251171 0 -645.90628276 0 15999
0.12150000 0.12150000 13702.33413282 0 68.23973437 0 5119.79870684 0 -60.98082894 0 -344.79662378 0 15670
0.12250000 0.12250700 13800.98854695 0 -39.73038025 0 4585.93549339 0 178.19135224 0 -683.38720950 0 16887
0.12350000 0.12352200 13729.23988213 0 -28.24284325 0 4596.55385289 0 605.42807769 0 -284.06935108 0 16407
0.12450000 0.12449800 13932.52776580 0 -38.47123548 0 4447.15497411 0 565.03402229 0 -329.50906491 0 16306
0.12550000 0.12549900 13728.68626589 0 169.21944744 0 4129.36817949 0 615.06653644 0 6.07171969 0 17523
0.12650000 0.12650100 13420.10057319 0 423.87073871 0 4062.43597596 0 225.34949087 0 522.26938214 0 17154
0.12750000 0.12750600 13280.36783398 0 463.90605079 0 3785.90466362 0 507.46789832 0 1215.92949461 0 18007
0.12850000 0.12850300 12861.39106284 0 123.89045686 0 3961.63353081 0 397.22076010 0 1520.79488617 0 17496
0.12950000 0.12949900 13038.76970644 0 3.32328079 0 3599.94496829 0 629.48602505 0 1597.69218203 0 18405
0.13050000 0.13049000 12920.62800062 0 -205.63521653 0 3907.05804178 0 376.00618575 0 2154.63012041 0 18100
0.13150000 0.13148800 12958.82752125 0 76.05579918 0 3319.31689576 0 29.64769983 0 1119.60026869 0 19059
0.13250000 0.13249300 12908.55916657 0 229.27241555 0 3620.38447990 0 112.48706953 0 1152.06432506 0 18957
0.13350000 0.13349100 12721.54760038 0 80.63952021 0 3295.74391622 0 -447.64412733 0 878.86135355 0 19468
0.13450000 0.13450700 12534.09314120 0 271.75692588 0 3605.07145468 0 -90.31916801 0 467.56545414 0 19953
0.13550000 0.13551000 12257.83863698 0 320.60248682 0 3364.29267917 0 18.31805418 0 33.50983745 0 19956
0.13650000 0.13649900 12239.56930103 0 250.59106976 0 3752.42195336 0 -93.66777121 0 717.75459851 0 19723
0.13750000 0.13749600 11806.19850763 0 130.43309360 0 3561.28041002 0 91.31047325 0 381.20021332 0 20946
0.13850000 0.13851100 11890.45889950 0 199.92078969 0 3883.39648364 0 273.24393911 0 600.20636930 0 20955
0.13950000 0.13949800 11872.18956355 0 153.60857667 0 3956.94993741 0 -213.54528538 0 316.40275402 0 20506
0.14050000 0.14048300 11642.43882356 0 246.17653386 0 3894.66811031 0 -48.51018022 0 521.10900250 0 21447
0.14150000 0.14148400 11482.99734617 0 333.25926132 0 4129.10244369 0 -169.86164228 0 753.43959417 0 21771
0.14250000 0.14249400 11470.37489588 0 53.65571101 0 3868.62600234 0 -58.61345517 0 402.16566037 0 22470
0.14350000 0.14350900 11141.74829526 0 111.30454524 0 3948.68998310 0 229.46285954 0 160.60407149 0 22519
0.14450000 0.14449900 11115.50688544 0 131.04871486 0 3693.62790858 0 498.26901086 0 265.71586546 0 22218
0.14550000 0.14550500 10881.68152992 0 71.37508459 0 3220.10886538 0 755.26320606 0 316.24220531 0 23559
0.14650000 0.14650700 10914.71027485 0 23.23914895 0 3000.68860445 0 514.49771735 0 150.55150779 0 23044
0.14750000 0.14750500 10782.87210324 0 252.19323516 0 3020.88452492 0 287.08655960 0 240.24508945 0 23649
0.14850000 0.14849900 10494.46018636 0 351.35586901 0 2643.52862278 0 -162.61702015 0 744.22852715 0 23640
0.14950000 0.14949500 10203.05874178 0 261.15185317 0 2838.29081634 0 133.22442668 0 902.54948527 0 24457
0.15050000 0.15050000 10211.85016769 0 -25.15089655 0 2714.32506767 0 5.07494472 0 852.72955975 0 24591
0.15150000 0.15149900 10106.68522656 0 164.58235780 0 3096.34241856 0 -38.76653438 0 568.42547538 0 25020
0.15250000 0.15250500 10050.17208069 0 330.86542470 0 3277.87318396 0 -416.99814669 0 586.36374882 0 25297
0.15350000 0.15350100 9736.65920345 0 245.99162603 0 3245.76344199 0 -45.43639213 0 1253.12143368 0 25452
0.15450000 0.15450400 9537.41271834 0 120.98397160 0 3223.79594955 0 74.22177930 0 1012.31276289 0 26061
0.15550000 0.15549900 9611.79659647 0 0.60538600 0 3251.43247229 0 495.20197689 0 1046.79087514 0 26128
0.15650000 0.15649500 9564.05273185 0 115.90731067 0 3520.04707240 0 245.17781016 0 567.68584408 0 26331
0.15750000 0.15749700 9344.08992700 0 307.65340295 0 3111.64437146 0 155.39454267 0 985.72368207 0 27345
0.15850000 0.15849900 9159.84644202 0 207.24181086 0 3031.28143793 0 -12.67925132 0 577.73730055 0 26980
0.15950000 0.15949700 8996.29713212 0 30.60667388 0 2777.60340401 0 185.74821393 0 896.56489370 0 27777
0.16050000 0.16050000 9032.12717524 0 27.85752635 0 2751.90453810 0 222.01893557 0 493.00522764 0 28224
0.16150000 0.16150500 9033.24548004 0 -148.50534217 0 2225.85838597 0 232.19218761 0 146.70387492 0 28075
0.16250000 0.16249700 8915.76811372 0 117.44968551 0 2373.09816141 0 115.73458240 0 -34.88324862 0 28590
0.16350000 0.16349900 8840.89705329 0 303.06060261 0 2281.88434955 0 -180.45121373 0 -498.41295108 0 29163
0.16450000 0.16449100 8637.98562867 0 194.47984928 0 2406.01618309 0 -263.09283171 0 18.24597335 0 28996
0.16550000 0.16550500 8489.22894473 0 109.28794272 0 2365.81257168 0 -109.43631187 0 -162.79639181 0 30777
0.16650000 0.16650700 8451.32837688 0 122.29272039 0 2644.04902204 0 -61.34278324 0 -45.91405222 0 29211
0.16750000 0.16749900 8544.69021975 0 -2.42256931 0 2672.94778982 0 8.86001896 0 -66.30794586 0 30922
0.16850000 0.16850800 8332.00193231 0 69.07370187 0 2831.85779562 0 53.46737076 0 111.41083956 0 30867
0.16950000 0.16949900 8384.93871726 0 314.53263836 0 2872.14998563 0 118.14170581 0 -114.62956438 0 30852
0.17050000 0.17049200 8191.50520268 0 165.23451773 0 2775.41108369 0 70.45453150 0 391.61816374 0 31257
0.17150000 0.17149500 8026.60506916 0 137.51163085 0 2821.46088261 0 138.77719758 0 232.63618783 0 32608
0.17250000 0.17250900 8048.78293577 0 31.87678026 0 2728.78552388 0 309.30096488 0 281.59136479 0 32361
0.17350000 0.17350400 7959.62857633 0 -9.76575727 0 2625.92362631 0 246.80876360 0 239.11239062 0 32508
0.17450000 0.17449800 8010.36196865 0 56.37584905 0 2390.64779624 0 156.59478268 0 123.34126955 0 32791
0.17550000 0.17549800 7841.36507494 0 83.54977006 0 2457.73501232 0 19.58317801 0 365.17745208 0 33633
0.17650000 0.17650100 7810.31827615 0 149.84398624 0 2236.88642149 0 188.53401085 0 213.60618317 0 33984
0.17750000 0.17750300 7782.31636668 0 -22.01853586 0 2138.47559850 0 11.25623613 0 292.16211329 0 34069
0.17850000 0.17849800 7715.70526057 0 -13.07807646 0 2057.44832548 0 287.39215576 0 278.36378210 0 34536
