### header ###
fiducial parameters:
Omega_m = 0.31
Omega_nu = 0
Omega_de = 0.69
Omega_k = 0
H_0 = 100
w_de = -1
zeff = 0
beta = 0
fgrowth = 0
b_1 = 2
gamma = 0.55
Lx = 3500 Ly = 3500 Lz = 3500
nx = 700 ny = 700 nz = 700
xoffset = -685.467585 yoffset = -31.7331281 zoffset = 572.489161
bins = 400 dk = 0.001
kx_ny = 0.628318531 ky_ny = 0.628318531 kz_ny = 0.628318531
############################
A(data) = 8.06926103 (not used)
A(ran) = 8.06964382 (used)
Ngal = 479750
weighted Ngal = 0
Nran = 23820508
weighted Nran = 0
SN(data) = 3483.62396
SN(ran) = 70.2895242
SN(data+ran) = 3553.91348
############################
13 columns: k_central k_mean P_0(k) sigma^{lin}_{P_0(k)} P^img_1(k) sigma^{lin}_{P_1(k)} P_2(k) sigma^{lin}_{P_2(k)} P^img_3(k) sigma^{lin}_{P_3(k)} P_4(k) sigma^{lin}_{P_4(k)} N_modes
### header ###
0.00050000 0 0 0 0 0 0 0 0 0 0 0 0
0.00150000 0.00179520 33271.22884755 0 -16487.57744095 0 14757.08379504 0 -14538.95899612 0 -94260.47275311 0 3
0.00250000 0.00253879 59283.22009750 0 -7358.22418148 0 11177.29045793 0 -1342.97334958 0 53504.90594439 0 6
0.00350000 0.00331552 60637.69759256 0 23.65535764 0 25394.93058781 0 -21995.83759173 0 39659.73882141 0 7
0.00450000 0.00420575 53328.85597978 0 15027.91286011 0 37370.86783490 0 -12600.96998311 0 26059.71296992 0 24
0.00550000 0.00557378 53905.28120984 0 7085.93356954 0 52848.53852914 0 21953.65203417 0 -6671.05355858 0 45
0.00650000 0.00659388 50339.88189498 0 -2673.62320163 0 64714.52759079 0 34887.34537808 0 42135.06775787 0 40
0.00750000 0.00754703 54831.81335066 0 -8507.75294415 0 43130.91265206 0 31058.31400930 0 -24438.28172348 0 57
0.00850000 0.00846663 71747.66831559 0 -13472.69411608 0 36341.69524301 0 23659.12222599 0 -7851.57375842 0 75
0.00950000 0.00948925 70761.45634400 0 474.50005117 0 36284.34060045 0 11545.11308840 0 -16613.91266713 0 112
0.01050000 0.01054430 80434.90364506 0 7503.19413033 0 42887.54295254 0 -10772.10980351 0 312.74002897 0 105
0.01150000 0.01145670 61800.62386827 0 3199.06037590 0 20854.05945643 0 4462.13582959 0 10010.74353201 0 144
0.01250000 0.01249090 81503.05082031 0 -11523.52205501 0 14917.07888867 0 22765.25344338 0 11768.44187999 0 169
0.01350000 0.01339930 88492.23441559 0 -18597.74110489 0 -2156.75600677 0 9565.82430382 0 -9556.03636868 0 180
0.01450000 0.01448870 94534.06989938 0 1819.17189538 0 12655.66726771 0 7272.34723019 0 -19670.20648682 0 267
0.01550000 0.01550050 89608.54620380 0 10814.73825407 0 8881.21138796 0 -14061.96324293 0 5911.60279927 0 238
0.01650000 0.01653350 71788.41447093 0 19424.51159910 0 11809.29875858 0 -1210.67014032 0 4070.64056865 0 315
0.01750000 0.01747870 65355.39375129 0 10870.54277115 0 15343.36339419 0 -2891.37154152 0 13184.03860806 0 297
0.01850000 0.01844180 62603.69958736 0 -4325.04937601 0 13848.82099017 0 3433.15146722 0 -5875.16377830 0 388
0.01950000 0.01947590 69537.18938880 0 -6903.84918790 0 22015.65705316 0 -7327.39882918 0 -912.21673207 0 399
0.02050000 0.02045430 69079.23803430 0 -5908.29217415 0 17885.23700281 0 461.58307704 0 -9283.86755231 0 462
0.02150000 0.02154770 79149.51745686 0 -8517.37479442 0 18035.48845060 0 -1550.73445248 0 -8454.74972524 0 571
0.02250000 0.02255340 87593.82597980 0 -1151.88716786 0 18908.65198580 0 -7043.05045552 0 -26537.59450909 0 510
0.02350000 0.02348930 81337.85173402 0 9628.32757742 0 26059.93441641 0 -14686.44236270 0 -24424.10914771 0 555
0.02450000 0.02439640 73578.69867085 0 12446.95394488 0 30407.92564945 0 -10066.74735094 0 -15682.06581039 0 592
0.02550000 0.02547300 61761.64928491 0 10719.16194623 0 30483.66035121 0 -247.81523793 0 -3923.82154156 0 837
0.02650000 0.02652900 58015.54962901 0 3762.34275640 0 39963.67413768 0 8913.42078086 0 -3284.99268882 0 723
0.02750000 0.02749970 55742.73351349 0 -2288.73811861 0 37547.80358550 0 16066.71837459 0 1656.27585265 0 826
0.02850000 0.02848090 60906.75508566 0 -680.76749745 0 38148.25576042 0 10024.77216755 0 9318.91146037 0 831
0.02950000 0.02946900 56415.59869272 0 2457.30319165 0 35608.81806326 0 1076.49349370 0 9505.36941031 0 996
0.03050000 0.03053250 56657.75043650 0 4601.23744629 0 39605.92732279 0 3981.95124685 0 15751.48928701 0 1041
0.03150000 0.03150510 56829.03930145 0 330.40149429 0 39938.20779060 0 2165.84638545 0 21828.97765671 0 1036
0.03250000 0.03246190 54091.96060628 0 1728.53384441 0 37058.29610527 0 9453.40698994 0 13309.48804825 0 1059
0.03350000 0.03345080 55829.98343306 0 -1151.72108299 0 32202.19588631 0 8504.87413970 0 9784.95668431 0 1302
0.03450000 0.03451200 51768.54396633 0 1424.56531117 0 25435.12312690 0 12594.43731147 0 8416.87130204 0 1339
0.03550000 0.03553350 50723.31650345 0 2898.10351501 0 21808.49385580 0 7802.06939416 0 2240.47385473 0 1365
0.03650000 0.03647120 47707.10449961 0 263.26888168 0 13371.71451373 0 4976.32352184 0 -137.03994982 0 1308
0.03750000 0.03744890 48508.07647699 0 -97.88632696 0 16678.79649057 0 -1470.10578315 0 3644.27855686 0 1579
0.03850000 0.03847530 48905.79438447 0 321.34543982 0 14962.58614368 0 -3789.95713450 0 3059.56015551 0 1662
0.03950000 0.03950240 51712.73944925 0 -643.40504458 0 21109.94088299 0 -3599.53529227 0 4246.91197976 0 1683
0.04050000 0.04050350 50574.17228815 0 172.10932421 0 23049.92291447 0 -1840.77400110 0 6552.96721439 0 1822
0.04150000 0.04152450 50747.34344831 0 2218.82745971 0 24376.16598124 0 172.20454621 0 3305.69793623 0 1887
0.04250000 0.04250150 50134.82243934 0 3183.83592928 0 28871.30841112 0 2787.18096497 0 11023.97197616 0 1920
0.04350000 0.04349210 46233.93168248 0 2483.96534982 0 27881.77474207 0 3209.50157821 0 9261.98863847 0 2005
0.04450000 0.04448520 46189.31021346 0 1118.74769968 0 28280.82132854 0 733.78732485 0 8544.46877325 0 2151
0.04550000 0.04548030 44123.65729530 0 424.32248956 0 29244.33503426 0 2769.00020762 0 7430.75898137 0 2274
0.04650000 0.04648670 43173.43037936 0 2258.47745488 0 26989.67753144 0 1924.68007858 0 4570.50067259 0 2311
0.04750000 0.04749250 42574.08543693 0 1642.47973592 0 24805.32929121 0 4491.48856268 0 5058.36944875 0 2568
0.04850000 0.04851840 41193.47725529 0 -350.68156442 0 23614.83292671 0 2228.57110555 0 4219.72942234 0 2493
0.04950000 0.04949480 41248.39598639 0 1338.12367131 0 21867.39862383 0 1711.64854906 0 3463.43427560 0 2644
0.05050000 0.05050630 39603.49141133 0 2221.14157559 0 20556.32464206 0 4914.86104677 0 5538.76440566 0 2829
0.05150000 0.05149060 37769.69297487 0 2142.72737123 0 21151.24065456 0 2568.39182656 0 4099.71649363 0 2784
0.05250000 0.05249300 35143.89114413 0 138.45056400 0 17251.23568369 0 3709.38382679 0 4885.26472253 0 3055
0.05350000 0.05348950 35402.54065189 0 91.27083433 0 15961.86345856 0 2301.27199031 0 1933.13933474 0 3009
0.05450000 0.05448610 34415.66434081 0 1641.89290271 0 15498.92955789 0 677.50448333 0 1549.67150929 0 3336
0.05550000 0.05550870 32742.74678396 0 1194.72599258 0 13643.09719504 0 -213.24522538 0 2930.87759647 0 3349
0.05650000 0.05647670 33178.66421207 0 249.55912909 0 14469.53551950 0 826.93768631 0 3313.41534663 0 3324
0.05750000 0.05747970 32225.00487544 0 -724.79106093 0 12903.46589715 0 1907.58440906 0 6083.21276164 0 3639
0.05850000 0.05849280 34333.61841390 0 -731.57950328 0 14710.80147730 0 689.13485332 0 104.45996621 0 3846
0.05950000 0.05951020 34375.36107847 0 868.78110904 0 14339.76787263 0 640.66353696 0 1554.52118756 0 3787
0.06050000 0.06049470 33656.21358149 0 1564.68558175 0 16616.79147158 0 -249.15720370 0 6148.58376737 0 3930
0.06150000 0.06148310 32566.58609609 0 993.81422982 0 13543.77844142 0 429.32385868 0 7909.44880025 0 4083
0.06250000 0.06249100 33056.42574607 0 -518.17151472 0 15990.54077984 0 2263.84753242 0 4983.54267762 0 4303
0.06350000 0.06350600 33529.21401582 0 -455.97715898 0 15896.31529563 0 1744.90981282 0 5630.90829280 0 4470
0.06450000 0.06451750 33396.89973424 0 -113.33410238 0 15223.33939316 0 2330.61365108 0 5429.19267925 0 4479
0.06550000 0.06550280 33413.61894472 0 257.82240510 0 13902.74321204 0 -1114.97203691 0 3043.70458637 0 4636
0.06650000 0.06648880 32689.71034808 0 943.09855322 0 14994.58516240 0 968.84724458 0 3569.68430456 0 4653
0.06750000 0.06749660 32326.09520103 0 667.98339122 0 12720.32964465 0 1076.68504492 0 3076.52295713 0 5220
0.06850000 0.06852730 31868.91890927 0 -697.83659339 0 12350.07110272 0 2249.74139060 0 3745.30244851 0 5029
0.06950000 0.06949320 32642.54224435 0 -1212.60779716 0 10570.07309255 0 2283.62270455 0 382.64625894 0 5040
0.07050000 0.07048030 32565.70031011 0 705.33034283 0 11507.68863052 0 1201.70155722 0 -635.47283108 0 5475
0.07150000 0.07148790 31446.95261043 0 2174.57137741 0 10268.83942353 0 -783.60835760 0 967.91052590 0 5509
0.07250000 0.07249820 29072.60327632 0 2397.19154021 0 9315.44582270 0 -619.15665323 0 276.86569656 0 5916
0.07350000 0.07351270 27691.33075519 0 1529.86312019 0 10413.34433474 0 481.43796990 0 676.44929077 0 5721
0.07450000 0.07449140 26745.42204594 0 435.25530309 0 9865.55213666 0 479.00427291 0 -2074.73222452 0 6028
0.07550000 0.07549160 26465.51367452 0 -8.42046981 0 9978.45663284 0 -421.03733079 0 -1255.40233259 0 6183
0.07650000 0.07648840 26151.94543566 0 513.16460944 0 10484.87155307 0 -236.99757658 0 -615.03442670 0 6330
0.07750000 0.07749960 26225.24422596 0 644.11367337 0 11743.86131890 0 268.61238564 0 -225.62740622 0 6583
0.07850000 0.07848650 25618.25937940 0 345.78648962 0 10634.42544439 0 975.17839992 0 1230.03563643 0 6549
0.07950000 0.07947320 25075.05112380 0 729.91090393 0 10627.67132625 0 1258.50258354 0 1369.79052029 0 6828
0.08050000 0.08048110 24885.93581589 0 235.27361561 0 10011.70682427 0 468.02052669 0 1397.93636998 0 7147
0.08150000 0.08149960 24809.42605140 0 584.30318917 0 10579.47349632 0 1577.93915455 0 1439.54616665 0 7386
0.08250000 0.08250610 23400.36199498 0 507.92518534 0 9024.21046299 0 124.53597340 0 436.97483513 0 7227
0.08350000 0.08350160 23012.49845658 0 1072.29486813 0 9181.91358538 0 338.74116934 0 -119.26886848 0 7798
0.08450000 0.08449610 22198.90402890 0 656.34194890 0 8934.75715078 0 722.37507966 0 -423.46549162 0 7371
0.08550000 0.08548940 22095.59923835 0 192.25984815 0 7863.65366480 0 878.99089975 0 -213.66043756 0 8256
0.08650000 0.08650700 21769.85144218 0 -470.17741556 0 7409.98730001 0 286.99798100 0 189.92358761 0 8037
0.08750000 0.08749060 22052.08500181 0 -27.59788033 0 7588.82749048 0 1201.93407604 0 -681.95887960 0 8155
0.08850000 0.08849210 22348.04824421 0 17.72590625 0 7742.34527409 0 254.66014913 0 170.65331350 0 8718
0.08950000 0.08949900 22191.59629452 0 486.85898014 0 7993.96385559 0 -198.13371647 0 351.03255712 0 8571
0.09050000 0.09049190 21825.65595927 0 438.58807286 0 8499.54835146 0 -55.49548850 0 749.30408085 0 8932
0.09150000 0.09150830 21052.36479393 0 642.50265011 0 8181.63976127 0 -555.93257128 0 25.64749032 0 9285
0.09250000 0.09250820 20857.71332362 0 548.69791425 0 8705.10606172 0 873.48795432 0 1371.38493506 0 9204
0.09350000 0.09350330 20132.36532475 0 337.22536807 0 8281.27961231 0 522.45761166 0 401.94975003 0 9349
0.09450000 0.09448040 19850.90682786 0 235.96785037 0 7495.22205646 0 912.14144026 0 2142.35091219 0 9564
0.09550000 0.09549270 20154.73142089 0 79.81629286 0 7395.28325265 0 1388.67990643 0 8.17356804 0 10155
0.09650000 0.09649430 19541.21390268 0 410.68027815 0 7011.33931724 0 -95.72013733 0 875.58948157 0 9913
0.09750000 0.09749140 19242.26113258 0 1052.48537180 0 8010.71628304 0 -749.47016572 0 671.51767730 0 10476
0.09850000 0.09850240 18479.26722933 0 620.01697287 0 7877.75980662 0 -966.72800161 0 1493.42409921 0 10575
0.09950000 0.09950330 18435.97443929 0 254.18957533 0 8338.94427997 0 -46.43279064 0 1213.05069016 0 10882
0.10050000 0.10051200 18323.25817263 0 24.74731031 0 8639.79041761 0 5.91143671 0 703.41150894 0 10875
0.10150000 0.10150300 17920.33627248 0 417.88061098 0 8603.18531176 0 1033.80968153 0 376.69377712 0 11118
0.10250000 0.10250800 17714.28030761 0 405.01567677 0 7900.86774852 0 818.13408085 0 1014.97233531 0 11575
0.10350000 0.10349800 16964.68391739 0 308.74845587 0 7500.91323142 0 1182.34713343 0 1596.96140859 0 11364
0.10450000 0.10450100 16703.59849816 0 395.24213566 0 7393.46739138 0 1294.76444732 0 669.84132732 0 12093
0.10550000 0.10551000 16478.71958109 0 350.17113025 0 7261.67350906 0 945.31301818 0 1220.83453450 0 12067
0.10650000 0.10649700 15993.97320053 0 446.68083507 0 6096.79850419 0 369.27310503 0 1578.34883057 0 12054
0.10750000 0.10749900 15721.59401000 0 150.96339827 0 6429.98690263 0 318.79216171 0 2129.41843680 0 12807
0.10850000 0.10850100 15689.15209828 0 21.83750335 0 6092.21456172 0 478.58241733 0 1863.82658137 0 12736
0.10950000 0.10950300 15724.91570744 0 181.14212680 0 6021.68385262 0 216.45841404 0 1965.82483760 0 12933
0.11050000 0.11050200 15441.79636183 0 206.99157632 0 5582.90976471 0 303.46474247 0 2550.55431127 0 13428
0.11150000 0.11150900 15375.58385941 0 306.52181135 0 5509.63311906 0 473.45482371 0 2191.67811925 0 13453
0.11250000 0.11250000 15408.35794088 0 -233.91947028 0 5173.69878406 0 805.60795978 0 2712.27668758 0 13668
0.11350000 0.11349100 15313.35739393 0 -95.26251815 0 5336.86056259 0 658.86090280 0 1665.55446084 0 13791
0.11450000 0.11448600 15553.40539600 0 17.20174239 0 4883.33813802 0 -216.57245899 0 1697.59776887 0 14205
0.11550000 0.11549300 15396.39983007 0 210.43949827 0 5294.04388251 0 -30.62848636 0 1234.76351913 0 14776
0.11650000 0.11649800 15192.55833016 0 508.08573405 0 4812.53062080 0 -244.14476225 0 2019.25987718 0 14553
0.11750000 0.11747300 14786.97907205 0 439.16604821 0 4792.24612173 0 29.94820272 0 2084.45372571 0 14568
0.11850000 0.11849100 14646.13910036 0 -48.26603546 0 4660.87298776 0 294.96784040 0 1831.49539290 0 16015
0.11950000 0.11950300 14581.58744667 0 106.60279323 0 4762.51692959 0 365.56387621 0 1155.77355387 0 15270
0.12050000 0.12050700 14465.66020582 0 327.45071972 0 4975.88062885 0 281.45628243 0 827.19567148 0 15999
0.12150000 0.12150000 13935.29584700 0 500.65398963 0 5307.72927599 0 -363.03717169 0 1656.58587774 0 15670
0.12250000 0.12250700 13752.27031775 0 365.06451436 0 4758.25408454 0 -9.14204214 0 1300.65492412 0 16887
0.12350000 0.12352200 13542.11759269 0 156.86826910 0 5061.20396390 0 664.51221739 0 1668.04573393 0 16407
0.12450000 0.12449800 13587.73557095 0 -53.20108135 0 4654.98251096 0 227.06459399 0 1177.67461236 0 16306
0.12550000 0.12549900 13496.38889119 0 -143.36114005 0 4788.16043387 0 547.43234752 0 1056.47694490 0 17523
0.12650000 0.12650100 13406.59233691 0 203.01661171 0 4386.04681344 0 -321.20925022 0 601.53504828 0 17154
0.12750000 0.12750600 13284.24314767 0 612.23866468 0 4629.41651295 0 -337.24751272 0 150.42860499 0 18007
0.12850000 0.12850300 12582.58992391 0 532.41938230 0 4559.84909611 0 -461.76577040 0 350.88640243 0 17496
0.12950000 0.12949900 12513.38789379 0 445.24254007 0 4644.72953817 0 -280.25050625 0 17.12235382 0 18405
0.13050000 0.13049000 12254.62766278 0 -152.03741378 0 4624.74399188 0 104.94914152 0 161.67255084 0 18100
0.13150000 0.13148800 12352.61773743 0 -351.90948525 0 4136.74234782 0 689.89995096 0 -1435.59334669 0 19059
0.13250000 0.13249300 12519.92056544 0 -49.78216889 0 3890.02880621 0 116.05014366 0 -648.69429415 0 18957
0.13350000 0.13349100 12694.86329757 0 61.81845031 0 3792.34875666 0 399.36436219 0 -1604.53487877 0 19468
0.13450000 0.13450700 12393.58533926 0 169.07772168 0 3331.06463239 0 121.72581736 0 -453.01199040 0 19953
0.13550000 0.13551000 12209.00968453 0 368.64087528 0 3072.45941393 0 265.95170598 0 -724.73902100 0 19956
0.13650000 0.13649900 11942.83099589 0 235.74086771 0 3414.17350248 0 349.06057607 0 -544.40960285 0 19723
0.13750000 0.13749600 11811.40250029 0 164.33765942 0 3367.08290503 0 560.61505745 0 -64.00158060 0 20946
0.13850000 0.13851100 11494.73401048 0 269.24904431 0 3248.03326858 0 137.62899750 0 271.46018758 0 20955
0.13950000 0.13949800 11482.99734617 0 212.29521991 0 3078.44954165 0 24.00978275 0 714.35207309 0 20506
0.14050000 0.14048300 11250.81069472 0 225.17454814 0 3570.35971637 0 176.09979008 0 1212.48600159 0 21447
0.14150000 0.14148400 10975.89594180 0 251.14468600 0 3394.50905360 0 315.82810036 0 972.31177502 0 21771
0.14250000 0.14249400 10820.51800762 0 205.08935092 0 3618.43575073 0 8.43384518 0 635.64445212 0 22470
0.14350000 0.14350900 10670.56551260 0 159.58209591 0 3766.10734684 0 -26.38546077 0 895.55177598 0 22519
0.14450000 0.14449900 10574.49095015 0 275.23806481 0 3567.81308166 0 -311.38034748 0 1066.38224668 0 22218
0.14550000 0.14550500 10345.58170685 0 204.17809859 0 3721.18692505 0 282.84143026 0 1174.72937396 0 23559
0.14650000 0.14650700 10247.74664475 0 226.82653900 0 3560.26175614 0 14.65577202 0 542.85726291 0 23044
0.14750000 0.14750500 10132.73840686 0 229.70091453 0 3621.53600168 0 -7.03211100 0 881.02931475 0 23649
0.14850000 0.14849900 9871.27652859 0 198.77037514 0 3425.93231144 0 154.09686620 0 802.44238212 0 23640
0.14950000 0.14949500 9826.34503448 0 16.35061278 0 3348.66962885 0 64.08307291 0 699.53508802 0 24457
0.15050000 0.15050000 9761.82659776 0 66.31403563 0 3565.68719530 0 287.63353244 0 493.05837480 0 24591
0.15150000 0.15149900 9633.70872728 0 173.28077618 0 3402.07145145 0 123.52396291 0 285.39581560 0 25020
0.15250000 0.15250500 9475.52949493 0 130.17178673 0 3376.72689994 0 189.13080916 0 491.89578070 0 25297
0.15350000 0.15350100 9439.56658391 0 155.70788946 0 3224.58208461 0 215.01790458 0 858.16274953 0 25452
0.15450000 0.15450400 9512.27854100 0 -105.02952659 0 3241.44523531 0 225.73148608 0 886.51786616 0 26061
0.15550000 0.15549900 9673.20370991 0 -32.82191391 0 3203.81040325 0 191.43274549 0 495.33152309 0 26128
0.15650000 0.15649500 9474.57727499 0 53.47733586 0 3145.14922636 0 52.82584026 0 657.81346087 0 26331
0.15750000 0.15749700 9423.54492990 0 129.52405573 0 2907.63678668 0 130.57481935 0 968.67230185 0 27345
0.15850000 0.15849900 9443.33117435 0 -20.26080429 0 2784.21358192 0 454.67505359 0 816.77107766 0 26980
0.15950000 0.15949700 9411.08856448 0 -36.01738685 0 2574.40409893 0 352.50185462 0 661.93125847 0 27777
0.16050000 0.16050000 9390.74870379 0 113.08276061 0 2292.50270905 0 163.42862156 0 659.03695276 0 28224
0.16150000 0.16150500 9374.62739885 0 93.27116053 0 2390.62565159 0 -32.06855293 0 231.29311483 0 28075
0.16250000 0.16249700 9203.13923206 0 182.96573870 0 2716.82741308 0 -392.05773504 0 594.95144395 0 28590
0.16350000 0.16349900 9089.96900009 0 239.66157793 0 2485.24973949 0 -188.85842997 0 579.73806964 0 29163
0.16450000 0.16449100 9033.51121584 0 137.83604997 0 2997.84301697 0 -75.49498593 0 866.44595573 0 28996
0.16550000 0.16550500 9052.41167431 0 -36.36882244 0 2878.38370450 0 229.53704412 0 920.27959900 0 30777
0.16650000 0.16650700 8971.76086033 0 163.03333956 0 3277.74031606 0 181.37686009 0 998.09368336 0 29211
0.16750000 0.16749900 8998.88805613 0 109.04446230 0 2982.10924341 0 -37.90809704 0 635.46175876 0 30922
0.16850000 0.16850800 8808.35549065 0 36.13873953 0 3185.34176545 0 -8.95269432 0 758.37342211 0 30867
0.16950000 0.16949900 8835.31660159 0 160.40698411 0 3130.34552808 0 -50.03982189 0 505.65757321 0 30852
0.17050000 0.17049200 8701.48541150 0 137.94455875 0 3175.21058824 0 -38.15633856 0 331.84200374 0 31257
0.17150000 0.17149500 8523.28741587 0 221.08221689 0 2864.80903428 0 58.12893024 0 591.26768148 0 32608
0.17250000 0.17250900 8374.61931053 0 90.99291898 0 2578.14654472 0 334.73852392 0 437.91930444 0 32361
0.17350000 0.17350400 8352.14249115 0 -33.38925983 0 2312.63219557 0 630.45263901 0 275.68538673 0 32508
0.17450000 0.17449800 8334.40462679 0 -60.14929734 0 2121.91140057 0 398.53947399 0 249.48162281 0 32791
0.17550000 0.17549800 8234.74263110 0 76.84359509 0 2104.40605503 0 122.05023648 0 101.87767861 0 33633
0.17650000 0.17650100 8171.95147705 0 260.44765331 0 2090.20026229 0 -101.37599157 0 288.03213613 0 33984
0.17750000 0.17750300 7941.80213337 0 189.42422576 0 2166.85396701 0 -105.76018931 0 630.77262920 0 34069
0.17850000 0.17849800 7992.19228362 0 77.72295913 0 2216.21439105 0 -1.65214588 0 575.26263595 0 34536
