### header ###
fiducial parameters:
Omega_m = 0.31
Omega_nu = 0
Omega_de = 0.69
Omega_k = 0
H_0 = 100
w_de = -1
zeff = 0
beta = 0
fgrowth = 0
b_1 = 2
gamma = 0.55
Lx = 3500 Ly = 3500 Lz = 3500
nx = 700 ny = 700 nz = 700
xoffset = -685.467585 yoffset = -31.7331281 zoffset = 572.489161
bins = 400 dk = 0.001
kx_ny = 0.628318531 ky_ny = 0.628318531 kz_ny = 0.628318531
############################
A(data) = 8.01867628 (not used)
A(ran) = 8.01121301 (used)
Ngal = 476191
weighted Ngal = 0
Nran = 23820508
weighted Nran = 0
SN(data) = 3497.3818
SN(ran) = 69.7805707
SN(data+ran) = 3567.16237
############################
13 columns: k_central k_mean P_0(k) sigma^{lin}_{P_0(k)} P^img_1(k) sigma^{lin}_{P_1(k)} P_2(k) sigma^{lin}_{P_2(k)} P^img_3(k) sigma^{lin}_{P_3(k)} P_4(k) sigma^{lin}_{P_4(k)} N_modes
### header ###
0.00050000 0 0 0 0 0 0 0 0 0 0 0 0
0.00150000 0.00179520 31568.30529044 0 -15637.66578787 0 2927.89914109 0 10655.27463203 0 -52981.51715022 0 3
0.00250000 0.00253879 56442.17227228 0 -13521.63379178 0 33680.12980310 0 4299.48337800 0 24746.64596967 0 6
0.00350000 0.00331552 55623.48457519 0 4810.10578167 0 36608.53827114 0 -4218.55575590 0 52278.97814047 0 7
0.00450000 0.00420575 64502.27112402 0 6348.17349455 0 40045.38789485 0 27553.81248095 0 16897.47490574 0 24
0.00550000 0.00557378 67132.39116144 0 -10147.09921215 0 28169.87663386 0 69537.30011205 0 1715.60136903 0 45
0.00650000 0.00659388 73787.19054719 0 -86.84566899 0 10438.13527001 0 61953.64339726 0 -29832.05403563 0 40
0.00750000 0.00754703 88378.52163970 0 -20705.80102711 0 -24853.71535067 0 53158.23145432 0 -15561.15602337 0 57
0.00850000 0.00846663 83706.99707546 0 -6102.55611310 0 -21556.37701968 0 -21910.13779763 0 -38191.65927371 0 75
0.00950000 0.00948925 87343.25926915 0 9414.88637189 0 -31882.42714555 0 -40657.57673407 0 -530.44075785 0 112
0.01050000 0.01054430 72119.03409001 0 8597.60486005 0 -10709.00862437 0 -35468.97460080 0 -10737.80774123 0 105
0.01150000 0.01145670 70687.16104446 0 14175.67601882 0 6660.44627141 0 -32699.45399392 0 -7560.22767547 0 144
0.01250000 0.01249090 64439.04814930 0 7021.93553209 0 13362.08159114 0 -12036.28141736 0 -11227.33736611 0 169
0.01350000 0.01339930 68253.57477257 0 5776.70866601 0 39776.55184825 0 -398.27152373 0 -6306.17616651 0 180
0.01450000 0.01448870 66655.83830124 0 -6821.77004402 0 32687.16371337 0 3508.14432322 0 -24368.63680037 0 267
0.01550000 0.01550050 68933.52623969 0 -4426.87047504 0 42671.07900234 0 17852.68436784 0 -15121.47400483 0 238
0.01650000 0.01653350 70981.24199165 0 -918.61099965 0 27028.98428454 0 10941.13991419 0 -18432.32057210 0 315
0.01750000 0.01747870 71966.12528427 0 -1848.01530153 0 26195.01677920 0 14346.18982102 0 -16728.06833601 0 297
0.01850000 0.01844180 74311.35440410 0 -6436.01024733 0 11825.02145982 0 1870.56962719 0 -29383.62488048 0 388
0.01950000 0.01947590 77876.53227246 0 -417.45543371 0 11170.42561654 0 -11456.86665960 0 -19871.27990553 0 399
0.02050000 0.02045430 75526.09915996 0 3376.74904459 0 15779.17009905 0 -15697.67778839 0 -26242.51705267 0 462
0.02150000 0.02154770 78163.96982475 0 587.97034315 0 15553.40539600 0 -8561.13262210 0 -3027.90437886 0 571
0.02250000 0.02255340 76548.40691046 0 -607.08560471 0 18784.42050133 0 -3461.92843942 0 -17334.61028958 0 510
0.02350000 0.02348930 77581.45481604 0 1631.91673805 0 16151.53238270 0 6157.04302353 0 -16297.79779356 0 555
0.02450000 0.02439640 78634.32218305 0 1682.47297317 0 21725.89431265 0 3777.24610561 0 -11698.79695689 0 592
0.02550000 0.02547300 70895.76364405 0 5978.26926701 0 15881.03548738 0 2352.02752728 0 -5818.35167965 0 837
0.02650000 0.02652900 69819.09077868 0 4772.13877986 0 17128.77577120 0 2645.48842427 0 -5626.63437542 0 723
0.02750000 0.02749970 63804.05032095 0 2386.75033791 0 16982.39963710 0 810.40670536 0 -4367.09099335 0 826
0.02850000 0.02848090 62523.86812542 0 2886.99797321 0 20997.11389309 0 -2421.58387179 0 -1786.26494602 0 831
0.02950000 0.02946900 61423.61120819 0 3238.97610687 0 28537.69926433 0 -4030.41481259 0 -3184.84351084 0 996
0.03050000 0.03053250 59597.34195260 0 3105.80925628 0 32664.02255450 0 3825.24463370 0 10119.72842520 0 1041
0.03150000 0.03150510 56466.64211013 0 3390.14655762 0 34884.57729688 0 6835.33364192 0 12892.17212584 0 1036
0.03250000 0.03246190 56618.00079040 0 498.55799854 0 31143.34946390 0 10237.54903359 0 11328.75986145 0 1059
0.03350000 0.03345080 58234.00659768 0 -256.25899284 0 31321.39244699 0 9589.55229591 0 15182.92540757 0 1302
0.03450000 0.03451200 55696.34047250 0 937.95656557 0 26852.71287343 0 6189.71745407 0 7307.64580171 0 1339
0.03550000 0.03553350 54809.44725453 0 865.70189550 0 22372.18591232 0 3560.12888824 0 9638.41446533 0 1365
0.03650000 0.03647120 51218.36014609 0 2574.82484728 0 20830.58612782 0 2422.69110427 0 6218.04046095 0 1308
0.03750000 0.03744890 49775.19332923 0 3448.61950499 0 19293.19382675 0 1849.80901815 0 7092.96449580 0 1579
0.03850000 0.03847530 46792.97336258 0 4178.23034891 0 18381.49860118 0 1353.59170908 0 268.98995191 0 1662
0.03950000 0.03950240 42578.62509010 0 3419.57679699 0 16019.88244061 0 2242.07934183 0 3397.02247134 0 1683
0.04050000 0.04050350 42673.40419055 0 619.89296283 0 16001.72382791 0 2400.00391072 0 7227.83648442 0 1822
0.04150000 0.04152450 43808.64965421 0 -1840.35325276 0 18159.27704207 0 2637.80423085 0 6357.73998319 0 1887
0.04250000 0.04250150 43536.04901717 0 271.81893090 0 17393.51505761 0 1312.09263566 0 4966.50236973 0 1920
0.04350000 0.04349210 43207.86530955 0 1879.34998077 0 18232.79727886 0 765.94578505 0 9713.78378037 0 2005
0.04450000 0.04448520 42093.98943279 0 -431.24601427 0 16019.43954762 0 5050.87348485 0 11008.76967419 0 2151
0.04550000 0.04548030 41853.05564474 0 -1223.10436109 0 12469.54148751 0 7708.98435941 0 5576.65390118 0 2274
0.04650000 0.04648670 43180.07377425 0 -758.88939244 0 11329.53492418 0 3174.45767016 0 4261.52744853 0 2311
0.04750000 0.04749250 43015.42830420 0 1215.95163926 0 11355.00127127 0 337.44792180 0 3213.17759005 0 2568
0.04850000 0.04851840 40890.98134125 0 1723.86132334 0 11942.16665640 0 -665.61834264 0 10353.78629954 0 2493
0.04950000 0.04949480 40532.57018687 0 1192.36758740 0 12582.14703092 0 407.44826654 0 9588.17932763 0 2644
0.05050000 0.05050630 39435.96713683 0 2227.69639189 0 14447.72303961 0 442.52982049 0 9006.32865841 0 2829
0.05150000 0.05149060 36963.73845132 0 2889.24565515 0 13106.64305758 0 1975.91172551 0 12167.93135945 0 2784
0.05250000 0.05249300 35155.07419219 0 1868.64304267 0 13032.12631155 0 2880.08884253 0 12412.74046119 0 3055
0.05350000 0.05348950 33626.20758124 0 128.32049402 0 11721.82739251 0 3978.98386380 0 12395.46763447 0 3009
0.05450000 0.05448610 33353.93911395 0 18.61291019 0 9250.30733579 0 4775.44940498 0 12683.23735651 0 3336
0.05550000 0.05550870 34236.73557174 0 -462.94608022 0 8119.90047808 0 1038.32940452 0 12978.09336643 0 3349
0.05650000 0.05647670 32956.44265296 0 -456.06905928 0 6489.34563599 0 -40.99251456 0 12640.94107570 0 3324
0.05750000 0.05747970 34148.37841968 0 -525.13047087 0 6302.42264840 0 -910.17056644 0 7011.21752166 0 3639
0.05850000 0.05849280 34885.46308286 0 -240.71123432 0 8322.02576764 0 -3534.08678027 0 5117.97177325 0 3846
0.05950000 0.05951020 34397.39500485 0 1342.44187799 0 10034.17257133 0 -4585.20471995 0 3181.73218756 0 3787
0.06050000 0.06049470 33782.10591468 0 1446.67674383 0 11437.26864467 0 -3580.21408546 0 5231.64025984 0 3930
0.06150000 0.06148310 33822.96279326 0 739.52278910 0 12889.95766088 0 -1435.05080277 0 1417.63403583 0 4083
0.06250000 0.06249100 34329.07876072 0 -710.53101380 0 14547.37396298 0 -1256.19953997 0 2272.36215021 0 4303
0.06350000 0.06350600 34072.64371792 0 254.95356574 0 15559.60589790 0 489.99023359 0 -851.08310505 0 4470
0.06450000 0.06451750 34166.64775563 0 1413.26046753 0 14439.97241224 0 2112.04595916 0 -124.99879658 0 4479
0.06550000 0.06550280 33340.54160092 0 410.15766442 0 15079.95278676 0 2365.01536429 0 1604.71203597 0 4636
0.06650000 0.06648880 31893.83164011 0 420.49810857 0 11932.97662680 0 3180.89069088 0 684.82329003 0 4653
0.06750000 0.06749660 31592.55368180 0 1305.46031309 0 12512.16993806 0 1555.38482890 0 1053.83730266 0 5220
0.06850000 0.06852730 30134.66067292 0 1469.36393738 0 11110.74578577 0 -179.20446996 0 327.21377197 0 5029
0.06950000 0.06949320 28532.16310192 0 1379.29057498 0 11841.51922380 0 1679.17342037 0 1590.99342552 0 5040
0.07050000 0.07048030 28156.58984407 0 207.78214031 0 10033.75182298 0 -464.34672931 0 1108.20684645 0 5475
0.07150000 0.07148790 28779.85100811 0 -301.46397337 0 12194.39421577 0 1897.64146137 0 1837.18656786 0 5509
0.07250000 0.07249820 28467.16855524 0 278.68820122 0 11396.30104284 0 974.46644943 0 344.88852408 0 5916
0.07350000 0.07351270 28096.79929005 0 205.09599431 0 11104.65600712 0 1589.03362402 0 1458.26946791 0 5721
0.07450000 0.07449140 28130.79132725 0 -73.91452228 0 10588.60816429 0 89.53103993 0 2703.89493769 0 6028
0.07550000 0.07549160 27815.67296291 0 394.06182583 0 11052.22854910 0 224.08613861 0 1528.33513937 0 6183
0.07650000 0.07648840 27360.93258261 0 1672.05391551 0 11839.85837507 0 -1407.09318260 0 781.97408246 0 6330
0.07750000 0.07749960 25422.72212310 0 1572.87910211 0 11569.80437275 0 -1247.46347569 0 1472.61920088 0 6583
0.07850000 0.07848650 25144.91749340 0 625.29182841 0 10277.35404132 0 1120.98430929 0 257.40276399 0 6549
0.07950000 0.07947320 24701.24943792 0 -514.73355787 0 11216.59721103 0 -293.29038319 0 -520.05491717 0 6828
0.08050000 0.08048110 24757.60757124 0 92.09306517 0 9784.02660902 0 1558.71759867 0 -2388.34475268 0 7147
0.08150000 0.08149960 24711.76814650 0 557.90787403 0 8915.14806353 0 613.06355288 0 -2582.04400306 0 7386
0.08250000 0.08250610 23728.54570260 0 138.19590053 0 8218.61025384 0 885.47153147 0 -1544.47858895 0 7227
0.08350000 0.08350160 23820.33527535 0 160.76351297 0 7991.41722088 0 1235.17319514 0 -1716.28785316 0 7798
0.08450000 0.08449610 23609.73965730 0 194.73451275 0 7086.40967951 0 1545.88477420 0 -2706.44157240 0 7371
0.08550000 0.08548940 22864.90436675 0 804.53837320 0 7114.30086572 0 1019.48320044 0 -812.05869622 0 8256
0.08650000 0.08650700 22401.30612659 0 666.19742522 0 6701.57995811 0 151.67867046 0 -1930.23838563 0 8037
0.08750000 0.08749060 21729.21601010 0 628.99330660 0 7222.56605780 0 368.02857572 0 52.02730420 0 8155
0.08850000 0.08849210 21216.67809424 0 422.01169537 0 7963.73640884 0 -588.43427356 0 309.13377277 0 8718
0.08950000 0.08949900 21055.46504488 0 569.36330129 0 7822.36496555 0 605.34835695 0 657.35838832 0 8571
0.09050000 0.09049190 20831.80408355 0 567.89289655 0 7808.11488351 0 -338.32484993 0 360.60901086 0 8932
0.09150000 0.09150830 19916.12282104 0 757.16210977 0 8261.36049996 0 -257.90212584 0 262.39527525 0 9285
0.09250000 0.09250820 19916.12282104 0 716.44363525 0 8359.56094878 0 -281.37213276 0 1603.39442931 0 9204
0.09350000 0.09350330 19280.68209970 0 286.26942202 0 8571.13093141 0 -429.34378887 0 -252.92622306 0 9349
0.09450000 0.09448040 18975.75027420 0 183.88252719 0 8762.33890871 0 916.67777174 0 997.45370299 0 9564
0.09550000 0.09549270 18770.02647907 0 118.10738161 0 8856.06613830 0 989.12288579 0 202.63129481 0 10155
0.09650000 0.09649430 19043.62362533 0 144.53812818 0 9115.44641950 0 279.69578278 0 452.15942139 0 9913
0.09750000 0.09749140 18452.14003352 0 286.60602070 0 8723.65220579 0 377.11673993 0 -236.98539702 0 10476
0.09850000 0.09850240 17982.00912172 0 657.36946065 0 8001.13872207 0 -178.24671386 0 575.38221706 0 10575
0.09950000 0.09950330 17992.86000004 0 701.68090457 0 7946.28642492 0 -49.61209798 0 1140.67090282 0 10882
0.10050000 0.10051200 17339.03921950 0 79.30707664 0 7968.63037641 0 431.47188970 0 1189.92060361 0 10875
0.10150000 0.10150300 17358.96940418 0 133.23882071 0 8175.66070587 0 962.86597472 0 904.52700248 0 11118
0.10250000 0.10250800 17223.33342515 0 18.48956449 0 6897.88120482 0 929.77079583 0 -789.48333315 0 11575
0.10350000 0.10349800 17018.05252301 0 42.10849418 0 6928.82835269 0 790.44330371 0 -831.64674606 0 11364
0.10450000 0.10450100 16684.11120648 0 423.31712247 0 6585.81880213 0 -177.25131186 0 -613.18645569 0 12093
0.10550000 0.10551000 16588.55704330 0 382.23658292 0 7000.79846401 0 -544.51700440 0 -432.64112720 0 12067
0.10650000 0.10649700 16425.24025222 0 273.81859277 0 6510.87023543 0 215.43754569 0 27.62556115 0 12054
0.10750000 0.10749900 16046.56674342 0 326.50625041 0 6364.79305410 0 149.87498875 0 -17.23662021 0 12807
0.10850000 0.10850100 16090.96676595 0 91.23440638 0 6213.66689265 0 994.79302333 0 -182.03455618 0 12736
0.10950000 0.10950300 15601.90217871 0 107.34729635 0 5686.83460546 0 1392.20090572 0 457.05338896 0 12933
0.11050000 0.11050200 15464.60535096 0 82.07327555 0 5267.41494132 0 932.46026353 0 -177.34874832 0 13428
0.11150000 0.11150900 15313.68956368 0 193.81218809 0 4901.25315957 0 920.96276144 0 364.70577104 0 13453
0.11250000 0.11250000 15121.03111183 0 200.95605206 0 4644.15377728 0 286.68684867 0 76.21845163 0 13668
0.11350000 0.11349100 14879.76515403 0 362.34625862 0 4390.17679059 0 -478.98877165 0 148.17981582 0 13791
0.11450000 0.11448600 14716.11619321 0 357.29174234 0 4883.92497123 0 -757.95931716 0 248.35667461 0 14205
0.11550000 0.11549300 14261.81870591 0 372.69445340 0 5260.69404016 0 -346.25263450 0 30.54854417 0 14776
0.11650000 0.11649800 14228.60173145 0 233.27395374 0 5253.66311390 0 330.49560905 0 154.35042244 0 14553
0.11750000 0.11747300 13754.81695246 0 23.19795990 0 4541.03721625 0 739.60472431 0 89.66501506 0 14568
0.11850000 0.11849100 14165.04658699 0 -104.82413497 0 4826.43746077 0 817.06117257 0 -54.59331547 0 16015
0.11950000 0.11950300 14170.91491914 0 -74.91623551 0 4348.10195628 0 284.00845330 0 -116.98354064 0 15270
0.12050000 0.12050700 13902.63248879 0 663.21121922 0 4328.24927788 0 -288.58796684 0 433.04415982 0 15999
0.12150000 0.12150000 13483.65571765 0 546.07598773 0 4378.94945323 0 -197.36529712 0 1576.26723351 0 15670
0.12250000 0.12250700 13232.20322102 0 -77.23455888 0 4625.49690996 0 188.15201564 0 1070.81339107 0 16887
0.12350000 0.12352200 13501.37143736 0 7.59536016 0 4786.64352537 0 563.68541312 0 642.63108908 0 16407
0.12450000 0.12449800 13267.08104420 0 179.08710331 0 4249.31467425 0 285.69144667 0 704.11570880 0 16306
0.12550000 0.12549900 13257.89101460 0 64.86544338 0 4577.76411767 0 285.72355641 0 325.99360178 0 17523
0.12650000 0.12650100 13130.55927918 0 24.78595272 0 4215.34478171 0 -120.48460975 0 561.97695340 0 17154
0.12750000 0.12750600 13145.06402470 0 161.48875025 0 4490.37025788 0 -16.86359359 0 -135.05911091 0 18007
0.12850000 0.12850300 12607.17048501 0 439.94553988 0 3939.84319557 0 -206.17776045 0 -126.65078744 0 17496
0.12950000 0.12949900 12715.23637524 0 85.67012027 0 4328.63680925 0 344.98817500 0 158.95983126 0 18405
0.13050000 0.13049000 12547.26920774 0 -314.91795526 0 3689.50900374 0 727.15278781 0 369.43918990 0 18100
0.13150000 0.13148800 12756.31470031 0 -45.77365514 0 3624.86877145 0 940.19649688 0 162.65466605 0 19059
0.13250000 0.13249300 12903.68734365 0 -41.37605989 0 3307.25913403 0 561.11884823 0 255.22262323 0 18957
0.13350000 0.13349100 12677.25830111 0 240.83856606 0 2964.14993255 0 162.01025675 0 709.74044981 0 19468
0.13450000 0.13450700 12626.21488370 0 344.46777574 0 3498.58890690 0 -301.64998843 0 1093.62348743 0 19953
0.13550000 0.13551000 12375.64817305 0 336.80794143 0 3373.32769622 0 -130.08985153 0 1200.61646939 0 19956
0.13650000 0.13649900 11978.59460505 0 425.82057511 0 3656.88993483 0 -211.93094042 0 1389.07851012 0 19723
0.13750000 0.13749600 11805.31272164 0 179.91088428 0 3577.63423378 0 -40.74759473 0 1088.41395860 0 20946
0.13850000 0.13851100 11613.65077903 0 152.21014205 0 3630.23884899 0 135.33038286 0 671.67822601 0 20955
0.13950000 0.13949800 11500.04872639 0 245.79232418 0 3845.18589069 0 -94.16026821 0 266.55736215 0 20506
0.14050000 0.14048300 11273.06606761 0 272.13559939 0 3593.68910476 0 -439.76948991 0 8.04804109 0 21447
0.14150000 0.14148400 11026.96150386 0 377.74454075 0 4092.28696367 0 -212.88426759 0 34.18635649 0 21771
0.14250000 0.14249400 10791.74103542 0 153.52110531 0 3883.69543641 0 285.37588541 0 159.65517326 0 22470
0.14350000 0.14350900 10747.73961659 0 -136.59927129 0 3755.23432387 0 323.54329629 0 -35.40575163 0 22519
0.14450000 0.14449900 10889.93041191 0 -2.06622868 0 3382.00839888 0 655.71414809 0 -185.25438824 0 22218
0.14550000 0.14550500 10816.76448951 0 95.29440644 0 3111.11289987 0 277.93196144 0 -439.48493117 0 23559
0.14650000 0.14650700 10796.03709745 0 166.37939612 0 3066.01532088 0 130.73315360 0 424.73991621 0 23044
0.14750000 0.14750500 10517.81171940 0 242.22592836 0 3101.46890495 0 73.78630476 0 502.55732226 0 23649
0.14850000 0.14849900 10453.41507826 0 171.76165321 0 3083.81961919 0 315.68969630 0 780.08514384 0 23640
0.14950000 0.14949500 10318.25520920 0 -61.20393628 0 2675.63836475 0 820.90216205 0 666.99352538 0 24457
0.15050000 0.15050000 10218.72608140 0 -23.19430603 0 2461.08992674 0 434.06613540 0 457.82623723 0 24591
0.15150000 0.15149900 10347.28684487 0 43.01365673 0 2462.83935406 0 272.67814331 0 245.12577023 0 25020
0.15250000 0.15250500 10053.44948883 0 283.63753041 0 2322.34262444 0 -194.43334551 0 574.27055565 0 25297
0.15350000 0.15350100 9782.19967543 0 289.02421644 0 2011.48710515 0 -244.92314669 0 402.08372516 0 25452
0.15450000 0.15450400 9679.85817713 0 211.17359341 0 2199.84949497 0 -241.64352407 0 298.23971239 0 26061
0.15550000 0.15549900 9506.56522139 0 184.19808845 0 2404.84251666 0 -127.05824899 0 118.05755615 0 26128
0.15650000 0.15649500 9366.56674638 0 250.22457581 0 2659.71636166 0 -271.69492086 0 -23.63498456 0 26331
0.15750000 0.15749700 9362.33711830 0 105.36690033 0 2757.37426656 0 35.80479821 0 293.27156024 0 27345
0.15850000 0.15849900 9237.43022203 0 150.89474986 0 2802.20610975 0 -107.59110894 0 293.93700696 0 26980
0.15950000 0.15949700 9317.50527511 0 87.62051028 0 3005.93688642 0 94.59352828 0 84.85309342 0 27777
0.16050000 0.16050000 9190.47249247 0 18.86912379 0 3076.73333131 0 157.92013996 0 499.41499648 0 28224
0.16150000 0.16150500 9233.47740206 0 88.07547211 0 3043.80423730 0 51.54742964 0 438.37769868 0 28075
0.16250000 0.16249700 9009.56177726 0 137.80947639 0 3022.33499947 0 215.65345603 0 283.43490687 0 28590
0.16350000 0.16349900 8898.97139697 0 218.30859952 0 2773.73916264 0 133.36615244 0 161.81538383 0 29163
0.16450000 0.16449100 8692.33967120 0 157.33552121 0 2761.85855811 0 289.88896501 0 76.43048665 0 28996
0.16550000 0.16550500 8626.73614665 0 59.65990059 0 2599.87044602 0 -23.69422150 0 -30.93485759 0 30777
0.16650000 0.16650700 8632.64876811 0 85.56493318 0 2597.64490873 0 7.81092725 0 -245.33946610 0 29211
0.16750000 0.16749900 8436.31430442 0 94.02784321 0 2453.73790306 0 -256.83143203 0 -409.72141482 0 30922
0.16850000 0.16850800 8516.87653980 0 69.25263064 0 2572.54394836 0 -383.46118205 0 -430.29379433 0 30867
0.16950000 0.16949900 8491.05587832 0 103.94089562 0 2893.41992161 0 -344.86970113 0 -471.44741122 0 30852
0.17050000 0.17049200 8336.90697220 0 124.35438727 0 3002.06157273 0 -198.39613057 0 -615.29130464 0 31257
0.17150000 0.17149500 8280.54883887 0 172.42377824 0 3005.61578900 0 181.79428673 0 -118.81379593 0 32608
0.17250000 0.17250900 8182.16016053 0 69.29747356 0 2962.17905873 0 503.36449474 0 -193.28514543 0 32361
0.17350000 0.17350400 8226.71519560 0 -78.83484199 0 2709.19858128 0 736.52218908 0 -95.45595166 0 32508
0.17450000 0.17449800 8272.02314876 0 -191.76159353 0 2484.23108561 0 474.75582188 0 -217.25119250 0 32791
0.17550000 0.17549800 8376.29123158 0 -38.44167237 0 2207.42296514 0 372.64241347 0 189.23488901 0 33633
0.17650000 0.17650100 8325.21459719 0 104.01220139 0 2021.80651188 0 118.39747652 0 144.68760457 0 33984
0.17750000 0.17750300 8298.35313718 0 80.67284791 0 2102.63448306 0 84.75543551 0 363.09364055 0 34069
0.17850000 0.17849800 8128.12721542 0 271.55983850 0 2169.46703567 0 -284.02838348 0 222.82057188 0 34536
