### header ###
fiducial parameters:
Omega_m = 0.31
Omega_nu = 0
Omega_de = 0.69
Omega_k = 0
H_0 = 100
w_de = -1
zeff = 0
beta = 0
fgrowth = 0
b_1 = 2
gamma = 0.55
Lx = 3500 Ly = 3500 Lz = 3500
nx = 700 ny = 700 nz = 700
xoffset = -685.467585 yoffset = -31.7331281 zoffset = 572.489161
bins = 400 dk = 0.001
kx_ny = 0.628318531 ky_ny = 0.628318531 kz_ny = 0.628318531
############################
A(data) = 8.07549463 (not used)
A(ran) = 8.07742019 (used)
Ngal = 480135
weighted Ngal = 0
Nran = 23820508
weighted Nran = 0
SN(data) = 3480.62482
SN(ran) = 70.3572593
SN(data+ran) = 3550.98208
############################
13 columns: k_central k_mean P_0(k) sigma^{lin}_{P_0(k)} P^img_1(k) sigma^{lin}_{P_1(k)} P_2(k) sigma^{lin}_{P_2(k)} P^img_3(k) sigma^{lin}_{P_3(k)} P_4(k) sigma^{lin}_{P_4(k)} N_modes
### header ###
0.00050000 0 0 0 0 0 0 0 0 0 0 0 0
0.00150000 0.00179520 17211.70748409 0 -30374.15505875 0 -6686.61017495 0 -6509.60799040 0 -70570.34801763 0 3
0.00250000 0.00253879 26021.18127955 0 -23250.44271693 0 3655.91557024 0 26930.55131690 0 63271.58222042 0 6
0.00350000 0.00331552 44883.10805461 0 1507.82919380 0 48917.08815579 0 -43244.95759769 0 -29260.05773550 0 7
0.00450000 0.00420575 51099.33265429 0 19843.48837023 0 37063.16792819 0 -13760.79600786 0 14546.15600725 0 24
0.00550000 0.00557378 39172.33508290 0 -276.30875862 0 17317.44818611 0 15031.34528080 0 8974.17462714 0 45
0.00650000 0.00659388 30694.03452276 0 -5692.80258853 0 -1454.73739630 0 -9046.70942702 0 -2301.60416005 0 40
0.00750000 0.00754703 65382.18877735 0 -19014.61413431 0 43474.04399819 0 20220.05813732 0 -40028.33651463 0 57
0.00850000 0.00846663 69287.95135713 0 -12576.61086851 0 21601.99499793 0 787.85127247 0 16150.53587347 0 75
0.00950000 0.00948925 68242.17027801 0 13290.33292632 0 4813.29461121 0 11155.92087103 0 3785.39533667 0 112
0.01050000 0.01054430 67164.94379640 0 -3272.01592413 0 10827.28319808 0 1038.19653662 0 -7094.59212755 0 105
0.01150000 0.01145670 73530.97695089 0 -6921.52061831 0 14328.91699431 0 -5489.79151298 0 914.80987054 0 144
0.01250000 0.01249090 71172.57176451 0 4172.12949794 0 20765.81302763 0 -3892.49793464 0 -4454.46270849 0 169
0.01350000 0.01339930 81632.26485094 0 -1299.14908795 0 27486.38202280 0 -16245.09352742 0 -16199.14337942 0 180
0.01450000 0.01448870 75720.97207677 0 6254.18052916 0 40102.63181416 0 -4389.93319945 0 -6054.56865733 0 267
0.01550000 0.01550050 73243.65012184 0 8048.86044204 0 44054.67671168 0 3743.76339536 0 14597.53159441 0 238
0.01650000 0.01653350 65341.77479177 0 6840.81444270 0 37860.15386864 0 11018.44688608 0 -3592.34935346 0 315
0.01750000 0.01747870 67036.72627501 0 96.57768889 0 40573.86995844 0 27894.95080861 0 -14815.65639333 0 297
0.01850000 0.01844180 62446.36185169 0 -1143.94831096 0 28754.71683078 0 10437.03910985 0 -27966.58875019 0 388
0.01950000 0.01947590 67639.39291488 0 4115.23989302 0 25178.02374461 0 -7030.29513733 0 -14801.70526406 0 399
0.02050000 0.02045430 60727.93703984 0 2686.65532795 0 24001.14633964 0 -4722.30224585 0 -7512.01877321 0 462
0.02150000 0.02154770 64542.79583285 0 -3465.90340403 0 21371.69064170 0 4561.85318691 0 -9825.06064480 0 571
0.02250000 0.02255340 70709.52714060 0 -9198.77673608 0 21998.27350319 0 9188.65663120 0 -6873.07919723 0 510
0.02350000 0.02348930 73787.07982394 0 -5984.23725008 0 18488.90015192 0 19270.16339112 0 -17762.66636707 0 555
0.02450000 0.02439640 79355.68414498 0 -1558.83939424 0 20119.85359771 0 8050.74273726 0 -16890.72078760 0 592
0.02550000 0.02547300 72568.23830790 0 7300.62594777 0 19841.60607501 0 -2876.80036206 0 -8519.88821215 0 837
0.02650000 0.02652900 69532.53901238 0 9684.06566056 0 23427.15702104 0 -5044.63976597 0 5583.13121120 0 723
0.02750000 0.02749970 61047.92722710 0 6808.61612213 0 25944.22862206 0 -275.28899750 0 8056.26782735 0 826
0.02850000 0.02848090 56441.06503980 0 4940.21667061 0 27555.91622266 0 7335.91344697 0 6778.33331375 0 831
0.02950000 0.02946900 53288.10982444 0 1073.41649464 0 28431.07277633 0 6879.33506075 0 6190.35964891 0 996
0.03050000 0.03053250 52459.01414202 0 225.03392961 0 26613.43993410 0 7415.85563216 0 8416.50591532 0 1041
0.03150000 0.03150510 54056.41844361 0 -990.95646278 0 24115.41273176 0 6202.72743573 0 5604.62259368 0 1036
0.03250000 0.03246190 53948.68472312 0 1055.15269485 0 18135.47154371 0 3323.05934155 0 3786.62436473 0 1059
0.03350000 0.03345080 53224.22251024 0 1294.39906060 0 19614.62341623 0 -1576.64369255 0 5850.58321720 0 1302
0.03450000 0.03451200 51905.50862434 0 1221.18884890 0 20789.17563299 0 704.77340489 0 4628.82967973 0 1339
0.03550000 0.03553350 49305.50531042 0 4489.29624237 0 23032.20719476 0 -835.71250373 0 11477.23973726 0 1365
0.03650000 0.03647120 48233.48282148 0 3314.23469867 0 24115.52345501 0 2652.07645754 0 6390.51406465 0 1308
0.03750000 0.03744890 44446.41556376 0 868.28396165 0 19522.28022724 0 2901.29234455 0 6487.68478726 0 1579
0.03850000 0.03847530 45244.28729019 0 -816.78990062 0 22566.39448963 0 4578.10735974 0 2544.66383447 0 1662
0.03950000 0.03950240 46805.04219663 0 -732.89489547 0 23943.79169707 0 -2603.98935085 0 3214.73878785 0 1683
0.04050000 0.04050350 45444.58564616 0 2306.70850179 0 23598.44588598 0 -2240.51814403 0 -1508.39388237 0 1822
0.04150000 0.04152450 44770.72395770 0 3495.42222200 0 24443.70716264 0 -2066.54977648 0 3526.24757429 0 1887
0.04250000 0.04250150 42713.04311340 0 -176.24373030 0 23413.64878476 0 -328.52584246 0 2325.40965841 0 1920
0.04350000 0.04349210 42709.49996946 0 -950.36089107 0 25354.84877196 0 2738.28557857 0 -2138.55310477 0 2005
0.04450000 0.04448520 45823.14843171 0 -1844.68253176 0 22648.32969329 0 5452.30062115 0 -1956.14762571 0 2151
0.04550000 0.04548030 44432.24298799 0 -976.59455026 0 21327.73351217 0 4606.65181312 0 -4064.20754793 0 2274
0.04650000 0.04648670 45750.73542740 0 867.31181153 0 20675.46285711 0 250.13488998 0 -1763.58882479 0 2311
0.04750000 0.04749250 43949.82179565 0 2557.33057406 0 17216.02569077 0 1878.06559109 0 846.30096796 0 2568
0.04850000 0.04851840 41559.74976029 0 2506.96256846 0 17652.82890486 0 2976.44021310 0 1637.87364880 0 2493
0.04950000 0.04949480 40629.45302903 0 1195.08030698 0 14156.52089688 0 3887.62611172 0 2793.33717757 0 2644
0.05050000 0.05050630 38842.37980330 0 1345.90751566 0 16485.47369923 0 1210.92480379 0 -186.68825430 0 2829
0.05150000 0.05149060 38158.88519225 0 2545.74892230 0 15112.50542172 0 -1887.79816460 0 -586.60733996 0 2784
0.05250000 0.05249300 35703.37571721 0 1288.28713730 0 17658.69723702 0 -1580.87332063 0 1164.44318420 0 3055
0.05350000 0.05348950 34383.55459883 0 2003.63682686 0 17477.88617273 0 -1182.97825595 0 2167.29686000 0 3009
0.05450000 0.05448610 33960.92396050 0 38.45219108 0 16663.51668232 0 2028.49419608 0 -1229.74775598 0 3336
0.05550000 0.05550870 33622.66443729 0 -411.50405912 0 13603.34754894 0 5868.27679226 0 -39.61223855 0 3349
0.05650000 0.05647670 34023.70404223 0 -1573.66523717 0 11807.19501686 0 5003.99326156 0 -3717.46662391 0 3324
0.05750000 0.05747970 34167.53354162 0 -987.79309958 0 8313.27863104 0 3758.84390176 0 -4479.81833233 0 3639
0.05850000 0.05849280 34076.96192460 0 1524.79199543 0 7444.06791580 0 619.00496238 0 -3326.01565227 0 3846
0.05950000 0.05951020 32702.22207512 0 1976.06673806 0 6072.52796819 0 -1101.91665872 0 -2356.65575905 0 3787
0.06050000 0.06049470 32114.06018075 0 88.82595429 0 6248.29005236 0 249.10294930 0 -3167.21636972 0 3930
0.06150000 0.06148310 31709.03453889 0 -863.33352522 0 6398.04324553 0 -1171.34124256 0 -3313.30462338 0 4083
0.06250000 0.06249100 32462.50624280 0 245.28078278 0 7092.28908399 0 -8.08880939 0 -2932.21734777 0 4303
0.06350000 0.06350600 32866.64609868 0 927.24298408 0 8518.73669037 0 -1173.54463520 0 -3465.72624683 0 4470
0.06450000 0.06451750 31483.71272883 0 668.08747107 0 8632.75949135 0 -1433.43424335 0 -1098.81530054 0 4479
0.06550000 0.06550280 31078.02274747 0 914.78661866 0 8795.81054663 0 -793.40625783 0 -3243.41610913 0 4636
0.06650000 0.06648880 30993.20873936 0 920.58408793 0 9268.88669683 0 709.42710301 0 -2766.57536849 0 4653
0.06750000 0.06749660 29578.05490429 0 851.01445663 0 10158.62550229 0 546.88648191 0 -2124.50232458 0 5220
0.06850000 0.06852730 29434.00395840 0 635.72085116 0 10114.38049231 0 1298.62868868 0 -1887.60993508 0 5029
0.06950000 0.06949320 29211.78239929 0 361.48151005 0 11330.97432641 0 -306.04902308 0 -925.82461927 0 5040
0.07050000 0.07048030 27998.14487592 0 1043.18904788 0 10443.13996083 0 200.83979265 0 -1036.53125897 0 5475
0.07150000 0.07148790 28331.64329946 0 734.89234286 0 11659.15803403 0 -292.89399396 0 1684.80923370 0 5509
0.07250000 0.07249820 27611.05640026 0 95.08580385 0 12414.17986342 0 1170.62154145 0 3030.28492869 0 5916
0.07350000 0.07351270 27855.09043926 0 -665.13226758 0 12102.49391977 0 1383.98524071 0 2415.71553963 0 5721
0.07450000 0.07449140 28089.15938593 0 -353.11747588 0 12654.89220498 0 2153.88827465 0 2175.05855970 0 6028
0.07550000 0.07549160 28042.54489844 0 422.04380511 0 11967.96517323 0 -760.35315378 0 2339.22791979 0 6183
0.07650000 0.07648840 27795.18916199 0 1096.10700989 0 11638.12061688 0 519.46365503 0 3809.48871548 0 6330
0.07750000 0.07749960 26593.06685643 0 1100.17166033 0 10642.55253081 0 454.84778185 0 2889.67747582 0 6583
0.07850000 0.07848650 25959.84060005 0 465.43513884 0 10138.35207554 0 438.81948445 0 2538.19759678 0 6549
0.07950000 0.07947320 25994.71842323 0 -0.24892911 0 10829.86304977 0 1727.51519053 0 988.82725472 0 6828
0.08050000 0.08048110 24812.63702559 0 525.99300497 0 9305.37000711 0 746.79287758 0 1666.29630661 0 7147
0.08150000 0.08149960 24928.89643619 0 604.69619702 0 9305.93469568 0 877.82609118 0 501.50877310 0 7386
0.08250000 0.08250610 24450.57200402 0 479.15928546 0 8640.42154013 0 504.50715866 0 1756.43610296 0 7227
0.08350000 0.08350160 24065.91943982 0 317.24425070 0 9597.90082882 0 1136.88416773 0 2461.64354298 0 7798
0.08450000 0.08449610 23310.56544070 0 715.36297635 0 8961.53003219 0 552.86110838 0 2548.82702860 0 7371
0.08550000 0.08548940 23682.70627785 0 335.27110274 0 9363.31148289 0 160.93956294 0 3435.95276540 0 8256
0.08650000 0.08650700 23000.76179227 0 279.71239127 0 9129.35325947 0 189.48180185 0 2696.28825054 0 8037
0.08750000 0.08749060 23193.86313711 0 522.02689822 0 10291.11694107 0 -599.81662347 0 2551.66154376 0 8155
0.08850000 0.08849210 22388.35150655 0 782.55095058 0 10378.11219717 0 -819.27674477 0 1579.32319516 0 8718
0.08950000 0.08949900 21609.63490206 0 805.56477772 0 9968.01543053 0 -493.95634034 0 266.58504296 0 8571
0.09050000 0.09049190 20941.75226899 0 801.33847133 0 9860.38136097 0 295.88795059 0 192.89982853 0 8932
0.09150000 0.09150830 20218.28656534 0 605.86432729 0 8698.35194358 0 856.33692317 0 -680.70659967 0 9285
0.09250000 0.09250820 19567.45531250 0 162.59044657 0 8449.46822631 0 1432.13878134 0 -511.69752640 0 9204
0.09350000 0.09350330 19143.82816494 0 418.83504538 0 6769.07685020 0 1473.99216916 0 -2877.77472664 0 9349
0.09450000 0.09448040 18557.88073554 0 593.76781242 0 6239.77543457 0 1018.78896568 0 -607.88613380 0 9564
0.09550000 0.09549270 18156.28751437 0 359.92695565 0 5683.25824454 0 702.13376265 0 -1300.03487393 0 10155
0.09650000 0.09649430 18051.43259834 0 6.21202819 0 5468.42192608 0 968.01682022 0 -677.73368045 0 9913
0.09750000 0.09749140 17813.37761473 0 13.87384444 0 5769.77739067 0 -234.82518645 0 -593.88960800 0 10476
0.09850000 0.09850240 18072.91290848 0 454.93193152 0 5827.01023766 0 -479.78376458 0 -72.46714798 0 10575
0.09950000 0.09950330 17812.82399849 0 295.76947672 0 6657.99928762 0 -690.59529296 0 172.11928931 0 10882
0.10050000 0.10051200 17124.78973426 0 615.98664664 0 6558.87983585 0 -389.02502527 0 679.10111257 0 10875
0.10150000 0.10150300 17040.86151214 0 636.48041264 0 7341.36103078 0 391.69788448 0 -166.37607442 0 11118
0.10250000 0.10250800 16436.97691653 0 293.16194422 0 7023.59638081 0 132.93322454 0 -665.03040219 0 11575
0.10350000 0.10349800 16228.04214720 0 374.30990559 0 6774.17011962 0 708.19143156 0 -334.70752141 0 11364
0.10450000 0.10450100 15887.34671253 0 215.60252333 0 6705.75422457 0 389.12467619 0 -578.81020882 0 12093
0.10550000 0.10551000 16035.71586510 0 -199.26530806 0 5628.89312968 0 1012.91288290 0 -248.92357764 0 12067
0.10650000 0.10649700 15961.97418181 0 -309.42165322 0 5547.12401089 0 403.92394555 0 -401.16029327 0 12054
0.10750000 0.10749900 16223.39177078 0 -55.05802095 0 5175.43713906 0 251.99504055 0 -950.13612287 0 12807
0.10850000 0.10850100 16215.30897366 0 261.15960380 0 5284.47739387 0 128.09018966 0 -1249.84402553 0 12736
0.10950000 0.10950300 15691.25583999 0 560.27624431 0 5115.82374223 0 -413.77720740 0 -1285.22010332 0 12933
0.11050000 0.11050200 15576.98944786 0 463.85954702 0 5429.48055970 0 94.35480896 0 -418.85829726 0 13428
0.11150000 0.11150900 15458.73701880 0 -16.97309888 0 5334.88968877 0 -17.32741328 0 -1414.10196421 0 13453
0.11250000 0.11250000 15206.28801294 0 327.24809618 0 5727.64719474 0 -38.27746979 0 -607.85291682 0 13668
0.11350000 0.11349100 14822.74268122 0 298.82322390 0 5809.82598954 0 -83.03280322 0 -834.98615922 0 13791
0.11450000 0.11448600 14569.85078236 0 413.47604017 0 6049.47538792 0 301.35767905 0 172.03071071 0 14205
0.11550000 0.11549300 14431.77889187 0 91.71560962 0 6012.08414700 0 306.55724279 0 -159.98069961 0 14776
0.11650000 0.11649800 14279.20225587 0 113.75485072 0 5956.46785944 0 583.92119396 0 653.56722430 0 14553
0.11750000 0.11747300 14460.45621315 0 -16.90910085 0 6054.69045291 0 554.27504426 0 668.67098259 0 14568
0.11850000 0.11849100 14146.00218830 0 31.24809366 0 5997.05900222 0 401.66186959 0 384.46212021 0 16015
0.11950000 0.11950300 14211.10745824 0 150.27027074 0 5636.30051498 0 238.61302877 0 589.76295254 0 15270
0.12050000 0.12050700 13967.07341923 0 345.57279375 0 5311.12847971 0 445.66107395 0 527.39476130 0 15999
0.12150000 0.12150000 13626.48870781 0 477.90368382 0 5169.95633827 0 -131.45839087 0 729.21113300 0 15670
0.12250000 0.12250700 13269.18478591 0 362.82236859 0 4864.20516073 0 -17.94591334 0 -53.66534393 0 16887
0.12350000 0.12352200 13041.42706439 0 127.46349608 0 5053.42011955 0 -7.81619768 0 504.64888442 0 16407
0.12450000 0.12449800 12980.64000114 0 -21.33714499 0 4807.29341116 0 137.44187521 0 742.03842130 0 16306
0.12550000 0.12549900 13159.67949346 0 -109.10037754 0 5027.21192671 0 586.07919007 0 819.72295946 0 17523
0.12650000 0.12650100 13304.39477884 0 -10.96945185 0 5002.29919587 0 618.95402969 0 374.16485813 0 17154
0.12750000 0.12750600 13086.60214965 0 174.56516586 0 4568.10905043 0 526.59312498 0 721.89343353 0 18007
0.12850000 0.12850300 12971.44997154 0 325.16982081 0 4379.14875507 0 334.17272812 0 834.95294225 0 17496
0.12950000 0.12949900 12806.69377824 0 235.09202948 0 3924.41944710 0 137.79065344 0 910.16060135 0 18405
0.13050000 0.13049000 12568.08517840 0 14.33445316 0 3871.74839793 0 95.94357685 0 263.36410367 0 18100
0.13150000 0.13148800 12691.09870713 0 40.93460630 0 3987.34346904 0 -214.67687698 0 -288.58353791 0 19059
0.13250000 0.13249300 12449.38985634 0 300.74980842 0 4016.79585306 0 -428.06825705 0 -362.42819382 0 18957
0.13350000 0.13349100 12130.72834806 0 279.85522426 0 4113.59011662 0 -185.40054293 0 -649.92110774 0 19468
0.13450000 0.13450700 11975.49435410 0 201.51188277 0 3987.33239672 0 -20.54137700 0 -745.63581963 0 19953
0.13550000 0.13551000 11743.19697941 0 398.28923945 0 4169.53857393 0 175.44430845 0 -1121.11717719 0 19956
0.13650000 0.13649900 11467.38536818 0 553.29292905 0 4730.32968135 0 -131.16718873 0 -841.19109005 0 19723
0.13750000 0.13749600 11108.86349055 0 236.34541665 0 4225.65311611 0 10.26767683 0 -527.39586853 0 20946
0.13850000 0.13851100 10934.17542188 0 18.16636333 0 4224.66767920 0 -91.22001236 0 -792.55590329 0 20955
0.13950000 0.13949800 10974.67798607 0 0.41382482 0 4137.53955521 0 170.34439564 0 -493.69171178 0 20506
0.14050000 0.14048300 11329.31347769 0 -125.62216846 0 4164.14635175 0 393.94445919 0 -1096.73591794 0 21447
0.14150000 0.14148400 10982.35110717 0 50.14489825 0 3908.35350379 0 120.89871469 0 -554.78215674 0 21771
0.14250000 0.14249400 11086.94028741 0 88.51205388 0 3567.15981450 0 164.12174909 0 -789.39807625 0 22470
0.14350000 0.14350900 11039.81647298 0 32.38156755 0 3712.62801797 0 231.51123963 0 -515.57505455 0 22519
0.14450000 0.14449900 10943.89692307 0 41.99965323 0 3534.97256625 0 628.63456328 0 -594.63366822 0 22218
0.14550000 0.14550500 10910.61351467 0 41.65696477 0 3504.56796230 0 400.98313607 0 -573.53535328 0 23559
0.14650000 0.14650700 10801.87221263 0 154.94611351 0 3129.94692438 0 91.48320152 0 -553.81111385 0 23044
0.14750000 0.14750500 10607.88508180 0 363.38484269 0 3285.56844971 0 251.44585324 0 -217.69519272 0 23649
0.14850000 0.14849900 10349.04734452 0 197.04087801 0 3172.15462659 0 -5.32943103 0 -94.19271013 0 23640
0.14950000 0.14949500 10135.26289692 0 130.96124349 0 3305.62042996 0 84.11445863 0 -152.13152854 0 24457
0.15050000 0.15050000 10154.60624838 0 112.26562303 0 3402.58077839 0 -21.60498453 0 -266.79984606 0 24591
0.15150000 0.15149900 9964.18440615 0 309.63424186 0 3500.47120212 0 -53.19698459 0 -62.27928047 0 25020
0.15250000 0.15250500 9949.84574551 0 151.72738869 0 3544.81586301 0 -0.16998787 0 107.93745126 0 25297
0.15350000 0.15350100 9754.04275341 0 11.40571252 0 3293.59588520 0 59.22896571 0 280.02684529 0 25452
0.15450000 0.15450400 9813.39041444 0 150.22487421 0 3384.01248967 0 413.97097309 0 269.92445613 0 26061
0.15550000 0.15549900 9644.70354583 0 175.95584986 0 3491.38082344 0 120.66398141 0 526.15244645 0 26128
0.15650000 0.15649500 9478.53009495 0 191.13047102 0 3407.22008249 0 100.21406181 0 248.87485941 0 26331
0.15750000 0.15749700 9172.98929158 0 262.33105577 0 3333.31231433 0 403.15995513 0 1085.43882492 0 27345
0.15850000 0.15849900 9173.41003992 0 35.86082418 0 2981.41168694 0 286.37793081 0 628.70653339 0 26980
0.15950000 0.15949700 9055.65586548 0 -119.56339232 0 2894.42750317 0 503.61030035 0 853.25881687 0 27777
0.16050000 0.16050000 9279.51612866 0 -42.52326347 0 2772.38833902 0 305.03147643 0 402.79456842 0 28224
0.16150000 0.16150500 9196.86122389 0 29.96901869 0 2469.63776150 0 79.53804533 0 615.22265622 0 28075
0.16250000 0.16249700 9278.90715080 0 -39.13181037 0 2358.23910150 0 180.82767278 0 723.03941914 0 28590
0.16350000 0.16349900 9118.25879000 0 121.74906924 0 2198.86405806 0 -20.84453726 0 468.76901585 0 29163
0.16450000 0.16449100 9244.33935271 0 225.96179043 0 2134.13524717 0 64.77232513 0 663.33190756 0 28996
0.16550000 0.16550500 8930.56073968 0 179.16239512 0 2369.38893259 0 -41.69726803 0 876.79968667 0 30777
0.16650000 0.16650700 8836.91101636 0 69.98174323 0 2164.04159651 0 77.61057503 0 730.12681426 0 29211
0.16750000 0.16749900 8883.81338429 0 -3.13660139 0 2388.98694752 0 125.85579452 0 467.01958853 0 30922
0.16850000 0.16850800 8753.04922818 0 153.58532479 0 2276.21531924 0 -18.68045137 0 519.46365503 0 30867
0.16950000 0.16949900 8672.55342675 0 145.43055756 0 2472.66050618 0 -254.71440352 0 569.11638845 0 30852
0.17050000 0.17049200 8587.77263562 0 170.59463018 0 2391.76610105 0 58.41714285 0 579.96283784 0 31257
0.17150000 0.17149500 8457.29635995 0 187.07800014 0 2349.73555604 0 57.04694265 0 369.28528458 0 32608
0.17250000 0.17250900 8392.03607747 0 92.96811100 0 2564.45007892 0 109.97232312 0 246.67478847 0 32361
0.17350000 0.17350400 8226.37195354 0 94.51557912 0 2483.90998819 0 -30.16023774 0 576.72971899 0 32508
0.17450000 0.17449800 8180.99756643 0 212.51888087 0 2556.31192018 0 -58.41072090 0 171.12388730 0 32791
0.17550000 0.17549800 7957.98987226 0 226.32496269 0 2752.74603479 0 -128.59398044 0 632.80661527 0 33633
0.17650000 0.17650100 7898.96330865 0 170.15727335 0 2602.36171910 0 6.15334487 0 461.79677291 0 33984
0.17750000 0.17750300 7840.29105943 0 28.57623095 0 2726.62642054 0 56.94341642 0 541.72013515 0 34069
0.17850000 0.17849800 7696.09617332 0 42.12853509 0 2615.67065353 0 373.85594027 0 534.36700424 0 34536
