### header ###
fiducial parameters:
Omega_m = 0.31
Omega_nu = 0
Omega_de = 0.69
Omega_k = 0
H_0 = 100
w_de = -1
zeff = 0
beta = 0
fgrowth = 0
b_1 = 2
gamma = 0.55
Lx = 3500 Ly = 3500 Lz = 3500
nx = 700 ny = 700 nz = 700
xoffset = -685.467585 yoffset = -31.7331281 zoffset = 572.489161
bins = 400 dk = 0.001
kx_ny = 0.628318531 ky_ny = 0.628318531 kz_ny = 0.628318531
############################
A(data) = 8.05824364 (not used)
A(ran) = 8.06229946 (used)
Ngal = 480333
weighted Ngal = 0
Nran = 23820508
weighted Nran = 0
SN(data) = 3481.74828
SN(ran) = 70.2255523
SN(data+ran) = 3551.97383
############################
13 columns: k_central k_mean P_0(k) sigma^{lin}_{P_0(k)} P^img_1(k) sigma^{lin}_{P_1(k)} P_2(k) sigma^{lin}_{P_2(k)} P^img_3(k) sigma^{lin}_{P_3(k)} P_4(k) sigma^{lin}_{P_4(k)} N_modes
### header ###
0.00050000 0 0 0 0 0 0 0 0 0 0 0 0
0.00150000 0.00179520 144685.39010270 0 -129920.44495703 0 51358.53577830 0 245980.55370608 0 -305333.75089644 0 3
0.00250000 0.00253879 226932.83332057 0 -88309.09816308 0 52791.18388658 0 -2875.57133400 0 301388.68156355 0 6
0.00350000 0.00331552 207168.73351928 0 9044.78284251 0 28338.28669435 0 -203080.83119624 0 30366.95804762 0 7
0.00450000 0.00420575 156357.83492651 0 79741.33321842 0 -38167.63232885 0 -32365.18050764 0 124376.53192034 0 24
0.00550000 0.00557378 88411.62789091 0 21059.45108182 0 -67029.19709413 0 -16386.26566886 0 22023.40768053 0 45
0.00650000 0.00659388 83169.43570552 0 -218.59980166 0 -27837.48544280 0 -4825.41880689 0 20640.58503393 0 40
0.00750000 0.00754703 92736.03507208 0 -16071.36875102 0 -37655.53730599 0 -8324.51704073 0 5899.11321688 0 57
0.00850000 0.00846663 96674.35028682 0 -18481.37097104 0 -52228.70978580 0 -14781.44290964 0 3131.16488011 0 75
0.00950000 0.00948925 106257.77958710 0 6327.24680064 0 -25245.89709575 0 -35966.23270841 0 16676.02840936 0 112
0.01050000 0.01054430 88312.97347677 0 17042.19019112 0 -8634.54213565 0 -16379.51155072 0 5646.49812614 0 105
0.01150000 0.01145670 80276.34795365 0 14667.28724076 0 -4489.51768887 0 -5357.06755538 0 25252.76193713 0 144
0.01250000 0.01249090 63227.73581414 0 7069.50223951 0 -2150.84338532 0 -3687.18381553 0 1167.08946983 0 169
0.01350000 0.01339930 75143.99323047 0 -3068.67267884 0 -10116.08563033 0 4875.64287227 0 -14489.35498093 0 180
0.01450000 0.01448870 65124.31433233 0 -6451.15718769 0 -10101.85769294 0 -3736.51102260 0 -29155.20281947 0 267
0.01550000 0.01550050 70735.87927367 0 -213.16550464 0 -19634.88577065 0 -14625.87674594 0 -15967.39962097 0 238
0.01650000 0.01653350 73042.90887288 0 -2124.45803528 0 -8607.78032656 0 -17000.11535680 0 -35324.37003867 0 315
0.01750000 0.01747870 66566.37391671 0 2294.06390685 0 -3957.35961343 0 -17834.30430864 0 -22326.23576432 0 297
0.01850000 0.01844180 65305.12539662 0 8520.47504537 0 -2925.24178314 0 -10718.50867907 0 -24636.58706098 0 388
0.01950000 0.01947590 61783.90465779 0 7333.66576503 0 1202.59841553 0 -6870.06752488 0 -6273.34672342 0 399
0.02050000 0.02045430 56708.12951443 0 2462.09750830 0 10739.09213090 0 6095.10443849 0 -10963.79389077 0 462
0.02150000 0.02154770 56149.75217382 0 -2428.26048365 0 5623.16873775 0 8263.90713467 0 1979.20020598 0 571
0.02250000 0.02255340 64992.55366699 0 -7255.50622414 0 9471.62096426 0 -1632.45928196 0 -8238.61794478 0 510
0.02350000 0.02348930 66333.96581877 0 2700.90540999 0 15576.21438513 0 -498.24243728 0 13754.37405947 0 555
0.02450000 0.02439640 68292.88152568 0 4685.65285070 0 22537.93861485 0 -19135.85609107 0 15779.83443854 0 592
0.02550000 0.02547300 64951.91823490 0 4220.88094412 0 36344.13115447 0 -9489.39204560 0 19204.06161196 0 837
0.02650000 0.02652900 67918.63694681 0 538.12716574 0 44738.72493897 0 2947.36428813 0 22546.57502821 0 723
0.02750000 0.02749970 68394.74691401 0 -3172.11033729 0 51025.81241750 0 11277.93789053 0 14835.25440826 0 826
0.02850000 0.02848090 69934.57512654 0 -5390.72742283 0 39746.87801774 0 21910.91286037 0 23224.97636985 0 831
0.02950000 0.02946900 73156.84309526 0 980.08897597 0 34539.78510202 0 21321.97590327 0 7952.70837332 0 996
0.03050000 0.03053250 69834.81347993 0 -625.19771365 0 20886.50136815 0 12261.16033442 0 4690.02641901 0 1041
0.03150000 0.03150510 66602.58041887 0 3556.44180407 0 14184.64460192 0 6513.45008712 0 16364.34246572 0 1036
0.03250000 0.03246190 63121.10932614 0 4831.36464532 0 12344.86711005 0 1573.15591023 0 5105.68149270 0 1059
0.03350000 0.03345080 58358.12735890 0 4081.71289347 0 9816.30243587 0 1185.60239693 0 16494.22083584 0 1302
0.03450000 0.03451200 56969.10421040 0 3314.54472376 0 10390.70143049 0 -3283.56435892 0 14732.61395719 0 1339
0.03550000 0.03553350 54523.44910446 0 1869.13022496 0 12312.53592158 0 446.74173285 0 12228.60769946 0 1365
0.03650000 0.03647120 54407.41114036 0 1933.94761445 0 17120.80369733 0 -5694.20877378 0 16575.60242326 0 1308
0.03750000 0.03744890 52440.63408282 0 3019.57799059 0 21642.85187651 0 -2215.61648551 0 11688.72114130 0 1579
0.03850000 0.03847530 50876.55747894 0 3050.33690894 0 25006.18126342 0 -3134.03261224 0 14699.06481299 0 1662
0.03950000 0.03950240 50421.59565214 0 1516.84206621 0 27446.18948371 0 -766.32113686 0 11112.84952748 0 1683
0.04050000 0.04050350 46430.68689451 0 754.79816842 0 26175.52948752 0 5629.05921455 0 10109.56403102 0 1822
0.04150000 0.04152450 47339.06042263 0 533.34392142 0 22658.73767862 0 8958.57372147 0 2744.58573140 0 1887
0.04250000 0.04250150 43632.04607335 0 -526.53333443 0 18117.53437750 0 7888.10135800 0 3875.32475885 0 1920
0.04350000 0.04349210 45248.60549687 0 1137.29384375 0 14689.21044391 0 6409.72454822 0 -5240.78600014 0 2005
0.04450000 0.04448520 44152.66678632 0 1561.17565478 0 10011.55181172 0 2472.21761318 0 344.97820991 0 2151
0.04550000 0.04548030 41270.42991278 0 2240.49599938 0 9649.15462041 0 -2844.20343779 0 -281.03664131 0 2274
0.04650000 0.04648670 40367.26037732 0 1897.42001487 0 7651.44148733 0 -4045.55068061 0 4832.60474570 0 2311
0.04750000 0.04749250 39559.64500505 0 0.16562648 0 10221.69346445 0 2361.36149710 0 -166.89647369 0 2568
0.04850000 0.04851840 39624.41810524 0 -853.56552027 0 8795.62231711 0 -752.14634663 0 -1585.03651476 0 2493
0.04950000 0.04949480 40771.51095645 0 -197.19810502 0 12097.28992711 0 -3071.05322867 0 -5035.10649430 0 2644
0.05050000 0.05050630 40712.93835816 0 1291.75277497 0 13310.04166449 0 -3468.67148524 0 -5437.62979076 0 2829
0.05150000 0.05149060 39351.48529846 0 1638.61549456 0 14275.43766543 0 -1693.91068471 0 -3180.60281043 0 2784
0.05250000 0.05249300 38559.26045769 0 875.37689293 0 13721.71070125 0 3287.77184235 0 -2319.90671298 0 3055
0.05350000 0.05348950 38429.71425731 0 -39.46730182 0 13620.50965241 0 4759.62705282 0 -1475.34299279 0 3009
0.05450000 0.05448610 37815.86456936 0 533.25977175 0 11372.93843747 0 4707.93036824 0 -3677.87199036 0 3336
0.05550000 0.05550870 36284.89421669 0 1828.62766077 0 11545.77742789 0 1789.67522206 0 -2578.26834030 0 3349
0.05650000 0.05647670 34532.03447465 0 2109.05643146 0 11333.63168437 0 1076.35841134 0 -517.78287612 0 3324
0.05750000 0.05747970 33960.92396050 0 785.67445341 0 12110.68744014 0 -1949.78103894 0 2065.47576097 0 3639
0.05850000 0.05849280 33110.45869118 0 40.44144495 0 14098.61263808 0 1353.72457698 0 4949.27383231 0 3846
0.05950000 0.05951020 34429.94763982 0 -631.36721304 0 13822.69030360 0 380.04647708 0 6055.07798427 0 3787
0.06050000 0.06049470 34413.22842935 0 111.78619137 0 15657.81741904 0 2718.57684040 0 6927.16750396 0 3930
0.06150000 0.06148310 33848.09697060 0 2066.60513810 0 14596.53508517 0 1685.94968316 0 6744.54057841 0 4083
0.06250000 0.06249100 31641.82552724 0 1576.03471469 0 13529.82731214 0 1140.39409470 0 10575.52067636 0 4303
0.06350000 0.06350600 31749.55924772 0 1218.48720164 0 16111.78273661 0 1628.70576385 0 11061.99433959 0 4470
0.06450000 0.06451750 30681.96568871 0 -556.65670133 0 12840.35364569 0 2667.50020601 0 10547.33053737 0 4479
0.06550000 0.06550280 30569.47086855 0 277.42042003 0 12521.58141416 0 1381.50503995 0 5980.36193640 0 4636
0.06650000 0.06648880 31054.21724911 0 17.33383523 0 12531.87867624 0 -1115.01632621 0 4932.55462183 0 4653
0.06750000 0.06749660 29655.45045477 0 1248.41569563 0 12272.34338249 0 -670.88766202 0 3351.43771006 0 5220
0.06850000 0.06852730 29454.15558957 0 1323.47498557 0 10531.44175126 0 -841.83771382 0 1905.00455737 0 5029
0.06950000 0.06949320 28293.33305558 0 -115.82205377 0 9737.91037615 0 841.15565861 0 1463.14129084 0 5040
0.07050000 0.07048030 28705.00209234 0 -280.70114987 0 9619.54722384 0 99.58803256 0 46.82574744 0 5475
0.07150000 0.07148790 28698.58014395 0 -202.81288094 0 9193.43987552 0 1825.60491610 0 -1956.12548106 0 5509
0.07250000 0.07249820 28345.15153573 0 -12.04369987 0 8641.39590471 0 693.10428177 0 -2010.56810219 0 5916
0.07350000 0.07351270 28047.08455162 0 869.92377296 0 9532.10907475 0 -348.48038625 0 -1176.61166918 0 5721
0.07450000 0.07449140 27782.12381871 0 786.97766604 0 9722.84094207 0 132.91550882 0 1298.65083333 0 6028
0.07550000 0.07549160 26818.49938974 0 783.15549952 0 9532.46338914 0 623.81920921 0 739.07435995 0 6183
0.07650000 0.07648840 26453.44484047 0 913.43358056 0 8837.55321120 0 1196.75222802 0 2022.88052739 0 6330
0.07750000 0.07749960 25986.19273312 0 356.39820573 0 9565.52535105 0 853.06283672 0 1593.65078347 0 6583
0.07850000 0.07848650 25458.81790201 0 179.74479941 0 10181.79987813 0 261.43309022 0 1986.04290272 0 6549
0.07950000 0.07947320 25161.74742713 0 407.55013192 0 10228.55830584 0 376.47675955 0 1147.67968443 0 6828
0.08050000 0.08048110 25442.32013803 0 699.28374625 0 11062.47044956 0 -256.25013498 0 2501.31568281 0 7147
0.08150000 0.08149960 24441.16052793 0 941.86509623 0 10225.62413976 0 -28.84595279 0 2309.81982507 0 7386
0.08250000 0.08250610 24086.62468724 0 650.02186590 0 10374.48047463 0 225.43474777 0 2449.33111778 0 7227
0.08350000 0.08350160 23817.89936389 0 646.10115568 0 10832.21038263 0 1498.72774280 0 3683.92855204 0 7798
0.08450000 0.08449610 22659.62346461 0 274.74866805 0 9794.96606594 0 862.67029297 0 1302.05003705 0 7371
0.08550000 0.08548940 22814.85745857 0 51.75780381 0 9017.38991090 0 778.68892368 0 2230.43125612 0 8256
0.08650000 0.08650700 22633.04988504 0 87.62383198 0 8653.68618526 0 121.39364761 0 1794.07093501 0 8037
0.08750000 0.08749060 22705.35216611 0 4.37621459 0 8199.70979537 0 314.71090279 0 964.63422499 0 8155
0.08850000 0.08849210 22472.27972868 0 -313.04230344 0 8700.11244323 0 242.29457677 0 611.22222527 0 8718
0.08950000 0.08949900 22646.00450508 0 273.96142576 0 8674.46893895 0 455.17552267 0 1556.60278463 0 8571
0.09050000 0.09049190 21990.30142932 0 1207.29308125 0 7985.63746733 0 1106.51388798 0 1614.79892388 0 8932
0.09150000 0.09150830 21066.98026269 0 1436.49020500 0 7982.90260310 0 1147.24786376 0 2643.37361023 0 9285
0.09250000 0.09250820 19829.75868746 0 755.53890695 0 7717.11144583 0 1539.32995791 0 3796.63374636 0 9204
0.09350000 0.09350330 18999.88794230 0 373.79282802 0 6459.07389993 0 1415.82924689 0 3405.14955775 0 9349
0.09450000 0.09448040 18927.58566123 0 240.62929912 0 6009.64823554 0 1143.87080469 0 3661.81711937 0 9564
0.09550000 0.09549270 18855.94771966 0 63.42670549 0 5690.59919589 0 31.22594901 0 2900.74980064 0 10155
0.09650000 0.09649430 18568.17799762 0 339.77200278 0 5600.29331467 0 -615.14625718 0 1725.81005251 0 9913
0.09750000 0.09749140 17981.45550548 0 356.68055001 0 5211.93152166 0 -645.19101058 0 1892.98001262 0 10476
0.09850000 0.09850240 18058.29743972 0 367.21033091 0 5310.82952694 0 10.47801778 0 1376.11281776 0 10575
0.09950000 0.09950330 17911.03551964 0 72.70874611 0 5380.24193123 0 887.46787163 0 744.82532546 0 10882
0.10050000 0.10051200 17682.94562837 0 -86.61414668 0 5426.07028365 0 449.82094638 0 -337.24972719 0 10875
0.10150000 0.10150300 17455.18790685 0 316.07722767 0 5626.50150752 0 -343.60634886 0 243.02092128 0 11118
0.10250000 0.10250800 16965.01608713 0 695.97201389 0 6102.99900609 0 -681.39972720 0 -131.79609678 0 11575
0.10350000 0.10349800 16666.83837976 0 896.69886883 0 6314.27003595 0 -678.37587529 0 227.02916255 0 11364
0.10450000 0.10450100 16104.36427898 0 351.21525048 0 6503.73965825 0 -178.15924249 0 570.89571104 0 12093
0.10550000 0.10551000 16210.54787399 0 123.11539412 0 6020.15587180 0 1057.44245162 0 517.68322520 0 12067
0.10650000 0.10649700 15790.57459362 0 -220.59282013 0 5233.43397646 0 857.50505344 0 -738.55174622 0 12054
0.10750000 0.10749900 15892.66142844 0 -14.42657490 0 5461.73424189 0 1413.60370960 0 10.74711957 0 12807
0.10850000 0.10850100 15865.97712563 0 263.05961474 0 4844.44106093 0 727.97767601 0 -742.51342404 0 12736
0.10950000 0.10950300 15513.65574990 0 374.68857910 0 4515.39371197 0 264.05280228 0 450.00696144 0 12933
0.11050000 0.11050200 15270.95038988 0 474.04165693 0 4362.86136527 0 -60.50538331 0 773.53918541 0 13428
0.11150000 0.11150900 14706.04037763 0 356.87874462 0 4527.29646115 0 30.91049847 0 953.38695744 0 13453
0.11250000 0.11250000 14983.73428408 0 157.82159627 0 5216.06149882 0 -22.46452910 0 2185.94265500 0 13668
0.11350000 0.11349100 14630.41639912 0 210.75505953 0 4910.96358844 0 161.36584744 0 1920.84905419 0 13791
0.11450000 0.11448600 14635.06677554 0 172.62861625 0 5464.57982937 0 174.52419826 0 1977.34005541 0 14205
0.11550000 0.11549300 14390.25767380 0 210.00546314 0 5403.07306500 0 83.35755450 0 1810.36939715 0 14776
0.11650000 0.11649800 14335.33894270 0 175.47752542 0 5131.87861322 0 -69.62255701 0 2008.53079443 0 14553
0.11750000 0.11747300 14065.50638687 0 -60.99455862 0 4613.71595636 0 497.45187329 0 1325.23548522 0 14568
0.11850000 0.11849100 14356.70852960 0 -242.01444696 0 5165.23952790 0 209.30458498 0 1144.66801208 0 16015
0.11950000 0.11950300 14376.30654453 0 92.55743847 0 4326.09017454 0 689.35962151 0 474.61520335 0 15270
0.12050000 0.12050700 14127.51140586 0 202.44195805 0 4377.77578680 0 -348.92660094 0 559.10922127 0 15999
0.12150000 0.12150000 13858.45391276 0 325.73008044 0 3983.52351698 0 -222.84825269 0 483.78308830 0 15670
0.12250000 0.12250700 14016.67743442 0 259.41017648 0 4870.87070027 0 -144.95887653 0 252.08029745 0 16887
0.12350000 0.12352200 13677.31067873 0 333.36223394 0 4913.41057222 0 -30.86554483 0 586.17773376 0 16407
0.12450000 0.12449800 13385.77636625 0 241.35010747 0 4854.45044256 0 488.84424798 0 1094.02873452 0 16306
0.12550000 0.12549900 13349.56986410 0 10.55339817 0 4634.86409676 0 607.82191431 0 1460.06318454 0 17523
0.12650000 0.12650100 13251.80123595 0 77.42300985 0 4432.19626328 0 568.76871745 0 562.46413569 0 17154
0.12750000 0.12750600 13251.69051270 0 88.18453451 0 4314.47530581 0 652.04035071 0 687.10861788 0 18007
0.12850000 0.12850300 13071.65451115 0 284.99721190 0 4074.73732883 0 -466.28549339 0 925.98627521 0 17496
0.12950000 0.12949900 12965.13874639 0 344.76894297 0 4069.99837381 0 -136.12316132 0 439.42624785 0 18405
0.13050000 0.13049000 12447.39683787 0 117.31571038 0 3948.98893587 0 -267.08551204 0 188.44211055 0 18100
0.13150000 0.13148800 12446.84322163 0 280.14199747 0 4207.49450341 0 -188.82632022 0 -265.02163070 0 19059
0.13250000 0.13249300 12378.08408451 0 0.10349413 0 4145.53377373 0 -63.57828562 0 -75.54857598 0 18957
0.13350000 0.13349100 12297.03466684 0 188.21734236 0 4352.86305595 0 203.34545976 0 -350.53208804 0 19468
0.13450000 0.13450700 12198.15880621 0 118.26793032 0 4185.49379400 0 -73.92448737 0 279.56955828 0 19953
0.13550000 0.13551000 12144.56875408 0 154.47000354 0 4495.51888892 0 388.78807752 0 57.48429948 0 19956
0.13650000 0.13649900 12059.86546922 0 12.72254411 0 4194.73918522 0 388.94419730 0 746.79398481 0 19723
0.13750000 0.13749600 12122.09193470 0 50.07547478 0 4405.33480327 0 600.65036953 0 799.52703899 0 20946
0.13850000 0.13851100 12021.77667185 0 131.27237582 0 4282.11090036 0 111.28461505 0 637.06503139 0 20955
0.13950000 0.13949800 11778.40697233 0 266.80538222 0 4016.70727446 0 356.00403096 0 516.01462585 0 20506
0.14050000 0.14048300 11719.05931130 0 233.56404865 0 4138.77965559 0 -105.34818810 0 987.47643109 0 21447
0.14150000 0.14148400 11395.85814985 0 170.61788206 0 3919.60298580 0 121.40250547 0 610.84133729 0 21771
0.14250000 0.14249400 11350.68306459 0 251.77913021 0 3880.35159432 0 -256.01872339 0 409.77456198 0 22470
0.14350000 0.14350900 11024.23771196 0 234.89162040 0 3659.13761677 0 258.11471447 0 203.25245223 0 22519
0.14450000 0.14449900 11109.63855329 0 32.53669082 0 3569.39642411 0 110.91258494 0 257.27875395 0 22218
0.14550000 0.14550500 10861.69598362 0 89.13177190 0 3445.38638614 0 -6.60273731 0 -98.50825945 0 23559
0.14650000 0.14650700 10813.75281716 0 232.19108038 0 3411.43863825 0 154.08136494 0 -152.74825704 0 23044
0.14750000 0.14750500 10676.69958055 0 47.98535202 0 3256.74718821 0 -83.53969425 0 -313.53280742 0 23649
0.14850000 0.14849900 10681.99215181 0 165.59990445 0 3589.40411506 0 180.03046539 0 -599.66161092 0 23640
0.14950000 0.14949500 10410.87520631 0 168.06792565 0 3344.55072402 0 -103.30534417 0 -747.68530696 0 24457
0.15050000 0.15050000 10356.10041543 0 199.10365212 0 3515.40776830 0 -27.57219254 0 -635.56916031 0 24591
0.15150000 0.15149900 10220.73017219 0 117.71542131 0 3469.04794428 0 -185.54226868 0 -613.64263547 0 25020
0.15250000 0.15250500 10138.61781134 0 158.73506307 0 3625.47774932 0 191.12825655 0 -344.87745175 0 25297
0.15350000 0.15350100 10033.95112483 0 202.93246204 0 3586.42565968 0 116.62369008 0 -270.48914469 0 25452
0.15450000 0.15450400 9961.72635004 0 176.32123657 0 3486.61972377 0 117.57812448 0 -264.86772538 0 26061
0.15550000 0.15549900 9747.83117919 0 224.39062754 0 3705.69674263 0 145.95649299 0 -279.83197237 0 26128
0.15650000 0.15649500 9537.91097295 0 345.21958659 0 3597.79693727 0 101.38828186 0 -122.64592755 0 26331
0.15750000 0.15749700 9199.43000325 0 309.21017182 0 3551.47033023 0 25.25320483 0 440.21016844 0 27345
0.15850000 0.15849900 9027.18891837 0 230.00872516 0 3379.56141510 0 349.40271091 0 597.32756485 0 26980
0.15950000 0.15949700 8868.37856349 0 -142.46317451 0 3220.64033697 0 741.08952306 0 501.52427436 0 27777
0.16050000 0.16050000 8891.76331351 0 -98.99488812 0 3045.44294137 0 713.92135966 0 113.32192282 0 28224
0.16150000 0.16150500 9015.89514705 0 72.97293178 0 2384.77946409 0 295.80380093 0 134.96721061 0 28075
0.16250000 0.16249700 8876.56101154 0 46.86427913 0 2300.77373569 0 122.49534393 0 168.07899798 0 28590
0.16350000 0.16349900 8792.11239014 0 172.59097034 0 2432.89978775 0 -250.05627647 0 142.78870086 0 29163
0.16450000 0.16449100 8771.71716783 0 116.54396934 0 2544.06592893 0 -183.71865679 0 234.68346069 0 28996
0.16550000 0.16550500 8602.12236858 0 108.07042988 0 2328.21095659 0 227.13324240 0 240.97475566 0 30777
0.16650000 0.16650700 8648.46004795 0 41.81662770 0 2283.39018573 0 277.13143235 0 339.21285038 0 29211
0.16750000 0.16749900 8526.04442475 0 -47.61620071 0 2206.49288986 0 298.03930331 0 231.42487550 0 30922
0.16850000 0.16850800 8570.92055724 0 192.92972380 0 2236.99714474 0 194.32926566 0 491.50049870 0 30867
0.16950000 0.16949900 8435.89355608 0 137.49723683 0 2104.83787570 0 30.62029284 0 606.24189356 0 30852
0.17050000 0.17049200 8341.53520397 0 25.75566693 0 2276.92394803 0 134.59075157 0 801.41376314 0 31257
0.17150000 0.17149500 8290.65787143 0 -6.88115092 0 2390.45956672 0 15.83729980 0 816.49759124 0 32608
0.17250000 0.17250900 8333.05380316 0 157.54035922 0 2272.78289855 0 160.87977238 0 584.54678031 0 32361
0.17350000 0.17350400 8178.04125570 0 43.95978689 0 2147.52168788 0 97.30403340 0 931.27663201 0 32508
0.17450000 0.17449800 8172.89262466 0 65.99482051 0 2193.31682333 0 28.29842632 0 475.23082461 0 32791
0.17550000 0.17549800 8099.70455761 0 136.07997925 0 2042.12422793 0 -15.59625529 0 424.01025000 0 33633
0.17650000 0.17650100 7992.92305706 0 168.30155171 0 2111.47019827 0 -313.77196964 0 -85.20940083 0 33984
0.17750000 0.17750300 7776.81342125 0 239.26075977 0 2068.05561265 0 -481.46565072 0 -23.45528073 0 34069
