### header ###
fiducial parameters:
Omega_m = 0.31
Omega_nu = 0
Omega_de = 0.69
Omega_k = 0
H_0 = 100
w_de = -1
zeff = 0
beta = 0
fgrowth = 0
b_1 = 2
gamma = 0.55
Lx = 3500 Ly = 3500 Lz = 3500
nx = 700 ny = 700 nz = 700
xoffset = -685.467585 yoffset = -31.7331281 zoffset = 572.489161
bins = 400 dk = 0.001
kx_ny = 0.628318531 ky_ny = 0.628318531 kz_ny = 0.628318531
############################
A(data) = 7.95453512 (not used)
A(ran) = 7.95416827 (used)
Ngal = 472761
weighted Ngal = 0
Nran = 23820508
weighted Nran = 0
SN(data) = 3487.93356
SN(ran) = 69.2836903
SN(data+ran) = 3557.21725
############################
13 columns: k_central k_mean P_0(k) sigma^{lin}_{P_0(k)} P^img_1(k) sigma^{lin}_{P_1(k)} P_2(k) sigma^{lin}_{P_2(k)} P^img_3(k) sigma^{lin}_{P_3(k)} P_4(k) sigma^{lin}_{P_4(k)} N_modes
### header ###
0.00050000 0 0 0 0 0 0 0 0 0 0 0 0
0.00150000 0.00179520 33160.83776911 0 -44765.51996504 0 -23072.17828735 0 96160.15152224 0 -56240.87740708 0 3
0.00250000 0.00253879 59371.57724955 0 -46894.83875091 0 -7129.68032490 0 -19699.21597785 0 45865.55543577 0 6
0.00350000 0.00331552 70806.29925951 0 -24273.85769992 0 -17783.03944473 0 -72205.73039334 0 -45852.04719949 0 7
0.00450000 0.00420575 80313.55096504 0 -6954.63794184 0 -27964.48500847 0 -30183.48962537 0 19425.72955483 0 24
0.00550000 0.00557378 68446.23322442 0 8478.79881475 0 -12680.80144505 0 -41557.64601858 0 20957.58569349 0 45
0.00650000 0.00659388 72390.08460157 0 8347.09351103 0 -23323.40933749 0 -8040.27939031 0 -7763.49341449 0 40
0.00750000 0.00754703 63782.12711781 0 5212.59586115 0 24337.08067463 0 -29455.26282205 0 1305.15028800 0 57
0.00850000 0.00846663 65066.07390378 0 2748.54962368 0 7455.23989154 0 -9915.75405739 0 5253.93992202 0 75
0.00950000 0.00948925 62032.92124296 0 -473.17026496 0 39558.75921907 0 -12418.38734685 0 -4676.42960413 0 112
0.01050000 0.01054430 75613.68124927 0 -4868.98840505 0 33078.68111895 0 -8006.65273983 0 -18152.08003094 0 105
0.01150000 0.01145670 71123.18919582 0 1535.55429515 0 41316.04789103 0 821.73037195 0 -14542.39141681 0 144
0.01250000 0.01249090 74746.16459973 0 5233.21252996 0 26062.70249762 0 15751.71073350 0 -15139.74334078 0 169
0.01350000 0.01339930 68423.20278880 0 -2592.08660167 0 26222.36542150 0 14374.31352606 0 6059.79479465 0 180
0.01450000 0.01448870 70393.08009728 0 -6551.74925866 0 3072.26011208 0 28027.37581344 0 -10209.91251085 0 267
0.01550000 0.01550050 72894.09682732 0 -4538.68988339 0 -16645.91168586 0 17553.84232099 0 5717.98105517 0 238
0.01650000 0.01653350 70464.60731561 0 8323.11085548 0 -9868.37557949 0 -3527.97485697 0 -1866.82718140 0 315
0.01750000 0.01747870 64827.68675044 0 10825.46733681 0 -7233.85982912 0 -19728.77908511 0 6256.33963250 0 297
0.01850000 0.01844180 59151.01653917 0 5687.47680029 0 14712.90521902 0 -15529.93206739 0 9537.61202018 0 388
0.01950000 0.01947590 57870.72362039 0 1556.21525326 0 23194.85964634 0 -13257.78029135 0 26329.65624900 0 399
0.02050000 0.02045430 63192.85799096 0 -2474.60923534 0 35606.82504480 0 3800.66407260 0 9700.78487104 0 462
0.02150000 0.02154770 68235.52688312 0 -4840.65432584 0 37513.47937857 0 5298.99321171 0 13150.60018711 0 571
0.02250000 0.02255340 76163.97579276 0 -5802.24144704 0 39692.84507262 0 11777.07829335 0 2793.00500783 0 510
0.02350000 0.02348930 73568.06923903 0 -2055.00134169 0 25784.45497493 0 11122.37172683 0 7989.51278101 0 555
0.02450000 0.02439640 75915.40210058 0 4274.26062207 0 27475.86331422 0 8441.65116498 0 460.19350027 0 592
0.02550000 0.02547300 73166.69746435 0 4229.26269400 0 25383.85826299 0 -897.40528316 0 -12095.51835514 0 837
0.02650000 0.02652900 64377.59674656 0 5822.26021031 0 20898.12730921 0 -3853.01402434 0 -2498.41473370 0 723
0.02750000 0.02749970 56930.01890379 0 6842.51958073 0 12178.11789828 0 1512.52385953 0 -8188.20564989 0 826
0.02850000 0.02848090 58114.42548964 0 -2511.42471537 0 17602.56055019 0 453.23343689 0 -8441.75081591 0 831
0.02950000 0.02946900 59059.44841291 0 -3041.18009631 0 21492.93259847 0 7936.42098351 0 -16787.08382729 0 996
0.03050000 0.03053250 61140.15969283 0 3106.71718692 0 13444.01679480 0 1735.62013230 0 -5695.34922324 0 1041
0.03150000 0.03150510 58135.46290680 0 1023.54895812 0 9195.77613606 0 6378.05769923 0 -2701.61403878 0 1036
0.03250000 0.03246190 59179.02952096 0 -1742.23031021 0 10436.23083014 0 6857.72188270 0 1388.54703853 0 1059
0.03350000 0.03345080 57436.46704100 0 -155.65474230 0 7429.50780866 0 2538.87300859 0 3048.42139674 0 1302
0.03450000 0.03451200 58522.99427545 0 2155.73735289 0 3888.06900472 0 3788.93848062 0 -1120.24246353 0 1339
0.03550000 0.03553350 55389.08345878 0 1722.56586134 0 4735.89906073 0 -3008.30636393 0 658.13123659 0 1365
0.03650000 0.03647120 53534.91194465 0 3306.20726317 0 5884.37595254 0 -7717.82007461 0 -3007.45379492 0 1308
0.03750000 0.03744890 51085.04935528 0 5852.98591168 0 14107.69194443 0 -7831.72108002 0 -6490.80718286 0 1579
0.03850000 0.03847530 46654.68002559 0 3222.01330525 0 17725.68480217 0 -4303.84587398 0 357.87303939 0 1662
0.03950000 0.03950240 46524.46948573 0 2487.87388048 0 20389.02181405 0 -114.58748955 0 -9469.82724764 0 1683
0.04050000 0.04050350 43313.27384182 0 683.66955379 0 23674.73420398 0 -1057.79012262 0 -3577.00311126 0 1822
0.04150000 0.04152450 43754.39526260 0 2068.68673517 0 21357.73951243 0 -245.08701709 0 -503.85721320 0 1887
0.04250000 0.04250150 42269.37505792 0 921.51637768 0 25394.04480182 0 1983.24160454 0 6968.13510579 0 1920
0.04350000 0.04349210 42835.39230265 0 -548.69902148 0 27148.45466934 0 5987.21570546 0 223.01433757 0 2005
0.04450000 0.04448520 42552.38368028 0 1218.09967027 0 23491.15505849 0 4634.67586724 0 3538.09496185 0 2151
0.04550000 0.04548030 42466.57316294 0 -197.25346664 0 20833.79710201 0 1562.82543118 0 2996.63613357 0 2274
0.04650000 0.04648670 42112.70166174 0 -338.46546845 0 20139.45161264 0 1432.21628762 0 2193.25038938 0 2311
0.04750000 0.04749250 42622.69294288 0 1003.64977595 0 17616.62240271 0 1006.17315878 0 1170.35580566 0 2568
0.04850000 0.04851840 42460.26193779 0 160.14124832 0 18148.31544050 0 -896.49181636 0 -451.98780035 0 2493
0.04950000 0.04949480 40370.13918178 0 998.18558366 0 16759.18156875 0 946.70148771 0 1862.69720424 0 2644
0.05050000 0.05050630 39650.21662207 0 2250.61610426 0 16104.14283248 0 4083.89414146 0 -729.94965706 0 2829
0.05150000 0.05149060 38294.29972478 0 439.35206327 0 14795.61548541 0 5071.00297137 0 39.95636640 0 2784
0.05250000 0.05249300 37631.51036113 0 -586.55862173 0 13365.40328859 0 4428.65311934 0 -878.17929834 0 3055
0.05350000 0.05348950 37761.38873126 0 -442.41356108 0 11771.09923795 0 3054.32294587 0 1613.63632977 0 3009
0.05450000 0.05448610 37777.33287899 0 846.73500309 0 10701.21370770 0 -406.66434594 0 801.20892513 0 3336
0.05550000 0.05550870 36570.78164351 0 1523.12007438 0 11242.83862085 0 526.66177339 0 4255.84734589 0 3349
0.05650000 0.05647670 35342.86082112 0 2257.71346447 0 9959.95477807 0 -1850.31834509 0 2295.93512974 0 3324
0.05750000 0.05747970 34271.94556466 0 2081.56384893 0 11231.21267979 0 1842.99953839 0 4688.95240350 0 3639
0.05850000 0.05849280 33329.91216909 0 -528.08235267 0 11951.24596275 0 191.00646098 0 999.56408810 0 3846
0.05950000 0.05951020 32785.59668100 0 -1080.12853794 0 11136.43357935 0 1241.18546752 0 1257.89360567 0 3787
0.06050000 0.06049470 34989.98582915 0 -494.58303393 0 10310.70388367 0 2098.00625129 0 943.36871794 0 3930
0.06150000 0.06148310 35016.00579247 0 -301.09526496 0 10819.00109912 0 -89.89089049 0 830.12762309 0 4083
0.06250000 0.06249100 35135.14400752 0 672.86185753 0 9332.14288852 0 560.21423929 0 1435.02865812 0 4303
0.06350000 0.06350600 34304.27675313 0 929.94241687 0 9358.62788949 0 -807.46478865 0 -521.53085807 0 4470
0.06450000 0.06451750 33250.85576988 0 1793.74983760 0 9445.27990352 0 -1572.91231909 0 -605.97283607 0 4479
0.06550000 0.06550280 31382.17951024 0 1737.28098102 0 9327.17141468 0 1692.69272898 0 -780.19918879 0 4636
0.06650000 0.06648880 31006.93842214 0 179.80348273 0 8670.69327618 0 2329.53963557 0 558.21900636 0 4653
0.06750000 0.06749660 30639.66940790 0 -901.19755441 0 6790.82289615 0 2744.24248933 0 -810.61043614 0 5220
0.06850000 0.06852730 31890.39921942 0 -364.28834439 0 6948.99105618 0 1381.71541412 0 -3527.76448279 0 5029
0.06950000 0.06949320 30912.15932169 0 1136.33055149 0 6475.93705063 0 -833.57222334 0 -2622.94517094 0 5040
0.07050000 0.07048030 29675.93425569 0 1542.50771514 0 7098.47851356 0 -2010.50166824 0 -396.70589700 0 5475
0.07150000 0.07148790 28780.62607085 0 1265.86567954 0 5769.23484676 0 -612.28738291 0 1239.20352138 0 5509
0.07250000 0.07249820 28069.89354074 0 277.76698380 0 7766.68224404 0 1804.68929452 0 980.50197369 0 5916
0.07350000 0.07351270 27874.46700769 0 -101.24456308 0 5664.35778607 0 2608.37399148 0 154.69809344 0 5721
0.07450000 0.07449140 27822.98069729 0 239.06367239 0 5286.34861676 0 2000.64729916 0 155.26831816 0 6028
0.07550000 0.07549160 26918.70392935 0 554.12999680 0 5919.15412480 0 263.12826315 0 861.99931008 0 6183
0.07650000 0.07648840 26928.22612869 0 741.48037613 0 6054.63509128 0 -523.60249005 0 1226.32640761 0 6330
0.07750000 0.07749960 26062.92394412 0 778.68781645 0 7101.80021100 0 -216.36762098 0 2293.72066478 0 6583
0.07850000 0.07848650 25752.12378646 0 439.67205346 0 7261.45206256 0 -1059.98908633 0 1874.55566412 0 6549
0.07950000 0.07947320 25399.80241073 0 471.05655815 0 7910.92141945 0 -46.37344298 0 1741.37774120 0 6828
0.08050000 0.08048110 25265.38438743 0 799.65547796 0 8751.96414035 0 731.99028653 0 3649.65970672 0 7147
0.08150000 0.08149960 23938.47698116 0 915.54396567 0 8338.25779583 0 97.57940212 0 2250.35036847 0 7386
0.08250000 0.08250610 23616.93666843 0 883.20724104 0 7883.17417346 0 1269.05450909 0 3187.16869905 0 7227
0.08350000 0.08350160 23083.36133542 0 194.59278699 0 7206.36724659 0 1024.41592115 0 2044.99196006 0 7798
0.08450000 0.08449610 22638.58604745 0 179.47352745 0 6862.21724658 0 343.21549580 0 2523.88108079 0 7371
0.08550000 0.08548940 22995.44707636 0 -466.01089973 0 6315.72051050 0 1247.50776499 0 2033.22207877 0 8256
0.08650000 0.08650700 23290.41380953 0 24.07710249 0 6726.19373618 0 322.90774485 0 2223.66606565 0 8037
0.08750000 0.08749060 22744.10530297 0 710.80782192 0 5682.58283272 0 -169.00907326 0 2329.81644369 0 8155
0.08850000 0.08849210 22305.53051691 0 824.62910659 0 6757.89380214 0 -4.27473673 0 2549.48029577 0 8718
0.08950000 0.08949900 21456.50464981 0 660.05671388 0 6252.33145092 0 -622.10632056 0 2610.49987784 0 8571
0.09050000 0.09049190 21233.39730472 0 765.00020851 0 7386.81292416 0 316.18241475 0 3700.58132856 0 8932
0.09150000 0.09150830 20552.89222136 0 650.83236007 0 7662.64668004 0 -165.97193457 0 3631.33500915 0 9285
0.09250000 0.09250820 20427.77495091 0 205.94856332 0 8774.45203206 0 636.28000356 0 4173.13707950 0 9204
0.09350000 0.09350330 19939.26397991 0 436.77553328 0 8509.53558845 0 254.10985459 0 3772.41857199 0 9349
0.09450000 0.09448040 19950.55775123 0 381.99963517 0 8974.72824338 0 133.38276093 0 3946.65267533 0 9564
0.09550000 0.09549270 19622.37404361 0 315.07407504 0 9028.27400620 0 -25.85454279 0 4345.62175552 0 10155
0.09650000 0.09649430 19316.66715536 0 406.92676004 0 8703.46735765 0 408.88323983 0 4021.62338668 0 9913
0.09750000 0.09749140 18892.26494506 0 390.40352971 0 8513.02337077 0 55.90959345 0 3529.69106731 0 10476
0.09850000 0.09850240 18182.30747769 0 687.15955057 0 7720.26705840 0 518.65426808 0 2335.54083562 0 10575
0.09950000 0.09950330 17754.69429320 0 657.18233836 0 7229.60805639 0 869.27050579 0 1539.60676603 0 10882
0.10050000 0.10051200 16948.85049289 0 126.43709157 0 6101.28279574 0 837.27702323 0 578.69062772 0 10875
0.10150000 0.10150300 17035.54679622 0 302.46380430 0 5863.26102912 0 162.25274066 0 -427.75601749 0 11118
0.10250000 0.10250800 16514.70463676 0 310.31518983 0 5104.71820044 0 292.03145986 0 -94.30963388 0 11575
0.10350000 0.10349800 16468.64376551 0 32.51111375 0 4578.99314573 0 933.37594479 0 8.58684256 0 11364
0.10450000 0.10450100 16247.52943888 0 -18.17411396 0 3938.10484057 0 320.37661140 0 -444.35564685 0 12093
0.10550000 0.10551000 16559.76899877 0 51.08682093 0 4113.76727382 0 900.45017248 0 -480.55107669 0 12067
0.10650000 0.10649700 16280.30352034 0 227.16203044 0 4038.95157502 0 -184.36085163 0 -477.94686589 0 12054
0.10750000 0.10749900 15882.80705936 0 467.15467089 0 4130.04359130 0 -255.75741652 0 -372.77195967 0 12807
0.10850000 0.10850100 15739.53117620 0 -72.09423208 0 4377.42147240 0 -101.42183100 0 415.98502897 0 12736
0.10950000 0.10950300 15484.75698213 0 147.38039396 0 3860.93073659 0 531.02537660 0 545.79032175 0 12933
0.11050000 0.11050200 15636.33710889 0 97.85133842 0 3837.67885447 0 947.38243569 0 211.10051606 0 13428
0.11150000 0.11150900 15439.58189686 0 107.50662710 0 3690.21763253 0 242.80943988 0 497.28357395 0 13453
0.11250000 0.11250000 15510.77694545 0 477.47961378 0 4154.25876568 0 -207.44997057 0 697.50553088 0 13668
0.11350000 0.11349100 15003.88591525 0 525.65419184 0 4123.86523406 0 131.03874976 0 1369.45835054 0 13791
0.11450000 0.11448600 14959.26444623 0 -18.52754257 0 4612.61979620 0 -391.98687216 0 1806.18405837 0 14205
0.11550000 0.11549300 14727.85285752 0 88.54172771 0 4917.11980104 0 270.98407761 0 1870.53641021 0 14776
0.11650000 0.11649800 15021.49091171 0 258.89752784 0 5261.35837965 0 -483.95913827 0 1533.46162576 0 14553
0.11750000 0.11747300 14665.18349905 0 302.15045751 0 5349.10655384 0 48.83393500 0 1455.08063837 0 14568
0.11850000 0.11849100 14342.86812358 0 322.62982950 0 5276.32816280 0 -351.75890163 0 1035.56243055 0 16015
0.11950000 0.11950300 14158.07102235 0 214.06568465 0 5213.82488920 0 51.12668130 0 1050.27090684 0 15270
0.12050000 0.12050700 13952.12578073 0 90.81277225 0 4837.64265349 0 650.99512325 0 560.98708756 0 15999
0.12150000 0.12150000 13892.99956620 0 -98.54413378 0 4276.60795493 0 1017.27648611 0 531.99309779 0 15670
0.12250000 0.12250700 13953.78662945 0 -113.54336932 0 3874.99258911 0 1029.41286134 0 269.30440594 0 16887
0.12350000 0.12352200 13947.36468106 0 -7.25164198 0 3409.02487144 0 807.83571154 0 719.67786133 0 16407
0.12450000 0.12449800 13772.86484191 0 286.18970128 0 3255.92783617 0 -39.94673348 0 218.19676904 0 16306
0.12550000 0.12549900 13383.78334779 0 537.22255681 0 3420.70617412 0 -300.63576348 0 1026.92490995 0 17523
0.12650000 0.12650100 13245.49001080 0 319.19408710 0 3647.06878271 0 -412.03110178 0 1171.82842486 0 17154
0.12750000 0.12750600 12890.73272361 0 17.44865524 0 3776.20530707 0 -330.29187827 0 1462.39944507 0 18007
0.12850000 0.12850300 13230.09947930 0 33.49190028 0 3878.51358840 0 79.47194356 0 1153.53694426 0 17496
0.12950000 0.12949900 13175.84508769 0 -65.45581974 0 4209.68682372 0 50.62875885 0 1283.31566346 0 18405
0.13050000 0.13049000 13112.40066648 0 279.71239127 0 4150.37237967 0 208.57602600 0 1349.35100867 0 18100
0.13150000 0.13148800 12860.72672335 0 377.51202192 0 4362.66206342 0 146.85888746 0 1195.78893576 0 19059
0.13250000 0.13249300 12532.10012274 0 260.09887508 0 4023.15136750 0 -78.99959818 0 1093.56037518 0 18957
0.13350000 0.13349100 12555.68417460 0 155.46872724 0 4222.20962309 0 508.67699619 0 1021.90250342 0 19468
0.13450000 0.13450700 12395.79980422 0 -10.43963003 0 3861.05253216 0 194.90613378 0 614.23832655 0 19953
0.13550000 0.13551000 12389.48857907 0 115.33044254 0 3602.45838602 0 176.45853340 0 569.99331657 0 19956
0.13650000 0.13649900 12341.54541261 0 112.05857056 0 3232.84203892 0 -20.54968125 0 139.23559183 0 19723
0.13750000 0.13749600 12104.81910799 0 147.96058378 0 3292.95369036 0 89.58961253 0 36.07717740 0 20946
0.13850000 0.13851100 11985.12727670 0 107.37375921 0 2672.95886214 0 312.62044786 0 -185.61313156 0 20955
0.13950000 0.13949800 11638.89567962 0 204.99302169 0 2838.22438239 0 109.11178203 0 -509.57496173 0 20506
0.14050000 0.14048300 11646.20341400 0 254.88048840 0 2582.47582373 0 188.65359196 0 -894.74017457 0 21447
0.14150000 0.14148400 11308.82967677 0 163.58584857 0 2344.35440618 0 191.80034667 0 -109.07358251 0 21771
0.14250000 0.14249400 11261.21868005 0 125.52251754 0 2192.80749638 0 303.27319125 0 -479.85684192 0 22470
0.14350000 0.14350900 11060.65458829 0 212.90751947 0 1980.37387241 0 104.20076308 0 -58.18528837 0 22519
0.14450000 0.14449900 11006.92059594 0 187.79770125 0 2279.64773994 0 -164.97542533 0 -557.18706569 0 22218
0.14550000 0.14550500 10677.84003001 0 359.46856140 0 2203.71373633 0 71.24974587 0 259.93389744 0 23559
0.14650000 0.14650700 10540.34390041 0 244.65741089 0 2307.73822800 0 170.09637556 0 430.42112607 0 23044
0.14750000 0.14750500 10456.79213733 0 -120.06386140 0 2283.00265436 0 627.91486216 0 639.91504780 0 23649
0.14850000 0.14849900 10550.10969090 0 35.45502347 0 2285.21711932 0 89.56049231 0 707.33775532 0 23640
0.14950000 0.14949500 10399.55929034 0 235.42752092 0 2329.77215439 0 116.54729104 0 598.76253815 0 24457
0.15050000 0.15050000 10269.09408700 0 157.09082283 0 2448.44533180 0 -337.29844542 0 1039.43774423 0 24591
0.15150000 0.15149900 10030.45227019 0 201.11106461 0 2680.94200834 0 -267.61476917 0 1089.82125109 0 25020
0.15250000 0.15250500 10040.07412045 0 43.46396818 0 2824.41719334 0 21.43923182 0 735.11268213 0 25297
0.15350000 0.15350100 10159.33413108 0 -73.02098567 0 2993.01548335 0 121.32832090 0 682.68190241 0 25452
0.15450000 0.15450400 10078.98226987 0 171.42394731 0 2834.99126354 0 -185.24663761 0 417.53626168 0 26061
0.15550000 0.15549900 9966.83069178 0 274.14965528 0 2827.01918967 0 -64.95490776 0 498.90788400 0 26128
0.15650000 0.15649500 9712.80941579 0 394.60436975 0 2965.30145433 0 -132.94872579 0 492.79706794 0 26331
0.15750000 0.15749700 9366.78819288 0 199.69048534 0 2917.19220299 0 -8.75812035 0 567.35035264 0 27345
0.15850000 0.15849900 9306.35544402 0 106.78947262 0 2918.62053290 0 672.66809185 0 99.11391561 0 26980
0.15950000 0.15949700 9142.79506180 0 24.26876443 0 2652.22039776 0 367.66097453 0 524.94445581 0 27777
0.16050000 0.16050000 9075.72999037 0 192.64295059 0 2440.18537748 0 305.61166625 0 127.43249357 0 28224
0.16150000 0.16150500 9007.87878388 0 66.13112083 0 2464.30090094 0 -229.08972220 0 425.48286920 0 28075
0.16250000 0.16249700 8964.35347502 0 30.36263984 0 2469.69312312 0 -178.09945194 0 467.48794787 0 28590
0.16350000 0.16349900 8949.73800626 0 161.34481002 0 2656.69361699 0 51.35067443 0 494.44905880 0 29163
0.16450000 0.16449100 9039.94423656 0 33.11865221 0 2603.07034789 0 -146.48353565 0 399.02554905 0 28996
0.16550000 0.16550500 8840.01126731 0 102.00235299 0 2578.01367682 0 107.48680764 0 673.01908454 0 30777
0.16650000 0.16650700 8981.12804712 0 153.16346922 0 2539.11659974 0 216.69757626 0 428.95182857 0 29211
0.16750000 0.16749900 8623.97913777 0 106.75747361 0 2674.29861345 0 181.78210718 0 789.30617595 0 30922
0.16850000 0.16850800 8647.81785311 0 79.19181374 0 2522.95100550 0 458.73527510 0 746.93903227 0 30867
0.16950000 0.16949900 8653.27650924 0 94.09438788 0 2500.18630567 0 94.36676707 0 780.61329374 0 30852
0.17050000 0.17049200 8434.49844315 0 156.79962069 0 2620.29888531 0 35.04545818 0 1059.98465740 0 31257
0.17150000 0.17149500 8310.01229522 0 223.44837270 0 2424.79484598 0 107.90567369 0 1226.72501131 0 32608
0.17250000 0.17250900 8129.71055787 0 145.32869217 0 2285.10639607 0 309.81029182 0 1420.37997239 0 32361
0.17350000 0.17350400 8184.79537384 0 -129.81636510 0 2293.45492899 0 279.38132875 0 1202.89736830 0 32508
0.17450000 0.17449800 8193.37642558 0 -2.46611676 0 2262.69601064 0 214.52629336 0 830.88164841 0 32791
0.17550000 0.17549800 8090.69168521 0 182.97348933 0 1978.97875949 0 -120.50343270 0 722.67513966 0 33633
0.17650000 0.17650100 7935.84522262 0 190.52702932 0 2097.70729852 0 -305.44779584 0 909.23495499 0 33984
0.17750000 0.17750300 7912.11723053 0 174.61166962 0 2171.09466741 0 -275.80164614 0 671.22868962 0 34069
0.17850000 0.17849800 7789.19228040 0 2.55987721 0 2068.14419125 0 131.30337833 0 627.43543050 0 34536
