### header ###
fiducial parameters:
Omega_m = 0.31
Omega_nu = 0
Omega_de = 0.69
Omega_k = 0
H_0 = 100
w_de = -1
zeff = 0
beta = 0
fgrowth = 0
b_1 = 2
gamma = 0.55
Lx = 3500 Ly = 3500 Lz = 3500
nx = 700 ny = 700 nz = 700
xoffset = -685.467585 yoffset = -31.7331281 zoffset = 572.489161
bins = 400 dk = 0.001
kx_ny = 0.628318531 ky_ny = 0.628318531 kz_ny = 0.628318531
############################
A(data) = 7.97528568 (not used)
A(ran) = 7.96747091 (used)
Ngal = 473469
weighted Ngal = 0
Nran = 23820508
weighted Nran = 0
SN(data) = 3496.9377
SN(ran) = 69.3995611
SN(data+ran) = 3566.33726
############################
13 columns: k_central k_mean P_0(k) sigma^{lin}_{P_0(k)} P^img_1(k) sigma^{lin}_{P_1(k)} P_2(k) sigma^{lin}_{P_2(k)} P^img_3(k) sigma^{lin}_{P_3(k)} P_4(k) sigma^{lin}_{P_4(k)} N_modes
### header ###
0.00050000 0 0 0 0 0 0 0 0 0 0 0 0
0.00150000 0.00179520 3046.77162035 0 1021.32452806 0 3835.53082345 0 1371.76139411 0 -27661.98909442 0 3
0.00250000 0.00253879 13466.38289093 0 -8876.87103663 0 942.02896664 0 4812.04343851 0 30615.86390954 0 6
0.00350000 0.00331552 13902.07887255 0 -11363.96985437 0 -1322.48954866 0 -5986.73959549 0 4342.61008317 0 7
0.00450000 0.00420575 20323.36292787 0 -5694.96169187 0 -2933.96677509 0 -2104.88216500 0 -7115.59632773 0 24
0.00550000 0.00557378 49155.14313939 0 -27363.58994056 0 5736.02894462 0 -12506.63377565 0 1443.99724122 0 45
0.00650000 0.00659388 42544.07943667 0 -14569.51861262 0 4841.61761810 0 -7092.90913418 0 13115.94381042 0 40
0.00750000 0.00754703 70421.75741856 0 11360.98032667 0 34135.31307640 0 -12198.38025270 0 15613.86028951 0 57
0.00850000 0.00846663 68510.12053862 0 9950.59866359 0 17760.00900911 0 5110.06613333 0 21746.48883681 0 75
0.00950000 0.00948925 58148.41752684 0 1648.50308062 0 33242.44080302 0 14350.39730445 0 22240.64669347 0 112
0.01050000 0.01054430 68253.68549582 0 -2009.23942322 0 18798.48235385 0 27966.92091993 0 4260.85203671 0 105
0.01150000 0.01145670 73764.38155806 0 -8470.00738884 0 34117.59735669 0 17025.13881090 0 -1180.22124707 0 144
0.01250000 0.01249090 75467.08366867 0 -4765.36251707 0 16631.07477060 0 12249.97728636 0 5372.94526917 0 169
0.01350000 0.01339930 78573.97801279 0 -2341.91849472 0 19116.36879939 0 -2497.97184071 0 -14306.77234467 0 180
0.01450000 0.01448870 83076.31745379 0 3820.53889565 0 20677.45587557 0 -17677.96308220 0 -22078.99075112 0 267
0.01550000 0.01550050 80723.66987633 0 8767.55397370 0 28250.04026554 0 -24383.25226913 0 -12479.61730310 0 238
0.01650000 0.01653350 68611.98592695 0 3228.65670014 0 32138.75146510 0 -12347.30302151 0 -7064.26502987 0 315
0.01750000 0.01747870 74601.89220735 0 789.58409130 0 28578.44541966 0 10915.54069921 0 -12619.57148880 0 297
0.01850000 0.01844180 72786.69527658 0 -7480.56229840 0 19275.14593729 0 14239.00971678 0 -9855.34345318 0 388
0.01950000 0.01947590 76964.50487715 0 232.00395809 0 22918.82658861 0 18712.45039001 0 -9547.77641437 0 399
0.02050000 0.02045430 75442.28166108 0 1299.87986138 0 20165.02868297 0 11196.00268687 0 -3053.68075103 0 462
0.02150000 0.02154770 73517.80088435 0 5069.28676102 0 15057.58669062 0 -1149.47340105 0 -10322.41840333 0 571
0.02250000 0.02255340 66874.07382342 0 5468.84267443 0 22361.99937348 0 -9939.10559043 0 -6025.73632350 0 510
0.02350000 0.02348930 62377.27054482 0 9054.58184997 0 22103.57131222 0 -7690.42714301 0 -9835.77865522 0 555
0.02450000 0.02439640 60745.20986655 0 3127.54422990 0 28008.99575424 0 -7045.85175370 0 -1702.54709806 0 592
0.02550000 0.02547300 56828.92857820 0 -184.66644779 0 20489.55852340 0 7759.10877386 0 -10103.42996307 0 837
0.02650000 0.02652900 58442.38775077 0 -2745.12827531 0 13839.96313032 0 9622.72498106 0 -8570.42230262 0 723
0.02750000 0.02749970 54322.92930199 0 -2966.55262704 0 1922.91957893 0 13306.60924380 0 -13310.92745048 0 826
0.02850000 0.02848090 60471.28055054 0 142.71451628 0 3741.20568832 0 8033.73564634 0 -10118.87585619 0 831
0.02950000 0.02946900 56746.55048155 0 3700.94671528 0 65.66076847 0 2402.60590705 0 -7809.77573223 0 996
0.03050000 0.03053250 52602.62219492 0 5453.95039754 0 1503.46669782 0 -9807.66602251 0 -950.50372406 0 1041
0.03150000 0.03150510 48797.39632450 0 5640.26440727 0 8248.12907180 0 -5823.00205608 0 7808.41383628 0 1036
0.03250000 0.03246190 46130.07327569 0 557.93555484 0 12786.76359357 0 -2363.05556280 0 5900.19830471 0 1059
0.03350000 0.03345080 48379.63750909 0 -2462.42967804 0 15765.55113953 0 3298.56735905 0 13176.62015043 0 1302
0.03450000 0.03451200 51137.42145167 0 -2532.51749414 0 17522.72908825 0 5722.46534672 0 11653.28970188 0 1339
0.03550000 0.03553350 52019.77501647 0 -158.51804550 0 16939.21757030 0 6933.57838003 0 7732.55733895 0 1365
0.03650000 0.03647120 51495.38971306 0 488.68702096 0 16287.05763848 0 -7352.78766999 0 4015.09071504 0 1308
0.03750000 0.03744890 52342.75473143 0 3489.07777988 0 16722.97506659 0 359.01016715 0 8898.08561098 0 1579
0.03850000 0.03847530 48480.50638819 0 2008.92939812 0 14693.63937383 0 -2043.15395414 0 6125.05507713 0 1662
0.03950000 0.03950240 47061.92013242 0 1879.15067892 0 15584.40790549 0 535.30150845 0 4314.59710138 0 1683
0.04050000 0.04050350 47133.44735075 0 1278.20024939 0 17728.56360662 0 4477.89174781 0 -3896.60576715 0 1822
0.04150000 0.04152450 42146.25080594 0 3433.48363696 0 11449.55892522 0 2116.51917838 0 -2307.40605826 0 1887
0.04250000 0.04250150 41590.08793030 0 3318.80756882 0 10791.41993800 0 5047.48535345 0 -277.47910335 0 1920
0.04350000 0.04349210 38661.23656927 0 -365.87611577 0 9805.13046013 0 1993.27313083 0 1741.37774120 0 2005
0.04450000 0.04448520 38965.72550178 0 650.45257933 0 10887.30627093 0 5030.16823744 0 -1594.10474879 0 2151
0.04550000 0.04548030 38523.82901827 0 351.56402871 0 9736.86957762 0 -764.00037758 0 3571.04620051 0 2274
0.04650000 0.04648670 37521.45145244 0 1284.23466642 0 8768.17402389 0 2041.86956446 0 2107.08555764 0 2311
0.04750000 0.04749250 36568.56717854 0 1177.53067214 0 12048.90386765 0 -1835.84681656 0 4967.85319336 0 2568
0.04850000 0.04851840 35450.37309511 0 2121.54601385 0 11268.41569118 0 -614.08331400 0 2806.07035111 0 2493
0.04950000 0.04949480 34307.15555758 0 1056.07280504 0 14301.45762876 0 -885.46599530 0 5336.79412864 0 2644
0.05050000 0.05050630 34507.56463680 0 -257.60649477 0 14010.14476278 0 -2789.97119083 0 3893.09584018 0 2829
0.05150000 0.05149060 35809.00569598 0 -463.76211056 0 20035.37175934 0 1906.15607915 0 2160.26593374 0 2784
0.05250000 0.05249300 37037.59085786 0 -1544.47858895 0 16335.44369794 0 1390.29646585 0 2796.39313922 0 3055
0.05350000 0.05348950 37330.45384931 0 -848.77009639 0 15266.85362969 0 2857.00304528 0 4083.03050012 0 3009
0.05450000 0.05448610 39093.27868369 0 -1428.14167208 0 15225.66458137 0 2724.33444930 0 1193.10943316 0 3336
0.05550000 0.05550870 40536.77767030 0 -361.40289655 0 14974.87642423 0 1224.47732937 0 901.95600866 0 3349
0.05650000 0.05647670 39316.93964503 0 900.16893543 0 13659.26278927 0 -1022.83368593 0 883.90701197 0 3324
0.05750000 0.05747970 38839.39027560 0 938.98075562 0 15034.11336201 0 -2022.42656207 0 -1063.04947691 0 3639
0.05850000 0.05849280 37131.15200258 0 2312.72077417 0 14882.42251199 0 -3296.79578708 0 -131.76730874 0 3846
0.05950000 0.05951020 36600.34475077 0 2284.76315400 0 17380.56043757 0 -1584.22823505 0 -1619.68181912 0 3787
0.06050000 0.06049470 35072.47464905 0 383.40028426 0 17384.98936750 0 -250.37294496 0 -2746.35730337 0 3930
0.06150000 0.06148310 34405.80997172 0 907.55196162 0 18164.37031149 0 3229.78607727 0 -844.08539576 0 4083
0.06250000 0.06249100 33051.44319990 0 1092.42989081 0 16633.73212856 0 1561.70712637 0 -1315.42540543 0 4303
0.06350000 0.06350600 33552.57662119 0 942.42314140 0 15569.23882049 0 3941.76978009 0 -1781.41526775 0 4470
0.06450000 0.06451750 32176.17592299 0 -180.52982724 0 15380.67712883 0 655.03984350 0 102.74231646 0 4479
0.06550000 0.06550280 32052.38733151 0 780.13939823 0 15871.40256479 0 1792.50973722 0 954.61266380 0 4636
0.06650000 0.06648880 31225.17394431 0 241.74428223 0 14133.04756826 0 2179.09995826 0 2299.99867295 0 4653
0.06750000 0.06749660 31794.95577948 0 -409.39810294 0 13591.94305438 0 2437.69410440 0 4050.52215446 0 5220
0.06850000 0.06852730 31625.77065625 0 -553.67824595 0 12293.38079965 0 2117.80356806 0 1691.23118210 0 5029
0.06950000 0.06949320 31266.91660888 0 1161.32078860 0 11308.16533728 0 1738.07818841 0 1241.58407121 0 5040
0.07050000 0.07048030 30730.68391791 0 1007.82957857 0 10972.34172553 0 -1318.16026966 0 1069.34409357 0 5475
0.07150000 0.07148790 29321.84130799 0 1048.55580372 0 11155.36725479 0 -1360.85515416 0 1288.61930704 0 5509
0.07250000 0.07249820 28646.31877080 0 1055.32653035 0 11229.77327757 0 79.86777917 0 2859.94828368 0 5916
0.07350000 0.07351270 28017.96433734 0 605.25092049 0 11531.16195913 0 512.68517778 0 1010.60430317 0 5721
0.07450000 0.07449140 27285.53005059 0 291.62399831 0 12130.83907131 0 1856.48563002 0 1588.86753915 0 6028
0.07550000 0.07549160 27661.65692468 0 198.82130784 0 10319.98249187 0 2310.92705755 0 2118.73364335 0 6183
0.07650000 0.07648840 27155.98385021 0 140.72924844 0 9941.04324728 0 959.19992797 0 1563.42333672 0 6330
0.07750000 0.07749960 26960.22514742 0 69.55512656 0 9651.80090604 0 750.30723348 0 606.61613814 0 6583
0.07850000 0.07848650 26343.27520852 0 571.05625975 0 9563.47697096 0 372.18401922 0 837.59147725 0 6549
0.07950000 0.07947320 26432.96103955 0 592.43249005 0 7393.65562090 0 -266.80538222 0 -1028.06203771 0 6828
0.08050000 0.08048110 25463.02538544 0 410.41232789 0 8034.86502347 0 -911.06963922 0 -840.40163329 0 7147
0.08150000 0.08149960 25046.04163277 0 1481.69850723 0 7653.47879509 0 763.38475632 0 -1635.55953291 0 7386
0.08250000 0.08250610 23434.02186242 0 1003.61323728 0 7428.48915478 0 -346.46300867 0 -983.89342678 0 7227
0.08350000 0.08350160 22812.97516335 0 474.11473427 0 7326.63483877 0 1593.19681816 0 -273.57278715 0 7798
0.08450000 0.08449610 22425.88668769 0 203.08083120 0 7567.64613310 0 1171.06443444 0 -97.98719584 0 7371
0.08550000 0.08548940 22281.61429530 0 498.41184385 0 7826.61673828 0 487.34394796 0 224.78812400 0 8256
0.08650000 0.08650700 22046.54883940 0 642.30445550 0 7247.97704326 0 323.17901681 0 882.92489676 0 8037
0.08750000 0.08749060 21767.52625397 0 213.78444760 0 6878.48249174 0 -17.85390232 0 1354.83180946 0 8155
0.08850000 0.08849210 21514.30218537 0 -46.26039454 0 6710.14993752 0 -466.65309457 0 209.16396645 0 8718
0.08950000 0.08949900 21746.37811357 0 -108.52539171 0 7252.38382854 0 -296.06732226 0 -842.18206312 0 8571
0.09050000 0.09049190 21519.83834778 0 423.12889294 0 7520.63304192 0 -943.11405447 0 -2253.82707846 0 8932
0.09150000 0.09150830 21107.94786452 0 713.60136947 0 7649.64777071 0 -930.61339975 0 -2555.14932607 0 9285
0.09250000 0.09250820 20108.44910314 0 1288.65252402 0 8058.50443696 0 42.13949669 0 -1868.12264340 0 9204
0.09350000 0.09350330 19354.75595274 0 1000.37126057 0 7494.62415092 0 597.12826300 0 -2332.21913818 0 9349
0.09450000 0.09448040 18594.53013069 0 517.44627745 0 7797.59617493 0 1461.15934469 0 -149.13646468 0 9564
0.09550000 0.09549270 18509.60539933 0 85.25767617 0 7622.79738302 0 1710.49702728 0 -868.80325368 0 10155
0.09650000 0.09649430 18086.64259126 0 151.73181762 0 7775.31865740 0 1451.28283095 0 223.92780436 0 9913
0.09750000 0.09749140 17741.73967316 0 440.68074225 0 6506.14235274 0 1139.44187476 0 166.30410431 0 10476
0.09850000 0.09850240 17433.92904320 0 -71.76228378 0 6306.82943368 0 828.25640020 0 680.81400122 0 10575
0.09950000 0.09950330 17523.28270449 0 278.93289960 0 6117.54804090 0 432.37539140 0 769.20326301 0 10882
0.10050000 0.10051200 17390.96842290 0 206.42024436 0 5328.23522155 0 -170.27685446 0 1068.43173400 0 10875
0.10150000 0.10150300 17221.45112993 0 103.04392659 0 5172.73549180 0 -7.61473673 0 1739.37365041 0 11118
0.10250000 0.10250800 17315.34444439 0 201.82965849 0 5197.72572892 0 58.94861444 0 364.66148174 0 11575
0.10350000 0.10349800 16626.31367093 0 515.36578761 0 5571.43883620 0 80.68690976 0 1074.77617612 0 11364
0.10450000 0.10450100 16128.05905409 0 805.70871794 0 5766.26746370 0 114.92519546 0 67.55601831 0 12093
0.10550000 0.10551000 15641.20893181 0 434.85005600 0 5719.03292603 0 104.25313518 0 1304.38629759 0 12067
0.10650000 0.10649700 15608.10268060 0 45.54036126 0 5987.57001985 0 340.92352456 0 1059.43214839 0 12054
0.10750000 0.10749900 15505.35150629 0 -69.59985875 0 5954.46376865 0 342.87003926 0 1994.43572493 0 12807
0.10850000 0.10850100 15896.20457239 0 -322.35745031 0 6215.26130743 0 249.36314894 0 1609.61707586 0 12736
0.10950000 0.10950300 15821.13421012 0 -111.51491941 0 5991.71106934 0 42.02976995 0 1978.11511815 0 12933
0.11050000 0.11050200 16339.98335112 0 425.70542293 0 6707.86903861 0 42.15211914 0 2129.09733938 0 13428
0.11150000 0.11150900 15949.01956177 0 159.59316824 0 6614.58470201 0 -310.81012275 0 1850.81659971 0 13453
0.11250000 0.11250000 16046.56674342 0 486.00198219 0 6947.78417278 0 86.10271600 0 1961.18553350 0 13668
0.11350000 0.11349100 15332.62323912 0 259.43342836 0 6454.40137886 0 247.88942250 0 1524.63698288 0 13791
0.11450000 0.11448600 15199.20172505 0 378.41330916 0 6468.69575020 0 623.25562788 0 1768.75960048 0 14205
0.11550000 0.11549300 15153.03013056 0 -90.83690992 0 5693.83231474 0 776.41023924 0 753.12071121 0 14776
0.11650000 0.11649800 14550.47421393 0 188.40225018 0 5135.68749296 0 1043.84120781 0 933.86423432 0 14553
0.11750000 0.11747300 14435.32203581 0 513.55546251 0 4795.56781918 0 446.65647595 0 540.64722687 0 14568
0.11850000 0.11849100 13987.77866664 0 166.41482756 0 4391.51654190 0 802.35933968 0 806.70965610 0 16015
0.11950000 0.11950300 13872.18359554 0 178.71285874 0 3968.96340984 0 20.73314967 0 1198.01447305 0 15270
0.12050000 0.12050700 13723.15010348 0 198.04735233 0 4227.77900248 0 291.05820251 0 946.08808092 0 15999
0.12150000 0.12150000 13680.41092968 0 97.27956356 0 4256.83278280 0 -303.52010409 0 1858.00253852 0 15670
0.12250000 0.12250700 13564.15151908 0 147.49111721 0 4274.88067226 0 -53.10397706 0 837.71327283 0 16887
0.12350000 0.12352200 13394.74494936 0 108.60610896 0 4231.94219661 0 -31.20679389 0 877.59246513 0 16407
0.12450000 0.12449800 13364.84967235 0 111.53374236 0 4439.52614231 0 -246.66814508 0 -274.64790989 0 16306
0.12550000 0.12549900 13182.15631284 0 319.50854113 0 3916.31450533 0 6.06162173 0 -345.48532239 0 17523
0.12650000 0.12650100 12983.85097534 0 298.59402678 0 3687.27239413 0 236.95107282 0 -558.00973942 0 17154
0.12750000 0.12750600 12653.00990976 0 -32.14229461 0 3202.41529032 0 613.07241074 0 -452.23139150 0 18007
0.12850000 0.12850300 12872.57411091 0 -199.37492408 0 2804.52022564 0 598.17902663 0 -561.86623015 0 17496
0.12950000 0.12949900 12850.98307751 0 -38.52493625 0 2728.04367812 0 427.63422191 0 -392.75861320 0 18405
0.13050000 0.13049000 12967.68538110 0 252.91957967 0 3068.58410024 0 138.79712776 0 -314.87477319 0 18100
0.13150000 0.13148800 12720.55109115 0 159.22556705 0 2880.85283294 0 -404.36905300 0 271.36275112 0 19059
0.13250000 0.13249300 12632.19393910 0 336.15024533 0 3602.15943325 0 -553.92294433 0 635.02550916 0 18957
0.13350000 0.13349100 12507.18739189 0 405.44971191 0 3911.39839311 0 -455.87418636 0 1072.13099772 0 19468
0.13450000 0.13450700 12316.74340501 0 110.84282929 0 3854.27626937 0 34.34015109 0 927.72905914 0 19953
0.13550000 0.13551000 12153.75878368 0 -9.67361339 0 4197.81729152 0 174.30385899 0 390.85306610 0 19956
0.13650000 0.13649900 12157.74482062 0 204.46708626 0 3923.11291277 0 158.69520270 0 -24.18904369 0 19723
0.13750000 0.13749600 12078.02408192 0 123.56935944 0 3815.64492808 0 47.10155906 0 -75.21850998 0 20946
0.13850000 0.13851100 11822.36410186 0 128.17987550 0 3816.19854432 0 186.48120183 0 139.81024549 0 20955
0.13950000 0.13949800 11797.11920127 0 62.80599096 0 3444.94349315 0 608.96236377 0 393.92120731 0 20506
0.14050000 0.14048300 11934.85892202 0 -55.09622047 0 3709.94851536 0 420.61879691 0 149.11542726 0 21447
0.14150000 0.14148400 11724.59547371 0 203.69645246 0 3431.24702735 0 326.74098370 0 684.58744951 0 21771
0.14250000 0.14249400 11569.36147976 0 266.89174636 0 3311.47768979 0 442.55971577 0 650.85782642 0 22470
0.14350000 0.14350900 11257.34336637 0 213.86638280 0 3060.70060497 0 307.40427564 0 797.46315765 0 22519
0.14450000 0.14449900 11122.70389657 0 188.81303343 0 2893.01024559 0 149.47749228 0 525.67301479 0 22218
0.14550000 0.14550500 11217.37227377 0 -12.37885915 0 2622.88980931 0 213.24633261 0 344.48438422 0 23559
0.14650000 0.14650700 10776.49444414 0 233.39685655 0 2356.63361440 0 -188.54286871 0 338.77106462 0 23044
0.14750000 0.14750500 10701.92233649 0 344.39802009 0 2323.30591670 0 -245.54651857 0 -153.83334487 0 23649
0.14850000 0.14849900 10587.70023366 0 -15.11615929 0 2378.12499687 0 -177.15387540 0 -490.49402437 0 23640
0.14950000 0.14949500 10354.60565158 0 153.62629239 0 2483.42280590 0 -192.75367384 0 -774.50026320 0 24457
0.15050000 0.15050000 10428.86773414 0 208.33243486 0 2494.82730046 0 -178.58331253 0 -979.17440194 0 24591
0.15150000 0.15149900 10245.93078348 0 207.35585581 0 2908.65544056 0 163.29907536 0 -667.43198944 0 25020
0.15250000 0.15250500 10051.68898919 0 176.07875266 0 2852.05371609 0 140.26863973 0 -626.58729042 0 25297
0.15350000 0.15350100 10021.50583173 0 183.69208321 0 2853.28274414 0 359.35340922 0 -460.10935061 0 25452
0.15450000 0.15450400 9765.73512842 0 170.91351313 0 2622.07045728 0 221.55611239 0 -132.37407214 0 26061
0.15550000 0.15549900 9636.26643432 0 100.93852402 0 2397.23582951 0 308.98097469 0 -49.75393447 0 26128
0.15650000 0.15649500 9554.85162993 0 150.07982675 0 2456.04094662 0 -13.36363172 0 -230.00208176 0 26331
0.15750000 0.15749700 9576.67518214 0 51.04939647 0 2418.63863339 0 -244.44482225 0 0.41867671 0 27345
0.15850000 0.15849900 9432.45815138 0 107.46543806 0 2574.35980963 0 -12.82507384 0 -187.54635948 0 26980
0.15950000 0.15949700 9529.38528284 0 77.58001541 0 2397.85587970 0 -75.09926104 0 -157.78948653 0 27777
0.16050000 0.16050000 9379.29991993 0 147.78674828 0 2545.89286253 0 127.56646870 0 -190.06088444 0 28224
0.16150000 0.16150500 9297.63045206 0 106.11007477 0 2679.07078544 0 324.40472316 0 -44.10084831 0 28075
0.16250000 0.16249700 9129.18717460 0 120.83338798 0 2316.13105021 0 339.92037193 0 229.75959785 0 28590
0.16350000 0.16349900 9099.12581272 0 48.84268213 0 2382.99681979 0 299.83855609 0 118.21367593 0 29163
0.16450000 0.16449100 8888.08730167 0 155.07787418 0 2236.60961337 0 158.79485362 0 136.50072760 0 28996
0.16550000 0.16550500 8733.04153724 0 293.18519611 0 2382.81966260 0 8.09278435 0 92.23933058 0 30777
0.16650000 0.16650700 8597.39448588 0 295.32104756 0 2410.61119789 0 -210.99532898 0 596.23472639 0 29211
0.16750000 0.16749900 8338.39066373 0 261.15517487 0 2310.81633430 0 37.02950806 0 273.26608376 0 30922
0.16850000 0.16850800 8210.12885303 0 173.52104563 0 2443.97211257 0 -121.50547809 0 448.17781338 0 30867
0.16950000 0.16949900 8065.34713370 0 63.47996337 0 2446.50767495 0 165.31534570 0 283.21013868 0 30852
0.17050000 0.17049200 8061.47182001 0 16.60372613 0 2412.38276986 0 162.53065601 0 308.31220627 0 31257
0.17150000 0.17149500 8081.49058328 0 -94.26346228 0 2288.27308097 0 6.06244108 0 162.97797794 0 32608
0.17250000 0.17250900 8080.59372497 0 17.18535535 0 2312.22251955 0 167.81879835 0 247.47531756 0 32361
0.17350000 0.17350400 8190.79657389 0 128.25295284 0 2363.37666022 0 -40.00275944 0 435.64061999 0 32508
0.17450000 0.17449800 8092.30824463 0 54.52522068 0 2394.68919480 0 -76.98831038 0 526.06608232 0 32791
0.17550000 0.17549800 8072.10125184 0 183.21597324 0 2433.43125934 0 190.12510393 0 629.36312225 0 33633
0.17650000 0.17650100 7811.53623188 0 115.50981421 0 2541.35320935 0 132.19912940 0 588.37005407 0 33984
0.17750000 0.17750300 7877.84838522 0 85.04331596 0 2434.51634718 0 206.53761100 0 526.85553908 0 34069
0.17850000 0.17849800 7834.00197894 0 125.68749518 0 2434.51634718 0 58.52609453 0 440.04519080 0 34536
