### header ###
fiducial parameters:
Omega_m = 0.31
Omega_nu = 0
Omega_de = 0.69
Omega_k = 0
H_0 = 100
w_de = -1
zeff = 0
beta = 0
fgrowth = 0
b_1 = 2
gamma = 0.55
Lx = 3500 Ly = 3500 Lz = 3500
nx = 700 ny = 700 nz = 700
xoffset = -685.467585 yoffset = -31.7331281 zoffset = 572.489161
bins = 400 dk = 0.001
kx_ny = 0.628318531 ky_ny = 0.628318531 kz_ny = 0.628318531
############################
A(data) = 8.03194479 (not used)
A(ran) = 8.02392162 (used)
Ngal = 476863
weighted Ngal = 0
Nran = 23820508
weighted Nran = 0
SN(data) = 3495.60922
SN(ran) = 69.8912673
SN(data+ran) = 3565.50049
############################
13 columns: k_central k_mean P_0(k) sigma^{lin}_{P_0(k)} P^img_1(k) sigma^{lin}_{P_1(k)} P_2(k) sigma^{lin}_{P_2(k)} P^img_3(k) sigma^{lin}_{P_3(k)} P_4(k) sigma^{lin}_{P_4(k)} N_modes
### header ###
0.00050000 0 0 0 0 0 0 0 0 0 0 0 0
0.00150000 0.00179520 7126.75723115 0 -3002.26087458 0 15510.99839195 0 -20115.31394453 0 -15499.92606713 0 3
0.00250000 0.00253879 15131.66054366 0 -4183.99903015 0 12413.73697043 0 -23168.50751327 0 -9901.22716723 0 6
0.00350000 0.00331552 16064.17173988 0 715.78593916 0 1377.07611002 0 19300.28011463 0 16076.79419018 0 7
0.00450000 0.00420575 19537.78148199 0 -1038.07806274 0 6642.28765871 0 3360.77167988 0 9677.79872471 0 24
0.00550000 0.00557378 31747.89839900 0 -10092.76731427 0 12675.59745239 0 7238.91988156 0 -11093.03006606 0 45
0.00650000 0.00659388 45147.18300153 0 -18037.70291556 0 6818.01652590 0 12429.34894842 0 17484.19739788 0 40
0.00750000 0.00754703 52978.19545277 0 -11438.37587715 0 -5740.53538083 0 19313.67762766 0 932.03619349 0 57
0.00850000 0.00846663 63656.45623112 0 -10496.79644690 0 -12292.93790665 0 7335.60342188 0 4746.28490141 0 75
0.00950000 0.00948925 62872.09274097 0 -3397.63144920 0 -15289.10900258 0 -2133.59270325 0 -23921.42560094 0 112
0.01050000 0.01054430 75241.87258186 0 -2645.63236449 0 -13566.80887704 0 -8141.75724727 0 17611.30768679 0 105
0.01150000 0.01145670 68517.31754975 0 2561.27232170 0 -25705.73074547 0 113.95968873 0 9820.95281229 0 144
0.01250000 0.01249090 67100.05997297 0 113.58987308 0 -13338.94043227 0 -2167.89476554 0 8199.72086770 0 169
0.01350000 0.01339930 76406.79187603 0 -8065.09247023 0 7133.93209763 0 -15.03134528 0 12162.83809003 0 180
0.01450000 0.01448870 73175.11243121 0 4213.05281047 0 21.48795005 0 -91.75834879 0 10516.84842714 0 267
0.01550000 0.01550050 69090.19963587 0 10089.70028029 0 20159.93541355 0 -5740.87862290 0 22977.62063340 0 238
0.01650000 0.01653350 66061.91879797 0 2532.81644691 0 25833.17320413 0 4351.85547440 0 25197.28958979 0 315
0.01750000 0.01747870 65350.41120513 0 -1850.62837019 0 24841.31434687 0 10206.19220971 0 39612.01710144 0 297
0.01850000 0.01844180 77026.84206588 0 -14316.29454401 0 12330.14091804 0 17266.18332220 0 13625.16002883 0 388
0.01950000 0.01947590 81823.04100757 0 -12393.14244626 0 10472.59234484 0 8161.53241940 0 874.17997462 0 399
0.02050000 0.02045430 91512.43245637 0 2984.83303531 0 4044.33272488 0 -7852.96887135 0 -7953.20662793 0 462
0.02150000 0.02154770 86438.31816173 0 11286.57430389 0 407.07734365 0 -18451.91858703 0 -2543.01405807 0 571
0.02250000 0.02255340 74783.36761112 0 9807.48886531 0 1332.64287052 0 -10479.80042830 0 -17412.44873305 0 510
0.02350000 0.02348930 69771.70122846 0 4087.79159980 0 6612.38130937 0 11693.92513397 0 -9146.41571202 0 555
0.02450000 0.02439640 67334.23964288 0 -2132.61833867 0 7458.71660153 0 10253.19422856 0 -18611.69223416 0 592
0.02550000 0.02547300 69547.26520438 0 -1193.60768777 0 5597.74667996 0 6798.94998256 0 -21205.49504618 0 837
0.02650000 0.02652900 68662.25428163 0 1008.84933969 0 10235.01347121 0 -6205.65052948 0 -4838.89382619 0 723
0.02750000 0.02749970 66124.36670995 0 7035.68735951 0 11230.21617056 0 -2114.03897762 0 1887.32205464 0 826
0.02850000 0.02848090 66122.37369148 0 2429.25699289 0 9241.03979992 0 -3895.74212582 0 10121.86538389 0 831
0.02950000 0.02946900 62034.13919869 0 1118.63697643 0 11036.90445155 0 81.43982785 0 -1784.15013198 0 996
0.03050000 0.03053250 64683.30363480 0 2259.85042316 0 17573.55105916 0 -2156.93316397 0 -1676.75965356 0 1041
0.03150000 0.03150510 55555.72194730 0 3338.66024722 0 11769.43838923 0 4298.25434995 0 -6106.32070353 0 1036
0.03250000 0.03246190 56217.95769471 0 751.99576301 0 13991.54325708 0 9935.18598745 0 -3320.42412824 0 1059
0.03350000 0.03345080 54346.84552360 0 -1335.42202405 0 4421.02428754 0 3003.42346868 0 -4440.96554454 0 1302
0.03450000 0.03451200 57157.00156258 0 1346.35040865 0 8791.66949715 0 -2336.00587326 0 -9452.75372277 0 1339
0.03550000 0.03553350 54429.55579000 0 2047.90398148 0 7856.63381087 0 -10454.14585170 0 -3126.50343137 0 1365
0.03650000 0.03647120 54060.40448054 0 2752.79032409 0 11921.46140899 0 -3937.88339408 0 -7469.57855218 0 1308
0.03750000 0.03744890 51458.18670167 0 1893.77722001 0 14172.24359812 0 -5715.58943301 0 -9166.29053507 0 1579
0.03850000 0.03847530 50571.84709993 0 1345.13245292 0 15655.38150758 0 1936.16207941 0 -11182.38372734 0 1662
0.03950000 0.03950240 48102.82938862 0 2383.66115928 0 14991.92780445 0 4391.56083120 0 -9032.61435753 0 1683
0.04050000 0.04050350 47888.57990338 0 1272.39835118 0 14719.99150690 0 7787.90789072 0 -9161.66230329 0 1822
0.04150000 0.04152450 44815.89904296 0 -276.33533220 0 9863.08300823 0 6585.63057261 0 -5807.06898066 0 1887
0.04250000 0.04250150 46221.86284843 0 1564.39770130 0 12091.42159495 0 768.67622035 0 -4921.48229702 0 1920
0.04350000 0.04349210 43048.86672515 0 2503.02082083 0 12345.08855655 0 -286.77542727 0 -2310.67239408 0 2005
0.04450000 0.04448520 41897.89856025 0 2251.95585557 0 14393.57937125 0 -4123.15660527 0 6722.79453246 0 2151
0.04550000 0.04548030 41073.01036126 0 1035.28783689 0 18016.77622165 0 -2320.58212479 0 2028.07344773 0 2274
0.04650000 0.04648670 42407.66839490 0 -2401.25508342 0 17549.41339106 0 -488.43457196 0 -137.32561580 0 2311
0.04750000 0.04749250 43490.76320866 0 -1044.04383136 0 19491.60988750 0 301.29345957 0 -2684.78410505 0 2568
0.04850000 0.04851840 44370.57013875 0 117.65784522 0 15071.75926639 0 295.78165628 0 -5537.83433037 0 2493
0.04950000 0.04949480 43914.16890973 0 -111.98881491 0 17486.63330934 0 -134.31837237 0 -7247.16876355 0 2644
0.05050000 0.05050630 43115.41139731 0 2932.72667471 0 14427.23923870 0 -1758.82772512 0 -7457.83081555 0 2829
0.05150000 0.05149060 40745.26954663 0 3407.51903526 0 14995.36022514 0 3390.68910154 0 -5915.84349968 0 2784
0.05250000 0.05249300 38213.91464659 0 1492.35008371 0 13579.76349708 0 4124.11989753 0 -3646.06120116 0 3055
0.05350000 0.05348950 38032.21779632 0 366.32786662 0 13462.61830050 0 3364.22624522 0 -4165.29787353 0 3009
0.05450000 0.05448610 36288.99097687 0 2107.10770229 0 11612.87571629 0 1755.49495535 0 -5209.42917625 0 3336
0.05550000 0.05550870 34857.22865457 0 1848.76821962 0 12797.17157890 0 -2372.06843520 0 -1787.99222869 0 3349
0.05650000 0.05647670 34062.01428610 0 934.36913233 0 13085.71636367 0 -1695.16185741 0 -1742.85036040 0 3324
0.05750000 0.05747970 32909.16382598 0 -294.48065811 0 11614.09367202 0 1905.86819871 0 -1412.00929482 0 3639
0.05850000 0.05849280 33827.39172319 0 -1436.21339688 0 11455.75942712 0 3267.62021118 0 -2834.75874472 0 3846
0.05950000 0.05951020 35133.81532854 0 -1574.07491319 0 10061.58764758 0 3168.09108338 0 -2593.88031829 0 3787
0.06050000 0.06049470 34820.68998267 0 534.86968778 0 8478.44450036 0 3286.15528293 0 -926.82887913 0 3930
0.06150000 0.06148310 33944.86908952 0 2194.55692371 0 9521.03674993 0 332.03355496 0 -4.32852609 0 4083
0.06250000 0.06249100 32036.00029078 0 1941.62073555 0 9755.46001099 0 -2251.01470796 0 1242.75773764 0 4303
0.06350000 0.06350600 31175.45920588 0 1676.53820706 0 12432.11702962 0 -1268.14657845 0 2573.36330040 0 4470
0.06450000 0.06451750 30241.28716093 0 666.75436316 0 11833.32570343 0 -1203.70564801 0 2625.75754144 0 4479
0.06550000 0.06550280 30992.10150688 0 -1711.73712766 0 13259.10897033 0 1278.08952614 0 1740.33694267 0 4636
0.06650000 0.06648880 32712.18716746 0 -2497.73932189 0 13323.54990077 0 1025.15887415 0 -264.92419424 0 4653
0.06750000 0.06749660 33554.34819316 0 -147.68931183 0 12379.52348674 0 2259.30787924 0 -802.62839717 0 5220
0.06850000 0.06852730 33186.52556269 0 1750.33525198 0 11795.56907580 0 217.75609051 0 -312.25506114 0 5029
0.06950000 0.06949320 31777.57222951 0 1961.29625675 0 11248.26406001 0 1620.47902651 0 1199.22135646 0 5040
0.07050000 0.07048030 30981.91496805 0 1377.82902811 0 12038.49588232 0 -1512.12525583 0 1441.26237699 0 5475
0.07150000 0.07148790 29696.19661011 0 894.08912187 0 11296.42867298 0 228.42095378 0 1989.03243042 0 5509
0.07250000 0.07249820 28998.41870003 0 -272.14667172 0 11218.14733651 0 848.56968731 0 2092.29293168 0 5916
0.07350000 0.07351270 29389.60393588 0 -117.12858809 0 11236.74884220 0 1904.58380903 0 688.69196032 0 5721
0.07450000 0.07449140 29610.82898575 0 -218.91314845 0 11053.93368712 0 1019.97702613 0 -191.04299965 0 6028
0.07550000 0.07549160 28880.38771747 0 1174.13146842 0 9442.10214630 0 -349.46582316 0 -1054.60572200 0 6183
0.07650000 0.07648840 28060.70351114 0 1594.04938717 0 10053.91452648 0 -1813.03782743 0 380.22917043 0 6330
0.07750000 0.07749960 26527.40797026 0 1654.83645042 0 10336.56883445 0 -877.46956232 0 -520.34390485 0 6583
0.07850000 0.07848650 25577.62394731 0 732.64023200 0 10943.07757104 0 54.42900217 0 -426.89348338 0 6549
0.07950000 0.07947320 24918.93134385 0 -14.58468770 0 11452.76989942 0 133.61749421 0 -2828.34786865 0 6828
0.08050000 0.08048110 25280.44274918 0 605.37050160 0 12070.82707079 0 -249.41408163 0 -3291.74680696 0 7147
0.08150000 0.08149960 24485.56055045 0 438.55264142 0 11217.26155052 0 278.38039059 0 -2068.81960306 0 7386
0.08250000 0.08250610 24456.88322917 0 187.63383084 0 11335.62470283 0 1283.41531438 0 -1338.41155175 0 7227
0.08350000 0.08350160 24220.15692455 0 45.03424529 0 11202.42463527 0 1361.55271062 0 -1521.53673193 0 7798
0.08450000 0.08449610 24506.70869085 0 715.77929576 0 11457.75244558 0 1046.21622149 0 -1814.80939940 0 7371
0.08550000 0.08548940 22921.15177682 0 1206.52909084 0 9179.17872115 0 595.93577362 0 -854.26196950 0 8256
0.08650000 0.08650700 22421.01486477 0 766.73524181 0 10201.60826723 0 811.60140921 0 531.11506244 0 8037
0.08750000 0.08749060 21777.71279280 0 64.26532337 0 9064.35871278 0 620.15759139 0 -179.08599608 0 8155
0.08850000 0.08849210 21693.45240093 0 325.55845941 0 8799.95159612 0 1735.64227695 0 -1307.06580019 0 8718
0.08950000 0.08949900 21271.59682534 0 2.36059751 0 8086.42884015 0 970.04416290 0 -414.01858408 0 8571
0.09050000 0.09049190 21404.02183017 0 -94.27741341 0 7567.46897590 0 1023.34633457 0 -429.92730038 0 8932
0.09150000 0.09150830 21261.29956326 0 164.22472171 0 7433.41633932 0 212.87983866 0 -233.89843286 0 9285
0.09250000 0.09250820 20592.53114421 0 679.62372630 0 7142.45778774 0 216.84483818 0 502.18750661 0 9204
0.09350000 0.09350330 20132.80821774 0 884.14838865 0 7189.34908335 0 437.28596746 0 1266.86218878 0 9349
0.09450000 0.09448040 19476.44080250 0 387.15048068 0 7544.02886426 0 639.26953126 0 1226.13817809 0 9564
0.09550000 0.09549270 19292.86165700 0 495.97371793 0 6874.74004595 0 763.33493086 0 417.02582750 0 10155
0.09650000 0.09649430 18739.79903231 0 815.53762068 0 7137.12092718 0 -172.49907005 0 -277.58096874 0 9913
0.09750000 0.09749140 17905.83152697 0 860.30967332 0 7141.59414640 0 -1361.35340878 0 72.86553023 0 10476
0.09850000 0.09850240 17646.07478672 0 336.20449972 0 7164.42528018 0 -514.32388185 0 702.73388266 0 10575
0.09950000 0.09950330 17442.67617981 0 -202.44527975 0 7797.64046423 0 430.78429832 0 -548.23841277 0 10882
0.10050000 0.10051200 17848.91977740 0 -441.78576026 0 7339.91055623 0 701.60450553 0 -576.01001788 0 10875
0.10150000 0.10150300 17843.71578474 0 428.17676583 0 7539.98746570 0 996.48819626 0 -263.42167976 0 11118
0.10250000 0.10250800 17483.53305839 0 465.35209641 0 6546.91065272 0 65.30922216 0 -641.98225084 0 11575
0.10350000 0.10349800 17220.67606719 0 409.32945452 0 7367.30348783 0 377.79436621 0 589.88253364 0 11364
0.10450000 0.10450100 16687.43290393 0 275.32000001 0 6455.53075599 0 318.85084504 0 475.85973266 0 12093
0.10550000 0.10551000 16518.57995044 0 95.81026606 0 6338.47413801 0 1313.15557884 0 1615.13109362 0 12067
0.10650000 0.10649700 16542.27472555 0 -23.47355006 0 5671.87589463 0 1296.43636837 0 1197.35013356 0 12054
0.10750000 0.10749900 16409.18538123 0 53.30870435 0 4975.86955653 0 1344.15808833 0 1608.04480574 0 12807
0.10850000 0.10850100 16329.57536579 0 194.01813333 0 4896.41455363 0 735.01524567 0 867.17672917 0 12736
0.10950000 0.10950300 15689.59499127 0 231.73600783 0 4236.17182469 0 113.36953382 0 1521.25992381 0 12933
0.11050000 0.11050200 15736.87381825 0 559.13358039 0 4110.25734685 0 -627.46421854 0 1205.03432699 0 13428
0.11150000 0.11150900 15081.06001924 0 301.11519514 0 3737.60718276 0 -413.74177596 0 1072.13321219 0 13453
0.11250000 0.11250000 15102.87249913 0 77.63415908 0 4090.37145148 0 -9.34957073 0 271.16012758 0 13668
0.11350000 0.11349100 14984.28790032 0 80.40113305 0 3813.29759522 0 40.93338835 0 -453.65861417 0 13791
0.11450000 0.11448600 14765.05586891 0 357.08911880 0 3392.89249418 0 476.82081046 0 -1170.42223960 0 14205
0.11550000 0.11549300 14504.63478918 0 257.28982628 0 3267.33233073 0 -332.66357025 0 -1341.92147872 0 14776
0.11650000 0.11649800 14190.40221083 0 226.18434416 0 3295.04635976 0 112.00320894 0 -1264.76951938 0 14553
0.11750000 0.11747300 14358.36937832 0 191.04410689 0 3583.80151870 0 -210.32877502 0 -1424.02276725 0 14568
0.11850000 0.11849100 14046.46198818 0 57.86662686 0 3514.21195722 0 -28.15515044 0 -896.60918300 0 16015
0.11950000 0.11950300 14016.34526468 0 209.62568240 0 3686.58590999 0 -345.40338718 0 -619.91842918 0 15270
0.12050000 0.12050700 14093.74081516 0 231.73047166 0 4219.29760167 0 246.06027444 0 -162.56830192 0 15999
0.12150000 0.12150000 13939.72477693 0 197.11063365 0 4869.58631059 0 -197.72182598 0 784.34134550 0 15670
0.12250000 0.12250700 13675.20693701 0 403.71467861 0 4305.73924153 0 951.58991912 0 610.16481825 0 16887
0.12350000 0.12352200 13319.67458709 0 259.97265058 0 4474.21573597 0 285.69476837 0 992.66049357 0 16407
0.12450000 0.12449800 13235.63564171 0 -117.63348611 0 4134.12927916 0 652.92502946 0 759.08315813 0 16306
0.12550000 0.12549900 13400.83472801 0 -116.38452787 0 4463.35378532 0 374.87127245 0 892.62646776 0 17523
0.12650000 0.12650100 13217.91992200 0 154.07361432 0 3619.98587621 0 286.81750210 0 517.80723524 0 17154
0.12750000 0.12750600 13218.58426149 0 233.18648238 0 4207.05161042 0 -252.94393878 0 499.71727095 0 18007
0.12850000 0.12850300 12955.17365406 0 143.29470611 0 3724.77435829 0 -236.39302765 0 294.35221914 0 17496
0.12950000 0.12949900 13264.20223975 0 27.63718709 0 4210.60582668 0 -126.83790973 0 114.44244209 0 18405
0.13050000 0.13049000 12780.00947543 0 139.33192105 0 4018.52313573 0 161.41567290 0 501.41244388 0 18100
0.13150000 0.13148800 13119.59767761 0 0.78367922 0 3994.61798645 0 -83.83388592 0 -225.84663826 0 19059
0.13250000 0.13249300 12708.59298035 0 140.30960733 0 3797.26486888 0 304.03164550 0 461.53657328 0 18957
0.13350000 0.13349100 12791.19252349 0 204.47483689 0 3839.17361832 0 325.03030952 0 -50.85507717 0 19468
0.13450000 0.13450700 12550.70162843 0 283.55448798 0 3385.59583212 0 129.17306303 0 -132.21684512 0 19953
0.13550000 0.13551000 12245.32690993 0 198.90767197 0 3398.59474146 0 335.75164164 0 -394.68851942 0 19956
0.13650000 0.13649900 12179.00368427 0 208.60924298 0 3273.56604961 0 65.92163244 0 -381.59770978 0 19723
0.13750000 0.13749600 11983.79859772 0 47.62904461 0 3308.12277537 0 -256.34092804 0 -321.37422786 0 20946
0.13850000 0.13851100 12016.24050944 0 249.15498923 0 3427.02847159 0 -42.58604355 0 -567.54079662 0 20955
0.13950000 0.13949800 11844.06585851 0 263.40507127 0 3425.46727379 0 -188.01471882 0 -898.55126878 0 20506
0.14050000 0.14048300 11481.55794394 0 114.66278136 0 3664.48554965 0 69.33655886 0 -605.60634212 0 21447
0.14150000 0.14148400 11357.10501298 0 402.70377535 0 3821.14787351 0 -96.26866031 0 -181.41782769 0 21771
0.14250000 0.14249400 11053.82296387 0 322.51689178 0 4011.55864342 0 100.06569266 0 -230.24235121 0 22470
0.14350000 0.14350900 10903.26149099 0 178.77375652 0 3886.72925341 0 216.65660866 0 161.36363298 0 22519
0.14450000 0.14449900 10823.09785930 0 68.66513309 0 3683.83997344 0 477.13747894 0 37.56385846 0 22218
0.14550000 0.14550500 10633.92718978 0 4.55028261 0 3683.87319041 0 266.41120746 0 218.45696867 0 23559
0.14650000 0.14650700 10585.66292589 0 367.57350317 0 3488.18092157 0 257.41715801 0 150.28798646 0 23044
0.14750000 0.14750500 10442.76350178 0 206.64944149 0 3510.19270331 0 26.20808212 0 -54.37906599 0 23649
0.14850000 0.14849900 10239.24309929 0 31.33368273 0 3085.54690186 0 189.39654495 0 595.00902003 0 23640
0.14950000 0.14949500 10175.79867808 0 134.92513578 0 3323.96727218 0 268.31343287 0 175.43102166 0 24457
0.15050000 0.15050000 10087.98406994 0 159.11152211 0 3201.56272131 0 228.53389149 0 900.73251676 0 24591
0.15150000 0.15149900 10025.99012328 0 -64.91183642 0 2959.30025428 0 327.09861979 0 476.15757820 0 25020
0.15250000 0.15250500 10213.21206364 0 -55.70065868 0 2950.95172137 0 195.39442331 0 861.17552912 0 25297
0.15350000 0.15350100 10139.73611615 0 65.76296603 0 2942.27101871 0 72.96042005 0 390.62165451 0 25452
0.15450000 0.15450400 10000.93345222 0 181.80535906 0 2719.57334963 0 57.72235447 0 746.69322665 0 26061
0.15550000 0.15549900 9822.81296286 0 192.58094557 0 2852.60733233 0 -130.29690400 0 406.22809634 0 26128
0.15650000 0.15649500 9686.94446501 0 279.63488499 0 2710.02900564 0 198.66740252 0 534.24077973 0 26331
0.15750000 0.15749700 9540.14758257 0 107.31241853 0 2627.17479902 0 321.76950986 0 439.04535987 0 27345
0.15850000 0.15849900 9355.28404739 0 113.05840149 0 2420.49878395 0 219.95062529 0 269.85580771 0 26980
0.15950000 0.15949700 9400.87988100 0 167.01384033 0 2592.28590352 0 -181.63927418 0 -30.80165752 0 27777
0.16050000 0.16050000 9238.16099546 0 127.36052346 0 2497.49573074 0 -65.19074828 0 450.19186927 0 28224
0.16150000 0.16150500 9083.59134099 0 79.33985072 0 2479.13781619 0 75.13602116 0 592.62847020 0 28075
0.16250000 0.16249700 9149.28344414 0 -86.25828216 0 2426.79893678 0 101.85985217 0 264.33514656 0 28590
0.16350000 0.16349900 9149.84813271 0 92.03017436 0 2597.89957220 0 351.03587882 0 -117.11862300 0 29163
0.16450000 0.16449100 9017.98781644 0 194.58392913 0 2354.81775313 0 84.75698564 0 63.14325398 0 28996
0.16550000 0.16550500 8888.84021976 0 195.87939113 0 2169.03521500 0 223.49598370 0 423.71572616 0 30777
0.16650000 0.16650700 8673.78245481 0 99.53876072 0 2153.92149162 0 92.68919914 0 287.44198122 0 29211
0.16750000 0.16749900 8598.24705489 0 93.64119763 0 1819.37119723 0 375.87996125 0 351.66257240 0 30922
0.16850000 0.16850800 8625.58462487 0 59.20781757 0 1872.38548846 0 -80.73917113 0 166.92858343 0 30867
0.16950000 0.16949900 8553.79167075 0 69.16549144 0 1960.93087003 0 -231.77586820 0 -89.82423509 0 30852
0.17050000 0.17049200 8462.02424265 0 231.74929462 0 2242.55545179 0 -431.40656298 0 285.41020962 0 31257
0.17150000 0.17149500 8298.65208995 0 280.62917976 0 2307.35069663 0 -264.13584471 0 95.78657128 0 32608
0.17250000 0.17250900 8133.49729296 0 137.17724664 0 2596.79233972 0 -22.60614414 0 92.25903932 0 32361
0.17350000 0.17350400 8132.85509812 0 62.69903230 0 2561.23910472 0 180.63722879 0 210.58122403 0 32508
0.17450000 0.17449800 8024.74491859 0 -12.38594544 0 2411.57449015 0 516.21724939 0 154.67373432 0 32791
0.17550000 0.17549800 7972.41711149 0 109.38859015 0 2379.49796515 0 402.41368044 0 524.93227626 0 33633
0.17650000 0.17650100 7907.84331315 0 137.64449875 0 2033.58746549 0 294.20384999 0 264.88876280 0 33984
0.17750000 0.17750300 7688.88808986 0 4.23941602 0 1824.42017734 0 186.31511696 0 477.86714515 0 34069
