### header ###
fiducial parameters:
Omega_m = 0.31
Omega_nu = 0
Omega_de = 0.69
Omega_k = 0
H_0 = 100
w_de = -1
zeff = 0
beta = 0
fgrowth = 0
b_1 = 2
gamma = 0.55
Lx = 3500 Ly = 3500 Lz = 3500
nx = 700 ny = 700 nz = 700
xoffset = -685.467585 yoffset = -31.7331281 zoffset = 572.489161
bins = 400 dk = 0.001
kx_ny = 0.628318531 ky_ny = 0.628318531 kz_ny = 0.628318531
############################
A(data) = 8.03676482 (not used)
A(ran) = 8.02860184 (used)
Ngal = 476710
weighted Ngal = 0
Nran = 23820508
weighted Nran = 0
SN(data) = 3494.60055
SN(ran) = 69.9320338
SN(data+ran) = 3564.53258
############################
13 columns: k_central k_mean P_0(k) sigma^{lin}_{P_0(k)} P^img_1(k) sigma^{lin}_{P_1(k)} P_2(k) sigma^{lin}_{P_2(k)} P^img_3(k) sigma^{lin}_{P_3(k)} P_4(k) sigma^{lin}_{P_4(k)} N_modes
### header ###
0.00050000 0 0 0 0 0 0 0 0 0 0 0 0
0.00150000 0.00179520 29993.15636174 0 -48539.18970973 0 -34996.07560780 0 -46336.79358005 0 96693.61613200 0 3
0.00250000 0.00253879 57818.68369374 0 -53493.61217308 0 -32754.37272502 0 24344.83130201 0 8839.41336177 0 6
0.00350000 0.00331552 83928.88646483 0 -44459.25946055 0 -10405.00687415 0 -94602.49686676 0 22490.10617163 0 7
0.00450000 0.00420575 107844.33301037 0 -16182.97778519 0 -13111.73632699 0 -55915.01888767 0 19246.80078576 0 24
0.00550000 0.00557378 87582.20003874 0 23649.37858015 0 -4141.63631539 0 -34138.30260410 0 35084.98637609 0 45
0.00650000 0.00659388 70295.64363888 0 33998.01624865 0 33810.34034297 0 -7578.68524094 0 21587.26880592 0 40
0.00750000 0.00754703 55046.39500564 0 11035.73078512 0 28629.82100682 0 3794.92860834 0 41350.81499096 0 57
0.00850000 0.00846663 52539.39922021 0 3759.27572243 0 63952.41947352 0 5262.98601140 0 12529.33204153 0 75
0.00950000 0.00948925 59679.60932601 0 -9391.13623516 0 73059.62808336 0 13288.33990785 0 33836.69247604 0 112
0.01050000 0.01054430 71613.25029230 0 -1518.00466031 0 66633.14003537 0 29525.12919166 0 41196.46678299 0 105
0.01150000 0.01145670 73483.69812391 0 4464.01812481 0 68389.98581434 0 23534.66929503 0 33114.33400487 0 144
0.01250000 0.01249090 68852.36609877 0 7602.56824558 0 56037.36807691 0 23583.60897072 0 23592.57755383 0 169
0.01350000 0.01339930 73627.41690006 0 2589.49567766 0 47339.61403887 0 22041.67701648 0 13121.70141933 0 180
0.01450000 0.01448870 65614.81832179 0 1113.69871956 0 36272.71465939 0 6236.40944783 0 207.28167123 0 267
0.01550000 0.01550050 67212.44406988 0 -2515.89793459 0 36557.05196073 0 15673.65084353 0 7276.44399037 0 238
0.01650000 0.01653350 75361.45368990 0 -8955.99386978 0 27027.87705206 0 -308.56022635 0 3859.81243178 0 315
0.01750000 0.01747870 73940.21007618 0 -4383.65519128 0 32971.72246121 0 3377.94485567 0 -3263.20235358 0 297
0.01850000 0.01844180 87841.07099300 0 -8088.68759442 0 41639.80266873 0 13867.09032612 0 6271.70801935 0 388
0.01950000 0.01947590 88132.38385898 0 8647.49675569 0 47136.32615520 0 4672.04496350 0 24055.73290099 0 399
0.02050000 0.02045430 82882.10887647 0 8948.49790588 0 51258.10979219 0 16488.13105719 0 33118.76293480 0 462
0.02150000 0.02154770 73471.74001311 0 4549.89507610 0 49996.52910236 0 14160.83910356 0 42947.11206007 0 571
0.02250000 0.02255340 76478.87271060 0 5199.56373484 0 52255.61553510 0 19832.74821516 0 50776.24221609 0 510
0.02350000 0.02348930 75471.06970561 0 -5452.35598277 0 47915.26420620 0 8975.51437844 0 28542.01747101 0 555
0.02450000 0.02439640 75975.41410110 0 3449.99247327 0 43080.42285089 0 9508.71325241 0 32133.21530269 0 592
0.02550000 0.02547300 73214.41918432 0 5686.79031616 0 32528.38657547 0 -5348.02146600 0 24166.34542593 0 837
0.02650000 0.02652900 69623.11062939 0 2119.81873118 0 32638.77765391 0 -2521.33444608 0 24354.35350135 0 723
0.02750000 0.02749970 65838.47928313 0 4243.22489560 0 30163.22727096 0 5651.89034833 0 10622.44518894 0 826
0.02850000 0.02848090 61667.09163095 0 228.14968182 0 25618.81299564 0 11205.08199322 0 3328.97196300 0 831
0.02950000 0.02946900 64127.80509865 0 -4.95527503 0 26541.02692978 0 9626.40099290 0 -1788.76729143 0 996
0.03050000 0.03053250 64384.46158795 0 -2963.38594214 0 20963.67547214 0 2739.70283615 0 2408.13099713 0 1041
0.03150000 0.03150510 65232.49094581 0 1326.70810442 0 14836.80453374 0 7608.28156518 0 4421.11286614 0 1036
0.03250000 0.03246190 63057.55418168 0 1369.95660516 0 12744.57803601 0 -739.49732276 0 9385.73294065 0 1059
0.03350000 0.03345080 63298.15579999 0 5213.60344271 0 18013.45452421 0 3257.35616607 0 12039.93528455 0 1302
0.03450000 0.03451200 57215.46343762 0 4530.03132538 0 18728.17309125 0 5581.18248204 0 6745.51494299 0 1339
0.03550000 0.03553350 52157.40401396 0 5605.04334202 0 17445.22281451 0 4576.03683500 0 16350.50205970 0 1365
0.03650000 0.03647120 48321.61852704 0 4441.48594380 0 17570.78297796 0 5694.80667932 0 12592.44429300 0 1308
0.03750000 0.03744890 45156.48375438 0 1448.38188185 0 19240.82173035 0 6930.75493721 0 25033.41918248 0 1579
0.03850000 0.03847530 45429.74873091 0 226.46447398 0 19790.34121110 0 3411.83724194 0 23039.18275939 0 1662
0.03950000 0.03950240 45557.85552906 0 -1217.61248798 0 19353.98089000 0 5170.58746079 0 24936.31489382 0 1683
0.04050000 0.04050350 47407.04449702 0 -914.86412493 0 20213.30401918 0 -1311.56116407 0 25051.68851843 0 1822
0.04150000 0.04152450 48448.17519972 0 713.80399301 0 18195.15137448 0 -1650.49609909 0 22158.04715032 0 1887
0.04250000 0.04250150 47196.89177196 0 625.38483594 0 20204.55688257 0 -1301.36355291 0 22245.07562340 0 1920
0.04350000 0.04349210 46610.50144957 0 989.59788853 0 17076.29295156 0 59.58770903 0 11967.96517323 0 2005
0.04450000 0.04448520 45286.91574075 0 1389.42175219 0 19423.29364337 0 775.91641355 0 7461.11929602 0 2151
0.04550000 0.04548030 44260.40050681 0 1732.40915810 0 13942.04996514 0 1400.44978771 0 137.63231919 0 2274
0.04650000 0.04648670 40617.82708797 0 1924.14860698 0 13500.15348163 0 2078.34180241 0 -2658.18838084 0 2311
0.04750000 0.04749250 39807.77580424 0 2537.90971633 0 13510.22929722 0 -175.38673236 0 -2255.89760320 0 2568
0.04850000 0.04851840 37717.09943198 0 2113.02032374 0 12696.85631604 0 2415.07334479 0 -973.46218957 0 2493
0.04950000 0.04949480 35711.79068408 0 1188.93516670 0 11112.29591124 0 3371.10215893 0 1755.32887047 0 2644
0.05050000 0.05050630 35304.21840750 0 -212.53770382 0 10435.41147810 0 2600.00331391 0 1880.12504351 0 2829
0.05150000 0.05149060 35684.77421152 0 1019.47212812 0 9657.96819096 0 3285.45772646 0 -769.90967733 0 2784
0.05250000 0.05249300 34293.86876780 0 -120.83560244 0 8365.20783444 0 366.12192138 0 4603.42976660 0 3055
0.05350000 0.05348950 35843.66207267 0 -447.30642142 0 9939.75885760 0 -1231.49718330 0 1392.18983340 0 3009
0.05450000 0.05448610 34970.05564448 0 407.19028137 0 9821.21854809 0 -1260.66168688 0 -92.63959512 0 3336
0.05550000 0.05550870 35140.56944668 0 1670.42628377 0 10189.84945828 0 -2743.07989522 0 1096.92414746 0 3349
0.05650000 0.05647670 34569.45893254 0 -61.47764415 0 12395.91052747 0 -3558.49018417 0 1003.55123226 0 3324
0.05750000 0.05747970 34532.03447465 0 -37.26889172 0 15519.41335881 0 825.98878808 0 1057.28079568 0 3639
0.05850000 0.05849280 35174.00786763 0 -13.73422243 0 16123.85157066 0 -626.91946016 0 891.25571395 0 3846
0.05950000 0.05951020 36040.63873119 0 636.24014319 0 16701.05186345 0 240.02917912 0 -2186.71771773 0 3787
0.06050000 0.06049470 34568.01953031 0 1128.45812854 0 16802.80652854 0 708.64539688 0 -1623.77857930 0 3930
0.06150000 0.06148310 33790.74232804 0 1195.08030698 0 17390.63625316 0 1319.99827558 0 1325.72266751 0 4083
0.06250000 0.06249100 32987.33443920 0 539.10374479 0 15113.50193096 0 1746.91390361 0 -1919.38750731 0 4303
0.06350000 0.06350600 32151.37391539 0 934.95264385 0 15362.73996262 0 2892.11338728 0 -965.69716817 0 4470
0.06450000 0.06451750 32057.14843119 0 722.22671050 0 13271.06708113 0 2007.93288889 0 220.43891481 0 4479
0.06550000 0.06550280 30350.68173014 0 230.08180250 0 13105.75727159 0 1767.24269198 0 1747.82183425 0 4636
0.06650000 0.06648880 30503.47981263 0 613.42008174 0 11118.38568989 0 3125.26333099 0 2329.94931159 0 4653
0.06750000 0.06749660 30003.45362382 0 11.26896931 0 10078.48401525 0 2174.58244973 0 3669.30201095 0 5220
0.06850000 0.06852730 29978.20872324 0 -409.97718552 0 8822.17375203 0 2537.06821965 0 2152.22742592 0 5029
0.06950000 0.06949320 29736.72131894 0 -577.94103133 0 8313.73259635 0 1199.13277786 0 3028.40263347 0 5040
0.07050000 0.07048030 30714.40760043 0 -345.86288866 0 7699.12999032 0 -744.94712103 0 1.63528272 0 5475
0.07150000 0.07148790 29825.85353373 0 667.23268759 0 8176.94509554 0 -914.94938183 0 1309.82280907 0 5509
0.07250000 0.07249820 29483.60797359 0 1693.65602123 0 7782.65960875 0 -1382.78942963 0 -378.36569817 0 5916
0.07350000 0.07351270 28356.33458380 0 1580.92868226 0 8000.26400841 0 -236.37088300 0 438.11860628 0 5721
0.07450000 0.07449140 27246.11257424 0 1288.70788564 0 8109.08281673 0 -25.98619273 0 370.78004843 0 6028
0.07550000 0.07549160 26407.16252273 0 520.72922176 0 8616.83748826 0 330.07818240 0 -1002.41189004 0 6183
0.07650000 0.07648840 25770.94673865 0 153.09260634 0 9004.76746061 0 292.22633278 0 -501.19099738 0 6330
0.07750000 0.07749960 25099.74240814 0 348.74612205 0 9129.02108973 0 1209.29717204 0 -579.03608425 0 6583
0.07850000 0.07848650 25898.83209030 0 7.33411973 0 8741.84403547 0 1276.98229366 0 -446.62436621 0 6549
0.07950000 0.07947320 25276.34598900 0 54.51735933 0 8770.39956117 0 1021.41532113 0 1098.20853714 0 6828
0.08050000 0.08048110 24931.77524064 0 659.71236458 0 8503.54546072 0 -293.05897160 0 -678.20868319 0 7147
0.08150000 0.08149960 24783.84898107 0 801.26650122 0 9632.76757967 0 242.32115035 0 1633.23434470 0 7386
0.08250000 0.08250610 24092.60374264 0 693.03120442 0 8682.25278329 0 726.82172530 0 1733.07349759 0 7227
0.08350000 0.08350160 23788.22553337 0 -87.22135297 0 8329.78746734 0 662.05969744 0 2102.43518121 0 7798
0.08450000 0.08449610 24059.82966117 0 -99.29583391 0 8458.40359243 0 1673.83655981 0 1684.08953259 0 7371
0.08550000 0.08548940 23704.29731125 0 385.72657971 0 6791.68653748 0 466.09394217 0 -214.16755004 0 8256
0.08650000 0.08650700 22222.26663427 0 1325.76695681 0 6548.22825937 0 -653.16972784 0 168.34473378 0 8037
0.08750000 0.08749060 21794.21055678 0 1453.26477710 0 6194.40104747 0 -745.22171469 0 -490.16185463 0 8155
0.08850000 0.08849210 20336.20682466 0 557.17931506 0 6447.75798397 0 274.16737100 0 -1167.76488165 0 8718
0.08950000 0.08949900 20309.19035211 0 -135.39460235 0 6182.17720087 0 72.74893865 0 -1286.22768488 0 8571
0.09050000 0.09049190 20389.79687679 0 -108.00399593 0 6119.39711915 0 530.02111674 0 -2443.23026681 0 8932
0.09150000 0.09150830 20384.92505387 0 -89.77584903 0 5795.32124403 0 -19.83562702 0 -688.83147162 0 9285
0.09250000 0.09250820 20312.84421930 0 626.51974924 0 6294.66094870 0 436.57401697 0 -641.68329807 0 9204
0.09350000 0.09350330 20172.00424760 0 582.10533269 0 6774.19226427 0 -204.25671209 0 -482.31379080 0 9349
0.09450000 0.09448040 19129.21269618 0 864.58248346 0 6895.42314871 0 815.00061293 0 660.52839492 0 9564
0.09550000 0.09549270 18878.75670878 0 834.77467782 0 7109.72799557 0 29.40266928 0 617.17359986 0 10155
0.09650000 0.09649430 18000.61062742 0 444.75425055 0 7590.87587057 0 211.03740381 0 1381.11750858 0 9913
0.09750000 0.09749140 18078.22762440 0 18.01046500 0 6831.64655775 0 225.30409434 0 485.58344832 0 10476
0.09850000 0.09850240 17852.90581434 0 -57.49813989 0 6415.61502502 0 216.75958128 0 621.92805613 0 10575
0.09950000 0.09950330 17977.02657555 0 311.94060712 0 6935.59354315 0 129.56834503 0 163.50059167 0 10882
0.10050000 0.10051200 17728.45288338 0 153.49342450 0 6382.18767639 0 -168.99578647 0 446.23794207 0 10875
0.10150000 0.10150300 17625.36953931 0 290.64852649 0 6627.74969622 0 654.46408261 0 295.10292276 0 11118
0.10250000 0.10250800 17506.12060102 0 129.91047986 0 6240.87159473 0 212.58863652 0 -186.15567548 0 11575
0.10350000 0.10349800 17394.95445984 0 -105.32947587 0 6112.58763938 0 1183.90833123 0 294.40758077 0 11364
0.10450000 0.10450100 17183.91594879 0 233.63601877 0 6312.68669350 0 120.81677949 0 -348.41505953 0 12093
0.10550000 0.10551000 17225.21572037 0 520.95288272 0 6330.67922133 0 213.48881653 0 776.27847857 0 12067
0.10650000 0.10649700 16637.38599575 0 424.25605561 0 5979.52043971 0 76.03166151 0 156.29582991 0 12054
0.10750000 0.10749900 16352.16290842 0 406.33549789 0 5698.88129486 0 233.07022297 0 1092.96246964 0 12807
0.10850000 0.10850100 16014.01410846 0 230.66199232 0 6005.97222370 0 619.53864844 0 320.40539944 0 12736
0.10950000 0.10950300 15708.75011321 0 266.72787595 0 5413.11566361 0 101.06109466 0 52.95981539 0 12933
0.11050000 0.11050200 15776.06984810 0 70.52982331 0 5329.28709241 0 139.74270430 0 61.11292177 0 13428
0.11150000 0.11150900 15182.26106808 0 190.48052555 0 4532.56688776 0 197.95323757 0 -1091.26397501 0 13453
0.11250000 0.11250000 15069.10190843 0 419.26132989 0 4618.00094606 0 -1.13762601 0 -926.72369204 0 13668
0.11350000 0.11349100 14875.00405436 0 341.16711571 0 4894.94193443 0 -116.21733576 0 -1162.80448013 0 13791
0.11450000 0.11448600 14516.03928374 0 132.26556335 0 4091.42332234 0 -167.44012484 0 -991.12144042 0 14205
0.11550000 0.11549300 14669.50170573 0 193.03158919 0 4849.24644990 0 125.91115614 0 -1493.13621877 0 14776
0.11650000 0.11649800 14343.75390956 0 136.24163520 0 4858.89044482 0 -111.61124864 0 -717.13344109 0 14553
0.11750000 0.11747300 14494.78042009 0 -122.39015685 0 4795.62318080 0 574.52854082 0 -466.16369782 0 14568
0.11850000 0.11849100 14695.30022256 0 -124.93900602 0 4855.36944552 0 680.85164712 0 67.69276152 0 16015
0.11950000 0.11950300 14867.14270374 0 -107.52987899 0 4927.80459449 0 641.32344752 0 -273.98357040 0 15270
0.12050000 0.12050700 14601.73907784 0 410.14991379 0 4718.78124656 0 170.27353276 0 715.47591406 0 15999
0.12150000 0.12150000 14352.27959967 0 660.35788111 0 5025.77252448 0 -215.15520141 0 832.05863654 0 15670
0.12250000 0.12250700 13795.45238454 0 527.98934514 0 5416.69202453 0 -311.40802829 0 419.00334472 0 16887
0.12350000 0.12352200 13546.87869237 0 251.86770881 0 5533.18395395 0 -478.81715062 0 424.67901842 0 16407
0.12450000 0.12449800 13313.47408519 0 59.97335810 0 5783.44063950 0 91.33427875 0 659.13106752 0 16306
0.12550000 0.12549900 13509.23278798 0 -61.64029660 0 5682.60497737 0 297.74477947 0 450.45871229 0 17523
0.12650000 0.12650100 13302.29103712 0 -61.33359321 0 5455.24585955 0 588.49517134 0 814.17240303 0 17154
0.12750000 0.12750600 13299.41223267 0 198.49245979 0 4929.89726388 0 479.75719100 0 277.95853501 0 18007
0.12850000 0.12850300 13330.41474216 0 411.38890694 0 4725.50214773 0 271.79014286 0 -48.89892954 0 17496
0.12950000 0.12949900 12815.66236134 0 382.13139584 0 4915.97935158 0 -361.63430813 0 597.58444279 0 18405
0.13050000 0.13049000 12630.09019738 0 186.39594493 0 5025.41821009 0 -236.03760602 0 169.43425054 0 18100
0.13150000 0.13148800 12523.35298613 0 63.43877433 0 5295.72687589 0 -520.71372050 0 -689.59767650 0 19059
0.13250000 0.13249300 12594.54803471 0 36.38631671 0 5312.62324356 0 -82.18720977 0 -592.80119847 0 18957
0.13350000 0.13349100 12481.38887507 0 131.90349833 0 5385.20233275 0 -47.60025657 0 -532.60871905 0 19468
0.13450000 0.13450700 12294.93092512 0 226.59402018 0 5076.92666514 0 692.15649076 0 -341.28669682 0 19953
0.13550000 0.13551000 12234.14386187 0 68.55130959 0 4693.51420132 0 1244.06427197 0 -515.71678031 0 19956
0.13650000 0.13649900 12058.09389725 0 67.03694772 0 4298.12148205 0 356.53328809 0 -449.15660690 0 19723
0.13750000 0.13749600 12009.37566805 0 225.55765058 0 4238.76274870 0 260.90383310 0 -515.25506437 0 20946
0.13850000 0.13851100 11750.61543704 0 219.93955297 0 4048.21911089 0 29.18100134 0 177.56687312 0 20955
0.13950000 0.13949800 11626.82684556 0 237.56005068 0 4294.27938534 0 81.08473839 0 346.88486424 0 20506
0.14050000 0.14048300 11493.18388500 0 103.41595670 0 3768.60969225 0 415.68939790 0 198.96746253 0 21447
0.14150000 0.14148400 11338.72495378 0 214.15094155 0 4282.00017712 0 207.98033493 0 94.26058348 0 21771
0.14250000 0.14249400 11206.74284194 0 121.77896452 0 3713.38093605 0 471.87148126 0 179.90756258 0 22470
0.14350000 0.14350900 11187.80916650 0 -16.00449191 0 3644.67716055 0 263.27995400 0 497.60024244 0 22519
0.14450000 0.14449900 11076.75374857 0 -18.28317636 0 3356.04379718 0 113.22005743 0 379.69326991 0 22218
0.14550000 0.14550500 11044.72151287 0 194.57950020 0 3428.06927013 0 131.29784216 0 100.88139082 0 23559
0.14650000 0.14650700 10873.90875790 0 289.59001224 0 3242.62997406 0 -78.51374457 0 -83.39387173 0 23044
0.14750000 0.14750500 10530.29022947 0 359.16517970 0 3383.03812509 0 -337.79337833 0 -334.46503749 0 23649
0.14850000 0.14849900 10316.09610586 0 205.61860804 0 3244.21331651 0 7.30883054 0 -305.97594574 0 23640
0.14950000 0.14949500 10234.14982987 0 151.08851555 0 3542.19172203 0 64.38224712 0 -98.65053882 0 24457
0.15050000 0.15050000 10119.34089383 0 120.27091388 0 3218.64731851 0 272.95052250 0 -103.34863696 0 24591
0.15150000 0.15149900 9988.64317167 0 134.49110064 0 3161.65806267 0 485.44061533 0 154.10793852 0 25020
0.15250000 0.15250500 9936.02748413 0 126.71279246 0 3072.44834160 0 620.71342210 0 175.61814395 0 25297
0.15350000 0.15350100 9735.66269421 0 134.26965415 0 2826.85310480 0 611.22001080 0 212.96620279 0 25452
0.15450000 0.15450400 9582.12276595 0 232.67715544 0 2660.51356905 0 331.79771445 0 350.22870634 0 26061
0.15550000 0.15549900 9460.11681878 0 71.14721614 0 2438.80133688 0 -39.07279488 0 553.74246544 0 26128
0.15650000 0.15649500 9355.83766364 0 100.17829820 0 2323.04018090 0 155.98137588 0 533.58197641 0 26331
0.15750000 0.15749700 9312.09090828 0 96.62585350 0 2188.30106018 0 92.30997201 0 645.13675619 0 27345
0.15850000 0.15849900 9088.67353809 0 212.34836707 0 1847.45061297 0 19.05491740 0 269.56017664 0 26980
0.15950000 0.15949700 9191.05932568 0 -27.56278106 0 1912.40087035 0 37.86856884 0 120.28309343 0 27777
0.16050000 0.16050000 9016.31589540 0 157.32666335 0 2226.40092988 0 -284.25315167 0 105.82352301 0 28224
0.16150000 0.16150500 8948.29860404 0 173.64948460 0 2169.09057662 0 -236.48271348 0 276.51359663 0 28075
0.16250000 0.16249700 8796.02092080 0 169.66123320 0 2578.15761705 0 -163.04994805 0 309.68296009 0 28590
0.16350000 0.16349900 8764.33192717 0 172.06171322 0 2723.38222937 0 -179.58757240 0 493.39608071 0 29163
0.16450000 0.16449100 8734.74667526 0 109.84377343 0 3023.80761867 0 240.72895004 0 672.31599192 0 28996
0.16550000 0.16550500 8669.19851233 0 -15.61563186 0 2736.71330845 0 224.65414887 0 525.78927420 0 30777
0.16650000 0.16650700 8701.21967571 0 -31.56177262 0 2798.44151931 0 327.05875942 0 576.63117530 0 29211
0.16750000 0.16749900 8753.89072487 0 -49.81162128 0 2265.89591251 0 318.40905927 0 429.10019772 0 30922
0.16850000 0.16850800 8583.83088798 0 151.62441607 0 2288.77133559 0 113.57880076 0 157.67322711 0 30867
0.16950000 0.16949900 8617.13644103 0 119.93985137 0 2054.29271290 0 195.12647305 0 57.25720610 0 30852
0.17050000 0.17049200 8397.70510778 0 92.19016946 0 1957.40987074 0 -97.97656641 0 -301.86257707 0 31257
0.17150000 0.17149500 8305.07403835 0 283.44155027 0 2232.56821481 0 -356.54989658 0 -273.07896147 0 32608
0.17250000 0.17250900 8196.86420789 0 98.75849399 0 2098.82560332 0 -227.72118285 0 -179.38827055 0 32361
0.17350000 0.17350400 8195.77912006 0 43.03967670 0 2353.69944832 0 67.43964818 0 195.43206921 0 32508
0.17450000 0.17449800 8172.63796119 0 -14.93955571 0 2343.24717369 0 140.86765251 0 386.34662990 0 32791
0.17550000 0.17549800 8193.75288462 0 2.25693840 0 2499.88735290 0 483.34462424 0 514.90739337 0 33633
0.17650000 0.17650100 8162.14139726 0 108.91015500 0 2135.65215567 0 401.80470258 0 664.73698558 0 33984
0.17750000 0.17750300 8113.75533780 0 99.49779312 0 2160.74204371 0 357.65491459 0 881.58293099 0 34069
0.17850000 0.17849800 8055.09416092 0 63.18433230 0 2030.01110458 0 138.92224503 0 683.85889054 0 34536
