### header ###
fiducial parameters:
Omega_m = 0.31
Omega_nu = 0
Omega_de = 0.69
Omega_k = 0
H_0 = 100
w_de = -1
zeff = 0
beta = 0
fgrowth = 0
b_1 = 2
gamma = 0.55
Lx = 3500 Ly = 3500 Lz = 3500
nx = 700 ny = 700 nz = 700
xoffset = -685.467585 yoffset = -31.7331281 zoffset = 572.489161
bins = 400 dk = 0.001
kx_ny = 0.628318531 ky_ny = 0.628318531 kz_ny = 0.628318531
############################
A(data) = 8.00630447 (not used)
A(ran) = 7.99920643 (used)
Ngal = 476024
weighted Ngal = 0
Nran = 23820508
weighted Nran = 0
SN(data) = 3489.28023
SN(ran) = 69.6759891
SN(data+ran) = 3558.95622
############################
13 columns: k_central k_mean P_0(k) sigma^{lin}_{P_0(k)} P^img_1(k) sigma^{lin}_{P_1(k)} P_2(k) sigma^{lin}_{P_2(k)} P^img_3(k) sigma^{lin}_{P_3(k)} P_4(k) sigma^{lin}_{P_4(k)} N_modes
### header ###
0.00050000 0 0 0 0 0 0 0 0 0 0 0 0
0.00150000 0.00179520 4858.90151714 0 -6020.66519874 0 -2178.84529479 0 -12096.29341787 0 -34664.79164923 0 3
0.00250000 0.00253879 9121.35904095 0 -5731.26784495 0 -9882.48172131 0 12793.07481871 0 12119.10240700 0 6
0.00350000 0.00331552 15322.99031652 0 -7871.47072612 0 -2186.23053544 0 -17799.86937846 0 -26290.79238888 0 7
0.00450000 0.00420575 24196.57287268 0 -11730.57452911 0 -15806.96163435 0 4922.10234721 0 13663.47027271 0 24
0.00550000 0.00557378 32866.20320568 0 -8046.22522874 0 -10336.91207652 0 -6389.87186982 0 -7379.38339421 0 45
0.00650000 0.00659388 45522.53481289 0 -5712.99850900 0 -16482.37344829 0 -7494.62415092 0 18303.88160420 0 40
0.00750000 0.00754703 46267.59154993 0 -14399.22625690 0 -8645.61446047 0 -5702.97805504 0 -11510.89960471 0 57
0.00850000 0.00846663 53429.17124263 0 -8650.96239336 0 -12693.64534184 0 -1535.52107817 0 12285.96234202 0 75
0.00950000 0.00948925 62179.51882356 0 -6323.39363160 0 -7252.87101083 0 354.01544143 0 6079.37066493 0 112
0.01050000 0.01054430 75127.82763623 0 -8533.40752076 0 -19975.02758908 0 5695.06134280 0 15125.46004176 0 105
0.01150000 0.01145670 70782.27231466 0 -5730.73637336 0 -11004.94972212 0 2770.93786446 0 11522.30409928 0 144
0.01250000 0.01249090 80702.41101267 0 -4976.73319786 0 -11664.47274995 0 -474.99498409 0 15994.74826327 0 169
0.01350000 0.01339930 80258.96440369 0 1211.82166210 0 -16746.00550222 0 4826.59247332 0 -1433.27923080 0 180
0.01450000 0.01448870 82040.50146701 0 -3893.17334646 0 -7185.62878221 0 629.26679302 0 7711.60850039 0 267
0.01550000 0.01550050 80618.03989756 0 134.71808330 0 -11054.07762735 0 -14338.32847040 0 4110.88846937 0 238
0.01650000 0.01653350 79691.61847998 0 5365.08391855 0 4669.04436348 0 -12156.63758814 0 -1033.83514787 0 315
0.01750000 0.01747870 79470.50415335 0 3189.46067028 0 -4949.89388250 0 -19888.10983925 0 -15028.90936934 0 297
0.01850000 0.01844180 79247.72897800 0 -2806.10356809 0 10326.55945281 0 -21537.77551398 0 -8490.13687536 0 388
0.01950000 0.01947590 83614.32171673 0 -3841.50987885 0 8564.94150184 0 3443.00583631 0 -17251.23568369 0 399
0.02050000 0.02045430 84830.83804456 0 877.57474941 0 11186.59121077 0 -8691.94106751 0 -18286.49805424 0 462
0.02150000 0.02154770 82219.31951283 0 6829.24386327 0 23602.09975317 0 -11115.17471569 0 -19921.10536721 0 571
0.02250000 0.02255340 76003.42708289 0 7237.90122768 0 15899.63699308 0 2144.16677346 0 -15495.27569070 0 510
0.02350000 0.02348930 73170.24060829 0 5852.64266961 0 28419.44683527 0 -833.03964452 0 -4785.95704124 0 555
0.02450000 0.02439640 69665.51763345 0 3815.12452881 0 31310.20939892 0 822.01160900 0 -4714.81735428 0 592
0.02550000 0.02547300 70588.83880007 0 -407.84465576 0 34983.89605050 0 5232.61462442 0 -8392.34610257 0 837
0.02650000 0.02652900 67850.32070268 0 104.67532292 0 32366.50918662 0 850.11759832 0 -5581.90218315 0 723
0.02750000 0.02749970 69171.80266978 0 6227.28585218 0 35103.69860504 0 1343.96985881 0 -12224.40021603 0 826
0.02850000 0.02848090 67672.49916609 0 1173.10174221 0 37614.56970416 0 4011.80223457 0 -6340.10176976 0 831
0.02950000 0.02946900 64333.97178677 0 1056.16913427 0 26767.45597233 0 6184.34737653 0 -9469.22934210 0 996
0.03050000 0.03053250 60989.79752180 0 3872.19129093 0 25156.43271121 0 5130.27312612 0 -16884.07739271 0 1041
0.03150000 0.03150510 60211.41308705 0 2560.96229660 0 21678.28331593 0 2982.15353271 0 -12364.35440173 0 1036
0.03250000 0.03246190 57829.31312556 0 59.55659580 0 18889.60758711 0 5223.63496899 0 -15373.48011770 0 1059
0.03350000 0.03345080 59467.24213599 0 -977.02637093 0 19346.11953938 0 554.03256035 0 -8593.89563124 0 1302
0.03450000 0.03451200 57296.40213204 0 2653.17261769 0 20608.69673845 0 2735.75001619 0 -11172.19718851 0 1339
0.03550000 0.03553350 55675.96739483 0 2776.90584754 0 19886.00609754 0 2392.69617634 0 -4230.69102391 0 1365
0.03650000 0.03647120 52979.08123876 0 1110.12235864 0 19213.91598105 0 2555.30433862 0 -4227.45790506 0 1308
0.03750000 0.03744890 52754.86666118 0 2570.21876015 0 21234.28309070 0 2409.72541191 0 -1706.48884570 0 1579
0.03850000 0.03847530 51250.35916482 0 1852.36672519 0 20113.65309581 0 3386.66984763 0 -2981.90994156 0 1662
0.03950000 0.03950240 50498.88047938 0 644.88319995 0 18342.63474107 0 -655.36426262 0 2073.46997949 0 1683
0.04050000 0.04050350 48330.14421715 0 -22.09139175 0 18253.94541927 0 2044.75944123 0 581.13207534 0 1822
0.04150000 0.04152450 49236.41400356 0 -838.34882427 0 11937.95917297 0 3676.16685234 0 -5272.14282402 0 1887
0.04250000 0.04250150 50167.81796730 0 301.95337013 0 15874.28136925 0 1054.80170215 0 -5602.88423868 0 1920
0.04350000 0.04349210 47445.02257115 0 3358.38005772 0 11580.54452782 0 751.22845090 0 -6805.39407561 0 2005
0.04450000 0.04448520 44102.06626190 0 4039.05122594 0 15251.13092845 0 -3526.98942006 0 -3523.18054032 0 2151
0.04550000 0.04548030 42111.26225951 0 2755.40339274 0 13539.34951149 0 1767.16518571 0 2373.89536879 0 2274
0.04650000 0.04648670 40088.68068489 0 381.55452772 0 14118.76426925 0 3383.23742694 0 1170.82084330 0 2311
0.04750000 0.04749250 41544.80212179 0 -1585.94444540 0 13746.29126235 0 4192.65758815 0 -779.25693395 0 2568
0.04850000 0.04851840 41673.35181293 0 -413.48268356 0 15033.00612952 0 -43.46219661 0 485.99866050 0 2493
0.04950000 0.04949480 41582.55874942 0 1170.07899754 0 14916.41454918 0 -352.88052813 0 3580.21408546 0 2644
0.05050000 0.05050630 41293.01745541 0 1602.98475329 0 14186.63762039 0 -344.08910223 0 766.12294225 0 2829
0.05150000 0.05149060 38775.06006840 0 1741.52168143 0 14094.29443140 0 505.76276030 0 2118.34611198 0 2784
0.05250000 0.05249300 37190.83183335 0 1594.78016060 0 12082.89590484 0 4261.31707435 0 3386.79164320 0 3055
0.05350000 0.05348950 36113.49462850 0 723.20661125 0 11952.68536498 0 2399.74924724 0 2710.54940490 0 3009
0.05450000 0.05448610 35298.35007535 0 565.53006244 0 9938.26409375 0 2628.95744332 0 -812.16609777 0 3336
0.05550000 0.05550870 34722.47846153 0 518.60001369 0 10656.22685196 0 -315.96318272 0 827.70167673 0 3349
0.05650000 0.05647670 33864.26256484 0 1969.86623616 0 10272.79224349 0 -2638.37999174 0 903.45520144 0 3324
0.05750000 0.05747970 33771.14431311 0 502.74444455 0 12404.10404783 0 -3480.31957095 0 3888.30152354 0 3639
0.05850000 0.05849280 33300.57050832 0 -81.85825100 0 11933.97313603 0 1182.76788178 0 4040.32454330 0 3846
0.05950000 0.05951020 33994.25165821 0 -306.22285858 0 12831.38506258 0 1321.22730363 0 2355.42673100 0 3787
0.06050000 0.06049470 33824.62364199 0 -222.44411284 0 13169.86603229 0 1902.52435661 0 1867.90119691 0 3930
0.06150000 0.06148310 34593.70732389 0 1119.43418381 0 13408.14246239 0 1775.15940422 0 847.53110324 0 4083
0.06250000 0.06249100 32394.18999867 0 1555.73914329 0 11321.34140382 0 -751.87396744 0 2733.23659846 0 4303
0.06350000 0.06350600 31976.09901351 0 217.62765154 0 11483.21879267 0 324.27074803 0 3196.67982607 0 4470
0.06450000 0.06451750 31152.87166325 0 83.09956934 0 10452.73966644 0 2466.30499173 0 2839.85201414 0 4479
0.06550000 0.06550280 32359.97651498 0 -59.60321028 0 11638.89567962 0 1272.79695488 0 -1428.15274441 0 4636
0.06650000 0.06648880 30914.26306341 0 201.45098498 0 9961.28345704 0 1607.63512972 0 -1690.89901235 0 4653
0.06750000 0.06749660 31030.52247400 0 1242.65808672 0 9360.05621939 0 648.88473814 0 1167.74273700 0 5220
0.06850000 0.06852730 29784.55376216 0 377.47437602 0 8330.48502380 0 1357.83240949 0 1945.60677248 0 5029
0.06950000 0.06949320 29817.43856687 0 844.67997960 0 10152.72395316 0 1525.84386628 0 1771.91521305 0 5040
0.07050000 0.07048030 28571.46985503 0 1184.32907958 0 9104.09728656 0 534.18320364 0 3581.31024562 0 5475
0.07150000 0.07148790 28295.65824380 0 770.80653564 0 8927.48263338 0 221.78973844 0 4750.64739739 0 5509
0.07250000 0.07249820 27352.73906224 0 374.34090810 0 9922.19815043 0 221.77534442 0 3492.02301828 0 5916
0.07350000 0.07351270 26871.31437912 0 785.65230876 0 9786.83897953 0 -336.31743744 0 3820.88213772 0 5721
0.07450000 0.07449140 26829.12882157 0 615.84381365 0 10441.12479771 0 288.54699924 0 4746.66136045 0 6028
0.07550000 0.07549160 26307.84376910 0 103.78034691 0 10236.55252436 0 1395.35651830 0 4448.78260586 0 6183
0.07650000 0.07648840 26095.36585583 0 509.57385450 0 9862.61797059 0 1837.31943576 0 3641.78728378 0 6330
0.07750000 0.07749960 25089.33442281 0 1203.53956314 0 8858.08130141 0 1620.21329071 0 4067.08635239 0 6583
0.07850000 0.07848650 24605.69527473 0 637.54999922 0 8560.01431730 0 879.21456071 0 3756.85088329 0 6549
0.07950000 0.07947320 24089.72493818 0 -135.45328567 0 7853.27889645 0 1011.13577476 0 4895.36268277 0 6828
0.08050000 0.08048110 24036.24560931 0 -174.42676180 0 8746.09580820 0 824.11867241 0 4776.12481680 0 7147
0.08150000 0.08149960 24562.18103820 0 -12.42480930 0 7705.14226270 0 207.45329227 0 3249.57232173 0 7386
0.08250000 0.08250610 23893.41261915 0 556.63012775 0 8109.82466249 0 -238.02730279 0 4070.67378563 0 7227
0.08350000 0.08350160 23499.90219509 0 1201.20330260 0 7117.13538088 0 56.28693828 0 3821.46897093 0 7798
0.08450000 0.08449610 22518.34059992 0 566.42027735 0 7316.66974644 0 -169.71216589 0 4302.16288061 0 7371
0.08550000 0.08548940 22165.90850094 0 214.83410399 0 6919.79333564 0 2231.83744137 0 2438.32522691 0 8256
0.08650000 0.08650700 21249.67362220 0 173.73031257 0 5713.49676362 0 1092.93035990 0 1338.56656430 0 8037
0.08750000 0.08749060 21580.95758078 0 631.12915806 0 5315.39132476 0 1121.77044435 0 1563.11331162 0 8155
0.08850000 0.08849210 20692.18206758 0 219.46012130 0 4611.93331206 0 348.16703946 0 2065.39825470 0 8718
0.08950000 0.08949900 20903.99564136 0 262.30005326 0 4448.74938888 0 39.32745835 0 1781.43741240 0 8571
0.09050000 0.09049190 20372.74549656 0 225.51668298 0 4645.15028652 0 -284.99610467 0 2184.31502325 0 8932
0.09150000 0.09150830 20235.00577582 0 505.71293484 0 5085.48557223 0 -630.28544691 0 1813.17069533 0 9285
0.09250000 0.09250820 20154.39925114 0 394.43939211 0 5447.72775100 0 -463.84404577 0 1497.28834058 0 9204
0.09350000 0.09350330 19769.52524044 0 376.40700391 0 6044.10531038 0 -1196.94045755 0 1396.71841425 0 9349
0.09450000 0.09448040 19368.37491227 0 700.13963695 0 6135.40770083 0 -764.01366437 0 -193.06702063 0 9564
0.09550000 0.09549270 18919.28141762 0 550.02880769 0 6772.21031813 0 -578.34627841 0 -1001.06549534 0 10155
0.09650000 0.09649430 18573.27126704 0 184.70077200 0 6895.12419594 0 -238.22439017 0 -1455.72283321 0 9913
0.09750000 0.09749140 18170.90298313 0 436.30274501 0 6643.81563953 0 -226.13784040 0 -1649.83175960 0 10476
0.09850000 0.09850240 18194.81920474 0 286.95147723 0 6902.04439895 0 267.09769160 0 -1417.97727790 0 10575
0.09950000 0.09950330 17596.13860179 0 169.07550721 0 6587.28034901 0 248.36996140 0 -347.79833104 0 10882
0.10050000 0.10051200 17717.49128181 0 257.27653949 0 7223.52935006 0 962.50058800 0 -164.74512098 0 10875
0.10150000 0.10150300 17637.65981986 0 176.12968536 0 7226.57423939 0 1120.72964582 0 -357.79553312 0 11118
0.10250000 0.10250800 17280.13445147 0 429.96162459 0 6612.06021195 0 1125.57932409 0 516.55938423 0 11575
0.10350000 0.10349800 16979.18866290 0 163.16952915 0 6368.18118550 0 499.62979958 0 1633.13469378 0 11364
0.10450000 0.10450100 16736.48330287 0 179.72376199 0 5806.98040206 0 894.30171051 0 936.70760733 0 12093
0.10550000 0.10551000 16619.44882954 0 148.99584615 0 5614.08943140 0 957.84910434 0 1515.35837468 0 12067
0.10650000 0.10649700 15964.74226301 0 189.98559263 0 5208.57660724 0 521.38802508 0 182.64242681 0 12054
0.10750000 0.10749900 15976.58965057 0 367.68754811 0 4775.48262196 0 25.07881571 0 272.35593866 0 12807
0.10850000 0.10850100 15693.80247470 0 490.12310149 0 4819.98229540 0 -229.92789718 0 5.94991304 0 12736
0.10950000 0.10950300 15237.29052243 0 411.22171483 0 4016.78478073 0 143.15187312 0 625.29515011 0 12933
0.11050000 0.11050200 15090.25004884 0 -34.97105215 0 4004.16233044 0 831.72425233 0 467.69832204 0 13428
0.11150000 0.11150900 14856.51327192 0 -174.68917590 0 3342.66842880 0 652.31272990 0 -1000.14206345 0 13453
0.11250000 0.11250000 15043.30339161 0 57.00021744 0 2572.71003324 0 746.78955588 0 -1132.35558688 0 13668
0.11350000 0.11349100 14853.52374421 0 189.35889905 0 2459.77232009 0 -279.89287016 0 -1235.95933021 0 13791
0.11450000 0.11448600 14673.37701941 0 217.99082380 0 2609.75803208 0 -560.51319206 0 -1066.81074565 0 14205
0.11550000 0.11549300 14687.77104168 0 204.93876730 0 3008.98177574 0 -389.06488564 0 -1166.33655175 0 14776
0.11650000 0.11649800 14509.50661210 0 260.52405236 0 3304.30282330 0 -829.55407667 0 -897.81717364 0 14553
0.11750000 0.11747300 14532.97994071 0 535.34247605 0 4191.40641545 0 -262.56800352 0 -349.56658131 0 14568
0.11850000 0.11849100 13951.23999474 0 495.07907408 0 4550.08330562 0 123.37780822 0 -204.35082685 0 16015
0.11950000 0.11950300 13700.45183760 0 252.74906587 0 4305.84996477 0 528.39791393 0 335.84022024 0 15270
0.12050000 0.12050700 13488.63826382 0 204.99523616 0 4754.14625203 0 268.76850542 0 392.67889246 0 15999
0.12150000 0.12150000 13504.02879532 0 107.05399046 0 4817.28064815 0 259.31938342 0 325.38130221 0 15670
0.12250000 0.12250700 13219.35932423 0 10.29329819 0 4470.31827763 0 330.07486070 0 348.86902485 0 16887
0.12350000 0.12352200 13219.58077073 0 56.19990981 0 4399.40003717 0 441.72929141 0 905.68295319 0 16407
0.12450000 0.12449800 13282.69302219 0 114.87426276 0 4009.48811868 0 103.45238465 0 43.44259860 0 16306
0.12550000 0.12549900 13240.95035763 0 104.87340682 0 4105.41874091 0 329.74047649 0 839.17924863 0 17523
0.12650000 0.12650100 13214.59822456 0 26.13057585 0 3709.70492421 0 -327.94565264 0 207.03143669 0 17154
0.12750000 0.12750600 13267.30249069 0 64.22723458 0 4339.81985732 0 64.95490776 0 35.30610070 0 18007
0.12850000 0.12850300 13098.11736747 0 247.69787129 0 4045.11885994 0 -74.97735474 0 357.45561275 0 17496
0.12950000 0.12949900 12916.75268694 0 237.36517776 0 4081.54680860 0 -201.31922432 0 162.18077055 0 18405
0.13050000 0.13049000 12745.24237550 0 218.08272409 0 3809.67694500 0 385.36340745 0 214.19190915 0 18100
0.13150000 0.13148800 12728.41244177 0 178.55120279 0 4270.48495930 0 252.37482129 0 81.93608944 0 19059
0.13250000 0.13249300 12352.39629093 0 95.77461317 0 4251.47377759 0 332.71671741 0 220.52195725 0 18957
0.13350000 0.13349100 12421.70904429 0 106.56869047 0 4506.50263514 0 -85.86067498 0 506.74487551 0 19468
0.13450000 0.13450700 12189.74383934 0 180.96939853 0 4496.05036051 0 285.97046925 0 537.11404802 0 19953
0.13550000 0.13551000 12444.85020317 0 104.41014074 0 4348.35661975 0 24.41259393 0 908.84299469 0 19956
0.13650000 0.13649900 12184.98273967 0 -136.37671756 0 4241.07686459 0 -37.17688070 0 1418.29837532 0 19723
0.13750000 0.13749600 12488.58588620 0 -128.11122708 0 4176.38127067 0 443.85407054 0 1281.76553798 0 20946
0.13850000 0.13851100 12673.05081768 0 94.15329265 0 3805.91235456 0 846.17142176 0 1344.80028317 0 20955
0.13950000 0.13949800 12026.09487852 0 401.63861770 0 3047.12593474 0 512.28435962 0 1170.63261378 0 20506
0.14050000 0.14048300 12036.50286385 0 287.09098853 0 2689.26839660 0 509.15642786 0 1059.50079680 0 21447
0.14150000 0.14148400 11466.94247518 0 159.91426566 0 2880.34350600 0 134.31394345 0 756.46012438 0 21771
0.14250000 0.14249400 11236.30594921 0 554.60278507 0 2699.23348894 0 -20.67967034 0 765.48739080 0 22470
0.14350000 0.14350900 10763.18550971 0 301.95337013 0 2666.00544216 0 -101.31387583 0 555.83956376 0 22519
0.14450000 0.14449900 10590.06971117 0 122.74004231 0 2488.87038971 0 338.09676003 0 635.18937957 0 22218
0.14550000 0.14550500 10659.64820033 0 -15.25068804 0 2389.64021469 0 172.26987292 0 423.26397531 0 23559
0.14650000 0.14650700 10601.52956736 0 -36.13364626 0 2015.19633397 0 452.73186058 0 283.93094702 0 23044
0.14750000 0.14750500 10528.58509145 0 11.02451452 0 1608.29946921 0 268.47287434 0 144.05537482 0 23649
0.14850000 0.14849900 10654.89817298 0 54.50695134 0 1551.50951521 0 244.84342595 0 360.39531499 0 23640
0.14950000 0.14949500 10548.37133590 0 64.79070519 0 1628.20750923 0 -208.54502349 0 94.50151726 0 24457
0.15050000 0.15050000 10444.08110844 0 178.30207548 0 1771.61626028 0 -186.79897755 0 204.34307623 0 24591
0.15150000 0.15149900 10296.04412561 0 297.56872950 0 1895.40485176 0 -357.64052057 0 369.75032223 0 25020
0.15250000 0.15250500 10256.18375626 0 212.06380832 0 2370.06434441 0 -32.09711952 0 430.46652260 0 25297
0.15350000 0.15350100 9860.49208422 0 164.56574931 0 2151.35271226 0 16.34861976 0 676.71945550 0 25452
0.15450000 0.15450400 10005.96028769 0 257.76040008 0 2435.02567412 0 31.16394399 0 -146.82899219 0 26061
0.15550000 0.15549900 9569.71068983 0 106.06357101 0 2463.52583820 0 -283.26439307 0 448.77128999 0 26128
0.15650000 0.15649500 9632.11431251 0 268.13406120 0 2694.57204019 0 -137.62899750 0 136.24606413 0 26331
0.15750000 0.15749700 9369.13552574 0 157.80720225 0 2677.79746809 0 -158.64759170 0 377.67146340 0 27345
0.15850000 0.15849900 9497.39733644 0 112.73619684 0 2860.31367040 0 142.67133422 0 147.23313204 0 26980
0.15950000 0.15949700 9364.39657072 0 -13.96696270 0 2696.87508375 0 241.51840680 0 521.92946177 0 27777
0.16050000 0.16050000 9347.31197353 0 109.79062627 0 2748.87072110 0 259.10125862 0 38.92697236 0 28224
0.16150000 0.16150500 9189.22131976 0 227.85737244 0 2698.50271550 0 330.00510506 0 549.31021381 0 28075
0.16250000 0.16249700 8957.94259895 0 208.52730777 0 2663.97920672 0 189.02894377 0 566.28408776 0 28590
0.16350000 0.16349900 8892.59373787 0 159.35179156 0 2590.86864594 0 169.71105866 0 839.40180236 0 29163
0.16450000 0.16449100 8739.78458305 0 106.91359339 0 2587.20370642 0 53.40481213 0 782.38708017 0 28996
0.16550000 0.16550500 8636.91161316 0 153.56096568 0 2426.82108143 0 -11.62184430 0 1058.51978882 0 30777
0.16650000 0.16650700 8670.21716622 0 87.08449904 0 2668.58529384 0 -51.84638241 0 875.61384068 0 29211
0.16750000 0.16749900 8523.96282769 0 50.80037988 0 2446.25301148 0 -45.29178756 0 712.11435625 0 30922
0.16850000 0.16850800 8565.20723764 0 124.26802314 0 2483.71068634 0 3.13102094 0 540.47560584 0 30867
0.16950000 0.16949900 8392.05822212 0 145.39512612 0 2419.36940682 0 20.86579612 0 566.91188857 0 30852
0.17050000 0.17049200 8313.25648639 0 114.55095088 0 2335.78442677 0 247.70119298 0 542.63692364 0 31257
0.17150000 0.17149500 8260.37506305 0 55.91789769 0 2372.02414590 0 171.26339860 0 621.94023569 0 32608
0.17250000 0.17250900 8114.38646032 0 44.00086521 0 2071.67626287 0 91.00022671 0 164.71633293 0 32361
0.17350000 0.17350400 8091.30066307 0 112.59779278 0 2363.29915394 0 -53.30128589 0 311.43349464 0 32508
0.17450000 0.17449800 8041.02123607 0 157.96000033 0 2273.02648970 0 -66.37294040 0 463.91490865 0 32791
0.17550000 0.17549800 7884.76858823 0 113.15251625 0 2338.39749542 0 13.27073491 0 558.07617337 0 33633
0.17650000 0.17650100 7913.87773018 0 27.73827741 0 2280.85462334 0 276.28661397 0 706.64130609 0 33984
0.17750000 0.17750300 7921.08581364 0 -82.81600710 0 2117.47139832 0 390.17543982 0 704.71361434 0 34069
0.17850000 0.17849800 7983.66659351 0 -9.11859096 0 2021.33040192 0 400.14939002 0 852.02978882 0 34536
