### header ###
fiducial parameters:
Omega_m = 0.31
Omega_nu = 0
Omega_de = 0.69
Omega_k = 0
H_0 = 100
w_de = -1
zeff = 0
beta = 0
fgrowth = 0
b_1 = 2
gamma = 0.55
Lx = 3500 Ly = 3500 Lz = 3500
nx = 700 ny = 700 nz = 700
xoffset = -685.467585 yoffset = -31.7331281 zoffset = 572.489161
bins = 400 dk = 0.001
kx_ny = 0.628318531 ky_ny = 0.628318531 kz_ny = 0.628318531
############################
A(data) = 8.04929176 (not used)
A(ran) = 8.04393858 (used)
Ngal = 477989
weighted Ngal = 0
Nran = 23820508
weighted Nran = 0
SN(data) = 3490.99733
SN(ran) = 70.0656223
SN(data+ran) = 3561.06295
############################
13 columns: k_central k_mean P_0(k) sigma^{lin}_{P_0(k)} P^img_1(k) sigma^{lin}_{P_1(k)} P_2(k) sigma^{lin}_{P_2(k)} P^img_3(k) sigma^{lin}_{P_3(k)} P_4(k) sigma^{lin}_{P_4(k)} N_modes
### header ###
0.00050000 0 0 0 0 0 0 0 0 0 0 0 0
0.00150000 0.00179520 38389.63244147 0 -47415.79163363 0 -30772.98019872 0 85518.42941579 0 -94309.52315205 0 3
0.00250000 0.00253879 59750.36148160 0 -35820.96380679 0 -747.30220452 0 -23673.18407851 0 81659.83493974 0 6
0.00350000 0.00331552 64541.35643063 0 1519.41084556 0 -538.95869734 0 -65050.46192579 0 16179.43464125 0 7
0.00450000 0.00420575 54246.41953750 0 27047.47506699 0 -4276.01004939 0 -26317.91958469 0 33110.34796794 0 24
0.00550000 0.00557378 23421.73158188 0 8324.20701563 0 -7668.83610962 0 3176.69427977 0 13181.71341985 0 45
0.00650000 0.00659388 29557.34965688 0 -17531.47622485 0 3307.00447056 0 11958.44297388 0 -14401.44072187 0 40
0.00750000 0.00754703 35993.13845772 0 -11775.19599813 0 13615.96999923 0 -1051.30506197 0 -15532.47870209 0 57
0.00850000 0.00846663 59437.45758222 0 -7960.59186859 0 23733.86041851 0 -16492.11709413 0 27890.63260193 0 75
0.00950000 0.00948925 62339.18174745 0 -12579.15750322 0 22792.04846944 0 -211.00307960 0 37794.49498246 0 112
0.01050000 0.01054430 72121.02710848 0 -1016.52467525 0 30914.04161691 0 1900.37632560 0 -187.36366612 0 105
0.01150000 0.01145670 78773.27985952 0 8078.89965928 0 50192.61997489 0 12091.53231820 0 13483.21282466 0 144
0.01250000 0.01249090 72120.14132249 0 5180.26467268 0 37978.73846745 0 2963.89526908 0 -5008.22288965 0 169
0.01350000 0.01339930 70641.10017322 0 58.75119489 0 43687.85059044 0 -5805.95067585 0 14510.50312133 0 180
0.01450000 0.01448870 70149.15678153 0 -1462.37730042 0 44597.10990454 0 2595.37508214 0 -10837.24829042 0 267
0.01550000 0.01550050 71693.41392398 0 1330.80486460 0 36461.49779755 0 -3707.14721718 0 -11005.13795165 0 238
0.01650000 0.01653350 71240.11294591 0 5974.63754447 0 50292.27089826 0 -12144.67947733 0 -25359.94204138 0 315
0.01750000 0.01747870 71437.31105093 0 6053.00745953 0 45787.93843879 0 4577.83055162 0 182.75315006 0 297
0.01850000 0.01844180 69845.11074201 0 1384.49456765 0 45800.45016583 0 4200.96183177 0 -15851.80454986 0 388
0.01950000 0.01947590 70162.33284806 0 -6976.78259148 0 37992.91104321 0 5814.09990692 0 -14173.46155385 0 399
0.02050000 0.02045430 84640.06188793 0 -10506.98298573 0 48541.07200495 0 12657.54956293 0 -36272.82538264 0 462
0.02150000 0.02154770 84498.44685350 0 -249.19817130 0 38067.75995899 0 271.97283622 0 -22417.13955108 0 571
0.02250000 0.02255340 88266.58043578 0 6298.04908009 0 34420.31471723 0 7993.80884304 0 -17503.24179656 0 510
0.02350000 0.02348930 77608.91418159 0 3070.61033568 0 22442.38445167 0 16835.46988675 0 -1874.41172390 0 555
0.02450000 0.02439640 80302.58936347 0 -2560.34224641 0 24954.69495302 0 17724.02395345 0 -6628.54690361 0 592
0.02550000 0.02547300 77245.18831130 0 3247.25820584 0 22374.28965403 0 8616.15100413 0 -9947.83058239 0 837
0.02650000 0.02652900 72961.08439247 0 9020.51230650 0 19347.89111135 0 -1018.11687556 0 3872.05842303 0 723
0.02750000 0.02749970 66444.02472746 0 3296.12037526 0 19706.30226573 0 -2890.33074298 0 5288.31949058 0 826
0.02850000 0.02848090 65784.55706126 0 -1694.28714375 0 24186.93995009 0 -4230.71316856 0 10258.40929355 0 831
0.02950000 0.02946900 67011.25992792 0 1732.12127765 0 25372.89666142 0 4744.02614715 0 1316.56585489 0 996
0.03050000 0.03053250 68394.30402102 0 554.41344832 0 28194.34647170 0 -5258.66780472 0 -3589.39304273 0 1041
0.03150000 0.03150510 63207.25201323 0 6685.13755575 0 30879.71740997 0 -6603.47916022 0 343.94073307 0 1036
0.03250000 0.03246190 60292.35178147 0 10404.75221068 0 35216.63631819 0 -2659.58349376 0 -1185.03770837 0 1059
0.03350000 0.03345080 53063.89524687 0 4712.56967234 0 37486.02001302 0 1038.27515013 0 1644.73849019 0 1302
0.03450000 0.03451200 49167.43341994 0 1610.58036812 0 34427.06883537 0 11299.19675418 0 -209.06099383 0 1339
0.03550000 0.03553350 48287.29432010 0 -1184.86055117 0 30195.89062917 0 9187.25044595 0 1041.06980491 0 1365
0.03650000 0.03647120 47703.89352541 0 768.57767666 0 24876.85650954 0 10601.45206108 0 -757.48320719 0 1308
0.03750000 0.03744890 47543.89843178 0 -452.23028427 0 24428.87024738 0 3372.77407998 0 3675.86789957 0 1579
0.03850000 0.03847530 46970.13055968 0 -1169.30393480 0 20284.38834451 0 2698.71308967 0 2601.02196780 0 1662
0.03950000 0.03950240 47532.82610696 0 -386.98771750 0 19098.32090994 0 -329.88773841 0 -162.97908517 0 1683
0.04050000 0.04050350 48146.89724140 0 598.69499697 0 21511.64482741 0 -1499.07098487 0 -2154.57475879 0 1822
0.04150000 0.04152450 47423.43153775 0 2219.62466709 0 23624.24440281 0 -3810.18627194 0 553.72917865 0 1887
0.04250000 0.04250150 44427.37116507 0 4666.87418781 0 22553.21842310 0 485.03647547 0 -705.68354999 0 1920
0.04350000 0.04349210 42070.07321118 0 2520.05005640 0 21545.85831110 0 2413.95503999 0 -1943.23729497 0 2005
0.04450000 0.04448520 41026.28515053 0 -292.09567934 0 20807.33424570 0 1244.59574356 0 -2505.62281716 0 2151
0.04550000 0.04548030 41742.33239655 0 462.92061388 0 17038.86849367 0 4729.78713743 0 -4871.85613718 0 2274
0.04650000 0.04648670 41320.14465122 0 118.15388537 0 17611.41841004 0 193.87419311 0 -1984.64778979 0 2311
0.04750000 0.04749250 40368.92122605 0 511.88575592 0 14595.53857594 0 1573.48807998 0 -2324.98891007 0 2568
0.04850000 0.04851840 39486.67838450 0 148.27614504 0 14097.83757534 0 2943.68827629 0 -1844.26178342 0 2493
0.04950000 0.04949480 39195.69768826 0 1493.67876269 0 12805.14365276 0 1820.50057436 0 -6597.61082806 0 2644
0.05050000 0.05050630 37703.14830271 0 1610.76859764 0 12873.90278989 0 5991.50069517 0 -2897.27309065 0 2829
0.05150000 0.05149060 36255.10966293 0 490.46966526 0 10973.30501779 0 3155.72329656 0 679.49196563 0 2784
0.05250000 0.05249300 36311.35707301 0 531.89898303 0 9436.28917577 0 2381.26953712 0 4153.57228154 0 3055
0.05350000 0.05348950 37467.75067707 0 -2714.08147652 0 11590.50962016 0 -146.02071248 0 1521.39279171 0 3009
0.05450000 0.05448610 38565.12878984 0 -2014.94167050 0 10833.98195460 0 -625.92073646 0 5563.02386933 0 3336
0.05550000 0.05550870 40937.48510548 0 710.19109343 0 13487.42030809 0 -3726.39091772 0 1369.60229077 0 3349
0.05650000 0.05647670 40488.83450383 0 1811.16660453 0 14315.74092777 0 -1386.59830936 0 3758.53387666 0 3324
0.05750000 0.05747970 38143.82683049 0 3116.37225416 0 16358.80630331 0 -1547.78921407 0 5026.85761232 0 3639
0.05850000 0.05849280 36838.17828788 0 1303.41193300 0 16405.42079080 0 1060.83279748 0 2999.81389079 0 3846
0.05950000 0.05951020 35786.41815335 0 317.90305403 0 15456.30110734 0 1309.92245999 0 267.26156201 0 3787
0.06050000 0.06049470 34758.02062420 0 740.92011649 0 15526.83181644 0 1612.56231426 0 -1116.90969376 0 3930
0.06150000 0.06148310 35210.10364654 0 264.74925151 0 15837.52125085 0 436.62937860 0 -2823.35425016 0 4083
0.06250000 0.06249100 34054.48510522 0 1212.55243554 0 14466.87816155 0 196.87922207 0 -2141.50941550 0 4303
0.06350000 0.06350600 33059.19382727 0 1990.72649612 0 14977.20161244 0 -1231.46396633 0 284.35390983 0 4470
0.06450000 0.06451750 31913.20820854 0 1249.13539674 0 15004.43953149 0 572.19670921 0 2379.71941165 0 4479
0.06550000 0.06550280 31399.56306021 0 -537.15833732 0 14225.28003400 0 3221.31574879 0 3732.20388825 0 4636
0.06650000 0.06648880 31154.75395847 0 -503.50732773 0 14312.19778383 0 3915.20727285 0 3263.27985985 0 4653
0.06750000 0.06749660 31763.06748400 0 421.49018887 0 13456.08562885 0 2184.06035978 0 3518.14263253 0 5220
0.06850000 0.06852730 30978.26110086 0 1408.98655015 0 13570.68419073 0 1347.75659390 0 5172.00471836 0 5029
0.06950000 0.06949320 29543.73069735 0 1228.62945118 0 12607.94554774 0 -592.38709352 0 6913.03921750 0 5040
0.07050000 0.07048030 28631.70330204 0 1382.28010268 0 14536.63380790 0 967.16978737 0 5474.38990916 0 5475
0.07150000 0.07148790 28454.10321195 0 301.18716525 0 13788.36609666 0 1064.12127795 0 5547.68869946 0 5509
0.07250000 0.07249820 27374.88371188 0 -427.92320959 0 13076.30488757 0 2487.46420446 0 4512.84707726 0 5916
0.07350000 0.07351270 27962.93488299 0 -132.70292018 0 11485.21181113 0 1273.92633201 0 3468.94829336 0 5721
0.07450000 0.07449140 27743.48140509 0 543.10860468 0 9373.56445567 0 2092.02719588 0 2370.54045437 0 6028
0.07550000 0.07549160 27034.18827721 0 570.66319222 0 8708.93708611 0 -827.32853938 0 1876.99157558 0 6183
0.07650000 0.07648840 26184.05517763 0 547.49656701 0 7410.88415832 0 -505.45605690 0 286.56062417 0 6330
0.07750000 0.07749960 25831.62307865 0 374.85798567 0 7083.61945365 0 31.81765405 0 -1977.56150191 0 6583
0.07850000 0.07848650 25442.43086128 0 764.78983434 0 7256.76846917 0 -227.03026978 0 -1025.77117371 0 6549
0.07950000 0.07947320 24830.13129881 0 114.61959929 0 6693.71860749 0 1627.53209742 0 -2026.14686321 0 6828
0.08050000 0.08048110 24845.18966056 0 74.18679075 0 7169.14209055 0 1722.69872923 0 -840.25215691 0 7147
0.08150000 0.08149960 24427.43084515 0 215.99337640 0 5830.05512698 0 1109.22550033 0 602.64006630 0 7386
0.08250000 0.08250610 24534.83239589 0 646.22073679 0 6986.64803289 0 1816.44810347 0 1065.85631125 0 7227
0.08350000 0.08350160 24046.32142490 0 545.37953850 0 6461.96377671 0 276.03748666 0 2674.36504740 0 7798
0.08450000 0.08449610 23530.57253484 0 945.25876379 0 7812.06770347 0 -1011.16788451 0 1940.23669495 0 7371
0.08550000 0.08548940 22359.00984578 0 1321.71448593 0 8007.15099445 0 -658.51987519 0 4054.69642091 0 8256
0.08650000 0.08650700 21949.44455074 0 922.14860743 0 8579.11407761 0 -1275.35466191 0 2504.38271678 0 8037
0.08750000 0.08749060 21388.52057543 0 150.12522329 0 8997.08326719 0 -812.43958420 0 2697.84944834 0 8155
0.08850000 0.08849210 21008.96128064 0 639.84861385 0 9592.74112546 0 -142.19743872 0 807.76817035 0 8718
0.08950000 0.08949900 20482.25078902 0 669.87232983 0 9047.59521301 0 -204.55787933 0 -280.85837688 0 8571
0.09050000 0.09049190 20049.87650485 0 432.49497251 0 9185.23528283 0 -245.00840359 0 -1520.72845222 0 8932
0.09150000 0.09150830 19525.93409443 0 262.89685156 0 8767.34359952 0 141.08467007 0 -491.19379530 0 9285
0.09250000 0.09250820 19591.26081086 0 -38.24115257 0 8198.23717617 0 1868.55446407 0 -1225.47383860 0 9204
0.09350000 0.09350330 19426.94751056 0 128.51315247 0 7745.23515087 0 282.91450760 0 -1132.80955220 0 9349
0.09450000 0.09448040 19375.68264665 0 -4.05640156 0 6310.05148020 0 1446.42208036 0 -1327.98142177 0 9564
0.09550000 0.09549270 19304.59832131 0 304.16229893 0 6708.32300392 0 969.69427743 0 -1533.37304716 0 10155
0.09650000 0.09649430 18258.37434920 0 559.70048342 0 5398.92094320 0 793.58341503 0 -185.05397916 0 9913
0.09750000 0.09749140 18453.91160549 0 281.15732965 0 5899.01356596 0 1001.60139586 0 -873.50013387 0 10476
0.09850000 0.09850240 17688.14962104 0 577.53910594 0 5436.32325643 0 270.51018211 0 -383.67044899 0 10575
0.09950000 0.09950330 17503.57396631 0 326.61143750 0 5509.81027625 0 818.64451502 0 -155.52630333 0 10882
0.10050000 0.10051200 16866.02950325 0 325.92273890 0 5333.30634632 0 162.23502494 0 350.32282110 0 10875
0.10150000 0.10150300 16861.82201982 0 36.79566056 0 5051.96964500 0 -6.39720175 0 84.77503353 0 11118
0.10250000 0.10250800 16643.80794414 0 123.43759878 0 5911.86853507 0 -183.50606815 0 -131.32330851 0 11575
0.10350000 0.10349800 16613.91266713 0 409.80999342 0 5144.86645023 0 135.35584921 0 -18.62974012 0 11364
0.10450000 0.10450100 16459.67518241 0 351.73786421 0 5247.91657732 0 -70.54255648 0 413.82149670 0 12093
0.10550000 0.10551000 16258.49104045 0 58.83667324 0 5557.38805600 0 186.70154109 0 119.86455956 0 12067
0.10650000 0.10649700 16540.39243033 0 -23.04150795 0 5775.37998703 0 23.19995292 0 122.71568320 0 12054
0.10750000 0.10749900 16549.91462968 0 -177.95772618 0 6068.49764195 0 -849.87622164 0 -625.74357927 0 12807
0.10850000 0.10850100 16540.39243033 0 190.69865035 0 6338.92810332 0 -359.21832686 0 -585.63629708 0 12736
0.10950000 0.10950300 16678.57504407 0 256.36196546 0 6897.93656644 0 -158.19141192 0 126.01302153 0 12933
0.11050000 0.11050200 16280.52496684 0 400.16378404 0 6675.27211434 0 270.98739931 0 -376.73585195 0 13428
0.11150000 0.11150900 16022.42907532 0 206.97607507 0 6574.62468174 0 542.24274888 0 -764.60271205 0 13453
0.11250000 0.11250000 15718.38303580 0 665.88850736 0 6062.14212751 0 1013.23065862 0 -342.38285697 0 13668
0.11350000 0.11349100 14938.44847557 0 580.64378581 0 5048.50400734 0 1113.31118819 0 -274.74534635 0 13791
0.11450000 0.11448600 14375.53148179 0 463.73996591 0 4969.87942880 0 916.69548746 0 904.99757628 0 14205
0.11550000 0.11549300 14035.27894012 0 283.90769514 0 4296.62671820 0 601.76756710 0 386.09971705 0 14776
0.11650000 0.11649800 13764.11770531 0 189.98005647 0 4335.94454363 0 872.05851718 0 755.71163522 0 14553
0.11750000 0.11747300 13777.95811133 0 34.52373023 0 4104.97584791 0 -138.61332717 0 699.64138234 0 14568
0.11850000 0.11849100 13844.17061375 0 -186.93848884 0 4164.82176356 0 -429.36261182 0 -93.46116162 0 16015
0.11950000 0.11950300 13919.90531551 0 134.28626263 0 4313.97705119 0 -110.92919343 0 290.23331431 0 15270
0.12050000 0.12050700 13745.07330662 0 -65.25939670 0 4226.28423863 0 -278.73249052 0 -217.32537708 0 15999
0.12150000 0.12150000 13899.97513083 0 35.42590326 0 3777.64470930 0 -96.10634002 0 -26.09702670 0 15670
0.12250000 0.12250700 13937.84248171 0 211.94422721 0 4063.06709848 0 210.84142366 0 -238.75918346 0 16887
0.12350000 0.12352200 13614.53059701 0 158.33978107 0 4247.25522183 0 378.17968311 0 387.06743824 0 16407
0.12450000 0.12449800 13412.68211556 0 270.67073082 0 4146.31990879 0 563.00889408 0 307.05549741 0 16306
0.12550000 0.12549900 13300.85163490 0 220.02148817 0 4200.90647014 0 592.44356237 0 593.51425618 0 17523
0.12650000 0.12650100 12995.03402340 0 334.10075801 0 4533.95092836 0 -101.19307677 0 657.67505681 0 17154
0.12750000 0.12750600 12909.00205956 0 346.38218070 0 4379.51414179 0 205.08713645 0 1464.77999491 0 18007
0.12850000 0.12850300 12815.44091485 0 15.28468007 0 4147.44928592 0 132.71067081 0 1387.57267395 0 17496
0.12950000 0.12949900 12489.02877919 0 37.75053785 0 4185.63773422 0 377.13224118 0 1399.98475007 0 18405
0.13050000 0.13049000 12732.95209495 0 -78.59102939 0 3499.48576521 0 480.11039816 0 1222.22964743 0 18100
0.13150000 0.13148800 12633.74406457 0 -24.93941514 0 3289.32196782 0 273.37237807 0 348.67747363 0 19059
0.13250000 0.13249300 12718.11517969 0 115.61057236 0 3211.28422250 0 -30.38245930 0 1038.42019758 0 18957
0.13350000 0.13349100 12749.11768918 0 17.91169986 0 3337.79660588 0 -192.33624719 0 829.58507918 0 19468
0.13450000 0.13450700 12514.71657277 0 146.03510650 0 3619.85300831 0 105.62222814 0 1077.49332463 0 19953
0.13550000 0.13551000 12740.48127582 0 98.98647316 0 3708.55340243 0 90.45059651 0 1289.43865908 0 19956
0.13650000 0.13649900 12669.28622724 0 115.64046764 0 3755.07931132 0 41.17077899 0 597.16923061 0 19723
0.13750000 0.13749600 12491.35396740 0 224.05513610 0 4267.16326186 0 -471.84269322 0 1324.69294130 0 20946
0.13850000 0.13851100 12104.37621499 0 393.94113749 0 4028.90897641 0 7.22131489 0 1067.63120492 0 20955
0.13950000 0.13949800 12073.92732174 0 245.50444374 0 4224.09191831 0 206.21319189 0 1102.24107784 0 20506
0.14050000 0.14048300 11966.96866399 0 -36.99717687 0 3784.89708206 0 568.99902180 0 992.65938634 0 21447
0.14150000 0.14148400 11834.21148942 0 22.05894984 0 3621.67994191 0 476.11993229 0 401.89660287 0 21771
0.14250000 0.14249400 11788.15061817 0 236.69973104 0 3481.98041967 0 367.42513401 0 804.85836339 0 22470
0.14350000 0.14350900 11482.77589967 0 232.00174362 0 3352.12419420 0 63.12122005 0 701.94331867 0 22519
0.14450000 0.14449900 11235.42016322 0 108.71760727 0 3040.87007122 0 269.53692476 0 564.71624656 0 22218
0.14550000 0.14550500 11322.00574331 0 173.63398334 0 3457.03447185 0 -185.08055274 0 310.17457131 0 23559
0.14650000 0.14650700 11020.09666248 0 257.15474391 0 3691.40237129 0 -166.45468793 0 463.99462939 0 23044
0.14750000 0.14750500 10886.83016096 0 397.08678497 0 3654.69761451 0 -640.37897821 0 -247.25276383 0 23649
0.14850000 0.14849900 10478.23923050 0 477.85385836 0 3921.11989430 0 -531.83808525 0 283.33968488 0 23640
0.14950000 0.14949500 10261.27702568 0 262.63775916 0 3793.65529099 0 -66.95113720 0 -26.58775214 0 24457
0.15050000 0.15050000 10135.58399434 0 -72.06433681 0 3797.89599139 0 792.55922498 0 401.94642833 0 24591
0.15150000 0.15149900 10310.39385858 0 -224.00309617 0 3195.37329174 0 681.13288417 0 -285.91953656 0 25020
0.15250000 0.15250500 10251.56659681 0 -51.82146968 0 3158.10384640 0 727.58903741 0 96.41835814 0 25297
0.15350000 0.15350100 10252.21986398 0 226.56191044 0 2882.79048978 0 464.34783655 0 -104.90518439 0 25452
0.15450000 0.15450400 9925.95166855 0 265.44016457 0 2768.08120466 0 -126.86226884 0 535.70011214 0 26061
0.15550000 0.15549900 9778.55688056 0 237.74606574 0 2960.90574138 0 -181.52744370 0 -22.61588778 0 26128
0.15650000 0.15649500 9509.95335279 0 246.44780581 0 2780.50435311 0 13.76555711 0 363.36934143 0 26331
0.15750000 0.15749700 9547.39995532 0 54.03648826 0 2759.48908060 0 -101.73495635 0 444.91037033 0 27345
0.15850000 0.15849900 9418.36308189 0 62.40063315 0 2834.29370708 0 175.75654801 0 78.24225116 0 26980
0.15950000 0.15949700 9248.92329519 0 145.85905653 0 2493.78650193 0 391.34799902 0 484.56811613 0 27777
0.16050000 0.16050000 9213.77973621 0 159.78914839 0 2236.70926429 0 390.82981422 0 63.73684131 0 28224
0.16150000 0.16150500 9029.80198703 0 161.27283991 0 2365.24788311 0 107.57272888 0 113.27431182 0 28075
0.16250000 0.16249700 9006.51688793 0 229.40306899 0 2507.42760611 0 -203.34767422 0 -142.09225163 0 28590
0.16350000 0.16349900 8651.73745609 0 223.77389905 0 2414.42007763 0 -279.14880993 0 83.46052712 0 29163
0.16450000 0.16449100 8611.47848305 0 167.05591517 0 2422.04890943 0 -214.93043322 0 220.30161799 0 28996
0.16550000 0.16550500 8604.71329259 0 -25.52458751 0 2451.91096947 0 106.86077840 0 231.26321956 0 30777
0.16650000 0.16650700 8633.88886849 0 -141.06252542 0 2486.64485242 0 354.23578069 0 92.66362207 0 29211
0.16750000 0.16749900 8639.02642720 0 67.58934601 0 2117.31638577 0 290.01851121 0 -44.98674501 0 30922
0.16850000 0.16850800 8654.32838010 0 160.67161268 0 2286.51258132 0 8.74295127 0 -91.66655922 0 30867
0.16950000 0.16949900 8489.11822148 0 150.16397642 0 2242.75475364 0 -96.72517226 0 153.43252671 0 30852
0.17050000 0.17049200 8492.18525546 0 147.69263352 0 2292.36984115 0 -60.61134546 0 553.26746270 0 31257
0.17150000 0.17149500 8347.04922173 0 129.73442990 0 2460.61381677 0 -33.61059560 0 493.75593127 0 32608
0.17250000 0.17250900 8349.65121807 0 -49.24538259 0 2381.28060945 0 174.31936025 0 423.87073871 0 32361
0.17350000 0.17350400 8411.43479055 0 -87.19976194 0 2322.27619049 0 468.46563415 0 272.86637283 0 32508
0.17450000 0.17449800 8340.89300913 0 138.43949167 0 2124.97843454 0 290.89543933 0 392.05219888 0 32791
0.17550000 0.17549800 8149.72932114 0 245.43025916 0 1858.16862339 0 121.73246075 0 43.38181153 0 33633
0.17650000 0.17650100 7963.04992470 0 187.67036951 0 1914.39388882 0 89.42629574 0 396.78561774 0 33984
0.17750000 0.17750300 7854.23111638 0 87.77209041 0 1778.73576514 0 69.20679122 0 183.62343479 0 34069
0.17850000 0.17849800 7768.39845439 0 83.62306885 0 1960.41047077 0 56.48192192 0 373.47062337 0 34536
