### header ###
fiducial parameters:
Omega_m = 0.31
Omega_nu = 0
Omega_de = 0.69
Omega_k = 0
H_0 = 100
w_de = -1
zeff = 0
beta = 0
fgrowth = 0
b_1 = 2
gamma = 0.55
Lx = 3500 Ly = 3500 Lz = 3500
nx = 700 ny = 700 nz = 700
xoffset = -685.467585 yoffset = -31.7331281 zoffset = 572.489161
bins = 400 dk = 0.001
kx_ny = 0.628318531 ky_ny = 0.628318531 kz_ny = 0.628318531
############################
A(data) = 7.99980502 (not used)
A(ran) = 7.99375217 (used)
Ngal = 475142
weighted Ngal = 0
Nran = 23820508
weighted Nran = 0
SN(data) = 3496.44405
SN(ran) = 69.6284805
SN(data+ran) = 3566.07253
############################
13 columns: k_central k_mean P_0(k) sigma^{lin}_{P_0(k)} P^img_1(k) sigma^{lin}_{P_1(k)} P_2(k) sigma^{lin}_{P_2(k)} P^img_3(k) sigma^{lin}_{P_3(k)} P_4(k) sigma^{lin}_{P_4(k)} N_modes
### header ###
0.00050000 0 0 0 0 0 0 0 0 0 0 0 0
0.00150000 0.00179520 33069.60181260 0 -23446.31214297 0 -4510.22293628 0 44632.09845097 0 -67168.04404735 0 3
0.00250000 0.00253879 52877.54802017 0 -10804.21954549 0 43439.83051450 0 -42514.62705265 0 31047.79530072 0 6
0.00350000 0.00331552 54888.50365373 0 14937.78413608 0 25230.28511775 0 -42745.26357863 0 24388.89915478 0 7
0.00450000 0.00420575 51008.53959078 0 22664.49528753 0 46033.07971027 0 -30411.91168638 0 27757.10036462 0 24
0.00550000 0.00557378 49769.65716682 0 -2204.32271420 0 61586.81727602 0 2933.16956771 0 -10010.59959179 0 45
0.00650000 0.00659388 59847.13360051 0 -21636.20848162 0 92422.68827971 0 28362.75653220 0 9746.23676442 0 40
0.00750000 0.00754703 78886.21757267 0 -15752.26434974 0 68871.63194395 0 19053.25654793 0 -60862.68723288 0 57
0.00850000 0.00846663 83819.27044912 0 351.90394908 0 48077.14159504 0 40280.01045775 0 -22869.99763616 0 75
0.00950000 0.00948925 74444.88664142 0 8173.65661507 0 24259.13150791 0 4231.67646081 0 -25978.33138250 0 112
0.01050000 0.01054430 78450.30014456 0 7067.78602916 0 26159.14244679 0 14203.57827736 0 -15658.92465152 0 105
0.01150000 0.01145670 63210.79515717 0 2445.19006830 0 11066.03573815 0 13978.36719055 0 -32541.34119551 0 144
0.01250000 0.01249090 61283.21412949 0 5875.40736944 0 21328.61929816 0 93.45783993 0 -21909.91635114 0 169
0.01350000 0.01339930 65114.01707025 0 2386.55103606 0 12008.93277506 0 -7376.73710858 0 -4003.54228025 0 180
0.01450000 0.01448870 52472.19020856 0 2694.47238927 0 16040.47696477 0 1128.00416322 0 -2413.91075069 0 267
0.01550000 0.01550050 58214.29785951 0 -6484.28558354 0 9903.93988681 0 913.74139119 0 11652.18246940 0 238
0.01650000 0.01653350 70601.68269686 0 -9012.34093079 0 29477.73964143 0 9311.37120716 0 -1402.75283127 0 315
0.01750000 0.01747870 72722.58651588 0 272.83647755 0 6434.28296466 0 -10740.39866523 0 1624.07753207 0 297
0.01850000 0.01844180 69764.94711032 0 10619.75461401 0 22606.14413573 0 -5056.48715353 0 7384.77561639 0 388
0.01950000 0.01947590 64638.46071929 0 1875.38608848 0 22561.41194347 0 4567.85438696 0 6195.22039950 0 399
0.02050000 0.02045430 65701.07173213 0 -901.17540976 0 15488.18940282 0 8802.74182197 0 -2479.11567154 0 462
0.02150000 0.02154770 67241.23211441 0 -4426.99227062 0 19739.74068668 0 3049.77222037 0 -7455.21774689 0 571
0.02250000 0.02255340 69560.10910117 0 -2320.95858384 0 14015.23803219 0 2071.83127542 0 -19060.67500556 0 510
0.02350000 0.02348930 73804.57409715 0 -2579.20948791 0 19409.89613034 0 1429.99075033 0 -19242.81474882 0 555
0.02450000 0.02439640 72511.65872808 0 -864.03329615 0 8809.90561613 0 783.20975391 0 -11633.24879396 0 592
0.02550000 0.02547300 72130.54930782 0 2717.02671492 0 13323.54990077 0 -3579.08470833 0 -16069.59717905 0 837
0.02650000 0.02652900 71939.33025821 0 3114.27958477 0 18096.71840684 0 -4584.85040555 0 -19276.03172328 0 723
0.02750000 0.02749970 69416.61177152 0 3298.05803211 0 13993.42555230 0 -1998.64320836 0 -19116.81169239 0 826
0.02850000 0.02848090 63930.82844013 0 4868.39049951 0 14202.02815188 0 -2722.69574523 0 -11787.59700193 0 831
0.02950000 0.02946900 63013.15415916 0 1908.75807549 0 16992.47545268 0 -1879.63786121 0 -13961.20508708 0 996
0.03050000 0.03053250 62415.80223519 0 636.86794401 0 19571.33062619 0 6176.71854473 0 -16431.21930762 0 1041
0.03150000 0.03150510 54358.80363441 0 6948.83604363 0 14542.28069356 0 667.65565040 0 -7654.28707481 0 1036
0.03250000 0.03246190 52163.82596236 0 5450.10830083 0 15512.76996392 0 1962.75780363 0 -9478.92869864 0 1059
0.03350000 0.03345080 46917.75846328 0 3533.51101937 0 8508.82695966 0 10006.95679692 0 -270.80359872 0 1302
0.03450000 0.03451200 46647.59373771 0 -2042.97679694 0 7350.24103529 0 6064.36766480 0 -1753.47979223 0 1339
0.03550000 0.03553350 48367.45795179 0 -2174.44958183 0 5438.09482840 0 2861.21052871 0 237.67409563 0 1365
0.03650000 0.03647120 50842.78688825 0 -264.86440368 0 8252.98982240 0 -2932.67131309 0 -4107.11280660 0 1308
0.03750000 0.03744890 47389.43950056 0 2863.72394645 0 7887.06055947 0 -3316.37165736 0 7952.89660284 0 1579
0.03850000 0.03847530 47186.48378663 0 1277.96773057 0 7646.68038765 0 -2276.94609268 0 5115.62444039 0 1662
0.03950000 0.03950240 47177.95809652 0 -427.40059586 0 12844.11823613 0 2105.43578124 0 5634.15248397 0 1683
0.04050000 0.04050350 47546.55578973 0 -287.60252993 0 11296.65011947 0 4761.43184176 0 1413.58156495 0 1822
0.04150000 0.04152450 45904.41929588 0 1537.60267524 0 10265.46236446 0 3361.80140609 0 5279.87130675 0 1887
0.04250000 0.04250150 44346.65391715 0 1877.10229883 0 7976.02668939 0 1068.08627747 0 7079.99880344 0 1920
0.04350000 0.04349210 46670.29200359 0 762.39599771 0 10187.13673869 0 -212.53770382 0 4659.30071764 0 2005
0.04450000 0.04448520 42246.89823854 0 2548.45056956 0 11717.84135557 0 -3214.42876275 0 5227.18918526 0 2151
0.04550000 0.04548030 41161.92112956 0 4521.92638361 0 11964.75419903 0 -3005.63793365 0 4619.06388924 0 2274
0.04650000 0.04648670 39100.58641807 0 953.20426408 0 12458.02626970 0 -1085.96143866 0 4845.17183437 0 2311
0.04750000 0.04749250 37949.83969967 0 -391.17305629 0 11690.49271327 0 1326.89633394 0 1462.58767459 0 2568
0.04850000 0.04851840 39109.11210818 0 -1360.93266043 0 12067.39465010 0 1094.50373725 0 -3937.39621178 0 2493
0.04950000 0.04949480 39553.88739615 0 -393.79055387 0 12538.41134788 0 960.74341005 0 -7310.01527922 0 2644
0.05050000 0.05050630 38405.35514271 0 1866.60573490 0 8870.82554728 0 -2724.81055927 0 -11168.32187482 0 2829
0.05150000 0.05149060 37723.29993388 0 1032.20640889 0 11207.51790468 0 -3253.39227379 0 -11536.58739829 0 2784
0.05250000 0.05249300 35929.14042027 0 927.87853552 0 10261.95243749 0 -677.22103181 0 -11544.44874891 0 3055
0.05350000 0.05348950 35236.89867260 0 839.58228126 0 12574.83929654 0 307.27140774 0 -11364.63419386 0 3009
0.05450000 0.05448610 35129.71856836 0 473.63308814 0 11130.67597044 0 1502.68056276 0 -11157.58171975 0 3336
0.05550000 0.05550870 34671.10287437 0 473.25552186 0 12080.68143988 0 1085.24948817 0 -9655.43262858 0 3349
0.05650000 0.05647670 34221.34504024 0 1137.92496626 0 11869.31075909 0 935.95026032 0 -2544.99600422 0 3324
0.05750000 0.05747970 34908.60424173 0 757.50535184 0 12648.13808684 0 2075.23047913 0 -1702.30350692 0 3639
0.05850000 0.05849280 34825.34035910 0 -421.34846311 0 13938.06392821 0 2252.93022015 0 3954.20400086 0 3846
0.05950000 0.05951020 35218.29716691 0 -1293.69043181 0 12509.29113361 0 3816.03245945 0 2492.14779786 0 3787
0.06050000 0.06049470 35366.00197999 0 129.81415064 0 13032.67992779 0 994.91481890 0 4877.38122726 0 3930
0.06150000 0.06148310 33864.59473458 0 2413.81109976 0 11341.71448148 0 845.04758079 0 2022.79194879 0 4083
0.06250000 0.06249100 31513.38655934 0 2245.76642599 0 11144.95926946 0 2030.38756362 0 7131.09758247 0 4303
0.06350000 0.06350600 31399.34161371 0 919.94632202 0 10005.14093565 0 1164.19959306 0 4239.63746236 0 4470
0.06450000 0.06451750 30372.60493328 0 -1459.98567826 0 8496.23772634 0 2894.63787734 0 3291.51428814 0 4479
0.06550000 0.06550280 31539.18507617 0 67.63917147 0 7309.80490505 0 352.62254296 0 675.47271172 0 4636
0.06650000 0.06648880 30099.00778701 0 710.87314863 0 8224.64467086 0 -1248.79215467 0 2960.50713768 0 4653
0.06750000 0.06749660 30328.31563400 0 1146.87140472 0 9112.78906154 0 -1402.05527481 0 2781.96589998 0 5220
0.06850000 0.06852730 29727.75273584 0 559.99168556 0 9561.58360342 0 -102.79911748 0 3615.43515071 0 5029
0.06950000 0.06949320 29096.74094442 0 448.17006275 0 10060.38076417 0 -643.95312466 0 1619.99184422 0 5040
0.07050000 0.07048030 29012.48055255 0 1496.17003577 0 10932.24883737 0 802.70258175 0 2250.63824891 0 5475
0.07150000 0.07148790 27448.07177893 0 1025.77117371 0 10801.36288568 0 81.53194959 0 3436.83855138 0 5509
0.07250000 0.07249820 27236.59037489 0 332.35354515 0 10161.23857094 0 1759.14882254 0 2589.83891973 0 5916
0.07350000 0.07351270 26598.16012585 0 -78.10827603 0 9472.65069047 0 1064.34936784 0 2080.55626737 0 5721
0.07450000 0.07449140 26358.00140053 0 475.87301945 0 7978.71726432 0 1869.80563677 0 2358.68199449 0 6028
0.07550000 0.07549160 26469.49971146 0 -141.35040587 0 7357.71485454 0 1233.31304457 0 1341.91040640 0 6183
0.07650000 0.07648840 25717.24596328 0 244.65630366 0 7310.79034196 0 -29.46168477 0 2302.33493349 0 6330
0.07750000 0.07749960 25611.61598451 0 768.42377134 0 6987.51167423 0 -58.17443749 0 1049.43162461 0 6583
0.07850000 0.07848650 25045.82018627 0 306.06452433 0 8018.67728459 0 -1003.18252385 0 1501.25223286 0 6549
0.07950000 0.07947320 24736.45943084 0 612.54315362 0 8938.04563125 0 -113.15473072 0 598.35729106 0 6828
0.08050000 0.08048110 24158.37335206 0 730.11242024 0 9726.55017089 0 295.45502269 0 2879.69023883 0 7147
0.08150000 0.08149960 23527.02939090 0 691.44896920 0 8018.64406761 0 1021.89696725 0 -145.14267712 0 7386
0.08250000 0.08250610 22927.24155547 0 596.56689614 0 8427.75539734 0 1132.99778172 0 493.20785119 0 7227
0.08350000 0.08350160 22189.27110631 0 149.55610579 0 7507.24660121 0 25.20005767 0 874.49996480 0 7798
0.08450000 0.08449610 22632.38554555 0 152.75268597 0 7471.43870275 0 839.27557786 0 876.40219021 0 7371
0.08550000 0.08548940 22279.39983034 0 -233.01707581 0 7125.41747984 0 120.45692893 0 1535.10032983 0 8256
0.08650000 0.08650700 22564.18002467 0 196.79839409 0 6501.37018074 0 1686.95726472 0 466.51469051 0 8037
0.08750000 0.08749060 22253.71203676 0 579.27081754 0 6930.66635861 0 626.85634791 0 695.29106592 0 8155
0.08850000 0.08849210 21704.74617225 0 1124.88176763 0 6765.62228486 0 -829.16765253 0 753.72968908 0 8718
0.08950000 0.08949900 20958.91437246 0 810.05792713 0 7126.52471232 0 -461.29630383 0 1790.59422502 0 8571
0.09050000 0.09049190 20480.36849380 0 120.33402613 0 7201.11896463 0 -82.87435825 0 2799.50446250 0 8932
0.09150000 0.09150830 20550.12414016 0 92.24774555 0 7552.23345695 0 449.30497605 0 1900.74171232 0 9285
0.09250000 0.09250820 20369.86669211 0 -118.04648382 0 7077.20857758 0 860.05833154 0 1913.66311538 0 9204
0.09350000 0.09350330 20265.23322258 0 774.49583427 0 7134.71823269 0 238.44030050 0 288.95335356 0 9349
0.09450000 0.09448040 19408.56745136 0 781.83235670 0 6790.04783341 0 -449.93388410 0 879.64748861 0 9564
0.09550000 0.09549270 18620.77154051 0 666.01916079 0 6526.12789903 0 439.37420792 0 674.64228736 0 10155
0.09650000 0.09649430 18240.43718299 0 461.93849867 0 5948.51793022 0 764.81197899 0 1828.98197517 0 9913
0.09750000 0.09749140 17876.15769646 0 140.62849029 0 5667.42482005 0 730.35379692 0 449.30054712 0 10476
0.09850000 0.09850240 17620.49771639 0 78.81712627 0 5378.93539690 0 886.99286890 0 -164.18818304 0 10575
0.09950000 0.09950330 17667.88726662 0 323.82674781 0 4342.30005808 0 104.12956803 0 -58.46497529 0 10882
0.10050000 0.10051200 17311.91202370 0 315.75834471 0 4349.86245593 0 -425.08315828 0 -74.78226038 0 10875
0.10150000 0.10150300 16921.39112734 0 257.40276399 0 4823.13790798 0 -225.74809456 0 -416.70583732 0 11118
0.10250000 0.10250800 17032.11437553 0 380.65656217 0 4789.86557190 0 -155.94262275 0 -433.92330241 0 11575
0.10350000 0.10349800 16495.88168456 0 173.74138489 0 4736.28659210 0 767.34864860 0 319.03907456 0 11364
0.10450000 0.10450100 16370.54296762 0 223.98427322 0 4411.36922030 0 545.89440160 0 -736.39707181 0 12093
0.10550000 0.10551000 16148.43213175 0 385.87273439 0 4829.99167704 0 367.29226612 0 -326.85392141 0 12067
0.10650000 0.10649700 15863.65193742 0 281.03442685 0 4900.71061566 0 -269.53692476 0 -597.64201888 0 12054
0.10750000 0.10749900 15626.26129331 0 526.21445147 0 4926.74165130 0 -145.03306110 0 926.15457455 0 12807
0.10850000 0.10850100 15344.02773368 0 33.52733172 0 4685.55319978 0 123.13421708 0 521.05806980 0 12736
0.10950000 0.10950300 15577.32161761 0 41.73059573 0 5279.99310232 0 658.07698220 0 -74.29640677 0 12933
0.11050000 0.11050200 15373.92301069 0 -122.73339892 0 5003.99326156 0 485.29446064 0 449.31051221 0 13428
0.11150000 0.11150900 15177.27852191 0 234.69121132 0 4888.38711813 0 334.72523713 0 -194.25175939 0 13453
0.11250000 0.11250000 15178.71792414 0 443.39678353 0 4703.83360806 0 549.93358570 0 646.38349996 0 13668
0.11350000 0.11349100 14899.03099922 0 108.63855087 0 4241.17651551 0 297.09594123 0 551.57561147 0 13791
0.11450000 0.11448600 14517.25723947 0 -38.26684036 0 4185.83703607 0 305.18427451 0 1024.66615569 0 14205
0.11550000 0.11549300 14731.39600146 0 130.99335323 0 3705.54173008 0 81.56472367 0 409.76570412 0 14776
0.11650000 0.11649800 14581.80889316 0 404.55949699 0 4076.58640708 0 403.70028459 0 1102.43595075 0 14553
0.11750000 0.11747300 14368.33447066 0 214.72891691 0 3936.37755790 0 -248.06768693 0 1276.32902649 0 14568
0.11850000 0.11849100 14066.06000311 0 180.92068030 0 4493.66981067 0 -113.11487035 0 1492.82619367 0 16015
0.11950000 0.11950300 14150.43111823 0 265.73136672 0 4441.02090616 0 -79.40628467 0 1376.86573585 0 15270
0.12050000 0.12050700 14267.90848456 0 -268.56256017 0 4792.58936380 0 269.14164276 0 952.82559057 0 15999
0.12150000 0.12150000 14094.95877089 0 -51.24028335 0 4426.25042485 0 6.63169144 0 1308.37233452 0 15670
0.12250000 0.12250700 14217.08651364 0 211.83239673 0 4741.03661945 0 209.96006661 0 519.34296669 0 16887
0.12350000 0.12352200 13970.50583993 0 115.02927531 0 4328.79182180 0 15.36805468 0 848.67930333 0 16407
0.12450000 0.12449800 13900.97164007 0 227.91827023 0 4246.98948604 0 97.69699021 0 116.71116145 0 16306
0.12550000 0.12549900 13825.45838480 0 285.96161139 0 4272.65513497 0 112.85799241 0 293.91154061 0 17523
0.12650000 0.12650100 13184.37077780 0 285.72577088 0 4025.05580737 0 146.85778023 0 -60.71398591 0 17154
0.12750000 0.12750600 13285.90399639 0 198.26879883 0 3867.95059052 0 344.88520238 0 646.28384904 0 18007
0.12850000 0.12850300 12972.11431103 0 61.30978771 0 3858.81592255 0 268.18056497 0 204.23013851 0 17496
0.12950000 0.12949900 12974.99311548 0 48.00284630 0 3512.37395130 0 474.43693892 0 252.94393878 0 18405
0.13050000 0.13049000 12885.86090069 0 132.72063590 0 3686.24266792 0 120.45692893 0 -24.44946477 0 18100
0.13150000 0.13148800 12857.18357941 0 257.50573661 0 3656.42489719 0 -97.34378305 0 192.62744933 0 19059
0.13250000 0.13249300 12533.53952496 0 336.82344268 0 3932.44688259 0 -354.69749664 0 399.57141466 0 18957
0.13350000 0.13349100 12245.21618669 0 584.59992747 0 3778.96231595 0 -43.00579538 0 751.04022138 0 19468
0.13450000 0.13450700 11979.48039104 0 213.15443232 0 4030.30408934 0 309.94537418 0 884.75515205 0 19953
0.13550000 0.13551000 11785.93615321 0 39.16480590 0 4129.35710717 0 294.99662845 0 851.54703546 0 19956
0.13650000 0.13649900 11745.85433736 0 104.41789137 0 3822.18867205 0 567.19644732 0 794.64635821 0 19723
0.13750000 0.13749600 11664.36202670 0 166.15462793 0 3818.62338345 0 17.58351615 0 1148.02292650 0 20946
0.13850000 0.13851100 11404.93745620 0 172.49907005 0 3204.19793462 0 338.66366307 0 673.72992780 0 20955
0.13950000 0.13949800 11534.37293333 0 -155.02583425 0 3299.89603803 0 35.62908042 0 1037.28528429 0 20506
0.14050000 0.14048300 11522.74699227 0 -41.70402215 0 2788.54286093 0 271.42807784 0 52.62830999 0 21447
0.14150000 0.14148400 11437.60081441 0 111.93234606 0 2829.83156018 0 83.09403317 0 -32.50181300 0 21771
0.14250000 0.14249400 11407.81626065 0 229.52375733 0 2767.72689027 0 193.52320041 0 207.75888843 0 22470
0.14350000 0.14350900 11006.11231623 0 260.44543885 0 2598.57498401 0 211.98962375 0 345.81195597 0 22519
0.14450000 0.14449900 10988.03120980 0 52.90788619 0 2834.38228568 0 332.24725083 0 448.66499567 0 22218
0.14550000 0.14550500 10880.96182881 0 97.21766927 0 2688.33832132 0 218.31192122 0 580.37694279 0 23559
0.14650000 0.14650700 10805.86932189 0 146.98068304 0 2803.80052453 0 303.34626859 0 645.00942445 0 23044
0.14750000 0.14750500 10722.92653667 0 133.24878580 0 2773.81666892 0 -241.99673124 0 629.12617450 0 23649
0.14850000 0.14849900 10691.51435116 0 221.86724472 0 3061.50888468 0 -511.12730167 0 737.84976082 0 23640
0.14950000 0.14949500 10561.33702827 0 252.54754956 0 3190.77827694 0 -365.21731245 0 722.54337899 0 24457
0.15050000 0.15050000 10257.51243524 0 190.38087463 0 3182.97228794 0 -291.65389358 0 930.98432263 0 24591
0.15150000 0.15149900 10331.73022850 0 51.37746945 0 3161.52519477 0 355.07284845 0 632.16774213 0 25020
0.15250000 0.15250500 10278.67164797 0 -39.60028044 0 3038.62238928 0 467.73153901 0 490.18289205 0 25297
0.15350000 0.15350100 10134.27746001 0 244.86224890 0 2951.48319296 0 174.96930571 0 300.22940916 0 25452
0.15450000 0.15450400 10040.73845994 0 175.69565022 0 2934.83041643 0 -116.41774484 0 233.23298614 0 26061
0.15550000 0.15549900 9908.36881674 0 174.80875700 0 2953.36548818 0 -149.91152742 0 293.47529102 0 26128
0.15650000 0.15649500 9714.71385566 0 249.09076975 0 3058.77402045 0 -153.98835742 0 222.83718037 0 26331
0.15750000 0.15749700 9456.30793904 0 239.97049579 0 2892.20196588 0 -23.38663231 0 155.46097662 0 27345
0.15850000 0.15849900 9373.95198704 0 199.82999663 0 2726.00637035 0 411.07556015 0 -220.72347356 0 26980
0.15950000 0.15949700 9226.77864555 0 -48.64160871 0 2522.67419738 0 475.69143332 0 -48.78477387 0 27777
0.16050000 0.16050000 9173.04465320 0 186.10031385 0 2526.31699225 0 323.03396935 0 -422.09695227 0 28224
0.16150000 0.16150500 9021.27629692 0 232.36048695 0 2334.73255591 0 -125.30217828 0 59.88356155 0 28075
0.16250000 0.16249700 8812.52975711 0 199.19444518 0 2384.72410247 0 100.07443979 0 459.49594381 0 28590
0.16350000 0.16349900 8804.31409209 0 25.04814537 0 2516.96087777 0 -0.71779446 0 255.18165563 0 29163
0.16450000 0.16449100 8749.84932631 0 62.68330960 0 2500.98351306 0 94.75153036 0 506.59318466 0 28996
0.16550000 0.16550500 8770.42170582 0 -43.43628737 0 2630.72901529 0 -5.50768439 0 458.20712520 0 30777
0.16650000 0.16650700 8801.31349207 0 -24.16911351 0 2647.88004643 0 53.61684715 0 593.44117884 0 29211
0.16750000 0.16749900 8733.63944278 0 149.31915804 0 2492.90071594 0 91.50601051 0 195.89599962 0 30922
0.16850000 0.16850800 8527.28452513 0 345.73223523 0 2435.12532504 0 115.06138505 0 365.98351732 0 30867
0.16950000 0.16949900 8231.57594620 0 271.44468632 0 2285.30569792 0 -82.03629398 0 -5.43812805 0 30852
0.17050000 0.17049200 8126.38886042 0 84.33180836 0 2395.09887082 0 89.58285841 0 147.87643412 0 31257
0.17150000 0.17149500 8066.04469016 0 -22.83423403 0 2287.18799314 0 66.04320657 0 -387.03754297 0 32608
0.17250000 0.17250900 8043.72288333 0 76.30603372 0 2098.48236125 0 106.11140345 0 -387.93550851 0 32361
0.17350000 0.17350400 8102.02974582 0 15.25312395 0 2213.13628475 0 -97.83340125 0 -159.08273406 0 32508
0.17450000 0.17449800 8062.70084807 0 57.73696994 0 2172.52299732 0 59.98144090 0 -170.35214626 0 32791
0.17550000 0.17549800 8077.34953380 0 119.34526752 0 2239.06766948 0 88.23203478 0 29.00816235 0 33633
0.17650000 0.17650100 7982.95796472 0 156.12088718 0 2255.98618180 0 119.12935719 0 71.74534313 0 33984
0.17750000 0.17750300 7816.86202012 0 224.97635353 0 2304.44974753 0 66.54511505 0 492.40178594 0 34069
0.17850000 0.17849800 7718.06366576 0 95.57154673 0 2287.05512524 0 278.39367738 0 430.60492666 0 34536
