### header ###
fiducial parameters:
Omega_m = 0.31
Omega_nu = 0
Omega_de = 0.69
Omega_k = 0
H_0 = 100
w_de = -1
zeff = 0
beta = 0
fgrowth = 0
b_1 = 2
gamma = 0.55
Lx = 3500 Ly = 3500 Lz = 3500
nx = 700 ny = 700 nz = 700
xoffset = -685.467585 yoffset = -31.7331281 zoffset = 572.489161
bins = 400 dk = 0.001
kx_ny = 0.628318531 ky_ny = 0.628318531 kz_ny = 0.628318531
############################
A(data) = 8.08834828 (not used)
A(ran) = 8.08967878 (used)
Ngal = 480270
weighted Ngal = 0
Nran = 23820508
weighted Nran = 0
SN(data) = 3483.1328
SN(ran) = 70.464036
SN(data+ran) = 3553.59683
############################
13 columns: k_central k_mean P_0(k) sigma^{lin}_{P_0(k)} P^img_1(k) sigma^{lin}_{P_1(k)} P_2(k) sigma^{lin}_{P_2(k)} P^img_3(k) sigma^{lin}_{P_3(k)} P_4(k) sigma^{lin}_{P_4(k)} N_modes
### header ###
0.00050000 0 0 0 0 0 0 0 0 0 0 0 0
0.00150000 0.00179520 82371.67470233 0 -30829.55977854 0 76170.28701791 0 6266.94691968 0 -146879.92488175 0 3
0.00250000 0.00253879 127064.89238630 0 9514.48193364 0 48992.71213430 0 50050.34060098 0 139387.28267697 0 6
0.00350000 0.00331552 111882.52059498 0 23384.97146348 0 44537.09790403 0 -14041.14727227 0 155113.30561690 0 7
0.00450000 0.00420575 83469.82787785 0 25362.15650634 0 41196.79895274 0 8811.82112832 0 35546.59159778 0 24
0.00550000 0.00557378 111530.42066574 0 -22906.20413832 0 90567.29880985 0 66133.88890929 0 -47969.51859781 0 45
0.00650000 0.00659388 112924.42636041 0 -4740.46085856 0 132741.67332082 0 58920.38001319 0 13531.93105386 0 40
0.00750000 0.00754703 97249.55756115 0 50756.20130816 0 77927.24352013 0 26796.35474010 0 38863.08505071 0 57
0.00850000 0.00846663 92440.73616916 0 23700.53272081 0 85509.12866295 0 33460.67632520 0 36204.73058500 0 75
0.00950000 0.00948925 79038.01914594 0 -2010.85598264 0 94907.65013876 0 49483.21612376 0 24238.86915349 0 112
0.01050000 0.01054430 88100.38484025 0 -1803.03951812 0 95276.80144821 0 40336.14714458 0 19160.32592892 0 105
0.01150000 0.01145670 77583.44783451 0 6123.64889188 0 64233.32435417 0 48566.31690553 0 12408.64370101 0 144
0.01250000 0.01249090 81492.86428148 0 -1594.56978643 0 54190.28285067 0 41337.30675469 0 28970.29499500 0 169
0.01350000 0.01339930 70143.17772612 0 -3370.16101133 0 32368.39148184 0 27542.96160262 0 18104.24758772 0 180
0.01450000 0.01448870 80757.32974378 0 4959.27214162 0 28462.29673232 0 24306.74250463 0 10945.01522788 0 267
0.01550000 0.01550050 73657.64434681 0 -652.65929367 0 11504.69910281 0 12224.40021603 0 25822.32232581 0 238
0.01650000 0.01653350 72455.52204125 0 630.11050417 0 9151.53112608 0 4077.46112074 0 -1365.73804941 0 315
0.01750000 0.01747870 74720.14463641 0 -3487.68266695 0 12415.61926564 0 -3404.85060498 0 1074.66877457 0 297
0.01850000 0.01844180 79441.38393908 0 707.98105739 0 12019.23003714 0 3208.22826085 0 -3927.38683015 0 388
0.01950000 0.01947590 77916.39264181 0 3209.22477009 0 14137.58722144 0 -10129.80424078 0 10601.23061459 0 399
0.02050000 0.02045430 77340.63175124 0 5259.32107188 0 24739.44895854 0 -4527.07501465 0 12894.27586755 0 462
0.02150000 0.02154770 69260.71343808 0 3257.62190187 0 24880.51037673 0 10390.11459727 0 22973.96676621 0 571
0.02250000 0.02255340 69893.27535497 0 1407.92360696 0 22496.63884328 0 17849.58411689 0 24344.94202525 0 510
0.02350000 0.02348930 68744.85382478 0 -176.11861303 0 21215.68158501 0 19615.39847897 0 24406.28270475 0 555
0.02450000 0.02439640 69926.93522242 0 -345.36241958 0 22814.52528882 0 6622.64535448 0 31352.94857272 0 592
0.02550000 0.02547300 66741.42737209 0 3057.40105217 0 23640.40999704 0 -1728.31239792 0 27815.67296291 0 837
0.02650000 0.02652900 65355.28302805 0 3966.79323418 0 21700.31724232 0 -5968.97958648 0 30830.33484128 0 723
0.02750000 0.02749970 63995.15864732 0 1511.19518055 0 24385.24528759 0 -1308.27268360 0 24397.97846114 0 826
0.02850000 0.02848090 65275.34084285 0 -148.70575124 0 23815.68489892 0 3415.80113423 0 17787.24692816 0 831
0.02950000 0.02946900 64028.48634503 0 -1961.94952392 0 20699.04690897 0 7719.08231964 0 12243.44461471 0 996
0.03050000 0.03053250 62718.51959573 0 2627.60661969 0 22146.53193251 0 8076.53018176 0 8368.18628981 0 1041
0.03150000 0.03150510 60413.37229174 0 2975.29976364 0 13353.88807078 0 3938.90204796 0 11436.16141219 0 1036
0.03250000 0.03246190 58040.90525285 0 597.09836773 0 13001.45597180 0 6677.49765163 0 4484.04796041 0 1059
0.03350000 0.03345080 56336.65301676 0 469.14658212 0 9232.63590538 0 2600.81159363 0 12930.26092322 0 1302
0.03450000 0.03451200 55918.00841537 0 3014.90546952 0 11562.05374538 0 2286.01432671 0 9403.60367290 0 1339
0.03550000 0.03553350 51072.09473524 0 3512.35180665 0 10809.86643115 0 -2894.40535852 0 19066.87550745 0 1365
0.03650000 0.03647120 51118.48777623 0 1035.03649512 0 9739.84803300 0 1462.41051740 0 12265.03564811 0 1308
0.03750000 0.03744890 49842.29161763 0 1511.79308609 0 16569.06975162 0 -792.51050675 0 12246.87703541 0 1579
0.03850000 0.03847530 50322.83051476 0 1228.08690726 0 13126.24107251 0 -885.88895811 0 8848.69196997 0 1662
0.03950000 0.03950240 46620.90943490 0 465.02657006 0 20175.87956129 0 -3358.65686584 0 9389.54182038 0 1683
0.04050000 0.04050350 49672.66360141 0 1060.48291202 0 19520.84082502 0 -1541.72158007 0 8918.19295285 0 1822
0.04150000 0.04152450 45983.91858808 0 1938.24367648 0 20158.38528808 0 3594.92920514 0 6821.96934586 0 1887
0.04250000 0.04250150 44771.83119018 0 1712.51219040 0 16104.91789522 0 4775.21688616 0 7946.23106330 0 1920
0.04350000 0.04349210 44580.61214056 0 61.65037242 0 12069.27694532 0 6694.60439347 0 2616.91075391 0 2005
0.04450000 0.04448520 44071.72809190 0 905.52461895 0 12420.04819557 0 -505.68082509 0 2880.15527648 0 2151
0.04550000 0.04548030 42629.44706102 0 1168.87211413 0 10030.74015063 0 -1362.05096524 0 -612.70702402 0 2274
0.04650000 0.04648670 40791.99475737 0 1089.44922097 0 7620.06251879 0 -1607.97837179 0 519.06726580 0 2311
0.04750000 0.04749250 41003.03326841 0 -295.86802041 0 8958.66230007 0 533.50447013 0 -1305.34958984 0 2568
0.04850000 0.04851840 41761.04462550 0 220.91613201 0 11745.30072112 0 -612.80113879 0 -5120.41875703 0 2493
0.04950000 0.04949480 41297.66783184 0 1530.56067666 0 10619.03491290 0 -853.79139570 0 -2291.52834447 0 2644
0.05050000 0.05050630 38748.04359585 0 2708.74461596 0 13706.32016975 0 -1384.69386950 0 966.32939792 0 2829
0.05150000 0.05149060 37904.33244466 0 2216.46905452 0 13633.24282595 0 -2068.95247096 0 1804.81109009 0 2784
0.05250000 0.05249300 35101.15197033 0 944.45712747 0 14122.19668994 0 5811.96294823 0 3380.55792433 0 3055
0.05350000 0.05348950 34589.16767071 0 -129.92930282 0 12639.16950373 0 4478.99898029 0 5637.76206186 0 3009
0.05450000 0.05448610 34425.07581690 0 -225.79792003 0 14752.87631161 0 3691.76775801 0 2494.34011817 0 3336
0.05550000 0.05550870 33535.85741072 0 1915.23538551 0 12374.76238706 0 664.65062145 0 3106.42930647 0 3349
0.05650000 0.05647670 32067.88858626 0 2754.31830491 0 12557.23430007 0 -1146.08526965 0 6437.98112115 0 3324
0.05750000 0.05747970 30930.87155063 0 744.83418332 0 11748.73314182 0 -899.42155351 0 7272.66832761 0 3639
0.05850000 0.05849280 30702.67093612 0 -186.10585002 0 12129.39966908 0 875.05800997 0 5335.64260686 0 3846
0.05950000 0.05951020 31338.77599695 0 -1178.90364042 0 10544.03098457 0 1324.61543503 0 1052.86293808 0 3787
0.06050000 0.06049470 31871.35482073 0 -744.89951003 0 10775.07718656 0 755.82235847 0 1989.81856548 0 3930
0.06150000 0.06148310 31954.06508712 0 223.63549499 0 9839.47681171 0 1075.19360277 0 2125.32167661 0 4083
0.06250000 0.06249100 32657.71132935 0 106.91381483 0 8622.26292743 0 469.56733047 0 563.38313865 0 4303
0.06350000 0.06350600 31949.41471070 0 193.63281643 0 8900.02326783 0 218.29531273 0 -298.53312899 0 4470
0.06450000 0.06451750 31948.52892471 0 554.19975245 0 8760.13551607 0 -674.03330950 0 -1515.34730236 0 4479
0.06550000 0.06550280 31669.39561604 0 204.15927563 0 9430.55371151 0 -8.75310459 0 -951.80029329 0 4636
0.06650000 0.06648880 31424.69723754 0 882.97029329 0 8347.79106750 0 232.66276141 0 -939.22323953 0 4653
0.06750000 0.06749660 31022.32895364 0 770.52197690 0 8930.23964226 0 -536.58257643 0 -1259.03405513 0 5220
0.06850000 0.06852730 30339.83085181 0 899.03623660 0 10021.36189151 0 346.17955715 0 -525.32202209 0 5029
0.06950000 0.06949320 30180.27865118 0 611.89763708 0 10846.81477906 0 -2441.90158783 0 -853.77700167 0 5040
0.07050000 0.07048030 29522.80400345 0 823.26831787 0 11228.00170560 0 703.84000791 0 -450.04128565 0 5475
0.07150000 0.07148790 29653.90032930 0 209.86041568 0 11410.14144886 0 189.37661477 0 1909.55528287 0 5509
0.07250000 0.07249820 29091.75839826 0 -39.28538352 0 11985.45944644 0 754.19915565 0 -410.46768951 0 5916
0.07350000 0.07351270 29482.05784811 0 566.62179366 0 13167.43012083 0 116.63697687 0 1109.07048778 0 5721
0.07450000 0.07449140 28441.03786866 0 1281.78768263 0 13404.71004169 0 4.65322201 0 1719.03378972 0 6028
0.07550000 0.07549160 26685.85293841 0 1604.01447950 0 11865.54616865 0 2151.81774991 0 2043.04323089 0 6183
0.07650000 0.07648840 25527.13414614 0 693.79298037 0 11096.35176350 0 1440.77519470 0 752.35339910 0 6330
0.07750000 0.07749960 25283.10010714 0 645.43349449 0 11152.04555734 0 1416.20570593 0 783.87298616 0 6583
0.07850000 0.07848650 24493.42190107 0 301.89025788 0 9991.22302335 0 1091.42230926 0 872.26667689 0 6549
0.07950000 0.07947320 24316.15398073 0 -264.47797955 0 8574.24225469 0 469.36913585 0 467.97845185 0 6828
0.08050000 0.08048110 24568.71370984 0 -82.64294666 0 7971.96314618 0 416.95607186 0 -287.43976676 0 7147
0.08150000 0.08149960 24343.17045328 0 657.53333105 0 8888.15373562 0 933.29622406 0 652.81984238 0 7386
0.08250000 0.08250610 23779.47839677 0 885.28773087 0 8022.60795990 0 809.78665517 0 1269.29810024 0 7227
0.08350000 0.08350160 22558.53313901 0 863.28037807 0 7936.75315325 0 1894.91766946 0 2427.20861279 0 7798
0.08450000 0.08449610 22185.94940887 0 319.37567323 0 8195.69054146 0 1804.12460595 0 2528.40966164 0 7371
0.08550000 0.08548940 22095.70996159 0 330.10254152 0 7189.40444497 0 1507.86241078 0 3062.99257621 0 8256
0.08650000 0.08650700 21875.14925121 0 -189.26256982 0 6936.15823172 0 -469.26173430 0 2922.09724289 0 8037
0.08750000 0.08749060 21395.60686331 0 853.08608860 0 7479.46613824 0 -569.05216896 0 4888.76357718 0 8155
0.08850000 0.08849210 20961.35028392 0 528.28497621 0 7006.32355409 0 -380.59344992 0 3618.88971605 0 8718
0.08950000 0.08949900 20733.70328565 0 -306.55392109 0 6934.59703392 0 763.69256695 0 3704.17983413 0 8571
0.09050000 0.09049190 20954.81761228 0 -209.46402645 0 7666.24518561 0 186.44244869 0 1391.16010719 0 8932
0.09150000 0.09150830 20675.13068736 0 631.63405607 0 7436.72696444 0 151.68863555 0 1392.68808801 0 9285
0.09250000 0.09250820 20148.42019574 0 1179.70084780 0 7355.15714750 0 -301.26467153 0 1618.17598295 0 9204
0.09350000 0.09350330 19458.50363629 0 746.24369027 0 7427.31548835 0 -823.74885677 0 2271.13312215 0 9349
0.09450000 0.09448040 18999.00215632 0 362.63746076 0 7120.13598090 0 1099.95132106 0 1724.19349308 0 9564
0.09550000 0.09549270 18806.56515097 0 -244.60869266 0 6976.25111989 0 592.41255986 0 1733.28387176 0 10155
0.09650000 0.09649430 18776.00553447 0 32.08981179 0 5387.00712169 0 1448.71405160 0 845.90125703 0 9913
0.09750000 0.09749140 18576.37151799 0 527.04155414 0 5488.77285910 0 1179.92229430 0 247.39116789 0 10476
0.09850000 0.09850240 17874.82901748 0 363.85320203 0 4207.63844363 0 681.53038063 0 819.29446049 0 10575
0.09950000 0.09950330 17583.84832124 0 172.29533927 0 3709.06272937 0 895.21517731 0 405.83945774 0 10882
0.10050000 0.10051200 17412.78090280 0 142.12657584 0 3168.43432545 0 262.88356477 0 986.15107381 0 10875
0.10150000 0.10150300 17088.91540185 0 360.11739963 0 2935.33974337 0 361.95319109 0 9.74909342 0 11118
0.10250000 0.10250800 16892.16018982 0 349.47025209 0 3040.87007122 0 -247.76319800 0 182.61142430 0 11575
0.10350000 0.10349800 16229.81371917 0 365.55723282 0 3190.33538395 0 -579.95840891 0 -157.73523213 0 11364
0.10450000 0.10450100 16284.40028053 0 383.99265364 0 3499.75150100 0 -424.83292373 0 -845.60784042 0 12093
0.10550000 0.10551000 15965.51732575 0 430.67025338 0 4343.09726546 0 -706.22277221 0 -544.89235621 0 12067
0.10650000 0.10649700 15643.20195028 0 454.31188133 0 4719.03591003 0 -312.60716107 0 -417.28381267 0 12054
0.10750000 0.10749900 15763.22595131 0 53.17207186 0 4460.55248714 0 10.46944780 0 403.86304776 0 12807
0.10850000 0.10850100 15695.57404667 0 20.62884837 0 5190.17440339 0 427.27437136 0 327.78731840 0 12736
0.10950000 0.10950300 15675.31169225 0 455.19102392 0 4942.66365439 0 429.13784362 0 432.24363074 0 12933
0.11050000 0.11050200 15435.15296694 0 393.65879321 0 5555.29538661 0 -225.59086755 0 154.78888650 0 13428
0.11150000 0.11150900 14830.38258534 0 391.83518131 0 5250.97253897 0 -78.99760516 0 985.51884406 0 13453
0.11250000 0.11250000 15000.34277131 0 164.84145020 0 6144.22127139 0 -318.63161300 0 905.70952677 0 13668
0.11350000 0.11349100 14525.45075984 0 156.30690223 0 5679.48258178 0 26.19069857 0 392.95791505 0 13791
0.11450000 0.11448600 14610.92910744 0 134.22093592 0 5853.70561280 0 352.50406909 0 258.42031064 0 14205
0.11550000 0.11549300 14367.22723818 0 3.42233381 0 5454.07219312 0 129.75768178 0 6.88108449 0 14776
0.11650000 0.11649800 14247.86757663 0 289.68744870 0 5461.42421680 0 626.84749005 0 680.19284379 0 14553
0.11750000 0.11747300 14066.17072636 0 178.55673896 0 5160.88810424 0 402.16344590 0 559.76913183 0 14568
0.11850000 0.11849100 13873.73372101 0 261.57924491 0 4935.86524696 0 622.99321378 0 542.99455973 0 16015
0.11950000 0.11950300 13613.64481102 0 249.44286968 0 4909.14772717 0 109.40597370 0 247.28487357 0 15270
0.12050000 0.12050700 13423.09010089 0 242.96888136 0 5056.70860003 0 -54.88385328 0 392.77632892 0 15999
0.12150000 0.12150000 13397.40230731 0 170.25138811 0 5122.67751130 0 -58.88782738 0 1615.99473496 0 15670
0.12250000 0.12250700 13469.70458838 0 -156.80958578 0 5256.88516042 0 580.00269821 0 1821.75174706 0 16887
0.12350000 0.12352200 13542.56048569 0 -123.37670099 0 5159.36012342 0 843.06009848 0 1561.08707618 0 16407
0.12450000 0.12449800 13716.28526209 0 240.65033654 0 5777.35086085 0 34.94458930 0 1528.37942867 0 16306
0.12550000 0.12549900 13431.94796075 0 475.90070026 0 5524.80220406 0 -299.30819173 0 2670.73332486 0 17523
0.12650000 0.12650100 13097.23158148 0 497.11638185 0 6101.10563854 0 -285.59954637 0 2442.57699964 0 17154
0.12750000 0.12750600 12727.30520929 0 200.43786726 0 5872.21853989 0 -255.00560567 0 2644.19296227 0 18007
0.12850000 0.12850300 12746.23888473 0 10.46013598 0 6431.75847460 0 328.40072519 0 2092.75796932 0 17496
0.12950000 0.12949900 12703.16754118 0 -9.17916765 0 5694.06483356 0 475.70250565 0 1545.55260446 0 18405
0.13050000 0.13049000 12454.37240251 0 28.06723618 0 5134.72420070 0 582.16733771 0 1223.07114412 0 18100
0.13150000 0.13148800 12601.74504585 0 5.96744053 0 4571.33109695 0 544.02760764 0 387.17926872 0 19059
0.13250000 0.13249300 12467.88063879 0 -2.72179889 0 4290.93554324 0 358.48201726 0 582.71763225 0 18957
0.13350000 0.13349100 12524.79238836 0 -99.42991976 0 4013.83954233 0 278.68266506 0 -43.99355748 0 19468
0.13450000 0.13450700 12268.13589906 0 252.39364424 0 3607.79524658 0 -46.16639050 0 -139.48361190 0 19953
0.13550000 0.13551000 12008.71132856 0 386.30234060 0 3779.43842592 0 39.48856068 0 -93.38221595 0 19956
0.13650000 0.13649900 11993.76369005 0 136.78750081 0 3281.80385927 0 138.60446931 0 96.65951337 0 19723
0.13750000 0.13749600 11917.03247906 0 -118.21146146 0 3496.35229728 0 363.10803457 0 347.19931827 0 20946
0.13850000 0.13851100 12040.71034729 0 26.82580712 0 3530.76508282 0 400.85248264 0 -301.43850703 0 20955
0.13950000 0.13949800 11742.97553291 0 264.82565055 0 3622.34428139 0 28.24572206 0 -1.15337086 0 20506
0.14050000 0.14048300 11552.31009953 0 477.08543902 0 3444.20164739 0 -282.04975904 0 -143.96236729 0 21447
0.14150000 0.14148400 11390.98632693 0 296.21458418 0 3699.00905844 0 -335.74831994 0 218.81681923 0 21771
0.14250000 0.14249400 10975.34232556 0 439.86028298 0 3588.39653350 0 70.14849244 0 463.84958193 0 22470
0.14350000 0.14350900 10925.61651480 0 116.75434352 0 3645.44115097 0 123.56493051 0 306.64803585 0 22519
0.14450000 0.14449900 10811.15082082 0 -87.07088008 0 3816.26497827 0 275.05204975 0 700.99774213 0 22218
0.14550000 0.14550500 10956.25363757 0 -110.63001921 0 3834.21321680 0 485.70413666 0 587.67692654 0 23559
0.14650000 0.14650700 11061.59573590 0 -40.81757183 0 3649.33860930 0 378.66022201 0 441.16792454 0 23044
0.14750000 0.14750500 11052.99253951 0 134.08031739 0 3498.87678734 0 -11.07996472 0 440.09280180 0 23649
0.14850000 0.14849900 10883.46417421 0 264.84668796 0 3558.34624394 0 122.45216187 0 738.85180622 0 23640
0.14950000 0.14949500 10649.88240984 0 236.51150152 0 3333.24588038 0 91.37269972 0 700.31347245 0 24457
0.15050000 0.15050000 10385.15419575 0 213.85309601 0 3331.50752538 0 547.12453689 0 509.22286180 0 24591
0.15150000 0.15149900 10218.85894930 0 171.14603195 0 2782.26485275 0 218.94193650 0 10.44416969 0 25020
0.15250000 0.15250500 10001.04417547 0 171.20250081 0 2626.65439975 0 45.34615268 0 -89.44722243 0 25297
0.15350000 0.15350100 9992.78422115 0 119.03081350 0 2800.91064775 0 -217.26558652 0 60.63038986 0 25452
0.15450000 0.15450400 9744.08873340 0 174.53748505 0 2612.59254723 0 -217.17811516 0 123.56160881 0 26061
0.15550000 0.15549900 9591.09134906 0 241.55826717 0 2873.41223066 0 75.20965212 0 114.98609324 0 26128
0.15650000 0.15649500 9515.03554988 0 149.27929767 0 2961.43721297 0 138.55796555 0 -295.25682808 0 26331
0.15750000 0.15749700 9229.98961975 0 324.04708707 0 3201.37449179 0 314.97553135 0 -8.77000096 0 27345
0.15850000 0.15849900 9122.59914133 0 201.33361834 0 2930.96617507 0 4.22633960 0 -151.07412152 0 26980
0.15950000 0.15949700 8906.87703689 0 114.50223265 0 2993.86805236 0 38.39406137 0 -29.39879397 0 27777
0.16050000 0.16050000 8877.74575029 0 99.91178734 0 2802.39433927 0 -53.18591227 0 139.31752703 0 28224
0.16150000 0.16150500 8794.57044625 0 45.86444820 0 2791.45488235 0 -49.00821339 0 -126.61978493 0 28075
0.16250000 0.16249700 8726.53101024 0 182.81736955 0 2778.50026232 0 -67.20004307 0 -252.16333988 0 28590
0.16350000 0.16349900 8641.20767519 0 74.42440284 0 2893.50850021 0 -70.49328464 0 -287.89373207 0 29163
0.16450000 0.16449100 8526.04442475 0 176.65451355 0 3011.24053000 0 -155.01808362 0 -145.14932051 0 28996
0.16550000 0.16550500 8508.83803198 0 129.94812577 0 3024.98128510 0 69.71113561 0 189.20499373 0 30777
0.16650000 0.16650700 8496.47024516 0 -91.08559433 0 3117.01444900 0 259.33377744 0 449.88627310 0 29211
0.16750000 0.16749900 8476.86115791 0 65.95174917 0 3097.50501267 0 391.52183452 0 509.27268727 0 30922
0.16850000 0.16850800 8481.55582363 0 102.28702246 0 3037.93590514 0 531.87351669 0 613.49426632 0 30867
0.16950000 0.16949900 8379.63507367 0 88.04004067 0 2737.27799702 0 343.51555580 0 724.65930027 0 30852
0.17050000 0.17049200 8309.30366643 0 17.93140860 0 2505.73354041 0 315.26673349 0 890.13187298 0 31257
0.17150000 0.17149500 8251.60578180 0 17.40336943 0 2372.63312376 0 264.19342080 0 603.43284476 0 32608
0.17250000 0.17250900 8259.81037449 0 -15.48586421 0 1993.22884153 0 207.94933242 0 746.77405463 0 32361
0.17350000 0.17350400 8252.23690431 0 73.19803214 0 1793.94913944 0 229.33220611 0 353.28466799 0 32508
0.17450000 0.17449800 8141.11505243 0 12.85120452 0 1626.50237121 0 166.55876778 0 246.93498811 0 32791
0.17550000 0.17549800 8014.81304323 0 116.35573982 0 1606.98186255 0 154.81324561 0 275.11294754 0 33633
0.17650000 0.17650100 7973.86758605 0 258.25644023 0 1428.57349275 0 47.12104635 0 71.43520731 0 33984
0.17750000 0.17750300 7815.79907693 0 104.55441314 0 1503.99816942 0 -8.37863856 0 367.12618124 0 34069
0.17850000 0.17849800 7658.60528148 0 210.95325414 0 1594.63622038 0 -59.16784647 0 723.44909516 0 34536
