### header ###
fiducial parameters:
Omega_m = 0.31
Omega_nu = 0
Omega_de = 0.69
Omega_k = 0
H_0 = 100
w_de = -1
zeff = 0
beta = 0
fgrowth = 0
b_1 = 2
gamma = 0.55
Lx = 3500 Ly = 3500 Lz = 3500
nx = 700 ny = 700 nz = 700
xoffset = -685.467585 yoffset = -31.7331281 zoffset = 572.489161
bins = 400 dk = 0.001
kx_ny = 0.628318531 ky_ny = 0.628318531 kz_ny = 0.628318531
############################
A(data) = 8.01471759 (not used)
A(ran) = 8.00813486 (used)
Ngal = 475888
weighted Ngal = 0
Nran = 23820508
weighted Nran = 0
SN(data) = 3496.35156
SN(ran) = 69.7537589
SN(data+ran) = 3566.10532
############################
13 columns: k_central k_mean P_0(k) sigma^{lin}_{P_0(k)} P^img_1(k) sigma^{lin}_{P_1(k)} P_2(k) sigma^{lin}_{P_2(k)} P^img_3(k) sigma^{lin}_{P_3(k)} P_4(k) sigma^{lin}_{P_4(k)} N_modes
### header ###
0.00050000 0 0 0 0 0 0 0 0 0 0 0 0
0.00150000 0.00179520 34080.61579179 0 -21212.91350380 0 4270.14171723 0 45857.80480839 0 -126090.52780226 0 3
0.00250000 0.00253879 67782.22590504 0 -25959.50843031 0 25308.89862397 0 3305.49863438 0 91225.65924356 0 6
0.00350000 0.00331552 66189.02908689 0 -1525.76636001 0 31247.09714745 0 -76485.18393575 0 55093.78455587 0 7
0.00450000 0.00420575 67231.82063831 0 21366.15447929 0 41377.94218677 0 -12334.56984797 0 59875.03585906 0 24
0.00550000 0.00557378 62876.18950115 0 -1998.98645043 0 60446.36781970 0 38743.94683566 0 10094.66068181 0 45
0.00650000 0.00659388 65310.21866603 0 -9606.29365103 0 88972.10897323 0 48951.74453247 0 18841.33225090 0 40
0.00750000 0.00754703 73217.18726553 0 10642.10963782 0 67393.36585741 0 54427.00915529 0 -5454.57044773 0 57
0.00850000 0.00846663 80965.04655737 0 17998.61760895 0 70793.34463948 0 24413.92260887 0 25268.48463838 0 75
0.00950000 0.00948925 73980.07044553 0 -5331.63442527 0 57965.72416733 0 22141.54938634 0 11845.17309099 0 112
0.01050000 0.01054430 70682.62139129 0 -2366.37726024 0 63990.17610115 0 24715.31129044 0 15274.71498032 0 105
0.01150000 0.01145670 90935.12144032 0 -6686.56588566 0 58744.66221832 0 41777.65311272 0 -14007.26595832 0 144
0.01250000 0.01249090 83379.14553758 0 -2897.67169434 0 49486.98071420 0 15359.30754193 0 -4979.63414696 0 169
0.01350000 0.01339930 95897.51597754 0 3830.69221751 0 47186.04089364 0 23650.26436613 0 -10036.88529091 0 180
0.01450000 0.01448870 83203.98135895 0 4043.32514332 0 39029.16992299 0 -1430.28970310 0 6000.71286941 0 267
0.01550000 0.01550050 87256.56296582 0 11694.92164320 0 39833.46359782 0 8911.69349819 0 652.25072488 0 238
0.01650000 0.01653350 72942.48288677 0 522.57165661 0 24859.03006658 0 9338.87486201 0 26667.58360246 0 315
0.01750000 0.01747870 75742.12021717 0 2619.56811187 0 24757.60757124 0 22617.88080004 0 18977.41112292 0 297
0.01850000 0.01844180 81380.59090782 0 -9094.55294257 0 18480.37446181 0 23413.31661501 0 20863.24948603 0 388
0.01950000 0.01947590 82657.89429890 0 -1328.11428967 0 13026.36870264 0 11175.51888596 0 21648.49876217 0 399
0.02050000 0.02045430 81496.96104166 0 4275.50072245 0 3055.24194883 0 3373.59343202 0 21267.94295815 0 462
0.02150000 0.02154770 78196.85462946 0 4857.82750163 0 15190.89748144 0 -8651.18383985 0 17169.18975679 0 571
0.02250000 0.02255340 73216.19075629 0 7098.32350101 0 18967.88892357 0 -5991.81072026 0 21346.11357137 0 510
0.02350000 0.02348930 68992.32028447 0 -1856.85101674 0 18875.87790433 0 4665.51229186 0 23358.84077691 0 555
0.02450000 0.02439640 70833.98007156 0 -2167.65117440 0 19722.02496697 0 1426.40331709 0 1292.26210191 0 592
0.02550000 0.02547300 75983.49689822 0 -396.42244548 0 24404.40040953 0 740.57798166 0 -761.49692494 0 837
0.02650000 0.02652900 71064.17370454 0 4944.61238356 0 24002.47501861 0 -3051.11197168 0 9317.33919024 0 723
0.02750000 0.02749970 62686.52057701 0 14865.48185502 0 15341.70254547 0 -8548.27765299 0 104.55419169 0 826
0.02850000 0.02848090 58862.69320089 0 4914.97177002 0 24426.76650566 0 -2570.68379779 0 674.94456183 0 831
0.02950000 0.02946900 55569.67307657 0 -628.28689228 0 33470.19852454 0 -3298.95489042 0 -7936.60921303 0 996
0.03050000 0.03053250 53924.98994801 0 2547.56478357 0 38186.23383455 0 -4917.58483868 0 -6295.91212140 0 1041
0.03150000 0.03150510 53157.89928458 0 4709.97874833 0 37279.63187840 0 8828.05315651 0 -11089.04402912 0 1036
0.03250000 0.03246190 48976.21437032 0 -108.75159931 0 32718.83056235 0 1951.91799763 0 454.21887380 0 1059
0.03350000 0.03345080 51546.54385372 0 -130.76194164 0 40313.89177170 0 8635.64936813 0 1562.92508210 0 1302
0.03450000 0.03451200 51174.51373981 0 48.52922462 0 32000.79029786 0 8581.62749534 0 -253.80979459 0 1339
0.03550000 0.03553350 50158.29576796 0 395.40046990 0 30308.60689583 0 6816.83178715 0 5422.98110503 0 1365
0.03650000 0.03647120 48298.36664492 0 629.39412476 0 30794.01761587 0 3023.65260613 0 4319.51321360 0 1308
0.03750000 0.03744890 49859.67516760 0 1493.28015899 0 22032.48698688 0 1030.67732084 0 -1234.74137448 0 1579
0.03850000 0.03847530 47781.51052239 0 -631.01179141 0 19225.98481510 0 1870.55855486 0 -389.64064653 0 1662
0.03950000 0.03950240 51215.37061839 0 -1874.64424272 0 17783.92523072 0 2373.44140348 0 -8976.32265815 0 1683
0.04050000 0.04050350 49435.49440380 0 -462.85639439 0 16750.76660189 0 -1091.98478336 0 -6379.60782471 0 1822
0.04150000 0.04152450 51800.10009207 0 1371.90533433 0 15844.93970848 0 274.29138103 0 -13443.13100881 0 1887
0.04250000 0.04250150 50454.36973361 0 1080.30015898 0 17560.37499263 0 -686.81963020 0 -3008.77140157 0 1920
0.04350000 0.04349210 49541.78872205 0 2417.46496695 0 18302.66364847 0 -754.67083669 0 -5925.06674625 0 2005
0.04450000 0.04448520 48434.99913318 0 2723.34901239 0 25061.43216427 0 221.27155364 0 549.00904658 0 2151
0.04550000 0.04548030 45162.90570278 0 3579.28401017 0 27183.55393901 0 -217.39845442 0 -960.25069159 0 2274
0.04650000 0.04648670 42891.19681973 0 3408.71484634 0 27584.15065095 0 1058.73680639 0 3913.08138648 0 2311
0.04750000 0.04749250 40006.41331148 0 1767.18733036 0 27170.59931897 0 5419.54868433 0 2024.34207427 0 2568
0.04850000 0.04851840 40268.05234695 0 -1790.29527225 0 22446.70265835 0 5829.90011444 0 1640.88532115 0 2493
0.04950000 0.04949480 40257.64436162 0 -2036.34447437 0 19800.74919643 0 6267.75519939 0 -627.28484688 0 2644
0.05050000 0.05050630 40802.18129620 0 -722.06505456 0 15948.90883852 0 1704.10829586 0 -490.73207936 0 2829
0.05150000 0.05149060 41802.78729006 0 1055.16930333 0 14949.07790740 0 4827.13501724 0 2113.40785511 0 2784
0.05250000 0.05249300 38872.71797330 0 1150.68028445 0 9601.13394767 0 1693.27956219 0 -1319.16785122 0 3055
0.05350000 0.05348950 39090.51060249 0 2391.82146267 0 10628.43531667 0 510.49285746 0 978.57538917 0 3009
0.05450000 0.05448610 36900.18330686 0 1871.93152314 0 14034.94677037 0 -1594.12689344 0 281.35995320 0 3336
0.05550000 0.05550870 35991.14543925 0 852.03643221 0 14389.70405756 0 -1841.62657011 0 2158.30613225 0 3349
0.05650000 0.05647670 35798.92988040 0 796.97708259 0 17358.19434144 0 -530.78621439 0 3793.07953010 0 3324
0.05750000 0.05747970 35639.37767976 0 414.63752704 0 16828.82649186 0 482.11338172 0 1856.97281231 0 3639
0.05850000 0.05849280 35264.91165440 0 287.18731775 0 17627.58400428 0 -251.20115486 0 2137.94412691 0 3846
0.05950000 0.05951020 35201.91012618 0 552.84117820 0 17787.46837466 0 1432.43773411 0 2146.14871960 0 3787
0.06050000 0.06049470 34120.03326815 0 310.35505020 0 14771.69926380 0 3694.66870711 0 3965.69707402 0 3930
0.06150000 0.06148310 34712.95626219 0 -1049.08616808 0 13143.62462247 0 6149.18167291 0 1593.98295322 0 4083
0.06250000 0.06249100 34811.05706008 0 -510.01342580 0 11720.38799028 0 3619.31046439 0 1400.95911465 0 4303
0.06350000 0.06350600 33740.58469661 0 961.69562998 0 8904.17538963 0 155.33807381 0 508.95712601 0 4470
0.06450000 0.06451750 33334.34109902 0 1630.92022881 0 9001.55648641 0 -928.10108925 0 3136.29136651 0 4479
0.06550000 0.06550280 32289.11363614 0 1067.25806757 0 9128.27924396 0 -1943.87948981 0 2024.28671264 0 4636
0.06650000 0.06648880 30687.28040462 0 949.80284590 0 9427.13236314 0 249.91565795 0 1364.08827301 0 4653
0.06750000 0.06749660 30093.36090135 0 1088.61658215 0 9238.39351428 0 318.21972252 0 -302.45716091 0 5220
0.06850000 0.06852730 29855.41664100 0 330.50446691 0 9038.88129338 0 1689.12744038 0 1297.79826432 0 5029
0.06950000 0.06949320 29084.78283362 0 470.13423350 0 7978.40723922 0 2633.45280719 0 3221.14966392 0 5040
0.07050000 0.07048030 28599.26139032 0 736.39485734 0 7278.95740810 0 3937.04189739 0 4774.75184852 0 5475
0.07150000 0.07148790 28686.95420289 0 7.32783065 0 7219.80904892 0 1829.66845931 0 4935.10125654 0 5509
0.07250000 0.07249820 27612.16363274 0 630.92432005 0 7095.85437258 0 436.89843609 0 4744.51332944 0 5916
0.07350000 0.07351270 28003.79176158 0 1000.49748508 0 8212.21045009 0 -1776.98633782 0 4669.63119669 0 5721
0.07450000 0.07449140 26535.26932088 0 763.80993359 0 9692.98995436 0 -2278.95018347 0 4342.74295107 0 6028
0.07550000 0.07549160 26342.27869929 0 1425.55074808 0 10985.09704373 0 -2841.84503260 0 5136.79472544 0 6183
0.07650000 0.07648840 25269.37042436 0 963.65543148 0 11386.11450401 0 -961.15862223 0 4045.89392268 0 6330
0.07750000 0.07749960 25244.56841677 0 303.18461265 0 11143.63059048 0 1393.25277658 0 3185.35283778 0 6583
0.07850000 0.07848650 24211.74195769 0 461.93960590 0 10281.01898083 0 1791.63502355 0 1199.22135646 0 6549
0.07950000 0.07947320 23836.50086958 0 683.43482050 0 9797.28018183 0 1875.96184937 0 2199.84949497 0 6828
0.08050000 0.08048110 23395.49017206 0 118.16717216 0 9445.53456699 0 839.38519387 0 105.34896317 0 7147
0.08150000 0.08149960 23075.38926155 0 100.68629646 0 8173.55696415 0 -264.46690722 0 643.52794739 0 7386
0.08250000 0.08250610 22960.56925318 0 492.93768646 0 8613.56008012 0 -256.04418973 0 1366.70134166 0 7227
0.08350000 0.08350160 23011.61267059 0 -15.29973843 0 8052.65824946 0 152.18356847 0 1839.95464906 0 7798
0.08450000 0.08449610 22640.80051242 0 132.61877052 0 8667.59302523 0 1258.08183519 0 1847.28452809 0 7371
0.08550000 0.08548940 22799.79909681 0 557.91451743 0 8623.76876360 0 1366.63490772 0 2023.03553994 0 8256
0.08650000 0.08650700 22265.67014756 0 387.59005197 0 8560.26898077 0 1245.61439745 0 1972.73396829 0 8037
0.08750000 0.08749060 21674.51872549 0 1109.36944055 0 8190.11008975 0 111.74300930 0 4857.77214001 0 8155
0.08850000 0.08849210 20934.77670436 0 393.40855867 0 7730.28751236 0 887.98162750 0 2599.72650579 0 8718
0.08950000 0.08949900 20841.43700614 0 -6.03088495 0 7912.43832795 0 -164.85252253 0 3828.64383742 0 8571
0.09050000 0.09049190 20425.56048595 0 283.58549049 0 8239.78053889 0 626.07242731 0 3648.15387055 0 8932
0.09150000 0.09150830 20601.83189706 0 679.77652438 0 7833.43729037 0 81.45986875 0 2778.76599811 0 9285
0.09250000 0.09250820 19711.17408865 0 409.83103084 0 8178.39557010 0 513.44695372 0 3486.78580864 0 9204
0.09350000 0.09350330 19285.00030638 0 790.67471530 0 8249.53525706 0 349.35731438 0 2855.41970283 0 9349
0.09450000 0.09448040 18794.82848666 0 487.04610243 0 8172.59367189 0 747.39078312 0 4088.90990460 0 9564
0.09550000 0.09549270 18289.15541219 0 52.86702931 0 8019.79558939 0 89.67841257 0 3130.94343362 0 10155
0.09650000 0.09649430 18488.23581243 0 376.06597630 0 8066.54294478 0 380.21588364 0 3308.25564326 0 9913
0.09750000 0.09749140 18036.48495983 0 140.21106364 0 7419.63129492 0 -260.32475051 0 2432.92193240 0 10476
0.09850000 0.09850240 18142.66855484 0 76.02247148 0 7210.44186213 0 620.80975133 0 2817.12053128 0 10575
0.09950000 0.09950330 17849.14122390 0 -184.17262210 0 6878.21675594 0 700.80397644 0 1954.24318584 0 10882
0.10050000 0.10051200 18062.94781615 0 93.93151398 0 6335.87214167 0 758.45757177 0 1212.23133812 0 10875
0.10150000 0.10150300 17820.90679561 0 342.37621358 0 5920.80390120 0 426.21474987 0 1054.68101381 0 11118
0.10250000 0.10250800 17498.03780390 0 462.62609004 0 5775.19175751 0 634.88046171 0 1996.71662385 0 11575
0.10350000 0.10349800 16963.35523841 0 494.72918862 0 4967.00062435 0 634.26816214 0 2430.74068441 0 11364
0.10450000 0.10450100 16481.48766230 0 270.85010248 0 4869.25414085 0 1120.34211445 0 2120.00696070 0 12093
0.10550000 0.10551000 16341.31203010 0 161.56514929 0 4761.93009638 0 1120.78500744 0 2485.89193433 0 12067
0.10650000 0.10649700 16105.47151146 0 400.72293644 0 3868.43777281 0 697.20325641 0 1848.46926685 0 12054
0.10750000 0.10749900 15645.08424550 0 234.05787434 0 3955.30016102 0 377.08241572 0 2212.15084784 0 12807
0.10850000 0.10850100 15395.62476733 0 205.47466782 0 3325.32916813 0 86.90833835 0 1864.62378876 0 12736
0.10950000 0.10950300 15287.33743061 0 -41.88084718 0 3651.57521892 0 -177.55247909 0 1420.11423659 0 12933
0.11050000 0.11050200 15559.49517465 0 180.56968761 0 3884.61443937 0 -530.31564058 0 1170.27829938 0 13428
0.11150000 0.11150900 15279.47607999 0 290.19899010 0 4120.58782591 0 -704.93727530 0 765.55936091 0 13453
0.11250000 0.11250000 14915.08587021 0 188.46646967 0 4169.56071858 0 -729.16684370 0 663.12374785 0 13668
0.11350000 0.11349100 14983.95573058 0 165.65305161 0 4762.63872517 0 -434.16800079 0 355.77261938 0 13791
0.11450000 0.11448600 14809.78806118 0 435.13793644 0 5361.64042553 0 243.03974423 0 185.34185960 0 14205
0.11550000 0.11549300 14584.90914411 0 158.54904801 0 4794.17270625 0 229.14951275 0 285.52536180 0 14776
0.11650000 0.11649800 14577.60140973 0 75.06637623 0 4743.08499954 0 366.26475437 0 427.07617674 0 14553
0.11750000 0.11747300 14790.19004625 0 -95.55615620 0 4759.06236425 0 73.87975518 0 304.49779037 0 14568
0.11850000 0.11849100 14704.26880566 0 40.02047516 0 5323.15302446 0 236.32991539 0 594.96030181 0 16015
0.11950000 0.11950300 14635.39894529 0 325.68911284 0 4809.46358683 0 -133.26650152 0 959.77236716 0 15270
0.12050000 0.12050700 14418.71354859 0 360.00889085 0 5645.37982133 0 222.00675601 0 815.47007950 0 15999
0.12150000 0.12150000 14139.46951666 0 282.60005358 0 4724.89316986 0 462.01268324 0 893.13358024 0 15670
0.12250000 0.12250700 13768.87880498 0 221.17854611 0 4720.90713293 0 656.40173946 0 988.43861612 0 16887
0.12350000 0.12352200 13785.04439921 0 -36.81105109 0 4252.93532447 0 632.46669490 0 1142.16566667 0 16407
0.12450000 0.12449800 13883.80953660 0 -202.00017229 0 4125.72538462 0 246.46441430 0 755.49129596 0 16306
0.12550000 0.12549900 13725.58601494 0 232.46013787 0 3585.86097112 0 58.47361171 0 699.92594109 0 17523
0.12650000 0.12650100 13504.36096506 0 334.02878790 0 3683.70710554 0 -253.59388425 0 465.44842563 0 17154
0.12750000 0.12750600 13355.54891950 0 309.86233175 0 4114.09944357 0 -531.17596022 0 569.68439871 0 18007
0.12850000 0.12850300 12849.32222879 0 554.46216655 0 4190.70885899 0 -86.18321180 0 958.72603247 0 17496
0.12950000 0.12949900 12797.17157890 0 430.02695131 0 4731.30404593 0 240.79870569 0 871.27348935 0 18405
0.13050000 0.13049000 12412.07612170 0 8.77286869 0 4621.37800513 0 295.79383583 0 1552.09634843 0 18100
0.13150000 0.13148800 12491.57541390 0 54.27764349 0 4525.74633567 0 492.38628469 0 1212.71852041 0 19059
0.13250000 0.13249300 12593.44080223 0 -21.75069632 0 4610.08423382 0 465.65769257 0 1476.51665922 0 18957
0.13350000 0.13349100 12232.26156665 0 167.87305274 0 4220.54877437 0 166.60084262 0 1146.26242685 0 19468
0.13450000 0.13450700 12297.47755983 0 248.29909852 0 3953.49537207 0 282.71742022 0 1149.67270289 0 19953
0.13550000 0.13551000 12104.15476850 0 46.21167631 0 3869.56714995 0 62.10965245 0 858.22586179 0 19956
0.13650000 0.13649900 11970.40108469 0 96.14420737 0 3396.00381745 0 147.15008961 0 263.74831334 0 19723
0.13750000 0.13749600 11869.42148234 0 233.93940047 0 3197.93099877 0 307.58475453 0 369.21442171 0 20946
0.13850000 0.13851100 11725.70270619 0 121.87197205 0 2931.15440459 0 -48.78577038 0 -271.42807784 0 20955
0.13950000 0.13949800 11580.32308133 0 130.86048533 0 2946.33456192 0 -55.62647410 0 140.21217088 0 20506
0.14050000 0.14048300 11397.40827532 0 243.82034313 0 3162.99781397 0 52.70183023 0 46.32992874 0 21447
0.14150000 0.14148400 11313.70149969 0 134.72029777 0 3126.58093764 0 295.62775096 0 599.76015461 0 21771
0.14250000 0.14249400 11178.06552066 0 139.41939242 0 3032.15615159 0 487.14686058 0 -131.30227109 0 22470
0.14350000 0.14350900 11211.83611136 0 11.75327279 0 2787.29168822 0 249.19042067 0 -0.57927968 0 22519
0.14450000 0.14449900 10910.46957445 0 100.71752042 0 2973.91572304 0 52.90556100 0 516.37115471 0 22218
0.14550000 0.14550500 10888.07026134 0 216.50934674 0 2820.65260290 0 86.18930158 0 653.41885515 0 23559
0.14650000 0.14650700 10651.69827111 0 328.22688969 0 2781.20190957 0 531.80708274 0 904.48824934 0 23044
0.14750000 0.14750500 10329.32753402 0 361.51915596 0 2644.04902204 0 128.93168635 0 861.11241687 0 23649
0.14850000 0.14849900 9976.04286603 0 256.36528715 0 2242.23435437 0 134.49663680 0 606.78665194 0 23640
0.14950000 0.14949500 9852.90754172 0 209.08424571 0 2437.92662322 0 74.24580624 0 346.67006114 0 24457
0.15050000 0.15050000 9648.29097907 0 202.85717023 0 2433.64163351 0 -166.10701693 0 776.80773570 0 24591
0.15150000 0.15149900 9589.12047524 0 2.69201433 0 2378.94434891 0 -200.70471029 0 251.67505036 0 25020
0.15250000 0.15250500 9645.50075322 0 -60.23233978 0 2380.91522273 0 -50.17313268 0 196.65888280 0 25297
0.15350000 0.15350100 9660.19372825 0 67.49401329 0 2461.85391715 0 -203.46061194 0 -308.81488982 0 25452
0.15450000 0.15450400 9574.05104116 0 40.80262419 0 2329.11888723 0 32.06279532 0 -314.85927194 0 26061
0.15550000 0.15549900 9578.03707810 0 50.99314906 0 2359.13595981 0 80.25686066 0 -239.53203173 0 26128
0.15650000 0.15649500 9650.14005732 0 -24.03801718 0 2563.06603832 0 41.37727785 0 -527.76457695 0 26331
0.15750000 0.15749700 9539.23965193 0 221.24830176 0 2373.50783742 0 133.80350927 0 -680.71435029 0 27345
0.15850000 0.15849900 9253.57367161 0 409.73580884 0 2468.44195042 0 -173.60962423 0 -383.94393541 0 26980
0.15950000 0.15949700 9207.94462103 0 129.06787595 0 2380.94843970 0 38.14537696 0 -153.72262162 0 27777
0.16050000 0.16050000 9080.24749890 0 -79.01299569 0 2518.82102834 0 120.60751255 0 -176.77741636 0 28224
0.16150000 0.16150500 9174.21831964 0 2.29548116 0 2477.84235419 0 248.33674443 0 -269.54910432 0 28075
0.16250000 0.16249700 9105.93529248 0 112.60665064 0 2659.17381775 0 -305.85747186 0 -200.78885996 0 28590
0.16350000 0.16349900 9082.27373434 0 192.30081575 0 2915.68636682 0 -103.14169521 0 71.46244523 0 29163
0.16450000 0.16449100 8883.63622709 0 225.67169552 0 2999.61458894 0 -28.11506863 0 164.14057204 0 28996
0.16550000 0.16550500 8918.14866355 0 141.24964771 0 3259.96923473 0 54.69352001 0 352.14311130 0 30777
0.16650000 0.16650700 8722.84392608 0 62.36664111 0 3180.19313441 0 335.63870393 0 288.70865518 0 29211
0.16750000 0.16749900 8600.83797890 0 318.45556304 0 2985.58595340 0 131.12511390 0 583.04315860 0 30922
0.16850000 0.16850800 8442.74732514 0 167.51984558 0 2825.07046050 0 258.68936813 0 405.16293869 0 30867
0.16950000 0.16949900 8373.03596808 0 -52.83204077 0 2690.25383351 0 191.55232660 0 334.31666834 0 30852
0.17050000 0.17049200 8320.40920822 0 14.01036621 0 2575.02414912 0 88.23535648 0 211.60762854 0 31257
0.17150000 0.17149500 8357.39077311 0 46.78367261 0 2417.17708651 0 -15.21337430 0 142.65694020 0 32608
0.17250000 0.17250900 8186.32335467 0 84.95329796 0 2430.13170655 0 142.17750853 0 80.85432331 0 32361
0.17350000 0.17350400 8258.81386525 0 145.63982450 0 2359.89995022 0 89.58097612 0 -18.67148279 0 32508
0.17450000 0.17449800 8050.67630331 0 151.87797230 0 2215.58326854 0 291.30843705 0 175.04349029 0 32791
0.17550000 0.17549800 8040.82193422 0 -41.65995430 0 2093.36694719 0 329.89770351 0 289.40842611 0 33633
0.17650000 0.17650100 8038.51889066 0 -30.52761748 0 1913.72954933 0 324.38257851 0 147.98051397 0 33984
0.17750000 0.17750300 7999.10141431 0 65.49235841 0 1741.22272866 0 303.16357523 0 282.70413343 0 34069
0.17850000 0.17849800 7912.17259216 0 77.94407345 0 1717.52795354 0 45.00612158 0 276.61989094 0 34536
