### header ###
fiducial parameters:
Omega_m = 0.31
Omega_nu = 0
Omega_de = 0.69
Omega_k = 0
H_0 = 100
w_de = -1
zeff = 0
beta = 0
fgrowth = 0
b_1 = 2
gamma = 0.55
Lx = 3500 Ly = 3500 Lz = 3500
nx = 700 ny = 700 nz = 700
xoffset = -685.467585 yoffset = -31.7331281 zoffset = 572.489161
bins = 400 dk = 0.001
kx_ny = 0.628318531 ky_ny = 0.628318531 kz_ny = 0.628318531
############################
A(data) = 8.04283809 (not used)
A(ran) = 8.03546017 (used)
Ngal = 477913
weighted Ngal = 0
Nran = 23820508
weighted Nran = 0
SN(data) = 3494.5363
SN(ran) = 69.9917723
SN(data+ran) = 3564.52807
############################
13 columns: k_central k_mean P_0(k) sigma^{lin}_{P_0(k)} P^img_1(k) sigma^{lin}_{P_1(k)} P_2(k) sigma^{lin}_{P_2(k)} P^img_3(k) sigma^{lin}_{P_3(k)} P_4(k) sigma^{lin}_{P_4(k)} N_modes
### header ###
0.00050000 0 0 0 0 0 0 0 0 0 0 0 0
0.00150000 0.00179520 18937.55075357 0 -14125.96128038 0 -9206.94811180 0 26462.85631656 0 -37780.98674618 0 3
0.00250000 0.00253879 35768.59171040 0 -17313.90504217 0 9093.45678241 0 -6397.86608833 0 33317.62188854 0 6
0.00350000 0.00331552 40484.95919015 0 -2007.41248962 0 26922.13635004 0 -51672.54691016 0 29938.56980039 0 7
0.00450000 0.00420575 48981.63980948 0 10952.13473274 0 46535.20964080 0 -28302.85525493 0 38509.54571925 0 24
0.00550000 0.00557378 49716.95290069 0 -727.99649897 0 72921.11329987 0 -501.75125702 0 33296.58447139 0 45
0.00650000 0.00659388 64836.98750328 0 1897.05462815 0 90292.26226135 0 50593.88102632 0 24427.87373815 0 40
0.00750000 0.00754703 67107.92132359 0 -57.24070834 0 90732.94078913 0 55105.52122018 0 4506.40298421 0 57
0.00850000 0.00846663 68584.85873115 0 8872.25387718 0 79682.09628064 0 59509.42769354 0 -1720.69463844 0 75
0.00950000 0.00948925 65004.51177779 0 -1818.99473818 0 40800.40972423 0 45444.69636941 0 3060.84454519 0 112
0.01050000 0.01054430 70689.70767917 0 -566.76019772 0 14457.57740870 0 46785.22273520 0 980.19859199 0 105
0.01150000 0.01145670 76356.08062836 0 -17747.38655882 0 -3570.97976656 0 19412.77493479 0 -16379.62227397 0 144
0.01250000 0.01249090 82041.38725299 0 -13726.80397067 0 -10023.41027160 0 2858.38708588 0 -19746.16263508 0 169
0.01350000 0.01339930 96397.54216635 0 -4844.45213325 0 -15696.57055591 0 771.53730908 0 -32372.04534903 0 180
0.01450000 0.01448870 87539.79303469 0 6751.47185374 0 3596.23573947 0 -14671.71617069 0 -10316.67186675 0 267
0.01550000 0.01550050 93349.55259028 0 9476.69208903 0 5565.64801032 0 -20091.61916942 0 642.22694922 0 238
0.01650000 0.01653350 83363.42283634 0 5706.15581226 0 30226.00735268 0 -17113.60668620 0 -4083.67269496 0 315
0.01750000 0.01747870 82967.03360783 0 3707.73405040 0 42883.11402262 0 -3297.74800701 0 25074.16533781 0 297
0.01850000 0.01844180 86409.64084045 0 5929.84999057 0 38888.66212104 0 11387.55390623 0 14118.76426925 0 388
0.01950000 0.01947590 80954.30640230 0 2846.67256622 0 42255.53465190 0 10303.09719652 0 477.52501031 0 399
0.02050000 0.02045430 78460.59740664 0 2898.65713125 0 37007.03124136 0 12472.42029196 0 -461.72148110 0 462
0.02150000 0.02154770 73863.81103493 0 4479.96227255 0 26335.19241141 0 13267.96683018 0 -5438.38270885 0 571
0.02250000 0.02255340 69980.08238155 0 975.63015077 0 18343.40980380 0 4049.39277732 0 1153.18262986 0 510
0.02350000 0.02348930 66503.15094199 0 -18.77345890 0 16892.93525256 0 7790.18878963 0 -11362.30900565 0 555
0.02450000 0.02439640 73009.24900543 0 -2791.05627866 0 12542.95100106 0 4026.47306495 0 -11571.57594472 0 592
0.02550000 0.02547300 69666.29269619 0 -2126.31818585 0 9414.42133425 0 -2172.63372056 0 -13553.96498025 0 837
0.02650000 0.02652900 75572.38147770 0 2092.79118630 0 16243.32195545 0 -7925.10506754 0 -11136.43357935 0 723
0.02750000 0.02749970 77800.02250796 0 369.39379337 0 29677.04148817 0 -14961.03601820 0 -18310.30355260 0 826
0.02850000 0.02848090 71817.53468520 0 9037.33116790 0 27661.54620143 0 -7798.10550187 0 -6509.02115719 0 831
0.02950000 0.02946900 69820.86235065 0 2536.19350598 0 39288.81593999 0 -3435.48772776 0 -3588.46296745 0 996
0.03050000 0.03053250 67840.90922658 0 4048.77272714 0 38747.48997960 0 11283.80622268 0 -3332.67011949 0 1041
0.03150000 0.03150510 63708.05326478 0 1809.82685323 0 36824.00571211 0 10935.19407577 0 362.38611899 0 1036
0.03250000 0.03246190 61882.33762543 0 3708.80806590 0 39715.54333850 0 14254.62169477 0 -1016.28994197 0 1059
0.03350000 0.03345080 55996.84336808 0 3180.85747390 0 33613.14223795 0 9571.70370830 0 12075.80961696 0 1302
0.03450000 0.03451200 52512.49347090 0 2863.40284903 0 27638.18359606 0 6992.25062925 0 10369.81902588 0 1339
0.03550000 0.03553350 50505.41315102 0 1782.55571720 0 25957.95830483 0 5921.86684438 0 14541.39490758 0 1365
0.03650000 0.03647120 51116.16258802 0 -1381.70434179 0 22411.49266542 0 7599.53442858 0 10750.10909410 0 1308
0.03750000 0.03744890 50803.59085839 0 -955.16406557 0 21110.49449923 0 3291.63608371 0 8971.14081014 0 1579
0.03850000 0.03847530 52349.50884957 0 1709.86590477 0 13541.12108346 0 427.27215689 0 10499.58667275 0 1662
0.03950000 0.03950240 51140.07880963 0 1886.23696681 0 16675.14262338 0 -687.53822408 0 4043.88983189 0 1683
0.04050000 0.04050350 49421.98616752 0 1139.23150059 0 11565.70761257 0 403.20313720 0 6846.42811139 0 1822
0.04150000 0.04152450 49053.49919755 0 -350.68820782 0 11636.34904491 0 -3326.04886925 0 -4552.49707243 0 1887
0.04250000 0.04250150 48062.30467979 0 1988.61168208 0 15453.97591913 0 323.99283268 0 -5449.45503367 0 1920
0.04350000 0.04349210 44274.79452907 0 2635.98836958 0 16724.85736181 0 -3.56727054 0 -1500.26679595 0 2005
0.04450000 0.04448520 42222.20695419 0 5393.13011732 0 13812.61448801 0 142.78205747 0 188.66023535 0 2151
0.04550000 0.04548030 40752.35583452 0 146.69723152 0 14670.49821496 0 4368.38645535 0 3788.71703412 0 2274
0.04650000 0.04648670 40963.50506881 0 -935.18959160 0 17109.62064926 0 4152.08859002 0 1235.99254718 0 2311
0.04750000 0.04749250 41084.96847207 0 325.42337705 0 13897.31777288 0 1537.63589222 0 2526.63808967 0 2568
0.04850000 0.04851840 42038.29563895 0 1183.17755780 0 15453.86519588 0 -802.14232211 0 1887.89781553 0 2493
0.04950000 0.04949480 38925.97585568 0 1305.93642306 0 14137.80866794 0 -2520.58152799 0 5049.30121472 0 2644
0.05050000 0.05050630 38574.98315893 0 1292.22888493 0 15632.01890221 0 2193.74864399 0 2340.10263345 0 2829
0.05150000 0.05149060 37676.79616964 0 845.30002979 0 14252.18578331 0 1446.27814014 0 3083.39887085 0 2784
0.05250000 0.05249300 36529.26042544 0 360.47060680 0 13290.66509606 0 2124.84556665 0 -1281.64374241 0 3055
0.05350000 0.05348950 36615.84600552 0 -399.63784861 0 12312.75736808 0 3008.04062813 0 3561.98903881 0 3009
0.05450000 0.05448610 37147.53904331 0 -441.42812417 0 11978.37315856 0 -164.21364939 0 -1756.21465646 0 3336
0.05550000 0.05550870 38010.18386993 0 -203.73299113 0 11969.73674520 0 -2487.53063841 0 2561.12838148 0 3349
0.05650000 0.05647670 38006.97289573 0 567.25623788 0 15312.47160795 0 -1446.35564641 0 1347.33584556 0 3324
0.05750000 0.05747970 37162.70812831 0 1149.21873758 0 16836.13422624 0 -401.54339571 0 2805.53887952 0 3639
0.05850000 0.05849280 37249.95804788 0 990.98192913 0 17079.72537225 0 2107.68346318 0 3015.90197875 0 3846
0.05950000 0.05951020 35470.85689602 0 985.19331771 0 18320.26864493 0 595.92137960 0 1158.26482695 0 3787
0.06050000 0.06049470 36445.22148006 0 548.17197882 0 16911.64748150 0 2745.11720299 0 1185.41416741 0 3930
0.06150000 0.06148310 34400.71670230 0 1414.07981956 0 16389.58736630 0 317.56202643 0 -1235.15105049 0 4083
0.06250000 0.06249100 34201.08268582 0 1170.99800050 0 16737.36908886 0 -1892.29352848 0 842.59727530 0 4303
0.06350000 0.06350600 33174.67817513 0 963.08742121 0 16489.57045942 0 -475.51427613 0 1474.72294260 0 4470
0.06450000 0.06451750 32071.54245345 0 973.27949621 0 17463.60287371 0 1886.86808932 0 1188.76908183 0 4479
0.06550000 0.06550280 31573.06639011 0 -327.91575736 0 15670.66131583 0 3518.61874249 0 2533.00467644 0 4636
0.06650000 0.06648880 31107.69657799 0 595.02341406 0 13977.25995807 0 4065.13762322 0 549.93801463 0 4653
0.06750000 0.06749660 31703.27692998 0 257.11377631 0 12963.14572793 0 2392.33078962 0 1186.25566410 0 5220
0.06850000 0.06852730 30004.67157955 0 613.17649060 0 11317.68753663 0 995.26913330 0 1533.51698738 0 5029
0.06950000 0.06949320 30250.58791378 0 556.18612752 0 11848.38406519 0 -899.08052590 0 1850.19654952 0 5040
0.07050000 0.07048030 29638.50979780 0 663.93313480 0 11622.06574589 0 -623.02532352 0 2327.42482153 0 5475
0.07150000 0.07148790 29069.94591836 0 803.47432279 0 12086.77121853 0 782.19110002 0 2477.67626932 0 5509
0.07250000 0.07249820 28532.71671816 0 438.93574386 0 11878.27934220 0 2222.97958151 0 3501.13554160 0 5916
0.07350000 0.07351270 28147.51053772 0 499.45707131 0 11803.76259617 0 1962.42563388 0 3256.49252474 0 5721
0.07450000 0.07449140 28144.07811703 0 641.82945276 0 12708.81442684 0 1710.31987009 0 1602.42006473 0 6028
0.07550000 0.07549160 27131.29256587 0 808.21770674 0 11059.12660746 0 728.74609536 0 3948.09207756 0 6183
0.07650000 0.07648840 26067.02070430 0 688.99312756 0 10884.93679342 0 795.46349578 0 3736.62174585 0 6330
0.07750000 0.07749960 25897.83558107 0 254.81183998 0 9547.21172580 0 958.73821202 0 3604.80571888 0 6583
0.07850000 0.07848650 25490.48475099 0 -335.46486843 0 8246.44607843 0 2271.17741145 0 2910.71489298 0 6549
0.07950000 0.07947320 25429.14407150 0 566.19772362 0 7056.12687113 0 1907.24116699 0 1509.15787278 0 6828
0.08050000 0.08048110 24983.81516729 0 931.73059733 0 6316.92739391 0 437.66685543 0 650.26545704 0 7147
0.08150000 0.08149960 23874.70039021 0 1115.64744873 0 6965.03485484 0 -1134.70291974 0 631.43918315 0 7386
0.08250000 0.08250610 22929.01312745 0 734.08517038 0 6642.95199820 0 -681.57577716 0 1851.30378200 0 7227
0.08350000 0.08350160 22175.20925379 0 1174.34184259 0 7976.07097868 0 -1507.14270966 0 1039.21408327 0 7798
0.08450000 0.08449610 22106.78228641 0 365.64581142 0 8254.51780322 0 -1278.07845382 0 263.24784426 0 7371
0.08550000 0.08548940 21236.60827892 0 510.88371053 0 9250.03052767 0 -445.43630576 0 777.20301769 0 8256
0.08650000 0.08650700 21547.29771333 0 109.62177331 0 9380.17463359 0 127.48453350 0 801.52448639 0 8037
0.08750000 0.08749060 21192.65114939 0 -222.32453173 0 8589.77672641 0 1198.29128117 0 131.62115405 0 8155
0.08850000 0.08849210 21562.90969132 0 142.80752381 0 9431.71630562 0 1143.54970727 0 -593.21751788 0 8718
0.08950000 0.08949900 20624.75160944 0 488.70252222 0 7953.69381023 0 874.24419410 0 -168.49974632 0 8571
0.09050000 0.09049190 20558.53910702 0 719.47523779 0 8237.59929090 0 154.09243727 0 905.02636433 0 8932
0.09150000 0.09150830 19961.96224579 0 200.13780726 0 7717.72042369 0 1066.75538403 0 1514.20685290 0 9285
0.09250000 0.09250820 19724.68232493 0 47.98800938 0 7492.38754131 0 720.28683919 0 1715.30241626 0 9204
0.09350000 0.09350330 19639.97904007 0 346.10205088 0 7264.72947071 0 1105.45426650 0 679.06457390 0 9349
0.09450000 0.09448040 19460.60737800 0 172.12814717 0 6745.09419465 0 1053.09213520 0 1619.83683167 0 9564
0.09550000 0.09549270 19232.84965649 0 213.91842273 0 6521.08999124 0 129.29375137 0 184.23241266 0 10155
0.09650000 0.09649430 18801.69332805 0 563.29345282 0 5987.30428406 0 131.18933338 0 1221.16670425 0 9913
0.09750000 0.09749140 18270.55390650 0 870.20943894 0 6623.29862164 0 -534.94276513 0 400.16156957 0 10476
0.09850000 0.09850240 17312.13347019 0 541.73785087 0 6943.65419562 0 -49.66092694 0 1538.06771288 0 10575
0.09950000 0.09950330 17405.58389166 0 -113.13147883 0 6924.64301391 0 986.77333847 0 1055.33317374 0 10882
0.10050000 0.10051200 17073.85704010 0 113.60426710 0 6681.81585831 0 588.30915629 0 1086.88154885 0 10875
0.10150000 0.10150300 17814.48484722 0 179.89095410 0 6846.72706416 0 388.53341405 0 1607.49118950 0 11118
0.10250000 0.10250800 17410.23426809 0 254.01906152 0 6373.94986673 0 -436.64820155 0 2091.52894127 0 11575
0.10350000 0.10349800 17182.69799306 0 283.92873256 0 7146.90886232 0 -319.79420711 0 1871.74329362 0 11364
0.10450000 0.10450100 17054.59119491 0 540.98271831 0 7821.30202237 0 -711.47326864 0 1819.99124742 0 12093
0.10550000 0.10551000 16395.45569846 0 739.80956232 0 7636.20596838 0 -282.24684642 0 1804.04709968 0 12067
0.10650000 0.10649700 16169.02665592 0 339.68120972 0 8112.43773115 0 -332.99241829 0 1202.75342808 0 12054
0.10750000 0.10749900 16140.90295088 0 -362.59317146 0 7824.31369472 0 806.05085278 0 1037.89758385 0 12807
0.10850000 0.10850100 16073.25104624 0 113.18462599 0 7724.12022744 0 545.00307946 0 330.15679591 0 12736
0.10950000 0.10950300 16098.93883982 0 104.95954950 0 6708.84340319 0 591.87001595 0 -42.72400471 0 12933
0.11050000 0.11050200 15770.97657869 0 233.48543515 0 6622.33532938 0 510.68440868 0 23.38762882 0 13428
0.11150000 0.11150900 15764.11173730 0 187.47328213 0 6594.16733504 0 181.28938872 0 365.72663939 0 13453
0.11250000 0.11250000 15534.13955082 0 67.80680647 0 6591.01172247 0 747.17376555 0 95.41055513 0 13668
0.11350000 0.11349100 15423.85919562 0 143.87821762 0 6047.79239454 0 387.44389729 0 171.88123432 0 13791
0.11450000 0.11448600 15276.37582904 0 100.92036541 0 5704.58354214 0 788.31741735 0 717.85424943 0 14205
0.11550000 0.11549300 15445.78239876 0 -7.86007730 0 5593.63884746 0 86.29936049 0 815.85650363 0 14776
0.11650000 0.11649800 15205.40222695 0 210.01653546 0 5491.75131448 0 852.64541008 0 1594.53656946 0 14553
0.11750000 0.11747300 14702.82940343 0 404.22511278 0 5412.29631158 0 392.91916191 0 1675.55277016 0 14568
0.11850000 0.11849100 14645.36403762 0 318.17986215 0 5050.30879628 0 752.00904980 0 1909.64386147 0 16015
0.11950000 0.11950300 14236.24163557 0 221.22726434 0 5374.75005812 0 610.73061404 0 2427.90616926 0 15270
0.12050000 0.12050700 14132.49395202 0 256.96983609 0 4633.62399638 0 328.99420180 0 1991.50155886 0 15999
0.12150000 0.12150000 13788.58754316 0 -76.90969687 0 4782.84571796 0 142.49639149 0 2036.22267880 0 15670
0.12250000 0.12250700 13730.67928436 0 324.22313704 0 4670.29553618 0 -156.58703205 0 1634.80661482 0 16887
0.12350000 0.12352200 13757.36358717 0 389.66500565 0 4599.37729572 0 -279.84747363 0 1182.54643528 0 16407
0.12450000 0.12449800 13281.80723621 0 308.97986746 0 3992.68032960 0 -275.57023455 0 1058.37252690 0 16306
0.12550000 0.12549900 13332.85065362 0 -37.80080621 0 4322.92348964 0 64.19888942 0 656.34859230 0 17523
0.12650000 0.12650100 13297.19776771 0 73.91928338 0 4205.72293144 0 397.27612173 0 508.68142512 0 17154
0.12750000 0.12750600 13187.13885901 0 -64.22889542 0 3809.27834131 0 700.55152744 0 306.57385128 0 18007
0.12850000 0.12850300 13254.12642416 0 -27.85409393 0 3885.71059953 0 592.70376201 0 888.47766766 0 17496
0.12950000 0.12949900 13321.44615906 0 96.66272435 0 3691.75668568 0 564.41286486 0 416.37034588 0 18405
0.13050000 0.13049000 13252.35485219 0 47.97394753 0 3691.87848126 0 209.67772232 0 905.35189068 0 18100
0.13150000 0.13148800 13023.93279118 0 381.03966461 0 3735.09376502 0 -478.70974907 0 801.73264610 0 19059
0.13250000 0.13249300 12739.04187360 0 455.60623610 0 3885.53344233 0 -136.41989963 0 1519.87588321 0 18957
0.13350000 0.13349100 12459.02277893 0 153.46685092 0 3767.00420515 0 -209.31122837 0 815.74135146 0 19468
0.13450000 0.13450700 12486.26069799 0 -40.61528045 0 3633.81520991 0 233.73788415 0 388.71057125 0 19953
0.13550000 0.13551000 12374.20877082 0 17.66722293 0 3679.39997119 0 221.09439644 0 166.22881250 0 19956
0.13650000 0.13649900 12164.83110850 0 432.07533140 0 3281.75956997 0 -23.83517219 0 -269.43838107 0 19723
0.13750000 0.13749600 11833.54714993 0 419.30894088 0 3232.38807361 0 -137.34111705 0 95.30713962 0 20946
0.13850000 0.13851100 11643.10316305 0 285.91842933 0 3136.55710230 0 68.39829006 0 -427.13707453 0 20955
0.13950000 0.13949800 11460.63125004 0 228.96017599 0 3132.82572884 0 -123.35455634 0 -222.23816760 0 20506
0.14050000 0.14048300 11344.48256269 0 139.30534747 0 3351.09446799 0 -95.77804559 0 -298.41908405 0 21447
0.14150000 0.14148400 11223.46205242 0 120.47132296 0 3729.80119376 0 -63.16473429 0 -42.13252112 0 21771
0.14250000 0.14249400 11096.46248675 0 335.27442444 0 3731.30702993 0 -62.89224437 0 -265.55642399 0 22470
0.14350000 0.14350900 10818.10424081 0 173.11469131 0 3819.90777313 0 140.24428062 0 -8.31169529 0 22519
0.14450000 0.14449900 10699.84073942 0 72.02536222 0 3823.32912150 0 294.53712697 0 141.74900956 0 22218
0.14550000 0.14550500 10859.99084560 0 -39.62851487 0 3693.83828275 0 114.35275626 0 -93.31068873 0 23559
0.14650000 0.14650700 10561.93493381 0 124.93125539 0 3713.90133532 0 448.81336483 0 603.23243568 0 23044
0.14750000 0.14750500 10649.02984083 0 116.02578454 0 3447.74479133 0 137.22264317 0 203.28013304 0 23649
0.14850000 0.14849900 10291.88093148 0 181.54515942 0 3328.98303532 0 564.94655092 0 503.83728301 0 23640
0.14950000 0.14949500 10224.98194492 0 190.58460541 0 3074.51886634 0 235.52385015 0 469.82753010 0 24457
0.15050000 0.15050000 10233.49656271 0 35.75375480 0 2956.66504097 0 268.06541279 0 877.54263966 0 24591
0.15150000 0.15149900 10043.41796255 0 11.76977056 0 2791.18914656 0 317.01394635 0 654.87265140 0 25020
0.15250000 0.15250500 10191.77604279 0 80.30712902 0 2938.65036849 0 79.05617776 0 699.41218521 0 25297
0.15350000 0.15350100 10012.27151283 0 182.04562851 0 2999.59244429 0 -106.11550021 0 667.31130110 0 25452
0.15450000 0.15450400 9939.09451811 0 423.31490800 0 3213.72013396 0 -461.19776014 0 636.04969921 0 26061
0.15550000 0.15549900 9465.48689631 0 352.16082702 0 3240.55944932 0 -314.45956101 0 879.54008706 0 26128
0.15650000 0.15649500 9370.81851912 0 114.69710556 0 3247.88932835 0 97.04029062 0 1195.08030698 0 26331
0.15750000 0.15749700 9374.21772283 0 -57.01361496 0 3116.31689253 0 644.17014223 0 1172.63670457 0 27345
0.15850000 0.15849900 9493.20092534 0 -90.14079286 0 3187.93268946 0 307.75637557 0 581.28265896 0 26980
0.15950000 0.15949700 9346.75835728 0 81.56217703 0 2772.44370064 0 396.37483449 0 640.65135740 0 27777
0.16050000 0.16050000 9302.14796059 0 124.57251207 0 3012.81280013 0 -267.95690401 0 646.83414358 0 28224
0.16150000 0.16150500 9331.24603021 0 62.10300906 0 2929.05066288 0 -259.26955795 0 613.58616662 0 28075
0.16250000 0.16249700 9232.38124191 0 66.81694063 0 3241.94348993 0 -373.72750130 0 676.83460768 0 28590
0.16350000 0.16349900 9329.88413426 0 260.63809730 0 3453.21451979 0 -239.77894458 0 392.20499696 0 29163
0.16450000 0.16449100 9130.08403291 0 102.05970763 0 3774.98735134 0 -265.05263321 0 674.55924493 0 28996
0.16550000 0.16550500 9123.57350591 0 90.30200591 0 3773.65867237 0 231.62307011 0 594.96140904 0 30777
0.16650000 0.16650700 9022.75998844 0 144.59902597 0 3885.23448956 0 -68.47745718 0 573.61175232 0 29211
0.16750000 0.16749900 8986.49812466 0 136.23056287 0 3691.47987756 0 220.36583747 0 303.81352070 0 30922
0.16850000 0.16850800 8832.36029086 0 61.13949535 0 3724.98473246 0 559.70048342 0 892.84680703 0 30867
0.16950000 0.16949900 8668.50095587 0 90.88108850 0 3292.52186970 0 497.10641676 0 471.74193506 0 30852
0.17050000 0.17049200 8765.04055596 0 2.63674129 0 2981.07951720 0 591.10381107 0 711.75339846 0 31257
0.17150000 0.17149500 8467.40539251 0 77.79360056 0 2609.99055090 0 443.21409017 0 559.33177500 0 32608
0.17250000 0.17250900 8518.95813687 0 65.48837237 0 2334.84327916 0 337.38148785 0 607.30594398 0 32361
0.17350000 0.17350400 8210.35029952 0 192.41818240 0 2225.80302434 0 51.52196329 0 530.81168074 0 32508
0.17450000 0.17449800 8247.85226368 0 210.62662056 0 2268.55327047 0 -93.33958750 0 582.11861948 0 32791
0.17550000 0.17549800 8020.67030305 0 81.90231885 0 2216.74586264 0 -91.88889150 0 869.04795206 0 33633
0.17650000 0.17650100 8125.89060581 0 -9.71745979 0 2277.54399822 0 15.70055659 0 619.12786519 0 33984
0.17750000 0.17750300 8112.60381602 0 -121.23863507 0 2296.87627735 0 131.58682984 0 507.12133455 0 34069
0.17850000 0.17849800 8113.14635994 0 105.53232086 0 2331.13405034 0 -45.24041198 0 174.72903627 0 34536
