### header ###
fiducial parameters:
Omega_m = 0.31
Omega_nu = 0
Omega_de = 0.69
Omega_k = 0
H_0 = 100
w_de = -1
zeff = 0
beta = 0
fgrowth = 0
b_1 = 2
gamma = 0.55
Lx = 3500 Ly = 3500 Lz = 3500
nx = 700 ny = 700 nz = 700
xoffset = -685.467585 yoffset = -31.7331281 zoffset = 572.489161
bins = 400 dk = 0.001
kx_ny = 0.628318531 ky_ny = 0.628318531 kz_ny = 0.628318531
############################
A(data) = 7.98297143 (not used)
A(ran) = 7.97310518 (used)
Ngal = 474168
weighted Ngal = 0
Nran = 23820508
weighted Nran = 0
SN(data) = 3495.86082
SN(ran) = 69.4486377
SN(data+ran) = 3565.30946
############################
13 columns: k_central k_mean P_0(k) sigma^{lin}_{P_0(k)} P^img_1(k) sigma^{lin}_{P_1(k)} P_2(k) sigma^{lin}_{P_2(k)} P^img_3(k) sigma^{lin}_{P_3(k)} P_4(k) sigma^{lin}_{P_4(k)} N_modes
### header ###
0.00050000 0 0 0 0 0 0 0 0 0 0 0 0
0.00150000 0.00179520 184906.71723891 0 -148475.44688812 0 60463.64064642 0 4903.73336033 0 -72379.34444650 0 3
0.00250000 0.00253879 282633.27055325 0 -77787.06788793 0 66704.33508395 0 -107934.01884140 0 108249.35865223 0 6
0.00350000 0.00331552 267538.37012799 0 48389.15970843 0 75745.33119137 0 -151605.59311435 0 193471.16048613 0 7
0.00450000 0.00420575 208471.94615044 0 124991.04594777 0 93268.50317260 0 -84008.82865002 0 186429.16190148 0 24
0.00550000 0.00557378 107010.58695152 0 58057.84590982 0 138277.83573015 0 94839.33389463 0 59037.30376328 0 45
0.00650000 0.00659388 92827.60319833 0 8238.49614921 0 145580.03394804 0 160916.31105435 0 -2247.52692564 0 40
0.00750000 0.00754703 72222.78177356 0 2789.84939526 0 95909.58481160 0 129953.66193149 0 -29815.99916464 0 57
0.00850000 0.00846663 86238.13052901 0 -3185.98396029 0 78804.61453876 0 89259.43580227 0 20240.09904524 0 75
0.00950000 0.00948925 70428.51153670 0 -526.22995273 0 41086.85076729 0 54677.35441944 0 20379.05672171 0 112
0.01050000 0.01054430 78470.67322223 0 2540.32348314 0 23380.54253355 0 34113.50059650 0 43982.04226087 0 105
0.01150000 0.01145670 71162.82811867 0 -8886.83612897 0 18944.52631821 0 10973.68147684 0 22640.80051242 0 144
0.01250000 0.01249090 79659.17656826 0 -6109.39880983 0 19998.50091769 0 -889.39224169 0 19750.59156500 0 169
0.01350000 0.01339930 83511.12764942 0 -3431.73420964 0 13120.26201710 0 -8037.32307958 0 -7223.72865191 0 180
0.01450000 0.01448870 84408.31812948 0 8839.32478317 0 37383.49028520 0 -25995.82565571 0 4978.52691448 0 267
0.01550000 0.01550050 82987.29596225 0 11406.04468868 0 34431.05487230 0 -31221.29863063 0 18002.71436913 0 238
0.01650000 0.01653350 70969.61605059 0 6910.57008906 0 47474.91784816 0 -9447.99262310 0 -17179.70846536 0 315
0.01750000 0.01747870 79073.78275510 0 -557.04091100 0 49880.38041501 0 4190.86387153 0 -23940.58072288 0 297
0.01850000 0.01844180 72170.07750743 0 -4868.58980136 0 37713.66701129 0 11455.98087361 0 -35883.19027227 0 388
0.01950000 0.01947590 83640.23095681 0 -5073.72676327 0 29169.59684173 0 7129.61389095 0 -33604.72727109 0 399
0.02050000 0.02045430 90531.86737043 0 -9523.15156397 0 30663.14273652 0 6098.16040014 0 -32405.48376998 0 462
0.02150000 0.02154770 84268.91756001 0 6223.43268314 0 21749.58908776 0 -874.45678274 0 -24491.76105235 0 571
0.02250000 0.02255340 82337.68266514 0 11897.98808037 0 26259.23626315 0 -5847.02900093 0 -26921.91490355 0 510
0.02350000 0.02348930 72044.18517424 0 7272.71261691 0 28020.06807906 0 -3252.04145016 0 1528.32406704 0 555
0.02450000 0.02439640 69690.65181079 0 6555.07095611 0 31694.08690038 0 6736.76780638 0 1135.73264595 0 592
0.02550000 0.02547300 65422.60276294 0 -331.46886640 0 25458.92862526 0 10424.19521306 0 6890.75062764 0 837
0.02650000 0.02652900 70666.78796680 0 -3045.53151997 0 28732.01856490 0 14690.09622989 0 7607.96046776 0 723
0.02750000 0.02749970 70688.71116994 0 -2437.11834351 0 23788.11481012 0 1458.02587677 0 2387.61397924 0 826
0.02850000 0.02848090 68596.70611870 0 5033.26848839 0 25143.92098417 0 7699.22964124 0 12706.93213162 0 831
0.02950000 0.02946900 68259.11093498 0 5104.72927276 0 23021.24559318 0 -794.95084714 0 8837.05495658 0 996
0.03050000 0.03053250 58486.45560355 0 4483.73793531 0 23654.25040307 0 6177.63754769 0 18790.62100323 0 1041
0.03150000 0.03150510 58815.41437391 0 1430.52222192 0 20346.72553324 0 11215.60070180 0 12307.99626841 0 1036
0.03250000 0.03246190 55066.43591357 0 -204.46044287 0 15200.19823429 0 8681.51093753 0 8120.91913196 0 1059
0.03350000 0.03345080 55469.02564397 0 1046.06785233 0 9205.38691400 0 10801.04178826 0 824.30025854 0 1302
0.03450000 0.03451200 52361.13479063 0 752.46744405 0 7503.82525284 0 -4454.14161107 0 -1140.81484304 0 1339
0.03550000 0.03553350 49131.44836428 0 4833.36873611 0 3788.99384224 0 -5621.30858718 0 -4200.81789154 0 1365
0.03650000 0.03647120 46783.11899349 0 4814.82259204 0 9361.44025999 0 -10651.47682461 0 -6398.77401897 0 1308
0.03750000 0.03744890 45383.79858291 0 3053.09391782 0 11425.75342686 0 -7672.94394212 0 -5510.80678549 0 1579
0.03850000 0.03847530 43593.07148999 0 552.92200617 0 16123.85157066 0 -3663.27866625 0 -4749.82804535 0 1662
0.03950000 0.03950240 45116.40193854 0 736.15015896 0 18972.20713025 0 3462.18310289 0 -5522.12270145 0 1683
0.04050000 0.04050350 45633.25806107 0 138.09957130 0 22103.90348196 0 3128.58502843 0 -3905.08716796 0 1822
0.04150000 0.04152450 44770.05961821 0 1608.27732456 0 22216.73047186 0 3732.51391334 0 1384.27312115 0 1887
0.04250000 0.04250150 43939.30308707 0 1050.80680736 0 22851.50685372 0 1490.65601801 0 3168.72220590 0 1920
0.04350000 0.04349210 43374.94669106 0 910.35547426 0 22519.66927890 0 2534.48836796 0 5029.42639167 0 2005
0.04450000 0.04448520 42732.08751209 0 1228.34157073 0 22830.46943656 0 3367.62544894 0 7677.86005434 0 2151
0.04550000 0.04548030 41510.69936135 0 1019.86851735 0 24005.24309982 0 1309.33562678 0 3320.77844263 0 2274
0.04650000 0.04648670 40430.37262879 0 103.04669467 0 18227.03966996 0 4290.81374767 0 6711.43432720 0 2311
0.04750000 0.04749250 39562.96670250 0 286.86511310 0 17541.44131719 0 4836.51327636 0 6210.37841218 0 2568
0.04850000 0.04851840 39818.18378957 0 263.90332589 0 14079.01462315 0 1386.56509239 0 491.72858859 0 2493
0.04950000 0.04949480 39084.75299358 0 1395.55582014 0 16235.23915833 0 3178.97517868 0 -2552.24837697 0 2644
0.05050000 0.05050630 37598.73627967 0 1696.66769359 0 12253.63115355 0 -2621.82686613 0 1260.35166178 0 2829
0.05150000 0.05149060 35149.42730654 0 1535.38821028 0 9568.24914296 0 96.00558187 0 1829.53559141 0 2784
0.05250000 0.05249300 35280.52363239 0 325.71790089 0 10918.03197230 0 2172.88838404 0 146.08050303 0 3055
0.05350000 0.05348950 34300.40143944 0 -379.03557382 0 9321.19235928 0 2185.23402621 0 -2060.95825244 0 3009
0.05450000 0.05448610 33665.51433434 0 1652.79914265 0 9607.21265399 0 2318.72197422 0 -2035.60262861 0 3336
0.05550000 0.05550870 31776.57572028 0 701.52035586 0 9169.21362882 0 -1134.21573745 0 -928.43547346 0 3349
0.05650000 0.05647670 32101.99134670 0 -348.70958337 0 9322.95285892 0 -585.24212231 0 304.81113716 0 3324
0.05750000 0.05747970 33366.11867125 0 -450.68126602 0 10317.12583207 0 -1960.56548331 0 -2777.37088518 0 3639
0.05850000 0.05849280 33871.12740622 0 -105.91619837 0 11771.43140770 0 -1734.91150351 0 -1481.07845704 0 3846
0.05950000 0.05951020 34182.48118012 0 854.32176005 0 11535.92305880 0 -2217.94167372 0 -2337.74422826 0 3787
0.06050000 0.06049470 33750.10689596 0 663.12596232 0 13196.88250485 0 -1761.41864912 0 -1833.55484532 0 3930
0.06150000 0.06148310 33782.32736118 0 -266.67805049 0 13621.06326865 0 2110.65084623 0 -5133.05227965 0 4083
0.06250000 0.06249100 33802.58971560 0 114.59856187 0 13147.94282915 0 2381.36918805 0 -2713.42820936 0 4303
0.06350000 0.06350600 33784.43110289 0 200.95826653 0 11987.78463465 0 2251.53510722 0 -4016.29759844 0 4470
0.06450000 0.06451750 32841.73336784 0 402.30627889 0 11967.07938724 0 1709.01333576 0 -1921.61304460 0 4479
0.06550000 0.06550280 32821.02812042 0 480.76477256 0 11328.64913820 0 823.25060215 0 -3973.51413534 0 4636
0.06650000 0.06648880 32211.71808565 0 1087.72968893 0 12320.39727220 0 -628.06544578 0 -694.90132008 0 4653
0.06750000 0.06749660 31047.13096123 0 1100.33110181 0 10156.22280780 0 727.90127697 0 -148.32486327 0 5220
0.06850000 0.06852730 30108.97287934 0 395.97512356 0 10689.99744266 0 1643.47624516 0 -505.55127889 0 5029
0.06950000 0.06949320 30754.15724653 0 -288.36319865 0 7645.28527473 0 3478.08296133 0 -363.87202498 0 5040
0.07050000 0.07048030 30057.81873868 0 548.33917092 0 7086.07750976 0 2739.84677637 0 -2179.90823797 0 5475
0.07150000 0.07148790 29669.62303054 0 1318.72495823 0 5839.28944588 0 875.74227965 0 -269.01320379 0 5509
0.07250000 0.07249820 28145.84968900 0 712.56057094 0 6535.50615815 0 -243.54685671 0 -210.18151310 0 5916
0.07350000 0.07351270 27943.00469832 0 987.88278541 0 7507.54555398 0 -1264.66986846 0 1108.11826785 0 5721
0.07450000 0.07449140 27062.97632174 0 535.37901472 0 7728.02875810 0 -683.56879563 0 -158.70627502 0 6028
0.07550000 0.07549160 26941.51291847 0 512.02969615 0 9642.68838271 0 510.77520174 0 1308.87058914 0 6183
0.07650000 0.07648840 26143.97336179 0 1079.73657764 0 9318.26926553 0 143.59033718 0 2082.64893676 0 6330
0.07750000 0.07749960 26032.69649736 0 607.52628324 0 9141.78748024 0 431.36005921 0 1261.20423079 0 6583
0.07850000 0.07848650 24784.29187406 0 -76.46669315 0 8425.66272795 0 657.91975519 0 893.15129596 0 6549
0.07950000 0.07947320 25244.67914002 0 113.69948910 0 7927.83993177 0 680.99005118 0 650.79471417 0 6828
0.08050000 0.08048110 24422.78046873 0 340.24479105 0 7685.79891124 0 1100.46507694 0 1.84671984 0 7147
0.08150000 0.08149960 24308.40335335 0 512.15924235 0 6793.17022901 0 -37.67967497 0 -748.69731745 0 7386
0.08250000 0.08250610 23304.36493880 0 920.57190837 0 6606.65691744 0 349.65183822 0 -962.70321154 0 7227
0.08350000 0.08350160 22599.50074084 0 935.76867419 0 5996.43895203 0 -112.55793241 0 -904.82595525 0 7798
0.08450000 0.08449610 22027.50444071 0 268.74857523 0 6662.52786847 0 471.77293757 0 905.30095798 0 7371
0.08550000 0.08548940 22232.67461960 0 -345.30927242 0 5542.59543004 0 824.58481729 0 228.40323806 0 8256
0.08650000 0.08650700 22411.38194217 0 32.28025578 0 5561.80591360 0 1075.64092469 0 -818.85710366 0 8037
0.08750000 0.08749060 21652.59552235 0 767.94323245 0 6199.22858109 0 -398.30806240 0 -185.78364536 0 8155
0.08850000 0.08849210 21320.53650104 0 1183.47651057 0 6074.85315640 0 -18.04877524 0 987.90603729 0 8718
0.08950000 0.08949900 20220.94392330 0 871.78835246 0 6286.66673018 0 422.37818932 0 1508.57103957 0 8571
0.09050000 0.09049190 19967.60913145 0 390.31716558 0 6464.54362839 0 743.81774390 0 2136.40507376 0 8932
0.09150000 0.09150830 19405.35647716 0 318.06581721 0 6689.64399196 0 828.71922338 0 2448.14637903 0 9285
0.09250000 0.09250820 19451.86024140 0 209.92352793 0 6473.72258567 0 553.10027060 0 2899.25503679 0 9204
0.09350000 0.09350330 19293.41527324 0 38.08281832 0 6443.96017655 0 290.01408228 0 2542.64867135 0 9349
0.09450000 0.09448040 19081.38025297 0 198.74158710 0 6607.32125693 0 -326.19068916 0 2905.21194754 0 9564
0.09550000 0.09549270 18844.76467159 0 599.99045897 0 6918.20999319 0 421.08494178 0 2173.41985563 0 10155
0.09650000 0.09649430 18323.14744939 0 234.94476756 0 5956.27962992 0 437.25053602 0 2587.11512783 0 9913
0.09750000 0.09749140 18294.24868161 0 134.18329001 0 6408.30729064 0 1185.18164859 0 1557.92039128 0 10476
0.09850000 0.09850240 18046.45005217 0 173.01614762 0 5809.60454304 0 299.45434642 0 2584.64599939 0 10575
0.09950000 0.09950330 17962.07893705 0 299.01366789 0 5477.97734240 0 305.88958160 0 1932.82930964 0 10882
0.10050000 0.10051200 17699.44339235 0 100.96697990 0 5507.50723269 0 -503.67673430 0 2331.98661935 0 10875
0.10150000 0.10150300 17288.32797183 0 410.39682664 0 5359.39274359 0 174.33375427 0 2119.08795774 0 11118
0.10250000 0.10250800 17230.08754329 0 453.17696804 0 5262.72027560 0 -319.69677065 0 645.74462682 0 11575
0.10350000 0.10349800 16721.42494112 0 277.66068948 0 5078.96397291 0 181.40564813 0 651.81004635 0 11364
0.10450000 0.10450100 16299.56936553 0 143.60362397 0 5184.53859006 0 42.64982014 0 -809.10459996 0 12093
0.10550000 0.10551000 16263.91647961 0 340.97556449 0 5100.90932070 0 -695.07183389 0 -1396.14265336 0 12067
0.10650000 0.10649700 16153.63612442 0 307.15847003 0 5597.37022092 0 -969.69538466 0 -2000.03832129 0 12054
0.10750000 0.10749900 15708.75011321 0 332.03023327 0 5668.53205253 0 -676.69952531 0 -1451.39355420 0 12807
0.10850000 0.10850100 15647.96304995 0 478.44733497 0 6068.06582129 0 83.48676853 0 -1038.14781839 0 12736
0.10950000 0.10950300 15711.07530142 0 50.25429282 0 5795.26588240 0 865.12834908 0 -1029.13494599 0 12933
0.11050000 0.11050200 15521.07420753 0 77.47781786 0 5823.03527305 0 1037.59088045 0 -520.43359068 0 13428
0.11150000 0.11150900 15256.77781411 0 292.28501610 0 5276.41674140 0 1464.74677793 0 -416.92617658 0 13453
0.11250000 0.11250000 14877.43996582 0 277.73819575 0 4844.85073695 0 665.26070654 0 -34.64109687 0 13668
0.11350000 0.11349100 14722.20597186 0 186.49338139 0 4648.29482677 0 774.70067228 0 426.63106928 0 13791
0.11450000 0.11448600 14473.07866345 0 127.55207468 0 4210.66118831 0 184.20362461 0 669.83689839 0 14205
0.11550000 0.11549300 14382.94993942 0 232.18665145 0 4341.04888537 0 -129.83186636 0 582.82946273 0 14776
0.11650000 0.11649800 14362.90903150 0 81.28315445 0 4627.94389375 0 -255.95782560 0 1107.84145973 0 14553
0.11750000 0.11747300 14502.08815447 0 57.15711229 0 5139.82854244 0 210.89899975 0 877.81834055 0 14568
0.11850000 0.11849100 14112.56376735 0 270.38617207 0 4675.62132442 0 -378.15089507 0 756.19660305 0 16015
0.11950000 0.11950300 14138.58373067 0 272.18985378 0 4869.24306852 0 271.19223732 0 682.78487503 0 15270
0.12050000 0.12050700 13595.59692157 0 201.79201259 0 4577.66446675 0 -10.20527321 0 639.13998506 0 15999
0.12150000 0.12150000 13596.81487730 0 163.77629256 0 4078.53513625 0 281.50278619 0 425.15734285 0 15670
0.12250000 0.12250700 13377.91501563 0 -47.33186341 0 4193.06726417 0 226.68370601 0 -120.49014591 0 16887
0.12350000 0.12352200 13432.16940724 0 116.79088219 0 4359.86076524 0 -84.18454644 0 -350.76571409 0 16407
0.12450000 0.12449800 13448.55644798 0 145.38848273 0 4162.20869490 0 151.74842610 0 -65.72587374 0 16306
0.12550000 0.12549900 13463.72553298 0 63.52447412 0 4378.55084953 0 99.11546574 0 371.61379449 0 17523
0.12650000 0.12650100 13300.18729541 0 206.62618960 0 4659.17892206 0 -50.54029097 0 813.24454221 0 17154
0.12750000 0.12750600 13374.59331819 0 195.57047327 0 4515.44907359 0 541.04915226 0 969.06647662 0 18007
0.12850000 0.12850300 12979.31132216 0 151.61223651 0 4291.36736391 0 464.83501884 0 1341.94362337 0 17496
0.12950000 0.12949900 13274.94239482 0 28.36242436 0 4169.81538205 0 367.67093963 0 782.98055678 0 18405
0.13050000 0.13049000 12887.30030292 0 68.93961602 0 3989.03753474 0 456.52302460 0 772.02227691 0 18100
0.13150000 0.13148800 12768.38353437 0 286.05018999 0 3464.15397671 0 -75.03205203 0 389.46348933 0 19059
0.13250000 0.13249300 12726.75159305 0 234.13648785 0 3464.54150808 0 -59.02235612 0 849.33257049 0 18957
0.13350000 0.13349100 12325.37981837 0 114.27967892 0 3365.63243047 0 79.59938601 0 81.53759647 0 19468
0.13450000 0.13450700 12318.62570023 0 241.22499020 0 3240.47087072 0 347.00333812 0 330.49560905 0 19953
0.13550000 0.13551000 12050.89688612 0 167.41133679 0 3406.79933415 0 364.81981598 0 280.35901504 0 19956
0.13650000 0.13649900 11986.67740217 0 120.16129786 0 3003.72242145 0 216.95113250 0 427.43381283 0 19723
0.13750000 0.13749600 11992.10284133 0 129.78536259 0 3362.24429908 0 55.78657992 0 611.80130785 0 20946
0.13850000 0.13851100 11604.46074943 0 333.75640871 0 3201.44092574 0 -174.85304630 0 550.79944150 0 20955
0.13950000 0.13949800 11660.59743626 0 202.60582846 0 3548.62474275 0 -130.95349286 0 729.76253477 0 20506
0.14050000 0.14048300 11248.15333677 0 24.03779573 0 3369.90634785 0 348.17921901 0 1215.82984369 0 21447
0.14150000 0.14148400 11464.94945672 0 91.30305479 0 3374.45707335 0 235.22268291 0 800.68520417 0 21771
0.14250000 0.14249400 11296.42867298 0 41.61356126 0 2893.32027069 0 477.39767858 0 1186.84249731 0 22470
0.14350000 0.14350900 11474.25020956 0 -127.13354080 0 3075.57073720 0 396.69371744 0 1133.23030054 0 22519
0.14450000 0.14449900 11252.36082020 0 75.60836653 0 2954.47272066 0 108.44079915 0 1340.26063000 0 22218
0.14550000 0.14550500 11311.59775798 0 172.45810245 0 2934.90792270 0 324.19213453 0 1066.50293502 0 23559
0.14650000 0.14650700 11186.92338052 0 260.28931907 0 3186.60401048 0 -204.51137556 0 1576.89835602 0 23044
0.14750000 0.14750500 11012.93286832 0 304.38485266 0 3182.09757428 0 71.79051821 0 1336.63997978 0 23649
0.14850000 0.14849900 10772.28696071 0 225.51779021 0 3410.56392459 0 -37.02518985 0 1745.69594788 0 23640
0.14950000 0.14949500 10562.63249027 0 193.50659193 0 3150.43072530 0 153.32733962 0 1139.51938104 0 24457
0.15050000 0.15050000 10494.18337824 0 158.33092321 0 3155.60150099 0 54.73581629 0 1536.21863464 0 24591
0.15150000 0.15149900 10247.39233036 0 210.14054550 0 2842.21041932 0 155.56727093 0 865.67532192 0 25020
0.15250000 0.15250500 10076.63493700 0 176.18726144 0 2701.50331553 0 174.62274195 0 997.11378261 0 25297
0.15350000 0.15350100 9969.85343645 0 131.05757272 0 2571.90175352 0 1.09330571 0 446.43835115 0 25452
0.15450000 0.15450400 9671.48749957 0 210.17929864 0 2511.04825632 0 -8.73541101 0 143.46743437 0 26061
0.15550000 0.15549900 9647.49377168 0 78.06276878 0 2537.81006541 0 24.88471786 0 435.95396678 0 26128
0.15650000 0.15649500 9570.05393190 0 -70.99098564 0 2305.61234164 0 223.72407359 0 438.17286068 0 26331
0.15750000 0.15749700 9613.03669685 0 59.22265448 0 2228.53788857 0 243.19475678 0 271.75581865 0 27345
0.15850000 0.15849900 9648.06953257 0 164.72740526 0 2244.62597654 0 262.07528506 0 459.41068691 0 26980
0.15950000 0.15949700 9351.27586581 0 251.16572342 0 2244.63704886 0 -150.62458514 0 568.89494195 0 27777
0.16050000 0.16050000 9243.67501322 0 269.75837125 0 2226.96561845 0 -29.67360907 0 518.13165435 0 28224
0.16150000 0.16150500 9102.19284669 0 61.85487826 0 2315.24526423 0 0.15485643 0 788.59865440 0 28075
0.16250000 0.16249700 9019.73724377 0 135.22076685 0 2197.87862115 0 -29.06263818 0 323.18344574 0 28590
0.16350000 0.16349900 8928.70058911 0 86.41251964 0 2344.38762315 0 -69.30921022 0 154.21423284 0 29163
0.16450000 0.16449100 9021.97385338 0 129.63810067 0 2379.73048397 0 -71.12783957 0 25.64483296 0 28996
0.16550000 0.16550500 8621.11140564 0 237.77374655 0 2340.35729692 0 -66.11794476 0 -71.77534913 0 30777
0.16650000 0.16650700 8679.36290652 0 124.90468181 0 2385.80919030 0 -40.06553953 0 -114.79564925 0 29211
0.16750000 0.16749900 8455.54693263 0 110.55162715 0 2296.37802274 0 40.15854705 0 -276.11277847 0 30922
0.16850000 0.16850800 8412.85204813 0 172.25215720 0 2435.53500106 0 -1.79885418 0 -185.69506677 0 30867
0.16950000 0.16949900 8394.11767454 0 -25.08678779 0 2338.91789469 0 150.83495931 0 -128.94386591 0 30852
0.17050000 0.17049200 8357.06967569 0 -18.00625751 0 2254.20353750 0 238.51448508 0 -78.37290459 0 31257
0.17150000 0.17149500 8390.78490477 0 104.48100362 0 2163.05615960 0 174.24849737 0 -15.59835903 0 32608
0.17250000 0.17250900 8144.53640080 0 256.84693328 0 2029.66786251 0 167.25632425 0 -124.34885111 0 32361
0.17350000 0.17350400 8050.91989446 0 249.85143846 0 1871.58828107 0 333.89592000 0 205.35840841 0 32508
0.17450000 0.17449800 7755.47705132 0 206.40363587 0 1741.46631980 0 2.12422552 0 -7.17240843 0 32791
0.17550000 0.17549800 7664.62862619 0 72.41090057 0 1717.88226794 0 73.12174383 0 93.16276247 0 33633
0.17650000 0.17650100 7596.13522486 0 -58.87597999 0 1720.32925172 0 175.20625347 0 -130.66893411 0 33984
0.17750000 0.17750300 7595.52624699 0 -6.71670475 0 1680.23636355 0 80.01969146 0 -217.56896822 0 34069
0.17850000 0.17849800 7586.93412293 0 75.49421086 0 1580.28648742 0 35.56995420 0 -214.58719115 0 34536
