### header ###
fiducial parameters:
Omega_m = 0.31
Omega_nu = 0
Omega_de = 0.69
Omega_k = 0
H_0 = 100
w_de = -1
zeff = 0
beta = 0
fgrowth = 0
b_1 = 2
gamma = 0.55
Lx = 3500 Ly = 3500 Lz = 3500
nx = 700 ny = 700 nz = 700
xoffset = -685.467585 yoffset = -31.7331281 zoffset = 572.489161
bins = 400 dk = 0.001
kx_ny = 0.628318531 ky_ny = 0.628318531 kz_ny = 0.628318531
############################
A(data) = 8.03483958 (not used)
A(ran) = 8.03148198 (used)
Ngal = 477799
weighted Ngal = 0
Nran = 23820508
weighted Nran = 0
SN(data) = 3492.18462
SN(ran) = 69.9571208
SN(data+ran) = 3562.14174
############################
13 columns: k_central k_mean P_0(k) sigma^{lin}_{P_0(k)} P^img_1(k) sigma^{lin}_{P_1(k)} P_2(k) sigma^{lin}_{P_2(k)} P^img_3(k) sigma^{lin}_{P_3(k)} P_4(k) sigma^{lin}_{P_4(k)} N_modes
### header ###
0.00050000 0 0 0 0 0 0 0 0 0 0 0 0
0.00150000 0.00179520 46622.12739063 0 -43690.06505540 0 80608.07480522 0 -40156.66475927 0 -102396.19558335 0 3
0.00250000 0.00253879 76842.37713440 0 -31960.92992851 0 7627.62491664 0 78780.14470091 0 94982.27760803 0 6
0.00350000 0.00331552 75513.80887941 0 -13474.24424156 0 33483.04242133 0 -105444.84949892 0 -56033.71420972 0 7
0.00450000 0.00420575 74221.00423358 0 -7339.19085512 0 -42757.88602892 0 -8604.35897819 0 11950.24945352 0 24
0.00550000 0.00557378 94352.15160261 0 -5804.53341828 0 -10143.66679146 0 -53468.14582599 0 -4925.28010443 0 45
0.00650000 0.00659388 90411.17902990 0 14542.72358655 0 -24388.67770829 0 -103688.33588969 0 -4222.17640612 0 40
0.00750000 0.00754703 73430.66168803 0 35569.51131016 0 27183.11104602 0 -39701.14931623 0 17895.86643463 0 57
0.00850000 0.00846663 65739.49269925 0 13645.97599949 0 16573.16651180 0 -30977.70748462 0 -3021.29420094 0 75
0.00950000 0.00948925 52633.62470441 0 -160.56421113 0 30543.34018198 0 16236.67856056 0 -7351.58078659 0 112
0.01050000 0.01054430 66636.46173281 0 -12515.93452850 0 27653.35268107 0 38709.95479847 0 -9214.35549710 0 105
0.01150000 0.01145670 64566.60133121 0 -7262.98004339 0 8744.27994693 0 42702.74585132 0 -16641.03986294 0 144
0.01250000 0.01249090 76102.30294352 0 -4128.20558538 0 5900.23152169 0 19528.25928265 0 -8125.37020654 0 169
0.01350000 0.01339930 71686.99197559 0 -4933.17467202 0 4086.23040200 0 -5128.09187813 0 -4642.85831528 0 180
0.01450000 0.01448870 80151.11995995 0 2235.93420155 0 16159.28301008 0 -16391.58038477 0 -565.73047152 0 267
0.01550000 0.01550050 72596.69418269 0 3351.81416910 0 20539.38398509 0 -22591.41794373 0 14536.30163816 0 238
0.01650000 0.01653350 78063.65456189 0 -951.29982421 0 39030.94149496 0 -315.64983593 0 1105.42547845 0 315
0.01750000 0.01747870 75272.43219836 0 3106.60646367 0 27406.99345385 0 -101.19506979 0 13971.28090266 0 297
0.01850000 0.01844180 84783.55921758 0 -2924.54422667 0 38478.98610275 0 15842.39307377 0 -14736.82144063 0 388
0.01950000 0.01947590 79762.48135882 0 2816.60013202 0 46812.57137751 0 -1729.15389460 0 6290.71920106 0 399
0.02050000 0.02045430 76701.20499296 0 14255.06458777 0 46538.75278474 0 -1936.60497241 0 -3438.03436246 0 462
0.02150000 0.02154770 68959.87837276 0 8110.69937615 0 43129.36252658 0 9112.36831320 0 21748.92474827 0 571
0.02250000 0.02255340 64195.45700329 0 2238.70228276 0 39143.98993136 0 14108.02411417 0 12093.41461342 0 510
0.02350000 0.02348930 66348.24911778 0 -4112.12856975 0 39558.20560283 0 12769.26932035 0 5491.61844658 0 555
0.02450000 0.02439640 66177.40314583 0 226.71360129 0 33818.53386334 0 11211.72538811 0 2443.40742400 0 592
0.02550000 0.02547300 66635.02233058 0 -440.96751546 0 24585.10075057 0 6253.15080295 0 2727.55649583 0 837
0.02650000 0.02652900 67550.92503958 0 -5276.95928532 0 27751.12130921 0 1030.20010364 0 426.58013659 0 723
0.02750000 0.02749970 71699.83587238 0 12.76838353 0 23622.14066109 0 48.47873482 0 -12606.61686877 0 826
0.02850000 0.02848090 69129.61711223 0 6933.67803096 0 27490.36805974 0 -6629.28874937 0 -3666.67786997 0 831
0.02950000 0.02946900 63435.78479748 0 6340.13498673 0 27790.76023206 0 -4950.20390760 0 -567.81428305 0 996
0.03050000 0.03053250 62582.77289346 0 603.55131863 0 28834.32684622 0 -124.14954926 0 -4154.38056126 0 1041
0.03150000 0.03150510 61339.35081632 0 438.71983352 0 35542.93773059 0 2488.53821997 0 -4565.51812642 0 1036
0.03250000 0.03246190 60232.78267395 0 4492.82831399 0 32972.49752394 0 2925.96148425 0 -5355.79423803 0 1059
0.03350000 0.03345080 59259.63604564 0 2564.83761029 0 30228.88615713 0 8885.80640276 0 -226.29063848 0 1302
0.03450000 0.03451200 57054.36111151 0 -2152.34922150 0 22817.95770951 0 632.07694906 0 -80.55813862 0 1339
0.03550000 0.03553350 56107.56661626 0 1306.26859280 0 22769.79309655 0 3584.13368845 0 -671.51657007 0 1365
0.03650000 0.03647120 59568.66463132 0 2182.54345128 0 23796.52977699 0 4508.26313478 0 -8115.70406697 0 1308
0.03750000 0.03744890 51940.82934051 0 1806.94804878 0 18864.69485627 0 -1283.07207231 0 -3707.66761645 0 1579
0.03850000 0.03847530 52865.58990936 0 3168.41218080 0 19714.82795584 0 -267.03457935 0 -9498.89210029 0 1662
0.03950000 0.03950240 50183.20849880 0 589.30345106 0 19024.57922665 0 1586.78594209 0 -6552.76791255 0 1683
0.04050000 0.04050350 49908.94701304 0 1274.10348921 0 18197.91945569 0 4365.74016972 0 -7531.43963094 0 1822
0.04150000 0.04152450 46262.16611077 0 2047.57181174 0 16386.70856185 0 2142.08517639 0 -4356.52799547 0 1887
0.04250000 0.04250150 47289.01351445 0 1895.07268201 0 16540.61387683 0 6393.69182188 0 -7026.09872622 0 1920
0.04350000 0.04349210 43933.32403167 0 1956.54622940 0 16909.76518628 0 2071.28873150 0 -4156.27392880 0 2005
0.04450000 0.04448520 40650.82261593 0 4134.43930426 0 17353.87613476 0 -524.58571249 0 -2964.21636650 0 2151
0.04550000 0.04548030 40065.53952602 0 566.35384340 0 14951.51381886 0 206.16890259 0 -3623.30757365 0 2274
0.04650000 0.04648670 39673.13633444 0 -714.99758963 0 17638.76705234 0 1304.50809316 0 -14.77103492 0 2311
0.04750000 0.04749250 39296.78801386 0 -606.11788352 0 16987.49290651 0 1934.75589416 0 1993.57208360 0 2568
0.04850000 0.04851840 41658.62562092 0 -305.94937216 0 17066.21713597 0 3147.23082343 0 189.06658967 0 2493
0.04950000 0.04949480 39510.15171311 0 1202.85307900 0 15214.37081005 0 697.25086741 0 5900.38653423 0 2644
0.05050000 0.05050630 40184.12412482 0 1425.86077317 0 15265.63567396 0 3770.20410702 0 3978.27523501 0 2829
0.05150000 0.05149060 37977.18834197 0 647.54166514 0 14023.21010606 0 13.06191087 0 6240.83837776 0 2784
0.05250000 0.05249300 37128.93753761 0 2162.10393966 0 17116.04259766 0 1541.44477195 0 5601.38947483 0 3055
0.05350000 0.05348950 36081.49560977 0 1252.00312887 0 14443.62627943 0 881.60175394 0 5087.40108442 0 3009
0.05450000 0.05448610 35109.23476745 0 414.03962150 0 16762.61398945 0 -169.50511342 0 5687.34393240 0 3336
0.05550000 0.05550870 34324.98200054 0 -13.42785120 0 14055.98418753 0 262.23804824 0 2976.72809354 0 3349
0.05650000 0.05647670 35221.72958760 0 -274.61358569 0 15896.86891188 0 1269.38667883 0 3014.88332487 0 3324
0.05750000 0.05747970 34461.28231906 0 1270.52712829 0 13452.98537790 0 1695.27258066 0 1762.19371186 0 3639
0.05850000 0.05849280 32446.67281831 0 1755.00777305 0 12779.45585919 0 899.88105499 0 850.43426681 0 3846
0.05950000 0.05951020 31737.04752068 0 784.77980957 0 12675.15455939 0 577.33758962 0 1696.43517476 0 3787
0.06050000 0.06049470 31037.27659214 0 731.07460527 0 13744.07679739 0 292.98257256 0 476.11328890 0 3930
0.06150000 0.06148310 30668.34672918 0 182.31690046 0 12052.55773484 0 -681.67321362 0 -2129.56237702 0 4083
0.06250000 0.06249100 30616.30680254 0 525.02306932 0 12199.26603869 0 -303.43373996 0 727.74737166 0 4303
0.06350000 0.06350600 31113.12201715 0 -796.26734657 0 11263.87603801 0 -1230.44531245 0 -1372.27072105 0 4470
0.06450000 0.06451750 32432.16807279 0 -1043.41160161 0 12428.79533218 0 883.70881736 0 -1498.96026162 0 4479
0.06550000 0.06550280 32399.06182159 0 190.65546828 0 12309.65711713 0 -83.21760032 0 -3296.33074943 0 4636
0.06650000 0.06648880 32010.64466695 0 1748.30901654 0 11919.13622078 0 1436.24661385 0 -2450.75944768 0 4653
0.06750000 0.06749660 30875.28848004 0 858.28897404 0 11624.16948761 0 929.94352410 0 -372.23384468 0 5220
0.06850000 0.06852730 29986.84513660 0 882.31038273 0 12122.09193470 0 1866.14069726 0 -1150.76886305 0 5029
0.06950000 0.06949320 29357.16202416 0 695.57562466 0 12551.80886091 0 1434.69648838 0 895.57281340 0 5040
0.07050000 0.07048030 28691.16168632 0 561.75329244 0 11270.18726316 0 1145.03339880 0 2596.23872348 0 5475
0.07150000 0.07148790 28812.18219659 0 42.67982614 0 11359.65164769 0 1861.23565736 0 2906.90601324 0 5509
0.07250000 0.07249820 28966.30895806 0 -11.13521562 0 10989.32667181 0 1655.91046593 0 3374.83353240 0 5916
0.07350000 0.07351270 27995.37679471 0 953.89628438 0 11597.04229180 0 65.00650480 0 2843.74947247 0 5721
0.07450000 0.07449140 27133.39630758 0 1434.90686255 0 9987.02661225 0 -223.60449248 0 1163.81206169 0 6028
0.07550000 0.07549160 25808.03902679 0 1072.24947160 0 9259.10983402 0 222.10862140 0 2016.38107272 0 6183
0.07650000 0.07648840 25548.50373304 0 -33.90932693 0 8826.65804358 0 787.16146663 0 168.34473378 0 6330
0.07750000 0.07749960 25228.62426903 0 -669.41836451 0 8103.07054435 0 831.74196805 0 -1432.03913042 0 6583
0.07850000 0.07848650 25686.24345378 0 329.53453125 0 7451.78532620 0 -202.04556883 0 -3846.60314827 0 6549
0.07950000 0.07947320 24996.32689433 0 787.56449926 0 6696.15451895 0 -523.25260458 0 -3431.33560595 0 6828
0.08050000 0.08048110 24544.46531849 0 1026.97030649 0 7074.35191778 0 -721.46382732 0 -3341.72728119 0 7147
0.08150000 0.08149960 23564.01095579 0 1268.03585521 0 7321.02117009 0 1096.64844657 0 -1107.58679626 0 7386
0.08250000 0.08250610 22783.96567232 0 604.73605739 0 7386.61362231 0 1288.90718749 0 -1773.78643595 0 7227
0.08350000 0.08350160 22110.32543035 0 562.35894861 0 7774.35536514 0 1358.69605082 0 -742.37169828 0 7798
0.08450000 0.08449610 21266.94644892 0 651.49448510 0 7584.42070520 0 1233.74486524 0 120.89096407 0 7371
0.08550000 0.08548940 21321.09011728 0 119.27108295 0 7164.75744992 0 986.21861499 0 1346.50542120 0 8256
0.08650000 0.08650700 21208.81674362 0 -749.97284927 0 7391.93941055 0 553.12905864 0 243.35973442 0 8037
0.08750000 0.08749060 21651.82045961 0 183.73526527 0 7151.60352804 0 926.80784171 0 1362.87031728 0 8155
0.08850000 0.08849210 21493.26476821 0 596.95110581 0 7324.11034871 0 -382.46135112 0 126.12595924 0 8718
0.08950000 0.08949900 20827.15370712 0 568.72885708 0 6484.05306472 0 -410.68802878 0 1571.08538549 0 8571
0.09050000 0.09049190 20512.92112877 0 697.69376040 0 7252.04058647 0 226.76453398 0 1208.27851816 0 8932
0.09150000 0.09150830 20222.60477202 0 83.48809721 0 7383.83446879 0 -83.28204125 0 1480.03765851 0 9285
0.09250000 0.09250820 20081.21118409 0 -14.00383354 0 7252.16238204 0 1000.59935047 0 983.33538161 0 9204
0.09350000 0.09350330 19906.93279144 0 231.71275594 0 7005.48205741 0 329.21343383 0 445.82051543 0 9349
0.09450000 0.09448040 19699.21597785 0 617.58881204 0 6756.41011061 0 -32.70111484 0 1008.79619253 0 9564
0.09550000 0.09549270 19407.46021888 0 120.51339779 0 7017.77233796 0 42.65602064 0 -194.90281209 0 10155
0.09650000 0.09649430 19021.36825245 0 200.86968793 0 6340.86576017 0 246.70357652 0 -597.06404352 0 9913
0.09750000 0.09749140 19011.40316011 0 397.88842129 0 6729.99154359 0 -414.56887863 0 -354.79936202 0 10476
0.09850000 0.09850240 18119.97028896 0 500.56873273 0 6697.04030493 0 247.06896324 0 442.34601990 0 10575
0.09950000 0.09950330 18405.74699253 0 116.47310646 0 6010.77761267 0 905.59658906 0 642.83703432 0 10882
0.10050000 0.10051200 18202.79127861 0 -179.13360708 0 5933.37098987 0 1196.15432248 0 476.75326927 0 10875
0.10150000 0.10150300 17929.63702533 0 223.60781418 0 5757.52032710 0 1029.10505071 0 1448.95764274 0 11118
0.10250000 0.10250800 18212.75637094 0 222.88368413 0 5841.53712782 0 211.02190256 0 357.29617127 0 11575
0.10350000 0.10349800 17665.67280165 0 343.28525144 0 5396.16393432 0 -412.21711684 0 1919.50930289 0 11364
0.10450000 0.10450100 17347.23273987 0 557.43065683 0 6015.58300165 0 -67.91199355 0 844.41977997 0 12093
0.10550000 0.10551000 16948.73976965 0 609.80275322 0 6108.52409617 0 -453.92102827 0 1428.88351785 0 12067
0.10650000 0.10649700 16469.19738175 0 476.43770802 0 5963.07803736 0 244.29202417 0 153.87763417 0 12054
0.10750000 0.10749900 16144.99971106 0 75.03094479 0 6213.66689265 0 527.72471658 0 1287.16883249 0 12807
0.10850000 0.10850100 16089.63808697 0 151.69417171 0 5791.73381079 0 559.41481744 0 -229.60569253 0 12736
0.10950000 0.10950300 15781.49528726 0 282.59008849 0 5659.79598825 0 776.35155591 0 145.92659771 0 12933
0.11050000 0.11050200 15710.41096193 0 284.43141610 0 5381.29380208 0 414.56777139 0 856.69013033 0 13428
0.11150000 0.11150900 15305.71748981 0 195.50071763 0 5214.95426633 0 363.32173044 0 849.84300467 0 13453
0.11250000 0.11250000 15272.16834561 0 88.49810275 0 4857.05243890 0 373.76071828 0 1011.93741108 0 13668
0.11350000 0.11349100 15306.49255254 0 156.96570556 0 5028.40773779 0 555.12096988 0 139.02964659 0 13791
0.11450000 0.11448600 15065.89093424 0 106.18846683 0 4491.05674202 0 -330.56757916 0 646.84300144 0 14205
0.11550000 0.11549300 15100.99020391 0 110.95355254 0 4728.30344591 0 -235.81173059 0 -275.33439403 0 14776
0.11650000 0.11649800 14847.21251907 0 346.73317339 0 4691.22223009 0 -723.86873627 0 -244.08054277 0 14553
0.11750000 0.11747300 14672.26978693 0 496.02243616 0 5016.28354211 0 -394.10611513 0 -417.69902485 0 14568
0.11850000 0.11849100 14268.12993105 0 286.91715303 0 4497.04686974 0 48.06828374 0 -251.74591324 0 16015
0.11950000 0.11950300 14203.68900061 0 -121.41025610 0 4750.30415532 0 926.32176665 0 -528.89727577 0 15270
0.12050000 0.12050700 14266.35835908 0 -159.13588122 0 4442.21671724 0 582.61798133 0 -1488.59656559 0 15999
0.12150000 0.12150000 14267.24414507 0 123.86499051 0 4037.84434254 0 337.15339796 0 -578.44592934 0 15670
0.12250000 0.12250700 14113.56027658 0 400.52363459 0 4493.48158115 0 75.14366106 0 -928.20074017 0 16887
0.12350000 0.12352200 13806.19253962 0 355.01970129 0 4242.51626681 0 -208.99788158 0 185.58545075 0 16407
0.12450000 0.12449800 13459.96094254 0 392.86601475 0 4858.75757692 0 13.31812446 0 -433.24235443 0 16306
0.12550000 0.12549900 13311.48106672 0 234.85729619 0 4591.43843882 0 344.03927676 0 390.52200359 0 17523
0.12650000 0.12650100 12977.87191994 0 142.44102986 0 4228.55406522 0 603.37305420 0 215.35671772 0 17154
0.12750000 0.12750600 13090.58818659 0 -34.06832551 0 3874.89293818 0 768.42155688 0 -92.91784265 0 18007
0.12850000 0.12850300 12998.57716735 0 73.70016207 0 3193.08132050 0 524.86362784 0 -180.90739351 0 17496
0.12950000 0.12949900 12835.48182277 0 89.05105465 0 2806.03713414 0 150.44632071 0 -538.20245755 0 18405
0.13050000 0.13049000 12469.87365726 0 302.15710091 0 2643.28503163 0 -256.41511262 0 -620.53405044 0 18100
0.13150000 0.13148800 12374.87311031 0 341.49042759 0 2637.10667438 0 -3.82490139 0 -941.22290139 0 19059
0.13250000 0.13249300 12066.39814086 0 -26.57690126 0 2619.06985725 0 171.56678030 0 -327.22816599 0 18957
0.13350000 0.13349100 12395.79980422 0 -202.37330964 0 2707.53773255 0 357.75013659 0 -332.19188921 0 19468
0.13450000 0.13450700 12258.28152997 0 111.67436089 0 2735.39570180 0 245.33392994 0 -42.23527230 0 19953
0.13550000 0.13551000 12273.33989172 0 395.48240510 0 2678.53931385 0 -85.34503681 0 -403.48105255 0 19956
0.13650000 0.13649900 12041.04251703 0 298.55748811 0 3494.95718436 0 -365.34242972 0 772.04220709 0 19723
0.13750000 0.13749600 11706.32613776 0 523.02340746 0 3566.71692151 0 -276.39844445 0 1060.00790928 0 20946
0.13850000 0.13851100 11460.63125004 0 241.06776318 0 3574.40111493 0 526.45472092 0 1089.68616872 0 20955
0.13950000 0.13949800 11267.08701221 0 -3.63092533 0 3402.29289795 0 243.70076203 0 782.86097568 0 20506
0.14050000 0.14048300 11344.26111619 0 -21.56711717 0 3531.75051973 0 408.19232676 0 803.16983386 0 21447
0.14150000 0.14148400 11265.31544024 0 -83.07443516 0 3099.45374183 0 400.18149976 0 538.60438294 0 21771
0.14250000 0.14249400 11296.09650323 0 109.24775018 0 3373.31662390 0 63.74514555 0 615.49282095 0 22470
0.14350000 0.14350900 11216.04359479 0 279.96262581 0 2863.72394645 0 -413.13611980 0 460.34297666 0 22519
0.14450000 0.14449900 10956.77403684 0 390.29280646 0 3435.75346355 0 -300.24712487 0 511.37310728 0 22218
0.14550000 0.14550500 10636.27452264 0 277.91203125 0 3276.06839502 0 -356.06160705 0 713.37327958 0 23559
0.14650000 0.14650700 10503.41769714 0 106.40205198 0 3557.30544541 0 207.11890806 0 352.75098193 0 23044
0.14750000 0.14750500 10458.70764952 0 59.02733867 0 3338.70453652 0 488.94500613 0 401.13261246 0 23649
0.14850000 0.14849900 10491.61459888 0 144.36539992 0 3430.73770041 0 96.03270906 0 357.18544802 0 23640
0.14950000 0.14949500 10298.92293006 0 112.30659064 0 2923.09375212 0 271.00843673 0 302.46380430 0 24457
0.15050000 0.15050000 10105.36761991 0 273.67465254 0 3063.78978359 0 -9.14652644 0 389.74251192 0 24591
0.15150000 0.15149900 9830.22034817 0 217.71512291 0 2655.91855425 0 123.92145937 0 228.59368204 0 25020
0.15250000 0.15250500 9762.23627378 0 -1.97141636 0 2577.03931224 0 198.23226016 0 97.55781108 0 25297
0.15350000 0.15350100 9657.94604631 0 -50.10370921 0 2429.16841429 0 378.07892495 0 -170.50605158 0 25452
0.15450000 0.15450400 9671.63143979 0 90.44461745 0 2193.09537683 0 309.46926422 0 -391.40336064 0 26061
0.15550000 0.15549900 9728.78678050 0 82.61748031 0 1987.98055956 0 138.05749647 0 -181.60162828 0 26128
0.15650000 0.15649500 9587.81394091 0 67.72099595 0 2215.08501392 0 -178.70067918 0 -81.77709086 0 26331
0.15750000 0.15749700 9546.56953096 0 210.38192218 0 2259.21930065 0 -8.48917358 0 80.16086361 0 27345
0.15850000 0.15849900 9373.97413169 0 228.16075414 0 2666.01651448 0 10.53074419 0 254.56714160 0 26980
0.15950000 0.15949700 9184.10590570 0 264.07937585 0 2606.82386600 0 -29.19307017 0 269.24461538 0 27777
0.16050000 0.16050000 9033.45585422 0 208.36233013 0 2981.43383159 0 -102.17297752 0 324.15891755 0 28224
0.16150000 0.16150500 9019.36078472 0 90.85717227 0 2991.22176673 0 -75.70768529 0 418.05998264 0 28075
0.16250000 0.16249700 8807.23718585 0 40.50621805 0 2832.31176093 0 37.71997824 0 117.16844846 0 28590
0.16350000 0.16349900 8941.81022169 0 41.49685896 0 2896.11049654 0 -31.37143936 0 125.08848241 0 29163
0.16450000 0.16449100 8840.46523263 0 77.19049103 0 2942.20458476 0 -12.39812499 0 -35.52577563 0 28996
0.16550000 0.16550500 8722.68891353 0 239.20761261 0 2806.53538876 0 67.23968199 0 196.52380044 0 30777
0.16650000 0.16650700 8683.53717297 0 25.40766376 0 2677.36564742 0 458.95007820 0 54.80424326 0 29211
0.16750000 0.16749900 8526.37659450 0 -24.23045419 0 2554.55142053 0 459.10619798 0 253.63374462 0 30922
0.16850000 0.16850800 8658.65765910 0 -4.82502020 0 2417.34317138 0 435.15011600 0 147.32281787 0 30867
0.16950000 0.16949900 8564.90828487 0 106.41611383 0 2449.20932221 0 49.58286705 0 279.51419665 0 30852
0.17050000 0.17049200 8494.42186507 0 230.68524420 0 2404.39962367 0 -230.14602198 0 802.67600817 0 31257
0.17150000 0.17149500 8370.87686474 0 167.55416978 0 2487.74101258 0 -122.64924925 0 872.28992877 0 32608
0.17250000 0.17250900 8261.61516343 0 146.96186009 0 2563.01067670 0 4.17947045 0 711.20642561 0 32361
0.17350000 0.17350400 8242.47111382 0 12.67116852 0 2496.66530638 0 108.33505845 0 771.97688038 0 32508
0.17450000 0.17449800 8224.85504504 0 102.11418347 0 2513.73883125 0 86.48792218 0 510.96343127 0 32791
0.17550000 0.17549800 8035.20826554 0 235.77629915 0 2664.18958089 0 -138.36862879 0 585.72266121 0 33633
0.17650000 0.17650100 7820.00656037 0 221.68676582 0 2492.01492996 0 65.48981177 0 681.79943813 0 33984
0.17750000 0.17750300 7791.69462580 0 133.62745931 0 2666.30439493 0 -61.73928319 0 904.27455347 0 34069
0.17850000 0.17849800 7675.04768384 0 43.95026469 0 2593.54814855 0 288.71086965 0 789.36707374 0 34536
