### header ###
fiducial parameters:
Omega_m = 0.31
Omega_nu = 0
Omega_de = 0.69
Omega_k = 0
H_0 = 100
w_de = -1
zeff = 0
beta = 0
fgrowth = 0
b_1 = 2
gamma = 0.55
Lx = 3500 Ly = 3500 Lz = 3500
nx = 700 ny = 700 nz = 700
xoffset = -685.467585 yoffset = -31.7331281 zoffset = 572.489161
bins = 400 dk = 0.001
kx_ny = 0.628318531 ky_ny = 0.628318531 kz_ny = 0.628318531
############################
A(data) = 7.98611321 (not used)
A(ran) = 7.9798195 (used)
Ngal = 474072
weighted Ngal = 0
Nran = 23820508
weighted Nran = 0
SN(data) = 3492.96019
SN(ran) = 69.5071219
SN(data+ran) = 3562.46731
############################
13 columns: k_central k_mean P_0(k) sigma^{lin}_{P_0(k)} P^img_1(k) sigma^{lin}_{P_1(k)} P_2(k) sigma^{lin}_{P_2(k)} P^img_3(k) sigma^{lin}_{P_3(k)} P_4(k) sigma^{lin}_{P_4(k)} N_modes
### header ###
0.00050000 0 0 0 0 0 0 0 0 0 0 0 0
0.00150000 0.00179520 11547.10610687 0 -24016.53687113 0 -13948.47191354 0 -18188.95087258 0 37526.65544510 0 3
0.00250000 0.00253879 23453.73060060 0 -28586.19604704 0 -21457.94405204 0 -18155.62317488 0 -12864.04842080 0 6
0.00350000 0.00331552 34836.08051417 0 -19981.44953747 0 -15091.35728132 0 -11120.04653861 0 3545.77915527 0 7
0.00450000 0.00420575 45617.86752957 0 -11454.54147139 0 -17651.38950264 0 -26310.39040381 0 3462.07237964 0 24
0.00550000 0.00557378 41991.23825848 0 5306.77705606 0 -8743.81490928 0 -16947.85398366 0 23173.49005944 0 45
0.00650000 0.00659388 33573.50331510 0 8845.99032271 0 -76.02114280 0 -18024.08395603 0 17566.46477128 0 40
0.00750000 0.00754703 29918.75033896 0 4117.70902146 0 -67.62056996 0 12468.76642477 0 34579.97764111 0 57
0.00850000 0.00846663 45435.50633981 0 -15455.19387486 0 1916.30940101 0 17998.72833220 0 23984.42712916 0 75
0.00950000 0.00948925 55565.57631639 0 -15091.80017431 0 -5908.23681253 0 23880.01510612 0 20395.88665544 0 112
0.01050000 0.01054430 79232.00627676 0 -18413.60834315 0 11438.59732365 0 -469.78988420 0 5673.19350128 0 105
0.01150000 0.01145670 84462.01890485 0 -7441.35519622 0 -1951.95121460 0 -18338.42725763 0 8673.54993599 0 144
0.01250000 0.01249090 91560.48634608 0 2231.91494764 0 19248.57235773 0 -8402.05653143 0 8589.53313526 0 169
0.01350000 0.01339930 87031.90549525 0 3473.42151258 0 5730.51492686 0 -9379.42171550 0 4873.38411800 0 180
0.01450000 0.01448870 90052.65715228 0 7175.56403895 0 22135.79177744 0 1631.72850852 0 -12486.14997474 0 267
0.01550000 0.01550050 83961.66054629 0 5836.16705028 0 33257.72061127 0 -2174.13955674 0 -117.12083747 0 238
0.01650000 0.01653350 82335.35747693 0 2411.62985177 0 32817.81714623 0 1395.25686737 0 -2635.84442935 0 315
0.01750000 0.01747870 77308.85417901 0 5095.18492877 0 41868.11400649 0 2196.53886985 0 -760.35979718 0 297
0.01850000 0.01844180 70929.09134175 0 7531.92681323 0 26050.96583331 0 10222.29136999 0 14199.03862418 0 388
0.01950000 0.01947590 73436.19785044 0 3630.64852501 0 41664.16178333 0 8445.32717682 0 3539.40149618 0 399
0.02050000 0.02045430 70894.98858131 0 -4423.61521155 0 32716.28392764 0 12493.45770912 0 11038.80889142 0 462
0.02150000 0.02154770 77148.19474589 0 -4668.45753026 0 35011.35541605 0 10637.02744073 0 11437.49009117 0 571
0.02250000 0.02255340 81917.26649178 0 -5706.62084991 0 28844.73483155 0 18750.42846414 0 6344.68571223 0 510
0.02350000 0.02348930 82052.68102431 0 -3723.01385865 0 19372.58239570 0 9405.54132975 0 5724.54694379 0 555
0.02450000 0.02439640 80218.32897160 0 8502.18356477 0 24434.73857953 0 -4693.44776738 0 3988.47284617 0 592
0.02550000 0.02547300 74104.74482299 0 12187.41865113 0 28453.32814921 0 -3202.23813313 0 868.14112866 0 837
0.02650000 0.02652900 62760.37298355 0 5392.38827155 0 27754.22156016 0 -3784.93029903 0 8590.82859727 0 723
0.02750000 0.02749970 58847.74556238 0 2454.01471118 0 26392.10416097 0 2402.40660520 0 -5178.32701583 0 826
0.02850000 0.02848090 60989.57607530 0 -2662.16334545 0 28629.37811383 0 10829.55302467 0 -3915.17405587 0 831
0.02950000 0.02946900 61405.45259549 0 753.20153918 0 25116.68306511 0 4394.02995963 0 -5825.33831661 0 996
0.03050000 0.03053250 61641.95745362 0 2335.60726957 0 21308.57839024 0 -263.77710139 0 -6375.43355825 0 1041
0.03150000 0.03150510 57548.96186116 0 4014.31565230 0 23415.08818698 0 -1125.03678017 0 -5055.11418525 0 1036
0.03250000 0.03246190 53472.79620242 0 5063.37413957 0 16350.61278294 0 -2005.90665345 0 -16251.18330607 0 1059
0.03350000 0.03345080 51242.49781420 0 3449.49421865 0 19793.22001556 0 -179.41041520 0 -11415.12399503 0 1302
0.03450000 0.03451200 49682.85014024 0 805.50387993 0 19356.63824796 0 -1472.90708133 0 -18818.08036878 0 1339
0.03550000 0.03553350 48363.47191485 0 -524.17603647 0 18079.55630337 0 246.29279327 0 -18917.62056890 0 1365
0.03650000 0.03647120 47115.62090779 0 2889.45602932 0 15580.97548480 0 -1704.25223609 0 -21578.74311581 0 1308
0.03750000 0.03744890 45566.49194242 0 3825.93111784 0 16595.86477768 0 1974.41696166 0 -20015.55229792 0 1579
0.03850000 0.03847530 40847.79927445 0 2251.49081792 0 17045.73333506 0 8.46462624 0 -15245.15187305 0 1662
0.03950000 0.03950240 39567.94924867 0 2914.83379781 0 15758.90774463 0 2629.34497468 0 -11440.92251186 0 1683
0.04050000 0.04050350 37742.01216282 0 -33.51714518 0 16277.64616239 0 5738.04410774 0 -6365.10307920 0 1822
0.04150000 0.04152450 38809.38427534 0 -2603.38037298 0 16064.94680262 0 4507.77595249 0 -4840.28893912 0 1887
0.04250000 0.04250150 40982.32802100 0 -1173.01316361 0 15105.86202683 0 4732.72130351 0 1113.46620074 0 1920
0.04350000 0.04349210 41924.91503281 0 -590.46936686 0 14385.27512763 0 5431.19677004 0 2909.70731142 0 2005
0.04450000 0.04448520 42374.22997395 0 -183.91463694 0 12975.98962472 0 1708.42650254 0 8410.85902966 0 2151
0.04550000 0.04548030 41934.32650891 0 203.01107555 0 12076.80612619 0 1865.67565962 0 3614.95904074 0 2274
0.04650000 0.04648670 43687.51842069 0 349.62969357 0 12791.52469324 0 291.27300561 0 5508.44838030 0 2311
0.04750000 0.04749250 41428.54271119 0 1913.48595818 0 13350.34492683 0 -722.53673560 0 6098.78045033 0 2568
0.04850000 0.04851840 39904.10503016 0 2539.73664993 0 13549.86822007 0 -6164.35075791 0 5012.92862769 0 2493
0.04950000 0.04949480 38984.54845397 0 978.95849161 0 14897.37015050 0 -3098.45723260 0 3997.18676581 0 2644
0.05050000 0.05050630 37695.95129158 0 2294.92754819 0 18045.56426618 0 -3357.32818686 0 -161.55850589 0 2829
0.05150000 0.05149060 36289.98748611 0 2933.00348284 0 20494.65179282 0 -1614.87643015 0 3084.89363470 0 2784
0.05250000 0.05249300 34449.21348501 0 2212.75982571 0 20888.38366337 0 2058.64413656 0 927.30498910 0 3055
0.05350000 0.05348950 33418.26932114 0 -900.20325964 0 18515.58445473 0 5589.76353377 0 4419.83954878 0 3009
0.05450000 0.05448610 34775.40417416 0 -2870.50020923 0 17974.59066409 0 5885.19530458 0 1701.45093791 0 3336
0.05550000 0.05550870 36392.73866042 0 -1799.30814465 0 16068.93283956 0 5263.93823133 0 1828.16262313 0 3349
0.05650000 0.05647670 37826.82617093 0 -898.71292472 0 14021.10636435 0 1765.54862628 0 1679.22878200 0 3324
0.05750000 0.05747970 36841.16781558 0 901.51643736 0 12541.84376858 0 700.05327282 0 4165.94006837 0 3639
0.05850000 0.05849280 36316.56106567 0 929.29800756 0 10902.67465778 0 -891.43730008 0 3256.54788636 0 3846
0.05950000 0.05951020 35510.49581887 0 2926.81405326 0 12570.18892011 0 -806.01320687 0 2026.74476875 0 3787
0.06050000 0.06049470 32930.09051989 0 1801.62226054 0 10907.25860025 0 455.06590665 0 2328.77564516 0 3930
0.06150000 0.06148310 31383.72963572 0 1365.50553058 0 11770.54562171 0 1905.19278689 0 2675.28405036 0 4083
0.06250000 0.06249100 31312.86675688 0 -68.02980309 0 10567.49324086 0 2961.54793622 0 3295.30102323 0 4303
0.06350000 0.06350600 31156.63625369 0 369.31517986 0 11181.38721811 0 2470.55676446 0 3213.35474724 0 4470
0.06450000 0.06451750 30420.76954624 0 1188.43691208 0 10187.73464424 0 1370.62094465 0 3741.64858132 0 4479
0.06550000 0.06550280 29907.45656765 0 740.46615118 0 9270.18215884 0 584.61099980 0 4680.82531708 0 4636
0.06650000 0.06648880 28715.52080092 0 572.30300353 0 9041.21755391 0 65.72808820 0 3595.15065164 0 4653
0.06750000 0.06749660 29172.36492294 0 -309.52684031 0 9344.54389232 0 -872.87786922 0 3016.82098171 0 5220
0.06850000 0.06852730 28804.98518545 0 266.84745706 0 9489.96780649 0 242.55145471 0 324.87529697 0 5029
0.06950000 0.06949320 28187.48163032 0 902.90601413 0 9667.51253496 0 100.67566703 0 565.35511971 0 5040
0.07050000 0.07048030 27831.94928039 0 234.85286726 0 8384.50689660 0 408.68836692 0 -2388.59941615 0 5475
0.07150000 0.07148790 27440.76404455 0 338.65148351 0 9519.94058977 0 831.54488067 0 -515.80535891 0 5509
0.07250000 0.07249820 27273.23977004 0 461.01838847 0 8774.57382763 0 121.55087463 0 -3295.55568670 0 5916
0.07350000 0.07351270 26737.11780232 0 -67.44219481 0 7895.84091305 0 1668.06787858 0 -1459.97460594 0 5721
0.07450000 0.07449140 26997.87105180 0 33.33965581 0 9372.81153758 0 -433.83804551 0 -1769.01426395 0 6028
0.07550000 0.07549160 27207.02726763 0 444.12091357 0 7810.79438612 0 -548.25723572 0 -1580.37506602 0 6183
0.07650000 0.07648840 26607.35015545 0 222.40978863 0 8597.43877518 0 -242.07755921 0 -1687.36694074 0 6330
0.07750000 0.07749960 26147.62722898 0 594.66024180 0 7940.76133484 0 13.78759103 0 -1339.02052962 0 6583
0.07850000 0.07848650 25911.12237085 0 646.93711620 0 8902.54775789 0 10.91541890 0 -4007.94906553 0 6549
0.07950000 0.07947320 25450.62438164 0 897.40196146 0 8034.99789137 0 -127.19886752 0 -3773.41508122 0 6828
0.08050000 0.08048110 24538.04337009 0 692.32146840 0 8724.50477480 0 -483.10878372 0 -2602.29528515 0 7147
0.08150000 0.08149960 23557.58900740 0 735.79584457 0 8252.81266520 0 130.41427064 0 -2534.27799379 0 7386
0.08250000 0.08250610 23325.29163270 0 321.17935494 0 9071.84360436 0 552.16798085 0 -2434.77101065 0 7227
0.08350000 0.08350160 22718.63895589 0 991.44364507 0 8421.65454636 0 1104.76113897 0 -1569.11451167 0 7798
0.08450000 0.08449610 22304.97690067 0 907.99042568 0 7726.25718613 0 1480.73521497 0 -1009.43838737 0 7371
0.08550000 0.08548940 21156.66609372 0 340.63675135 0 6971.71146671 0 1263.27475553 0 194.11778426 0 8256
0.08650000 0.08650700 21068.97328116 0 -63.46479429 0 6231.99159023 0 1222.69468507 0 -244.98958063 0 8037
0.08750000 0.08749060 20994.01364214 0 -21.44698245 0 6401.04384556 0 992.75571556 0 -377.80543853 0 8155
0.08850000 0.08849210 20965.22559761 0 268.95784217 0 6089.24717866 0 54.67469706 0 -76.38697241 0 8718
0.08950000 0.08949900 20625.52667217 0 466.63205716 0 5360.17887866 0 110.26086790 0 -724.72019805 0 8571
0.09050000 0.09049190 20356.57990233 0 273.22511615 0 5256.97373902 0 -109.75065517 0 135.86628338 0 8932
0.09150000 0.09150830 20115.09249803 0 191.62651117 0 5749.37109603 0 -322.35080691 0 -1235.53858186 0 9285
0.09250000 0.09250820 19959.19416459 0 387.03422127 0 5384.13938956 0 -48.56864209 0 -775.20224860 0 9204
0.09350000 0.09350330 19610.96954904 0 442.22643879 0 5838.45902152 0 462.63494790 0 -247.17636479 0 9349
0.09450000 0.09448040 19159.21869644 0 365.15420019 0 5055.30241477 0 579.44576027 0 -971.15139538 0 9564
0.09550000 0.09549270 19056.68896862 0 163.12191816 0 5075.14402085 0 927.30498910 0 -1217.84500680 0 10155
0.09650000 0.09649430 18378.06618049 0 573.96274502 0 4543.14095796 0 756.05819899 0 -1231.88471467 0 9913
0.09750000 0.09749140 18245.53045241 0 286.21406040 0 4808.62209014 0 245.47787016 0 -1089.81460769 0 10476
0.09850000 0.09850240 17892.54473719 0 -86.56808581 0 4146.33098111 0 -122.60495995 0 -897.06425555 0 10575
0.09950000 0.09950330 18260.58881416 0 304.36713694 0 4921.58194794 0 -667.84055823 0 -1040.05336549 0 10882
0.10050000 0.10051200 17722.36310473 0 638.99050868 0 5311.28349226 0 -724.35924026 0 -1404.11472723 0 10875
0.10150000 0.10150300 17374.47065892 0 765.06221353 0 5132.86405013 0 -70.59049965 0 -289.65755342 0 11118
0.10250000 0.10250800 16712.56708126 0 177.15498263 0 5437.27547637 0 266.90503315 0 -605.13909001 0 11575
0.10350000 0.10349800 16826.50130365 0 62.41857032 0 5618.78409712 0 567.74009847 0 -721.38853551 0 11364
0.10450000 0.10450100 16412.39635543 0 540.44571056 0 5769.14626816 0 461.20772523 0 -1499.18170812 0 12093
0.10550000 0.10551000 16218.40922461 0 398.92479089 0 5423.77831241 0 -474.97616114 0 -1034.39762198 0 12067
0.10650000 0.10649700 15590.60840739 0 460.40498168 0 5826.58948932 0 -648.50495740 0 -797.38011521 0 12054
0.10750000 0.10749900 15625.81840031 0 198.15696835 0 5787.21630226 0 -333.80512694 0 -742.45916964 0 12807
0.10850000 0.10850100 15605.11315290 0 -144.79389889 0 6053.04067651 0 462.23191527 0 -1033.17191562 0 12736
0.10950000 0.10950300 15588.06177268 0 -222.17505535 0 6150.23354377 0 480.18679720 0 -765.87935110 0 12933
0.11050000 0.11050200 16022.20762882 0 -33.86581269 0 5279.14053331 0 1105.75100480 0 -818.37988646 0 13428
0.11150000 0.11150900 15765.21896978 0 217.76051944 0 5292.21694892 0 78.50676900 0 -709.12593578 0 13453
0.11250000 0.11250000 15405.92202942 0 489.16423816 0 5270.93594062 0 187.17986552 0 4.97312362 0 13668
0.11350000 0.11349100 14945.09187046 0 695.80592902 0 5355.03024761 0 100.16235405 0 642.96104436 0 13791
0.11450000 0.11448600 14688.76755091 0 163.48951934 0 5027.82090457 0 667.60139601 0 567.12004828 0 14205
0.11550000 0.11549300 14730.39949223 0 -62.63126968 0 4872.19937925 0 769.05046493 0 332.80529600 0 14776
0.11650000 0.11649800 14547.70613272 0 55.47644410 0 4299.89305402 0 702.44378775 0 -141.11677981 0 14553
0.11750000 0.11747300 14555.34603685 0 -181.16980761 0 4111.14313284 0 -43.74930199 0 -229.45400168 0 14568
0.11850000 0.11849100 14585.68420685 0 28.02327905 0 3614.46078612 0 -91.84737028 0 -818.87924831 0 16015
0.11950000 0.11950300 14206.67852831 0 388.24221191 0 3858.02978748 0 203.98101120 0 -448.25753412 0 15270
0.12050000 0.12050700 13782.49776451 0 330.58308041 0 2890.85114225 0 342.80471255 0 -255.65112220 0 15999
0.12150000 0.12150000 14125.51838739 0 -94.75861665 0 3471.41742179 0 959.59742443 0 -310.83780356 0 15670
0.12250000 0.12250700 13963.30882879 0 -161.28169777 0 2579.26484953 0 537.45729009 0 -495.93717925 0 16887
0.12350000 0.12352200 14037.16123534 0 266.66144200 0 3090.99448567 0 114.60520527 0 -186.15788994 0 16407
0.12450000 0.12449800 13821.14017812 0 268.41972718 0 3090.61802663 0 -699.48304809 0 -257.67403595 0 16306
0.12550000 0.12549900 13682.51467139 0 407.74500484 0 3530.95331234 0 -464.52610098 0 85.26299088 0 17523
0.12650000 0.12650100 13269.40623241 0 598.84115165 0 4133.04419133 0 -740.63666498 0 -3.44499885 0 17154
0.12750000 0.12750600 12987.61556578 0 404.88059441 0 3772.77288638 0 -126.66628869 0 -72.57034205 0 18007
0.12850000 0.12850300 12860.61600011 0 52.24100007 0 4275.25713130 0 233.91393412 0 -41.06636697 0 17496
0.12950000 0.12949900 12707.15357812 0 49.08361592 0 3799.49040617 0 402.11029874 0 -574.43553329 0 18405
0.13050000 0.13049000 12754.98602134 0 -30.77043356 0 3717.90951690 0 513.08931763 0 -343.41811934 0 18100
0.13150000 0.13148800 12553.80187938 0 78.76940455 0 3298.81095019 0 323.59312175 0 -610.18031950 0 19059
0.13250000 0.13249300 12590.67272103 0 -2.87222749 0 3399.98985439 0 -11.76091270 0 -551.00870844 0 18957
0.13350000 0.13349100 12619.90365855 0 208.48191124 0 3364.35911312 0 -108.51575879 0 -934.84634953 0 19468
0.13450000 0.13450700 12439.75693375 0 165.86453302 0 3342.66842880 0 -118.69200036 0 -818.59136786 0 19953
0.13550000 0.13551000 12240.56581026 0 185.46144071 0 3492.72057474 0 -322.34305628 0 -711.58952805 0 19956
0.13650000 0.13649900 12326.37632761 0 218.26098852 0 3438.31117058 0 91.06688211 0 -1024.29191111 0 19723
0.13750000 0.13749600 11891.23396223 0 300.87492569 0 3431.15844875 0 185.35514639 0 -827.86333267 0 20946
0.13850000 0.13851100 11845.94815373 0 372.81071281 0 3524.28777280 0 -107.81443773 0 -1504.15318196 0 20955
0.13950000 0.13949800 11411.69157434 0 271.53547939 0 3395.81558793 0 152.51905991 0 -431.52503685 0 20506
0.14050000 0.14048300 11345.70051842 0 72.03743106 0 3601.12970704 0 117.78628419 0 -555.66462102 0 21447
0.14150000 0.14148400 11213.71840658 0 84.87900266 0 3285.35807554 0 246.29722220 0 -407.08177258 0 21771
0.14250000 0.14249400 11346.69702765 0 26.42975007 0 3824.80174070 0 3.89389305 0 -917.54805647 0 22470
0.14350000 0.14350900 11036.21796741 0 286.22513272 0 3589.69199550 0 -81.39365625 0 -477.11533430 0 22519
0.14450000 0.14449900 10904.95555669 0 388.25439146 0 3813.04293175 0 158.11944181 0 -235.44080771 0 22218
0.14550000 0.14550500 10564.29333899 0 235.98113716 0 3430.82627901 0 390.86746012 0 60.51091947 0 23559
0.14650000 0.14650700 10486.52132947 0 1.47723636 0 3269.09283038 0 655.34211797 0 -41.48146842 0 23044
0.14750000 0.14750500 10271.36391359 0 91.28544980 0 2981.61098879 0 742.32187282 0 -268.38318851 0 23649
0.14850000 0.14849900 10301.96781939 0 72.25256633 0 2653.08403910 0 315.08846906 0 -7.73481609 0 23640
0.14950000 0.14949500 10290.89549457 0 55.11183245 0 2358.43840335 0 58.96965186 0 55.09522396 0 24457
0.15050000 0.15050000 10034.12828203 0 135.25730552 0 2704.99109784 0 -133.96848691 0 320.58034217 0 24591
0.15150000 0.15149900 10023.48777788 0 195.14197430 0 2639.34328400 0 15.14716180 0 403.56409499 0 25020
0.15250000 0.15250500 9814.19869415 0 255.94786051 0 2578.33477424 0 213.85752494 0 396.56084954 0 25297
0.15350000 0.15350100 9741.97391936 0 50.04823686 0 2555.53685744 0 241.71770865 0 896.99339267 0 25452
0.15450000 0.15450400 9651.86733999 0 -12.45758338 0 2366.76479161 0 418.31907504 0 871.40525002 0 26061
0.15550000 0.15549900 9714.00522687 0 -39.47793125 0 2222.33738668 0 614.30808219 0 1115.29313433 0 26128
0.15650000 0.15649500 9732.26349050 0 -1.38900100 0 2226.88811218 0 -48.67781522 0 485.26677983 0 26331
0.15750000 0.15749700 9580.03009656 0 267.81185655 0 2111.80236801 0 79.34704773 0 948.86059105 0 27345
0.15850000 0.15849900 9454.18205267 0 258.64064990 0 2176.53117890 0 -308.48604177 0 826.15708741 0 26980
0.15950000 0.15949700 9281.17697738 0 92.64967094 0 2154.56368646 0 16.23590350 0 860.01957841 0 27777
0.16050000 0.16050000 9222.85904256 0 -25.67793921 0 2230.35374984 0 60.10024695 0 648.49056337 0 28224
0.16150000 0.16150500 9285.22944827 0 180.23862510 0 2130.33743976 0 -82.22219832 0 400.99199393 0 28075
0.16250000 0.16249700 9148.07656074 0 190.41076991 0 2400.08141699 0 -223.02983882 0 531.44501772 0 28590
0.16350000 0.16349900 9009.50641563 0 248.09426051 0 2345.39520471 0 -203.14837238 0 427.14814685 0 29163
0.16450000 0.16449100 8846.10104596 0 94.11110709 0 2477.79806489 0 -35.74301464 0 581.79641483 0 28996
0.16550000 0.16550500 8828.73964064 0 -7.95042747 0 2619.37988235 0 72.90317613 0 364.02925199 0 30777
0.16650000 0.16650700 8856.37616339 0 95.60265997 0 2684.80624970 0 287.80293901 0 239.62171756 0 29211
0.16750000 0.16749900 8701.04251851 0 234.48194438 0 2695.07029481 0 -18.83491030 0 17.30393995 0 30922
0.16850000 0.16850800 8646.61096970 0 184.55904624 0 2613.24581440 0 -125.99530581 0 213.29505084 0 30867
0.16950000 0.16949900 8493.95682743 0 136.64245335 0 2696.73114353 0 -119.48810051 0 459.21581399 0 30852
0.17050000 0.17049200 8372.68165369 0 105.19970823 0 2460.86848024 0 145.53574465 0 594.05569287 0 31257
0.17150000 0.17149500 8454.22932598 0 -62.56749309 0 2574.83591960 0 293.44539574 0 362.45919633 0 32608
0.17250000 0.17250900 8323.26586802 0 -5.43728655 0 2498.91298832 0 385.89930797 0 72.56170564 0 32361
0.17350000 0.17350400 8305.98196898 0 205.17460782 0 2177.69377301 0 160.61514382 0 171.93327425 0 32508
0.17450000 0.17449800 8118.26177401 0 126.37619378 0 2121.20277178 0 85.30606223 0 283.75157536 0 32791
0.17550000 0.17549800 8107.77628240 0 26.80133729 0 2049.44303463 0 181.19970289 0 240.87953366 0 33633
0.17650000 0.17650100 8040.16866706 0 21.60642393 0 1748.59689698 0 172.74155396 0 285.69366113 0 33984
0.17750000 0.17750300 8075.85476995 0 28.66624896 0 1913.20915006 0 142.68904994 0 336.83340777 0 34069
0.17850000 0.17849800 7935.18088313 0 88.41472814 0 1690.83257841 0 116.36681215 0 132.69738402 0 34536
