### header ###
fiducial parameters:
Omega_m = 0.31
Omega_nu = 0
Omega_de = 0.69
Omega_k = 0
H_0 = 100
w_de = -1
zeff = 0
beta = 0
fgrowth = 0
b_1 = 2
gamma = 0.55
Lx = 3500 Ly = 3500 Lz = 3500
nx = 700 ny = 700 nz = 700
xoffset = -685.467585 yoffset = -31.7331281 zoffset = 572.489161
bins = 400 dk = 0.001
kx_ny = 0.628318531 ky_ny = 0.628318531 kz_ny = 0.628318531
############################
A(data) = 7.98503176 (not used)
A(ran) = 7.97816342 (used)
Ngal = 473876
weighted Ngal = 0
Nran = 23820508
weighted Nran = 0
SN(data) = 3494.28913
SN(ran) = 69.4926968
SN(data+ran) = 3563.78183
############################
13 columns: k_central k_mean P_0(k) sigma^{lin}_{P_0(k)} P^img_1(k) sigma^{lin}_{P_1(k)} P_2(k) sigma^{lin}_{P_2(k)} P^img_3(k) sigma^{lin}_{P_3(k)} P_4(k) sigma^{lin}_{P_4(k)} N_modes
### header ###
0.00050000 0 0 0 0 0 0 0 0 0 0 0 0
0.00150000 0.00179520 6571.72373264 0 8772.18220547 0 29785.88244114 0 -9699.13509464 0 6243.97184568 0 3
0.00250000 0.00253879 30517.20949541 0 -10099.16711801 0 14831.26837133 0 -28064.91099457 0 10225.23660840 0 6
0.00350000 0.00331552 36917.01324059 0 -25455.71765106 0 -27922.74234390 0 51464.16575707 0 1766.86623294 0 7
0.00450000 0.00420575 51893.43979029 0 -21172.27807172 0 -1893.97652185 0 -21637.98005359 0 -17599.68174573 0 24
0.00550000 0.00557378 85854.80664378 0 -15524.72807472 0 25454.72114183 0 -9105.10486812 0 -15349.78534259 0 45
0.00650000 0.00659388 86867.26002520 0 3134.25405874 0 71065.28093702 0 -40335.92569809 0 -2947.13176930 0 40
0.00750000 0.00754703 75615.67426774 0 31803.59219284 0 17380.22826783 0 -6055.00047800 0 -4843.05702033 0 57
0.00850000 0.00846663 69535.08564708 0 6578.68822495 0 30752.16422806 0 21760.66141258 0 10105.73300663 0 75
0.00950000 0.00948925 61006.73817877 0 -7083.89626177 0 15365.72949032 0 23491.37650498 0 -29863.38871487 0 112
0.01050000 0.01054430 72531.69963600 0 -9553.27935980 0 22457.99642966 0 15237.84413867 0 -44142.14807775 0 105
0.01150000 0.01145670 78025.56576452 0 -6771.42418307 0 -613.36582735 0 -2019.32631113 0 -17796.54768101 0 144
0.01250000 0.01249090 75613.45980278 0 579.11359052 0 -6599.45990631 0 -9964.54979287 0 -31766.83207444 0 169
0.01350000 0.01339930 77469.07071913 0 -4354.02565006 0 -24834.22805899 0 4648.04016329 0 -8895.12930026 0 180
0.01450000 0.01448870 84807.03254620 0 -4734.04998249 0 -7926.10157678 0 -306.86062449 0 -13346.58033640 0 267
0.01550000 0.01550050 88933.57728286 0 -1274.51316522 0 -6291.98144609 0 -6959.41011384 0 -5584.67026435 0 238
0.01650000 0.01653350 87021.94040292 0 368.67852118 0 -3451.09970575 0 -3456.54728956 0 -18615.78899434 0 315
0.01750000 0.01747870 82845.12731158 0 5780.97151106 0 -5344.01328442 0 -19959.08344134 0 -19835.51629636 0 297
0.01850000 0.01844180 82836.38017497 0 6636.02072286 0 14254.84314127 0 -32766.77372881 0 -12278.98677738 0 388
0.01950000 0.01947590 76722.13168687 0 5616.53641518 0 21310.34996221 0 -25684.69332831 0 365.45979636 0 399
0.02050000 0.02045430 77572.04333995 0 4501.89654801 0 32515.21050893 0 1435.62656366 0 -432.24363074 0 462
0.02150000 0.02154770 74469.46720251 0 -632.63499423 0 31000.73792024 0 7899.62764814 0 -3436.05241632 0 571
0.02250000 0.02255340 76066.42861111 0 3612.34597208 0 34282.13210349 0 19782.59058373 0 -6987.66668677 0 510
0.02350000 0.02348930 67671.50265686 0 6209.31546900 0 20607.70022922 0 15806.51874135 0 -12177.56428204 0 555
0.02450000 0.02439640 67731.84682712 0 5407.74558608 0 21417.41934320 0 4153.73836642 0 -1592.78714214 0 592
0.02550000 0.02547300 64768.11764291 0 109.84654151 0 21073.40221109 0 -8596.67478477 0 -9833.29845447 0 837
0.02650000 0.02652900 62810.41989173 0 -1013.99022010 0 24076.32742515 0 -8330.26357731 0 -230.09066036 0 723
0.02750000 0.02749970 68701.22886499 0 -1855.45590381 0 21169.62071376 0 -4526.24459029 0 -10715.39735579 0 826
0.02850000 0.02848090 63357.72490751 0 2098.61522915 0 25173.15192169 0 -3797.66347257 0 -11999.74274546 0 831
0.02950000 0.02946900 65620.90810044 0 2521.56696490 0 27001.74636549 0 5100.59929561 0 -21957.08445486 0 996
0.03050000 0.03053250 59074.17460492 0 6614.76185921 0 23976.12288554 0 4545.99761777 0 -11180.16926238 0 1041
0.03150000 0.03150510 56206.33175365 0 4226.43925118 0 20689.19253988 0 585.21222703 0 -13906.61852572 0 1036
0.03250000 0.03246190 51465.82660579 0 1630.34446792 0 19105.85009082 0 10215.78084300 0 -17364.06267359 0 1059
0.03350000 0.03345080 49213.60501443 0 2177.99272578 0 13253.46208467 0 2434.16203278 0 -13998.29737522 0 1302
0.03450000 0.03451200 52425.35427457 0 -1571.70543568 0 18674.58303913 0 -3857.79726866 0 -17604.11067566 0 1339
0.03550000 0.03553350 48813.56191873 0 753.60125011 0 16373.53249532 0 -1837.78447340 0 -6937.91873136 0 1365
0.03650000 0.03647120 52239.00704788 0 383.09800980 0 21011.28646886 0 1356.09405449 0 -5133.73876379 0 1308
0.03750000 0.03744890 49963.64429765 0 153.26312014 0 19640.64337956 0 8730.69420437 0 -1087.71197321 0 1579
0.03850000 0.03847530 50439.97571134 0 1603.07333189 0 18656.31370318 0 4859.86480940 0 -926.51442510 0 1662
0.03950000 0.03950240 50072.15308087 0 556.58140952 0 15875.61004822 0 7821.12486517 0 1997.03772127 0 1683
0.04050000 0.04050350 49362.74922974 0 -1934.72267719 0 18592.20494248 0 1276.68334089 0 2787.23632660 0 1822
0.04150000 0.04152450 51281.69384406 0 289.72841630 0 18329.01578154 0 -1554.97515288 0 1502.39268232 0 1887
0.04250000 0.04250150 49688.49702590 0 3690.85982737 0 22234.88908456 0 -3406.13499466 0 -3530.28897285 0 1920
0.04350000 0.04349210 45347.03846451 0 6102.84399354 0 22278.07115136 0 -5627.34300420 0 3232.68702638 0 2005
0.04450000 0.04448520 42298.71671869 0 4115.57206277 0 22957.91189522 0 -2217.21090028 0 2377.81497178 0 2151
0.04550000 0.04548030 40375.89679068 0 2301.18341171 0 26207.08561325 0 2082.31676702 0 2008.51972210 0 2274
0.04650000 0.04648670 41038.02181484 0 -125.06080159 0 26468.28175573 0 5254.33852571 0 3355.18015585 0 2311
0.04750000 0.04749250 39492.87888640 0 -17.35287963 0 24287.14448970 0 6586.79316671 0 2248.98847251 0 2568
0.04850000 0.04851840 39939.86863932 0 -797.69899816 0 20072.35332423 0 8136.61968856 0 3445.39745847 0 2493
0.04950000 0.04949480 40060.00336361 0 -1478.46538838 0 20346.61480999 0 3720.50044091 0 1129.38820383 0 2644
0.05050000 0.05050630 40796.31296405 0 899.33408214 0 18984.16524106 0 1753.26941806 0 -676.13151505 0 2829
0.05150000 0.05149060 39298.89175557 0 2837.75934475 0 20110.10995187 0 -2270.51307196 0 709.56772154 0 2784
0.05250000 0.05249300 37209.43333905 0 2580.64889013 0 18769.58358607 0 -2567.36210035 0 516.19289028 0 3055
0.05350000 0.05348950 36120.47019313 0 116.91267776 0 20298.33947378 0 -1890.27836536 0 3584.28870099 0 3009
0.05450000 0.05448610 36084.48513747 0 338.47543354 0 20154.39925114 0 4150.64918779 0 44.19706681 0 3336
0.05550000 0.05550870 35240.10964680 0 446.63986746 0 17091.12986681 0 4125.51501045 0 -590.45275837 0 3349
0.05650000 0.05647670 34944.14640440 0 1020.62586437 0 17134.09048711 0 2219.76860732 0 -3501.09125231 0 3324
0.05750000 0.05747970 33437.75661282 0 655.62114056 0 14896.59508776 0 2297.48525522 0 -1303.44514998 0 3639
0.05850000 0.05849280 33292.26626471 0 -56.47472491 0 13463.72553298 0 -161.17651069 0 -2431.78148294 0 3846
0.05950000 0.05951020 33314.63236084 0 -556.82832236 0 13939.17116069 0 2456.37311637 0 -3266.83407612 0 3787
0.06050000 0.06049470 33624.65745576 0 -302.28886157 0 11416.67412051 0 1188.41476743 0 -4033.99117350 0 3930
0.06150000 0.06148310 33078.57039571 0 700.89587674 0 11340.49652575 0 964.49139200 0 -5352.87114428 0 4083
0.06250000 0.06249100 33321.49720223 0 459.50812337 0 10601.64029061 0 1087.21814752 0 -2283.09123296 0 4303
0.06350000 0.06350600 32101.43773046 0 1384.36169975 0 10412.09316204 0 352.21286695 0 -2182.05626899 0 4470
0.06450000 0.06451750 31653.67291479 0 1646.93081050 0 12646.58796136 0 -807.15476356 0 -2519.55180178 0 4479
0.06550000 0.06550280 30182.38239289 0 1012.60064334 0 12804.36859003 0 -1110.86420441 0 -1006.74891967 0 4636
0.06650000 0.06648880 29154.87064972 0 950.28670649 0 13007.10285746 0 -490.27589957 0 -337.48999663 0 4653
0.06750000 0.06749660 29235.69862090 0 462.87300288 0 14236.68452857 0 1371.86104503 0 1004.23550194 0 5220
0.06850000 0.06852730 29043.37233880 0 -781.29313448 0 13064.34677677 0 1665.59875014 0 -1126.14401265 0 5029
0.06950000 0.06949320 29836.81513530 0 -235.77408469 0 12159.73783909 0 1666.53989775 0 1756.80148968 0 5040
0.07050000 0.07048030 29393.03635657 0 67.55635048 0 9409.30592018 0 1753.60158780 0 147.59962599 0 5475
0.07150000 0.07148790 29225.62280531 0 724.41460189 0 10337.39925881 0 202.67226241 0 2888.57024334 0 5509
0.07250000 0.07249820 28962.10147463 0 1102.65850448 0 10146.24664314 0 1118.89163990 0 2562.29097558 0 5916
0.07350000 0.07351270 27810.80113999 0 293.88053810 0 9336.97042214 0 1204.21497495 0 2666.40404585 0 5721
0.07450000 0.07449140 28062.25363662 0 112.58893492 0 10358.65812246 0 430.91384452 0 1559.76946953 0 6028
0.07550000 0.07549160 27805.26497758 0 162.84621727 0 10551.07298316 0 -670.29086371 0 1151.85395088 0 6183
0.07650000 0.07648840 27366.13657527 0 535.53513450 0 10139.50359733 0 -136.23277734 0 570.00992506 0 6330
0.07750000 0.07749960 27249.32354843 0 978.96070607 0 10029.64399047 0 -986.51535330 0 -236.25794528 0 6583
0.07850000 0.07848650 25735.73674572 0 520.45684257 0 9252.90933212 0 1134.32646070 0 -32.91248552 0 6549
0.07950000 0.07947320 25745.48039156 0 156.96127663 0 9571.55976808 0 1300.73243040 0 -2178.38025715 0 6828
0.08050000 0.08048110 24906.08744706 0 353.43635884 0 7973.25860818 0 1516.56525809 0 -1886.33661773 0 7147
0.08150000 0.08149960 24573.69625601 0 756.38261810 0 6961.66886810 0 1257.53929128 0 -1245.58118047 0 7386
0.08250000 0.08250610 23802.06593940 0 757.76333701 0 6057.24815994 0 1264.31555407 0 -117.92579548 0 7227
0.08350000 0.08350160 23565.45035802 0 248.78960251 0 6116.83941211 0 752.71324966 0 758.16083347 0 7798
0.08450000 0.08449610 23925.30091463 0 -143.32570861 0 5688.71690067 0 1007.34903968 0 275.54255374 0 7371
0.08550000 0.08548940 22558.86530876 0 1051.52872293 0 6242.91997482 0 -439.13947463 0 1490.71137963 0 8256
0.08650000 0.08650700 22493.53859233 0 928.39450586 0 6497.86025377 0 -875.96483338 0 666.51409371 0 8037
0.08750000 0.08749060 21744.27437185 0 177.18598514 0 7938.24791710 0 -600.39902776 0 579.87093754 0 8155
0.08850000 0.08849210 21488.61439179 0 206.78009492 0 7024.40466052 0 427.18689999 0 187.34152147 0 8718
0.08950000 0.08949900 21573.76056964 0 202.48181842 0 7492.56469850 0 598.25099674 0 -690.79902374 0 8571
0.09050000 0.09049190 21358.51457517 0 224.51795928 0 7635.76307538 0 378.76762356 0 -865.72293292 0 8932
0.09150000 0.09150830 21220.99630092 0 505.07738339 0 7438.02242645 0 -245.00618912 0 -724.04589347 0 9285
0.09250000 0.09250820 20641.36009667 0 838.70646036 0 7651.03181131 0 -732.49407731 0 -79.03580468 0 9204
0.09350000 0.09350330 20166.57880844 0 646.81974956 0 8614.27978123 0 -891.19481617 0 -808.66281420 0 9349
0.09450000 0.09448040 19541.76751893 0 811.99226227 0 8579.72305547 0 -5.21539716 0 -1054.06096362 0 9564
0.09550000 0.09549270 18966.56024460 0 648.65443378 0 8676.07442604 0 -301.17941462 0 -613.82422160 0 10155
0.09650000 0.09649430 18752.97509884 0 336.88434047 0 8402.21154398 0 962.68771029 0 -490.98674283 0 9913
0.09750000 0.09749140 17982.11984497 0 401.24555017 0 7516.29269059 0 968.57486539 0 -1769.25785510 0 10476
0.09850000 0.09850240 17783.81450747 0 398.05672063 0 7282.79950481 0 595.55488565 0 -2070.44723481 0 10575
0.09950000 0.09950330 17634.44884567 0 177.87579098 0 6987.87706095 0 -182.62249663 0 -1622.82635937 0 10882
0.10050000 0.10051200 17080.16826524 0 393.65325704 0 7149.43335237 0 -80.76020855 0 -1373.46653213 0 10875
0.10150000 0.10150300 17199.97081978 0 183.67215302 0 7040.91349683 0 -70.18946004 0 -786.59013467 0 11118
0.10250000 0.10250800 17318.22324884 0 -34.47357260 0 6907.97916505 0 690.60193636 0 -1124.33922371 0 11575
0.10350000 0.10349800 17058.90940159 0 -42.55504104 0 6844.60117779 0 829.73344833 0 -682.10281983 0 11364
0.10450000 0.10450100 16684.11120648 0 529.71662781 0 6863.45734696 0 701.87467025 0 -1685.19676507 0 12093
0.10550000 0.10551000 16150.86804321 0 590.33317726 0 6188.24483487 0 860.91422225 0 -479.96977963 0 12067
0.10650000 0.10649700 15870.07388581 0 462.68920229 0 6112.00080617 0 828.14678418 0 -1117.90620299 0 12054
0.10750000 0.10749900 15517.75251008 0 53.27482303 0 5683.85615008 0 -188.42439483 0 -408.68615245 0 12807
0.10850000 0.10850100 15450.43277519 0 177.45614987 0 5830.54230928 0 123.51510505 0 -368.64641144 0 12736
0.10950000 0.10950300 15463.16594873 0 17.21015736 0 5754.49758242 0 75.45280037 0 -227.42333731 0 12933
0.11050000 0.11050200 15388.20630971 0 56.39755080 0 6226.74330826 0 -171.90116451 0 -159.75593141 0 13428
0.11150000 0.11150900 15696.57055591 0 187.42456390 0 6118.21238039 0 -284.76469308 0 -808.25092372 0 13453
0.11250000 0.11250000 15086.48545840 0 260.02247604 0 6463.43639591 0 -144.40304582 0 160.13017599 0 13668
0.11350000 0.11349100 15214.81370305 0 156.41873271 0 6458.94103203 0 -87.51587681 0 -834.25981472 0 13791
0.11450000 0.11448600 15048.61810752 0 87.08339181 0 6503.36319921 0 294.96673317 0 -561.02805517 0 14205
0.11550000 0.11549300 15028.79864609 0 87.10653296 0 6153.33379471 0 925.99956200 0 -1169.66932152 0 14776
0.11650000 0.11649800 14501.09164524 0 210.21140838 0 5535.95203515 0 311.05592836 0 -512.21681844 0 14553
0.11750000 0.11747300 14831.82198757 0 395.55326798 0 5520.40649111 0 766.75960092 0 -848.88524857 0 14568
0.11850000 0.11849100 14296.69652908 0 15.48641783 0 4912.44727996 0 635.11298053 0 -512.19135209 0 16015
0.11950000 0.11950300 14306.77234467 0 -55.79687718 0 4697.47809361 0 489.22956488 0 -495.27726870 0 15270
0.12050000 0.12050700 14277.31996065 0 106.57599820 0 4495.26422545 0 658.31503718 0 -1042.76497784 0 15999
0.12150000 0.12150000 14085.65801804 0 306.03573629 0 3896.84935830 0 596.81602344 0 -684.73028250 0 15670
0.12250000 0.12250700 13851.25690163 0 269.25347324 0 3763.07352984 0 -139.01414533 0 -348.04302942 0 16887
0.12350000 0.12352200 13559.16897291 0 191.07510940 0 3853.14689224 0 102.88537089 0 -463.20406539 0 16407
0.12450000 0.12449800 13786.37307819 0 230.53466058 0 4034.92124879 0 -15.24437681 0 -82.16074691 0 16306
0.12550000 0.12549900 13402.27413023 0 264.13805918 0 4123.83201708 0 -355.88112816 0 -103.05699193 0 17523
0.12650000 0.12650100 13227.33139810 0 317.01837528 0 4425.53072374 0 29.24533154 0 199.40481936 0 17154
0.12750000 0.12750600 13155.13984028 0 -156.86051847 0 4539.08848708 0 275.28235411 0 457.80962874 0 18007
0.12850000 0.12850300 13222.23812868 0 -43.65164409 0 4568.52979877 0 123.31358874 0 321.33658196 0 17496
0.12950000 0.12949900 13236.85359744 0 157.99432453 0 4485.64237518 0 393.24136656 0 -201.06677531 0 18405
0.13050000 0.13049000 12782.99900313 0 475.46223620 0 4542.74235427 0 -75.02374778 0 -27.30047769 0 18100
0.13150000 0.13148800 12631.08670662 0 453.14928723 0 4282.87489078 0 -131.62779744 0 -33.66640012 0 19059
0.13250000 0.13249300 12116.44504904 0 41.95702477 0 4312.38263642 0 96.45533970 0 -255.39202980 0 18957
0.13350000 0.13349100 12267.25011307 0 -59.56279630 0 3979.11673170 0 515.97255101 0 -731.56400202 0 19468
0.13450000 0.13450700 12102.16175003 0 -68.65173557 0 3757.84739253 0 250.27440127 0 -838.56916354 0 19953
0.13550000 0.13551000 12306.22469644 0 123.06446143 0 3401.27424407 0 -55.46780769 0 -1469.68503480 0 19956
0.13650000 0.13649900 12180.33236325 0 127.41699232 0 3471.16275832 0 -571.60876876 0 -987.10772267 0 19723
0.13750000 0.13749600 11966.74721750 0 185.40497186 0 3566.30724549 0 -107.01202635 0 -1107.49821766 0 20946
0.13850000 0.13851100 11998.96768272 0 103.45924949 0 3657.70928687 0 189.55598643 0 -1023.14703273 0 20955
0.13950000 0.13949800 11814.39202799 0 70.80729577 0 3688.47927754 0 663.61535908 0 -1145.93025711 0 20506
0.14050000 0.14048300 11858.12771103 0 126.00305644 0 3789.65818173 0 564.00983224 0 -698.16211974 0 21447
0.14150000 0.14148400 11644.87473502 0 131.60233110 0 3272.74669757 0 671.37816601 0 -317.85876473 0 21771
0.14250000 0.14249400 11393.09006864 0 370.20428754 0 3605.86866206 0 149.95360225 0 115.43784409 0 22470
0.14350000 0.14350900 11238.40969093 0 359.06995771 0 3302.68626388 0 149.25936749 0 807.77702821 0 22519
0.14450000 0.14449900 10915.89501361 0 228.29472927 0 3857.95228121 0 -219.78343319 0 774.47701132 0 22218
0.14550000 0.14550500 10783.64716597 0 282.99422834 0 3664.17552456 0 -70.59703232 0 1060.17620862 0 23559
0.14650000 0.14650700 10573.91518926 0 156.26704186 0 3848.90619183 0 94.34827629 0 875.84193057 0 23044
0.14750000 0.14750500 10341.79497176 0 250.62096504 0 3595.18386861 0 70.69291865 0 881.64272154 0 23649
0.14850000 0.14849900 10449.93836827 0 111.42301912 0 3377.18086526 0 258.82223603 0 589.68101733 0 23640
0.14950000 0.14949500 10157.61792073 0 -46.79862025 0 3387.40062107 0 138.70412024 0 530.77957099 0 24457
0.15050000 0.15050000 10244.70175543 0 146.93417927 0 3436.93820231 0 -0.28628492 0 336.41487389 0 24591
0.15150000 0.15149900 10196.02781552 0 60.21938516 0 3353.36429458 0 13.30727358 0 124.30124011 0 25020
0.15250000 0.15250500 10065.96121588 0 118.53145165 0 3547.56179957 0 -245.30514189 0 81.71962549 0 25297
0.15350000 0.15350100 10162.02470601 0 73.18873139 0 3474.16335835 0 16.69850523 0 66.00987887 0 25452
0.15450000 0.15450400 10064.46645203 0 -85.92566952 0 3399.38087652 0 229.27352279 0 -125.73732064 0 26061
0.15550000 0.15549900 10135.63935596 0 -45.63148649 0 3105.70960536 0 257.12374140 0 -120.50786163 0 26128
0.15650000 0.15649500 10097.71664346 0 120.61194148 0 3130.65555317 0 406.76178240 0 -161.64929896 0 26331
0.15750000 0.15749700 9820.84208904 0 403.30168089 0 2842.88583114 0 515.01811661 0 -70.69524384 0 27345
0.15850000 0.15849900 9486.88970019 0 376.60298406 0 2335.45225702 0 241.39328953 0 -10.98360228 0 26980
0.15950000 0.15949700 9185.54530792 0 179.48238531 0 2440.52861955 0 207.50533219 0 169.92254006 0 27777
0.16050000 0.16050000 9099.50227176 0 101.58802659 0 2470.43496889 0 224.38619861 0 36.18380389 0 28224
0.16150000 0.16150500 8975.86869283 0 79.27131303 0 2339.22791979 0 -129.79643492 0 473.13483352 0 28075
0.16250000 0.16249700 9032.76937008 0 16.51005426 0 2578.11332775 0 224.50245802 0 474.25646003 0 28590
0.16350000 0.16349900 9078.63093948 0 103.35638759 0 2656.27286864 0 -150.50611126 0 638.77681281 0 29163
0.16450000 0.16449100 8899.59144716 0 209.48063494 0 2743.12418452 0 -200.22527863 0 663.88330934 0 28996
0.16550000 0.16550500 8890.89967218 0 163.83608311 0 2723.91370096 0 67.16782260 0 846.44933711 0 30777
0.16650000 0.16650700 8774.59597228 0 -60.81695853 0 2773.20769105 0 314.63450374 0 1107.06418253 0 29211
0.16750000 0.16749900 8902.59204718 0 -103.56377224 0 2537.82113773 0 406.64109406 0 344.14446385 0 30922
0.16850000 0.16850800 8782.30231035 0 139.64194615 0 2553.43311573 0 106.47989042 0 230.53355335 0 30867
0.16950000 0.16949900 8622.75010972 0 320.19059634 0 2464.02409282 0 -347.23807141 0 26.92324358 0 30852
0.17050000 0.17049200 8466.95142719 0 185.23667252 0 2321.62292332 0 -142.72448138 0 268.37322342 0 31257
0.17150000 0.17149500 8265.54583874 0 26.67223398 0 2268.73042767 0 -19.12744112 0 197.73511277 0 32608
0.17250000 0.17250900 8353.43795315 0 -86.80082608 0 2364.71641152 0 326.39220547 0 -139.34299338 0 32361
0.17350000 0.17350400 8361.42109935 0 2.58818914 0 2291.57263377 0 290.46361866 0 -220.27947334 0 32508
0.17450000 0.17449800 8379.38041020 0 122.07348836 0 1931.29025649 0 205.65293225 0 -138.91006548 0 32791
0.17550000 0.17549800 8229.46113216 0 76.92243004 0 2199.45089128 0 13.82091873 0 35.45092671 0 33633
0.17650000 0.17650100 8127.76182870 0 286.59162668 0 2162.17037361 0 -231.99510023 0 -55.02070721 0 33984
0.17750000 0.17750300 7896.01807025 0 318.82980762 0 2215.86007666 0 45.53183557 0 280.43098515 0 34069
