### header ###
fiducial parameters:
Omega_m = 0.31
Omega_nu = 0
Omega_de = 0.69
Omega_k = 0
H_0 = 100
w_de = -1
zeff = 0
beta = 0
fgrowth = 0
b_1 = 2
gamma = 0.55
Lx = 3500 Ly = 3500 Lz = 3500
nx = 700 ny = 700 nz = 700
xoffset = -685.467585 yoffset = -31.7331281 zoffset = 572.489161
bins = 400 dk = 0.001
kx_ny = 0.628318531 ky_ny = 0.628318531 kz_ny = 0.628318531
############################
A(data) = 8.07705192 (not used)
A(ran) = 8.07902227 (used)
Ngal = 480271
weighted Ngal = 0
Nran = 23820508
weighted Nran = 0
SN(data) = 3483.45574
SN(ran) = 70.3712139
SN(data+ran) = 3553.82695
############################
13 columns: k_central k_mean P_0(k) sigma^{lin}_{P_0(k)} P^img_1(k) sigma^{lin}_{P_1(k)} P_2(k) sigma^{lin}_{P_2(k)} P^img_3(k) sigma^{lin}_{P_3(k)} P_4(k) sigma^{lin}_{P_4(k)} N_modes
### header ###
0.00050000 0 0 0 0 0 0 0 0 0 0 0 0
0.00150000 0.00179520 73768.25687175 0 -74319.10503148 0 -22421.12558801 0 138336.51905169 0 -242869.23043204 0 3
0.00250000 0.00253879 129820.79403366 0 -73663.40195572 0 -1028.34327476 0 -5540.10415696 0 165287.66489275 0 6
0.00350000 0.00331552 135024.78669843 0 -22028.05805695 0 17191.88802266 0 -171022.02191633 0 85557.40399915 0 7
0.00450000 0.00420575 126664.07422787 0 29980.86608119 0 -13275.82818081 0 -58483.02318286 0 47992.99192642 0 24
0.00550000 0.00557378 80158.53841758 0 17855.00955605 0 -2572.18963397 0 -18895.03302627 0 6555.77958490 0 45
0.00650000 0.00659388 69789.30622492 0 6387.18129488 0 -1982.53297575 0 -23679.05241066 0 -1608.21089061 0 40
0.00750000 0.00754703 59074.94966766 0 4577.93020254 0 6065.34202938 0 -1477.50209612 0 -7373.17181998 0 57
0.00850000 0.00846663 67113.34676275 0 2322.58621558 0 -733.97001821 0 -19370.25720748 0 15259.43517207 0 75
0.00950000 0.00948925 62759.93009055 0 6063.22721534 0 8033.71350169 0 -5540.21488021 0 22295.89759432 0 112
0.01050000 0.01054430 59046.82596262 0 2428.39335155 0 -2178.77886084 0 6687.14164655 0 22981.38522384 0 105
0.01150000 0.01145670 66917.47733671 0 -6186.80543264 0 4083.47339312 0 9125.14577604 0 22415.36797911 0 144
0.01250000 0.01249090 77275.30503481 0 -20392.89712773 0 -4807.54807463 0 16729.50773824 0 20345.39685426 0 169
0.01350000 0.01339930 95273.03685777 0 -13563.15500985 0 10246.87193109 0 15363.07213237 0 4906.60109246 0 180
0.01450000 0.01448870 98246.39896457 0 -5364.10955397 0 9862.56260896 0 -483.44759686 0 13929.98113109 0 267
0.01550000 0.01550050 100175.30867123 0 7058.89495233 0 -2015.34027419 0 -8315.01698603 0 20297.56441105 0 238
0.01650000 0.01653350 85644.98608847 0 12132.16775029 0 9750.23387368 0 -2336.39340463 0 -364.89067886 0 315
0.01750000 0.01747870 85020.06407571 0 7925.37080334 0 3596.87793431 0 4986.37719278 0 15525.17096771 0 297
0.01850000 0.01844180 70188.57425788 0 5839.14550566 0 1407.83502837 0 2452.90747870 0 -1624.96331806 0 388
0.01950000 0.01947590 69617.13157399 0 -557.54580901 0 -9126.02048970 0 -6426.22231219 0 2151.39700156 0 399
0.02050000 0.02045430 78153.45111617 0 -1851.31485433 0 1881.37621621 0 -11643.54605604 0 -7213.66390865 0 462
0.02150000 0.02154770 73464.65372522 0 3089.48864950 0 11347.91498338 0 -24446.69669034 0 -10949.26700061 0 571
0.02250000 0.02255340 76442.88765494 0 8228.60856315 0 26060.82020240 0 -15933.29686053 0 872.43719069 0 510
0.02350000 0.02348930 70761.23489750 0 4025.01151807 0 44572.19717370 0 -13990.65747110 0 -2215.36182204 0 555
0.02450000 0.02439640 69832.59901496 0 6079.27101400 0 46656.89449056 0 16900.02154044 0 7479.82045264 0 592
0.02550000 0.02547300 68739.09621587 0 1185.72419250 0 43253.04039481 0 21003.75728798 0 13556.84378470 0 837
0.02650000 0.02652900 63664.53902824 0 -349.86221239 0 36181.36797964 0 14131.38671954 0 3731.78313990 0 723
0.02750000 0.02749970 67220.30542050 0 1759.71351110 0 32680.74176497 0 7154.95844246 0 -3971.31074270 0 826
0.02850000 0.02848090 59666.10108973 0 6384.13640556 0 23649.93219639 0 1687.75447211 0 3787.25548724 0 831
0.02950000 0.02946900 56663.61876866 0 5940.50156705 0 24134.56785370 0 -5211.20074822 0 2906.24167375 0 996
0.03050000 0.03053250 53963.18946864 0 1430.81010236 0 27135.83221904 0 -5390.18487891 0 -2529.20686902 0 1041
0.03150000 0.03150510 54541.71844041 0 822.05700553 0 31991.82171476 0 2032.09270164 0 -3980.02466234 0 1036
0.03250000 0.03246190 52403.65251793 0 -1012.49324179 0 24825.37019914 0 1809.15144142 0 -11731.79248484 0 1059
0.03350000 0.03345080 55755.35596378 0 -553.22428063 0 29974.66557929 0 6877.16488508 0 -4833.45731471 0 1302
0.03450000 0.03451200 53601.89950980 0 -1502.82450299 0 24859.58368282 0 8238.30791969 0 -1693.22420057 0 1339
0.03550000 0.03553350 55459.17127488 0 -1362.30562871 0 20727.94567675 0 6752.70088180 0 -10424.28379166 0 1365
0.03650000 0.03647120 54548.36183530 0 1370.29984723 0 18703.81397665 0 6853.51439927 0 -12699.07078100 0 1308
0.03750000 0.03744890 51319.89336468 0 3211.43923505 0 12594.54803471 0 -442.13121680 0 -11761.35559211 0 1579
0.03850000 0.03847530 49852.92104946 0 2832.41141186 0 14334.67460321 0 -2613.30117602 0 -8419.55080465 0 1662
0.03950000 0.03950240 49577.22016147 0 1227.19004895 0 17070.09244966 0 -5386.90747077 0 -9126.97270963 0 1683
0.04050000 0.04050350 46735.95088976 0 2124.73484340 0 18125.39572812 0 2162.05965036 0 -1535.51000585 0 1822
0.04150000 0.04152450 46179.89873737 0 2193.75971632 0 19217.45912499 0 1675.25381739 0 -1306.16894188 0 1887
0.04250000 0.04250150 44934.37291852 0 261.72539960 0 18745.00302498 0 6544.45259661 0 4390.50896034 0 1920
0.04350000 0.04349210 46116.23286966 0 -567.16876651 0 23816.79213140 0 4395.49150651 0 904.36977547 0 2005
0.04450000 0.04448520 46440.54126360 0 -63.05921503 0 21564.90270979 0 -3382.84989557 0 5039.53542423 0 2151
0.04550000 0.04548030 44638.85256911 0 3940.54075203 0 23983.87351292 0 -2155.22802595 0 5763.17828508 0 2274
0.04650000 0.04648670 44792.75788409 0 1135.95409244 0 24906.41961681 0 -294.74971560 0 6953.13210566 0 2311
0.04750000 0.04749250 41638.25254326 0 33.10669410 0 20258.70055093 0 2874.15407642 0 2117.78142341 0 2568
0.04850000 0.04851840 42197.73711634 0 2073.60284739 0 19729.99704084 0 4735.11292567 0 1307.03258322 0 2493
0.04950000 0.04949480 40442.66290934 0 -13.98932879 0 16858.72176887 0 2470.77821096 0 -4574.91853019 0 2644
0.05050000 0.05050630 39328.67630934 0 629.45059362 0 15816.59455694 0 2124.24766111 0 -3509.14083245 0 2829
0.05150000 0.05149060 38426.17111337 0 1835.57000844 0 14126.95778961 0 -1378.57087387 0 -4637.94220306 0 2784
0.05250000 0.05249300 37485.68784327 0 2038.01639542 0 16731.83292645 0 -2970.54973630 0 -2954.37306974 0 3055
0.05350000 0.05348950 36210.93108690 0 1470.08363850 0 17776.06388010 0 -1994.44679726 0 -3158.79033054 0 3009
0.05450000 0.05448610 36256.77051165 0 -319.33138393 0 20501.51663421 0 544.45167768 0 -2236.98607241 0 3336
0.05550000 0.05550870 37430.10477268 0 -1537.83519406 0 18031.05952067 0 4164.92141448 0 -994.67787115 0 3349
0.05650000 0.05647670 38192.87722944 0 -246.96488338 0 19935.16721973 0 2818.70387373 0 -1532.48726117 0 3324
0.05750000 0.05747970 38330.72767343 0 577.65536535 0 17416.65621648 0 3277.50779724 0 -1422.78266687 0 3639
0.05850000 0.05849280 37648.00812511 0 1274.33600803 0 15922.44598221 0 1822.79254559 0 -856.97579631 0 3846
0.05950000 0.05951020 35725.63109010 0 652.77444585 0 14105.69892596 0 474.00401102 0 -1149.86093242 0 3787
0.06050000 0.06049470 35397.77955222 0 -360.41967410 0 14460.12404341 0 2029.39105439 0 -427.87892029 0 3930
0.06150000 0.06148310 36606.87742242 0 -241.06665595 0 13559.05824967 0 1182.44678436 0 -2570.13018155 0 4083
0.06250000 0.06249100 36136.19289438 0 688.92447915 0 14910.32477053 0 570.37420455 0 601.69891869 0 4303
0.06350000 0.06350600 34981.90303203 0 2026.55653923 0 14038.71136081 0 -1038.47555921 0 -1827.70865781 0 4470
0.06450000 0.06451750 32921.67555303 0 2144.64288342 0 15637.22289488 0 -54.75364274 0 1451.32712025 0 4479
0.06550000 0.06550280 31564.54070000 0 2032.93419833 0 15877.93523644 0 1186.65426779 0 2062.76304139 0 4636
0.06650000 0.06648880 29618.02599689 0 1225.80600835 0 13855.57510831 0 1696.51268104 0 1119.14630337 0 4653
0.06750000 0.06749660 29521.25387797 0 -273.83630848 0 12451.60432131 0 3402.86865884 0 626.49096119 0 5220
0.06850000 0.06852730 29071.16387409 0 -1372.17107013 0 8666.12040603 0 3266.31367685 0 -1248.89180559 0 5029
0.06950000 0.06949320 30664.36069225 0 -754.30877167 0 8093.52620036 0 2580.41637131 0 -2328.88636841 0 5040
0.07050000 0.07048030 30728.24800645 0 -96.23167874 0 6802.91387485 0 -440.68738564 0 -4916.53296782 0 5475
0.07150000 0.07148790 30033.79179383 0 1025.49990175 0 7339.71125438 0 -1237.22157524 0 -3460.48903720 0 5509
0.07250000 0.07249820 29356.94057766 0 1252.97749345 0 7325.21758120 0 -2243.92842007 0 -1751.75250956 0 5916
0.07350000 0.07351270 28207.96543123 0 1115.43707456 0 8425.50771540 0 2049.53161323 0 -310.64071618 0 5721
0.07450000 0.07449140 27825.41660875 0 156.61582009 0 8516.12362171 0 1234.02167336 0 -1155.38602250 0 6028
0.07550000 0.07549160 27392.71015483 0 621.52945244 0 7217.56136698 0 1708.27149000 0 -907.20761232 0 6183
0.07650000 0.07648840 27465.01243590 0 -109.21663695 0 8422.62891095 0 412.46956584 0 -867.97615102 0 6330
0.07750000 0.07749960 26538.36957183 0 1292.01851076 0 7347.49509873 0 -505.54242103 0 -647.77639842 0 6583
0.07850000 0.07848650 25821.87943281 0 1361.10981763 0 7545.65649601 0 -123.35234187 0 433.16152646 0 6549
0.07950000 0.07947320 24766.13326136 0 405.77413102 0 7593.09033553 0 -350.97608826 0 755.23884695 0 6828
0.08050000 0.08048110 25071.17581011 0 88.21442979 0 7753.83834725 0 884.79833412 0 1013.15868851 0 7147
0.08150000 0.08149960 24649.87385076 0 409.64944471 0 8904.62935495 0 197.59227978 0 728.54347181 0 7386
0.08250000 0.08250610 24499.51167972 0 942.12418863 0 8778.26091180 0 810.88945872 0 2438.34737156 0 7227
0.08350000 0.08350160 23281.33450317 0 699.57605562 0 8959.12733771 0 1034.59138766 0 4069.81014429 0 7798
0.08450000 0.08449610 23390.39690264 0 231.79247668 0 8741.32363620 0 1567.65296480 0 3138.66084402 0 7371
0.08550000 0.08548940 22825.37616714 0 -17.32442375 0 8681.97597517 0 306.29593592 0 2892.71129282 0 8256
0.08650000 0.08650700 22339.63327735 0 753.66214790 0 8307.00062286 0 -443.97365165 0 1697.90779396 0 8037
0.08750000 0.08749060 21788.34222463 0 627.24941544 0 8102.29548162 0 -1093.03997591 0 1445.07125673 0 8155
0.08850000 0.08849210 21627.01845202 0 346.06108328 0 7949.13201240 0 -708.57896293 0 464.27365197 0 8718
0.08950000 0.08949900 21542.86878340 0 301.04322503 0 8171.50858406 0 -154.77338524 0 -373.78950632 0 8571
0.09050000 0.09049190 21062.10843977 0 420.95539558 0 8435.22921659 0 -590.29220966 0 -1059.81082190 0 8932
0.09150000 0.09150830 20748.54020091 0 474.43915339 0 7826.58352131 0 565.77143912 0 235.76411960 0 9285
0.09250000 0.09250820 20301.55044798 0 467.02291022 0 8373.62280130 0 766.83821443 0 289.06407681 0 9204
0.09350000 0.09350330 20030.72138292 0 440.91215384 0 8119.73439321 0 893.33398932 0 -10.05385916 0 9349
0.09450000 0.09448040 19573.76653765 0 611.84670439 0 8332.93200759 0 981.39329584 0 1283.33780811 0 9564
0.09550000 0.09549270 18581.02189441 0 453.22568627 0 7759.65131778 0 833.08282659 0 1435.06187510 0 10155
0.09650000 0.09649430 18390.57790753 0 113.66959382 0 7079.30124697 0 2063.74847830 0 2282.73691856 0 9913
0.09750000 0.09749140 18331.11952325 0 198.18907809 0 6081.58512989 0 1287.16883249 0 1941.36607208 0 10476
0.09850000 0.09850240 18035.82062034 0 262.04096086 0 5661.42362000 0 895.09891790 0 1413.73657749 0 10575
0.09950000 0.09950330 17735.98206425 0 345.19633471 0 5172.39224973 0 493.59870425 0 1378.33835505 0 10882
0.10050000 0.10051200 17331.73148512 0 266.15543676 0 5061.90152037 0 -987.37124401 0 275.42961603 0 10875
0.10150000 0.10150300 17300.17535939 0 441.78797473 0 5592.05550501 0 -1066.20287502 0 717.41799983 0 11118
0.10250000 0.10250800 16855.51079467 0 421.22445308 0 5893.02343823 0 -746.46070783 0 -340.86594847 0 11575
0.10350000 0.10349800 16330.23970528 0 647.86054809 0 6162.90028336 0 -548.52850768 0 349.00189275 0 11364
0.10450000 0.10450100 16181.42765971 0 586.62173398 0 6058.12287360 0 -146.89210444 0 -538.17256228 0 12093
0.10550000 0.10551000 15633.56902769 0 377.76889986 0 6559.56631999 0 545.26660079 0 280.35237164 0 12067
0.10650000 0.10649700 15550.74803804 0 -89.67963053 0 5936.00620317 0 802.03602780 0 -553.07258978 0 12054
0.10750000 0.10749900 15781.71673376 0 -158.71734735 0 5968.49240419 0 1029.42614813 0 123.69336948 0 12807
0.10850000 0.10850100 15624.82189108 0 -9.87008072 0 5388.84512761 0 538.61434804 0 -53.05758402 0 12736
0.10950000 0.10950300 15660.36405375 0 209.16839538 0 5526.77307788 0 129.06012532 0 7.87626504 0 12933
0.11050000 0.11050200 15771.97308792 0 67.56554051 0 5415.78409389 0 220.28611673 0 497.96895086 0 13428
0.11150000 0.11150900 15171.96380600 0 138.30551654 0 5599.54039659 0 108.64729801 0 -27.45360794 0 13453
0.11250000 0.11250000 15233.63665524 0 349.51121969 0 5774.98138334 0 -2.30223528 0 260.41443634 0 13668
0.11350000 0.11349100 14916.19310269 0 88.95505759 0 5089.37195824 0 503.42871423 0 357.46114891 0 13791
0.11450000 0.11448600 14971.33328028 0 104.44557218 0 4991.51475149 0 726.04998426 0 866.33191079 0 14205
0.11550000 0.11549300 14911.09983327 0 159.37615067 0 4719.43451373 0 667.20500678 0 690.97285924 0 14776
0.11650000 0.11649800 14449.93750457 0 150.95232595 0 4279.83000145 0 405.10425537 0 1094.28782692 0 14553
0.11750000 0.11747300 14747.11870271 0 198.27212053 0 4306.54752124 0 -209.81944808 0 553.17888410 0 14568
0.11850000 0.11849100 14444.06917242 0 99.08003430 0 4668.16964982 0 -129.06787595 0 935.45311293 0 16015
0.11950000 0.11950300 14508.73154936 0 229.34992183 0 5062.82052333 0 -471.00230376 0 1261.01600127 0 15270
0.12050000 0.12050700 14118.54282275 0 312.77546041 0 5131.45786488 0 -26.31083330 0 1357.86562646 0 15999
0.12150000 0.12150000 14175.34384907 0 166.17234365 0 4687.28048245 0 344.41130688 0 791.16632652 0 15670
0.12250000 0.12250700 13839.40951407 0 7.37763397 0 5128.10295046 0 257.45369668 0 781.22780776 0 16887
0.12350000 0.12352200 13915.91927857 0 172.00081543 0 4645.84784298 0 810.54953835 0 902.06783914 0 16407
0.12450000 0.12449800 13718.83189680 0 -79.08895184 0 4169.47213998 0 184.92332573 0 383.49882795 0 16306
0.12550000 0.12549900 13847.38158794 0 -126.50352552 0 4154.82345425 0 318.46109920 0 524.42516378 0 17523
0.12650000 0.12650100 13859.11825225 0 110.21469631 0 4002.36861382 0 89.60754969 0 285.51428947 0 17154
0.12750000 0.12750600 13638.66826511 0 277.24990623 0 3667.68545153 0 391.08115599 0 321.20260683 0 18007
0.12850000 0.12850300 13529.05224941 0 191.15040120 0 3525.11819716 0 12.46699485 0 202.95128500 0 17496
0.12950000 0.12949900 13213.26954558 0 327.17834053 0 3148.73665960 0 284.67500725 0 -61.76054205 0 18405
0.13050000 0.13049000 13228.77080033 0 339.28703495 0 3177.84580155 0 -166.02286726 0 253.35472204 0 18100
0.13150000 0.13148800 12608.16699424 0 385.82401617 0 3540.44229471 0 -282.10622789 0 599.08252834 0 19059
0.13250000 0.13249300 12691.76304662 0 224.30204894 0 3638.96384095 0 251.63408276 0 612.52543790 0 18957
0.13350000 0.13349100 12473.63824769 0 -16.60616204 0 3487.69373928 0 279.51087495 0 481.92736666 0 19468
0.13450000 0.13450700 12439.75693375 0 68.69890368 0 3752.44409801 0 378.38895005 0 654.79182343 0 19953
0.13550000 0.13551000 12312.86809133 0 242.68985877 0 3516.52607310 0 -224.60875234 0 472.27894281 0 19956
0.13650000 0.13649900 12200.59471767 0 321.39305081 0 3717.12338184 0 312.73338557 0 846.11052397 0 19723
0.13750000 0.13749600 11982.58064199 0 111.74965270 0 3396.29169790 0 11.66303335 0 1208.58854325 0 20946
0.13850000 0.13851100 11911.60703990 0 -28.10410702 0 3531.92767693 0 392.29136109 0 802.24972366 0 20955
0.13950000 0.13949800 11951.46740925 0 -0.44658561 0 3508.63150551 0 375.94196626 0 323.85221416 0 20506
0.14050000 0.14048300 11854.91673683 0 197.65317757 0 3276.84345775 0 63.52170604 0 519.66295688 0 21447
0.14150000 0.14148400 11708.31915623 0 143.22273599 0 3234.08213930 0 -154.34156458 0 733.22374351 0 21771
0.14250000 0.14249400 11571.35449822 0 151.11287466 0 3267.32125841 0 -187.55521734 0 195.14861770 0 22470
0.14350000 0.14350900 11502.37391460 0 253.10670196 0 3294.70311769 0 -179.61082428 0 340.52934980 0 22519
0.14450000 0.14449900 11359.87309419 0 211.42825688 0 3569.44071341 0 39.66948247 0 116.50410897 0 22218
0.14550000 0.14550500 11051.89637936 0 252.69481148 0 3302.43160041 0 303.19789944 0 386.56143300 0 23559
0.14650000 0.14650700 10801.48468126 0 378.62036164 0 3805.04871323 0 58.36565654 0 612.20987664 0 23044
0.14750000 0.14750500 10596.71310606 0 219.22538801 0 3388.31962403 0 323.99947608 0 503.16519290 0 23649
0.14850000 0.14849900 10317.95625643 0 145.05852745 0 3671.81542868 0 241.59148415 0 919.28419700 0 23640
0.14950000 0.14949500 10262.46176444 0 193.97827296 0 3230.78258651 0 220.68914936 0 921.79872196 0 24457
0.15050000 0.15050000 10184.49045306 0 66.24726952 0 3299.67459153 0 484.03553731 0 972.20437347 0 24591
0.15150000 0.15149900 10027.39630854 0 58.25891933 0 3064.37661681 0 231.04177306 0 935.59040976 0 25020
0.15250000 0.15250500 9979.49743137 0 78.64716608 0 2999.31563617 0 91.95532545 0 815.33610437 0 25297
0.15350000 0.15350100 9917.35954449 0 80.97080417 0 2979.46295777 0 65.58580883 0 606.30611305 0 25452
0.15450000 0.15450400 9789.98351977 0 205.53002945 0 2893.18740279 0 -214.24948524 0 588.35676728 0 26061
0.15550000 0.15549900 9534.25710576 0 294.12966541 0 2974.12609721 0 -97.43391177 0 735.36623837 0 26128
0.15650000 0.15649500 9397.52496658 0 236.58347163 0 3146.58862859 0 0.29782782 0 493.36950713 0 26331
0.15750000 0.15749700 9202.45274792 0 126.99292227 0 2963.51881004 0 150.38874462 0 1033.05897790 0 27345
0.15850000 0.15849900 9144.03516218 0 51.22234618 0 2974.25896511 0 360.93785890 0 432.37428417 0 26980
0.15950000 0.15949700 9171.69382958 0 75.47295200 0 2699.56565868 0 363.99160609 0 476.73223186 0 27777
0.16050000 0.16050000 9138.15575770 0 17.74030027 0 2551.86084560 0 41.16280692 0 150.95896934 0 28224
0.16150000 0.16150500 8983.76326043 0 199.71705892 0 2470.93322350 0 -126.17246301 0 -93.87305211 0 28075
0.16250000 0.16249700 9002.48656170 0 139.49689869 0 2602.41708072 0 -225.66062320 0 -96.89214292 0 28590
0.16350000 0.16349900 8749.11855287 0 4.13737347 0 2567.87142729 0 -166.12362542 0 -147.76681810 0 29163
0.16450000 0.16449100 9009.30711379 0 93.68814428 0 2541.99540419 0 -55.29585448 0 -229.85039091 0 28996
0.16550000 0.16550500 8792.75458498 0 88.88076229 0 2754.06364144 0 34.81161068 0 -340.45295076 0 30777
0.16650000 0.16650700 8725.40163311 0 193.61842241 0 2669.86968352 0 199.12801124 0 -318.03370746 0 29211
0.16750000 0.16749900 8508.05189692 0 242.66107073 0 2411.02087391 0 157.83709752 0 -154.48661203 0 30922
0.16850000 0.16850800 8382.94569880 0 133.39051156 0 2523.79250219 0 434.81683902 0 -88.77169989 0 30867
0.16950000 0.16949900 8434.54273245 0 -63.48992847 0 2420.43235001 0 202.54603791 0 8.06935532 0 30852
0.17050000 0.17049200 8392.86650183 0 -38.97325468 0 2330.21504738 0 90.80978272 0 -53.07839999 0 31257
0.17150000 0.17149500 8406.76226948 0 53.19432723 0 2153.10213958 0 -80.59733465 0 -23.91245702 0 32608
0.17250000 0.17250900 8412.18770864 0 94.08420134 0 2283.73342779 0 -147.22759588 0 -37.98837139 0 32361
0.17350000 0.17350400 8260.25326748 0 158.74502816 0 2403.22595724 0 -7.27528140 0 49.36075621 0 32508
0.17450000 0.17449800 8186.69981371 0 177.54362123 0 2403.87922440 0 -0.68056266 0 69.63052909 0 32791
0.17550000 0.17549800 8126.55494530 0 142.68240654 0 2387.92400434 0 13.57954205 0 -90.00072795 0 33633
0.17650000 0.17650100 7962.20842801 0 51.35211383 0 2424.42945927 0 -67.45293496 0 269.98203222 0 33984
0.17750000 0.17750300 7929.48970817 0 76.48330164 0 2489.10290853 0 163.17174362 0 268.94898431 0 34069
0.17850000 0.17849800 7909.84740394 0 144.82157970 0 2513.89384380 0 120.99836562 0 84.91454482 0 34536
