### header ###
fiducial parameters:
Omega_m = 0.31
Omega_nu = 0
Omega_de = 0.69
Omega_k = 0
H_0 = 100
w_de = -1
zeff = 0
beta = 0
fgrowth = 0
b_1 = 2
gamma = 0.55
Lx = 3500 Ly = 3500 Lz = 3500
nx = 700 ny = 700 nz = 700
xoffset = -685.467585 yoffset = -31.7331281 zoffset = 572.489161
bins = 400 dk = 0.001
kx_ny = 0.628318531 ky_ny = 0.628318531 kz_ny = 0.628318531
############################
A(data) = 8.01595799 (not used)
A(ran) = 8.00782885 (used)
Ngal = 476115
weighted Ngal = 0
Nran = 23820508
weighted Nran = 0
SN(data) = 3496.75193
SN(ran) = 69.7510934
SN(data+ran) = 3566.50302
############################
13 columns: k_central k_mean P_0(k) sigma^{lin}_{P_0(k)} P^img_1(k) sigma^{lin}_{P_1(k)} P_2(k) sigma^{lin}_{P_2(k)} P^img_3(k) sigma^{lin}_{P_3(k)} P_4(k) sigma^{lin}_{P_4(k)} N_modes
### header ###
0.00050000 0 0 0 0 0 0 0 0 0 0 0 0
0.00150000 0.00179520 27160.63422664 0 -30649.74522349 0 -5522.91990884 0 10534.03267526 0 -33156.07666944 0 3
0.00250000 0.00253879 46365.47090133 0 -27666.86091734 0 1320.64047042 0 -3140.49884994 0 42380.87336884 0 6
0.00350000 0.00331552 52234.57811795 0 -240.49089506 0 27644.93771420 0 -78450.74303755 0 -17553.95304423 0 7
0.00450000 0.00420575 53591.15935473 0 21074.73089007 0 17912.91781485 0 -15987.77269864 0 54375.63356813 0 24
0.00550000 0.00557378 32675.31632581 0 6872.60308726 0 17111.28149798 0 5708.64708535 0 17215.13990478 0 45
0.00650000 0.00659388 44354.40454452 0 -6660.13624631 0 23566.00397426 0 22374.40037728 0 17537.78745000 0 40
0.00750000 0.00754703 62395.31843428 0 -23984.53785241 0 36739.52387374 0 26727.04198674 0 -19773.28983088 0 57
0.00850000 0.00846663 64190.91735012 0 -5084.64407554 0 26505.26332062 0 9652.67561970 0 -5292.95879468 0 75
0.00950000 0.00948925 75919.60958401 0 3611.13908868 0 25918.87299822 0 -21317.76841984 0 10175.83189505 0 112
0.01050000 0.01054430 75553.11563252 0 -954.80864395 0 34059.91054438 0 -3480.90640416 0 26996.54237282 0 105
0.01150000 0.01145670 82290.84673116 0 -7756.58428380 0 43871.31901268 0 -6309.89646765 0 11767.22392426 0 144
0.01250000 0.01249090 89141.62626620 0 2887.48515551 0 65949.86687081 0 7627.76885686 0 24604.25587251 0 169
0.01350000 0.01339930 83367.40887327 0 9454.81317519 0 52714.67412209 0 43909.29708681 0 14717.33414894 0 180
0.01450000 0.01448870 82556.80397330 0 1711.46031954 0 47417.23103585 0 22916.72284690 0 30616.30680254 0 267
0.01550000 0.01550050 84254.63426099 0 4157.14864246 0 37668.82409577 0 30735.11284784 0 30311.37497703 0 238
0.01650000 0.01653350 77666.15810091 0 -940.72464678 0 34076.07613862 0 19008.63507891 0 22541.59248204 0 315
0.01750000 0.01747870 77060.61265657 0 713.10422209 0 25114.91149314 0 15192.33688366 0 16162.60470752 0 297
0.01850000 0.01844180 73601.50765998 0 5241.07388058 0 17808.17362207 0 5075.48726292 0 12008.82205181 0 388
0.01950000 0.01947590 72835.30278253 0 4613.10697849 0 20060.28449018 0 -1282.23057562 0 6443.71658541 0 399
0.02050000 0.02045430 66456.64717776 0 5824.29751808 0 16276.20676016 0 -4416.29640484 0 -3225.88861894 0 462
0.02150000 0.02154770 65271.24408267 0 127.98168088 0 17116.81766039 0 -4468.95638168 0 -13014.63203833 0 571
0.02250000 0.02255340 70292.10049494 0 -4493.84696787 0 19841.71679826 0 -5538.04470454 0 -20598.51019962 0 510
0.02350000 0.02348930 71599.07771653 0 -3100.40596177 0 18195.15137448 0 4215.64373448 0 -18158.83414908 0 555
0.02450000 0.02439640 70318.00973501 0 -876.87608571 0 19015.49992030 0 2484.64076163 0 -17355.64770673 0 592
0.02550000 0.02547300 70259.76930646 0 5931.94265997 0 18466.20188604 0 2835.53380746 0 -15137.19670607 0 837
0.02650000 0.02652900 69046.46395284 0 1668.30039740 0 15360.63622091 0 13843.28482776 0 -4997.11734785 0 723
0.02750000 0.02749970 63361.26805146 0 -364.53082831 0 15574.55353640 0 6544.61868148 0 -3430.11765022 0 826
0.02850000 0.02848090 66727.36551957 0 -1653.93959211 0 16381.06167619 0 3775.45238899 0 -4550.78086209 0 831
0.02950000 0.02946900 64723.49617389 0 1769.91112226 0 21321.75445677 0 480.21558524 0 -3066.97861314 0 996
0.03050000 0.03053250 64526.63023862 0 4188.22865823 0 21403.35749068 0 -727.01549099 0 2552.24837697 0 1041
0.03150000 0.03150510 61170.60858609 0 1344.55669203 0 22121.95137141 0 -378.35130415 0 7654.36458108 0 1036
0.03250000 0.03246190 58117.96863359 0 4390.28751384 0 21264.28909096 0 1924.61364463 0 4985.03744148 0 1059
0.03350000 0.03345080 55082.82295430 0 4696.01654673 0 24744.32078146 0 3318.71899022 0 13136.53833459 0 1302
0.03450000 0.03451200 50569.07901873 0 3851.00993355 0 18151.19424495 0 5874.32228161 0 12056.21160203 0 1339
0.03550000 0.03553350 48840.68911454 0 1253.19893995 0 13768.98952823 0 8168.09830801 0 13522.18740802 0 1365
0.03650000 0.03647120 49392.53378350 0 -2500.87278981 0 15025.36622540 0 4480.09514045 0 14736.26782438 0 1308
0.03750000 0.03744890 49194.89278549 0 -706.38996432 0 12364.90801798 0 2710.09543959 0 7878.80060515 0 1579
0.03850000 0.03847530 50411.40911331 0 291.76793853 0 10860.15693047 0 -2181.40300182 0 10203.95560009 0 1662
0.03950000 0.03950240 50473.52485554 0 2252.91914782 0 16079.23010164 0 -3501.56736227 0 6897.73726460 0 1683
0.04050000 0.04050350 46569.42312449 0 3714.26672204 0 16652.99797374 0 -3106.38501717 0 8139.63136091 0 1822
0.04150000 0.04152450 44539.42309224 0 2809.50277181 0 21104.18327408 0 -2550.44358803 0 4555.65268501 0 1887
0.04250000 0.04250150 43528.18766655 0 2347.48787410 0 23903.59915798 0 -1618.64102059 0 7096.19761465 0 1920
0.04350000 0.04349210 42904.59433277 0 -692.02583733 0 24540.47928155 0 3727.75281367 0 6872.48129169 0 2005
0.04450000 0.04448520 43591.63208776 0 -261.25261133 0 23168.83968302 0 3521.35360672 0 8594.50460911 0 2151
0.04550000 0.04548030 43731.80771997 0 -113.28206245 0 20065.15631310 0 4390.38716476 0 2154.13186579 0 2274
0.04650000 0.04648670 42467.12677918 0 910.35325980 0 20711.78008251 0 3379.81607857 0 5812.38369657 0 2311
0.04750000 0.04749250 40581.62058581 0 3774.01298676 0 14937.00907335 0 1701.82739695 0 1097.20870621 0 2568
0.04850000 0.04851840 36393.84589290 0 2532.71679599 0 13030.13329308 0 2173.71880840 0 1955.99261316 0 2493
0.04950000 0.04949480 36356.97505126 0 170.96887476 0 13178.28099915 0 1225.89458695 0 -931.61101622 0 2644
0.05050000 0.05050630 34402.82044402 0 -759.40979171 0 6961.86816995 0 3475.35916943 0 -2041.68133493 0 2829
0.05150000 0.05149060 36137.96446635 0 -988.83389811 0 7263.33435778 0 272.57074176 0 -6754.10706705 0 2784
0.05250000 0.05249300 36069.31605247 0 610.21353648 0 8606.03089924 0 -2459.87197101 0 -5646.81922356 0 3055
0.05350000 0.05348950 35444.94765595 0 2607.18925272 0 10708.55465905 0 -3123.44746972 0 -6026.48924159 0 3009
0.05450000 0.05448610 33742.02409884 0 1197.42763984 0 12443.30007769 0 -3587.53289216 0 -2010.12520920 0 3336
0.05550000 0.05550870 34534.80255585 0 -529.42764013 0 15619.72862166 0 -1636.44531890 0 -916.16401586 0 3349
0.05650000 0.05647670 36879.14588971 0 -2594.41178988 0 17058.90940159 0 2761.19421862 0 -2438.75704758 0 3324
0.05750000 0.05747970 38101.19837994 0 -1651.22687253 0 16480.38042982 0 2864.05611619 0 -846.02748153 0 3639
0.05850000 0.05849280 38582.51233981 0 377.73900458 0 16204.23664884 0 311.59957951 0 385.13974649 0 3846
0.05950000 0.05951020 38059.01282238 0 1088.61215322 0 13973.16319788 0 2291.78300794 0 -1218.79722674 0 3787
0.06050000 0.06049470 36818.13737996 0 1422.76052222 0 14841.12274042 0 1196.55292618 0 3694.69085176 0 3930
0.06150000 0.06148310 35749.10441872 0 638.96282787 0 13076.63705732 0 2263.33820548 0 3500.42691282 0 4083
0.06250000 0.06249100 35602.83900786 0 502.18972108 0 12999.90584632 0 3158.52459474 0 2595.81797513 0 4303
0.06350000 0.06350600 34336.38649510 0 512.83686863 0 10594.68687062 0 1370.43271513 0 1437.12132751 0 4470
0.06450000 0.06451750 34182.14901038 0 1815.14156914 0 12810.34764543 0 -1065.89395715 0 2437.82697230 0 4479
0.06550000 0.06550280 32800.32287301 0 1102.54556677 0 12347.19229827 0 -333.64900716 0 1799.17527676 0 4636
0.06650000 0.06648880 31537.96712044 0 720.06317823 0 11981.03051651 0 -768.70500839 0 1645.17031085 0 4653
0.06750000 0.06749660 31623.88836103 0 595.70436203 0 11869.86437533 0 1190.76210030 0 643.69071056 0 5220
0.06850000 0.06852730 31152.20732376 0 873.57542568 0 13387.65866147 0 470.77199941 0 -153.46795815 0 5029
0.06950000 0.06949320 30225.78590618 0 557.70746495 0 12001.07142443 0 380.88022313 0 871.52150943 0 5040
0.07050000 0.07048030 29916.42515075 0 491.98435929 0 11850.26636040 0 -45.65983164 0 -875.73342179 0 5475
0.07150000 0.07148790 29030.63916526 0 1338.89873405 0 12859.50876762 0 -555.82516973 0 410.08458708 0 5509
0.07250000 0.07249820 28652.62999595 0 963.96324211 0 13915.47638558 0 -607.20629305 0 -821.66725970 0 5916
0.07350000 0.07351270 27481.17803014 0 903.47845332 0 12727.96954878 0 1051.00278751 0 911.22133007 0 5721
0.07450000 0.07449140 27118.89156207 0 270.79584809 0 11120.37870836 0 2179.47641730 0 876.55941722 0 6028
0.07550000 0.07549160 26654.51825918 0 -66.00633573 0 10936.62240567 0 2222.60312247 0 -696.86997944 0 6183
0.07650000 0.07648840 26922.35779654 0 -150.99550802 0 9421.29724796 0 2272.40643951 0 -1226.59214341 0 6330
0.07750000 0.07749960 26357.11561455 0 67.07260061 0 9144.20124705 0 2000.86874565 0 692.79093497 0 6583
0.07850000 0.07848650 26362.31960721 0 911.82809347 0 8674.16998618 0 297.78242537 0 -247.31698331 0 6549
0.07950000 0.07947320 25485.94509782 0 660.50957196 0 8401.42540892 0 -646.15430284 0 1246.59983436 0 6828
0.08050000 0.08048110 25403.78844766 0 263.10279681 0 9253.48509301 0 -835.88744646 0 1153.90233098 0 7147
0.08150000 0.08149960 24696.04544525 0 806.20475809 0 9519.86308350 0 -264.64517165 0 2694.30630439 0 7386
0.08250000 0.08250610 24984.81167652 0 343.34725646 0 9912.17769647 0 263.00536035 0 522.54176133 0 7227
0.08350000 0.08350160 24316.15398073 0 -31.23403180 0 9667.59004123 0 585.01071072 0 1771.37266914 0 7798
0.08450000 0.08449610 24227.24321243 0 612.68820107 0 8473.71661766 0 1138.26820833 0 -540.18218923 0 7371
0.08550000 0.08548940 23567.66482299 0 406.87804181 0 8187.45273180 0 1074.02547250 0 -161.83088508 0 8256
0.08650000 0.08650700 23325.29163270 0 336.32408083 0 7405.04904314 0 948.81187282 0 -898.35196693 0 8037
0.08750000 0.08749060 22266.00231730 0 1081.38081788 0 6594.06768412 0 183.62454202 0 -665.12562418 0 8155
0.08850000 0.08849210 22209.09056774 0 876.26710785 0 7577.71087636 0 306.25496832 0 -578.86114152 0 8718
0.08950000 0.08949900 20749.09381715 0 635.24363396 0 7551.19265842 0 30.48598554 0 461.63733143 0 8571
0.09050000 0.09049190 20561.75008122 0 525.13379257 0 6663.74582420 0 515.61602215 0 163.10530967 0 8932
0.09150000 0.09150830 20456.56299544 0 3.11753485 0 7149.40013540 0 960.49428274 0 739.36334762 0 9285
0.09250000 0.09250820 19985.65702090 0 27.84280016 0 6091.50593293 0 960.10564414 0 158.62987598 0 9204
0.09350000 0.09350330 20244.08508217 0 76.50433906 0 6251.85534095 0 947.11669989 0 -94.54757814 0 9349
0.09450000 0.09448040 19578.52763732 0 789.65163249 0 5292.10622567 0 254.32465769 0 -962.43304682 0 9564
0.09550000 0.09549270 19087.69147811 0 736.01175490 0 5054.38341181 0 -371.31262726 0 -635.91129515 0 10155
0.09650000 0.09649430 18349.49958245 0 690.15682890 0 4553.85896839 0 -820.71946869 0 -508.47769434 0 9913
0.09750000 0.09749140 18181.20024521 0 454.38274421 0 5536.62744697 0 -614.87498522 0 -339.68563865 0 10476
0.09850000 0.09850240 17717.82345155 0 -326.98568208 0 5780.08572508 0 -13.12480167 0 -1087.58685594 0 10575
0.09950000 0.09950330 18088.08199349 0 45.11684483 0 6043.44097089 0 257.85451484 0 -1074.71417110 0 10882
0.10050000 0.10051200 18051.10042859 0 363.19661317 0 6301.95761076 0 398.79635192 0 -1904.73882158 0 10875
0.10150000 0.10150300 17492.83381123 0 418.26703512 0 5997.32473802 0 42.15056901 0 -1563.34583044 0 11118
0.10250000 0.10250800 17232.19128500 0 585.65179833 0 6072.04078590 0 252.79446240 0 -1027.99006760 0 11575
0.10350000 0.10349800 16689.31519915 0 333.31240848 0 5403.18378825 0 480.40049307 0 -68.03223900 0 11364
0.10450000 0.10450100 16494.88517533 0 364.10122210 0 5418.93970647 0 1183.23291942 0 -861.94616292 0 12093
0.10550000 0.10551000 16141.78873686 0 165.32309633 0 4466.58690417 0 861.77675635 0 -943.31003462 0 12067
0.10650000 0.10649700 15947.24798980 0 299.84630672 0 4679.70701228 0 655.22253686 0 -564.70738870 0 12054
0.10750000 0.10749900 15894.54372366 0 283.91101684 0 4930.70554359 0 30.60822401 0 57.07827733 0 12807
0.10850000 0.10850100 15435.04224369 0 313.57488226 0 4275.53393942 0 606.75122050 0 583.95219647 0 12736
0.10950000 0.10950300 15421.86617716 0 29.57484393 0 4823.06040170 0 -254.73433371 0 332.87615888 0 12933
0.11050000 0.11050200 15406.91853865 0 166.42811435 0 4858.73543227 0 -143.52501046 0 875.50533190 0 13428
0.11150000 0.11150900 15423.30557938 0 265.85869845 0 5665.52038018 0 -310.10703013 0 -321.67207340 0 13453
0.11250000 0.11250000 14901.79908042 0 362.99952578 0 5281.56537244 0 -245.66277798 0 881.30612287 0 13668
0.11350000 0.11349100 14667.50868726 0 427.39727416 0 5689.46981876 0 -619.81434933 0 -233.46661220 0 13791
0.11450000 0.11448600 14678.80245858 0 57.19874423 0 6020.80913896 0 -352.34130591 0 45.16899548 0 14205
0.11550000 0.11549300 14515.92856049 0 315.24791054 0 6361.44921201 0 -305.12116226 0 -687.68991493 0 14776
0.11650000 0.11649800 14326.70252934 0 433.00762115 0 6737.48750750 0 -85.20320033 0 -226.98487325 0 14553
0.11750000 0.11747300 14233.47355437 0 113.29645647 0 6312.22165586 0 281.83717040 0 204.78596922 0 14568
0.11850000 0.11849100 13964.63750777 0 -184.34867207 0 6505.04619258 0 1012.37698238 0 82.10859626 0 16015
0.11950000 0.11950300 14235.24512634 0 -86.70970084 0 6133.02715100 0 898.44054553 0 574.58943860 0 15270
0.12050000 0.12050700 14069.04953081 0 143.83171386 0 5533.64899159 0 1237.19943059 0 527.05816262 0 15999
0.12150000 0.12150000 13850.70328539 0 492.14933693 0 5435.62569997 0 975.51167689 0 1277.48054828 0 15670
0.12250000 0.12250700 13536.35998379 0 37.24785431 0 4605.43385739 0 916.77631543 0 1314.15208808 0 16887
0.12350000 0.12352200 13298.74789318 0 74.74527881 0 4353.11771943 0 653.52625670 0 1714.18411145 0 16407
0.12450000 0.12449800 13564.59441208 0 36.14294701 0 4082.04506322 0 398.28370328 0 1357.77704786 0 16306
0.12550000 0.12549900 13181.04908036 0 79.18561324 0 4187.84112686 0 185.01411879 0 1642.08113223 0 17523
0.12650000 0.12650100 13365.18184209 0 80.63420549 0 3838.34319396 0 -473.41717781 0 1399.09896408 0 17154
0.12750000 0.12750600 13150.26801736 0 60.93476807 0 4023.36174168 0 70.20728649 0 1777.65067731 0 18007
0.12850000 0.12850300 13218.03064525 0 64.58597790 0 3714.08956484 0 190.11292437 0 883.59366518 0 17496
0.12950000 0.12949900 12959.71330723 0 242.61456696 0 3803.17749033 0 -6.04799170 0 1004.58981633 0 18405
0.13050000 0.13049000 12879.54967555 0 526.90425731 0 3725.70443358 0 -234.85508173 0 925.77479381 0 18100
0.13150000 0.13148800 12351.95339794 0 315.96096826 0 3460.51118185 0 364.88735717 0 494.03163215 0 19059
0.13250000 0.13249300 12315.41472604 0 96.88417084 0 3547.28499145 0 -166.67613443 0 919.96293051 0 18957
0.13350000 0.13349100 12128.29243660 0 -38.62801959 0 3492.53234522 0 107.46333431 0 426.77168781 0 19468
0.13450000 0.13450700 12275.55435669 0 168.79316293 0 3833.40493709 0 218.11040491 0 280.72218729 0 19953
0.13550000 0.13551000 12091.53231820 0 215.95905219 0 3713.83490137 0 -281.66444213 0 -21.14902619 0 19956
0.13650000 0.13649900 11797.34064777 0 340.50388345 0 3836.74877918 0 -5.07927400 0 467.34622211 0 19723
0.13750000 0.13749600 11717.06629284 0 310.11145906 0 3847.63287448 0 -225.79016940 0 379.11086563 0 20946
0.13850000 0.13851100 11480.45071146 0 81.77531929 0 4164.65567869 0 211.57884049 0 425.76632072 0 20955
0.13950000 0.13949800 11472.81080734 0 -5.78700593 0 4032.52962663 0 132.21795236 0 254.13199924 0 20506
0.14050000 0.14048300 11539.46620275 0 83.35268268 0 3825.32213997 0 374.65314766 0 136.35900184 0 21447
0.14150000 0.14148400 11358.98730820 0 13.23962168 0 3609.22357648 0 104.70621471 0 255.89249888 0 21771
0.14250000 0.14249400 11288.23515261 0 161.69580272 0 3391.13199453 0 415.88094912 0 277.00852955 0 22470
0.14350000 0.14350900 11152.82062008 0 112.97203736 0 3127.61066385 0 525.33530888 0 94.09427716 0 22519
0.14450000 0.14449900 11022.28898279 0 121.43793691 0 2805.51673487 0 597.26334537 0 331.80103614 0 22218
0.14550000 0.14550500 10862.57069728 0 240.81199248 0 2574.42624358 0 282.04865180 0 10.60765256 0 23559
0.14650000 0.14650700 10713.90259194 0 4.78897979 0 2137.99948853 0 337.54757272 0 690.68940772 0 23044
0.14750000 0.14750500 10583.64776278 0 -91.49172721 0 2202.54006990 0 166.19005937 0 -168.10114263 0 23649
0.14850000 0.14849900 10558.13712639 0 185.74599946 0 1999.03073973 0 -4.84440784 0 231.52009749 0 23640
0.14950000 0.14949500 10632.38813663 0 153.61189837 0 2318.97663769 0 -260.22509959 0 -217.97975147 0 24457
0.15050000 0.15050000 10470.48860313 0 55.86419692 0 2275.92743880 0 -248.79292421 0 202.55157407 0 24591
0.15150000 0.15149900 10507.64732522 0 308.42957292 0 2868.75078191 0 -517.80944970 0 -56.35160066 0 25020
0.15250000 0.15250500 10248.59921376 0 391.84514640 0 2955.79032731 0 -227.63371148 0 314.35437393 0 25297
0.15350000 0.15350100 10088.26087806 0 181.70460090 0 3291.34820327 0 56.62054743 0 475.36479974 0 25452
0.15450000 0.15450400 9895.74636644 0 94.46542149 0 3220.96143439 0 -56.55643866 0 470.20177468 0 26061
0.15550000 0.15549900 9926.16204272 0 104.57035728 0 3424.96901918 0 369.77135964 0 138.98314282 0 26128
0.15650000 0.15649500 9664.67801980 0 175.59489207 0 3139.29196653 0 114.38597324 0 59.75279739 0 26331
0.15750000 0.15749700 9623.66612867 0 288.81494950 0 3422.03485310 0 -48.38140908 0 522.03686332 0 27345
0.15850000 0.15849900 9398.80935626 0 252.16666158 0 3342.80129670 0 44.27313368 0 120.42924812 0 26980
0.15950000 0.15949700 9310.87295255 0 67.56786570 0 3168.23502361 0 326.99232547 0 506.86777832 0 27777
0.16050000 0.16050000 9109.56701502 0 70.51819737 0 3133.51221298 0 183.46067162 0 384.11998538 0 28224
0.16150000 0.16150500 9184.94740238 0 90.90810497 0 3047.61311703 0 323.72488242 0 517.06871117 0 28075
0.16250000 0.16249700 9152.06259767 0 -13.12380516 0 2900.69443901 0 356.69383680 0 512.58663408 0 28590
0.16350000 0.16349900 8933.08522973 0 130.22493389 0 2584.25846802 0 289.59444117 0 667.54160546 0 29163
0.16450000 0.16449100 8944.17969920 0 58.44427005 0 2564.39471730 0 211.50244145 0 413.23577072 0 28996
0.16550000 0.16550500 8883.27084038 0 27.19872302 0 2292.95667437 0 63.89118952 0 257.00083860 0 30777
0.16650000 0.16650700 8819.50532175 0 160.68047054 0 2351.73964683 0 -282.86800384 0 -56.01256607 0 29211
0.16750000 0.16749900 8622.34043370 0 263.33531563 0 2480.25612100 0 -380.63331029 0 -14.05520912 0 30922
0.16850000 0.16850800 8510.77568883 0 234.15531080 0 2654.71167084 0 -369.64845684 0 -128.06583055 0 30867
0.16950000 0.16949900 8426.12776559 0 132.42279037 0 2819.50108112 0 -60.76713307 0 20.75750878 0 30852
0.17050000 0.17049200 8373.47886108 0 38.47533224 0 2842.26578095 0 374.03088300 0 37.77511841 0 31257
0.17150000 0.17149500 8363.30339457 0 -82.85309939 0 2856.31656114 0 300.41653144 0 105.72099328 0 32608
0.17250000 0.17250900 8471.46893572 0 77.34605719 0 2740.99829816 0 306.51738242 0 -48.91587020 0 32361
0.17350000 0.17350400 8247.91869763 0 168.25504794 0 2540.85495473 0 86.94797727 0 282.10512066 0 32508
0.17450000 0.17449800 8123.74257479 0 263.23677194 0 2608.69508890 0 79.22193046 0 532.62422031 0 32791
0.17550000 0.17549800 8010.76057234 0 124.06761406 0 2563.18783389 0 86.03495337 0 450.37899156 0 33633
0.17650000 0.17650100 7900.75702527 0 61.19275324 0 2528.65325278 0 -64.58221331 0 48.62134636 0 33984
0.17750000 0.17750300 7740.17509842 0 182.23275080 0 2624.22956062 0 -79.94008145 0 182.33793788 0 34069
0.17850000 0.17849800 7691.04719320 0 8.71065330 0 2289.90071272 0 76.50489267 0 12.62743284 0 34536
