### header ###
fiducial parameters:
Omega_m = 0.31
Omega_nu = 0
Omega_de = 0.69
Omega_k = 0
H_0 = 100
w_de = -1
zeff = 0
beta = 0
fgrowth = 0
b_1 = 2
gamma = 0.55
Lx = 3500 Ly = 3500 Lz = 3500
nx = 700 ny = 700 nz = 700
xoffset = -685.467585 yoffset = -31.7331281 zoffset = 572.489161
bins = 400 dk = 0.001
kx_ny = 0.628318531 ky_ny = 0.628318531 kz_ny = 0.628318531
############################
A(data) = 8.05794073 (not used)
A(ran) = 8.05646718 (used)
Ngal = 479044
weighted Ngal = 0
Nran = 23820508
weighted Nran = 0
SN(data) = 3484.26964
SN(ran) = 70.174751
SN(data+ran) = 3554.44439
############################
13 columns: k_central k_mean P_0(k) sigma^{lin}_{P_0(k)} P^img_1(k) sigma^{lin}_{P_1(k)} P_2(k) sigma^{lin}_{P_2(k)} P^img_3(k) sigma^{lin}_{P_3(k)} P_4(k) sigma^{lin}_{P_4(k)} N_modes
### header ###
0.00050000 0 0 0 0 0 0 0 0 0 0 0 0
0.00150000 0.00179520 30915.81318888 0 -30227.77892465 0 116.59600927 0 58336.31487901 0 -78692.78405809 0 3
0.00250000 0.00253879 55783.36894557 0 -31145.56392887 0 6192.78448804 0 -20690.52121886 0 74510.43480434 0 6
0.00350000 0.00331552 54740.46667091 0 -526.62744919 0 1874.01312021 0 -42950.87665051 0 19410.11757683 0 7
0.00450000 0.00420575 51547.76180945 0 18555.11265434 0 6758.51385233 0 -30021.16934353 0 27612.49580248 0 24
0.00550000 0.00557378 31828.50492368 0 7494.01517306 0 13443.79534830 0 978.69607751 0 17298.73595716 0 45
0.00650000 0.00659388 37672.47796296 0 -17600.23536198 0 -3241.67775413 0 21547.07626683 0 -6402.05142712 0 40
0.00750000 0.00754703 49990.55004695 0 -25049.36333022 0 11361.42321966 0 3797.30915818 0 -28568.03743433 0 57
0.00850000 0.00846663 61088.00904294 0 -7000.06769057 0 16011.68892024 0 -21198.40875829 0 -18222.05712379 0 75
0.00950000 0.00948925 66457.20079400 0 683.42153371 0 20405.29813153 0 -14971.66545003 0 -6080.20108929 0 112
0.01050000 0.01054430 68401.27958565 0 15106.85853606 0 25030.31893153 0 -28571.02696203 0 3878.62431165 0 105
0.01150000 0.01145670 60427.32342101 0 6843.58252391 0 25699.97313656 0 6076.14861840 0 -3133.99939527 0 144
0.01250000 0.01249090 62276.40166572 0 -3925.58204120 0 32357.87277326 0 5895.22683087 0 -9132.04383440 0 169
0.01350000 0.01339930 71004.16170402 0 -3070.47746778 0 21280.34396195 0 19014.72485756 0 -12039.27094506 0 180
0.01450000 0.01448870 70050.94526039 0 -6801.37482170 0 25713.81354258 0 -1308.00694780 0 4011.09360578 0 267
0.01550000 0.01550050 81790.26692611 0 1460.87146425 0 33337.99496621 0 12120.09891623 0 2175.52359734 0 238
0.01650000 0.01653350 74589.71265004 0 4646.53432712 0 25047.25958850 0 -789.91515382 0 14623.10866474 0 315
0.01750000 0.01747870 80084.13239480 0 6406.52464634 0 40961.73349684 0 -3120.93405198 0 34210.71560841 0 297
0.01850000 0.01844180 78816.01903332 0 -2894.23927365 0 45616.64957384 0 5765.65848584 0 14275.65911193 0 388
0.01950000 0.01947590 81520.87726327 0 -2326.86013296 0 47908.73153455 0 16040.58768802 0 26435.61839751 0 399
0.02050000 0.02045430 86737.93527132 0 -627.93036342 0 49320.67439543 0 12068.72332908 0 26407.05179948 0 462
0.02150000 0.02154770 86561.11024396 0 -1706.31168850 0 38888.10850480 0 21186.33992424 0 5388.88941691 0 571
0.02250000 0.02255340 88008.37382101 0 -3199.83543864 0 39673.80067393 0 8486.92590117 0 -1317.08625415 0 510
0.02350000 0.02348930 84747.46343867 0 13904.62550726 0 43876.96589834 0 -2430.97320323 0 -7420.77174438 0 555
0.02450000 0.02439640 74038.75376707 0 13979.47442303 0 34151.14650089 0 -6801.70699144 0 4579.65748521 0 592
0.02550000 0.02547300 66333.19075603 0 2377.93676735 0 35469.52821704 0 4615.45431135 0 5419.95836035 0 837
0.02650000 0.02652900 63751.23533157 0 -1027.74204753 0 32568.68983781 0 15112.06252873 0 10175.87618435 0 723
0.02750000 0.02749970 68140.63705942 0 421.68284732 0 38779.37827508 0 11967.63300348 0 -5298.36208919 0 826
0.02850000 0.02848090 64563.05818727 0 1079.24053749 0 30784.38469328 0 5854.50282018 0 19786.68734391 0 831
0.02950000 0.02946900 62415.69151194 0 2013.86765499 0 31215.31957522 0 2055.28922214 0 17218.57232548 0 996
0.03050000 0.03053250 62797.68671819 0 3500.18332167 0 32475.79303258 0 8333.03165851 0 24569.37804933 0 1041
0.03150000 0.03150510 60026.06236958 0 3099.36516324 0 37189.39243112 0 3705.10990941 0 26625.50876815 0 1036
0.03250000 0.03246190 58438.29099059 0 4145.55591837 0 28182.16691440 0 7549.11106135 0 10965.68725832 0 1059
0.03350000 0.03345080 57016.93665362 0 118.87912265 0 30309.04978882 0 362.39054792 0 15876.05294122 0 1302
0.03450000 0.03451200 53075.29974143 0 1575.52538774 0 26904.30990708 0 6900.07352513 0 2644.11545599 0 1339
0.03550000 0.03553350 54758.07166737 0 753.67211299 0 24630.94017532 0 4503.46881814 0 6780.22668130 0 1365
0.03650000 0.03647120 51288.22651570 0 1864.96703083 0 21097.31843270 0 7437.19200209 0 -1433.51174962 0 1308
0.03750000 0.03744890 50498.10541664 0 2127.96796225 0 20296.45717856 0 4708.24039333 0 3982.68202029 0 1579
0.03850000 0.03847530 47698.13591650 0 901.93275677 0 18470.74153922 0 4249.08215543 0 1757.42153987 0 1662
0.03950000 0.03950240 45764.68655667 0 1985.93217947 0 17403.92304294 0 2008.25398631 0 2279.18270229 0 1683
0.04050000 0.04050350 46081.35504648 0 1302.07218170 0 19352.20931803 0 4325.19331623 0 3114.64497149 0 1822
0.04150000 0.04152450 44692.66406773 0 328.47048084 0 14955.05696280 0 -1161.30971628 0 3702.06502009 0 1887
0.04250000 0.04250150 44087.00790015 0 905.64087836 0 14701.39000121 0 3990.86446833 0 5805.04274522 0 1920
0.04350000 0.04349210 43565.50140119 0 48.61979623 0 12737.04885513 0 -1457.08472916 0 1253.67504992 0 2005
0.04450000 0.04448520 43016.20336694 0 2287.57552451 0 13147.72138265 0 -333.40763047 0 1468.07954770 0 2151
0.04550000 0.04548030 41985.81281931 0 3198.79464011 0 14426.02128297 0 -4386.30147691 0 -2094.86171104 0 2274
0.04650000 0.04648670 40014.82827835 0 2179.60928520 0 14409.30207249 0 -1394.59252788 0 -2151.60737573 0 2311
0.04750000 0.04749250 38211.92162813 0 222.57255181 0 16489.01684318 0 -1134.51469022 0 1208.51103698 0 2568
0.04850000 0.04851840 40250.11518074 0 -311.05482113 0 16792.28781996 0 1545.63011073 0 -4953.59203899 0 2493
0.04950000 0.04949480 39354.14265642 0 -1193.25337338 0 15371.37637598 0 2836.65211226 0 -359.96349432 0 2644
0.05050000 0.05050630 40844.47757701 0 309.44822680 0 14440.74747497 0 3430.05121627 0 -3736.35601005 0 2829
0.05150000 0.05149060 39727.05855631 0 692.20742345 0 13404.48859520 0 1810.87872409 0 -1296.35886209 0 2784
0.05250000 0.05249300 38927.63670440 0 519.69949555 0 13041.86995739 0 3264.48674326 0 -1458.39126349 0 3055
0.05350000 0.05348950 37960.69057799 0 349.93307527 0 9832.46803010 0 2159.41336473 0 -562.69997621 0 3009
0.05450000 0.05448610 36857.88702605 0 1075.85462056 0 10420.85137097 0 1432.94706105 0 -1078.75335520 0 3336
0.05550000 0.05550870 37068.26119761 0 768.92313319 0 9151.64184933 0 131.21701419 0 -258.99717876 0 3349
0.05650000 0.05647670 34848.48151797 0 321.03541472 0 9193.34022460 0 537.89686139 0 -3691.32486501 0 3324
0.05750000 0.05747970 35512.59956059 0 1088.47153469 0 9279.31682681 0 -2427.47434859 0 -5227.53242733 0 3639
0.05850000 0.05849280 34864.20421921 0 656.59993407 0 11288.34587586 0 -3835.80763157 0 -6373.34088886 0 3846
0.05950000 0.05951020 34118.70458917 0 1282.15306935 0 11579.32657209 0 -2287.07726989 0 -4990.16392787 0 3787
0.06050000 0.06049470 34377.57554343 0 792.73638218 0 14060.41311745 0 -1113.68764723 0 -4632.61641482 0 3930
0.06150000 0.06148310 33495.22197863 0 457.73655140 0 13585.63182923 0 248.39099882 0 -7330.82017755 0 4083
0.06250000 0.06249100 33419.70872337 0 985.50998620 0 15855.79058680 0 384.89947704 0 -4049.96853822 0 4303
0.06350000 0.06350600 33029.40927351 0 1171.54054441 0 14265.80474284 0 1066.00910933 0 -3219.83205726 0 4470
0.06450000 0.06451750 32442.24388838 0 -8.18660016 0 15422.08762365 0 3392.15064841 0 -1619.46037262 0 4479
0.06550000 0.06550280 32174.95796726 0 429.38918540 0 14659.97950638 0 1094.69196678 0 -1467.54807611 0 4636
0.06650000 0.06648880 32167.76095612 0 1137.72566442 0 13404.82076494 0 -334.74516731 0 -414.65081383 0 4653
0.06750000 0.06749660 30883.48200041 0 246.94938213 0 12980.86144764 0 -370.53535006 0 -1116.63288564 0 5220
0.06850000 0.06852730 30564.04542939 0 -27.81976972 0 13214.93039430 0 -495.97039623 0 -2325.09963332 0 5029
0.06950000 0.06949320 30437.04586372 0 -33.56187737 0 12931.25743245 0 1223.22615666 0 -3498.93214897 0 5040
0.07050000 0.07048030 30009.10050948 0 383.88193039 0 12420.15891882 0 1904.12984371 0 -5766.54427182 0 5475
0.07150000 0.07148790 29694.31431489 0 320.14630704 0 11687.94607856 0 2003.61468221 0 -6462.91599664 0 5509
0.07250000 0.07249820 29346.42186908 0 227.10888329 0 8572.23816390 0 1638.25010784 0 -6746.58895850 0 5916
0.07350000 0.07351270 28979.48502459 0 163.33450679 0 7840.86682032 0 1094.61888943 0 -5189.23325578 0 5721
0.07450000 0.07449140 28323.89267208 0 917.79829101 0 7797.64046423 0 541.26838429 0 -3824.79066838 0 6028
0.07550000 0.07549160 27902.47998949 0 1001.67447321 0 8109.47034810 0 1198.50165534 0 -3340.04428782 0 6183
0.07650000 0.07648840 27346.09566735 0 241.78635706 0 7077.46324105 0 737.16549115 0 -1706.54420732 0 6330
0.07750000 0.07749960 27248.99137869 0 571.14594559 0 6766.24233505 0 659.83748185 0 -1978.87910856 0 6583
0.07850000 0.07848650 26257.68613768 0 1046.13317905 0 8693.24760184 0 -1459.39884505 0 -459.28778410 0 6549
0.07950000 0.07947320 26463.18848631 0 1028.22922982 0 9361.82779136 0 -485.31549806 0 -1034.67110840 0 6828
0.08050000 0.08048110 25116.35089537 0 853.65963503 0 10364.88076901 0 -1217.08101639 0 1120.69642884 0 7147
0.08150000 0.08149960 24697.92774047 0 355.69400587 0 10889.81968866 0 432.06093738 0 -300.96682599 0 7386
0.08250000 0.08250610 24314.49313200 0 321.21146469 0 11091.70138708 0 -160.20546780 0 -361.09951485 0 7227
0.08350000 0.08350160 23995.38873073 0 739.02564172 0 10342.32644335 0 945.58318291 0 -1155.48567342 0 7798
0.08450000 0.08449610 23289.19585380 0 515.36689485 0 9818.35081596 0 2135.54143242 0 61.82066478 0 7371
0.08550000 0.08548940 22294.67963859 0 623.15044079 0 8132.06896305 0 1430.55543889 0 1035.18375704 0 8256
0.08650000 0.08650700 22065.70396134 0 654.81618254 0 7170.33790163 0 1652.07944154 0 720.58911366 0 8037
0.08750000 0.08749060 21563.46330756 0 338.01814653 0 7741.40412648 0 1844.31714504 0 1079.18296140 0 8155
0.08850000 0.08849210 20425.00686971 0 505.46270030 0 6679.35780220 0 992.89522686 0 1672.33072363 0 8718
0.08950000 0.08949900 20539.49470833 0 357.00829083 0 7045.69674115 0 214.05350509 0 2201.17817395 0 8571
0.09050000 0.09049190 20105.12740570 0 386.76516378 0 6896.86255094 0 -167.83983576 0 1267.37151572 0 8932
0.09150000 0.09150830 20233.67709684 0 65.82951070 0 7277.90553725 0 -746.53489241 0 2193.68221004 0 9285
0.09250000 0.09250820 19796.87388275 0 251.33623722 0 6865.57216100 0 -453.61321764 0 911.08846217 0 9204
0.09350000 0.09350330 19623.92416908 0 503.32684884 0 6401.24314740 0 530.46843867 0 197.74397063 0 9349
0.09450000 0.09448040 19275.58883029 0 116.94257304 0 5880.86602558 0 116.04350026 0 -832.53363928 0 9564
0.09550000 0.09549270 18832.03149805 0 601.12094333 0 5926.28470198 0 -109.83580135 0 -1861.42388689 0 10155
0.09650000 0.09649430 18520.56700090 0 773.88464194 0 5790.96982037 0 -613.18867015 0 -840.50903484 0 9913
0.09750000 0.09749140 18106.68349918 0 260.92929944 0 6221.80505139 0 447.46807736 0 -1084.69587193 0 10476
0.09850000 0.09850240 17984.00214019 0 -262.71305097 0 5901.29446487 0 628.85822424 0 -1779.80978065 0 10575
0.09950000 0.09950330 17903.83850850 0 -4.40912154 0 6292.28039886 0 521.36255874 0 -1235.60501581 0 10882
0.10050000 0.10051200 18184.85411240 0 85.60833669 0 5775.81180770 0 504.41082944 0 -1715.70101995 0 10875
0.10150000 0.10150300 17822.23547459 0 285.31498762 0 5808.33122569 0 -434.18350204 0 -803.23626781 0 11118
0.10250000 0.10250800 17703.65087578 0 352.47860274 0 5400.68144284 0 -374.22907762 0 -1508.62640119 0 11575
0.10350000 0.10349800 17543.21288916 0 474.31957228 0 6702.94185406 0 -180.86199698 0 -918.72615183 0 11364
0.10450000 0.10450100 17207.61072391 0 400.17042743 0 6252.70790996 0 -406.20927339 0 -1123.55308865 0 12093
0.10550000 0.10551000 17007.97670743 0 290.22888538 0 6615.47048800 0 376.14569704 0 -962.25035346 0 12067
0.10650000 0.10649700 16651.78001801 0 243.74726579 0 6517.71293217 0 534.87854564 0 -924.67199025 0 12054
0.10750000 0.10749900 16648.01542757 0 342.09386929 0 7235.85284758 0 -18.28683022 0 320.01122468 0 12807
0.10850000 0.10850100 16195.82168198 0 410.79432310 0 6703.01936034 0 586.73688616 0 726.67335615 0 12736
0.10950000 0.10950300 16166.81219095 0 82.46036402 0 6846.58312393 0 675.04089106 0 851.74855177 0 12933
0.11050000 0.11050200 16009.36373203 0 -44.50742407 0 6263.00517204 0 580.58288803 0 887.11134277 0 13428
0.11150000 0.11150900 16342.08709283 0 -54.68012250 0 6748.57090464 0 422.60517198 0 743.07036197 0 13453
0.11250000 0.11250000 15865.53423264 0 373.19492248 0 6160.75225234 0 -259.75120408 0 1055.71627618 0 13668
0.11350000 0.11349100 15910.59859465 0 510.24594462 0 6120.48220698 0 337.59407649 0 610.64646438 0 13791
0.11450000 0.11448600 15269.28954115 0 270.46810728 0 5881.87360714 0 331.45779407 0 357.83539349 0 14205
0.11550000 0.11549300 15109.73734052 0 267.93808105 0 5544.62166548 0 334.18269321 0 -290.53558878 0 14776
0.11650000 0.11649800 14762.06634121 0 102.03988817 0 5460.84845591 0 385.41212568 0 -248.71431070 0 14553
0.11750000 0.11747300 14616.90816284 0 61.03430827 0 5073.87070350 0 -117.33453334 0 -797.05680333 0 14568
0.11850000 0.11849100 14490.57293666 0 202.90810293 0 4504.33245947 0 703.74589315 0 -329.56110483 0 16015
0.11950000 0.11950300 14573.72609605 0 13.39850954 0 4545.46614617 0 277.93860483 0 -621.29582639 0 15270
0.12050000 0.12050700 14168.81117743 0 248.16623063 0 3889.02122465 0 611.83120313 0 -457.74208756 0 15999
0.12150000 0.12150000 14108.24556067 0 461.66611948 0 4081.63538720 0 78.79619957 0 -420.18919071 0 15670
0.12250000 0.12250700 13779.06534381 0 198.46367175 0 4007.65011276 0 -246.54192057 0 -157.62783058 0 16887
0.12350000 0.12352200 13575.77746014 0 127.92631926 0 4227.08144601 0 -32.55241352 0 -773.52811309 0 16407
0.12450000 0.12449800 13546.32507612 0 253.92937569 0 4617.29231727 0 -355.63089362 0 -617.47587432 0 16306
0.12550000 0.12549900 13381.34743633 0 41.19945631 0 4345.87641899 0 -389.05824225 0 -983.97536198 0 17523
0.12650000 0.12650100 13072.87246688 0 243.42173944 0 4752.76221143 0 -11.35201174 0 -1119.63348566 0 17154
0.12750000 0.12750600 13334.40077910 0 60.88272814 0 4702.25026561 0 -127.34391497 0 -1589.35472144 0 18007
0.12850000 0.12850300 13032.01558830 0 55.22465944 0 4713.36687972 0 92.99457386 0 -869.98245628 0 17496
0.12950000 0.12949900 13107.63956681 0 29.06452048 0 4606.06497991 0 377.09238081 0 -1169.03819900 0 18405
0.13050000 0.13049000 13029.69040009 0 113.03957854 0 4361.35552909 0 599.38591004 0 -887.98494920 0 18100
0.13150000 0.13148800 12989.83003074 0 214.40892672 0 4567.00181795 0 159.07941237 0 -1309.33562678 0 19059
0.13250000 0.13249300 12783.77406586 0 214.57722606 0 4650.79717217 0 293.32360017 0 -794.65410884 0 18957
0.13350000 0.13349100 12594.43731147 0 164.01434754 0 4544.07103325 0 84.78344849 0 -491.33552106 0 19468
0.13450000 0.13450700 12524.68166511 0 171.80483528 0 4271.73613201 0 580.18760603 0 -296.95421547 0 19953
0.13550000 0.13551000 12395.35691123 0 163.40979860 0 4131.05117286 0 96.26168474 0 -307.93353276 0 19956
0.13650000 0.13649900 12227.94335997 0 47.01065527 0 3833.57102196 0 494.62843046 0 -38.99495644 0 19723
0.13750000 0.13749600 12062.96572017 0 87.78105899 0 3677.97164128 0 671.95835583 0 19.58860345 0 20946
0.13850000 0.13851100 11986.34523243 0 205.50567033 0 3396.78995251 0 517.53928498 0 -358.97252125 0 20955
0.13950000 0.13949800 11768.22043350 0 194.85741555 0 3288.01543350 0 -87.74208441 0 -222.56258671 0 20506
0.14050000 0.14048300 11538.58041676 0 344.46113234 0 3264.67497278 0 -172.42488547 0 92.41006583 0 21447
0.14150000 0.14148400 11299.86109367 0 317.06930797 0 3624.49231241 0 -254.62471769 0 217.27665885 0 21771
0.14250000 0.14249400 11373.49205371 0 3.63318409 0 3586.89069733 0 -113.33299515 0 478.13066648 0 22470
0.14350000 0.14350900 11325.54888725 0 69.04635323 0 4140.73945708 0 -145.61989432 0 379.04332445 0 22519
0.14450000 0.14449900 11419.55292496 0 250.49806223 0 4315.79291246 0 -298.43015637 0 482.07352135 0 22218
0.14550000 0.14550500 11090.59415460 0 298.88965785 0 4134.35072566 0 120.07936266 0 519.07723089 0 23559
0.14650000 0.14650700 10849.30605215 0 128.55633454 0 4038.02149974 0 431.21501176 0 649.21912235 0 23044
0.14750000 0.14750500 10875.07135200 0 -65.96603247 0 3937.94982803 0 609.85257869 0 559.68830386 0 23649
0.14850000 0.14849900 10718.17650932 0 78.83528488 0 3601.81619118 0 602.27025065 0 460.91652309 0 23640
0.14950000 0.14949500 10588.45315175 0 222.75967410 0 3381.45478264 0 203.12622773 0 474.39818578 0 24457
0.15050000 0.15050000 10390.40247772 0 324.42465335 0 3188.12091898 0 111.54370746 0 606.33490109 0 24591
0.15150000 0.15149900 10196.59250409 0 175.02798904 0 3169.79622141 0 -143.42203784 0 837.93250486 0 25020
0.15250000 0.15250500 10131.12184744 0 116.95143090 0 3186.31613004 0 -41.28327381 0 655.55138491 0 25297
0.15350000 0.15350100 9983.56097458 0 141.85862558 0 3412.67873863 0 235.97670823 0 610.51913264 0 25452
0.15450000 0.15450400 9919.03146554 0 188.14758671 0 3222.60013847 0 85.41235654 0 525.32755825 0 26061
0.15550000 0.15549900 9840.94943092 0 -2.27904983 0 3305.79758715 0 258.44688422 0 529.37338574 0 26128
0.15650000 0.15649500 9826.54433633 0 2.35086493 0 2943.28967259 0 78.43258442 0 198.31751706 0 26331
0.15750000 0.15749700 9809.89155980 0 8.11156302 0 2897.61633271 0 -0.62327999 0 -39.76547952 0 27345
0.15850000 0.15849900 9755.24963682 0 139.99515331 0 2826.08911439 0 -284.35833876 0 -317.46458997 0 26980
0.15950000 0.15949700 9554.64125575 0 281.35663150 0 2683.17861795 0 -2.33693595 0 -422.65167574 0 27777
0.16050000 0.16050000 9351.67446950 0 270.14922432 0 2805.56102417 0 -151.68974278 0 -432.08529649 0 28224
0.16150000 0.16150500 9125.33400556 0 253.18310100 0 2745.93655502 0 466.13269531 0 -345.77763176 0 28075
0.16250000 0.16249700 9057.13955700 0 -32.93983417 0 2462.55147362 0 448.37490076 0 -61.31056277 0 28590
0.16350000 0.16349900 9110.92891097 0 -154.68591388 0 2199.61697615 0 600.76441448 0 -511.61337673 0 29163
0.16450000 0.16449100 9164.60754169 0 -37.59851483 0 2093.45552579 0 159.36175665 0 -54.39124555 0 28996
0.16550000 0.16550500 9142.69541088 0 245.86429430 0 2204.25628025 0 -59.44177579 0 -127.50446368 0 30777
0.16650000 0.16650700 9018.80716848 0 243.25786903 0 2105.35827497 0 -183.24143959 0 316.98737277 0 29211
0.16750000 0.16749900 8721.21629433 0 289.83803231 0 2381.65706849 0 38.27237652 0 354.84697302 0 30922
0.16850000 0.16850800 8542.63076733 0 309.98080562 0 2305.77842651 0 -86.44451866 0 213.71579918 0 30867
0.16950000 0.16949900 8346.79455826 0 154.32606332 0 2414.87404295 0 291.97499100 0 250.79922947 0 30852
0.17050000 0.17049200 8246.59001865 0 81.28614398 0 2395.09887082 0 199.41256998 0 342.88443329 0 31257
0.17150000 0.17149500 8228.24317643 0 -10.02787242 0 2281.84006025 0 251.47907021 0 204.82804405 0 32608
0.17250000 0.17250900 8100.29139083 0 9.04620010 0 1986.40828944 0 208.54280903 0 404.11438953 0 32361
0.17350000 0.17350400 8310.14516311 0 -68.36972346 0 2136.52686933 0 32.77862112 0 161.01485475 0 32508
0.17450000 0.17449800 8240.35629978 0 -31.88862765 0 2035.64691791 0 -76.54176352 0 425.16509348 0 32791
0.17550000 0.17549800 8379.70150762 0 118.20260360 0 2326.67190344 0 -185.98737614 0 243.65979442 0 33633
0.17650000 0.17650100 8224.52287529 0 170.53262516 0 2270.45771034 0 -354.51037435 0 364.74120248 0 33984
0.17750000 0.17750300 8135.32422655 0 196.59687778 0 2490.23228566 0 -64.18936722 0 497.14295543 0 34069
