### header ###
fiducial parameters:
Omega_m = 0.31
Omega_nu = 0
Omega_de = 0.69
Omega_k = 0
H_0 = 100
w_de = -1
zeff = 0
beta = 0
fgrowth = 0
b_1 = 2
gamma = 0.55
Lx = 3500 Ly = 3500 Lz = 3500
nx = 700 ny = 700 nz = 700
xoffset = -685.467585 yoffset = -31.7331281 zoffset = 572.489161
bins = 400 dk = 0.001
kx_ny = 0.628318531 ky_ny = 0.628318531 kz_ny = 0.628318531
############################
A(data) = 8.0600412 (not used)
A(ran) = 8.05635918 (used)
Ngal = 478884
weighted Ngal = 0
Nran = 23820508
weighted Nran = 0
SN(data) = 3488.29277
SN(ran) = 70.1738102
SN(data+ran) = 3558.46658
############################
13 columns: k_central k_mean P_0(k) sigma^{lin}_{P_0(k)} P^img_1(k) sigma^{lin}_{P_1(k)} P_2(k) sigma^{lin}_{P_2(k)} P^img_3(k) sigma^{lin}_{P_3(k)} P_4(k) sigma^{lin}_{P_4(k)} N_modes
### header ###
0.00050000 0 0 0 0 0 0 0 0 0 0 0 0
0.00150000 0.00179520 5832.75677424 0 -10770.09464040 0 13679.96803669 0 -2223.44461916 0 -9385.12396278 0 3
0.00250000 0.00253879 22620.20598825 0 -23999.70693741 0 -3276.66630056 0 9109.93240174 0 -30726.03354149 0 6
0.00350000 0.00331552 43628.61365266 0 -36107.18340335 0 -14115.11040206 0 -1508.59318422 0 10714.67765468 0 7
0.00450000 0.00420575 69177.11738570 0 -28489.09175838 0 -10103.59604794 0 -16114.88298755 0 -22372.51808206 0 24
0.00550000 0.00557378 94615.00859380 0 -5143.63742218 0 10546.66619788 0 -24204.76639305 0 17781.37859601 0 45
0.00650000 0.00659388 64667.58093356 0 25059.32842255 0 11745.07927463 0 -16537.62434913 0 -860.82785812 0 40
0.00750000 0.00754703 89962.08553526 0 6991.23197537 0 28623.17761193 0 -9872.19553155 0 13001.56669505 0 57
0.00850000 0.00846663 62469.61373381 0 15513.98791965 0 22040.90195374 0 17645.96406348 0 694.47282111 0 75
0.00950000 0.00948925 60245.07295450 0 13720.93563851 0 2427.28611907 0 20217.51150261 0 -9639.90922918 0 112
0.01050000 0.01054430 56433.20368918 0 -8289.84959172 0 11241.50994188 0 16788.52322952 0 -10003.57973785 0 105
0.01150000 0.01145670 55888.00241511 0 -8357.43506241 0 -4893.51360452 0 6998.21861233 0 -40341.57258375 0 144
0.01250000 0.01249090 65756.32263298 0 -4696.92447737 0 -7401.73841802 0 -13785.37656896 0 -31548.59655227 0 169
0.01350000 0.01339930 71402.65467425 0 -3847.52215123 0 -4231.79825639 0 -22578.35260044 0 -37261.14109595 0 180
0.01450000 0.01448870 71505.40584856 0 -1656.36443125 0 1364.23221323 0 -26760.81257743 0 -21077.72041777 0 267
0.01550000 0.01550050 85683.18560909 0 -2600.43513458 0 30999.51996451 0 -6057.31459389 0 -34622.38464517 0 238
0.01650000 0.01653350 79159.70399569 0 -4309.71420614 0 19908.26147042 0 -3791.19723488 0 -24307.29612087 0 315
0.01750000 0.01747870 96484.68136268 0 -715.21239273 0 33525.56014863 0 14614.36152813 0 -31014.35687977 0 297
0.01850000 0.01844180 85100.00626090 0 1753.23620108 0 28043.65213092 0 4533.14264865 0 -17634.00595267 0 388
0.01950000 0.01947590 90875.10943981 0 -2021.00930450 0 25220.43074866 0 11934.19458253 0 105.97908917 0 399
0.02050000 0.02045430 87492.07131472 0 3994.59584180 0 17997.06748348 0 10163.63019310 0 -18363.56143497 0 462
0.02150000 0.02154770 83391.10364839 0 6285.27161725 0 11663.69768721 0 4708.94902212 0 -12832.04940207 0 571
0.02250000 0.02255340 71408.30155990 0 7827.49145194 0 12493.12553938 0 -6799.31536928 0 -17426.06769258 0 510
0.02350000 0.02348930 64313.04509287 0 8316.61140081 0 10041.52459500 0 -5354.33269115 0 -11432.95043799 0 555
0.02450000 0.02439640 61995.49678508 0 3591.71823095 0 12518.59188646 0 2032.25878651 0 -15239.06209440 0 592
0.02550000 0.02547300 60356.57126542 0 1261.59176216 0 11434.94345646 0 1696.93342938 0 -5465.14451794 0 837
0.02650000 0.02652900 64081.19061116 0 -1247.80671776 0 12601.74504585 0 2706.93982701 0 -1781.37097845 0 723
0.02750000 0.02749970 64668.46671954 0 -1457.71585167 0 12036.05997086 0 1191.90254975 0 1108.91547524 0 826
0.02850000 0.02848090 63561.23423768 0 2950.28738188 0 14958.37866025 0 907.76344302 0 3913.11460346 0 831
0.02950000 0.02946900 63436.33841373 0 1422.57229270 0 16486.24876197 0 4129.16887764 0 1716.40964874 0 996
0.03050000 0.03053250 59455.61619493 0 4087.99090164 0 18337.54147165 0 2968.15811413 0 -1460.36213731 0 1041
0.03150000 0.03150510 56311.51883942 0 5452.77673111 0 21629.23291698 0 -2623.78666762 0 640.60706810 0 1036
0.03250000 0.03246190 51490.18572039 0 4860.50700424 0 19453.07819713 0 1679.49451779 0 4957.41199105 0 1059
0.03350000 0.03345080 48581.15382079 0 2389.38555121 0 19732.87584530 0 348.78930411 0 4812.35346360 0 1302
0.03450000 0.03451200 49765.00679040 0 -1501.89442770 0 18907.21258357 0 4234.89850734 0 212.28193312 0 1339
0.03550000 0.03553350 46482.94826766 0 1538.16736381 0 18464.43031407 0 2039.56652089 0 0.27815341 0 1365
0.03650000 0.03647120 49358.32029981 0 1836.40043280 0 22144.53891404 0 -330.26751916 0 -7857.63032010 0 1308
0.03750000 0.03744890 43678.66056084 0 2021.78436724 0 20292.58186488 0 -252.80221303 0 -1637.61898533 0 1579
0.03850000 0.03847530 44373.33821996 0 2163.72049909 0 20514.02836125 0 -938.82242137 0 -5469.82811133 0 1662
0.03950000 0.03950240 42254.64886591 0 1390.65078025 0 21735.30578875 0 -1433.20172453 0 -743.28848677 0 1683
0.04050000 0.04050350 42710.16430895 0 1227.87653309 0 20609.13963144 0 3805.94557154 0 -657.27756035 0 1822
0.04150000 0.04152450 42720.57229428 0 -86.51128478 0 22557.97952277 0 6629.33303867 0 7650.15709765 0 1887
0.04250000 0.04250150 43045.98792070 0 -1109.09263243 0 18255.93843774 0 6332.41757633 0 7266.20208991 0 1920
0.04350000 0.04349210 44315.42996116 0 -1664.94548298 0 20763.59856266 0 3517.04647237 0 5360.11244471 0 2005
0.04450000 0.04448520 46091.43086207 0 -451.80953592 0 20902.11334614 0 2431.71504900 0 7351.51435264 0 2151
0.04550000 0.04548030 44200.60995279 0 962.48176505 0 19728.88980836 0 -2098.08375756 0 10492.58896347 0 2274
0.04650000 0.04648670 46357.38810421 0 708.75058397 0 18760.39355647 0 2219.93469219 0 10638.51113225 0 2311
0.04750000 0.04749250 45339.50928363 0 379.91250194 0 20413.38092865 0 1593.73936207 0 8269.33257383 0 2568
0.04850000 0.04851840 43728.37529927 0 1787.44968477 0 16461.88964737 0 2640.59445670 0 3253.29262286 0 2493
0.04950000 0.04949480 42899.05817036 0 1367.68677857 0 18649.33813854 0 -1064.08141758 0 1874.17920508 0 2644
0.05050000 0.05050630 40354.19503404 0 601.89268437 0 14639.93859846 0 488.54750967 0 1047.90364379 0 2829
0.05150000 0.05149060 39543.59013407 0 1497.32155755 0 15303.39230160 0 831.64563883 0 -1776.85346992 0 2784
0.05250000 0.05249300 38008.19085146 0 2478.07487301 0 14059.74877797 0 2214.49818070 0 -541.04804503 0 3055
0.05350000 0.05348950 36710.51438272 0 492.98972639 0 13637.11813964 0 3634.42418777 0 497.12302524 0 3009
0.05450000 0.05448610 36169.63131533 0 -1085.75992234 0 10533.68943319 0 1407.53607560 0 -2684.15298254 0 3336
0.05550000 0.05550870 36163.65225993 0 1398.12459950 0 12191.18324157 0 1006.26948801 0 -4239.28314796 0 3349
0.05650000 0.05647670 35799.37277339 0 1462.85341039 0 12955.28437731 0 -2054.65809962 0 -2654.36842877 0 3324
0.05750000 0.05747970 33821.19122129 0 2384.04869065 0 12865.04493003 0 -3865.03856909 0 -1324.28326528 0 3639
0.05850000 0.05849280 33592.54771379 0 883.67338592 0 15780.60950128 0 -246.79104788 0 -2873.93262993 0 3846
0.05950000 0.05951020 32659.15073158 0 154.02711055 0 16198.25759344 0 -1366.77884794 0 -4052.80305337 0 3787
0.06050000 0.06049470 32317.12661793 0 -130.63460991 0 16080.55878062 0 808.93519339 0 -2460.48094887 0 3930
0.06150000 0.06148310 32211.27519266 0 307.11639519 0 15876.27438771 0 4832.56045640 0 -1003.26778075 0 4083
0.06250000 0.06249100 32110.84920656 0 -144.94669697 0 14031.07145668 0 6496.05546483 0 -469.66033799 0 4303
0.06350000 0.06350600 32319.00891315 0 -67.06363202 0 11791.58303887 0 4268.38121759 0 -128.51758140 0 4470
0.06450000 0.06451750 32586.40555752 0 -409.35824257 0 9943.95526870 0 1551.04447757 0 1585.57905868 0 4479
0.06550000 0.06550280 32382.01044136 0 830.31585262 0 12218.53188387 0 -236.58900779 0 3823.52842335 0 4636
0.06650000 0.06648880 32393.52565918 0 692.88837143 0 12428.79533218 0 -3189.27244076 0 5792.87426024 0 4653
0.06750000 0.06749660 31119.87613529 0 1319.04605565 0 13218.25209175 0 -368.99408244 0 4375.18486279 0 5220
0.06850000 0.06852730 30859.23360906 0 1212.07632557 0 15315.01824266 0 -1222.03034558 0 6093.35501117 0 5029
0.06950000 0.06949320 29987.39875284 0 663.60982291 0 14855.73820918 0 2058.66628121 0 5507.62902827 0 5040
0.07050000 0.07048030 29339.99992069 0 1118.88056757 0 14656.76853219 0 3460.37831395 0 5247.78370942 0 5475
0.07150000 0.07148790 28430.18699034 0 225.93632409 0 12848.43644281 0 2462.61790756 0 5350.61239001 0 5509
0.07250000 0.07249820 27482.28526262 0 108.62548553 0 9860.65816909 0 2662.89411888 0 3330.31171430 0 5916
0.07350000 0.07351270 27342.66324665 0 411.06559505 0 10184.35758517 0 973.39464839 0 2685.75846963 0 5721
0.07450000 0.07449140 26778.08540415 0 -18.72263693 0 8595.64505856 0 1335.41095173 0 1575.00498848 0 6028
0.07550000 0.07549160 26572.25088577 0 269.88348852 0 6645.39898198 0 -858.93891950 0 -246.70800545 0 6183
0.07650000 0.07648840 25683.80754232 0 1092.51957665 0 6363.30936258 0 -870.44970839 0 -345.32920261 0 6330
0.07750000 0.07749960 25492.58849271 0 580.33154625 0 6286.17954789 0 -200.89293981 0 -473.08611529 0 6583
0.07850000 0.07848650 24486.77850618 0 593.56518888 0 7505.32001670 0 269.56128387 0 -1391.48120461 0 6549
0.07950000 0.07947320 24567.71720061 0 840.78695020 0 6090.05545838 0 1368.94902360 0 -1135.93194779 0 6828
0.08050000 0.08048110 23717.91627077 0 -236.99204042 0 6091.72737942 0 853.14366469 0 -630.52128743 0 7147
0.08150000 0.08149960 23987.19521036 0 -695.90668718 0 5056.56465980 0 1942.22971341 0 -1429.69179756 0 7386
0.08250000 0.08250610 23924.19368215 0 620.29488822 0 5390.16273426 0 806.68972592 0 -246.73347179 0 7227
0.08350000 0.08350160 23348.21134508 0 1000.31147002 0 4827.96544160 0 34.81183212 0 171.45494982 0 7798
0.08450000 0.08449610 22156.49702485 0 1087.86255683 0 4324.85007416 0 427.34855593 0 1704.90550325 0 7371
0.08550000 0.08548940 21770.51578167 0 621.64903355 0 5028.14200199 0 -22.76580706 0 1165.07430672 0 8256
0.08650000 0.08650700 21054.35781240 0 394.06404030 0 4883.07240222 0 585.49235685 0 1683.75736285 0 8037
0.08750000 0.08749060 20788.28984701 0 233.43450245 0 4848.84784621 0 597.94872227 0 761.00088479 0 8155
0.08850000 0.08849210 20772.45642252 0 251.09153884 0 4416.13031997 0 -260.80418217 0 1019.31268664 0 8718
0.08950000 0.08949900 20553.66728410 0 491.57579051 0 5089.22801802 0 -673.83843658 0 343.49008945 0 8571
0.09050000 0.09049190 20414.82033088 0 530.97112221 0 5627.60874000 0 -998.74584329 0 700.67664471 0 8932
0.09150000 0.09150830 19704.30924726 0 587.93269724 0 5984.55834750 0 -262.05092595 0 668.60011971 0 9285
0.09250000 0.09250820 19629.68177799 0 472.87352666 0 6116.33008517 0 -149.94363716 0 854.54652825 0 9204
0.09350000 0.09350330 19357.41331069 0 12.05333280 0 6046.92875321 0 553.89747798 0 334.42960605 0 9349
0.09450000 0.09448040 19070.30792815 0 35.49532673 0 6548.69329701 0 476.98578809 0 639.23077813 0 9564
0.09550000 0.09549270 19196.31098458 0 338.74338380 0 6609.14819052 0 933.23421904 0 774.27881671 0 10155
0.09650000 0.09649430 18598.07327463 0 587.88951518 0 5871.26631996 0 276.84465914 0 1430.69937912 0 9913
0.09750000 0.09749140 18177.32493152 0 269.76390742 0 5894.89466112 0 863.55054279 0 1839.00242913 0 10476
0.09850000 0.09850240 17906.93875945 0 382.57871776 0 5602.56314126 0 67.10725698 0 2114.96905291 0 10575
0.09950000 0.09950330 17325.53098323 0 570.37420455 0 5558.40670988 0 295.50374092 0 2060.75895060 0 10882
0.10050000 0.10051200 17407.46618688 0 63.96648133 0 5678.64108509 0 709.65408567 0 3024.12871609 0 10875
0.10150000 0.10150300 16961.80511293 0 340.95231261 0 5565.70337194 0 -30.97859327 0 2241.66966581 0 11118
0.10250000 0.10250800 16740.13717006 0 655.27236232 0 6085.56009450 0 -35.25107125 0 2110.40725508 0 11575
0.10350000 0.10349800 16504.07520493 0 477.20280566 0 5875.40736944 0 -373.65885289 0 2028.68242560 0 11364
0.10450000 0.10450100 16068.93283956 0 89.44511869 0 5806.02818213 0 -145.35526575 0 1226.80251758 0 12093
0.10550000 0.10551000 16247.75088538 0 -290.67952900 0 6088.58283918 0 -243.10174925 0 840.83677566 0 12067
0.10650000 0.10649700 16174.45209508 0 93.25344481 0 5942.15134345 0 152.20571312 0 -523.78296894 0 12054
0.10750000 0.10749900 16201.80073738 0 338.30381251 0 5821.28584573 0 -172.83677595 0 -193.52098595 0 12807
0.10850000 0.10850100 15836.19257187 0 593.49432600 0 5442.31338416 0 166.27310180 0 -790.10559780 0 12736
0.10950000 0.10950300 15369.38335751 0 380.30003331 0 5909.35511734 0 -355.25886350 0 -632.37479460 0 12933
0.11050000 0.11050200 15025.47694865 0 178.36961667 0 5608.58648596 0 277.30083892 0 -263.72506146 0 13428
0.11150000 0.11150900 15105.30841059 0 -50.45769143 0 6312.66454885 0 296.26994580 0 235.69768565 0 13453
0.11250000 0.11250000 14999.89987832 0 28.46849723 0 5688.99370879 0 625.30622244 0 620.55065893 0 13668
0.11350000 0.11349100 15192.22616042 0 100.78406509 0 6158.01738811 0 753.11185335 0 780.40845573 0 13791
0.11450000 0.11448600 14628.64482715 0 267.97794142 0 6137.98755252 0 498.98317581 0 1778.90185001 0 14205
0.11550000 0.11549300 14822.63195797 0 414.48362173 0 5970.88402635 0 592.33394636 0 1872.29690986 0 14776
0.11650000 0.11649800 14516.81434648 0 -20.26977288 0 5791.12483292 0 670.05834489 0 3025.78956482 0 14553
0.11750000 0.11747300 14752.87631161 0 -252.50990365 0 5578.61370268 0 788.26427019 0 3021.95854043 0 14568
0.11850000 0.11849100 14663.85482007 0 1.24227056 0 5163.96621054 0 617.39504635 0 2318.86591444 0 16015
0.11950000 0.11950300 14562.65377123 0 484.88589185 0 5313.98513951 0 -272.45226788 0 2436.56472727 0 15270
0.12050000 0.12050700 14263.70100112 0 544.45278491 0 5050.18700071 0 -436.63602199 0 1828.60551612 0 15999
0.12150000 0.12150000 13682.18250165 0 382.46578005 0 5103.27879821 0 -124.89360949 0 2297.06450688 0 15670
0.12250000 0.12250700 13482.76993167 0 99.15233658 0 4697.56667221 0 84.37875502 0 1366.85635421 0 16887
0.12350000 0.12352200 13564.70513532 0 -14.39667962 0 5171.97150139 0 399.79507562 0 1172.59241527 0 16407
0.12450000 0.12449800 13403.82425571 0 139.56111818 0 4660.02041875 0 -17.43780436 0 336.35840504 0 16306
0.12550000 0.12549900 13186.58524277 0 301.00447189 0 4597.24033703 0 -103.18819898 0 589.38427903 0 17523
0.12650000 0.12650100 12953.18063559 0 316.03847453 0 4659.73253830 0 81.95734831 0 558.01527558 0 17154
0.12750000 0.12750600 12826.62396291 0 82.90624654 0 4406.34238483 0 248.06990140 0 631.58423061 0 18007
0.12850000 0.12850300 12765.28328342 0 85.84052334 0 4386.77758687 0 576.33222253 0 826.02532675 0 17496
0.12950000 0.12949900 12611.26724519 0 200.38582734 0 4315.49395969 0 604.24444617 0 852.36417303 0 18405
0.13050000 0.13049000 12574.39640354 0 132.73392269 0 3808.92402691 0 604.96193281 0 975.03667416 0 18100
0.13150000 0.13148800 12273.56133822 0 -41.15638497 0 3473.08934284 0 558.86563013 0 531.62771107 0 19059
0.13250000 0.13249300 12196.49795748 0 286.48976129 0 3598.42805979 0 -37.13834901 0 559.66062305 0 18957
0.13350000 0.13349100 12217.64609789 0 82.55746831 0 3427.48243691 0 -366.10088397 0 293.32692186 0 19468
0.13450000 0.13450700 11957.00357166 0 80.20570652 0 3585.73917554 0 -388.53784298 0 246.87851925 0 19953
0.13550000 0.13551000 12181.32887248 0 171.56899476 0 3559.37597015 0 -177.66209511 0 15.22887556 0 19956
0.13650000 0.13649900 11861.22796197 0 327.25916850 0 3949.38753956 0 207.46325736 0 52.93733857 0 19723
0.13750000 0.13749600 11573.01534695 0 315.45717748 0 3912.22881747 0 -174.79214852 0 -67.20690791 0 20946
0.13850000 0.13851100 11466.94247518 0 251.89206793 0 3573.73677544 0 666.31811356 0 381.45266233 0 20955
0.13950000 0.13949800 11321.00923407 0 29.98662369 0 3620.90487917 0 221.13868574 0 307.42752752 0 20506
0.14050000 0.14048300 11159.35329172 0 41.86678533 0 3511.20028487 0 407.15927886 0 324.76125202 0 21447
0.14150000 0.14148400 11086.60811766 0 102.39276316 0 3605.44791372 0 136.69227882 0 471.98331174 0 21771
0.14250000 0.14249400 11015.30234583 0 281.27137460 0 3383.22635461 0 113.88107522 0 101.80759080 0 22470
0.14350000 0.14350900 10749.78799668 0 159.66735281 0 3197.32202091 0 207.58616016 0 1105.35904451 0 22519
0.14450000 0.14449900 10768.22341750 0 12.40952949 0 3053.59217244 0 265.26965077 0 882.85071218 0 22218
0.14550000 0.14550500 10655.87253757 0 -58.89037401 0 3132.49355909 0 117.46075784 0 650.64855948 0 23559
0.14650000 0.14650700 10890.16293073 0 13.02913678 0 3037.08333613 0 297.94629578 0 683.30416707 0 23044
0.14750000 0.14750500 10604.77375853 0 337.86534845 0 3024.69340466 0 -251.39381331 0 407.94098499 0 23649
0.14850000 0.14849900 10308.23475524 0 546.80343947 0 2877.85223291 0 -136.61255808 0 900.38595300 0 23640
0.14950000 0.14949500 10072.32780265 0 174.05583892 0 3095.37912630 0 -202.76194824 0 887.42026063 0 24457
0.15050000 0.15050000 9991.37803590 0 90.66052778 0 3218.31514876 0 155.35689676 0 815.65277286 0 24591
0.15150000 0.15149900 10013.98772318 0 -39.15605877 0 3238.03495926 0 37.35171271 0 419.51156443 0 25020
0.15250000 0.15250500 9906.42008757 0 177.50818980 0 3306.37334804 0 3.30823350 0 570.84920728 0 25297
0.15350000 0.15350100 9866.83652634 0 96.35502444 0 3421.28193501 0 -58.48988802 0 563.81606656 0 25452
0.15450000 0.15450400 9732.09740562 0 57.00486782 0 3314.48936214 0 163.34225742 0 745.38226340 0 26061
0.15550000 0.15549900 9787.45902972 0 98.83611098 0 3196.58017514 0 275.41300754 0 591.84012067 0 26128
0.15650000 0.15649500 9707.14038548 0 144.51376907 0 3219.80991261 0 53.09002593 0 853.66960012 0 26331
0.15750000 0.15749700 9551.64065573 0 34.40924239 0 3095.16875213 0 176.98225437 0 411.94584488 0 27345
0.15850000 0.15849900 9465.77477676 0 82.33557892 0 3203.17928074 0 -16.17002317 0 417.34028153 0 26980
0.15950000 0.15949700 9378.74630369 0 106.54654582 0 3008.33958090 0 65.03053174 0 -106.47258269 0 27777
0.16050000 0.16050000 9302.60192591 0 55.98986780 0 3075.54859255 0 38.89131948 0 200.16880977 0 28224
0.16150000 0.16150500 9329.03156525 0 139.28320282 0 2827.01918967 0 110.67131898 0 -108.73144767 0 28075
0.16250000 0.16249700 8983.54181393 0 237.51022522 0 2810.20032827 0 122.74447124 0 95.93206163 0 28590
0.16350000 0.16349900 8983.77433275 0 141.74790233 0 2694.94849923 0 -15.33815940 0 -153.20000789 0 29163
0.16450000 0.16449100 8763.54579211 0 184.77384934 0 3063.08115480 0 -93.42517657 0 185.26103163 0 28996
0.16550000 0.16550500 8688.81867191 0 257.83347742 0 2984.36799767 0 -89.95809950 0 194.40234300 0 30777
0.16650000 0.16650700 8483.22774468 0 151.15052056 0 2965.37896061 0 -74.21192493 0 351.59613845 0 29211
0.16750000 0.16749900 8495.98306287 0 41.25858253 0 3100.57204664 0 116.48417879 0 -3.33953496 0 30922
0.16850000 0.16850800 8455.87910238 0 -17.74749728 0 2709.19858128 0 380.48383391 0 308.95883004 0 30867
0.16950000 0.16949900 8356.38319156 0 172.69837189 0 2572.11212770 0 392.97563077 0 34.16952656 0 30852
0.17050000 0.17049200 8367.22299755 0 48.57229596 0 2301.06161614 0 300.97568385 0 187.81541697 0 31257
0.17150000 0.17149500 8154.51256546 0 45.25956710 0 2221.04192467 0 457.53614232 0 -6.28152917 0 32608
0.17250000 0.17250900 8128.85798886 0 163.13631218 0 1965.42623391 0 282.59673188 0 81.94638671 0 32361
0.17350000 0.17350400 7895.46445401 0 111.29790184 0 1898.95906802 0 213.42016811 0 241.31910496 0 32508
0.17450000 0.17449800 8025.75250015 0 -152.90548405 0 1723.15269455 0 105.82850555 0 134.59075157 0 32791
0.17550000 0.17549800 8013.35149635 0 -13.90252177 0 2016.46965132 0 -76.79919507 0 69.65832062 0 33633
0.17650000 0.17650100 8060.26493661 0 156.58038866 0 1873.22698514 0 -108.79921030 0 103.37199957 0 33984
0.17750000 0.17750300 7878.97776235 0 129.30703816 0 1905.96784963 0 -97.99073898 0 306.73439999 0 34069
0.17850000 0.17849800 7914.30955085 0 120.57097388 0 1861.96643080 0 -58.48246957 0 192.03729442 0 34536
