### header ###
fiducial parameters:
Omega_m = 0.31
Omega_nu = 0
Omega_de = 0.69
Omega_k = 0
H_0 = 100
w_de = -1
zeff = 0
beta = 0
fgrowth = 0
b_1 = 2
gamma = 0.55
Lx = 3500 Ly = 3500 Lz = 3500
nx = 700 ny = 700 nz = 700
xoffset = -685.467585 yoffset = -31.7331281 zoffset = 572.489161
bins = 400 dk = 0.001
kx_ny = 0.628318531 ky_ny = 0.628318531 kz_ny = 0.628318531
############################
A(data) = 8.10450298 (not used)
A(ran) = 8.10073131 (used)
Ngal = 481227
weighted Ngal = 0
Nran = 23820508
weighted Nran = 0
SN(data) = 3489.72142
SN(ran) = 70.5603076
SN(data+ran) = 3560.28173
############################
13 columns: k_central k_mean P_0(k) sigma^{lin}_{P_0(k)} P^img_1(k) sigma^{lin}_{P_1(k)} P_2(k) sigma^{lin}_{P_2(k)} P^img_3(k) sigma^{lin}_{P_3(k)} P_4(k) sigma^{lin}_{P_4(k)} N_modes
### header ###
0.00050000 0 0 0 0 0 0 0 0 0 0 0 0
0.00150000 0.00179520 16275.21025093 0 -14943.87391473 0 -2317.41543989 0 10561.21523269 0 -17528.48669715 0 3
0.00250000 0.00253879 41978.94797793 0 -25992.06106528 0 3155.21396962 0 -36876.48853175 0 -5958.13978049 0 6
0.00350000 0.00331552 50170.69677175 0 -14728.73864351 0 299.69129417 0 -23191.20577915 0 43292.67931766 0 7
0.00450000 0.00420575 55851.79591295 0 9464.95542472 0 16871.01204942 0 -25891.63507917 0 25320.41384178 0 24
0.00550000 0.00557378 41455.44846050 0 13615.19493650 0 37020.20730790 0 277.02292357 0 27208.24522336 0 45
0.00650000 0.00659388 40143.04579975 0 -12768.38353437 0 36903.50500431 0 39821.39476377 0 13597.36849354 0 40
0.00750000 0.00754703 50764.39482853 0 -20354.80833036 0 35268.67624483 0 37079.44424568 0 -7104.18076084 0 57
0.00850000 0.00846663 75320.26464158 0 -14209.88950251 0 32467.04589597 0 11407.48409091 0 -18514.80939200 0 75
0.00950000 0.00948925 76835.51229301 0 303.61311162 0 33717.00064475 0 -22921.15177682 0 -4918.33775677 0 112
0.01050000 0.01054430 70172.63011014 0 15918.79211502 0 29249.76047342 0 6070.99998736 0 46960.49763708 0 105
0.01150000 0.01145670 68265.97577637 0 -2435.30248224 0 20216.29354688 0 16725.07880831 0 31514.16162208 0 144
0.01250000 0.01249090 72617.84232309 0 -11100.55924693 0 254.54499695 0 43112.86476260 0 7841.88547421 0 169
0.01350000 0.01339930 78692.45188835 0 -6695.51232411 0 -9462.18734352 0 18020.98370508 0 -34149.15348242 0 180
0.01450000 0.01448870 81598.49426025 0 2526.35020922 0 -16953.16869957 0 -19936.93879170 0 -20295.01777634 0 267
0.01550000 0.01550050 69391.92048718 0 14176.56180480 0 -7353.52951576 0 -37195.70365627 0 251.85774372 0 238
0.01650000 0.01653350 70012.30284677 0 3189.27244076 0 7244.96537091 0 -26295.66421180 0 2073.75785993 0 315
0.01750000 0.01747870 64193.46398482 0 -86.14634096 0 30609.44196115 0 -7372.80643327 0 -6249.76267156 0 297
0.01850000 0.01844180 75831.80604820 0 825.44845862 0 33952.17682390 0 -2528.13285352 0 -14169.47551692 0 388
0.01950000 0.01947590 70802.09177608 0 -187.70358649 0 40871.05115657 0 919.13361338 0 -6450.53713750 0 399
0.02050000 0.02045430 71517.80685236 0 3131.34203731 0 60306.52435724 0 -6150.55464119 0 1860.10628023 0 462
0.02150000 0.02154770 74961.07842446 0 3744.58274739 0 56044.56508805 0 3864.77283330 0 3253.83516678 0 571
0.02250000 0.02255340 71512.04924345 0 55.24857566 0 55446.99171758 0 15411.56891507 0 4066.33343430 0 510
0.02350000 0.02348930 70181.93086299 0 1455.64532693 0 39489.22501921 0 11105.20962336 0 7694.73427737 0 555
0.02450000 0.02439640 72471.24474249 0 -3296.85114870 0 38651.38220018 0 16492.67071037 0 -4632.39496833 0 592
0.02550000 0.02547300 70889.23097240 0 -513.35505343 0 25050.35983945 0 14243.10647696 0 -11197.88498209 0 837
0.02650000 0.02652900 69616.35651125 0 4118.72767534 0 17187.01619974 0 10309.82917001 0 -5843.47478466 0 723
0.02750000 0.02749970 64188.70288515 0 4320.25505936 0 13290.00075657 0 4375.71633438 0 -9257.47112995 0 826
0.02850000 0.02848090 59931.17254589 0 8129.06836303 0 11305.50797933 0 -891.28228753 0 -8260.98404092 0 831
0.02950000 0.02946900 53345.24302051 0 6095.42553591 0 12459.24422543 0 -3679.32246491 0 -6079.68069002 0 996
0.03050000 0.03053250 51912.59491222 0 3548.00469256 0 20696.83244401 0 146.78913182 0 104.49107944 0 1041
0.03150000 0.03150510 49777.73996394 0 -1067.23260122 0 19983.11038620 0 506.98403773 0 5423.53472127 0 1036
0.03250000 0.03246190 51023.15505954 0 -1963.65466194 0 21055.57576813 0 4045.37352342 0 5798.79795402 0 1059
0.03350000 0.03345080 55081.60499857 0 -2676.49093376 0 22921.81611631 0 5600.82478626 0 8024.27988095 0 1302
0.03450000 0.03451200 54889.27871647 0 421.62970016 0 21603.76656990 0 1023.65635967 0 6582.25351354 0 1339
0.03550000 0.03553350 55534.68453015 0 1720.25174545 0 22866.34376897 0 -1907.86121718 0 10156.82071334 0 1365
0.03650000 0.03647120 51621.72493924 0 1454.37200958 0 25689.56515123 0 1125.00356320 0 10909.01909990 0 1308
0.03750000 0.03744890 51916.13805617 0 1214.37936913 0 21369.80834648 0 3230.59435699 0 4058.29492648 0 1579
0.03850000 0.03847530 52804.35995312 0 -453.46152679 0 23106.39177104 0 2744.77396092 0 3659.13761677 0 1662
0.03950000 0.03950240 50652.12145487 0 1504.89502773 0 21907.36971643 0 1792.60938814 0 3946.35372256 0 1683
0.04050000 0.04050350 49488.86300942 0 2565.55731140 0 18150.64062871 0 942.19283705 0 493.04730248 0 1822
0.04150000 0.04152450 49071.76853350 0 848.86864008 0 19149.36432735 0 3639.22957674 0 -3637.97840404 0 1887
0.04250000 0.04250150 45797.46063813 0 1258.94547653 0 13355.54891950 0 1493.21372504 0 -4328.50394135 0 1920
0.04350000 0.04349210 45297.32372607 0 951.80361499 0 15499.15100439 0 2256.48443642 0 -5575.44701778 0 2005
0.04450000 0.04448520 44085.90066767 0 153.60525498 0 7546.81909012 0 2810.28890687 0 -2434.17310511 0 2151
0.04550000 0.04548030 46143.80295846 0 657.90425393 0 8837.43141563 0 637.51346055 0 -7761.50039602 0 2274
0.04650000 0.04648670 42058.33654688 0 1176.70024778 0 5814.63137851 0 -550.16831898 0 -6456.54940987 0 2311
0.04750000 0.04749250 42635.42611642 0 3533.67710425 0 8732.58757192 0 -3352.04668792 0 -4742.85248072 0 2568
0.04850000 0.04851840 38794.76880658 0 2132.88407447 0 10059.25138704 0 75.40651805 0 -3157.56130248 0 2493
0.04950000 0.04949480 39158.27323038 0 126.39723120 0 12566.53505292 0 582.76081432 0 -2304.06221616 0 2644
0.05050000 0.05050630 37573.04848609 0 -199.17119330 0 13797.99901925 0 2333.38173228 0 -1961.07481025 0 2829
0.05150000 0.05149060 38903.27758980 0 676.42714612 0 14263.47955463 0 1578.28239662 0 -609.69092274 0 2784
0.05250000 0.05249300 38117.03180443 0 1339.66272446 0 16518.57995044 0 -3391.48630893 0 4139.02324673 0 3055
0.05350000 0.05348950 38134.74752414 0 972.65723155 0 17436.03278492 0 617.42494163 0 3498.94322129 0 3009
0.05450000 0.05448610 36243.15155212 0 1798.17876752 0 16275.98531367 0 941.44988405 0 3905.44148236 0 3336
0.05550000 0.05550870 35329.02041510 0 1160.98861886 0 15898.30831410 0 2307.40605826 0 3635.11067191 0 3349
0.05650000 0.05647670 35044.35094401 0 112.08846584 0 15330.40877415 0 3353.82933222 0 3289.05623203 0 3324
0.05750000 0.05747970 33616.68538189 0 148.77439966 0 14276.87706766 0 2828.05998820 0 2561.23910472 0 3639
0.05850000 0.05849280 34510.11127151 0 433.14159628 0 13024.26496093 0 1391.68050646 0 2753.03391523 0 3846
0.05950000 0.05951020 33232.47571069 0 473.27323758 0 11890.56962274 0 1509.66719972 0 1126.93014772 0 3787
0.06050000 0.06049470 32627.59460584 0 110.98234059 0 9713.67305712 0 1787.29467223 0 2841.45750123 0 3930
0.06150000 0.06148310 33133.82129655 0 203.57465688 0 10513.59316365 0 751.66470050 0 -569.55928144 0 4083
0.06250000 0.06249100 31984.07108738 0 433.91887348 0 8819.95928706 0 1134.97972786 0 358.02583748 0 4303
0.06350000 0.06350600 32034.89305830 0 226.68702771 0 10028.72498751 0 -958.68727933 0 -3898.04516938 0 4470
0.06450000 0.06451750 31295.48320691 0 1090.72586002 0 8815.77394828 0 -1612.47373566 0 97.92463721 0 4479
0.06550000 0.06550280 30866.87351318 0 623.07957791 0 9016.85843931 0 -1278.67635936 0 -3362.43252860 0 4636
0.06650000 0.06648880 30650.18811648 0 299.34915933 0 11722.93462499 0 118.20038914 0 -1046.67904466 0 4653
0.06750000 0.06749660 31405.76356210 0 -127.23983512 0 11678.53460247 0 554.38466027 0 324.17441881 0 5220
0.06850000 0.06852730 31129.84122762 0 195.37117143 0 14062.95975216 0 1255.61270676 0 613.34257547 0 5029
0.06950000 0.06949320 31082.45167740 0 737.57184547 0 12575.39291278 0 -366.13410094 0 2825.91195719 0 5040
0.07050000 0.07048030 30836.53534318 0 483.92924299 0 15279.36535674 0 1899.90021563 0 2760.60738541 0 5475
0.07150000 0.07148790 30045.19628839 0 713.12968843 0 13417.88610823 0 900.95617773 0 5786.62946905 0 5509
0.07250000 0.07249820 29951.30297393 0 227.64921274 0 12742.91718728 0 1973.60868195 0 2738.55131437 0 5916
0.07350000 0.07351270 29652.90382006 0 -74.32231601 0 12120.32036273 0 595.36333443 0 1902.33612709 0 5721
0.07450000 0.07449140 28772.76472023 0 914.05805968 0 11031.26863822 0 525.41835132 0 279.07683982 0 6028
0.07550000 0.07549160 28048.19178410 0 1331.29204689 0 9087.53308863 0 769.87203143 0 1788.19153054 0 6183
0.07650000 0.07648840 27231.05421248 0 567.83421323 0 8522.80023358 0 1859.55266399 0 648.78951614 0 6330
0.07750000 0.07749960 26814.18118306 0 244.90321650 0 8604.95688373 0 588.02127584 0 -714.05090586 0 6583
0.07850000 0.07848650 25714.03498908 0 1452.43435274 0 8135.16921400 0 -314.07645857 0 13.74795211 0 6549
0.07950000 0.07947320 25475.20494274 0 693.43755874 0 7998.61423202 0 -572.09927275 0 2130.80247740 0 6828
0.08050000 0.08048110 25031.20471751 0 -40.97424522 0 9701.46028285 0 982.16946581 0 3028.26976557 0 7147
0.08150000 0.08149960 25490.37402774 0 44.70916183 0 9872.81558174 0 309.37404222 0 2031.99305072 0 7386
0.08250000 0.08250610 24838.43554242 0 315.02867851 0 10051.27931317 0 -313.18513643 0 465.49825110 0 7227
0.08350000 0.08350160 24895.01512224 0 1067.69431717 0 9799.32856192 0 -581.00142191 0 912.30309620 0 7798
0.08450000 0.08449610 23758.77314935 0 1100.92457842 0 10402.60417967 0 -688.64656379 0 -323.14690706 0 7371
0.08550000 0.08548940 23037.41118742 0 599.68154111 0 10177.44845448 0 -272.51205844 0 -1282.07556308 0 8256
0.08650000 0.08650700 22384.25474637 0 921.59166949 0 9666.30565155 0 1173.68857543 0 -1150.53634423 0 8037
0.08750000 0.08749060 21833.18514014 0 370.03930990 0 9381.75797604 0 1481.57671166 0 -200.83204203 0 8155
0.08850000 0.08849210 21217.56388023 0 71.71312266 0 8278.22365066 0 1563.84408506 0 -748.35186091 0 8718
0.08950000 0.08949900 21439.34254634 0 -38.90106312 0 9050.62903001 0 2279.28235322 0 -446.08735846 0 8571
0.09050000 0.09049190 20766.47736712 0 573.98931860 0 7843.22522551 0 305.67367127 0 1043.19236958 0 8932
0.09150000 0.09150830 20312.17987981 0 873.96960045 0 7793.25582360 0 146.31855801 0 120.15244000 0 9285
0.09250000 0.09250820 19277.91401850 0 657.38164020 0 8323.08871083 0 -358.12105947 0 2486.83308194 0 9204
0.09350000 0.09350330 18989.14778723 0 651.47455491 0 7970.54588860 0 358.13766796 0 1367.23281326 0 9349
0.09450000 0.09448040 18923.59962430 0 -40.87780527 0 7883.06345021 0 1038.54088592 0 1478.95257068 0 9564
0.09550000 0.09549270 18758.06836826 0 -304.10915177 0 7673.15431630 0 1351.38831644 0 802.38369880 0 10155
0.09650000 0.09649430 18521.56351014 0 234.21510135 0 7247.78881374 0 488.41796347 0 1127.64984883 0 9913
0.09750000 0.09749140 18759.83994023 0 318.39798695 0 6882.74533679 0 386.62786695 0 737.39690274 0 10476
0.09850000 0.09850240 18278.08308737 0 345.17419006 0 6626.32136632 0 -145.17146516 0 1875.60753498 0 10575
0.09950000 0.09950330 18356.36442384 0 53.28456668 0 6393.60324328 0 -112.36638119 0 1839.25709260 0 10882
0.10050000 0.10051200 18260.14592117 0 37.99822576 0 6274.66433008 0 36.84482168 0 1433.32352010 0 10875
0.10150000 0.10150300 18409.73302947 0 69.34010201 0 6401.91855922 0 13.48121981 0 -38.05037641 0 11118
0.10250000 0.10250800 17888.89087000 0 531.18813978 0 6470.52268379 0 -472.18261359 0 -169.07329275 0 11575
0.10350000 0.10349800 17522.83981149 0 748.91212055 0 6546.48990437 0 -305.07798019 0 -639.13887783 0 11364
0.10450000 0.10450100 16592.43235698 0 501.64939163 0 6162.90028336 0 727.17271800 0 271.96730006 0 12093
0.10550000 0.10551000 16658.20196641 0 143.91807799 0 6114.12669253 0 1122.61194104 0 -343.74253846 0 12067
0.10650000 0.10649700 16265.13443534 0 475.44009155 0 5828.82609893 0 901.75449235 0 -93.03720231 0 12054
0.10750000 0.10749900 15927.98214462 0 380.18155944 0 6267.87699496 0 -11.72492764 0 1486.99107849 0 12807
0.10850000 0.10850100 15686.71618682 0 526.19230682 0 6785.34209536 0 -226.95719244 0 2610.76561364 0 12736
0.10950000 0.10950300 15588.28321918 0 277.69390645 0 7446.88028630 0 -239.55749808 0 2544.95171492 0 12933
0.11050000 0.11050200 15810.50477829 0 -52.95892961 0 7901.74246218 0 -578.91650314 0 2848.16733007 0 13428
0.11150000 0.11150900 15662.46779546 0 172.37838171 0 8231.49843993 0 69.92914969 0 3005.53828272 0 13453
0.11250000 0.11250000 15761.89727234 0 -1.62042366 0 7770.39147285 0 34.69025800 0 3043.39456128 0 13668
0.11350000 0.11349100 15336.05565981 0 44.78401075 0 7958.72064569 0 625.35826236 0 2365.17037684 0 13791
0.11450000 0.11448600 15219.57480272 0 326.07996591 0 7042.26432045 0 1456.73041477 0 2083.85582017 0 14205
0.11550000 0.11549300 15011.41509613 0 349.55218729 0 6842.18741098 0 930.15721997 0 1646.62078540 0 14776
0.11650000 0.11649800 14379.18534898 0 506.58764850 0 5611.68673691 0 603.13942815 0 1715.67887530 0 14553
0.11750000 0.11747300 14161.28199655 0 117.44525658 0 5789.70757535 0 541.58394555 0 1786.32030764 0 14568
0.11850000 0.11849100 14202.36032163 0 -221.15640146 0 5200.58238872 0 183.06428239 0 1578.48169847 0 16015
0.11950000 0.11950300 14281.30599759 0 -27.67571878 0 5087.76647114 0 67.02222153 0 963.98317229 0 15270
0.12050000 0.12050700 14162.83212203 0 307.03335276 0 5154.97548279 0 -561.06902277 0 407.62653097 0 15999
0.12150000 0.12150000 14116.21763454 0 303.37284217 0 5481.80836679 0 -226.82432454 0 686.40331078 0 15670
0.12250000 0.12250700 13570.46274423 0 322.77709142 0 5501.63890054 0 -4.31836169 0 568.67792438 0 16887
0.12350000 0.12352200 13342.04068322 0 423.43116741 0 5330.11751677 0 758.70005569 0 490.92916674 0 16407
0.12450000 0.12449800 13229.76730956 0 91.00985963 0 5208.44373934 0 210.89899975 0 823.83411367 0 16306
0.12550000 0.12549900 13097.12085823 0 146.95300223 0 4972.51464211 0 568.79418379 0 688.36421951 0 17523
0.12650000 0.12650100 13033.89788352 0 101.90137339 0 5374.78327509 0 -196.63120199 0 689.69622019 0 17154
0.12750000 0.12750600 12904.46240639 0 110.58606208 0 4988.80203191 0 -60.72206871 0 1187.70613865 0 18007
0.12850000 0.12850300 13023.04700520 0 114.16784844 0 4928.85646535 0 169.81292405 0 1054.36434532 0 17496
0.12950000 0.12949900 12961.70632570 0 -71.72740596 0 5112.83421453 0 109.53264110 0 700.86044530 0 18405
0.13050000 0.13049000 13042.86646662 0 48.50896226 0 4601.33709721 0 -14.34209306 0 807.26880851 0 18100
0.13150000 0.13148800 12921.51378661 0 150.82831591 0 4954.26745080 0 571.97636995 0 388.47473073 0 19059
0.13250000 0.13249300 12758.08627229 0 201.00919922 0 4305.45136108 0 597.92214869 0 595.91805790 0 18957
0.13350000 0.13349100 12651.90267727 0 44.80859131 0 4117.14433289 0 425.36882426 0 13.07176523 0 19468
0.13450000 0.13450700 12425.14146499 0 89.31911563 0 4034.32334325 0 310.10149396 0 382.94410448 0 19953
0.13550000 0.13551000 12397.46065294 0 71.16205306 0 3866.53333295 0 -69.09241410 0 -131.57132859 0 19956
0.13650000 0.13649900 12212.44210522 0 313.25710654 0 3946.87412183 0 -30.37227276 0 230.85022184 0 19723
0.13750000 0.13749600 11958.22152739 0 470.64466767 0 4021.31336158 0 -310.91973877 0 687.68216430 0 20946
0.13850000 0.13851100 11663.80841046 0 368.35299483 0 4327.60708304 0 364.02593030 0 736.41700199 0 20955
0.13950000 0.13949800 11521.63975979 0 113.57769352 0 4282.94132472 0 360.23255181 0 1018.81111033 0 20506
0.14050000 0.14048300 11281.14886473 0 72.15845157 0 4161.66615099 0 725.67684692 0 982.29569031 0 21447
0.14150000 0.14148400 11267.41918195 0 82.69542948 0 4086.07538945 0 681.04541281 0 1628.72790850 0 21771
0.14250000 0.14249400 11261.44012655 0 106.79611602 0 3857.12185685 0 536.59475599 0 1176.84418800 0 22470
0.14350000 0.14350900 11284.24911568 0 -61.44575586 0 3626.35246298 0 -151.89679526 0 1322.84386306 0 22519
0.14450000 0.14449900 11362.75189864 0 -82.24998985 0 3618.19215959 0 -330.17008270 0 1088.39402842 0 22218
0.14550000 0.14550500 11201.09595629 0 213.53089136 0 3442.95047468 0 -304.86539156 0 1069.80359505 0 23559
0.14650000 0.14650700 11202.20318877 0 240.53186266 0 3539.25755596 0 -78.52249170 0 575.65127455 0 23044
0.14750000 0.14750500 10746.42200993 0 259.10347308 0 3316.10592156 0 472.55575094 0 237.37735732 0 23649
0.14850000 0.14849900 10514.06927361 0 321.18599834 0 3163.47392394 0 511.02654352 0 -62.84994809 0 23640
0.14950000 0.14949500 10219.74473529 0 294.53048357 0 2916.18462144 0 278.42025096 0 -81.84252830 0 24457
0.15050000 0.15050000 10065.81727566 0 185.32635835 0 2872.90290372 0 5.09381196 0 -118.10516714 0 24591
0.15150000 0.15149900 9924.63406189 0 364.76334713 0 2923.30412629 0 -107.23325140 0 552.71052476 0 25020
0.15250000 0.15250500 9691.67234771 0 38.73077077 0 3065.30669209 0 -413.85139198 0 306.30036485 0 25297
0.15350000 0.15350100 9720.95864686 0 63.01680803 0 3502.38671431 0 -188.88500355 0 189.53605625 0 25452
0.15450000 0.15450400 9691.56162446 0 136.27263771 0 3327.82044122 0 68.59017345 0 177.43400522 0 26061
0.15550000 0.15549900 9554.80734063 0 3.84877332 0 3424.83615128 0 110.01993411 0 70.37348208 0 26128
0.15650000 0.15649500 9704.47195520 0 34.76876078 0 3057.61142634 0 290.64077586 0 34.14638540 0 26331
0.15750000 0.15749700 9603.30412333 0 -71.85495914 0 2737.07869517 0 376.90304406 0 -138.08185558 0 27345
0.15850000 0.15849900 9427.16558012 0 236.89903289 0 2591.64370868 0 271.15348418 0 -255.33445371 0 26980
0.15950000 0.15949700 9349.08354550 0 225.36720659 0 2362.96698420 0 -61.60165419 0 -316.41271911 0 27777
0.16050000 0.16050000 9075.65248410 0 221.39002752 0 2561.80379329 0 -56.04434364 0 -313.42540587 0 28224
0.16150000 0.16150500 8920.85031081 0 335.83246961 0 2691.59358481 0 -375.05618028 0 -466.00979250 0 28075
0.16250000 0.16249700 8729.16622355 0 213.61725549 0 2954.80489040 0 -81.00778573 0 -98.04543627 0 28590
0.16350000 0.16349900 8606.28556271 0 93.97026712 0 3105.94212418 0 88.56951924 0 104.40083999 0 29163
0.16450000 0.16449100 8580.07736987 0 -146.10929107 0 2831.54777052 0 459.57677178 0 256.08072841 0 28996
0.16550000 0.16550500 8830.79909306 0 -89.13343275 0 2963.20878494 0 508.92723073 0 22.64644740 0 30777
0.16650000 0.16650700 8689.30585420 0 109.02862887 0 2733.73485307 0 245.05822905 0 150.13518838 0 29211
0.16750000 0.16749900 8675.01148286 0 224.79587463 0 2515.13394418 0 160.45238064 0 202.74423252 0 30922
0.16850000 0.16850800 8456.03411492 0 125.38632794 0 2416.16950495 0 -156.18067773 0 443.43000050 0 30867
0.16950000 0.16949900 8423.02751464 0 16.77025389 0 2509.38740760 0 55.76443527 0 249.95441108 0 30852
0.17050000 0.17049200 8403.54022296 0 94.28804284 0 2590.37039132 0 -16.95815125 0 223.28782399 0 31257
0.17150000 0.17149500 8324.88242745 0 173.30845699 0 2319.48596463 0 219.91297939 0 101.75278279 0 32608
0.17250000 0.17250900 8168.09830801 0 148.63267390 0 2304.73762798 0 0.77225480 0 219.23756757 0 32361
0.17350000 0.17350400 8149.76253811 0 89.25013505 0 2272.29571626 0 134.95945998 0 299.49863572 0 32508
0.17450000 0.17449800 8022.40865805 0 9.02946982 0 2310.51738153 0 266.45438953 0 242.40640725 0 32791
0.17550000 0.17549800 8130.03165529 0 -17.26850851 0 2197.29178794 0 212.98281128 0 335.98526769 0 33633
0.17650000 0.17650100 8043.36856893 0 71.28019476 0 2210.43463750 0 7.91422097 0 487.35169859 0 33984
0.17750000 0.17750300 8038.02063605 0 148.44112268 0 2054.44772545 0 157.39199006 0 703.05830178 0 34069
0.17850000 0.17849800 8020.59279678 0 -10.57409235 0 2346.03739955 0 -86.44629024 0 816.94712763 0 34536
