### header ###
fiducial parameters:
Omega_m = 0.31
Omega_nu = 0
Omega_de = 0.69
Omega_k = 0
H_0 = 100
w_de = -1
zeff = 0
beta = 0
fgrowth = 0
b_1 = 2
gamma = 0.55
Lx = 3500 Ly = 3500 Lz = 3500
nx = 700 ny = 700 nz = 700
xoffset = -685.467585 yoffset = -31.7331281 zoffset = 572.489161
bins = 400 dk = 0.001
kx_ny = 0.628318531 ky_ny = 0.628318531 kz_ny = 0.628318531
############################
A(data) = 8.00586908 (not used)
A(ran) = 8.00304062 (used)
Ngal = 475849
weighted Ngal = 0
Nran = 23820508
weighted Nran = 0
SN(data) = 3486.20168
SN(ran) = 69.7093862
SN(data+ran) = 3555.91107
############################
13 columns: k_central k_mean P_0(k) sigma^{lin}_{P_0(k)} P^img_1(k) sigma^{lin}_{P_1(k)} P_2(k) sigma^{lin}_{P_2(k)} P^img_3(k) sigma^{lin}_{P_3(k)} P_4(k) sigma^{lin}_{P_4(k)} N_modes
### header ###
0.00050000 0 0 0 0 0 0 0 0 0 0 0 0
0.00150000 0.00179520 33034.17037318 0 -33588.78312335 0 28444.80245910 0 -65545.39484518 0 26162.46414423 0 3
0.00250000 0.00253879 44288.52421185 0 -14205.57129583 0 -421.87329131 0 2004.69977004 0 6353.82038021 0 6
0.00350000 0.00331552 61554.26464105 0 -6.81662141 0 39165.80241125 0 32759.57671768 0 561.02694793 0 7
0.00450000 0.00420575 67153.31785535 0 571.23784588 0 41639.35977574 0 9062.73108104 0 -14343.75390956 0 24
0.00550000 0.00557378 86638.61651770 0 6062.34142935 0 73478.71557774 0 21610.63141129 0 -23868.94278130 0 45
0.00650000 0.00659388 71358.69754472 0 10564.45942386 0 47828.90007261 0 28570.91623879 0 17664.34412268 0 40
0.00750000 0.00754703 69623.88569213 0 17219.45811146 0 73802.47035544 0 26599.93169782 0 11700.12563586 0 57
0.00850000 0.00846663 73059.51736011 0 -2065.58648422 0 55688.58984513 0 48227.61448933 0 17366.49858505 0 75
0.00950000 0.00948925 75374.96192618 0 -11485.87615062 0 54245.97664450 0 50539.62663471 0 -20172.44714060 0 112
0.01050000 0.01054430 68211.38921502 0 1253.54218202 0 24537.82192359 0 12316.85412826 0 -6699.86374776 0 105
0.01150000 0.01145670 80694.66038530 0 -1831.36252500 0 3037.51515680 0 13695.80146118 0 -19219.56286670 0 144
0.01250000 0.01249090 70708.86280111 0 -4336.66424474 0 -10024.90503545 0 -4161.63293401 0 -9437.19710640 0 169
0.01350000 0.01339930 88045.35538590 0 -2733.26981543 0 -19233.51399597 0 -11193.34532891 0 -13388.65517071 0 180
0.01450000 0.01448870 83179.51152110 0 -10767.57015034 0 -8864.22644169 0 -7822.77464157 0 -28560.28680696 0 267
0.01550000 0.01550050 91653.71532105 0 1102.45588094 0 -9234.27460945 0 -16278.75339487 0 -11534.48365658 0 238
0.01650000 0.01653350 82533.21992144 0 9437.90573519 0 -1293.02609232 0 -4798.62378083 0 -15998.51285371 0 315
0.01750000 0.01747870 76843.81653662 0 16594.53609870 0 8243.01365774 0 -14259.05062470 0 -17542.76999617 0 297
0.01850000 0.01844180 62196.79165028 0 8899.50286856 0 12151.65504197 0 -7924.97219965 0 1603.42764629 0 388
0.01950000 0.01947590 62275.07298675 0 637.40163007 0 17304.27211957 0 1367.06672838 0 -4105.41874091 0 399
0.02050000 0.02045430 61929.83789890 0 -1808.48710193 0 20575.36904075 0 1270.43854969 0 -8702.72551188 0 462
0.02150000 0.02154770 65381.08154487 0 -835.84315716 0 21868.61657956 0 7280.13107453 0 -15425.07715135 0 571
0.02250000 0.02255340 62580.77987499 0 1386.52080309 0 16123.85157066 0 -4692.81664486 0 -5640.29762424 0 510
0.02350000 0.02348930 59040.73618397 0 8654.14015058 0 14493.34101786 0 -2094.42989037 0 -11703.55805656 0 555
0.02450000 0.02439640 56102.58407010 0 4605.72173784 0 15562.37397910 0 2151.36378459 0 -4683.71519386 0 592
0.02550000 0.02547300 51919.79192336 0 -409.55643718 0 9172.45781999 0 6412.45941245 0 -7263.30114081 0 837
0.02650000 0.02652900 54314.84650488 0 -2773.00838921 0 11000.66473242 0 7251.57554883 0 -7337.84003149 0 723
0.02750000 0.02749970 54612.35987275 0 597.12937024 0 13205.29747171 0 9497.76272316 0 1112.97901845 0 826
0.02850000 0.02848090 57595.68707189 0 -601.99012083 0 9989.56217463 0 -3821.08143956 0 -97.02822179 0 831
0.02950000 0.02946900 56090.07234305 0 2193.20610008 0 14493.78391086 0 -4651.61652421 0 6592.79436677 0 996
0.03050000 0.03053250 57183.79658864 0 744.45993874 0 23815.35272918 0 -4632.18459415 0 13873.73372101 0 1041
0.03150000 0.03150510 59960.18203691 0 1196.77437267 0 30912.27004494 0 296.70619540 0 17378.01380287 0 1036
0.03250000 0.03246190 58062.71773274 0 727.03320671 0 32059.25217290 0 2792.37388531 0 8348.36682839 0 1059
0.03350000 0.03345080 58193.48188885 0 4014.28243533 0 33441.41048001 0 -4582.70237454 0 11704.99745878 0 1302
0.03450000 0.03451200 56245.30633701 0 1653.83994119 0 35692.08194590 0 4122.29296393 0 11230.65906355 0 1339
0.03550000 0.03553350 54656.53844878 0 804.55276723 0 32979.36236533 0 5270.26052880 0 2508.11409024 0 1365
0.03650000 0.03647120 51459.73682714 0 1616.84730397 0 27851.43657207 0 8154.95545845 0 910.08973847 0 1308
0.03750000 0.03744890 49762.12798595 0 2815.05000654 0 24945.17275367 0 3907.71130895 0 -4118.77196464 0 1579
0.03850000 0.03847530 47147.28775677 0 2318.82162515 0 20171.00773837 0 2612.39324539 0 -2812.73589066 0 1662
0.03950000 0.03950240 44101.18047592 0 775.99724152 0 14137.25505170 0 5700.97396425 0 1388.49167691 0 1683
0.04050000 0.04050350 43590.85702503 0 561.07345170 0 15988.43703813 0 6800.77691616 0 -2364.42853107 0 1822
0.04150000 0.04152450 43120.61538998 0 721.34867515 0 12573.06772457 0 680.57373177 0 -2575.02414912 0 1887
0.04250000 0.04250150 41603.26399683 0 1904.77203855 0 11792.91171784 0 3405.44851052 0 -1240.60970663 0 1920
0.04350000 0.04349210 40705.07700754 0 1238.15165052 0 11530.82978939 0 -1041.14509672 0 1202.64270483 0 2005
0.04450000 0.04448520 40661.45204776 0 -544.20476484 0 10857.42206624 0 3009.55753663 0 7518.69538508 0 2151
0.04550000 0.04548030 42638.74781387 0 -2533.11539969 0 11724.70619696 0 5847.72655740 0 5108.27241671 0 2274
0.04650000 0.04648670 43024.83978030 0 253.51859244 0 11904.18858227 0 401.09275209 0 1538.74312470 0 2311
0.04750000 0.04749250 42664.76777719 0 2634.18358063 0 12494.45421835 0 -314.70425939 0 5835.08196245 0 2568
0.04850000 0.04851840 39673.91139718 0 1830.84212574 0 12483.27117029 0 -3098.65653445 0 3683.40815277 0 2493
0.04950000 0.04949480 39021.75146536 0 1896.32385472 0 14746.56508647 0 -2003.34894641 0 6661.84138434 0 2644
0.05050000 0.05050630 38972.14745017 0 801.26760845 0 16564.64082169 0 -1152.79509849 0 -655.70639746 0 2829
0.05150000 0.05149060 37070.47566257 0 454.40488886 0 15173.73537797 0 239.80108922 0 360.39199329 0 2784
0.05250000 0.05249300 38132.86522892 0 143.75752928 0 15644.53062926 0 672.90061067 0 -2425.06058178 0 3055
0.05350000 0.05348950 37486.90579900 0 -435.60408132 0 13718.72117355 0 448.88865664 0 -6099.24548798 0 3009
0.05450000 0.05448610 37157.17196590 0 762.75252657 0 12646.03434512 0 1457.89300887 0 -6918.45358433 0 3336
0.05550000 0.05550870 36670.65401337 0 701.53474988 0 11154.59219205 0 2494.96016836 0 -6337.12331438 0 3349
0.05650000 0.05647670 34426.73666562 0 1075.46819642 0 9950.51008500 0 1312.44695005 0 -7202.27048641 0 3324
0.05750000 0.05747970 34733.77223285 0 -181.79650120 0 9179.66590345 0 1164.73106465 0 -7569.09660765 0 3639
0.05850000 0.05849280 34209.05475969 0 714.30114040 0 9563.69841746 0 226.88190063 0 -10112.32103990 0 3846
0.05950000 0.05951020 33931.13940674 0 1241.25190147 0 8540.84812303 0 -2444.13819744 0 -8680.83552572 0 3787
0.06050000 0.06049470 32906.39574478 0 1228.26406446 0 9449.49845928 0 -2386.28530027 0 -5663.46092776 0 3930
0.06150000 0.06148310 32036.88607677 0 550.07198976 0 9210.50232807 0 590.16709239 0 -4510.84298647 0 4083
0.06250000 0.06249100 32065.23122830 0 -103.95628615 0 10225.05945120 0 2443.47385795 0 -5796.97102043 0 4303
0.06350000 0.06350600 31760.29940280 0 409.59740478 0 8875.37627278 0 2544.54203890 0 -5288.64058800 0 4470
0.06450000 0.06451750 31516.48681029 0 915.70451438 0 8686.19453093 0 1023.68625495 0 -5864.63399739 0 4479
0.06550000 0.06550280 30157.35893880 0 1018.47451165 0 9170.21013805 0 -436.34924878 0 -2003.93577963 0 4636
0.06650000 0.06648880 29882.10094381 0 733.69653178 0 10214.90612934 0 -591.41605063 0 -3194.76431387 0 4653
0.06750000 0.06749660 29553.25289670 0 172.74266119 0 9938.82878231 0 -1824.30945409 0 -2682.31497662 0 5220
0.06850000 0.06852730 29185.87315921 0 426.32879482 0 11189.91290822 0 602.20049500 0 -4957.45628035 0 5029
0.06950000 0.06949320 29062.85963048 0 156.04227367 0 10532.90329813 0 -2097.31976715 0 -3976.74725419 0 5040
0.07050000 0.07048030 29200.15645823 0 639.00268824 0 12036.72431035 0 -241.98122998 0 -6562.54477536 0 5475
0.07150000 0.07148790 28346.14804497 0 1114.19697418 0 11459.74546405 0 -1309.36884375 0 -4321.50623207 0 5509
0.07250000 0.07249820 27337.79142373 0 813.28883151 0 11760.58052937 0 744.30271173 0 -4830.86639070 0 5916
0.07350000 0.07351270 27529.12119660 0 357.31277976 0 11760.13763638 0 -368.97083056 0 -5584.67026435 0 5721
0.07450000 0.07449140 26979.82316235 0 -4.62555227 0 12140.36127065 0 1515.42480863 0 -5517.81556710 0 6028
0.07550000 0.07549160 26960.55731716 0 584.11938858 0 13498.82480265 0 913.07151554 0 -4000.71883742 0 6183
0.07650000 0.07648840 25854.09989804 0 569.49506195 0 11311.70848123 0 1818.16431382 0 -1621.75234386 0 6330
0.07750000 0.07749960 26722.17016382 0 -149.14975147 0 11116.61411792 0 2698.23697971 0 -2465.58529062 0 6583
0.07850000 0.07848650 25486.49871406 0 492.76163650 0 10245.62075839 0 1976.74214987 0 -1145.29913459 0 6549
0.07950000 0.07947320 25098.63517566 0 1157.55619817 0 9383.67348823 0 851.55257162 0 -2789.57258713 0 6828
0.08050000 0.08048110 24334.97693292 0 791.07996239 0 8899.30356671 0 531.45941174 0 -147.11022924 0 7147
0.08150000 0.08149960 23128.42569743 0 634.71659130 0 8013.47329192 0 242.43851700 0 -901.01928998 0 7386
0.08250000 0.08250610 23247.34246598 0 277.78469952 0 8196.72026767 0 414.38839973 0 -212.52552427 0 7227
0.08350000 0.08350160 22672.35663815 0 389.05049162 0 7399.74539955 0 570.06196499 0 -916.83389152 0 7798
0.08450000 0.08449610 22495.42088755 0 137.69543144 0 7271.09605748 0 765.73319641 0 -1762.04977164 0 7371
0.08550000 0.08548940 22178.30950474 0 275.52040909 0 6982.47376643 0 563.67766250 0 258.01063462 0 8256
0.08650000 0.08650700 21972.80715611 0 439.74955973 0 7680.55062928 0 124.45625266 0 -271.19998795 0 8037
0.08750000 0.08749060 21725.22997316 0 520.98609969 0 7027.19488638 0 -635.49829743 0 153.58089586 0 8155
0.08850000 0.08849210 21061.22265379 0 463.85954702 0 8447.75201596 0 -1070.21437830 0 -17.99640314 0 8718
0.08950000 0.08949900 20969.65452754 0 688.55355626 0 8448.51600637 0 -903.76190483 0 -471.37544111 0 8571
0.09050000 0.09049190 20390.79338602 0 313.44865776 0 9539.25072426 0 596.09521510 0 -511.75067356 0 8932
0.09150000 0.09150830 20357.68713481 0 -98.92745766 0 9689.70147389 0 105.25041948 0 -388.21120940 0 9285
0.09250000 0.09250820 20297.23224130 0 344.75344172 0 9336.21750406 0 566.26305034 0 -1179.23581016 0 9204
0.09350000 0.09350330 19753.47036946 0 906.79572184 0 9035.78104243 0 475.63939340 0 -136.01797423 0 9349
0.09450000 0.09448040 19015.38919705 0 590.52251402 0 8464.68160061 0 1023.25000535 0 498.39191367 0 9564
0.09550000 0.09549270 18536.62187189 0 357.88079002 0 8208.02511131 0 713.31459626 0 385.59371181 0 10155
0.09650000 0.09649430 18239.99429000 0 414.79696852 0 7613.29732833 0 1132.76526290 0 488.78002849 0 9913
0.09750000 0.09749140 17840.94770353 0 334.25134163 0 7440.45833791 0 903.18725118 0 -53.28290583 0 10476
0.09850000 0.09850240 17448.65523521 0 549.50176503 0 6692.83282150 0 287.15077908 0 1063.97290880 0 10575
0.09950000 0.09950330 17148.48450937 0 171.15710428 0 6527.30156546 0 1073.16515286 0 172.07721447 0 10882
0.10050000 0.10051200 16867.46890548 0 294.82390018 0 6061.61065592 0 271.56648190 0 44.77814242 0 10875
0.10150000 0.10150300 16595.86477768 0 400.88459238 0 5954.69628747 0 153.66615276 0 -42.38264494 0 11118
0.10250000 0.10250800 16633.95357505 0 -83.09347956 0 6142.79294149 0 281.04882087 0 384.77546701 0 11575
0.10350000 0.10349800 16614.13411363 0 -256.59005535 0 5839.03478241 0 534.58734350 0 758.14976114 0 11364
0.10450000 0.10450100 16881.53075800 0 -107.05686927 0 5818.69492172 0 382.49678256 0 303.71386978 0 12093
0.10550000 0.10551000 16911.31531176 0 115.27840262 0 6079.84677489 0 363.65611465 0 1319.21214052 0 12067
0.10650000 0.10649700 16720.53915513 0 345.69791102 0 6112.00080617 0 237.98079902 0 1712.02500811 0 12054
0.10750000 0.10749900 16598.41141238 0 292.56736038 0 6063.88048250 0 487.43141933 0 2002.61817297 0 12807
0.10850000 0.10850100 16353.82375714 0 83.61941499 0 6309.03282631 0 390.88739031 0 1295.48414843 0 12736
0.10950000 0.10950300 16241.66110673 0 233.42675183 0 6245.54411580 0 256.72513771 0 1789.42055859 0 12933
0.11050000 0.11050200 15937.83651370 0 613.44665532 0 6100.92848135 0 -340.76076139 0 1713.63049521 0 13428
0.11150000 0.11150900 15462.39088599 0 543.32562225 0 6048.05813034 0 77.16591047 0 1167.55450748 0 13453
0.11250000 0.11250000 15077.29542880 0 254.81183998 0 5541.33318501 0 292.66590407 0 2440.41789630 0 13668
0.11350000 0.11349100 14831.71126432 0 178.07841452 0 5605.13192062 0 911.06853198 0 1924.44755975 0 13791
0.11450000 0.11448600 14895.70930177 0 -271.09922979 0 4587.06487052 0 1487.95437075 0 1427.28910307 0 14205
0.11550000 0.11549300 14939.11281506 0 -92.85439822 0 4640.47776544 0 1003.05962104 0 917.17159742 0 14776
0.11650000 0.11649800 14697.84685726 0 603.20586210 0 4101.46592095 0 261.34783332 0 1497.58729335 0 14553
0.11750000 0.11747300 14213.76481619 0 752.00129917 0 3910.55689642 0 -231.48355882 0 1782.69965743 0 14568
0.11850000 0.11849100 13857.90029652 0 142.05682019 0 4203.40881555 0 54.81542631 0 2094.92814499 0 16015
0.11950000 0.11950300 13799.65986798 0 -181.37686009 0 4163.65916945 0 49.12281195 0 1519.90910018 0 15270
0.12050000 0.12050700 13949.46842277 0 20.92315076 0 4267.61722718 0 678.55303249 0 1107.60894091 0 15999
0.12150000 0.12150000 14093.96226165 0 -165.94978992 0 3880.18550945 0 300.03342901 0 1762.94662995 0 15670
0.12250000 0.12250700 13825.56910805 0 -9.85672749 0 3489.03349058 0 97.17160839 0 1087.86587852 0 16887
0.12350000 0.12352200 13921.01254799 0 386.23590665 0 3749.77566773 0 -150.46403643 0 749.75583170 0 16407
0.12450000 0.12449800 13549.86822007 0 416.81323887 0 3896.69434575 0 -700.87041039 0 665.73017312 0 16306
0.12550000 0.12549900 13122.47648207 0 562.43202595 0 4545.89796684 0 -661.07979669 0 847.38605579 0 17523
0.12650000 0.12650100 13023.60062144 0 274.34895712 0 5031.70729059 0 -673.81186300 0 384.07237438 0 17154
0.12750000 0.12750600 12551.69813767 0 135.64372966 0 5595.74258917 0 -410.98919601 0 673.79968344 0 18007
0.12850000 0.12850300 12961.48487920 0 97.02368213 0 5751.89558609 0 -151.89679526 0 687.50389987 0 17496
0.12950000 0.12949900 12673.16154093 0 22.21495890 0 5775.82288002 0 591.45591100 0 1179.49047363 0 18405
0.13050000 0.13049000 12613.70315665 0 128.45225469 0 5470.64746337 0 754.20801351 0 993.26836420 0 18100
0.13150000 0.13148800 12468.54497828 0 133.44587318 0 4818.91935222 0 622.61564750 0 440.37957501 0 19059
0.13250000 0.13249300 12540.07219661 0 95.38531023 0 4578.02985347 0 295.12174572 0 209.63675472 0 18957
0.13350000 0.13349100 12264.59275512 0 95.09731906 0 4524.20728252 0 -90.94818678 0 -290.57987808 0 19468
0.13450000 0.13450700 12272.56482899 0 204.07955489 0 4403.70717152 0 -177.63995046 0 331.83425312 0 19953
0.13550000 0.13551000 12015.46544670 0 62.54911303 0 4400.45190802 0 -136.13312641 0 -108.39684202 0 19956
0.13650000 0.13649900 12304.67457096 0 52.33987593 0 4636.55816246 0 19.71205987 0 -332.07452257 0 19723
0.13750000 0.13749600 12094.30039941 0 -20.85859911 0 4617.25910030 0 -144.89022811 0 -419.90684642 0 20946
0.13850000 0.13851100 12061.52631794 0 212.44137460 0 4525.08199618 0 79.03491889 0 -365.04901311 0 20955
0.13950000 0.13949800 12028.53078998 0 136.19513143 0 4137.90494193 0 182.62803279 0 -412.98000002 0 20506
0.14050000 0.14048300 11794.79401306 0 138.65429477 0 4215.28942008 0 370.14560422 0 -865.96984576 0 21447
0.14150000 0.14148400 11768.77404974 0 182.07330932 0 3775.48560596 0 51.72458684 0 -558.07728060 0 21771
0.14250000 0.14249400 11359.20875470 0 298.71692958 0 3792.93558988 0 177.76396050 0 -1456.74148709 0 22470
0.14350000 0.14350900 11168.76476782 0 365.49190610 0 3927.29825155 0 -515.95040636 0 -1265.85460722 0 22519
0.14450000 0.14449900 10884.89250412 0 407.56341871 0 4201.74796683 0 8.39879020 0 -1154.15699445 0 22218
0.14550000 0.14550500 10697.26088774 0 152.84458626 0 4048.24125554 0 51.38643804 0 -365.82407585 0 23559
0.14650000 0.14650700 10525.20803238 0 -69.45381478 0 4235.85072727 0 467.79686573 0 -317.30625572 0 23044
0.14750000 0.14750500 10795.68278305 0 63.99681950 0 4114.39839634 0 583.14945292 0 -389.94513546 0 23649
0.14850000 0.14849900 10577.07080183 0 119.09835468 0 3895.43210072 0 742.62304005 0 433.66310278 0 23640
0.14950000 0.14949500 10389.19559431 0 202.28805274 0 3531.67301345 0 388.41936910 0 257.62974665 0 24457
0.15050000 0.15050000 10228.53616119 0 307.67111867 0 3487.09583373 0 386.04656989 0 511.67206005 0 24591
0.15150000 0.15149900 9903.10946245 0 250.86344895 0 3235.52154153 0 145.54570974 0 239.62836096 0 25020
0.15250000 0.15250500 9708.44691981 0 164.16050223 0 3053.86898056 0 225.09593463 0 875.72677839 0 25297
0.15350000 0.15350100 9703.76332641 0 -108.25799507 0 3078.63777117 0 125.48930056 0 493.93751739 0 25452
0.15450000 0.15450400 9813.61186094 0 -131.40081479 0 3041.37939816 0 393.03652855 0 803.05246721 0 26061
0.15550000 0.15549900 9862.56260896 0 138.22911750 0 3096.41992483 0 67.51250407 0 259.43564283 0 26128
0.15650000 0.15649500 9783.83837950 0 261.26589812 0 2992.81618151 0 68.67520890 0 847.85220066 0 26331
0.15750000 0.15749700 9495.78077702 0 274.02232354 0 3106.03070278 0 -210.93443119 0 674.78179866 0 27345
0.15850000 0.15849900 9382.26730298 0 199.01728799 0 3074.06490102 0 104.73810301 0 1019.47323535 0 26980
0.15950000 0.15949700 9286.94565861 0 35.78088199 0 3060.75596659 0 182.23717973 0 641.33451984 0 27777
0.16050000 0.16050000 9149.72633714 0 106.64730397 0 2932.70453007 0 237.36849946 0 599.82548133 0 28224
0.16150000 0.16150500 9107.48541795 0 112.45385256 0 2714.76796066 0 44.31122248 0 499.30427323 0 28075
0.16250000 0.16249700 8978.71428031 0 179.51228059 0 2723.12756590 0 56.80567670 0 567.44336017 0 28590
0.16350000 0.16349900 8944.37900105 0 124.99326041 0 2553.14523528 0 177.21255872 0 316.87554229 0 29163
0.16450000 0.16449100 8738.17909595 0 29.04569753 0 2605.76092282 0 230.66863571 0 391.81082220 0 28996
0.16550000 0.16550500 8782.86699892 0 -18.93433978 0 2263.50429035 0 162.84289557 0 116.09996912 0 30777
0.16650000 0.16650700 8701.88401520 0 158.77935236 0 2378.53467289 0 -186.09588492 0 -39.75341069 0 29211
0.16750000 0.16749900 8613.70402034 0 253.71125089 0 2330.81295292 0 -302.95209383 0 -135.93936073 0 30922
0.16850000 0.16850800 8327.06367544 0 288.01331318 0 2619.86706464 0 -406.66434594 0 185.57770012 0 30867
0.16950000 0.16949900 8198.42540569 0 123.06224696 0 2609.91304463 0 209.36880446 0 152.47366338 0 30852
0.17050000 0.17049200 8163.40364229 0 52.48470194 0 2533.77973917 0 398.86832203 0 -2.60264960 0 31257
0.17150000 0.17149500 8028.06661603 0 51.41899067 0 2443.98318489 0 187.48989062 0 90.71378567 0 32608
0.17250000 0.17250900 8082.67532204 0 88.36158098 0 2297.62919544 0 415.21218070 0 242.71532512 0 32361
0.17350000 0.17350400 7992.82340614 0 -32.16897891 0 2268.14359445 0 291.11467136 0 726.94684257 0 32508
0.17450000 0.17449800 8070.20788429 0 -128.88296812 0 2058.59984726 0 365.25495835 0 644.46577330 0 32791
0.17550000 0.17549800 8163.32613602 0 -28.18792452 0 2112.84316654 0 273.31923092 0 808.98834055 0 33633
0.17650000 0.17650100 8182.07158194 0 -27.82929192 0 1968.77007600 0 -202.84941961 0 276.93434497 0 33984
0.17750000 0.17750300 8238.72866803 0 102.72083615 0 1970.65237122 0 5.79345002 0 699.44650942 0 34069
0.17850000 0.17849800 8049.07081621 0 329.51681553 0 2287.14370384 0 -538.33421822 0 533.60079936 0 34536
