### header ###
fiducial parameters:
Omega_m = 0.31
Omega_nu = 0
Omega_de = 0.69
Omega_k = 0
H_0 = 100
w_de = -1
zeff = 0
beta = 0
fgrowth = 0
b_1 = 2
gamma = 0.55
Lx = 3500 Ly = 3500 Lz = 3500
nx = 700 ny = 700 nz = 700
xoffset = -685.467585 yoffset = -31.7331281 zoffset = 572.489161
bins = 400 dk = 0.001
kx_ny = 0.628318531 ky_ny = 0.628318531 kz_ny = 0.628318531
############################
A(data) = 7.99983782 (not used)
A(ran) = 7.99159207 (used)
Ngal = 475055
weighted Ngal = 0
Nran = 23820508
weighted Nran = 0
SN(data) = 3497.61571
SN(ran) = 69.6096652
SN(data+ran) = 3567.22537
############################
13 columns: k_central k_mean P_0(k) sigma^{lin}_{P_0(k)} P^img_1(k) sigma^{lin}_{P_1(k)} P_2(k) sigma^{lin}_{P_2(k)} P^img_3(k) sigma^{lin}_{P_3(k)} P_4(k) sigma^{lin}_{P_4(k)} N_modes
### header ###
0.00050000 0 0 0 0 0 0 0 0 0 0 0 0
0.00150000 0.00179520 27881.77474207 0 -32194.77742868 0 2364.56139897 0 -7273.62054754 0 -31266.25226939 0 3
0.00250000 0.00253879 45978.05025593 0 -27022.23016640 0 -5713.52998059 0 -5008.63256566 0 36379.78404039 0 6
0.00350000 0.00331552 48049.35005975 0 -10760.31777758 0 -4682.39758721 0 2842.69760161 0 19595.24684780 0 7
0.00450000 0.00420575 51881.03878649 0 -5107.15411190 0 -5210.07137109 0 -17292.86762501 0 5268.67718635 0 24
0.00550000 0.00557378 51296.19858957 0 534.81654062 0 6345.30576242 0 -3887.83648590 0 1917.93703276 0 45
0.00650000 0.00659388 54313.51782590 0 5511.16109988 0 23363.26970683 0 -18905.88390459 0 30082.39929978 0 40
0.00750000 0.00754703 47067.56701808 0 14829.16462961 0 25977.77776626 0 -12678.47625684 0 24153.39080589 0 57
0.00850000 0.00846663 50113.12068270 0 10661.12081953 0 43381.47936270 0 4531.30464273 0 46628.77078552 0 75
0.00950000 0.00948925 48520.03458779 0 -31.00959578 0 40873.37634478 0 9232.77984560 0 20881.96171497 0 112
0.01050000 0.01054430 63068.18361351 0 -8096.74824688 0 58573.48407662 0 10370.73802884 0 18055.19718877 0 105
0.01150000 0.01145670 72108.18321169 0 -1058.22637222 0 57287.65499544 0 16319.72099670 0 -2520.82511914 0 144
0.01250000 0.01249090 78131.52791303 0 -2178.29167855 0 62764.02685074 0 8986.85243905 0 3740.65207208 0 169
0.01350000 0.01339930 76607.97601799 0 -10190.49165311 0 59394.16479218 0 24217.49956659 0 -19772.62549139 0 180
0.01450000 0.01448870 86923.83960502 0 -1808.37637868 0 65794.96504659 0 11027.14973339 0 -13562.82284010 0 267
0.01550000 0.01550050 91254.77945784 0 8914.12940965 0 61321.63509661 0 -3125.70622398 0 -4492.42971029 0 238
0.01650000 0.01653350 77724.06635971 0 4678.21224843 0 49060.47476219 0 7394.13173087 0 -7438.47639177 0 315
0.01750000 0.01747870 82520.81891764 0 -2601.95204308 0 55282.56769403 0 12785.54563784 0 -4210.77191156 0 297
0.01850000 0.01844180 78926.07794202 0 -926.66943765 0 46304.13022183 0 3294.52596049 0 -21989.41564334 0 388
0.01950000 0.01947590 85025.48951487 0 -252.77010328 0 48886.74998578 0 8130.82886268 0 -5477.71160661 0 399
0.02050000 0.02045430 86033.40324311 0 -2387.89078736 0 38906.82073374 0 22156.05413186 0 -7267.48647959 0 462
0.02150000 0.02154770 82612.60849039 0 -1458.03694909 0 18830.48137258 0 16752.98106685 0 -6744.21948099 0 571
0.02250000 0.02255340 86708.37216405 0 260.76210734 0 21400.70013273 0 9362.11567181 0 -14548.25974896 0 510
0.02350000 0.02348930 82875.35475833 0 2608.93868004 0 17913.80360084 0 1517.59498429 0 -5819.44783981 0 555
0.02450000 0.02439640 79416.24976174 0 12870.24892270 0 18117.31293101 0 -8826.29265686 0 -9166.71128341 0 592
0.02550000 0.02547300 72500.36495677 0 6527.98804960 0 22097.59225681 0 -14372.65267734 0 -1130.34042376 0 837
0.02650000 0.02652900 70805.08130378 0 3088.92396093 0 33832.37426936 0 -6723.41458265 0 2674.49791529 0 723
0.02750000 0.02749970 69390.14891521 0 7146.17808888 0 39396.66038372 0 -4792.63365310 0 4074.32765282 0 826
0.02850000 0.02848090 67160.73631297 0 -604.58325931 0 37654.98368975 0 15601.79145546 0 3172.80789376 0 831
0.02950000 0.02946900 64056.94221981 0 -2765.39062973 0 31488.36310525 0 15648.29521970 0 -2259.25251762 0 996
0.03050000 0.03053250 64707.66274940 0 -1659.26538035 0 28958.00471445 0 14220.40821108 0 -760.39855032 0 1041
0.03150000 0.03150510 68260.66106046 0 594.66467073 0 30140.19683533 0 7043.93624150 0 3420.31864275 0 1036
0.03250000 0.03246190 62981.04441718 0 3415.85649585 0 22945.62161467 0 887.52876942 0 3804.42866304 0 1059
0.03350000 0.03345080 61779.91862086 0 4429.41710975 0 28145.07462626 0 119.82248472 0 10964.72396606 0 1302
0.03450000 0.03451200 55367.82459513 0 5844.31628135 0 22013.33186494 0 1579.00209774 0 7695.65328033 0 1339
0.03550000 0.03553350 53721.48061785 0 2223.48890846 0 24225.25019396 0 8180.25572067 0 4255.18300640 0 1365
0.03650000 0.03647120 51360.08590377 0 1829.98955673 0 19683.05038361 0 7806.64226431 0 9064.02654304 0 1308
0.03750000 0.03744890 50256.95018209 0 684.23534959 0 15381.12002182 0 6006.52583994 0 3264.37602001 0 1579
0.03850000 0.03847530 47174.74712232 0 1513.57573038 0 13487.08813834 0 280.62142913 0 4980.75245177 0 1662
0.03950000 0.03950240 47427.19612819 0 3020.76272935 0 12338.00226867 0 1159.20597456 0 2602.00740471 0 1683
0.04050000 0.04050350 43299.10126605 0 381.41501642 0 11250.14635523 0 -3308.53245138 0 3307.69095470 0 1822
0.04150000 0.04152450 43659.94833189 0 1986.09826434 0 13443.02028557 0 -3052.69531412 0 427.45927918 0 1887
0.04250000 0.04250150 42700.53138636 0 12.06573380 0 14897.48087374 0 177.84811017 0 -162.87721978 0 1920
0.04350000 0.04349210 42828.19529152 0 -154.50100605 0 17644.19249151 0 982.87920183 0 -1536.39579184 0 2005
0.04450000 0.04448520 42300.70973716 0 1085.29377747 0 14633.18448032 0 2488.42749672 0 -1100.24363044 0 2151
0.04550000 0.04548030 41164.13559452 0 1530.71568920 0 15590.94057714 0 -321.00109051 0 -1546.94771739 0 2274
0.04650000 0.04648670 41799.13342287 0 1124.04027094 0 15120.14532585 0 2373.78464554 0 4132.87810646 0 2311
0.04750000 0.04749250 41496.08389259 0 212.06602279 0 19526.37698743 0 -592.43913344 0 4683.42731342 0 2568
0.04850000 0.04851840 40070.30062569 0 1960.58762796 0 17592.81690435 0 3271.61732044 0 6164.16252839 0 2493
0.04950000 0.04949480 39905.32298589 0 1438.12890907 0 17097.55181521 0 3705.29813894 0 7625.68725980 0 2644
0.05050000 0.05050630 38628.57321105 0 363.34830402 0 14932.35869692 0 1882.76025681 0 8293.13807219 0 2829
0.05150000 0.05149060 37159.94004711 0 1588.12569339 0 14554.46025086 0 3552.46683946 0 5086.13883939 0 2784
0.05250000 0.05249300 35933.34790370 0 622.05317340 0 11269.96581666 0 3024.40552421 0 3789.40351826 0 3055
0.05350000 0.05348950 35213.42534399 0 250.53460090 0 11432.95043799 0 -62.68939938 0 3721.84019221 0 3009
0.05450000 0.05448610 36012.84719590 0 866.04735204 0 12300.68853403 0 -3110.60357293 0 2467.16863307 0 3336
0.05550000 0.05550870 33666.84301332 0 1660.90408442 0 13176.73087368 0 -2287.99627285 0 830.41882524 0 3349
0.05650000 0.05647670 33777.67698476 0 832.90345493 0 13769.10025148 0 -3142.71331490 0 443.28384581 0 3324
0.05750000 0.05747970 32873.62166331 0 904.39302735 0 16677.35708834 0 -622.00224071 0 681.57134823 0 3639
0.05850000 0.05849280 33579.70381700 0 -151.98537386 0 18412.50111067 0 799.18268969 0 1014.48847472 0 3846
0.05950000 0.05951020 34039.98035971 0 -1271.47934822 0 17228.53741781 0 2167.14184745 0 -2558.99142279 0 3787
0.06050000 0.06049470 34647.62954576 0 0.99276568 0 15498.15449516 0 3365.14524818 0 -335.32867883 0 3930
0.06150000 0.06148310 34289.10766813 0 487.75030228 0 16438.52704200 0 338.54851089 0 -1071.11677277 0 4083
0.06250000 0.06249100 32978.36585610 0 1974.28409376 0 13889.56714550 0 2810.96431868 0 1282.65132397 0 4303
0.06350000 0.06350600 31329.91813710 0 1333.97154950 0 14740.14313807 0 1527.88117405 0 3528.92707690 0 4470
0.06450000 0.06451750 30965.30648082 0 66.09081757 0 13426.52252159 0 2552.24837697 0 3393.56790599 0 4479
0.06550000 0.06550280 30993.65163235 0 -364.39020978 0 13513.21882492 0 2766.11033084 0 3067.89761610 0 4636
0.06650000 0.06648880 31222.51658636 0 532.46477883 0 13512.99737842 0 -1647.52871604 0 3539.53436408 0 4653
0.06750000 0.06749660 31381.51517075 0 687.46403950 0 14008.37319081 0 -937.04309877 0 2741.14223838 0 5220
0.06850000 0.06852730 29807.03058154 0 966.41576205 0 14044.80113946 0 -897.62894412 0 1558.55151380 0 5029
0.06950000 0.06949320 29577.27984155 0 775.81454816 0 14455.69511348 0 106.34624746 0 1062.39953144 0 5040
0.07050000 0.07048030 29606.40005583 0 397.04692460 0 13534.69913507 0 196.53930169 0 -106.95832558 0 5475
0.07150000 0.07148790 28112.52199129 0 1664.22578187 0 12105.81561722 0 1321.28266526 0 -2658.33232106 0 5509
0.07250000 0.07249820 27953.85557664 0 157.26908726 0 13136.31688809 0 820.18024648 0 -752.22938906 0 5916
0.07350000 0.07351270 27070.94839560 0 -260.99462616 0 12041.37468677 0 1862.79685516 0 -717.52429415 0 5721
0.07450000 0.07449140 27002.96432122 0 385.06002575 0 11503.92404008 0 2044.36083754 0 -1018.07812242 0 6028
0.07550000 0.07549160 27572.74615639 0 -286.72338734 0 11657.16501557 0 614.30365326 0 -1294.63157942 0 6183
0.07650000 0.07648840 27201.26965872 0 -3.62593171 0 10466.51363852 0 -286.83189612 0 83.79856520 0 6330
0.07750000 0.07749960 28129.90554126 0 169.59147755 0 11773.86731916 0 43.68386455 0 699.09440949 0 6583
0.07850000 0.07848650 27486.60346930 0 267.12869411 0 11163.22860541 0 223.47051735 0 1802.20909376 0 6549
0.07950000 0.07947320 27279.99388818 0 176.03667783 0 10512.77381161 0 1355.20826850 0 -467.14027687 0 6828
0.08050000 0.08048110 26891.35528705 0 501.11570557 0 10743.77572430 0 1968.59291881 0 770.00379210 0 7147
0.08150000 0.08149960 26252.03925202 0 536.43642174 0 9502.22487006 0 1498.27377748 0 388.93755390 0 7386
0.08250000 0.08250610 25348.98043981 0 1038.21425234 0 8921.93539864 0 637.37948542 0 1003.05187041 0 7227
0.08350000 0.08350160 24488.21790841 0 1503.98709709 0 8336.51944083 0 -70.18115580 0 2268.66399372 0 7798
0.08450000 0.08449610 23977.56228777 0 462.73238436 0 9074.21308187 0 -441.31075753 0 1928.38930739 0 7371
0.08550000 0.08548940 22880.29489824 0 446.72512437 0 8404.93533589 0 911.14825272 0 1916.15438847 0 8256
0.08650000 0.08650700 22885.60961416 0 474.83664985 0 8842.45825109 0 -165.55672239 0 324.91737180 0 8037
0.08750000 0.08749060 21621.26084312 0 951.25774938 0 8280.74814072 0 1515.31408538 0 1234.30955381 0 8155
0.08850000 0.08849210 21588.15459191 0 450.71116130 0 7219.76475962 0 519.18241798 0 -23.11713193 0 8718
0.08950000 0.08949900 20786.07538204 0 319.70784298 0 7469.06922524 0 1158.59699670 0 1249.72222996 0 8571
0.09050000 0.09049190 20776.66390595 0 499.60544047 0 7528.71583904 0 169.39660463 0 1158.65235832 0 8932
0.09150000 0.09150830 20197.47059469 0 -20.11631045 0 7139.40182609 0 712.18854082 0 2729.70452684 0 9285
0.09250000 0.09250820 20959.68943520 0 -107.09019697 0 6882.50174565 0 1289.97013067 0 2882.83477908 0 9204
0.09350000 0.09350330 20296.12500882 0 316.51679896 0 6580.10548252 0 1414.36770001 0 2632.84382933 0 9349
0.09450000 0.09448040 20462.09915785 0 280.25714965 0 6035.24745052 0 -712.40777285 0 1509.81113995 0 9564
0.09550000 0.09549270 19819.23997888 0 622.23143783 0 6978.84204389 0 -1099.07660740 0 1104.59726856 0 10155
0.09650000 0.09649430 19498.91762188 0 686.30255263 0 6756.57619548 0 -1621.27623390 0 269.56792727 0 9913
0.09750000 0.09749140 18516.80241046 0 794.23114603 0 7664.46254131 0 -533.93296910 0 104.84373298 0 10476
0.09850000 0.09850240 18286.60877748 0 228.38995127 0 6989.77042849 0 384.39457903 0 -511.71745659 0 10575
0.09950000 0.09950330 18044.23558720 0 80.17060725 0 6935.97000220 0 890.29685062 0 -2402.72770262 0 10882
0.10050000 0.10051200 17826.22151152 0 367.21254538 0 6820.80675176 0 665.46000839 0 -1554.38831967 0 10875
0.10150000 0.10150300 17820.90679561 0 186.89087785 0 7139.14716262 0 539.83008930 0 -1682.06329715 0 11118
0.10250000 0.10250800 17169.41120328 0 513.70383166 0 6771.11415797 0 -111.22371727 0 -52.73726166 0 11575
0.10350000 0.10349800 17223.55487165 0 710.94401151 0 7331.28521520 0 562.00795591 0 161.97593254 0 11364
0.10450000 0.10450100 16592.43235698 0 380.26681634 0 7236.09643873 0 147.68931183 0 20.22005814 0 12093
0.10550000 0.10551000 16230.36733541 0 28.46849723 0 7407.00884463 0 364.03257369 0 -19.46647571 0 12067
0.10650000 0.10649700 16265.79877483 0 133.27757384 0 7180.09261980 0 85.17341577 0 -400.91448766 0 12054
0.10750000 0.10749900 16234.13192585 0 54.48635682 0 7165.05640269 0 300.40213742 0 123.92921000 0 12807
0.10850000 0.10850100 16107.90742292 0 105.85131454 0 6716.36151174 0 369.38382827 0 -303.74597952 0 12736
0.10950000 0.10950300 16041.69492050 0 238.05055467 0 6457.16946006 0 824.64128615 0 -171.72843624 0 12933
0.11050000 0.11050200 15735.43441602 0 399.72089105 0 6240.11867664 0 153.62850686 0 -238.09373674 0 13428
0.11150000 0.11150900 15336.16638306 0 422.09695227 0 5909.32190036 0 691.37810633 0 -152.21789268 0 13453
0.11250000 0.11250000 15123.68846979 0 -45.60657376 0 5889.13705222 0 297.84110869 0 7.73714128 0 13668
0.11350000 0.11349100 14812.33469589 0 382.17679237 0 5382.89928918 0 727.42516701 0 -151.56351828 0 13791
0.11450000 0.11448600 14897.81304349 0 117.42643363 0 5369.37998058 0 721.43725374 0 -497.42419248 0 14205
0.11550000 0.11549300 14364.34843373 0 62.29998572 0 4591.51594510 0 314.33555097 0 243.88345539 0 14776
0.11650000 0.11649800 14472.96794020 0 272.51759460 0 4844.24175908 0 75.17222766 0 -901.88293131 0 14553
0.11750000 0.11747300 14241.55635149 0 315.95100317 0 4271.28216669 0 52.83735548 0 -482.21967604 0 14568
0.11850000 0.11849100 13953.12228996 0 340.85819784 0 4327.29705795 0 -86.31563680 0 -138.57346680 0 16015
0.11950000 0.11950300 13885.13821558 0 -87.06290800 0 4132.93346808 0 259.83867545 0 50.28097713 0 15270
0.12050000 0.12050700 13956.88688040 0 -200.75232129 0 3879.77583343 0 381.61763997 0 -598.03619364 0 15999
0.12150000 0.12150000 14220.18676459 0 -6.45620617 0 4245.58330079 0 109.84089462 0 -322.30983931 0 15670
0.12250000 0.12250700 14141.13036538 0 -24.06935186 0 4011.12682275 0 358.91937409 0 -175.39559022 0 16887
0.12350000 0.12352200 13996.19363351 0 342.80249808 0 4613.01839989 0 39.63050788 0 642.11733321 0 16407
0.12450000 0.12449800 13855.90727805 0 434.75704847 0 4121.56219049 0 129.33250451 0 685.39019306 0 16306
0.12550000 0.12549900 13578.43481810 0 18.18928304 0 4596.90816728 0 423.78769627 0 843.81412380 0 17523
0.12650000 0.12650100 13241.61469712 0 424.10436476 0 4126.42294109 0 407.22792727 0 536.32459126 0 17154
0.12750000 0.12750600 13173.74134598 0 339.51069591 0 4330.57446609 0 0.70632464 0 831.25146406 0 18007
0.12850000 0.12850300 12799.60749036 0 157.93342675 0 3795.19434414 0 -378.37566326 0 149.24940239 0 17496
0.12950000 0.12949900 12863.71625106 0 256.20141675 0 4177.86496220 0 -316.84786148 0 71.65842538 0 18405
0.13050000 0.13049000 12410.08310324 0 187.52753652 0 3928.97017260 0 -388.26767825 0 -316.87664952 0 18100
0.13150000 0.13148800 12563.32407873 0 90.20656247 0 3998.44901083 0 269.14053553 0 -62.21295724 0 19059
0.13250000 0.13249300 12368.56188517 0 -76.39981631 0 3769.65049078 0 444.42650973 0 -505.82033639 0 18957
0.13350000 0.13349100 12499.99038076 0 -134.93510087 0 3382.32949630 0 1137.98032789 0 -186.53656345 0 19468
0.13450000 0.13450700 12466.21979007 0 86.89427650 0 3366.77287993 0 666.90051785 0 -58.32845353 0 19953
0.13550000 0.13551000 12272.34338249 0 309.77818208 0 2888.22700127 0 351.14106590 0 -34.83497328 0 19956
0.13650000 0.13649900 11938.18061946 0 359.87380849 0 3079.92216085 0 -1.78224569 0 334.35652871 0 19723
0.13750000 0.13749600 11617.74753921 0 359.60696546 0 3000.38965168 0 -198.38727271 0 676.72388443 0 20946
0.13850000 0.13851100 11448.56241598 0 169.22941253 0 3328.44049141 0 -195.27041327 0 747.32877810 0 20955
0.13950000 0.13949800 11442.58336058 0 34.35310571 0 3386.41518416 0 -188.54065424 0 838.16391645 0 20506
0.14050000 0.14048300 11420.54943419 0 -12.42691304 0 3695.58771007 0 -63.39503864 0 803.18754958 0 21447
0.14150000 0.14148400 11645.64979776 0 31.17357691 0 3980.17967488 0 168.14432470 0 811.30577813 0 21771
0.14250000 0.14249400 11488.97640157 0 192.04283058 0 4160.86894360 0 -90.37796206 0 1046.72997736 0 22470
0.14350000 0.14350900 11360.53743368 0 359.09542405 0 3941.17187455 0 378.50853116 0 1060.68332109 0 22519
0.14450000 0.14449900 11094.24802179 0 224.98742585 0 3590.63314311 0 370.95388393 0 1597.51502483 0 22218
0.14550000 0.14550500 10959.86321546 0 -23.85078417 0 3220.97250672 0 489.31925071 0 924.05304730 0 23559
0.14650000 0.14650700 10810.38683041 0 -17.92720111 0 3218.03834064 0 291.99602842 0 661.38982179 0 23044
0.14750000 0.14750500 10792.38323026 0 78.88212081 0 2914.01444577 0 393.62889793 0 107.04856503 0 23649
0.14850000 0.14849900 10483.97469476 0 306.51406072 0 2639.84153861 0 408.40491540 0 273.72669247 0 23640
0.14950000 0.14949500 10349.81133493 0 245.59745127 0 2450.77052001 0 -60.02539803 0 257.77036517 0 24457
0.15050000 0.15050000 10081.86107432 0 238.03948235 0 2484.98400370 0 70.60079691 0 146.53557558 0 24591
0.15150000 0.15149900 9881.45199510 0 365.95030035 0 2526.17305202 0 -249.44840584 0 313.29585967 0 25020
0.15250000 0.15250500 9562.95657169 0 346.82618092 0 2574.78055798 0 -76.44676297 0 381.88669746 0 25297
0.15350000 0.15350100 9380.72824983 0 218.68838026 0 2546.07001972 0 28.40616005 0 252.57965930 0 25452
0.15450000 0.15450400 9202.14272283 0 74.09588696 0 2428.34906225 0 203.21812802 0 118.98763143 0 26061
0.15550000 0.15549900 9154.31027961 0 -61.93083441 0 2087.18858994 0 93.08304173 0 -274.83613942 0 26128
0.15650000 0.15649500 9223.27979091 0 -2.23573490 0 2041.70347958 0 168.55400071 0 -485.28006662 0 26331
0.15750000 0.15749700 9231.79440869 0 -21.11448054 0 1948.29734741 0 -173.44686105 0 -654.01565346 0 27345
0.15850000 0.15849900 9233.72099321 0 -31.05532448 0 1880.70080440 0 46.68767555 0 -457.39441656 0 26980
0.15950000 0.15949700 9304.06347278 0 -43.79968107 0 2056.29680369 0 91.07717937 0 -368.58219196 0 27777
0.16050000 0.16050000 9412.11829069 0 116.82409916 0 2116.47488908 0 118.02433917 0 -508.62495626 0 28224
0.16150000 0.16150500 9338.88593434 0 227.35690336 0 2213.11414010 0 -60.95768778 0 -291.11356413 0 28075
0.16250000 0.16249700 9099.46905478 0 281.74748457 0 2376.40878653 0 -197.48044930 0 164.96213854 0 28590
0.16350000 0.16349900 8951.67566311 0 229.04543290 0 2502.66650643 0 -67.70615903 0 447.68177323 0 29163
0.16450000 0.16449100 8834.09864586 0 6.17123774 0 2590.83542896 0 265.63503749 0 821.59861129 0 28996
0.16550000 0.16550500 8765.54988290 0 128.61723233 0 2393.13906933 0 470.38446804 0 643.26885499 0 30777
0.16650000 0.16650700 8717.28561902 0 82.79341955 0 2428.98018477 0 325.10892302 0 507.13462134 0 29211
0.16750000 0.16749900 8671.21367545 0 24.09337881 0 2198.00041672 0 -27.46158002 0 545.88111481 0 30922
0.16850000 0.16850800 8517.65160254 0 190.11624607 0 2189.04290595 0 78.49458944 0 788.55325786 0 30867
0.16950000 0.16949900 8491.88630269 0 105.69131945 0 2455.59805363 0 -24.27496493 0 788.64294370 0 30852
0.17050000 0.17049200 8305.61658226 0 183.90577908 0 2327.33624293 0 -149.69783155 0 792.75299067 0 31257
0.17150000 0.17149500 8172.97013093 0 217.33534217 0 2418.63863339 0 -85.54854614 0 443.37463888 0 32608
0.17250000 0.17250900 8108.29668167 0 126.75265283 0 2412.83673518 0 -89.27560140 0 298.70917896 0 32361
0.17350000 0.17350400 8006.40914869 0 24.78838863 0 2391.69966710 0 -194.21632795 0 139.66519803 0 32508
0.17450000 0.17449800 8008.23608228 0 40.12964829 0 2436.47614867 0 -74.76354815 0 205.94524163 0 32791
0.17550000 0.17549800 8108.80600861 0 -0.68653950 0 2395.18744942 0 203.78945998 0 94.01311702 0 33633
0.17650000 0.17650100 7965.33082361 0 74.51796399 0 2308.96725606 0 275.52594525 0 -2.15516159 0 33984
0.17750000 0.17750300 8035.95011130 0 99.31011721 0 2354.82882546 0 189.27474938 0 121.51322872 0 34069
0.17850000 0.17849800 7842.80447717 0 89.85623411 0 2300.37513200 0 139.89328792 0 60.36255032 0 34536
