### header ###
fiducial parameters:
Omega_m = 0.31
Omega_nu = 0
Omega_de = 0.69
Omega_k = 0
H_0 = 100
w_de = -1
zeff = 0
beta = 0
fgrowth = 0
b_1 = 2
gamma = 0.55
Lx = 3500 Ly = 3500 Lz = 3500
nx = 700 ny = 700 nz = 700
xoffset = -685.467585 yoffset = -31.7331281 zoffset = 572.489161
bins = 400 dk = 0.001
kx_ny = 0.628318531 ky_ny = 0.628318531 kz_ny = 0.628318531
############################
A(data) = 7.99066237 (not used)
A(ran) = 7.98730786 (used)
Ngal = 475021
weighted Ngal = 0
Nran = 23820508
weighted Nran = 0
SN(data) = 3490.75571
SN(ran) = 69.5723482
SN(data+ran) = 3560.32806
############################
13 columns: k_central k_mean P_0(k) sigma^{lin}_{P_0(k)} P^img_1(k) sigma^{lin}_{P_1(k)} P_2(k) sigma^{lin}_{P_2(k)} P^img_3(k) sigma^{lin}_{P_3(k)} P_4(k) sigma^{lin}_{P_4(k)} N_modes
### header ###
0.00050000 0 0 0 0 0 0 0 0 0 0 0 0
0.00150000 0.00179520 33887.29300046 0 -51557.61617854 0 -806.17264835 0 -65477.52149404 0 67472.42225662 0 3
0.00250000 0.00253879 52178.99504736 0 -43319.80651346 0 -35683.11336280 0 -20655.53267243 0 -32249.58543653 0 6
0.00350000 0.00331552 70912.70430102 0 -15732.22344182 0 -12344.31349381 0 -22509.15057032 0 44429.91779978 0 7
0.00450000 0.00420575 77134.13289337 0 6117.22694348 0 -4475.46690867 0 -67229.49545010 0 18017.21911465 0 24
0.00550000 0.00557378 60347.71340556 0 17616.84384920 0 27512.06981638 0 -39131.14603457 0 21077.49897127 0 45
0.00650000 0.00659388 51251.02350431 0 1527.80366778 0 -7021.45942212 0 10052.15402683 0 18944.30487171 0 40
0.00750000 0.00754703 64992.11077399 0 -17603.88922917 0 50353.83302425 0 -4515.27191639 0 -32686.38865063 0 57
0.00850000 0.00846663 70153.25354171 0 -1751.94073908 0 20197.58131793 0 1349.71639539 0 -12609.16350347 0 75
0.00950000 0.00948925 90480.93467626 0 -5561.19693574 0 50993.70267552 0 -2784.20250960 0 3513.39260518 0 112
0.01050000 0.01054430 76605.54010653 0 3309.01963368 0 18823.06291495 0 -8031.52118138 0 -10631.49127832 0 105
0.01150000 0.01145670 80188.32297134 0 8538.33470530 0 52667.50601836 0 -618.60968039 0 -23803.28389513 0 144
0.01250000 0.01249090 82999.69696605 0 -7004.12016145 0 16771.13967956 0 12605.28818979 0 -12087.21411152 0 169
0.01350000 0.01339930 83370.17695448 0 -332.70010892 0 36736.64506929 0 537.32885112 0 -18077.23111516 0 180
0.01450000 0.01448870 83793.02903930 0 3887.18321873 0 33950.95886817 0 -5425.25093161 0 -24362.54702172 0 267
0.01550000 0.01550050 87729.90485182 0 8128.61439771 0 64218.70888541 0 1188.22653791 0 -1484.18978032 0 238
0.01650000 0.01653350 80259.07512694 0 5722.72001019 0 47483.77570801 0 -4495.03170663 0 2178.53526969 0 315
0.01750000 0.01747870 80708.27934483 0 3923.66652901 0 56141.44793021 0 12880.87835452 0 18357.02876333 0 297
0.01850000 0.01844180 83282.92703491 0 -5099.60278637 0 67258.50494112 0 13636.89669314 0 5620.54459677 0 388
0.01950000 0.01947590 86582.81200061 0 -3235.12293784 0 68671.88720422 0 19181.91696232 0 23502.44882980 0 399
0.02050000 0.02045430 81787.27739841 0 6208.80614206 0 53479.88249030 0 15959.20610060 0 3036.67366011 0 462
0.02150000 0.02154770 75206.88403544 0 10745.84624904 0 52946.19643404 0 15560.04879089 0 10993.14662387 0 571
0.02250000 0.02255340 71043.91135012 0 5597.99027111 0 44924.18637969 0 15933.18613728 0 9141.62139537 0 510
0.02350000 0.02348930 61050.69530830 0 3420.24113648 0 38909.92098469 0 12730.29473699 0 17151.03114408 0 555
0.02450000 0.02439640 58244.96819926 0 4360.01577779 0 31450.38503112 0 15589.72262141 0 18195.26209773 0 592
0.02550000 0.02547300 59315.66200922 0 -2797.73289053 0 28280.15698905 0 14987.72032102 0 15085.82111891 0 837
0.02650000 0.02652900 59245.57419312 0 -3795.17219949 0 21912.13081610 0 16594.20392895 0 30809.07597763 0 723
0.02750000 0.02749970 63324.72937955 0 -1725.74361856 0 20480.47921705 0 6147.91942788 0 22737.68335458 0 826
0.02850000 0.02848090 64298.98324035 0 -713.32345412 0 19471.56897958 0 9159.01601766 0 26650.42149899 0 831
0.02950000 0.02946900 62848.95158210 0 2740.55540516 0 16636.16804002 0 -4702.81495417 0 27134.50354006 0 996
0.03050000 0.03053250 60283.38319837 0 5113.85286842 0 21030.77376054 0 979.09135951 0 26109.53843160 0 1041
0.03150000 0.03150510 58023.63242613 0 915.36680848 0 16564.53009844 0 -1484.11227404 0 21721.24393623 0 1036
0.03250000 0.03246190 58313.61661313 0 -745.97352554 0 15496.38292318 0 7735.72402385 0 11186.59121077 0 1059
0.03350000 0.03345080 56126.05739871 0 -1687.11227727 0 8572.23816390 0 2851.10149615 0 1783.47472016 0 1302
0.03450000 0.03451200 59788.78244872 0 1027.36669572 0 9312.50058430 0 -3471.32884319 0 -6542.24920397 0 1339
0.03550000 0.03553350 54051.32517419 0 2782.82954132 0 4266.98610466 0 -5052.86650331 0 -7572.78369182 0 1365
0.03650000 0.03647120 54165.48084307 0 3450.67895741 0 9410.88926263 0 -6324.02475412 0 -5705.42503883 0 1308
0.03750000 0.03744890 50690.32097549 0 2381.50205594 0 11459.96691055 0 -5626.71188169 0 -11469.71055639 0 1579
0.03850000 0.03847530 49217.81249786 0 3156.52050395 0 13688.49372680 0 1883.67925977 0 -2912.57504354 0 1662
0.03950000 0.03950240 47978.93007390 0 295.94774115 0 9791.47828363 0 5693.23440920 0 861.44569384 0 1683
0.04050000 0.04050350 47559.28896328 0 -247.37788110 0 13537.68866277 0 3105.90890720 0 3147.19760645 0 1822
0.04150000 0.04152450 47337.39957391 0 2260.73620915 0 14866.47836425 0 5369.16960641 0 2504.92526070 0 1887
0.04250000 0.04250150 46095.52762225 0 1968.08359186 0 16281.07858308 0 -273.58828841 0 5844.58201715 0 1920
0.04350000 0.04349210 42486.83551736 0 3770.56949374 0 14774.35662176 0 -1524.89164635 0 8899.09319254 0 2005
0.04450000 0.04448520 41580.23356121 0 895.27828956 0 17118.69995561 0 64.24185004 0 7259.17116365 0 2151
0.04550000 0.04548030 42237.15459270 0 -749.45577170 0 17454.74501386 0 1542.93953580 0 7991.74939063 0 2274
0.04650000 0.04648670 42098.19691622 0 67.74734808 0 18106.24060619 0 392.11974006 0 1879.53821029 0 2311
0.04750000 0.04749250 41253.15708606 0 1321.49303943 0 17999.83556468 0 1890.56624581 0 4709.65765091 0 2568
0.04850000 0.04851840 40437.45891667 0 1024.74476920 0 14247.20323714 0 1454.67096235 0 3071.91687001 0 2493
0.04950000 0.04949480 40316.43840641 0 -1013.56725729 0 15951.12330349 0 1133.37424076 0 1485.07556630 0 2644
0.05050000 0.05050630 40724.89646897 0 277.30969678 0 14319.28407171 0 660.58486377 0 -1654.79216112 0 2829
0.05150000 0.05149060 39577.80361775 0 2090.14490067 0 14151.98124370 0 -389.85766410 0 -2419.00402010 0 2784
0.05250000 0.05249300 38181.25128838 0 1838.52631916 0 15239.94788038 0 -885.18697272 0 621.14302830 0 3055
0.05350000 0.05348950 37461.21800542 0 550.41080290 0 16059.41064021 0 2491.06271002 0 3327.47719915 0 3009
0.05450000 0.05448610 36710.07148973 0 547.35151955 0 15403.04322496 0 3528.63919645 0 2233.97440006 0 3336
0.05550000 0.05550870 36531.03199741 0 939.50115488 0 11864.32821292 0 3537.39740539 0 3231.98946991 0 3349
0.05650000 0.05647670 36375.57655695 0 -13.25921969 0 13406.92450666 0 1839.93250441 0 4345.76569575 0 3324
0.05750000 0.05747970 36400.71073429 0 -467.76586322 0 12922.39957259 0 599.30618930 0 3747.62763672 0 3639
0.05850000 0.05849280 35194.82383829 0 -3.57225308 0 11822.80699485 0 1111.15208485 0 3795.10576554 0 3846
0.05950000 0.05951020 35847.31593986 0 1201.11472400 0 10303.66188509 0 1288.02140150 0 -744.90836789 0 3787
0.06050000 0.06049470 34026.58284668 0 612.87643059 0 7722.49259569 0 546.11916980 0 -1021.48618400 0 3930
0.06150000 0.06148310 33869.90945049 0 468.07478108 0 7227.75897814 0 -1285.00972915 0 -4276.28685751 0 4083
0.06250000 0.06249100 33635.61905733 0 440.93872742 0 8104.78675470 0 -2023.20162481 0 -5110.24329052 0 4303
0.06350000 0.06350600 32946.80973036 0 1335.27808383 0 9439.74374111 0 -2124.91200060 0 -4634.62050561 0 4470
0.06450000 0.06451750 31765.72484196 0 1136.56307031 0 9711.63574936 0 -1121.89223992 0 -4818.54289318 0 4479
0.06550000 0.06550280 31410.19249203 0 578.60315635 0 10767.00546177 0 -138.93663906 0 -3903.54811481 0 4636
0.06650000 0.06648880 31968.68055588 0 681.05427067 0 12675.92962213 0 606.96934530 0 -2884.49562780 0 4653
0.06750000 0.06749660 30908.50545450 0 524.07749278 0 12876.22797810 0 -316.15584117 0 -1709.01333576 0 5220
0.06850000 0.06852730 30639.78013115 0 780.07739322 0 13107.86101331 0 -508.59506099 0 -2993.72411214 0 5029
0.06950000 0.06949320 29441.97603227 0 1405.17767041 0 13103.54280663 0 -61.58593149 0 -1914.41603347 0 5040
0.07050000 0.07048030 28641.77911763 0 882.80753012 0 12107.69791244 0 1401.76739437 0 -2887.86161455 0 5475
0.07150000 0.07148790 27539.75062843 0 526.94965384 0 11755.59798320 0 2770.58355007 0 -2607.07852947 0 5509
0.07250000 0.07249820 27556.69128540 0 404.94370666 0 10249.75073554 0 1606.48360794 0 -2999.32670850 0 5916
0.07350000 0.07351270 26911.39619497 0 -225.21883744 0 9883.34536265 0 2248.60094115 0 -2968.18025878 0 5721
0.07450000 0.07449140 26356.78344480 0 309.63977802 0 9371.44964163 0 11.18537326 0 -2585.56500235 0 6028
0.07550000 0.07549160 27303.91010979 0 202.84941961 0 10536.95576902 0 -184.86464240 0 -1733.66033080 0 6183
0.07650000 0.07648840 26550.43840588 0 568.79307656 0 9774.12795063 0 135.77659755 0 -324.36264833 0 6330
0.07750000 0.07749960 26540.47331354 0 285.05478799 0 10999.74572946 0 619.39360098 0 1672.39715758 0 6583
0.07850000 0.07848650 25737.61904094 0 382.32294706 0 9873.05917289 0 315.81702803 0 1910.48535816 0 6549
0.07950000 0.07947320 26483.45084073 0 661.64337803 0 12017.45846517 0 1892.84714472 0 2354.54094501 0 6828
0.08050000 0.08048110 25149.12497683 0 276.76715286 0 10709.42937272 0 930.41963407 0 2703.11987495 0 7147
0.08150000 0.08149960 24782.74174858 0 646.77103133 0 10089.16880870 0 -664.49007274 0 2036.31125740 0 7386
0.08250000 0.08250610 24688.84843412 0 586.22423752 0 10682.90008245 0 208.99788158 0 2655.98498820 0 7227
0.08350000 0.08350160 24290.02329415 0 -126.09052780 0 10644.04729466 0 63.09353924 0 3033.47375824 0 7798
0.08450000 0.08449610 24840.98217713 0 256.78935719 0 11131.45103318 0 796.75342162 0 1370.11161771 0 7371
0.08550000 0.08548940 24236.43324203 0 142.03578277 0 10523.00463974 0 -240.35913440 0 792.07204269 0 8256
0.08650000 0.08650700 23569.76856470 0 793.60223798 0 10304.68053897 0 828.08035023 0 -271.63955924 0 8037
0.08750000 0.08749060 23544.85583386 0 974.10106271 0 10459.08410857 0 184.56347517 0 -34.22178793 0 8155
0.08850000 0.08849210 22389.68018553 0 1137.88067696 0 9801.15549552 0 -457.11317951 0 -857.82172193 0 8718
0.08950000 0.08949900 21771.95518390 0 662.40626121 0 9154.08883312 0 -254.66125636 0 -494.16782175 0 8571
0.09050000 0.09049190 20530.08323224 0 435.35384678 0 8748.67565988 0 866.15696805 0 -401.31087689 0 8932
0.09150000 0.09150830 20431.98243434 0 528.93270721 0 9026.03739659 0 1437.42028028 0 -1548.95180818 0 9285
0.09250000 0.09250820 19734.20452427 0 639.46661865 0 8133.34228041 0 1538.80955865 0 -804.80964516 0 9204
0.09350000 0.09350330 19434.47669143 0 606.07470146 0 7658.00737594 0 727.25908213 0 2.33603909 0 9349
0.09450000 0.09448040 19049.93485048 0 38.33814613 0 7361.94448262 0 419.26908051 0 1392.56629244 0 9564
0.09550000 0.09549270 19434.36596818 0 -52.41815726 0 7479.52149987 0 501.91844912 0 1449.34517411 0 10155
0.09650000 0.09649430 18971.76423726 0 -106.11550021 0 7486.00988221 0 534.45890453 0 1119.27917127 0 9913
0.09750000 0.09749140 18996.89841460 0 463.63920776 0 7017.05263684 0 550.12070799 0 946.83546284 0 10476
0.09850000 0.09850240 18221.50350755 0 399.56255680 0 6400.04733632 0 795.26419394 0 742.35066086 0 10575
0.09950000 0.09950330 18289.15541219 0 353.41532142 0 5424.73053235 0 871.58129998 0 -6.00186439 0 10882
0.10050000 0.10051200 17902.73127602 0 231.91870119 0 5517.09586599 0 319.89496527 0 -311.54864682 0 10875
0.10150000 0.10150300 17791.23296510 0 203.80939017 0 5109.14713037 0 -136.08551542 0 -662.50812659 0 11118
0.10250000 0.10250800 17394.84373659 0 226.77671354 0 5034.90719246 0 259.16326364 0 177.63109260 0 11575
0.10350000 0.10349800 17019.15975549 0 587.75221835 0 5340.35941723 0 -188.41442974 0 467.75036196 0 11364
0.10450000 0.10450100 16977.52781417 0 276.87787611 0 5363.12411706 0 1169.52538129 0 307.73976708 0 12093
0.10550000 0.10551000 16630.63187761 0 -128.67923734 0 5580.15275583 0 341.29112574 0 762.87875107 0 12067
0.10650000 0.10649700 16513.37595778 0 455.17773713 0 5195.30088978 0 341.59893637 0 179.75587173 0 12054
0.10750000 0.10749900 16350.28061320 0 267.66791633 0 5442.70091553 0 -310.10924459 0 773.05089589 0 12807
0.10850000 0.10850100 16159.94734957 0 185.54337592 0 5471.63290028 0 -177.31996027 0 779.25582671 0 12736
0.10950000 0.10950300 15953.89138469 0 330.22433709 0 5584.06128649 0 67.54195646 0 597.85792921 0 12933
0.11050000 0.11050200 15881.58910363 0 131.63554807 0 5102.53695245 0 371.68133567 0 620.32699796 0 13428
0.11150000 0.11150900 15574.55353640 0 189.22160222 0 4907.54224007 0 590.42286309 0 -20.76370929 0 13453
0.11250000 0.11250000 15320.77585156 0 275.96440931 0 4418.73231630 0 120.58979683 0 -278.40585694 0 13668
0.11350000 0.11349100 15196.76581359 0 242.29236231 0 4783.89758882 0 541.94379611 0 -421.68063286 0 13791
0.11450000 0.11448600 14960.15023222 0 81.14951149 0 4635.58379787 0 79.07732590 0 -847.90645505 0 14205
0.11550000 0.11549300 14736.15710114 0 303.97849834 0 4435.21900796 0 -205.24989963 0 -953.80438409 0 14776
0.11650000 0.11649800 14375.97437479 0 482.15767102 0 4409.03295976 0 -28.56261200 0 -635.29899558 0 14553
0.11750000 0.11747300 13998.51882172 0 360.15726000 0 4521.73815409 0 128.28063365 0 -266.43003041 0 14568
0.11850000 0.11849100 13972.27741190 0 -109.59110297 0 4223.21720465 0 926.15678901 0 -497.11195292 0 16015
0.11950000 0.11950300 14154.30643192 0 -1.26836802 0 4151.85607120 0 352.12428835 0 -372.38664277 0 15270
0.12050000 0.12050700 13852.25341086 0 224.62536083 0 3636.80473761 0 324.86643911 0 -255.98439918 0 15999
0.12150000 0.12150000 13828.44791250 0 196.45515202 0 3975.34106894 0 -345.46649943 0 27.05832595 0 15670
0.12250000 0.12250700 13753.26682699 0 251.91753427 0 3770.40340887 0 -323.54108183 0 406.75181731 0 16887
0.12350000 0.12352200 13546.87869237 0 -27.30512807 0 3829.37461085 0 -84.61027733 0 -82.72200306 0 16407
0.12450000 0.12449800 13446.00981327 0 131.19044061 0 3538.53785484 0 436.01375734 0 -389.66057672 0 16306
0.12550000 0.12549900 13542.89265543 0 -52.34552281 0 3635.52034793 0 645.07253670 0 -131.42185220 0 17523
0.12650000 0.12650100 13446.45270626 0 35.23468421 0 3378.88600328 0 544.84142351 0 -188.26384612 0 17154
0.12750000 0.12750600 13328.64317019 0 175.28375974 0 3234.64682787 0 82.04282666 0 -292.52528555 0 18007
0.12850000 0.12850300 13294.87257949 0 533.49118334 0 3597.67514170 0 -134.63171917 0 629.49599015 0 17496
0.12950000 0.12949900 12938.34372033 0 250.64200245 0 3660.31128320 0 -318.67368784 0 1259.04512745 0 18405
0.13050000 0.13049000 12825.18456069 0 181.26060068 0 4122.10473441 0 294.10752076 0 1387.34015513 0 18100
0.13150000 0.13148800 12791.19252349 0 82.45914607 0 4181.47454009 0 329.92649155 0 1577.42982761 0 19059
0.13250000 0.13249300 12777.79501046 0 -21.92851786 0 3955.80948796 0 446.84027654 0 1503.78779524 0 18957
0.13350000 0.13349100 12654.78148173 0 177.05754617 0 4019.05460732 0 458.33667140 0 1506.14620043 0 19468
0.13450000 0.13450700 12630.20092063 0 210.45389229 0 3547.14105123 0 45.79978583 0 1020.20733049 0 19953
0.13550000 0.13551000 12284.96583278 0 119.29322760 0 3733.31112073 0 25.53665635 0 888.64264529 0 19956
0.13650000 0.13649900 12380.96288896 0 54.50396181 0 3488.39129574 0 -6.35429649 0 355.35740719 0 19723
0.13750000 0.13749600 12096.18269463 0 194.94931585 0 3231.48014297 0 379.67555419 0 898.50587224 0 20946
0.13850000 0.13851100 11930.65143859 0 189.00569189 0 3079.16924277 0 148.21081832 0 671.69704896 0 20955
0.13950000 0.13949800 11945.59907709 0 192.80349930 0 2752.57994992 0 378.34908968 0 84.02045459 0 20506
0.14050000 0.14048300 11560.83578964 0 174.03923043 0 2546.03680275 0 412.10196466 0 122.60828165 0 21447
0.14150000 0.14148400 11589.84528067 0 -12.08123506 0 2345.01874567 0 61.35108748 0 -162.02243630 0 21771
0.14250000 0.14249400 11413.24169981 0 7.09788061 0 2139.19529961 0 -283.54341565 0 -620.73445952 0 22470
0.14350000 0.14350900 11355.22271776 0 218.51786646 0 2679.64654634 0 -244.75706181 0 -860.53001258 0 22519
0.14450000 0.14449900 11199.87800056 0 294.75968069 0 2644.00473274 0 -206.68376569 0 -414.18356172 0 22218
0.14550000 0.14550500 11042.66206046 0 269.88791745 0 2793.08251410 0 -183.05431730 0 -580.25403998 0 23559
0.14650000 0.14650700 10721.57571304 0 367.91231631 0 3125.75051328 0 -48.69187707 0 -212.91969903 0 23044
0.14750000 0.14750500 10704.96722581 0 156.67782511 0 3391.40880265 0 -24.37505875 0 -5.78315276 0 23649
0.14850000 0.14849900 10516.00693046 0 170.79836095 0 3544.38404235 0 124.22816277 0 258.74472976 0 23640
0.14950000 0.14949500 10506.81690086 0 286.77985620 0 3594.13199776 0 233.44225308 0 692.92933903 0 24457
0.15050000 0.15050000 10159.01303366 0 145.01423815 0 3206.29060401 0 255.97997025 0 402.10476258 0 24591
0.15150000 0.15149900 10101.43694460 0 196.51604981 0 3077.27587522 0 309.64420695 0 289.77270560 0 25020
0.15250000 0.15250500 9912.49879389 0 -30.98091846 0 3120.61295456 0 92.77168796 0 344.55413987 0 25297
0.15350000 0.15350100 9925.37590766 0 117.27806448 0 2640.70517995 0 351.82201388 0 -83.14895190 0 25452
0.15450000 0.15450400 9750.63247737 0 72.66434609 0 2510.14032569 0 69.74501693 0 -208.50848482 0 26061
0.15550000 0.15549900 9675.38495790 0 153.12471608 0 2295.07148841 0 151.05197687 0 -138.19368606 0 26128
0.15650000 0.15649500 9791.58900687 0 -19.82798712 0 2356.62254208 0 -160.38705393 0 -352.77312658 0 26331
0.15750000 0.15749700 9538.99606079 0 199.94182711 0 2282.20544697 0 40.45174222 0 43.63293186 0 27345
0.15850000 0.15849900 9640.42962845 0 148.21524725 0 2343.74542831 0 -115.45555981 0 -208.12206069 0 26980
0.15950000 0.15949700 9339.91566055 0 49.43017969 0 2413.78895511 0 183.51603324 0 -11.87075016 0 27777
0.16050000 0.16050000 9432.97855065 0 5.80364763 0 2138.36487525 0 419.77508576 0 -103.31231974 0 28224
0.16150000 0.16150500 9380.22999521 0 15.19698726 0 2198.50974367 0 204.81254280 0 11.71119796 0 28075
0.16250000 0.16249700 9321.66846925 0 203.27791858 0 2111.06052225 0 -40.04505573 0 53.20905343 0 28590
0.16350000 0.16349900 9145.80673415 0 213.39027283 0 2199.52839755 0 41.76536283 0 -122.90059102 0 29163
0.16450000 0.16449100 8981.46021687 0 216.85369604 0 2140.91150996 0 -165.06954009 0 152.57885047 0 28996
0.16550000 0.16550500 8876.71602408 0 52.92084081 0 2218.62815786 0 -20.54458798 0 -120.10482901 0 30777
0.16650000 0.16650700 8822.00766715 0 106.12823339 0 2312.17823025 0 -120.74813108 0 47.86145271 0 29211
0.16750000 0.16749900 8834.15400748 0 106.99176400 0 2360.09925207 0 177.62334197 0 -310.46466622 0 30922
0.16850000 0.16850800 8680.50335597 0 173.27524002 0 2279.86918643 0 -39.74577079 0 -95.43757160 0 30867
0.16950000 0.16949900 8558.33132392 0 169.76863475 0 2323.75988201 0 21.05468998 0 109.10336707 0 30852
0.17050000 0.17049200 8472.21078148 0 93.44012421 0 2495.81273737 0 98.16634606 0 386.65554776 0 31257
0.17150000 0.17149500 8401.24825172 0 108.98024281 0 2386.81677186 0 178.17585098 0 252.37039236 0 32608
0.17250000 0.17250900 8330.52931310 0 146.03399927 0 2619.37988235 0 319.71337914 0 544.82702949 0 32361
0.17350000 0.17350400 8213.71628627 0 86.45116206 0 2431.62647040 0 282.10069173 0 897.46728818 0 32508
0.17450000 0.17449800 8058.05047164 0 86.39735056 0 2387.27073717 0 172.58543418 0 865.22135661 0 32791
0.17550000 0.17549800 8131.52641914 0 63.91333417 0 2306.40954902 0 247.52735748 0 1041.07423384 0 33633
0.17650000 0.17650100 8012.17782992 0 21.81513725 0 2221.10835862 0 195.98900715 0 1013.95035973 0 33984
0.17750000 0.17750300 7955.74219032 0 15.07818121 0 2058.51126866 0 380.11623272 0 1314.80535524 0 34069
0.17850000 0.17849800 7992.73482754 0 12.71833663 0 1815.83912561 0 179.95738804 0 983.08846877 0 34536
