### header ###
fiducial parameters:
Omega_m = 0.31
Omega_nu = 0
Omega_de = 0.69
Omega_k = 0
H_0 = 100
w_de = -1
zeff = 0
beta = 0
fgrowth = 0
b_1 = 2
gamma = 0.55
Lx = 3500 Ly = 3500 Lz = 3500
nx = 700 ny = 700 nz = 700
xoffset = -685.467585 yoffset = -31.7331281 zoffset = 572.489161
bins = 400 dk = 0.001
kx_ny = 0.628318531 ky_ny = 0.628318531 kz_ny = 0.628318531
############################
A(data) = 8.03344871 (not used)
A(ran) = 8.02692776 (used)
Ngal = 477724
weighted Ngal = 0
Nran = 23820508
weighted Nran = 0
SN(data) = 3496.07955
SN(ran) = 69.9174519
SN(data+ran) = 3565.997
############################
13 columns: k_central k_mean P_0(k) sigma^{lin}_{P_0(k)} P^img_1(k) sigma^{lin}_{P_1(k)} P_2(k) sigma^{lin}_{P_2(k)} P^img_3(k) sigma^{lin}_{P_3(k)} P_4(k) sigma^{lin}_{P_4(k)} N_modes
### header ###
0.00050000 0 0 0 0 0 0 0 0 0 0 0 0
0.00150000 0.00179520 5883.61196213 0 -11543.56296293 0 5657.73653583 0 -31321.61389348 0 -12864.93420679 0 3
0.00250000 0.00253879 16602.50817257 0 -21372.68715094 0 -25647.37959367 0 26354.12608685 0 20546.80244271 0 6
0.00350000 0.00331552 31681.02155710 0 -29485.71171530 0 -23128.31497418 0 1176.22413781 0 -37749.31989720 0 7
0.00450000 0.00420575 50142.57306671 0 -26478.68974106 0 -36998.94844424 0 12610.49218245 0 13427.18686108 0 24
0.00550000 0.00557378 73583.01687753 0 -18450.14701505 0 -34946.80376236 0 1740.41444894 0 -580.67811002 0 45
0.00650000 0.00659388 70237.18176383 0 -237.30981614 0 -39045.88913347 0 -12768.38353437 0 52816.42878717 0 40
0.00750000 0.00754703 77044.88995533 0 6946.59943402 0 -28387.66926304 0 18286.83022398 0 28176.85219849 0 57
0.00850000 0.00846663 68223.79021881 0 -4025.56513432 0 -17929.85847183 0 -4560.72380977 0 52384.71884249 0 75
0.00950000 0.00948925 71642.59195307 0 -3334.80707818 0 -6938.14017786 0 2416.99992931 0 19265.18084496 0 112
0.01050000 0.01054430 78583.72165863 0 -3869.63358389 0 -5201.57889795 0 -8943.01710510 0 52463.55379520 0 105
0.01150000 0.01145670 82239.13897425 0 643.81472060 0 4772.10556289 0 -14442.62977019 0 39435.96713683 0 144
0.01250000 0.01249090 91785.80815614 0 -2194.16939234 0 3083.03348413 0 -27113.13395316 0 27789.32082984 0 169
0.01350000 0.01339930 90473.73766513 0 6401.96284852 0 20955.59267502 0 -5609.99267121 0 -18418.48016607 0 180
0.01450000 0.01448870 88005.60573981 0 9052.09057689 0 43034.25125639 0 -28316.58493770 0 -7442.79459844 0 267
0.01550000 0.01550050 74621.82239202 0 6875.63690426 0 38579.74425860 0 -7010.53103752 0 -21279.67962246 0 238
0.01650000 0.01653350 70380.67909348 0 6198.14349326 0 45925.45671304 0 4189.26945676 0 -24363.76497745 0 315
0.01750000 0.01747870 72465.70858008 0 -39.81098678 0 42273.80398785 0 14182.43013696 0 -26799.78716080 0 297
0.01850000 0.01844180 73098.15977372 0 -6525.08710050 0 47946.15599244 0 14067.27795884 0 -27876.46002616 0 388
0.01950000 0.01947590 75327.90454570 0 -2878.91517610 0 34497.71026771 0 18862.70183780 0 -23715.36963607 0 399
0.02050000 0.02045430 74709.73665108 0 -2512.41015227 0 29708.59761390 0 1667.38139444 0 -15585.73658447 0 462
0.02150000 0.02154770 82417.07123409 0 5114.27361676 0 29590.34518484 0 4911.90473605 0 -23968.81515116 0 571
0.02250000 0.02255340 80140.04763514 0 970.74836276 0 21537.44334424 0 -3142.52508538 0 -8515.72501802 0 510
0.02350000 0.02348930 73540.05625724 0 5618.65122922 0 21044.39272006 0 6129.17398196 0 -12207.12738931 0 555
0.02450000 0.02439640 75003.15325877 0 -0.61988964 0 15925.76767965 0 -3653.53502041 0 -13765.88927728 0 592
0.02550000 0.02547300 71681.67725968 0 5720.58305150 0 19714.05289310 0 5558.74995195 0 -17417.54200247 0 837
0.02650000 0.02652900 64873.19400544 0 9006.28436911 0 22126.93391758 0 -12570.18892011 0 -12165.16327825 0 723
0.02750000 0.02749970 57665.44271825 0 6252.85185018 0 25490.37402774 0 980.16316055 0 1634.45230043 0 826
0.02850000 0.02848090 56138.23695601 0 -1306.46789465 0 27512.73415587 0 4563.87942235 0 9430.39869896 0 831
0.02950000 0.02946900 59366.48398014 0 -5655.66601109 0 28691.38313281 0 13657.26977081 0 2036.38876367 0 996
0.03050000 0.03053250 62675.00535920 0 72.26264214 0 34839.51293486 0 3108.45554191 0 8123.52112829 0 1041
0.03150000 0.03150510 61906.14312379 0 2028.31703888 0 29012.92344555 0 8105.69468534 0 9359.10399946 0 1036
0.03250000 0.03246190 61752.01636231 0 2327.31409828 0 31839.35580200 0 281.31123497 0 17993.08144654 0 1059
0.03350000 0.03345080 60689.95896571 0 2479.38140734 0 32382.89622735 0 3159.46574235 0 21643.73766250 0 1302
0.03450000 0.03451200 58700.59436554 0 1552.68318164 0 30190.57591326 0 6436.02131966 0 11082.06846449 0 1339
0.03550000 0.03553350 55061.01047441 0 3549.92020476 0 29508.40998118 0 4579.24780920 0 13968.40209821 0 1365
0.03650000 0.03647120 53338.04600938 0 3411.19504710 0 23179.35839160 0 3115.73005932 0 8429.85913905 0 1308
0.03750000 0.03744890 48552.14432976 0 4176.41448764 0 24215.17437838 0 3170.38305462 0 5321.99043036 0 1579
0.03850000 0.03847530 45559.07348479 0 2875.93672072 0 20891.26246782 0 1626.57987748 0 6441.59069904 0 1662
0.03950000 0.03950240 43333.53619624 0 623.48703947 0 21797.75370072 0 -869.69014690 0 963.96434934 0 1683
0.04050000 0.04050350 44318.08731911 0 951.49691159 0 19331.83624036 0 702.40392738 0 2620.53140413 0 1822
0.04150000 0.04152450 43656.84808094 0 951.69732067 0 22226.69556420 0 2817.31983313 0 -2062.87376464 0 1887
0.04250000 0.04250150 42084.79940319 0 1979.52130340 0 19430.15848475 0 2283.15766690 0 4413.56154061 0 1920
0.04350000 0.04349210 40693.89395947 0 307.73090922 0 18965.01011912 0 4056.58978846 0 2158.63830199 0 2005
0.04450000 0.04448520 40614.72683702 0 225.63404962 0 17296.52149220 0 2196.51672520 0 5279.52806468 0 2151
0.04550000 0.04548030 41543.91633580 0 124.39092594 0 18826.27388914 0 2801.89608466 0 3989.55793401 0 2274
0.04650000 0.04648670 41753.73689112 0 51.08759599 0 18776.55915071 0 1107.10404290 0 7057.03480176 0 2311
0.04750000 0.04749250 41022.63128334 0 246.81762146 0 17681.39550290 0 1844.77111036 0 8261.89197155 0 2568
0.04850000 0.04851840 40427.82599408 0 1389.80928356 0 17867.07839011 0 321.93338026 0 3467.81891623 0 2493
0.04950000 0.04949480 40730.10046163 0 1473.23925107 0 20378.17093573 0 -1139.87369543 0 3006.75623845 0 2644
0.05050000 0.05050630 37071.58289505 0 1800.85827013 0 18834.46740951 0 637.51235332 0 2238.93480158 0 2829
0.05150000 0.05149060 36984.99731497 0 1200.43931219 0 20492.10515811 0 -747.07854356 0 3138.18473405 0 2784
0.05250000 0.05249300 36239.05479194 0 430.16978430 0 18090.18573520 0 3878.56895002 0 1685.92753851 0 3055
0.05350000 0.05348950 36600.78764377 0 -950.21362915 0 16637.60744224 0 2802.30576068 0 577.10174911 0 3009
0.05450000 0.05448610 38013.39484413 0 -1454.81490257 0 14748.44738169 0 2098.96954355 0 -3289.47698037 0 3336
0.05550000 0.05550870 37180.31312477 0 -226.58959125 0 14143.45555359 0 -976.54251033 0 -4514.43041971 0 3349
0.05650000 0.05647670 38534.34772685 0 1484.52195006 0 14534.30861969 0 -2829.34437788 0 -4051.93941203 0 3324
0.05750000 0.05747970 36203.06973628 0 1731.36835957 0 15827.22398877 0 -501.62724698 0 -399.72531998 0 3639
0.05850000 0.05849280 35592.87391552 0 1275.49860213 0 15835.30678588 0 1350.08178211 0 -922.89488212 0 3846
0.05950000 0.05951020 35190.72707811 0 685.35919055 0 16936.78165884 0 1371.89426200 0 -1127.74949975 0 3787
0.06050000 0.06049470 34087.25918668 0 1648.08233228 0 18137.35383893 0 589.21265799 0 1161.19899303 0 3930
0.06150000 0.06148310 32352.89022709 0 2372.34524332 0 19792.33422957 0 444.92919328 0 2384.38086040 0 4083
0.06250000 0.06249100 30545.88681669 0 996.41068999 0 17637.88126636 0 213.57850236 0 4030.71376536 0 4303
0.06350000 0.06350600 31159.07216515 0 -799.66765752 0 18750.42846414 0 3085.58011884 0 3406.21250093 0 4470
0.06450000 0.06451750 31988.50001731 0 -1721.83508790 0 16419.70408981 0 3328.91660138 0 2523.41604314 0 4479
0.06550000 0.06550280 32608.21803741 0 -1261.31495404 0 13854.02498283 0 4631.77491814 0 1539.72856161 0 4636
0.06650000 0.06648880 34274.16002962 0 -60.71243579 0 11749.50820455 0 1716.67538453 0 2378.12499687 0 4653
0.06750000 0.06749660 32948.02768609 0 1068.70189873 0 9883.15713312 0 1882.84883541 0 1362.10632687 0 5220
0.06850000 0.06852730 32195.44176817 0 1470.85870123 0 9579.89722867 0 861.68042713 0 836.58389570 0 5029
0.06950000 0.06949320 30276.60787710 0 949.01560360 0 8666.18683998 0 681.53148786 0 651.61185174 0 5040
0.07050000 0.07048030 29476.41096246 0 1137.43778397 0 9057.52708837 0 272.77115084 0 -583.51373241 0 5475
0.07150000 0.07148790 28337.51163161 0 668.81492281 0 8191.43876873 0 523.44526303 0 -647.99563045 0 5509
0.07250000 0.07249820 28319.68518865 0 114.79011309 0 8345.73161508 0 -1489.61521948 0 -1624.83045016 0 5916
0.07350000 0.07351270 28039.77681724 0 44.83660429 0 7886.08619488 0 1237.78626380 0 -599.53649365 0 5721
0.07450000 0.07449140 27905.24807069 0 -55.83673755 0 7767.29122190 0 1133.62890423 0 -91.00277334 0 6028
0.07550000 0.07549160 27687.67688800 0 806.18593514 0 8917.45110709 0 822.77117048 0 691.46114876 0 6183
0.07650000 0.07648840 27837.04254981 0 531.53913248 0 9130.85909565 0 1451.73679627 0 1151.55499811 0 6330
0.07750000 0.07749960 26159.14244679 0 1154.83240626 0 9502.15843611 0 48.97876101 0 1896.34599936 0 6583
0.07850000 0.07848650 25751.01655397 0 1339.71808608 0 10173.98281681 0 141.63828631 0 2692.53473242 0 6549
0.07950000 0.07947320 25057.22468084 0 715.78704639 0 10027.47381481 0 -205.41487727 0 2714.33613999 0 6828
0.08050000 0.08048110 24733.02701015 0 219.72253540 0 9729.00822700 0 -221.37009733 0 2816.62227667 0 7147
0.08150000 0.08149960 24231.33997261 0 177.48715238 0 9612.92597360 0 270.21787273 0 982.72086758 0 7386
0.08250000 0.08250610 24315.15747149 0 276.00537692 0 9332.04323760 0 -10.46506316 0 816.29607493 0 7227
0.08350000 0.08350160 23667.42646960 0 336.30415065 0 9131.19126539 0 309.22678030 0 -1145.15519437 0 7798
0.08450000 0.08449610 22996.00069260 0 309.92876570 0 8082.94105783 0 125.92665739 0 -946.52875945 0 7371
0.08550000 0.08548940 23276.24123376 0 246.61056899 0 8742.58588123 0 452.72300272 0 -1217.62356031 0 8256
0.08650000 0.08650700 22478.14806083 0 535.83851620 0 7669.11291774 0 161.90506966 0 -85.02316433 0 8037
0.08750000 0.08749060 22418.46823006 0 939.01618706 0 8370.56683965 0 1168.68388461 0 -558.66964998 0 8155
0.08850000 0.08849210 21490.16451726 0 899.02516428 0 8205.15737918 0 478.96219808 0 872.66306612 0 8718
0.08950000 0.08949900 20823.16767019 0 1017.55107976 0 7454.37625020 0 259.51868526 0 -31.76727497 0 8571
0.09050000 0.09049190 19940.70338214 0 543.53156749 0 8114.92900424 0 -169.10761696 0 20.02673535 0 8932
0.09150000 0.09150830 19745.05540260 0 437.31918443 0 7673.56399231 0 405.39988644 0 -254.61475260 0 9285
0.09250000 0.09250820 18823.61653119 0 268.99327361 0 6864.91889383 0 301.22813285 0 419.26575882 0 9204
0.09350000 0.09350330 19214.13742754 0 324.35157600 0 7178.77501314 0 752.07105482 0 -1135.64406735 0 9349
0.09450000 0.09448040 18298.01327205 0 346.52612092 0 6324.74445523 0 698.30163104 0 -868.20977707 0 9564
0.09550000 0.09549270 18294.58085135 0 230.73285520 0 6646.82731188 0 133.87880108 0 -1976.76429452 0 10155
0.09650000 0.09649430 18174.11395733 0 -154.08800834 0 5968.16023445 0 135.43224825 0 -1034.80619076 0 9913
0.09750000 0.09749140 18047.77873115 0 297.66727319 0 6900.11781443 0 -43.89213498 0 -1634.88412110 0 10476
0.09850000 0.09850240 17933.18016927 0 475.92948831 0 7281.51511514 0 -625.60849690 0 -1027.16850110 0 10575
0.09950000 0.09950330 17361.84820863 0 576.71089604 0 7077.77326615 0 -609.68317212 0 -676.32085181 0 10882
0.10050000 0.10051200 17395.95096907 0 117.34782013 0 7616.01004791 0 -90.42623739 0 -1135.55548875 0 10875
0.10150000 0.10150300 17307.04020078 0 -45.34272026 0 7739.12322757 0 539.02845298 0 -288.35323355 0 11118
0.10250000 0.10250800 17618.50469793 0 81.04288500 0 7618.83349074 0 247.91378162 0 -1617.62236670 0 11575
0.10350000 0.10349800 17399.93700601 0 244.93643348 0 7622.27698375 0 32.59149883 0 225.86767567 0 11364
0.10450000 0.10450100 17395.28662958 0 369.68056658 0 7211.09512929 0 846.98745209 0 -5.55288162 0 12093
0.10550000 0.10551000 17149.59174186 0 148.62603051 0 7145.35873684 0 309.12491491 0 -117.36775031 0 12067
0.10650000 0.10649700 16862.15418956 0 292.78105625 0 7465.27141783 0 406.54808653 0 -483.42213051 0 12054
0.10750000 0.10749900 16598.85430538 0 614.73879563 0 6944.79464508 0 585.85774357 0 271.59305548 0 12807
0.10850000 0.10850100 15930.19660958 0 259.16990703 0 6636.10930146 0 280.63914485 0 566.17447174 0 12736
0.10950000 0.10950300 15570.45677622 0 375.78141756 0 6264.27848940 0 1004.06609537 0 937.10621103 0 12933
0.11050000 0.11050200 15382.78087055 0 177.87136205 0 5988.17899772 0 752.77636191 0 161.05914404 0 13428
0.11150000 0.11150900 15010.52931014 0 196.64891771 0 5416.74738615 0 473.67184128 0 -753.03988324 0 13453
0.11250000 0.11250000 15019.83006299 0 102.65329497 0 4914.39600913 0 -163.65449698 0 -371.58611368 0 13668
0.11350000 0.11349100 15049.28244701 0 -59.98719851 0 5134.77956232 0 203.62448234 0 -1134.35967767 0 13791
0.11450000 0.11448600 15214.37081005 0 -305.46883326 0 4746.24061211 0 -34.24880441 0 -35.26181140 0 14205
0.11550000 0.11549300 15273.49702459 0 125.95987437 0 4877.15978077 0 412.45849352 0 -1009.36309556 0 14776
0.11650000 0.11649800 15121.69545132 0 305.98701806 0 4639.87985990 0 591.39169152 0 36.54597964 0 14553
0.11750000 0.11747300 14782.99303512 0 380.34210815 0 4524.57266924 0 689.47477369 0 -156.39548083 0 14568
0.11850000 0.11849100 14561.87870849 0 271.33396308 0 4335.09197462 0 403.12009476 0 406.61230601 0 16015
0.11950000 0.11950300 14414.61678840 0 126.06395422 0 4654.89393236 0 680.06661929 0 1078.71128036 0 15270
0.12050000 0.12050700 14224.28352477 0 132.76824690 0 4703.86682503 0 86.24776345 0 1263.81729945 0 15999
0.12150000 0.12150000 13917.91229704 0 350.32060663 0 4833.62339958 0 467.09488033 0 2303.89613129 0 15670
0.12250000 0.12250700 13853.36064335 0 475.39801672 0 4788.06078295 0 147.14012451 0 1585.35761218 0 16887
0.12350000 0.12352200 13519.53005006 0 168.45324256 0 4564.11194117 0 10.39855171 0 1589.23292587 0 16407
0.12450000 0.12449800 13187.80319850 0 253.77104145 0 4894.07829309 0 215.21388473 0 1458.47984209 0 16306
0.12550000 0.12549900 13130.67000243 0 274.58811934 0 4726.64259718 0 -220.89841629 0 1291.29880965 0 17523
0.12650000 0.12650100 13013.85697560 0 31.30356600 0 4852.20276063 0 -319.95254135 0 1021.27470260 0 17154
0.12750000 0.12750600 12998.79861384 0 180.73577248 0 4740.17297811 0 -509.47641804 0 521.00160095 0 18007
0.12850000 0.12850300 12945.43000822 0 117.88704234 0 4885.24257788 0 -724.77888137 0 192.12144409 0 17496
0.12950000 0.12949900 12934.35768340 0 -16.76516062 0 5024.08953111 0 -202.56153916 0 -418.98120007 0 18405
0.13050000 0.13049000 12989.05496800 0 -56.79748318 0 5101.44079229 0 -256.04308250 0 -538.70957003 0 18100
0.13150000 0.13148800 12919.41004489 0 186.61074803 0 4917.85057448 0 78.68658356 0 -1198.40200442 0 19059
0.13250000 0.13249300 12689.77002815 0 422.30621921 0 4973.20112624 0 116.40335082 0 -803.05800338 0 18957
0.13350000 0.13349100 12426.35942072 0 431.13971995 0 4503.51310744 0 675.03978382 0 -963.74290284 0 19468
0.13450000 0.13450700 12068.39115933 0 135.25176936 0 4404.63724681 0 757.58285811 0 -830.23502464 0 19953
0.13550000 0.13551000 11880.16163741 0 171.92995255 0 4349.85138360 0 220.77772795 0 -859.32423641 0 19956
0.13650000 0.13649900 11809.74165157 0 -56.06449527 0 4234.05701065 0 39.83169203 0 -800.86014690 0 19723
0.13750000 0.13749600 11753.71568799 0 202.11311001 0 4437.26738805 0 -42.89130754 0 -540.47228414 0 20946
0.13850000 0.13851100 11705.32962853 0 152.05734397 0 4452.86829372 0 -313.16409901 0 131.61118896 0 20955
0.13950000 0.13949800 11405.71251894 0 224.69733094 0 4460.60784876 0 686.23168975 0 440.28767472 0 20506
0.14050000 0.14048300 11453.98785515 0 46.32372824 0 4211.17051525 0 516.64685560 0 213.00717040 0 21447
0.14150000 0.14148400 11249.70346224 0 14.52146472 0 3907.02482481 0 719.99785152 0 562.18179141 0 21771
0.14250000 0.14249400 11123.25751281 0 78.54784733 0 3714.63210876 0 591.66185624 0 371.74444793 0 22470
0.14350000 0.14350900 11081.18267850 0 28.25989463 0 3051.62129862 0 737.30721691 0 540.36045366 0 22519
0.14450000 0.14449900 11168.65404457 0 -140.19002623 0 2477.63198002 0 554.79101460 0 342.07504634 0 22218
0.14550000 0.14550500 11038.45457703 0 -66.06645845 0 2537.64398054 0 182.07663102 0 -88.09030902 0 23559
0.14650000 0.14650700 11285.90996440 0 124.03328985 0 2278.33013328 0 112.71515942 0 288.89799194 0 23044
0.14750000 0.14750500 11027.86943450 0 251.72155412 0 2296.87627735 0 -64.98325291 0 188.88943248 0 23649
0.14850000 0.14849900 10923.63456866 0 400.62660722 0 2426.58856260 0 -284.38823404 0 474.54434047 0 23640
0.14950000 0.14949500 10495.32382770 0 378.79751884 0 2709.53075102 0 -32.12203225 0 316.96965705 0 24457
0.15050000 0.15050000 10225.96738183 0 270.66630189 0 2579.49736835 0 74.98698766 0 447.96301028 0 24591
0.15150000 0.15149900 9929.59446341 0 233.77331559 0 2654.99955129 0 -171.01648575 0 410.29606848 0 25020
0.15250000 0.15250500 9890.90776050 0 136.56383985 0 2679.82370353 0 57.90427276 0 91.23484927 0 25297
0.15350000 0.15350100 9717.88054056 0 152.19131910 0 2791.80919675 0 -250.17917928 0 -212.15017246 0 25452
0.15450000 0.15450400 9579.16645523 0 273.09446272 0 2663.03805911 0 -128.84753668 0 200.61280999 0 26061
0.15550000 0.15549900 9497.62985526 0 32.72558468 0 2743.32348637 0 -80.03386404 0 136.69670775 0 26128
0.15650000 0.15649500 9483.37977322 0 0.83255800 0 2833.99475431 0 86.03694639 0 80.08756482 0 26331
0.15750000 0.15749700 9543.63536488 0 43.83267660 0 3003.76671075 0 218.16465930 0 16.92050534 0 27345
0.15850000 0.15849900 9499.88860953 0 42.21113463 0 2949.36837892 0 252.96276174 0 133.00740912 0 26980
0.15950000 0.15949700 9430.78623033 0 124.10304550 0 2934.22143857 0 93.22908570 0 323.72266796 0 27777
0.16050000 0.16050000 9364.68445117 0 260.82743406 0 2656.27286864 0 196.91354627 0 -224.69733094 0 28224
0.16150000 0.16150500 9141.28922562 0 121.34160769 0 2513.86062683 0 128.03039911 0 69.69330917 0 28075
0.16250000 0.16249700 9019.74831609 0 97.50012427 0 2542.19470604 0 0.38673859 0 -408.88766876 0 28590
0.16350000 0.16349900 8988.44685383 0 128.49875845 0 2255.60972276 0 51.62172494 0 -565.75150893 0 29163
0.16450000 0.16449100 8834.80727464 0 142.79755872 0 2248.81131532 0 9.49594686 0 -606.98152486 0 28996
0.16550000 0.16550500 8824.49894024 0 -52.40642060 0 1934.78911114 0 -27.05744016 0 -524.42516378 0 30777
0.16650000 0.16650700 8833.14642592 0 -86.55192021 0 2149.85794841 0 254.73211924 0 -496.98351395 0 29211
0.16750000 0.16749900 8900.16720805 0 159.32743244 0 1840.12073394 0 108.87428066 0 -853.68953031 0 30922
0.16850000 0.16850800 8644.59580659 0 346.48958225 0 1896.86639863 0 58.46497529 0 -248.60358746 0 30867
0.16950000 0.16949900 8333.39704523 0 227.45544705 0 1921.97843132 0 57.60587361 0 -369.99169891 0 30852
0.17050000 0.17049200 8244.64128949 0 78.44266024 0 1739.70582016 0 108.03189819 0 -36.89276485 0 31257
0.17150000 0.17149500 8178.88275239 0 111.93677499 0 1870.31496372 0 127.22211940 0 -400.97427821 0 32608
0.17250000 0.17250900 8018.48905507 0 130.02673928 0 1778.38145075 0 9.21002622 0 -210.86799724 0 32361
0.17350000 0.17350400 8049.76837268 0 16.52887721 0 1780.92808546 0 74.42894249 0 -117.70656345 0 32508
0.17450000 0.17449800 7938.53579755 0 37.30078002 0 1795.74285606 0 276.88009058 0 -281.05989320 0 32791
0.17550000 0.17549800 7932.50138052 0 101.62788696 0 1784.02833640 0 299.95924443 0 -204.56341549 0 33633
0.17650000 0.17650100 7830.87958334 0 218.38832026 0 1538.32237635 0 134.22757931 0 -228.51949747 0 33984
0.17750000 0.17750300 7696.58335561 0 104.18825136 0 1501.69512585 0 -29.93580172 0 -124.13294077 0 34069
0.17850000 0.17849800 7675.41307056 0 34.11914748 0 1522.77683231 0 36.59901607 0 -29.04149004 0 34536
