### header ###
fiducial parameters:
Omega_m = 0.31
Omega_nu = 0
Omega_de = 0.69
Omega_k = 0
H_0 = 100
w_de = -1
zeff = 0
beta = 0
fgrowth = 0
b_1 = 2
gamma = 0.55
Lx = 3500 Ly = 3500 Lz = 3500
nx = 700 ny = 700 nz = 700
xoffset = -685.467585 yoffset = -31.7331281 zoffset = 572.489161
bins = 400 dk = 0.001
kx_ny = 0.628318531 ky_ny = 0.628318531 kz_ny = 0.628318531
############################
A(data) = 7.95321663 (not used)
A(ran) = 7.94484382 (used)
Ngal = 472154
weighted Ngal = 0
Nran = 23820508
weighted Nran = 0
SN(data) = 3500.42668
SN(ran) = 69.202471
SN(data+ran) = 3569.62915
############################
13 columns: k_central k_mean P_0(k) sigma^{lin}_{P_0(k)} P^img_1(k) sigma^{lin}_{P_1(k)} P_2(k) sigma^{lin}_{P_2(k)} P^img_3(k) sigma^{lin}_{P_3(k)} P_4(k) sigma^{lin}_{P_4(k)} N_modes
### header ###
0.00050000 0 0 0 0 0 0 0 0 0 0 0 0
0.00150000 0.00179520 40463.36815675 0 279.35032624 0 89717.27643352 0 -19296.29407770 0 -51164.10575448 0 3
0.00250000 0.00253879 69744.79547915 0 14862.16015757 0 33839.34983400 0 24244.62676240 0 86503.75560140 0 6
0.00350000 0.00331552 63785.67026175 0 6942.18157642 0 17451.53403966 0 3081.69373282 0 27223.63575485 0 7
0.00450000 0.00420575 52588.33889591 0 -1211.69986653 0 2242.32293297 0 -11231.98774253 0 22510.47924930 0 24
0.00550000 0.00557378 59316.54779520 0 10735.79257811 0 52074.47230107 0 4654.48425634 0 -8156.56094555 0 45
0.00650000 0.00659388 58331.00016310 0 8884.57737470 0 39990.69061024 0 3216.48821517 0 27545.95113032 0 40
0.00750000 0.00754703 69176.89593920 0 -10913.09371543 0 56100.70177488 0 28147.06764473 0 26825.58567762 0 57
0.00850000 0.00846663 64501.60678453 0 -19215.24466002 0 64201.43605869 0 4997.51595155 0 15774.18755288 0 75
0.00950000 0.00948925 88311.75552104 0 11578.21933961 0 75901.67241781 0 37540.93874412 0 -8172.29471912 0 112
0.01050000 0.01054430 78690.68031637 0 -1186.85356964 0 65009.71577046 0 18735.48082563 0 24400.63581909 0 105
0.01150000 0.01145670 73191.05657895 0 7877.43870920 0 43533.61310571 0 20603.49274579 0 12005.27890787 0 144
0.01250000 0.01249090 83850.49440511 0 -4077.92615838 0 48187.53267349 0 16171.57329063 0 -5726.07492461 0 169
0.01350000 0.01339930 82419.72859205 0 355.97745738 0 38081.82181151 0 18602.17003481 0 -21622.70024534 0 180
0.01450000 0.01448870 81063.25807851 0 -2353.48907415 0 26062.59177437 0 -180.16001159 0 -16784.53719259 0 267
0.01550000 0.01550050 88293.48618509 0 1585.30225056 0 31624.33125402 0 -14017.23105066 0 -16394.23774273 0 238
0.01650000 0.01653350 87202.30857421 0 -566.90856688 0 38696.00366920 0 -6061.63280057 0 -18702.26385118 0 315
0.01750000 0.01747870 87041.20624810 0 853.32414359 0 37603.94027233 0 17224.66210413 0 -17297.96089443 0 297
0.01850000 0.01844180 82506.53561862 0 2062.05441260 0 33580.14670999 0 11043.21567670 0 -8929.53101347 0 388
0.01950000 0.01947590 86705.71480610 0 5195.33410676 0 48387.83102946 0 19106.62515355 0 -3595.90356973 0 399
0.02050000 0.02045430 83621.29728137 0 9398.41075256 0 36968.72099749 0 17558.49269741 0 9028.40687410 0 462
0.02150000 0.02154770 73135.14133862 0 10985.32956255 0 34282.90716623 0 6037.94909778 0 16056.08894277 0 571
0.02250000 0.02255340 69085.99215244 0 4657.14161430 0 28539.24938981 0 11225.45507089 0 25161.52598063 0 510
0.02350000 0.02348930 61619.81280398 0 2399.52780075 0 31422.15060284 0 7971.16593879 0 16036.15875809 0 555
0.02450000 0.02439640 62473.15687775 0 554.53635112 0 33218.96747441 0 16850.30680201 0 4818.03356624 0 592
0.02550000 0.02547300 65302.57876191 0 -3411.41649360 0 22537.38499861 0 1989.53068504 0 -13847.60303444 0 837
0.02650000 0.02652900 61973.01996569 0 933.04709675 0 18583.45780587 0 -4450.65382875 0 -5207.96762937 0 723
0.02750000 0.02749970 66477.46314842 0 1379.67810635 0 20372.19188032 0 -6805.51587118 0 -6018.74968654 0 826
0.02850000 0.02848090 64546.67114654 0 -1409.01976712 0 18929.68940295 0 4258.01752156 0 2884.37383223 0 831
0.02950000 0.02946900 66035.89883465 0 210.94550351 0 24992.56230390 0 6854.79878895 0 -8907.80711217 0 996
0.03050000 0.03053250 64864.88976183 0 3109.10880908 0 24664.26787302 0 4948.86415629 0 -5965.71325066 0 1041
0.03150000 0.03150510 64532.83074052 0 4014.97999179 0 22525.64833430 0 1344.05843741 0 622.17054005 0 1036
0.03250000 0.03246190 60739.67370414 0 1212.56350786 0 21932.17172402 0 1144.94482020 0 4922.36808300 0 1059
0.03350000 0.03345080 60485.45312631 0 1703.02320803 0 24296.22379605 0 435.64283445 0 1257.73859312 0 1302
0.03450000 0.03451200 58025.29327485 0 3341.24009890 0 21075.17378306 0 1848.10388013 0 -624.11594752 0 1339
0.03550000 0.03553350 54068.59800091 0 1993.09597363 0 19083.04110169 0 -1082.38507774 0 -3424.63684943 0 1365
0.03650000 0.03647120 53864.75650100 0 397.30933870 0 19621.37753437 0 6533.12560832 0 -9430.17725247 0 1308
0.03750000 0.03744890 51149.93317871 0 1786.41995857 0 16388.70158032 0 809.42791184 0 -8841.10742747 0 1579
0.03850000 0.03847530 49797.33797887 0 1125.04785250 0 13642.10068581 0 4851.92595251 0 -7658.12917152 0 1662
0.03950000 0.03950240 47831.00381433 0 -917.09298392 0 12449.94347258 0 5807.37900576 0 -5315.88957938 0 1683
0.04050000 0.04050350 49058.26029722 0 2723.91370096 0 15128.89246245 0 28.06978282 0 -2766.32070502 0 1822
0.04150000 0.04152450 46752.78082349 0 2623.27734068 0 13450.77091294 0 -3126.06053837 0 -6518.42156096 0 1887
0.04250000 0.04250150 44422.72078865 0 1081.25680784 0 15970.38914867 0 398.02350365 0 6225.13782116 0 1920
0.04350000 0.04349210 45446.24649489 0 -260.40447125 0 16713.00997426 0 39.64246599 0 1470.31615732 0 2005
0.04450000 0.04448520 47793.46863319 0 -2171.63721133 0 21138.06458803 0 5658.55588787 0 5567.03205092 0 2151
0.04550000 0.04548030 47219.25786810 0 681.14727819 0 17536.56949427 0 3661.20814151 0 -3298.24626163 0 2274
0.04650000 0.04648670 44967.14699998 0 3280.54161424 0 15311.69654521 0 -624.16134405 0 4830.81102908 0 2311
0.04750000 0.04749250 42867.05915163 0 4032.52962663 0 15985.22606393 0 1250.95125801 0 4153.15153320 0 2568
0.04850000 0.04851840 39563.18814899 0 1143.70471982 0 13586.73906171 0 682.75165806 0 4436.31516811 0 2493
0.04950000 0.04949480 39975.18935550 0 -829.98479010 0 15641.09820856 0 3367.68081057 0 5498.84867468 0 2644
0.05050000 0.05050630 39172.33508290 0 -503.25709319 0 14149.65605549 0 972.85653340 0 911.75390889 0 2829
0.05150000 0.05149060 39925.80678680 0 1767.67451265 0 15318.11849360 0 1171.46303814 0 -645.80109567 0 2784
0.05250000 0.05249300 37448.04193889 0 1714.39448562 0 14912.20706575 0 -2758.66972857 0 -1211.63343258 0 3055
0.05350000 0.05348950 37018.10356618 0 2672.81492192 0 16637.16454925 0 -1968.61506346 0 -1485.91706299 0 3009
0.05450000 0.05448610 33848.65058684 0 1674.36803140 0 15105.19768734 0 -2148.23031666 0 -4560.86775000 0 3336
0.05550000 0.05550870 34086.70557044 0 1153.80268005 0 14974.32280799 0 2427.77330136 0 -4270.16386188 0 3349
0.05650000 0.05647670 31863.60419336 0 -287.31575672 0 11241.62066512 0 263.73059762 0 -5400.30498380 0 3324
0.05750000 0.05747970 33491.23594170 0 580.14553120 0 11717.95207882 0 2914.74521921 0 -7991.01861719 0 3639
0.05850000 0.05849280 32573.11876773 0 -652.13335824 0 10083.62157397 0 757.32376571 0 -6439.50910198 0 3846
0.05950000 0.05951020 32321.11265486 0 -47.84960532 0 10717.39037426 0 2674.04394998 0 -5224.44324870 0 3787
0.06050000 0.06049470 33195.60486904 0 575.86829212 0 11184.59819231 0 186.48895246 0 -4646.68933967 0 3930
0.06150000 0.06148310 32534.80852386 0 847.31519291 0 12260.16382519 0 948.34462072 0 -1007.41879532 0 4083
0.06250000 0.06249100 32788.69693195 0 960.90395876 0 11532.49063811 0 590.59226966 0 -307.67665483 0 4303
0.06350000 0.06350600 32064.56688881 0 -189.62684931 0 12597.42683917 0 -509.00584424 0 2069.40643628 0 4470
0.06450000 0.06451750 32244.82433686 0 -314.68322197 0 12279.87256337 0 1534.44706267 0 -377.69582252 0 4479
0.06550000 0.06550280 33082.22426290 0 -889.68012213 0 11737.10720076 0 1471.72234257 0 187.16657873 0 4636
0.06650000 0.06648880 33236.35102437 0 9.12961900 0 11248.04261352 0 -727.11624914 0 -1482.06389395 0 4653
0.06750000 0.06749660 33911.65211506 0 621.01791103 0 10954.11667888 0 45.68020472 0 -725.69345540 0 5220
0.06850000 0.06852730 31852.42114529 0 813.71400878 0 11596.48867556 0 -253.04801864 0 -221.73437682 0 5029
0.06950000 0.06949320 31543.94617584 0 2240.68422890 0 10909.18518477 0 1469.10927391 0 213.87302620 0 5040
0.07050000 0.07048030 30761.46498091 0 117.32678271 0 12104.37621499 0 1077.63947932 0 3.26635797 0 5475
0.07150000 0.07148790 30030.58081963 0 346.08765686 0 12004.50384513 0 1158.47520113 0 -679.03467862 0 5509
0.07250000 0.07249820 30192.23676198 0 203.40635755 0 13259.44114007 0 343.16234864 0 885.05410482 0 5916
0.07350000 0.07351270 29149.33448731 0 1034.95566715 0 10690.07494893 0 348.19693473 0 1194.78135421 0 5721
0.07450000 0.07449140 29128.18634691 0 705.30598372 0 10845.98435470 0 851.25361885 0 505.25011166 0 6028
0.07550000 0.07549160 27908.23759839 0 470.83621889 0 10144.88474719 0 771.68678547 0 -850.56270578 0 6183
0.07650000 0.07648840 27573.29977263 0 719.20507306 0 10037.60499202 0 961.29924075 0 -860.17459095 0 6330
0.07750000 0.07749960 26473.81791814 0 759.99551769 0 8679.93866741 0 394.23455410 0 -1275.60932538 0 6583
0.07850000 0.07848650 26680.98111549 0 -13.51288666 0 8461.35990316 0 843.26050756 0 -1145.06661577 0 6549
0.07950000 0.07947320 26112.63868255 0 234.86283236 0 8806.89394378 0 904.76284300 0 -129.03244451 0 6828
0.08050000 0.08048110 26294.44625607 0 764.54956489 0 8477.14903835 0 569.04663280 0 -285.39581560 0 7147
0.08150000 0.08149960 25183.22773727 0 915.11325224 0 8517.93948298 0 518.31324048 0 -207.66920260 0 7386
0.08250000 0.08250610 24685.85890642 0 788.30302332 0 7620.74900293 0 355.99628034 0 1082.54119752 0 7227
0.08350000 0.08350160 23785.01455918 0 814.22222849 0 9537.26877811 0 -87.39828872 0 409.42689098 0 7798
0.08450000 0.08449610 23098.30897392 0 1207.04949010 0 9324.25939325 0 -384.79871889 0 766.32888749 0 7371
0.08550000 0.08548940 22362.44226648 0 700.62792648 0 9564.72814366 0 92.97486512 0 1940.70173259 0 8256
0.08650000 0.08650700 21830.85995193 0 502.39455909 0 9486.64610904 0 360.85813816 0 1632.04960594 0 8037
0.08750000 0.08749060 21543.86529263 0 341.63768951 0 8500.92131974 0 1859.14298797 0 2638.83395705 0 8155
0.08850000 0.08849210 20934.88742761 0 99.70993886 0 8248.53874782 0 1508.47138864 0 903.74308188 0 8718
0.08950000 0.08949900 20964.67198137 0 120.81567226 0 7298.62185698 0 2044.87016448 0 1760.68787569 0 8571
0.09050000 0.09049190 20253.71800476 0 826.84246432 0 6630.90530879 0 601.01132732 0 1543.70352622 0 8932
0.09150000 0.09150830 19702.98056828 0 516.87605272 0 5607.54568743 0 912.16469214 0 2226.03554316 0 9285
0.09250000 0.09250820 19513.20092089 0 -483.43320284 0 5218.92923094 0 747.69970098 0 2154.28687834 0 9204
0.09350000 0.09350330 20028.50691795 0 -470.19623852 0 4677.88007868 0 1093.48619060 0 1088.55236266 0 9349
0.09450000 0.09448040 19850.57465812 0 414.54673398 0 4652.69053972 0 -554.33372758 0 87.24969812 0 9564
0.09550000 0.09549270 19207.05113966 0 1013.97250438 0 5419.47117806 0 -765.37777479 0 -83.79391483 0 10155
0.09650000 0.09649430 18606.93113449 0 588.61253799 0 5166.63464083 0 -1218.23253817 0 1518.10431123 0 9913
0.09750000 0.09749140 18878.97815528 0 338.36692476 0 6066.46033419 0 160.92738338 0 1193.14265013 0 10476
0.09850000 0.09850240 18178.65361050 0 4.84654480 0 5590.43894558 0 462.60837432 0 1754.45415681 0 10575
0.09950000 0.09950330 18540.60790882 0 239.22200664 0 6162.87813871 0 725.85732581 0 939.78128470 0 10882
0.10050000 0.10051200 18104.35831097 0 292.84306127 0 5591.30258692 0 564.02644073 0 941.10221305 0 10875
0.10150000 0.10150300 17726.79203465 0 503.83174685 0 5766.43354858 0 168.75108810 0 1267.37151572 0 11118
0.10250000 0.10250800 17095.78024324 0 769.66497896 0 5411.86449091 0 471.11191978 0 1488.48584235 0 11575
0.10350000 0.10349800 16756.19204105 0 425.02004602 0 5410.38079938 0 -231.80687071 0 1400.71552351 0 11364
0.10450000 0.10450100 16264.02720286 0 503.77417076 0 5408.16633442 0 -114.29185848 0 991.47132589 0 12093
0.10550000 0.10551000 15710.52168518 0 485.17045060 0 5978.91146185 0 -39.72761217 0 1619.37179403 0 12067
0.10650000 0.10649700 15537.46124826 0 442.47224440 0 5874.82053623 0 -34.36351369 0 1327.74890295 0 12054
0.10750000 0.10749900 15342.92050120 0 13.27029202 0 6280.48837293 0 271.71042212 0 1437.91853490 0 12807
0.10850000 0.10850100 14994.69588565 0 112.42617174 0 5901.05087372 0 168.08453414 0 725.10551496 0 12736
0.10950000 0.10950300 15050.83257248 0 373.17720676 0 6203.01531618 0 203.95886655 0 1001.08099660 0 12933
0.11050000 0.11050200 15019.16572350 0 11.05412192 0 6263.20447389 0 -326.04785617 0 1024.19890358 0 13428
0.11150000 0.11150900 15003.44302226 0 16.81919357 0 6325.36450542 0 226.58516232 0 859.23787227 0 13453
0.11250000 0.11250000 14966.90435036 0 59.71946970 0 6021.50669542 0 343.64399477 0 1787.47182942 0 13668
0.11350000 0.11349100 15390.31005142 0 -414.30314283 0 5660.64855726 0 693.28697512 0 654.64234704 0 13791
0.11450000 0.11448600 15170.41368052 0 -205.14581977 0 5284.61026177 0 420.01203351 0 718.30600028 0 14205
0.11550000 0.11549300 15610.31714557 0 399.73860677 0 5807.02469136 0 31.08865218 0 35.29945731 0 14776
0.11650000 0.11649800 14900.91329444 0 324.04487261 0 5259.57573535 0 194.40455747 0 669.41061389 0 14553
0.11750000 0.11747300 14661.41890861 0 491.94560616 0 4765.62825287 0 -54.98461143 0 229.15504891 0 14568
0.11850000 0.11849100 14364.34843373 0 202.81177370 0 4983.60911157 0 917.61891935 0 572.70049999 0 16015
0.11950000 0.11950300 14135.48347972 0 204.46155010 0 4635.32913440 0 537.53479637 0 343.44912185 0 15270
0.12050000 0.12050700 13978.03502080 0 56.02098104 0 4682.27579163 0 581.70562176 0 918.57999714 0 15999
0.12150000 0.12150000 13983.79262971 0 131.13065006 0 4117.76438308 0 -371.57947029 0 640.68678884 0 15670
0.12250000 0.12250700 13928.20955912 0 62.46784216 0 4520.07730537 0 -40.18124532 0 583.20260008 0 16887
0.12350000 0.12352200 14153.08847619 0 -152.38729925 0 4829.58200102 0 -306.40887364 0 702.21348339 0 16407
0.12450000 0.12449800 14005.82655610 0 86.49633714 0 4712.74682953 0 -359.26483062 0 -4.35585258 0 16306
0.12550000 0.12549900 14200.92091940 0 181.03029632 0 5041.69452757 0 -181.12108938 0 172.10046635 0 17523
0.12650000 0.12650100 13823.90825933 0 438.82834230 0 4761.87473476 0 76.33061428 0 -192.08601265 0 17154
0.12750000 0.12750600 13309.15587851 0 441.63296218 0 4915.35930139 0 385.60256967 0 346.96126328 0 18007
0.12850000 0.12850300 13131.77723491 0 238.77579195 0 4509.19321007 0 774.62759494 0 448.59745449 0 17496
0.12950000 0.12949900 12949.19459866 0 63.25430939 0 4594.72691929 0 1160.30213472 0 576.30786342 0 18405
0.13050000 0.13049000 12784.10623561 0 131.97436121 0 4180.00192089 0 624.53558863 0 1197.28369961 0 18100
0.13150000 0.13148800 12767.49774838 0 39.64279816 0 4034.99875506 0 814.55882717 0 1616.61478515 0 19059
0.13250000 0.13249300 12579.82184271 0 87.64520157 0 3683.89533506 0 4.89270532 0 1966.72169591 0 18957
0.13350000 0.13349100 12722.10121662 0 77.25028158 0 3777.73328790 0 477.06329437 0 2499.41124294 0 19468
0.13450000 0.13450700 12649.24531932 0 142.20408211 0 3542.56818108 0 144.92123062 0 2095.04994056 0 19953
0.13550000 0.13551000 12397.57137619 0 120.99836562 0 3563.26235616 0 -164.85695146 0 2113.18640861 0 19956
0.13650000 0.13649900 12404.43621758 0 156.71436379 0 3366.09746812 0 -205.37280243 0 1351.98622198 0 19723
0.13750000 0.13749600 12162.61664354 0 388.77036180 0 3696.89424440 0 -589.54925667 0 1272.42049583 0 20946
0.13850000 0.13851100 11919.24694402 0 279.64485008 0 3825.16712742 0 -397.44995723 0 910.24142932 0 20955
0.13950000 0.13949800 11539.79837249 0 243.28665708 0 4029.23007383 0 -163.04884081 0 789.85868496 0 20506
0.14050000 0.14048300 11537.36246103 0 301.88140002 0 4111.32029004 0 144.05426759 0 59.32606999 0 21447
0.14150000 0.14148400 11349.68655535 0 -30.62483249 0 4112.42752252 0 350.44683114 0 492.34531708 0 21771
0.14250000 0.14249400 11234.42365399 0 106.78238634 0 3661.73961310 0 326.05782126 0 360.01110532 0 22470
0.14350000 0.14350900 11224.79073140 0 147.72031434 0 3795.18327181 0 265.80222960 0 50.78410357 0 22519
0.14450000 0.14449900 11062.43723258 0 179.49235040 0 3198.39603641 0 287.14081399 0 194.89949039 0 22218
0.14550000 0.14550500 10835.94175609 0 147.48890275 0 3080.71936824 0 -116.52293193 0 292.07685639 0 23559
0.14650000 0.14650700 10845.03213477 0 94.12915498 0 3066.35856295 0 65.12342855 0 220.36473024 0 23044
0.14750000 0.14750500 10760.87139382 0 -34.83331243 0 3125.65086235 0 137.52048871 0 -148.07352150 0 23649
0.14850000 0.14849900 10727.21152637 0 138.93442459 0 3016.82098171 0 139.52236504 0 -250.06956326 0 23640
0.14950000 0.14949500 10612.56867520 0 234.81411413 0 2858.88534050 0 143.18619732 0 -146.95521669 0 24457
0.15050000 0.15050000 10420.80708167 0 142.95367850 0 2833.60722294 0 72.70265633 0 -429.51651713 0 24591
0.15150000 0.15149900 10400.33435308 0 164.87466718 0 2843.07406066 0 136.60812915 0 -545.91322456 0 25020
0.15250000 0.15250500 10077.91932668 0 200.54083988 0 2664.89820968 0 -48.82109110 0 -461.20108183 0 25297
0.15350000 0.15350100 10024.89396313 0 257.85340761 0 2408.62925175 0 218.04507819 0 -423.23518726 0 25452
0.15450000 0.15450400 9713.42946598 0 127.18004456 0 2484.04285609 0 -20.85771332 0 -151.11730359 0 26061
0.15550000 0.15549900 9748.82768842 0 112.37413182 0 2427.79544601 0 479.79040797 0 -264.92973040 0 26128
0.15650000 0.15649500 9577.21772606 0 120.83560244 0 2363.44309416 0 289.31209688 0 -233.21969935 0 26331
0.15750000 0.15749700 9399.89444409 0 277.50456970 0 2352.01645495 0 -3.76146804 0 29.90037028 0 27345
0.15850000 0.15849900 9414.98602282 0 158.64316277 0 2503.27548430 0 -49.58486007 0 163.67664163 0 26980
0.15950000 0.15949700 9174.27368126 0 164.30444245 0 2789.26256204 0 -192.71159900 0 415.80565731 0 27777
0.16050000 0.16050000 9140.19306547 0 213.11235748 0 2836.39744879 0 -201.67796764 0 449.07356446 0 28224
0.16150000 0.16150500 8919.45519788 0 203.76620810 0 3115.97365046 0 19.55383635 0 445.58910384 0 28075
0.16250000 0.16249700 8826.83520078 0 83.79668291 0 2956.33287123 0 320.04111995 0 570.80602521 0 28590
0.16350000 0.16349900 8737.73620296 0 48.14346482 0 2910.70382065 0 327.20823581 0 345.60933242 0 29163
0.16450000 0.16449100 8749.68324144 0 48.57141017 0 2434.56063647 0 568.95694697 0 547.64493616 0 28996
0.16550000 0.16550500 8670.72649316 0 -78.60475908 0 2156.21346286 0 338.62269546 0 284.13910673 0 30777
0.16650000 0.16650700 8847.15291682 0 -54.03360945 0 1768.80388978 0 374.62435961 0 357.63166271 0 29211
0.16750000 0.16749900 8728.02577409 0 28.89732837 0 1646.74258098 0 81.58476458 0 116.51739576 0 30922
0.16850000 0.16850800 8612.10960557 0 302.86019353 0 1424.94177021 0 -155.25835307 0 -86.00173639 0 30867
0.16950000 0.16949900 8398.67947236 0 240.30377277 0 1632.43713731 0 -241.63466621 0 -14.61325430 0 30852
0.17050000 0.17049200 8132.93260439 0 221.31805741 0 1624.90795644 0 -94.87343666 0 -100.72117428 0 31257
0.17150000 0.17149500 8062.26902740 0 99.68126154 0 1585.45726311 0 97.67916376 0 -218.26098852 0 32608
0.17250000 0.17250900 8030.03748985 0 -13.60334755 0 1708.02789885 0 114.99273664 0 -59.78900390 0 32361
0.17350000 0.17350400 8122.25888327 0 -19.28068210 0 1704.66191210 0 147.03604466 0 -34.04252699 0 32508
0.17450000 0.17449800 8070.75042821 0 18.98538320 0 1776.11162416 0 94.98737088 0 -8.67534365 0 32791
0.17550000 0.17549800 7999.40036708 0 245.35939628 0 1544.12427456 0 67.35516634 0 77.96367147 0 33633
0.17650000 0.17650100 7876.77436971 0 206.09250355 0 1631.76172550 0 -90.75043506 0 103.24887532 0 33984
0.17750000 0.17750300 7667.11989927 0 95.21346775 0 1612.37408474 0 191.26444615 0 378.98464113 0 34069
0.17850000 0.17849800 7759.96134287 0 -29.21410759 0 1648.69131015 0 226.21091774 0 374.32540684 0 34536
