### header ###
fiducial parameters:
Omega_m = 0.31
Omega_nu = 0
Omega_de = 0.69
Omega_k = 0
H_0 = 100
w_de = -1
zeff = 0
beta = 0
fgrowth = 0
b_1 = 2
gamma = 0.55
Lx = 3500 Ly = 3500 Lz = 3500
nx = 700 ny = 700 nz = 700
xoffset = -685.467585 yoffset = -31.7331281 zoffset = 572.489161
bins = 400 dk = 0.001
kx_ny = 0.628318531 ky_ny = 0.628318531 kz_ny = 0.628318531
############################
A(data) = 8.10109915 (not used)
A(ran) = 8.09885922 (used)
Ngal = 481551
weighted Ngal = 0
Nran = 23820508
weighted Nran = 0
SN(data) = 3495.26169
SN(ran) = 70.544001
SN(data+ran) = 3565.80569
############################
13 columns: k_central k_mean P_0(k) sigma^{lin}_{P_0(k)} P^img_1(k) sigma^{lin}_{P_1(k)} P_2(k) sigma^{lin}_{P_2(k)} P^img_3(k) sigma^{lin}_{P_3(k)} P_4(k) sigma^{lin}_{P_4(k)} N_modes
### header ###
0.00050000 0 0 0 0 0 0 0 0 0 0 0 0
0.00150000 0.00179520 14078.90389990 0 -18163.04163251 0 11922.23647173 0 -20489.33707691 0 -57923.42788652 0 3
0.00250000 0.00253879 30122.59183887 0 -19809.05344005 0 1883.93392324 0 -8488.89677499 0 35250.62835538 0 6
0.00350000 0.00331552 32800.76576601 0 -14868.80355246 0 -26561.40000745 0 3880.16336480 0 -21800.96467492 0 7
0.00450000 0.00420575 37408.07084629 0 -8856.75262244 0 -24288.69461518 0 -24530.95708221 0 2355.10563358 0 24
0.00550000 0.00557378 53674.09106762 0 -12576.16797551 0 -17843.05144525 0 -40616.71985549 0 -3104.77953007 0 45
0.00650000 0.00659388 60928.56756555 0 -11401.94792850 0 -15806.96163435 0 -30763.79016912 0 11849.60202092 0 40
0.00750000 0.00754703 69758.08226893 0 -14574.83332853 0 -19040.85554413 0 -32663.80110800 0 -8778.24983947 0 57
0.00850000 0.00846663 98279.72666228 0 -27898.38322930 0 -19149.69649710 0 -22872.65499412 0 -30467.16258723 0 75
0.00950000 0.00948925 103366.35268396 0 -5540.83493040 0 -1433.45638800 0 -42818.34092243 0 -68539.35147614 0 112
0.01050000 0.01054430 119591.07313372 0 13279.92494099 0 20242.75640319 0 -62345.82514234 0 -39825.04863096 0 105
0.01150000 0.01145670 94472.83994313 0 24497.51866125 0 36401.48579703 0 -46623.67751610 0 -23618.48679390 0 144
0.01250000 0.01249090 85360.53806388 0 10748.23787120 0 37925.59130832 0 276.05963131 0 -22600.16508033 0 169
0.01350000 0.01339930 78421.06920704 0 1466.54049455 0 40338.36160955 0 25475.64783573 0 -57158.99458104 0 180
0.01450000 0.01448870 81766.68287424 0 -17.40990210 0 29789.20413858 0 17969.38667143 0 -45523.19915238 0 267
0.01550000 0.01550050 76511.97896181 0 -1886.59128120 0 25198.72899202 0 11028.33447214 0 -22479.47673981 0 238
0.01650000 0.01653350 75797.70328776 0 6232.74450831 0 26033.25011360 0 -4502.11799451 0 -11840.96560756 0 315
0.01750000 0.01747870 73551.57147505 0 4967.38815571 0 26734.34972112 0 6473.05824618 0 -1150.84636933 0 297
0.01850000 0.01844180 71494.11207725 0 1247.90636869 0 27688.00905775 0 4320.88618188 0 10869.53518959 0 388
0.01950000 0.01947590 74587.83035483 0 4406.03235973 0 33511.83046586 0 13211.16580386 0 11949.03149779 0 399
0.02050000 0.02045430 70591.93905102 0 -3563.89347868 0 32009.09454147 0 12744.13514301 0 18087.74982374 0 462
0.02150000 0.02154770 72535.68567294 0 -2104.45034433 0 31341.10118516 0 10464.76421120 0 6105.23561570 0 571
0.02250000 0.02255340 77086.96478964 0 817.03349176 0 30589.62249972 0 7901.45458173 0 8422.59569397 0 510
0.02350000 0.02348930 70191.45306233 0 6030.04345786 0 27734.51282199 0 -2002.89498109 0 14204.02117035 0 555
0.02450000 0.02439640 66300.74884431 0 4801.84582735 0 18046.67149866 0 3699.16407099 0 14423.58537151 0 592
0.02550000 0.02547300 61228.07395189 0 2035.80193046 0 18227.37183970 0 5687.90862096 0 11249.81418549 0 837
0.02650000 0.02652900 60558.97336310 0 1634.37479416 0 16340.75841385 0 3340.02214317 0 -48.97942534 0 723
0.02750000 0.02749970 56446.82264871 0 5651.86820368 0 15918.45994527 0 8345.95306158 0 9639.46633619 0 826
0.02850000 0.02848090 56134.91525857 0 4220.17231533 0 10120.08273959 0 4808.53351154 0 6297.07471551 0 831
0.02950000 0.02946900 53254.00706400 0 -3648.89571631 0 3207.05459442 0 5357.28900188 0 12326.92994385 0 996
0.03050000 0.03053250 58441.50196479 0 -3189.27244076 0 7823.45005338 0 9620.28906960 0 -375.68508833 0 1041
0.03150000 0.03150510 60089.61751404 0 -1199.87462362 0 6821.23857242 0 837.71548729 0 4430.90080128 0 1036
0.03250000 0.03246190 57409.56129169 0 3960.01697139 0 7529.03693646 0 -3875.93373672 0 2836.97320968 0 1059
0.03350000 0.03345080 53358.52981029 0 5769.03554491 0 8634.63071425 0 -4826.80284749 0 8184.61821664 0 1302
0.03450000 0.03451200 51067.55508206 0 1368.77186641 0 9704.40552125 0 -3259.84743916 0 3339.09206788 0 1339
0.03550000 0.03553350 48285.19057839 0 585.59975840 0 11162.34281942 0 -1014.27920778 0 2227.41958377 0 1365
0.03650000 0.03647120 49437.81959201 0 2193.29467868 0 12411.30105897 0 1709.26799923 0 3159.29965748 0 1308
0.03750000 0.03744890 46885.31655157 0 445.00891402 0 9529.67316329 0 2953.08868006 0 2690.44206303 0 1579
0.03850000 0.03847530 46577.50592161 0 272.80547504 0 8745.80792775 0 3575.70764926 0 -1646.46577286 0 1662
0.03950000 0.03950240 46977.65974055 0 -727.44066826 0 8856.99621358 0 398.32245642 0 -5190.37370524 0 1683
0.04050000 0.04050350 45698.25260776 0 2245.82178762 0 8391.85892027 0 -2631.52622267 0 -7597.58569941 0 1822
0.04150000 0.04152450 44710.93340368 0 2969.66395031 0 9195.16715819 0 -4706.18094092 0 -7938.89011194 0 1887
0.04250000 0.04250150 42928.84272412 0 1260.94956732 0 12075.25600072 0 -5322.73227612 0 -1548.46462589 0 1920
0.04350000 0.04349210 42975.34648836 0 804.96355048 0 12917.85991942 0 -1860.48273928 0 -4465.35787611 0 2005
0.04450000 0.04448520 42336.36262307 0 421.89211426 0 13657.82338705 0 3616.54238319 0 -106.07010368 0 2151
0.04550000 0.04548030 42580.28593883 0 -993.69797041 0 11003.43281362 0 4697.86562498 0 -5162.80361644 0 2274
0.04650000 0.04648670 42211.24535262 0 905.68406042 0 13122.47648207 0 2236.06706945 0 -2063.54917645 0 2311
0.04750000 0.04749250 42877.02424397 0 1041.72639377 0 14239.78477952 0 1715.15847603 0 -1958.51710322 0 2568
0.04850000 0.04851840 41838.88306897 0 354.17045397 0 14089.42260848 0 497.32675602 0 1771.53875401 0 2493
0.04950000 0.04949480 40070.30062569 0 1476.00733227 0 14279.75587211 0 116.65358536 0 4926.88559153 0 2644
0.05050000 0.05050630 41456.66641623 0 -10.26005907 0 15816.15166395 0 886.44035989 0 -338.53300963 0 2829
0.05150000 0.05149060 39343.18105485 0 1207.39273217 0 15882.36416636 0 1775.53586327 0 205.67286244 0 2784
0.05250000 0.05249300 38556.27092999 0 2041.26058659 0 13005.55273198 0 -2715.25514295 0 -3114.04706595 0 3055
0.05350000 0.05348950 36426.06635813 0 1490.13561874 0 12329.47657856 0 -116.07450277 0 -2693.90770070 0 3009
0.05450000 0.05448610 36166.86323412 0 299.41005712 0 11688.38897156 0 -926.33505344 0 -5611.11097602 0 3336
0.05550000 0.05550870 34634.89637221 0 836.48756647 0 9983.14022624 0 3515.60707014 0 -7001.13063375 0 3349
0.05650000 0.05647670 34226.21686316 0 973.54744647 0 8318.07294768 0 1679.40593919 0 -7065.32797305 0 3324
0.05750000 0.05747970 32329.08472873 0 989.45062661 0 5546.57039465 0 3980.32361511 0 -5531.29058640 0 3639
0.05850000 0.05849280 33293.04132744 0 -914.96488309 0 6554.34018267 0 2705.54471409 0 -3956.04200678 0 3846
0.05950000 0.05951020 32675.20560256 0 39.93588260 0 6533.55742899 0 699.47529747 0 -3444.75526363 0 3787
0.06050000 0.06049470 32657.71132935 0 1171.89485881 0 7736.64302681 0 -295.54913745 0 260.95476579 0 3930
0.06150000 0.06148310 33250.41287689 0 417.75549371 0 7998.76924456 0 -3396.83424181 0 1678.28763439 0 4083
0.06250000 0.06249100 32762.89841513 0 220.95267069 0 10506.78368388 0 -522.83185624 0 6855.99460003 0 4303
0.06350000 0.06350600 32894.65908047 0 350.92847727 0 12533.98241796 0 630.12046927 0 5072.50880754 0 4470
0.06450000 0.06451750 33366.67228749 0 71.79837956 0 13405.92799742 0 2405.51792848 0 4663.51927339 0 4479
0.06550000 0.06550280 32684.94924840 0 -190.84480504 0 12203.25207562 0 1319.67717816 0 4772.43773263 0 4636
0.06650000 0.06648880 33085.65668359 0 1128.96745548 0 13675.76055325 0 1580.17576417 0 4718.72588494 0 4653
0.06750000 0.06749660 31766.16773495 0 930.02878100 0 12616.24979136 0 216.76179574 0 7032.23279417 0 5220
0.06850000 0.06852730 31007.04914539 0 877.10860453 0 11603.68568669 0 1664.01540770 0 7123.26944883 0 5029
0.06950000 0.06949320 30108.30853986 0 735.73051785 0 11705.77252152 0 1411.16779814 0 6892.64399518 0 5040
0.07050000 0.07048030 29785.77171789 0 441.37608425 0 10224.29546079 0 1070.02393431 0 3510.11519703 0 5475
0.07150000 0.07148790 28592.61799543 0 456.24732371 0 10332.66030379 0 213.40688132 0 2766.98504450 0 5509
0.07250000 0.07249820 28531.83093218 0 1454.87026420 0 9997.77783965 0 -1477.65710867 0 1463.92742590 0 5916
0.07350000 0.07351270 27177.46416036 0 807.89771655 0 9330.51525678 0 -1413.05009336 0 -114.59524018 0 5721
0.07450000 0.07449140 26558.29975650 0 1050.78244824 0 9883.63324309 0 33.15031906 0 -41.26566881 0 6028
0.07550000 0.07549160 25737.72976419 0 536.35891547 0 8899.68002576 0 355.60653450 0 319.82853132 0 6183
0.07650000 0.07648840 26111.42072682 0 -395.36614569 0 9705.85599580 0 1618.77388849 0 -652.04588687 0 6330
0.07750000 0.07749960 25836.93779457 0 -39.56296670 0 8572.20494692 0 2438.11485274 0 280.05563334 0 6583
0.07850000 0.07848650 26022.62068178 0 -373.34661333 0 8352.33072067 0 1756.59111550 0 307.87042051 0 6549
0.07950000 0.07947320 25842.47395698 0 333.09206922 0 7475.29187179 0 1365.54981988 0 1465.17859860 0 6828
0.08050000 0.08048110 25501.00345957 0 1142.27638992 0 7813.72855219 0 1114.26340812 0 2822.71205532 0 7147
0.08150000 0.08149960 24346.71359723 0 686.15861241 0 7588.51746538 0 825.12514674 0 3929.18054677 0 7386
0.08250000 0.08250610 23869.38567429 0 612.32392159 0 6903.59452443 0 513.54217572 0 3386.66984763 0 7227
0.08350000 0.08350160 23637.08829960 0 392.26257305 0 7005.51527438 0 657.78245836 0 4027.58029743 0 7798
0.08450000 0.08449610 22811.86793086 0 460.54006404 0 6481.98253998 0 -285.90957147 0 1394.49287696 0 7371
0.08550000 0.08548940 22523.87676233 0 897.55808124 0 6817.09752294 0 -384.22849416 0 3434.64623107 0 8256
0.08650000 0.08650700 21675.18306498 0 248.73645535 0 6513.07362807 0 -232.57971898 0 1955.26183972 0 8037
0.08750000 0.08749060 21403.91110693 0 405.44639021 0 7484.24938257 0 -791.40438151 0 980.69463214 0 8155
0.08850000 0.08849210 21424.83780083 0 987.51075530 0 8012.74251848 0 -760.45834087 0 768.03402551 0 8718
0.08950000 0.08949900 20353.36892813 0 872.56341519 0 8089.25228298 0 -400.22025289 0 2092.62510142 0 8571
0.09050000 0.09049190 20060.61665993 0 514.52096923 0 8010.02979890 0 1150.92387560 0 3122.97135975 0 8932
0.09150000 0.09150830 20082.09697008 0 -87.50115062 0 8560.49042726 0 1266.54109136 0 3310.80227797 0 9285
0.09250000 0.09250820 19691.13318073 0 62.02428483 0 7674.30583808 0 1707.60715051 0 2562.52349440 0 9204
0.09350000 0.09350330 19713.72072336 0 370.07695581 0 7665.17117010 0 185.52676743 0 1753.84517895 0 9349
0.09450000 0.09448040 19358.52054318 0 217.44938711 0 7608.46979471 0 -665.92061710 0 2877.52006317 0 9564
0.09550000 0.09549270 19085.69845965 0 399.91908566 0 7509.70465732 0 -105.04292411 0 1338.23439456 0 10155
0.09650000 0.09649430 18693.73816107 0 377.35922384 0 7189.76983169 0 -229.71973748 0 1857.96932154 0 9913
0.09750000 0.09749140 18409.40085972 0 302.96870232 0 7021.95767674 0 628.61020416 0 461.49892737 0 10476
0.09850000 0.09850240 18179.42867324 0 418.29139423 0 6272.88168578 0 851.36877103 0 462.97929720 0 10575
0.09950000 0.09950330 17631.23787147 0 389.86209303 0 6196.28334269 0 478.43847711 0 -713.13965352 0 10882
0.10050000 0.10051200 17247.02820026 0 400.31658212 0 4950.20390760 0 412.27026399 0 -569.59360565 0 10875
0.10150000 0.10150300 16840.23098642 0 362.71607427 0 5227.43277640 0 311.07475131 0 -167.45230439 0 11118
0.10250000 0.10250800 16685.32916221 0 115.83866225 0 4279.35389148 0 591.49134244 0 -985.21103343 0 11575
0.10350000 0.10349800 16726.40748729 0 -274.94132650 0 4252.25991265 0 642.77613653 0 -1087.36983837 0 11364
0.10450000 0.10450100 16423.46868025 0 224.67740076 0 3636.42827856 0 -323.98618929 0 -1799.64031440 0 12093
0.10550000 0.10551000 16579.36701370 0 349.42485556 0 4193.72053134 0 -262.71858713 0 -2123.17364560 0 12067
0.10650000 0.10649700 16053.76375456 0 422.73139648 0 4090.74791052 0 59.41110545 0 -1857.44892228 0 12054
0.10750000 0.10749900 16201.02567464 0 188.51297343 0 4622.58488854 0 -460.29758013 0 -1620.87763020 0 12807
0.10850000 0.10850100 15832.53870468 0 281.45296073 0 4746.73886673 0 -53.22245094 0 -1317.14161578 0 12736
0.10950000 0.10950300 15596.36601630 0 310.11256629 0 5259.38750583 0 687.03664776 0 -1221.16670425 0 12933
0.11050000 0.11050200 15474.68116654 0 252.22645214 0 4918.52598629 0 281.63454685 0 -251.67505036 0 13428
0.11150000 0.11150900 15031.89889704 0 222.39760907 0 5216.85870620 0 309.07398222 0 -1047.47293035 0 13453
0.11250000 0.11250000 14954.94623955 0 259.77667043 0 4886.99200521 0 314.64779053 0 434.16467909 0 13668
0.11350000 0.11349100 14832.26488056 0 -102.26277407 0 4732.27841051 0 629.55245900 0 -266.77437972 0 13791
0.11450000 0.11448600 14812.33469589 0 -278.19880446 0 3855.26170628 0 426.00880463 0 322.03413842 0 14205
0.11550000 0.11549300 15072.42360588 0 -115.77222830 0 4470.84974922 0 445.04545269 0 -1055.00543293 0 14776
0.11650000 0.11649800 15033.00612952 0 172.69615743 0 3719.74752282 0 76.70020848 0 -914.30386529 0 14553
0.11750000 0.11747300 14959.92878572 0 278.95836595 0 3849.62589295 0 -178.80808073 0 -1022.29778541 0 14568
0.11850000 0.11849100 14601.73907784 0 261.63571377 0 3590.03523757 0 -570.33766587 0 -1022.06858829 0 16015
0.11950000 0.11950300 14451.59835330 0 371.49753508 0 4097.72347516 0 -18.94961959 0 -932.65624368 0 15270
0.12050000 0.12050700 14011.03054876 0 412.90913714 0 3825.99755178 0 32.35953362 0 -921.53409340 0 15999
0.12150000 0.12150000 13679.30369720 0 181.42779278 0 3949.87472185 0 177.31110241 0 -264.83672287 0 15670
0.12250000 0.12250700 13882.48085762 0 105.39901007 0 4351.95512532 0 157.29123191 0 -1161.24328233 0 16887
0.12350000 0.12352200 13569.35551175 0 164.93113603 0 4041.49820973 0 -10.13652514 0 -588.08881702 0 16407
0.12450000 0.12449800 13274.27805533 0 447.04622179 0 4472.56595957 0 -239.35044560 0 -184.41732048 0 16306
0.12550000 0.12549900 13307.93792278 0 30.09823272 0 4729.39960606 0 51.86221583 0 -44.84701228 0 17523
0.12650000 0.12650100 13433.94097922 0 23.25741828 0 4946.78255923 0 -257.29979137 0 -12.40576490 0 17154
0.12750000 0.12750600 13330.41474216 0 116.98132617 0 4878.30023022 0 86.70637915 0 -290.43925955 0 18007
0.12850000 0.12850300 13369.83221852 0 135.99915128 0 4510.99799901 0 428.66948428 0 299.64146871 0 17496
0.12950000 0.12949900 13268.29899993 0 210.43285488 0 4501.94083731 0 169.21501851 0 75.13524609 0 18405
0.13050000 0.13049000 13029.13678385 0 209.24147273 0 4058.53851763 0 572.13691866 0 -149.56828535 0 18100
0.13150000 0.13148800 12680.57999855 0 367.67204686 0 4276.05433869 0 458.62233738 0 197.45830465 0 19059
0.13250000 0.13249300 12482.27466105 0 406.74185221 0 4257.88465366 0 174.12448733 0 482.04251884 0 18957
0.13350000 0.13349100 12152.31938146 0 -79.76093123 0 3983.46815535 0 780.92774776 0 721.53247574 0 19468
0.13450000 0.13450700 12180.44308650 0 -75.93389288 0 4093.26132826 0 665.11787355 0 767.39183067 0 19953
0.13550000 0.13551000 12315.41472604 0 152.62092530 0 3650.29082924 0 268.66996172 0 942.71766524 0 19956
0.13650000 0.13649900 12185.86852566 0 288.39863009 0 4159.10844395 0 163.02891063 0 1179.19152086 0 19723
0.13750000 0.13749600 11999.63202221 0 132.64423686 0 3810.16412729 0 -392.68996479 0 1820.47842971 0 20946
0.13850000 0.13851100 11745.85433736 0 211.50465592 0 4012.14547664 0 -103.23625287 0 1412.86186383 0 20955
0.13950000 0.13949800 11814.61347449 0 67.19727498 0 3675.45822355 0 172.15914968 0 1140.43838400 0 20506
0.14050000 0.14048300 11858.45988077 0 -14.78764341 0 3974.18954716 0 256.83696819 0 774.74606882 0 21447
0.14150000 0.14148400 11683.07425564 0 116.32916624 0 3416.48761837 0 279.85522426 0 634.77638185 0 21771
0.14250000 0.14249400 11475.91105829 0 235.38766055 0 3445.74070054 0 107.27289033 0 6.60836206 0 22470
0.14350000 0.14350900 11310.04763250 0 351.14217314 0 3412.16941169 0 -328.09070010 0 -10.66106546 0 22519
0.14450000 0.14449900 10892.10058757 0 381.62317613 0 3326.93465523 0 -239.41798679 0 -176.68551606 0 22218
0.14550000 0.14550500 10764.79099681 0 157.65994033 0 3188.77418615 0 -81.26765319 0 50.52025007 0 23559
0.14650000 0.14650700 10699.34248481 0 -92.02663122 0 3351.55950563 0 306.74215061 0 129.73996606 0 23044
0.14750000 0.14750500 10801.65076613 0 -44.20249225 0 3316.84776732 0 333.92027911 0 -503.89043017 0 23649
0.14850000 0.14849900 10634.02684070 0 182.60920984 0 3289.18909993 0 -81.20509456 0 -295.58567613 0 23640
0.14950000 0.14949500 10625.23541479 0 288.31448042 0 3233.78318653 0 123.38445162 0 -230.45826154 0 24457
0.15050000 0.15050000 10323.42598489 0 135.33591903 0 3277.52994189 0 -278.37706889 0 -86.17712202 0 24591
0.15150000 0.15149900 10242.71980928 0 217.61325752 0 3360.15162969 0 362.64853309 0 217.82363169 0 25020
0.15250000 0.15250500 10119.59555730 0 182.36229700 0 3164.02754018 0 323.85553585 0 219.70149798 0 25297
0.15350000 0.15350100 9953.12315365 0 184.85357008 0 3021.68173231 0 253.62820846 0 420.02974923 0 25452
0.15450000 0.15450400 9757.78519920 0 31.31131663 0 3082.10340884 0 213.71579918 0 218.56326299 0 26061
0.15550000 0.15549900 9699.20152859 0 187.11786051 0 2892.43448470 0 321.11181376 0 226.45007996 0 26128
0.15650000 0.15649500 9526.20752562 0 157.21594010 0 2668.95068056 0 65.12010685 0 90.90146157 0 26331
0.15750000 0.15749700 9525.86428355 0 71.75652618 0 2649.14229146 0 117.52719179 0 446.36638104 0 27345
0.15850000 0.15849900 9405.80706554 0 -40.33946884 0 2466.55965520 0 -37.90654691 0 25.86007895 0 26980
0.15950000 0.15949700 9500.68581691 0 76.36637789 0 2481.48514906 0 -20.51214607 0 -229.94782737 0 27777
0.16050000 0.16050000 9445.04738470 0 35.36644487 0 2505.09134557 0 -137.44630414 0 -552.90871938 0 28224
0.16150000 0.16150500 9276.86984303 0 154.90403868 0 2632.20163449 0 -146.01517631 0 -799.86585213 0 28075
0.16250000 0.16249700 9172.20315652 0 378.08446112 0 2561.83701026 0 -458.92571908 0 -997.33190741 0 28590
0.16350000 0.16349900 8812.48546781 0 349.72270109 0 2557.65167148 0 -180.00167734 0 -734.43727031 0 29163
0.16450000 0.16449100 8734.15984204 0 136.93365550 0 2420.01160166 0 -62.46474191 0 -810.33805694 0 28996
0.16550000 0.16550500 8573.19038383 0 13.65660543 0 2519.45215086 0 474.56648512 0 -862.23957953 0 30777
0.16650000 0.16650700 8645.89126859 0 -10.80197186 0 2303.63039549 0 342.97079742 0 -1089.40936060 0 29211
0.16750000 0.16749900 8516.51115308 0 119.18914774 0 2266.07306971 0 193.16667155 0 -913.22209916 0 30922
0.16850000 0.16850800 8556.92513867 0 -22.53096305 0 2273.51367199 0 158.99636993 0 -434.66846987 0 30867
0.16950000 0.16949900 8473.26265234 0 88.80425253 0 2034.80542122 0 228.10649975 0 -458.02000291 0 30852
0.17050000 0.17049200 8543.84872306 0 200.72685494 0 2286.03647136 0 -39.35469627 0 -227.25393074 0 31257
0.17150000 0.17149500 8394.29483173 0 60.69859538 0 2243.62946730 0 39.84841124 0 16.66473464 0 32608
0.17250000 0.17250900 8270.82733768 0 170.80611158 0 2418.36182526 0 -67.27489198 0 -114.30182357 0 32361
0.17350000 0.17350400 8291.45507882 0 67.21786951 0 2310.05234389 0 57.97092816 0 90.05509306 0 32508
0.17450000 0.17449800 8249.90064377 0 84.76850086 0 2520.59260032 0 -63.71768619 0 69.56719539 0 32791
0.17550000 0.17549800 8115.32760793 0 140.47237051 0 2617.50865945 0 99.31775711 0 255.63562095 0 33633
0.17650000 0.17650100 8136.28751881 0 80.92053581 0 2404.51034692 0 26.58066585 0 25.47896953 0 33984
0.17750000 0.17750300 7942.11215847 0 175.12874719 0 2574.41517126 0 -27.88221764 0 -69.07170885 0 34069
0.17850000 0.17849800 7903.81298692 0 162.36014221 0 2618.22836057 0 -53.33461359 0 -110.59746658 0 34536
