### header ###
fiducial parameters:
Omega_m = 0.31
Omega_nu = 0
Omega_de = 0.69
Omega_k = 0
H_0 = 100
w_de = -1
zeff = 0
beta = 0
fgrowth = 0
b_1 = 2
gamma = 0.55
Lx = 3500 Ly = 3500 Lz = 3500
nx = 700 ny = 700 nz = 700
xoffset = -685.467585 yoffset = -31.7331281 zoffset = 572.489161
bins = 400 dk = 0.001
kx_ny = 0.628318531 ky_ny = 0.628318531 kz_ny = 0.628318531
############################
A(data) = 8.01296895 (not used)
A(ran) = 8.01087099 (used)
Ngal = 476157
weighted Ngal = 0
Nran = 23820508
weighted Nran = 0
SN(data) = 3488.51623
SN(ran) = 69.7775916
SN(data+ran) = 3558.29382
############################
13 columns: k_central k_mean P_0(k) sigma^{lin}_{P_0(k)} P^img_1(k) sigma^{lin}_{P_1(k)} P_2(k) sigma^{lin}_{P_2(k)} P^img_3(k) sigma^{lin}_{P_3(k)} P_4(k) sigma^{lin}_{P_4(k)} N_modes
### header ###
0.00050000 0 0 0 0 0 0 0 0 0 0 0 0
0.00150000 0.00179520 5847.79299134 0 -4310.24567773 0 9678.36341328 0 12435.77089681 0 -36536.56815982 0 3
0.00250000 0.00253879 11506.91356778 0 22.06094286 0 18116.98076126 0 12237.57628256 0 5279.92666837 0 6
0.00350000 0.00331552 19166.41570757 0 -2506.22072270 0 11430.62524978 0 1519.28904999 0 -21359.28963791 0 7
0.00450000 0.00420575 20925.91884450 0 -2900.88266854 0 1116.52216239 0 27064.96934020 0 -10903.20612937 0 24
0.00550000 0.00557378 29799.50140066 0 -1975.20309672 0 4110.40128708 0 8997.30471368 0 -18454.24377524 0 45
0.00650000 0.00659388 47427.19612819 0 -17394.40084360 0 -6411.51826484 0 13964.08389153 0 12865.70926952 0 40
0.00750000 0.00754703 48843.78936549 0 -20972.64405524 0 -22239.65018424 0 34654.49438714 0 646.17423302 0 57
0.00850000 0.00846663 68847.49427585 0 -32407.36606520 0 -37904.33244466 0 5953.19045129 0 4983.24372485 0 75
0.00950000 0.00948925 85227.11654981 0 -14170.25057966 0 -16699.83390772 0 -3755.62185524 0 -23885.88343827 0 112
0.01050000 0.01054430 85875.06899820 0 2007.33498335 0 -26256.68962844 0 -33042.47461680 0 4239.71496863 0 105
0.01150000 0.01145670 81453.44680512 0 20428.55001365 0 -19942.58567736 0 -35614.24350242 0 30528.06037373 0 144
0.01250000 0.01249090 68651.51412656 0 13603.45827219 0 2103.95208971 0 -16044.46300171 0 24014.43312942 0 169
0.01350000 0.01339930 63586.81130801 0 4034.12404140 0 3903.75848899 0 2780.07253244 0 16554.45428285 0 180
0.01450000 0.01448870 60045.66038451 0 2048.65689957 0 9193.97134711 0 9744.16623968 0 3747.70514299 0 267
0.01550000 0.01550050 56545.91995583 0 -6230.31966918 0 5987.81361100 0 13322.55339154 0 22666.37758275 0 238
0.01650000 0.01653350 66215.04905021 0 -4302.79400312 0 -728.44492812 0 2951.85965200 0 8945.63017375 0 315
0.01750000 0.01747870 73631.18149049 0 -7613.67378737 0 -1978.00439490 0 -506.24994259 0 3417.41769365 0 297
0.01850000 0.01844180 76783.69381286 0 -6544.55224753 0 -3527.34373445 0 -11568.80786351 0 -15101.98671314 0 388
0.01950000 0.01947590 77471.61735384 0 6012.33881047 0 8017.06072516 0 -16767.70725886 0 9504.68292617 0 399
0.02050000 0.02045430 73923.15869596 0 11522.74699227 0 6184.84563115 0 -13969.17716095 0 1265.19026773 0 462
0.02150000 0.02154770 65102.94474543 0 6673.57804864 0 12490.57890467 0 2149.17146427 0 10903.97011978 0 571
0.02250000 0.02255340 66896.88281255 0 -4171.73089425 0 14907.77813583 0 5883.13585217 0 -11120.71087810 0 510
0.02350000 0.02348930 67123.20113184 0 -1657.25021723 0 18584.89720810 0 4994.01709690 0 -15608.10268060 0 555
0.02450000 0.02439640 68199.65255071 0 1562.03929612 0 9147.75546332 0 -7569.32912647 0 -16017.00363616 0 592
0.02550000 0.02547300 62790.37898381 0 5603.62608444 0 21098.75783492 0 -9126.55196129 0 -14572.06524732 0 837
0.02650000 0.02652900 60754.39989615 0 2042.54497627 0 24814.96221381 0 -11639.67074235 0 -11374.59928620 0 723
0.02750000 0.02749970 62677.33054741 0 1151.18961139 0 32701.00411939 0 -1619.34964938 0 -22323.91057611 0 826
0.02850000 0.02848090 58951.38252268 0 2043.67435340 0 28916.04060338 0 2676.12554704 0 -4454.67308266 0 831
0.02950000 0.02946900 59047.93319510 0 1229.40451391 0 32390.53613148 0 10574.31379295 0 -11908.72823545 0 996
0.03050000 0.03053250 59323.96625283 0 2187.58135907 0 30640.44447064 0 13029.46895359 0 -6916.28340867 0 1041
0.03150000 0.03150510 56244.75272077 0 4653.96385707 0 28036.45511979 0 10434.22673935 0 4884.30143027 0 1036
0.03250000 0.03246190 51310.92478158 0 4201.81440078 0 19903.27892425 0 2890.34181531 0 2558.58174677 0 1059
0.03350000 0.03345080 48065.62637723 0 1772.53526324 0 19769.74668694 0 5846.03249170 0 9824.58453483 0 1302
0.03450000 0.03451200 46572.08048245 0 681.92234093 0 16086.64855927 0 7350.44033713 0 -179.29747749 0 1339
0.03550000 0.03553350 46733.95787129 0 -630.47367643 0 11519.42529482 0 475.61281982 0 -3928.90373865 0 1365
0.03650000 0.03647120 45421.99810353 0 -870.37552381 0 10938.07288022 0 -2929.07280752 0 -3684.29393875 0 1308
0.03750000 0.03744890 47557.96028430 0 827.59538241 0 10001.80816588 0 -4517.85176808 0 -6097.56249460 0 1579
0.03850000 0.03847530 44594.34182334 0 1750.46811988 0 11043.30425530 0 -1340.92496949 0 -6152.73588917 0 1662
0.03950000 0.03950240 46158.52915047 0 -646.78763982 0 9754.33063386 0 4682.09863444 0 3269.74609754 0 1683
0.04050000 0.04050350 46062.08920130 0 -2214.30995118 0 9558.76016059 0 6880.51979950 0 31.71601010 0 1822
0.04150000 0.04152450 48967.91012670 0 -295.49377583 0 10082.02715919 0 4454.56235941 0 -3100.11808132 0 1887
0.04250000 0.04250150 46596.55032029 0 2851.26758102 0 13653.61590362 0 38.09178690 0 3212.26965941 0 1920
0.04350000 0.04349210 45237.20100231 0 3334.81815050 0 10772.10980351 0 -5058.44695502 0 7718.56192038 0 2005
0.04450000 0.04448520 42958.95944762 0 1108.14041250 0 15829.65990023 0 -2222.78027967 0 5810.16923161 0 2151
0.04550000 0.04548030 44014.26272609 0 269.30219147 0 14710.69075405 0 155.86622370 0 3772.46286129 0 2274
0.04650000 0.04648670 43215.61593692 0 161.37359807 0 15114.27699369 0 -648.29790492 0 -3697.04925695 0 2311
0.04750000 0.04749250 40692.23311075 0 2160.02234260 0 12171.80667314 0 690.39266942 0 -4301.93036179 0 2568
0.04850000 0.04851840 38812.92741928 0 1998.18924305 0 12079.57420740 0 990.60325562 0 -5229.48115650 0 2493
0.04950000 0.04949480 38122.45724359 0 730.50105884 0 13564.92658182 0 2284.57492448 0 -7053.02662018 0 2644
0.05050000 0.05050630 37416.15364341 0 1000.07009334 0 14219.63314835 0 -892.37623322 0 -6311.32479755 0 2829
0.05150000 0.05149060 36340.36656403 0 2049.86378298 0 14188.29846911 0 -681.66989192 0 -200.36589715 0 2784
0.05250000 0.05249300 36844.71095952 0 3.06039058 0 15540.22932947 0 399.59577378 0 1778.20429355 0 3055
0.05350000 0.05348950 36273.15755238 0 -380.59566439 0 16489.90262916 0 3530.30004518 0 8114.64112379 0 3009
0.05450000 0.05448610 37743.23011855 0 -729.79021559 0 15694.57753744 0 4824.43336998 0 3484.12845068 0 3336
0.05550000 0.05550870 36247.02686581 0 971.11042778 0 12481.72104481 0 5308.86972545 0 5341.35592646 0 3349
0.05650000 0.05647670 36302.49921315 0 1734.46861052 0 12190.18673234 0 1818.05359057 0 820.01859053 0 3324
0.05750000 0.05747970 34069.21129723 0 940.54638235 0 10140.55546818 0 -887.72142787 0 2587.38086362 0 3639
0.05850000 0.05849280 32626.48737336 0 1248.16103216 0 10462.53867391 0 -488.98597373 0 134.93067194 0 3846
0.05950000 0.05951020 32596.81354285 0 296.25887348 0 7930.17619231 0 -2013.20331550 0 -2797.75503518 0 3787
0.06050000 0.06049470 32517.42497390 0 -1082.98630498 0 9454.10454640 0 -1169.85755104 0 -2612.65898118 0 3930
0.06150000 0.06148310 33638.71930828 0 491.27794497 0 10024.90503545 0 -286.82303826 0 -3141.96039681 0 4083
0.06250000 0.06249100 33252.84878835 0 285.19319205 0 10598.80577545 0 499.45042792 0 -2689.60056635 0 4303
0.06350000 0.06350600 33554.23746991 0 568.33246785 0 11665.35853593 0 434.27318787 0 -2395.19852174 0 4470
0.06450000 0.06451750 32511.88881149 0 616.01432745 0 12091.53231820 0 -508.46883648 0 121.05815617 0 4479
0.06550000 0.06550280 32099.99832823 0 1249.58936206 0 12778.23790346 0 717.03379016 0 -72.94480807 0 4636
0.06650000 0.06648880 32409.58053016 0 964.09611000 0 14845.10877735 0 -316.72938760 0 -654.31017730 0 4653
0.06750000 0.06749660 30081.18134405 0 450.00696144 0 12666.85031578 0 247.32694840 0 624.32189276 0 5220
0.06850000 0.06852730 30532.60002691 0 357.95718906 0 13090.58818659 0 2389.37447889 0 -428.94629240 0 5029
0.06950000 0.06949320 29616.58659466 0 -64.00722748 0 10732.48195299 0 1646.31076031 0 -1200.47252916 0 5040
0.07050000 0.07048030 29696.86094959 0 223.93666222 0 10320.12643209 0 1702.64674899 0 -4369.48261551 0 5475
0.07150000 0.07148790 29309.55102744 0 88.14323474 0 10146.60095753 0 673.00911945 0 -2450.39406096 0 5509
0.07250000 0.07249820 29149.77738031 0 286.78649959 0 9133.74897242 0 -684.30953416 0 -2559.35680951 0 5916
0.07350000 0.07351270 29421.71367785 0 198.59543241 0 10052.23153310 0 109.94276001 0 -1735.01115443 0 5721
0.07450000 0.07449140 28778.85449888 0 1079.62917609 0 10875.97928264 0 -1271.80044564 0 -1552.22921633 0 6028
0.07550000 0.07549160 27477.08126995 0 2062.02119563 0 11563.93604059 0 -346.57926808 0 -2198.60939459 0 6183
0.07650000 0.07648840 26547.33815493 0 2217.63164863 0 13797.00251002 0 -534.30721368 0 899.60867580 0 6330
0.07750000 0.07749960 24393.77097770 0 1176.95491125 0 12840.13219919 0 -3.07106430 0 1039.84631302 0 6583
0.07850000 0.07848650 24299.98838649 0 2.35191680 0 13913.37264386 0 1783.93975781 0 2027.47554219 0 6549
0.07950000 0.07947320 24412.70465314 0 -483.99678417 0 12334.45912472 0 1769.96648388 0 -48.49368245 0 6828
0.08050000 0.08048110 24379.93057168 0 -271.29853164 0 11641.44231432 0 2483.34529963 0 -55.11338257 0 7147
0.08150000 0.08149960 24424.55204070 0 443.01811002 0 10292.68921119 0 704.77783382 0 71.07723905 0 7386
0.08250000 0.08250610 23486.39395882 0 627.23612865 0 9972.64366231 0 1620.15792909 0 1337.00536650 0 7227
0.08350000 0.08350160 23217.77935872 0 477.73870618 0 8608.64396790 0 2663.49202442 0 569.36883745 0 7798
0.08450000 0.08449610 22695.38707377 0 562.33680396 0 8471.73467152 0 1262.40004187 0 1419.57169267 0 7371
0.08550000 0.08548940 21851.67592259 0 819.41182713 0 7214.08465699 0 1759.00488231 0 2571.42564356 0 8256
0.08650000 0.08650700 21558.81293114 0 -70.67309919 0 6906.13008681 0 809.17324837 0 3164.51472247 0 8037
0.08750000 0.08749060 21618.82493166 0 -467.51341421 0 6571.81231124 0 1026.18195696 0 2358.19481220 0 8155
0.08850000 0.08849210 21443.43930653 0 502.17864875 0 6434.22760304 0 -500.28417398 0 916.40428531 0 8718
0.08950000 0.08949900 20914.07145695 0 1274.83426264 0 6969.08732573 0 -1477.84533819 0 1168.20777464 0 8571
0.09050000 0.09049190 20023.96726478 0 878.50482469 0 7095.90973420 0 -815.14344592 0 2345.97096560 0 8932
0.09150000 0.09150830 19852.67839983 0 304.63508720 0 7223.76186888 0 -210.20697945 0 2149.47041704 0 9285
0.09250000 0.09250820 19684.82195558 0 -99.06087918 0 7872.14613794 0 1131.23728207 0 2507.56047400 0 9204
0.09350000 0.09350330 19370.58937723 0 -27.32893356 0 6845.19908333 0 1200.19572104 0 1440.35444636 0 9349
0.09450000 0.09448040 19588.27128316 0 155.27939049 0 6978.44344020 0 1403.16250729 0 2535.76168532 0 9564
0.09550000 0.09549270 19165.08702859 0 587.38683163 0 7156.16532586 0 34.91657632 0 2031.25120496 0 10155
0.09650000 0.09649430 18600.84135584 0 492.33756646 0 7218.66859947 0 489.04797875 0 2878.01831779 0 9913
0.09750000 0.09749140 18199.80175091 0 521.39909741 0 7318.98386232 0 -72.27216434 0 2659.09631147 0 10476
0.09850000 0.09850240 17913.58215434 0 402.59637380 0 7028.71179488 0 -213.92174443 0 2554.86144563 0 10575
0.09950000 0.09950330 17537.01238726 0 389.21879095 0 7132.38197215 0 -301.63780887 0 1950.31251053 0 10882
0.10050000 0.10051200 17441.56894732 0 253.31153997 0 7069.60189043 0 -85.91659022 0 2517.20446892 0 10875
0.10150000 0.10150300 17326.41676921 0 311.08914534 0 6902.66444914 0 469.88510619 0 2181.12619370 0 11118
0.10250000 0.10250800 17230.75188278 0 -222.53269144 0 6114.34813903 0 619.48660851 0 976.35538804 0 11575
0.10350000 0.10349800 17213.81122580 0 -16.16625857 0 6452.12047995 0 590.30660368 0 1512.93353554 0 11364
0.10450000 0.10450100 17052.81962294 0 364.96597067 0 5706.39940341 0 421.39053795 0 409.82328021 0 12093
0.10550000 0.10551000 16452.47817127 0 498.49820799 0 6091.33984805 0 340.06320492 0 986.03924333 0 12067
0.10650000 0.10649700 16273.32795571 0 406.88357797 0 5743.73528270 0 -223.83368960 0 267.49961699 0 12054
0.10750000 0.10749900 15765.66186277 0 335.43718761 0 6111.76828735 0 155.10444776 0 962.77739612 0 12807
0.10850000 0.10850100 15746.50674084 0 11.55961783 0 6070.80068552 0 11.27583415 0 -43.46861856 0 12736
0.10950000 0.10950300 15641.54110156 0 214.14540539 0 6435.77772851 0 -168.88617046 0 -46.80747811 0 12933
0.11050000 0.11050200 15670.66131583 0 304.00507192 0 6003.86848199 0 -2.79270606 0 2.72146672 0 13428
0.11150000 0.11150900 15180.82166585 0 209.38319848 0 6178.43475508 0 -176.62904720 0 -509.13760490 0 13453
0.11250000 0.11250000 15132.87849939 0 394.51357668 0 6009.12783628 0 118.86805032 0 614.59928434 0 13668
0.11350000 0.11349100 14844.66588436 0 104.76644816 0 5615.61741222 0 1062.99300805 0 -365.00693827 0 13791
0.11450000 0.11448600 14791.96161822 0 -89.38244933 0 5053.12116678 0 1078.60055712 0 463.69124769 0 14205
0.11550000 0.11549300 14930.14423196 0 -139.01303810 0 4833.52374866 0 775.16570993 0 230.55901970 0 14776
0.11650000 0.11649800 14884.08336071 0 152.08613201 0 4734.20499503 0 742.00852602 0 607.92488694 0 14553
0.11750000 0.11747300 14687.10670219 0 303.06946047 0 4388.61559279 0 -98.16623533 0 1120.57463327 0 14568
0.11850000 0.11849100 14561.32509225 0 107.79251453 0 4835.79357524 0 -211.75710492 0 941.29154981 0 16015
0.11950000 0.11950300 14375.53148179 0 283.98963034 0 5283.77983741 0 -150.91357281 0 1325.94411401 0 15270
0.12050000 0.12050700 14272.22669124 0 605.16012743 0 5463.59439246 0 -333.98339136 0 1132.16735736 0 15999
0.12150000 0.12150000 13796.89178677 0 422.67824932 0 5321.53646504 0 258.92077972 0 1415.09847345 0 15670
0.12250000 0.12250700 13630.69619124 0 -202.73094573 0 4866.81822939 0 616.68420310 0 1490.37920989 0 16887
0.12350000 0.12352200 13749.17006680 0 -104.14351916 0 4303.67978911 0 916.60026546 0 1158.08766976 0 16407
0.12450000 0.12449800 13570.79491397 0 155.05240783 0 3361.63532121 0 679.12879338 0 101.73506707 0 16306
0.12550000 0.12549900 13506.13253703 0 239.56635594 0 3670.54211133 0 286.54069398 0 759.83718345 0 17523
0.12650000 0.12650100 13069.10787644 0 248.39321328 0 3482.47867429 0 -442.72469341 0 -251.21111995 0 17154
0.12750000 0.12750600 13054.71385418 0 526.85111015 0 4009.26667218 0 -426.77722397 0 16.02685801 0 18007
0.12850000 0.12850300 12702.94609469 0 274.39213919 0 4505.21824546 0 -751.65362817 0 241.66013256 0 17496
0.12950000 0.12949900 12531.76795299 0 226.83207516 0 4727.66125107 0 -330.51553923 0 711.88848082 0 18405
0.13050000 0.13049000 12586.02234460 0 86.79816872 0 5002.36562982 0 -52.45923559 0 123.19068593 0 18100
0.13150000 0.13148800 12521.47069091 0 -86.02543117 0 4885.49724136 0 596.82155961 0 343.02062288 0 19059
0.13250000 0.13249300 12609.60639647 0 33.58568287 0 4567.82116998 0 662.65871021 0 366.34668958 0 18957
0.13350000 0.13349100 12539.51858037 0 36.74804956 0 4385.93609019 0 467.96737953 0 -99.21035556 0 19468
0.13450000 0.13450700 12359.15040907 0 46.85497838 0 4036.65960378 0 44.28774915 0 226.89075849 0 19953
0.13550000 0.13551000 12459.57639517 0 154.22419793 0 4028.85361479 0 150.74084455 0 190.37976740 0 19956
0.13650000 0.13649900 12309.87856363 0 54.17024194 0 3705.51958543 0 423.61718247 0 379.78627744 0 19723
0.13750000 0.13749600 12060.86197846 0 231.82237196 0 3570.80260936 0 264.15688213 0 429.95941013 0 20946
0.13850000 0.13851100 12072.37719627 0 356.09703849 0 3623.60652642 0 218.00189612 0 321.79608344 0 20955
0.13950000 0.13949800 11679.19894196 0 284.61410946 0 3426.15375793 0 6.50832360 0 343.47569543 0 20506
0.14050000 0.14048300 11332.52445188 0 390.64490639 0 3471.55028969 0 -2.85685911 0 740.58462505 0 21447
0.14150000 0.14148400 11136.10140960 0 277.06278394 0 3449.44992935 0 214.42774967 0 731.80537870 0 21771
0.14250000 0.14249400 11056.60211740 0 -29.65212876 0 3422.99814536 0 -13.49705323 0 541.67584585 0 22470
0.14350000 0.14350900 10994.37565192 0 -77.86446344 0 3025.40203345 0 659.63264384 0 28.58409231 0 22519
0.14450000 0.14449900 10871.30676156 0 18.35248911 0 2942.78034565 0 101.52768242 0 252.54754956 0 22218
0.14550000 0.14550500 10880.19783839 0 168.49974632 0 2689.33483055 0 191.86678062 0 139.04071891 0 23559
0.14650000 0.14650700 10828.66723869 0 -54.71012850 0 2920.31459859 0 625.55977867 0 328.55130881 0 23044
0.14750000 0.14750500 10691.66936371 0 134.36709060 0 2353.17904906 0 362.88658807 0 502.04467362 0 23649
0.14850000 0.14849900 10782.00846190 0 245.56312706 0 2625.02676800 0 109.85240984 0 567.25734511 0 23640
0.14950000 0.14949500 10498.37978935 0 217.02863877 0 2744.87361184 0 -266.00485314 0 732.91814735 0 24457
0.15050000 0.15050000 10452.13068858 0 265.88527203 0 2991.53179183 0 -441.40597952 0 1054.28905351 0 24591
0.15150000 0.15149900 10198.19799119 0 224.10385433 0 2961.38185135 0 -347.53370248 0 965.24541732 0 25020
0.15250000 0.15250500 9981.11399079 0 226.46558121 0 3203.24571468 0 266.93492843 0 853.10934049 0 25297
0.15350000 0.15350100 9756.34579698 0 215.18398946 0 2908.87688706 0 37.37518604 0 604.11932890 0 25452
0.15450000 0.15450400 9641.43721001 0 68.02116667 0 3021.62637068 0 208.64356719 0 171.46712937 0 26061
0.15550000 0.15549900 9450.50604084 0 95.38431372 0 2738.00877045 0 336.84337287 0 524.28675972 0 26128
0.15650000 0.15649500 9611.80766879 0 15.70520697 0 2759.33406805 0 117.15737614 0 268.61460010 0 26331
0.15750000 0.15749700 9372.25792134 0 -25.11723668 0 2421.14097879 0 231.73711506 0 240.96146887 0 27345
0.15850000 0.15849900 9456.78404901 0 123.92921000 0 2581.37966357 0 64.14075972 0 83.95235979 0 26980
0.15950000 0.15949700 9464.01427711 0 206.22980037 0 2823.13280366 0 -347.92677001 0 -17.88457266 0 27777
0.16050000 0.16050000 9188.41304005 0 328.74618173 0 2846.35146880 0 -343.09702192 0 128.18984059 0 28224
0.16150000 0.16150500 8885.29707582 0 395.85664968 0 3119.45036046 0 -381.06513096 0 605.65173865 0 28075
0.16250000 0.16249700 8771.73931248 0 190.34544319 0 3039.24243947 0 188.83739255 0 262.32330514 0 28590
0.16350000 0.16349900 8562.49451805 0 103.04935202 0 2879.03697167 0 450.87392448 0 284.24097212 0 29163
0.16450000 0.16449100 8540.43844702 0 83.87662509 0 2817.30876081 0 360.09636222 0 -42.26837855 0 28996
0.16550000 0.16550500 8349.80623061 0 86.21930758 0 2699.91997308 0 287.43755229 0 -104.80132598 0 30777
0.16650000 0.16650700 8337.25021427 0 98.52376070 0 2393.06156305 0 117.52608456 0 211.57551880 0 29211
0.16750000 0.16749900 8307.18885239 0 -99.95164771 0 2347.02283646 0 174.51423316 0 90.58501453 0 30922
0.16850000 0.16850800 8354.31266681 0 -80.27645868 0 2129.93883606 0 334.22033912 0 206.60625942 0 30867
0.16950000 0.16949900 8517.07584165 0 -146.06057285 0 1888.57322734 0 301.59794850 0 -205.99174539 0 30852
0.17050000 0.17049200 8530.55086095 0 142.72226691 0 2025.94756137 0 -126.79583489 0 220.91170308 0 31257
0.17150000 0.17149500 8423.17145486 0 313.62138602 0 2257.73560912 0 -184.36528056 0 111.33554775 0 32608
0.17250000 0.17250900 8145.55505468 0 270.20237148 0 2267.45711031 0 -168.30819510 0 510.24594462 0 32361
0.17350000 0.17350400 7946.24213562 0 235.98888779 0 2296.49981831 0 122.53409707 0 648.96667334 0 32508
0.17450000 0.17449800 7918.84920402 0 31.98982870 0 2475.31786413 0 203.25245223 0 650.00415018 0 32791
0.17550000 0.17549800 7915.80431470 0 -66.58995797 0 2504.27199353 0 340.35772876 0 1003.96422998 0 33633
0.17650000 0.17650100 8035.24148252 0 -106.27959207 0 2295.82440650 0 262.37977399 0 908.13436591 0 33984
0.17750000 0.17750300 7967.84424134 0 -9.83203621 0 2133.40447373 0 319.49525434 0 1015.32554247 0 34069
0.17850000 0.17849800 8122.63534231 0 50.21819705 0 2132.87300214 0 61.95685437 0 810.69790750 0 34536
