### header ###
fiducial parameters:
Omega_m = 0.31
Omega_nu = 0
Omega_de = 0.69
Omega_k = 0
H_0 = 100
w_de = -1
zeff = 0
beta = 0
fgrowth = 0
b_1 = 2
gamma = 0.55
Lx = 3500 Ly = 3500 Lz = 3500
nx = 700 ny = 700 nz = 700
xoffset = -685.467585 yoffset = -31.7331281 zoffset = 572.489161
bins = 400 dk = 0.001
kx_ny = 0.628318531 ky_ny = 0.628318531 kz_ny = 0.628318531
############################
A(data) = 7.99558331 (not used)
A(ran) = 7.98939596 (used)
Ngal = 474866
weighted Ngal = 0
Nran = 23820508
weighted Nran = 0
SN(data) = 3492.59203
SN(ran) = 69.5905363
SN(data+ran) = 3562.18256
############################
13 columns: k_central k_mean P_0(k) sigma^{lin}_{P_0(k)} P^img_1(k) sigma^{lin}_{P_1(k)} P_2(k) sigma^{lin}_{P_2(k)} P^img_3(k) sigma^{lin}_{P_3(k)} P_4(k) sigma^{lin}_{P_4(k)} N_modes
### header ###
0.00050000 0 0 0 0 0 0 0 0 0 0 0 0
0.00150000 0.00179520 40618.26998096 0 -47689.27805665 0 -8244.08767325 0 -15625.26478407 0 46161.29723167 0 3
0.00250000 0.00253879 64409.26359554 0 -36096.77541802 0 -2465.90638804 0 -13519.75149656 0 -12735.60945290 0 6
0.00350000 0.00331552 73015.89240032 0 -3280.98450724 0 13623.60990336 0 -73220.61968622 0 29105.48808103 0 7
0.00450000 0.00420575 74160.77078657 0 16135.03461872 0 11004.81685423 0 -41531.62605525 0 46466.78267342 0 24
0.00550000 0.00557378 52498.21017188 0 14738.81445909 0 18797.37512137 0 75.98659715 0 28758.59214446 0 45
0.00650000 0.00659388 58349.04805255 0 3704.76666734 0 27064.63717046 0 23041.50794760 0 4203.82956390 0 40
0.00750000 0.00754703 53509.11342782 0 -10052.06544823 0 6003.11556390 0 27873.24905196 0 -12272.78627548 0 57
0.00850000 0.00846663 53688.48508989 0 1180.66414006 0 8289.31812013 0 4074.11727865 0 -28358.21687902 0 75
0.00950000 0.00948925 57794.10313264 0 -2261.54448886 0 473.31088349 0 -10484.77190214 0 -12532.43229248 0 112
0.01050000 0.01054430 54909.43034764 0 -3578.75253858 0 10805.42642889 0 -32387.54660377 0 -17423.29961137 0 105
0.01150000 0.01145670 53783.15346709 0 -1005.49553250 0 26378.48520145 0 -18788.18509177 0 -19804.40306362 0 144
0.01250000 0.01249090 65000.08284786 0 1527.70401685 0 33441.07831027 0 -24321.35797339 0 -4695.46293049 0 169
0.01350000 0.01339930 60848.84682686 0 4474.37074851 0 32962.97532460 0 -3630.52672944 0 8925.68891676 0 180
0.01450000 0.01448870 68628.92658393 0 -1801.79941774 0 38189.88770174 0 -3419.55465234 0 -1398.54534784 0 267
0.01550000 0.01550050 72117.26251804 0 -8842.98972269 0 37312.84885285 0 15609.09918984 0 8671.91123191 0 238
0.01650000 0.01653350 92138.68314811 0 -13815.71473896 0 46164.39748262 0 5828.41642291 0 -30110.63372807 0 315
0.01750000 0.01747870 89255.67121183 0 -4594.70477464 0 47213.50025919 0 3299.58601293 0 -14979.96969364 0 297
0.01850000 0.01844180 100489.98414257 0 9410.23599547 0 49590.94984425 0 -13930.09185434 0 -20840.10832716 0 388
0.01950000 0.01947590 87750.72082248 0 7787.40963610 0 52430.89043698 0 2543.60089129 0 -11496.06268946 0 399
0.02050000 0.02045430 85210.84023233 0 2156.33525843 0 56276.86246274 0 4499.32776866 0 -9752.27118144 0 462
0.02150000 0.02154770 84586.69328230 0 5229.48115650 0 49943.16049673 0 17786.02897243 0 -16762.17109645 0 571
0.02250000 0.02255340 82686.35017368 0 5231.85063401 0 51070.76605626 0 8516.41150216 0 -9321.15914230 0 510
0.02350000 0.02348930 75549.12959558 0 8072.21197509 0 35933.45862695 0 15681.18002441 0 2487.79637420 0 555
0.02450000 0.02439640 71323.93044478 0 4021.13620439 0 44708.16532247 0 15169.86006428 0 13039.65549242 0 592
0.02550000 0.02547300 68236.63411560 0 -170.30010634 0 32224.34053595 0 20004.59069634 0 9563.86450233 0 837
0.02650000 0.02652900 68318.23714952 0 1667.83535976 0 28224.68464171 0 17069.87100316 0 2535.26343070 0 723
0.02750000 0.02749970 67322.61370182 0 -942.18619365 0 27185.76840397 0 -6099.19012635 0 -3143.98663225 0 826
0.02850000 0.02848090 62903.31669696 0 5401.22398676 0 27335.57695877 0 -1853.29680047 0 -1244.36322474 0 831
0.02950000 0.02946900 62928.11870455 0 2035.25938654 0 23215.01127751 0 -3310.19330011 0 -7312.48440765 0 996
0.03050000 0.03053250 62320.24807201 0 -2295.53652605 0 28710.53825475 0 -902.07337530 0 -11111.29940201 0 1041
0.03150000 0.03150510 61161.19710999 0 2695.91179149 0 21317.98986633 0 93.73210141 0 -16593.98248246 0 1036
0.03250000 0.03246190 59483.73989997 0 2847.68014778 0 20824.16417942 0 3820.26208753 0 -17763.55215305 0 1059
0.03350000 0.03345080 59574.75440997 0 934.45771093 0 17651.05733289 0 4297.81145696 0 -14799.38007585 0 1302
0.03450000 0.03451200 55683.49657571 0 2529.82691921 0 16781.99055788 0 4411.64602842 0 -9649.84110455 0 1339
0.03550000 0.03553350 55054.47780276 0 5461.29134890 0 18012.34729173 0 -983.80374095 0 -9819.60198866 0 1365
0.03650000 0.03647120 49631.91744608 0 5390.12951729 0 23063.32042750 0 552.49350720 0 -1968.31611069 0 1308
0.03750000 0.03744890 45776.86611397 0 1848.96752147 0 21277.46515750 0 -702.73831159 0 2299.27897184 0 1579
0.03850000 0.03847530 46439.98764736 0 -321.53588380 0 20470.62484796 0 7208.20525251 0 1009.54911062 0 1662
0.03950000 0.03950240 47809.08061118 0 -2909.20905680 0 22660.17708085 0 1999.55113900 0 -5927.79053816 0 1683
0.04050000 0.04050350 47605.46055777 0 506.02517440 0 21182.57533380 0 1386.44329682 0 -4761.45398641 0 1822
0.04150000 0.04152450 45979.15748841 0 2118.64506475 0 20974.30490396 0 -1649.36672196 0 -4918.59242024 0 1887
0.04250000 0.04250150 45064.91562813 0 2550.72039615 0 18636.93713475 0 -2848.20054705 0 -6065.18701683 0 1920
0.04350000 0.04349210 43752.07007438 0 1201.72370187 0 19745.27684909 0 819.16380706 0 -2371.57018058 0 2005
0.04450000 0.04448520 42574.74977642 0 2411.81808130 0 18973.42508598 0 3341.33974982 0 -4496.90292952 0 2151
0.04550000 0.04548030 40768.29998226 0 2368.41456801 0 18560.20592375 0 3814.16123655 0 -4425.51965141 0 2274
0.04650000 0.04648670 38624.03355788 0 1817.98715662 0 17239.94191238 0 1851.90168754 0 -1848.96752147 0 2311
0.04750000 0.04749250 38044.17590712 0 514.25855513 0 16209.10847176 0 4376.82356686 0 943.43404466 0 2568
0.04850000 0.04851840 37228.36701449 0 -1690.36754076 0 13207.51193667 0 5430.06739291 0 2495.22590416 0 2493
0.04950000 0.04949480 39003.48212941 0 -285.84203029 0 13696.13363092 0 2960.49606536 0 2904.70262060 0 2644
0.05050000 0.05050630 38075.62130961 0 -272.49434272 0 10521.59845449 0 2461.39995183 0 2157.83002228 0 2829
0.05150000 0.05149060 38395.27932712 0 1337.90222481 0 7575.98359369 0 3787.10047470 0 3338.20628190 0 2784
0.05250000 0.05249300 37278.19247617 0 -576.61345958 0 5944.59832723 0 3969.88241280 0 1923.69464167 0 3055
0.05350000 0.05348950 36889.33242854 0 62.07167438 0 8070.98294703 0 1342.33115474 0 2483.45602287 0 3009
0.05450000 0.05448610 36466.25889722 0 1540.23788855 0 7072.55820116 0 -1833.99773831 0 916.57922804 0 3336
0.05550000 0.05550870 35833.69698033 0 1922.04486527 0 7266.96608032 0 -2091.98290659 0 6534.18855150 0 3349
0.05650000 0.05647670 34357.75608200 0 1235.48322024 0 9482.06216657 0 -1162.12906832 0 6853.83549669 0 3324
0.05750000 0.05747970 34425.85087964 0 -412.31233883 0 10105.17939039 0 15.56215253 0 5010.16054649 0 3639
0.05850000 0.05849280 34500.81051866 0 309.00865550 0 12479.17441010 0 -1339.69594143 0 1589.42115539 0 3846
0.05950000 0.05951020 34151.14650089 0 908.62376266 0 11602.91062396 0 -654.42643671 0 4508.04168829 0 3787
0.06050000 0.06049470 33322.82588121 0 541.83860902 0 11241.73138837 0 2001.32271097 0 3286.90820101 0 3930
0.06150000 0.06148310 33569.07438517 0 50.33667092 0 10740.08864014 0 1381.70434179 0 33.98926911 0 4083
0.06250000 0.06249100 32745.62558841 0 851.14621730 0 8626.43719388 0 420.38849255 0 -2598.90715376 0 4303
0.06350000 0.06350600 31469.54015306 0 1167.82024327 0 9013.03848725 0 -290.08051623 0 -1935.23200413 0 4470
0.06450000 0.06451750 30803.20764547 0 113.70613249 0 8618.38761374 0 -434.78472928 0 -1501.57333028 0 4479
0.06550000 0.06550280 31247.98293344 0 -648.97553120 0 10205.32856837 0 1757.68727566 0 -593.36699426 0 4636
0.06650000 0.06648880 31764.28543973 0 437.27489513 0 9144.56663377 0 990.54900123 0 1704.32974236 0 4653
0.06750000 0.06749660 31956.50099858 0 -142.95367850 0 9637.75012584 0 1795.68749444 0 3107.13793526 0 5220
0.06850000 0.06852730 31383.61891247 0 -316.79139262 0 10419.65555989 0 1995.19971535 0 3949.04429749 0 5029
0.06950000 0.06949320 31676.14973418 0 1013.87285346 0 10314.10308739 0 283.88555049 0 3106.63968064 0 5040
0.07050000 0.07048030 31011.25662882 0 1697.55347957 0 10566.97284160 0 627.26159500 0 4140.32978106 0 5475
0.07150000 0.07148790 29100.06264187 0 1363.12498075 0 8939.30787628 0 -455.71031596 0 5055.52386127 0 5509
0.07250000 0.07249820 28416.23586107 0 1022.68088785 0 9698.50397212 0 -1269.56383603 0 3810.60702029 0 5916
0.07350000 0.07351270 27349.30664155 0 755.92754555 0 8905.02795864 0 671.59518357 0 3407.19793784 0 5721
0.07450000 0.07449140 26636.80253947 0 -57.84758246 0 8227.95529598 0 177.70638441 0 312.87843303 0 6028
0.07550000 0.07549160 27077.59179050 0 823.80975455 0 8736.10857121 0 -358.65585276 0 -2777.70305493 0 6183
0.07650000 0.07648840 25434.34806416 0 1369.77944796 0 8780.35358119 0 -1768.81496210 0 -3152.67840724 0 6330
0.07750000 0.07749960 25180.79182581 0 1075.71843097 0 9355.82659131 0 -1009.53582383 0 -3743.37586399 0 6583
0.07850000 0.07848650 24443.81788588 0 -47.89123726 0 9366.59996336 0 -437.03684015 0 -2085.14020985 0 6549
0.07950000 0.07947320 24805.44001446 0 -39.33233018 0 9433.69825176 0 649.35088301 0 -3967.46864599 0 6828
0.08050000 0.08048110 24890.58619232 0 -654.20277575 0 8331.65869024 0 2143.79031441 0 -3615.98876695 0 7147
0.08150000 0.08149960 24937.42212630 0 -65.93514068 0 7688.57806477 0 1494.48704240 0 -3527.90842302 0 7386
0.08250000 0.08250610 24942.62611896 0 567.58508592 0 6855.62921331 0 2282.74799089 0 -2103.29882255 0 7227
0.08350000 0.08350160 24449.79694129 0 369.22549403 0 5947.62107191 0 1004.63410563 0 -496.25716944 0 7798
0.08450000 0.08449610 24037.24211854 0 546.57645681 0 6266.52617134 0 216.14063832 0 -674.89473637 0 7371
0.08550000 0.08548940 22995.11490661 0 726.90808944 0 6069.58272979 0 17.39240783 0 -548.25945019 0 8256
0.08650000 0.08650700 22264.12002209 0 1315.54720100 0 6798.54030655 0 -107.96900739 0 668.84703255 0 8037
0.08750000 0.08749060 21660.67831947 0 701.20368737 0 6738.77189718 0 306.88276914 0 1776.07840718 0 8155
0.08850000 0.08849210 20934.66598111 0 202.61357909 0 7102.77457559 0 484.55482934 0 1344.57883668 0 8718
0.08950000 0.08949900 20984.15927305 0 706.14637317 0 7144.74975898 0 729.51230023 0 1063.53776643 0 8571
0.09050000 0.09049190 20231.57335513 0 867.01396599 0 6977.24762912 0 480.39827860 0 2206.78077031 0 8932
0.09150000 0.09150830 19301.38734711 0 757.21304247 0 7260.56627658 0 -222.91247218 0 2454.50189347 0 9285
0.09250000 0.09250820 19138.73489553 0 254.77862301 0 7702.27453057 0 67.86936510 0 2488.61572624 0 9204
0.09350000 0.09350330 19058.57126384 0 46.87324772 0 7856.79989574 0 344.56299773 0 1930.80307420 0 9349
0.09450000 0.09448040 18767.92273735 0 208.17520785 0 6409.40345080 0 504.89136834 0 1950.17964263 0 9564
0.09550000 0.09549270 19030.22611230 0 -140.89976225 0 6650.27080490 0 385.51952723 0 1300.02380161 0 10155
0.09650000 0.09649430 18755.74318005 0 67.89627085 0 6803.52285272 0 -192.22109501 0 1241.17439520 0 9913
0.09750000 0.09749140 18803.13273027 0 460.75929607 0 6340.36750555 0 -509.85398432 0 309.43161831 0 10476
0.09850000 0.09850240 18003.93232486 0 494.20103872 0 6811.58350518 0 414.46036984 0 606.65267681 0 10575
0.09950000 0.09950330 17530.03682263 0 958.10487504 0 7106.67203392 0 94.29479696 0 366.77740301 0 10882
0.10050000 0.10051200 17033.33233126 0 590.58341180 0 6694.41616395 0 282.36310583 0 81.25049109 0 10875
0.10150000 0.10150300 16729.83990798 0 161.65815682 0 7294.72439864 0 572.63960220 0 1542.92846348 0 11118
0.10250000 0.10250800 16622.99197348 0 -180.34159772 0 6366.93001279 0 1015.25578683 0 693.09099498 0 11575
0.10350000 0.10349800 16789.29829226 0 -215.34343093 0 6168.09320370 0 1086.15852604 0 1048.20148933 0 11364
0.10450000 0.10450100 16740.69078630 0 -36.09777193 0 5534.33547573 0 493.21228012 0 878.78274004 0 12093
0.10550000 0.10551000 16842.55617464 0 289.27666544 0 4916.45546155 0 437.59045639 0 1326.42022397 0 12067
0.10650000 0.10649700 16281.63219932 0 436.28392206 0 4990.72861643 0 271.95622773 0 793.35200344 0 12054
0.10750000 0.10749900 15917.24198954 0 809.40798166 0 4980.18776320 0 -402.08704686 0 391.51851282 0 12807
0.10850000 0.10850100 15219.46407947 0 631.05829518 0 4915.45895231 0 -168.65365164 0 1297.10070785 0 12736
0.10950000 0.10950300 14861.82798783 0 247.42438486 0 5107.69665582 0 335.04744178 0 946.67602137 0 12933
0.11050000 0.11050200 14723.86682059 0 43.87552650 0 5206.96004782 0 297.65398640 0 847.40598597 0 13428
0.11150000 0.11150900 14900.13823170 0 -16.91674075 0 4993.34168509 0 478.06091083 0 -312.29159981 0 13453
0.11250000 0.11250000 14432.44323136 0 474.34171693 0 5350.08091842 0 -76.30182624 0 1107.03207279 0 13668
0.11350000 0.11349100 14527.00088531 0 232.22983351 0 5126.87392240 0 -274.67226901 0 518.36860210 0 13791
0.11450000 0.11448600 14080.45402538 0 120.59644023 0 5432.69153389 0 -377.25403676 0 1219.01867323 0 14205
0.11550000 0.11549300 14321.27709018 0 21.15024415 0 5466.03030392 0 252.70588380 0 -35.11377442 0 14776
0.11650000 0.11649800 14212.87903021 0 -117.51833393 0 5525.47761587 0 265.76126199 0 686.02906621 0 14553
0.11750000 0.11747300 14128.39719184 0 141.10349302 0 5282.81654515 0 462.09904738 0 120.78688421 0 14568
0.11850000 0.11849100 14010.36620927 0 289.86128419 0 5057.35079487 0 232.77791359 0 310.79129980 0 16015
0.11950000 0.11950300 13605.34056741 0 403.67038931 0 4627.27955426 0 683.34956360 0 148.09234445 0 15270
0.12050000 0.12050700 13414.45368753 0 45.87098087 0 4262.40216219 0 498.32547972 0 382.75919666 0 15999
0.12150000 0.12150000 13485.75945937 0 -77.38768913 0 3916.51380718 0 385.77640517 0 85.33850414 0 15670
0.12250000 0.12250700 13472.80483933 0 -76.34644771 0 3474.34051554 0 90.00083867 0 -474.03501353 0 16887
0.12350000 0.12352200 13583.52808752 0 -28.29388667 0 3561.71223069 0 386.53596665 0 7.48445976 0 16407
0.12450000 0.12449800 13404.48859520 0 -36.85788703 0 3385.41867493 0 -37.91152946 0 -38.56380011 0 16306
0.12550000 0.12549900 13558.06174043 0 181.73006725 0 3533.87640609 0 667.49177999 0 -326.09325270 0 17523
0.12650000 0.12650100 13080.18020126 0 428.48236199 0 3256.88005611 0 239.51874494 0 76.90637517 0 17154
0.12750000 0.12750600 13001.23452530 0 430.98138571 0 2868.08644242 0 400.37969437 0 -48.18609327 0 18007
0.12850000 0.12850300 12659.65330465 0 152.29761342 0 3028.07046373 0 -408.52338928 0 215.89593994 0 17496
0.12950000 0.12949900 12565.20637394 0 349.66844670 0 3565.54325507 0 -549.53719647 0 349.06721947 0 18405
0.13050000 0.13049000 12487.47865372 0 246.35258382 0 3785.74965107 0 -733.40754411 0 516.48187796 0 18100
0.13150000 0.13148800 12210.22764026 0 139.13261921 0 4263.89692604 0 -126.26104160 0 586.63723524 0 19059
0.13250000 0.13249300 12333.57333874 0 86.45182640 0 4506.32547794 0 -169.27370183 0 251.88099560 0 18957
0.13350000 0.13349100 12210.89197975 0 97.55349288 0 4794.17270625 0 105.61414535 0 614.62364345 0 19468
0.13450000 0.13450700 12297.25611333 0 31.49722097 0 4855.69054294 0 377.40572761 0 675.36420294 0 19953
0.13550000 0.13551000 12017.23701867 0 201.45098498 0 4743.74933903 0 500.39378999 0 308.07415129 0 19956
0.13650000 0.13649900 11940.50580768 0 250.89888039 0 4467.89343850 0 461.38156073 0 512.71618028 0 19723
0.13750000 0.13749600 11674.43784228 0 169.85721335 0 3765.26585015 0 448.18113508 0 518.45275177 0 20946
0.13850000 0.13851100 11474.80382580 0 69.88242448 0 3472.87896867 0 649.96982597 0 461.09921645 0 20955
0.13950000 0.13949800 11428.85367781 0 113.78142430 0 2856.23905487 0 679.17861884 0 574.35581255 0 20506
0.14050000 0.14048300 11145.51288570 0 77.08973287 0 2730.23599843 0 445.60017616 0 155.20963484 0 21447
0.14150000 0.14148400 11275.94487206 0 64.61199786 0 2378.57896219 0 86.36900541 0 247.47531756 0 21771
0.14250000 0.14249400 11143.96276022 0 60.34394882 0 2815.45968256 0 31.90944362 0 514.55307897 0 22470
0.14350000 0.14350900 11215.37925530 0 102.01885075 0 2828.13749448 0 -477.90700552 0 604.20458580 0 22519
0.14450000 0.14449900 11080.51833901 0 88.49289876 0 2839.68592926 0 -220.44112928 0 586.13898062 0 22218
0.14550000 0.14550500 11114.73182270 0 322.14375444 0 3132.61535467 0 -4.19357659 0 582.56926310 0 23559
0.14650000 0.14650700 10830.89277598 0 274.85385514 0 2885.25961822 0 -115.23743502 0 525.49917929 0 23044
0.14750000 0.14750500 10564.79159361 0 241.41432695 0 3117.40198037 0 194.47209865 0 242.30011294 0 23649
0.14850000 0.14849900 10379.67339497 0 132.66859598 0 2714.55758649 0 54.88518196 0 104.65528202 0 23640
0.14950000 0.14949500 10281.22935500 0 142.77430684 0 2977.22634816 0 91.09301279 0 76.88854873 0 24457
0.15050000 0.15050000 10124.88812856 0 335.19027477 0 3109.41883417 0 -17.70686185 0 32.38267478 0 24591
0.15150000 0.15149900 9874.65358766 0 304.99161606 0 2972.03342782 0 39.41902648 0 418.32571844 0 25020
0.15250000 0.15250500 9654.95651861 0 229.52043563 0 3320.99988913 0 56.61069306 0 355.35962166 0 25297
0.15350000 0.15350100 9571.21652601 0 74.40048662 0 3387.58885059 0 46.91642978 0 854.13906670 0 25452
0.15450000 0.15450400 9557.24325209 0 25.42549020 0 3593.20192247 0 79.29965818 0 842.52530519 0 26061
0.15550000 0.15549900 9539.43895378 0 24.75328936 0 3387.36740409 0 252.27627760 0 983.33759607 0 26128
0.15650000 0.15649500 9530.39286440 0 -27.07958481 0 3350.99481706 0 137.07981018 0 795.99386014 0 26331
0.15750000 0.15749700 9555.37202919 0 102.49507144 0 3046.16264248 0 349.69169858 0 482.00598017 0 27345
0.15850000 0.15849900 9395.60945438 0 -16.40143475 0 2768.02584304 0 42.60076974 0 132.69406232 0 26980
0.15950000 0.15949700 9360.28873821 0 191.79591774 0 2737.07869517 0 78.32485070 0 18.67037556 0 27777
0.16050000 0.16050000 9150.56783382 0 237.59880382 0 2604.68690731 0 2.80065598 0 -228.93138795 0 28224
0.16150000 0.16150500 8984.28365970 0 193.15559923 0 2246.68542895 0 264.28089217 0 -349.03953865 0 28075
0.16250000 0.16249700 8865.76549484 0 -3.88340756 0 2046.49779623 0 87.34259493 0 -224.51795928 0 28590
0.16350000 0.16349900 8874.04759380 0 -69.11433730 0 2049.08872024 0 283.32861255 0 -563.98325866 0 29163
0.16450000 0.16449100 9019.11719358 0 -44.34598958 0 2040.59624710 0 84.53088877 0 -811.10204736 0 28996
0.16550000 0.16550500 8919.79843995 0 234.30035825 0 2194.62335765 0 -220.68029150 0 -703.21774325 0 30777
0.16650000 0.16650700 8651.69316679 0 375.25769659 0 2130.02741466 0 -287.23825045 0 -464.12860452 0 29211
0.16750000 0.16749900 8428.35330288 0 267.55940755 0 2210.17997402 0 -31.88154136 0 -154.92950502 0 30922
0.16850000 0.16850800 8396.19927160 0 79.11729699 0 2311.87927748 0 208.80300866 0 -253.08677177 0 30867
0.16950000 0.16949900 8193.29891930 0 6.98634908 0 2431.72612132 0 330.07486070 0 -367.55910914 0 30852
0.17050000 0.17049200 8236.70243259 0 187.26733689 0 2378.80040869 0 270.86006757 0 -130.38880430 0 31257
0.17150000 0.17149500 8036.44836592 0 62.73911412 0 2394.52310993 0 203.62337511 0 155.01254746 0 32608
0.17250000 0.17250900 7981.24175438 0 143.79517519 0 2261.78808000 0 28.82491537 0 210.10068513 0 32361
0.17350000 0.17350400 7913.76700693 0 96.24374757 0 2266.34987783 0 98.64511338 0 108.80330706 0 32508
0.17450000 0.17449800 7837.62262915 0 84.28286869 0 2327.30302596 0 51.20031226 0 189.68774710 0 32791
0.17550000 0.17549800 7745.86627338 0 54.02574810 0 2121.37992898 0 12.24643414 0 347.42519369 0 33633
0.17650000 0.17650100 7776.04943084 0 9.27273987 0 2024.28671264 0 268.88476483 0 71.34707160 0 33984
0.17750000 0.17750300 7812.42201787 0 37.48790231 0 1766.36797832 0 281.34002301 0 157.49717715 0 34069
0.17850000 0.17849800 7729.46816032 0 -31.51549030 0 1617.20161836 0 202.89592337 0 378.94256629 0 34536
