### header ###
fiducial parameters:
Omega_m = 0.31
Omega_nu = 0
Omega_de = 0.69
Omega_k = 0
H_0 = 100
w_de = -1
zeff = 0
beta = 0
fgrowth = 0
b_1 = 2
gamma = 0.55
Lx = 3500 Ly = 3500 Lz = 3500
nx = 700 ny = 700 nz = 700
xoffset = -685.467585 yoffset = -31.7331281 zoffset = 572.489161
bins = 400 dk = 0.001
kx_ny = 0.628318531 ky_ny = 0.628318531 kz_ny = 0.628318531
############################
A(data) = 8.03154326 (not used)
A(ran) = 8.02296757 (used)
Ngal = 476378
weighted Ngal = 0
Nran = 23820508
weighted Nran = 0
SN(data) = 3500.7661
SN(ran) = 69.8829572
SN(data+ran) = 3570.64905
############################
13 columns: k_central k_mean P_0(k) sigma^{lin}_{P_0(k)} P^img_1(k) sigma^{lin}_{P_1(k)} P_2(k) sigma^{lin}_{P_2(k)} P^img_3(k) sigma^{lin}_{P_3(k)} P_4(k) sigma^{lin}_{P_4(k)} N_modes
### header ###
0.00050000 0 0 0 0 0 0 0 0 0 0 0 0
0.00150000 0.00179520 75162.81618266 0 -39380.60551273 0 64267.20566812 0 -38158.22085276 0 -92307.42537835 0 3
0.00250000 0.00253879 126052.88189788 0 -16965.12681038 0 32170.08614434 0 -36774.51242017 0 35178.99041380 0 6
0.00350000 0.00331552 113583.22968712 0 10885.10287829 0 -5172.65798553 0 38799.97279924 0 139240.02075689 0 7
0.00450000 0.00420575 82058.66007971 0 35443.06536073 0 13642.54357880 0 -25326.83579017 0 32570.35068653 0 24
0.00550000 0.00557378 60888.81791945 0 17897.85945310 0 29508.96359742 0 49618.07704006 0 -7032.69783181 0 45
0.00650000 0.00659388 61061.76763312 0 -19693.56909219 0 19440.45574683 0 68686.28122649 0 40475.32626755 0 40
0.00750000 0.00754703 67941.99955218 0 -23260.51853252 0 -21227.97186556 0 44613.82911502 0 18098.37925557 0 57
0.00850000 0.00846663 85126.69056371 0 -26175.75093402 0 -6923.67972165 0 19513.20092089 0 31399.78450670 0 75
0.00950000 0.00948925 100088.39092140 0 3240.61481095 0 8625.36317838 0 -8321.48322373 0 4872.00007740 0 112
0.01050000 0.01054430 80241.58085372 0 23049.81219122 0 -2440.39575165 0 -22573.25933102 0 22186.06013211 0 105
0.01150000 0.01145670 62223.14378335 0 18528.64979802 0 574.18751321 0 -13689.15806629 0 27580.71823026 0 144
0.01250000 0.01249090 58665.27364937 0 -5032.90310167 0 5668.60955880 0 1000.68571460 0 526.21334424 0 169
0.01350000 0.01339930 65332.25259242 0 -6388.12244249 0 9693.37748573 0 5924.19203259 0 -24681.98359273 0 180
0.01450000 0.01448870 75593.30817161 0 -10687.40651865 0 -2509.42062457 0 -7101.78913868 0 -29896.93785907 0 267
0.01550000 0.01550050 72987.76869528 0 2093.40016416 0 -18483.03181977 0 -26849.83406898 0 -25113.25064442 0 238
0.01650000 0.01653350 76452.96347053 0 12429.12750192 0 10138.34100322 0 -26042.99375944 0 -15328.52647893 0 315
0.01750000 0.01747870 67079.79761855 0 6908.70993849 0 10704.05929518 0 -10415.53665505 0 -18370.64772286 0 297
0.01850000 0.01844180 63980.98607156 0 1702.56924271 0 27612.38507924 0 7568.76443791 0 2226.62237638 0 388
0.01950000 0.01947590 67031.07938935 0 -3650.96624105 0 27739.16319841 0 15354.43571901 0 -4827.72185045 0 399
0.02050000 0.02045430 67667.07372693 0 -2892.64485887 0 29375.65280661 0 4292.64068127 0 -8511.26287112 0 462
0.02150000 0.02154770 69838.68879361 0 4592.20242923 0 29477.07530194 0 1508.19458052 0 -7720.30027537 0 571
0.02250000 0.02255340 66144.96123411 0 1799.48530185 0 30966.19226680 0 -6911.51123667 0 17058.02361561 0 510
0.02350000 0.02348930 66205.19468112 0 -1862.24323892 0 17149.03812562 0 13023.04700520 0 12112.45901211 0 555
0.02450000 0.02439640 70027.91482476 0 -3805.32552135 0 21815.80159018 0 12412.85118444 0 -5795.11086986 0 592
0.02550000 0.02547300 68492.29409566 0 -357.19541311 0 12989.38713775 0 8613.50471849 0 -11478.90058599 0 837
0.02650000 0.02652900 68068.99911785 0 4423.48234365 0 15155.68748851 0 -1285.59656237 0 -976.50707889 0 723
0.02750000 0.02749970 59677.72703079 0 4253.52215768 0 13953.23301321 0 -3357.71571823 0 -4856.58740125 0 826
0.02850000 0.02848090 59392.28249696 0 2738.96099039 0 19759.33870161 0 -6597.31187529 0 3821.01500562 0 831
0.02950000 0.02946900 58743.55498584 0 2668.76245104 0 18572.38548105 0 -2344.80837149 0 -3830.60363891 0 996
0.03050000 0.03053250 56419.47400641 0 2465.75137549 0 23252.76790514 0 -3220.85071115 0 -2356.55610813 0 1041
0.03150000 0.03150510 54530.31394585 0 3935.01566195 0 21683.26586210 0 -2073.93501713 0 -1699.60185966 0 1036
0.03250000 0.03246190 56091.73319177 0 -2108.00456060 0 21927.18917785 0 4658.83567999 0 -5319.60988052 0 1059
0.03350000 0.03345080 51823.01980444 0 -1225.20810281 0 17113.38523970 0 520.21214419 0 -7227.44895305 0 1302
0.03450000 0.03451200 58047.54864774 0 1803.36061554 0 19486.18444834 0 1704.47368258 0 -14497.32705480 0 1339
0.03550000 0.03553350 56150.74868306 0 -745.78418879 0 17951.33878197 0 -8452.96708095 0 -16575.27025351 0 1365
0.03650000 0.03647120 52629.08505124 0 4395.93439950 0 22816.73975378 0 -3932.77905233 0 -16642.58998841 0 1308
0.03750000 0.03744890 52327.47492318 0 3394.18795618 0 21728.33022411 0 -7913.13588442 0 -17721.03442575 0 1579
0.03850000 0.03847530 48766.39381500 0 2280.61103220 0 22714.43147246 0 3216.55464912 0 -18176.10697579 0 1662
0.03950000 0.03950240 48561.55580586 0 -1538.06771288 0 20453.13057475 0 6031.67108961 0 -18141.89349210 0 1683
0.04050000 0.04050350 48769.93695895 0 -1103.11025533 0 16838.45941445 0 5603.24962540 0 -19998.50091769 0 1822
0.04150000 0.04152450 49791.91253971 0 685.04030760 0 16152.75033843 0 5270.81414504 0 -15724.36209120 0 1887
0.04250000 0.04250150 46229.83492230 0 3151.85905520 0 10594.87510014 0 2155.69306359 0 -14067.49940534 0 1920
0.04350000 0.04349210 44346.98608689 0 2418.92651383 0 12829.83493711 0 266.67583602 0 -9042.39122034 0 2005
0.04450000 0.04448520 42390.83846118 0 983.08514707 0 11814.39202799 0 1103.32062951 0 -9952.43666951 0 2151
0.04550000 0.04548030 42351.97460107 0 -1255.53520049 0 9897.16362402 0 2393.26086490 0 -10965.39937787 0 2274
0.04650000 0.04648670 41851.61624251 0 -235.69879288 0 7586.32514507 0 2021.93937978 0 -7885.20040890 0 2311
0.04750000 0.04749250 44326.72373247 0 -562.68115326 0 10476.21299506 0 -467.27535923 0 -9250.07481697 0 2568
0.04850000 0.04851840 41988.58090052 0 2764.70414559 0 8185.09432661 0 -3636.73830366 0 -9696.10127764 0 2493
0.04950000 0.04949480 41411.49133097 0 2843.70518317 0 14146.22363480 0 -3043.40563360 0 -6873.12348653 0 2644
0.05050000 0.05050630 38028.89609887 0 1168.35171486 0 12910.77363153 0 -2637.16203601 0 -4758.98485798 0 2829
0.05150000 0.05149060 38195.20241765 0 456.13660046 0 16560.21189176 0 2729.71559916 0 -5721.30275262 0 2784
0.05250000 0.05249300 36485.96763540 0 2212.70446408 0 17460.94551576 0 483.36787612 0 -1242.09339816 0 3055
0.05350000 0.05348950 36055.47564645 0 3340.27680664 0 17465.04227594 0 1768.67102188 0 39.65686002 0 3009
0.05450000 0.05448610 34224.77746093 0 1474.99975072 0 18606.48824149 0 2483.13492545 0 3490.29573561 0 3336
0.05550000 0.05550870 32440.58303966 0 255.65555113 0 18642.03040416 0 1493.36873759 0 5159.09438762 0 3349
0.05650000 0.05647670 33378.07678205 0 -624.11151859 0 17280.02372822 0 3811.79175904 0 5991.83286491 0 3324
0.05750000 0.05747970 34081.83374752 0 -1378.94733291 0 18060.73335118 0 3437.41431227 0 7072.32568234 0 3639
0.05850000 0.05849280 35563.53225475 0 -257.42047971 0 16810.22498617 0 -104.79091800 0 5348.04361065 0 3846
0.05950000 0.05951020 34872.39773957 0 895.48977096 0 16301.67310724 0 2572.41108047 0 7134.08711018 0 3787
0.06050000 0.06049470 34627.03502159 0 1229.52630949 0 14430.78238264 0 -20.12970797 0 6229.85463154 0 3930
0.06150000 0.06148310 33333.23386653 0 56.65863622 0 14583.91263488 0 1493.26908667 0 3414.25100875 0 4083
0.06250000 0.06249100 32529.82597769 0 501.76454381 0 13042.53429688 0 2650.99136970 0 569.48177516 0 4303
0.06350000 0.06350600 31531.98806504 0 1653.08702310 0 11714.96255112 0 -279.52969791 0 327.97997685 0 4470
0.06450000 0.06451750 31196.38589978 0 188.49747218 0 10523.79077481 0 630.34634469 0 975.03999585 0 4479
0.06550000 0.06550280 29882.43311356 0 -967.80201712 0 10919.40494058 0 -541.00486296 0 -1015.28346764 0 4636
0.06650000 0.06648880 31409.74959904 0 69.52412405 0 9829.86603377 0 1036.81692495 0 -378.43988274 0 4653
0.06750000 0.06749660 31092.08459999 0 -32.07563921 0 10148.57183135 0 1237.71982985 0 -499.48253766 0 5220
0.06850000 0.06852730 31443.74163623 0 1109.96734609 0 11076.97519507 0 -740.88911398 0 295.96656410 0 5029
0.06950000 0.06949320 30878.38873099 0 936.70760733 0 11598.92458702 0 -760.07745290 0 882.65030310 0 5040
0.07050000 0.07048030 29244.22431101 0 710.24534782 0 11070.09928136 0 992.36154080 0 3269.34749385 0 5475
0.07150000 0.07148790 29675.71280919 0 158.51915273 0 10948.28156370 0 1221.78675444 0 2604.97478776 0 5509
0.07250000 0.07249820 29091.97984475 0 77.98670190 0 10146.70060846 0 2977.00490166 0 1980.15242592 0 5916
0.07350000 0.07351270 28999.52593252 0 550.89687796 0 8911.18417124 0 1562.17216401 0 1442.24781390 0 5721
0.07450000 0.07449140 28764.68192311 0 413.81374607 0 8457.63960202 0 505.59003203 0 1262.46647582 0 6028
0.07550000 0.07549160 28366.52112263 0 334.17162089 0 8716.55484558 0 95.24845630 0 2621.12930967 0 6183
0.07650000 0.07648840 28033.13342235 0 730.16999633 0 8246.71181423 0 -532.79362688 0 2751.30663256 0 6330
0.07750000 0.07749960 26903.53484435 0 941.63368464 0 8562.92633872 0 -26.83975825 0 2018.34087422 0 6583
0.07850000 0.07848650 26482.45433149 0 1641.27285252 0 8653.11042437 0 -390.86303119 0 3442.51865401 0 6549
0.07950000 0.07947320 25025.11493886 0 881.80216302 0 8552.04224343 0 1354.03460207 0 881.95828280 0 6828
0.08050000 0.08048110 24808.31881891 0 -5.97993012 0 7742.69958848 0 2593.42635297 0 2435.64572431 0 7147
0.08150000 0.08149960 23749.14022676 0 -147.25416946 0 6386.55017237 0 2429.74417518 0 2118.01394223 0 7386
0.08250000 0.08250610 23577.74063857 0 989.90016299 0 5501.72747914 0 1622.90386564 0 1622.63812985 0 7227
0.08350000 0.08350160 22544.80345624 0 670.17903323 0 5067.16087465 0 1076.49238647 0 1940.96746838 0 7798
0.08450000 0.08449610 22123.72294339 0 619.99925715 0 4577.09977818 0 -495.71351829 0 1502.02729560 0 7371
0.08550000 0.08548940 21398.26422127 0 996.11284445 0 4919.31212135 0 -1235.07354422 0 2922.91659493 0 8256
0.08650000 0.08650700 20918.05749388 0 815.21209433 0 6659.89265517 0 -1676.11745872 0 2123.70511719 0 8037
0.08750000 0.08749060 20554.88523983 0 429.31167912 0 7006.35677107 0 -1278.77601028 0 3264.35387536 0 8155
0.08850000 0.08849210 20129.15435055 0 1.80132331 0 7087.93766033 0 -765.89706682 0 1594.91302850 0 8718
0.08950000 0.08949900 20909.08891078 0 -301.31338975 0 7410.27518045 0 846.85458420 0 -27.60729181 0 8571
0.09050000 0.09049190 20645.34613360 0 -92.07391005 0 7137.48631390 0 295.26790040 0 -510.92135643 0 8932
0.09150000 0.09150830 20787.29333777 0 455.79557286 0 7278.66952766 0 -90.53386039 0 -1582.05805939 0 9285
0.09250000 0.09250820 20678.56310806 0 127.91192523 0 7238.66521809 0 -983.96096796 0 -1161.95191112 0 9204
0.09350000 0.09350330 20145.43066804 0 451.78517681 0 7749.98517821 0 -104.19124088 0 -1616.34904935 0 9349
0.09450000 0.09448040 20072.57477073 0 627.28706135 0 7742.23455084 0 -141.83205200 0 -944.19914230 0 9564
0.09550000 0.09549270 19575.75955612 0 216.66435928 0 7776.84663822 0 1041.48169539 0 -1101.39072329 0 10155
0.09650000 0.09649430 19190.88554542 0 1004.28975633 0 8111.55194517 0 207.83528747 0 54.91496651 0 9913
0.09750000 0.09749140 18833.91379327 0 334.72302266 0 7490.58275236 0 1285.50798377 0 136.75428384 0 10476
0.09850000 0.09850240 18155.95534462 0 42.22287129 0 7747.93679812 0 1392.04589317 0 1431.27514001 0 10575
0.09950000 0.09950330 18791.61751246 0 196.25363571 0 7208.12774624 0 960.25512052 0 1214.21328426 0 10882
0.10050000 0.10051200 18098.15780907 0 331.81543017 0 6983.84673471 0 716.37387960 0 1140.49374562 0 10875
0.10150000 0.10150300 17657.14711154 0 464.67336290 0 7035.97523996 0 28.62816016 0 1999.94974269 0 11118
0.10250000 0.10250800 17662.79399720 0 293.09440304 0 6699.25476990 0 433.29217990 0 1558.97226214 0 11575
0.10350000 0.10349800 17186.35186025 0 84.91255180 0 6573.32921974 0 121.16555772 0 1159.06203434 0 11364
0.10450000 0.10450100 16987.93579950 0 251.30634194 0 6278.15211240 0 4.85494870 0 838.90908391 0 12093
0.10550000 0.10551000 16516.91910172 0 446.85467057 0 6199.37252131 0 264.35286228 0 172.54003765 0 12067
0.10650000 0.10649700 16204.12592559 0 454.57761713 0 6203.49142614 0 232.18554421 0 -851.71422756 0 12054
0.10750000 0.10749900 15931.74673505 0 271.53769385 0 6037.35119224 0 -314.33222928 0 -710.07372678 0 12807
0.10850000 0.10850100 15579.53608257 0 331.48990382 0 5984.50298588 0 -228.28587141 0 -453.00866870 0 12736
0.10950000 0.10950300 15428.50957205 0 463.56059425 0 6559.04592072 0 -5.83287857 0 120.65069462 0 12933
0.11050000 0.11050200 15351.11402156 0 -4.00221360 0 6098.92439056 0 314.81830434 0 -4.46024246 0 13428
0.11150000 0.11150900 15230.53640429 0 184.00210830 0 6148.24052530 0 964.15479333 0 489.83411381 0 13453
0.11250000 0.11250000 15311.14292897 0 37.67901063 0 5992.74079554 0 644.29525950 0 918.93209707 0 13668
0.11350000 0.11349100 15119.03809337 0 -143.28695548 0 5095.84926826 0 1129.83109682 0 225.09814910 0 13791
0.11450000 0.11448600 15279.25463349 0 213.61946996 0 5071.80017875 0 568.09219840 0 652.44116887 0 14205
0.11550000 0.11549300 14701.27927796 0 245.74028426 0 4971.76172402 0 -60.73524477 0 380.17491604 0 14776
0.11650000 0.11649800 14499.09862677 0 509.19075206 0 5167.97439213 0 -303.90763546 0 668.71084296 0 14553
0.11750000 0.11747300 14145.00567907 0 247.98353727 0 5123.46364636 0 -225.50893235 0 1083.95181170 0 14568
0.11850000 0.11849100 14125.73983388 0 136.20066759 0 5234.04295432 0 3.25612714 0 593.56740334 0 16015
0.11950000 0.11950300 14171.35781214 0 47.91891807 0 5383.58577332 0 324.61177564 0 611.66843996 0 15270
0.12050000 0.12050700 14182.43013696 0 138.86356171 0 5419.78120315 0 -291.57970901 0 49.19101747 0 15999
0.12150000 0.12150000 13958.21555938 0 116.45428351 0 5260.43937669 0 340.91134500 0 230.75832155 0 15670
0.12250000 0.12250700 13898.86789835 0 119.54346214 0 5390.84921840 0 171.84248119 0 334.80385063 0 16887
0.12350000 0.12352200 13582.97447127 0 254.81294721 0 5301.24089365 0 517.09971368 0 161.09900441 0 16407
0.12450000 0.12449800 13590.17148241 0 195.21062272 0 5271.33454431 0 641.91249520 0 408.58428706 0 16306
0.12550000 0.12549900 13098.67098371 0 285.59401021 0 4839.38100849 0 724.67258706 0 1116.32286054 0 17523
0.12650000 0.12650100 13104.65003911 0 127.84327682 0 4378.70586208 0 633.98913956 0 1063.87104341 0 17154
0.12750000 0.12750600 12882.09631025 0 10.99317984 0 4177.46635850 0 580.54967105 0 1448.53689440 0 18007
0.12850000 0.12850300 13048.62407553 0 148.42340696 0 4072.81074432 0 -186.13353083 0 1318.74710288 0 17496
0.12950000 0.12949900 12733.72715768 0 222.59248199 0 3813.08722105 0 92.19537345 0 1321.31588223 0 18405
0.13050000 0.13049000 12934.35768340 0 -83.93254033 0 3919.94622787 0 -267.45311323 0 1115.04954319 0 18100
0.13150000 0.13148800 12600.08419712 0 161.06910914 0 3828.85421159 0 -291.01944937 0 463.07009026 0 19059
0.13250000 0.13249300 12555.01983511 0 410.96372967 0 4371.50885095 0 -135.45217844 0 934.95818001 0 18957
0.13350000 0.13349100 12289.61620921 0 172.97518001 0 4217.59246365 0 194.52635304 0 789.23863477 0 19468
0.13450000 0.13450700 12173.02462887 0 171.75943875 0 4338.32509347 0 289.91664582 0 1086.56488036 0 19953
0.13550000 0.13551000 12102.93681277 0 99.53322455 0 4406.68562690 0 305.94272876 0 914.27175555 0 19956
0.13650000 0.13649900 12116.44504904 0 144.13620279 0 4396.72053456 0 215.61913182 0 676.85343063 0 19723
0.13750000 0.13749600 11945.70980034 0 224.62757529 0 4079.80845360 0 137.45848369 0 1136.97274633 0 20946
0.13850000 0.13851100 11819.59602066 0 104.14971966 0 3911.49804403 0 157.76734188 0 938.21676521 0 20955
0.13950000 0.13949800 11775.19599813 0 91.48342297 0 3690.54980228 0 -41.13745129 0 386.00006613 0 20506
0.14050000 0.14048300 11437.82226091 0 251.58204283 0 3499.43040358 0 -144.53702095 0 17.95023155 0 21447
0.14150000 0.14148400 11368.50950755 0 318.48988725 0 3480.89533184 0 91.76410640 0 12.18542563 0 21771
0.14250000 0.14249400 11078.41459730 0 238.31961216 0 3250.46918004 0 130.93024098 0 215.40543595 0 22470
0.14350000 0.14350900 11085.27943868 0 27.95385558 0 3484.07308906 0 380.31996350 0 -110.87383180 0 22519
0.14450000 0.14449900 10976.11738830 0 -38.27204435 0 3431.20273805 0 273.40005889 0 89.13852602 0 22218
0.14550000 0.14550500 11051.05488267 0 12.20945258 0 3272.30380458 0 229.74409659 0 -181.49976289 0 23559
0.14650000 0.14650700 10941.73781974 0 36.93041075 0 3227.40552744 0 -43.52763405 0 54.14521849 0 23044
0.14750000 0.14750500 10841.42255688 0 304.38042373 0 3290.78351470 0 -280.40441157 0 -291.91409322 0 23649
0.14850000 0.14849900 10733.61133012 0 346.84168218 0 3301.76726092 0 -439.14943972 0 -282.17487631 0 23640
0.14950000 0.14949500 10291.55983406 0 180.20097919 0 3191.24331458 0 382.48460300 0 -832.57349965 0 24457
0.15050000 0.15050000 10204.83031376 0 9.42255949 0 2907.51499110 0 243.89120601 0 -882.01807336 0 24591
0.15150000 0.15149900 10266.17099325 0 98.21938249 0 2671.86270199 0 524.02323839 0 -914.19867821 0 25020
0.15250000 0.15250500 10220.02154341 0 94.59563203 0 2647.84682946 0 344.54528201 0 -971.46252771 0 25297
0.15350000 0.15350100 9962.93323344 0 113.96190320 0 2510.35069986 0 339.17409724 0 -390.27066181 0 25452
0.15450000 0.15450400 10010.17884344 0 152.41719452 0 2550.95291497 0 158.43057413 0 -224.94977995 0 26061
0.15550000 0.15549900 9851.98853876 0 107.56996080 0 2747.48668050 0 101.34332822 0 54.85296149 0 26128
0.15650000 0.15649500 9793.90312276 0 174.19313574 0 2798.57438721 0 19.67928579 0 376.04383165 0 26331
0.15750000 0.15749700 9640.28568823 0 215.37332621 0 2616.10247420 0 -100.11241787 0 406.47500918 0 27345
0.15850000 0.15849900 9551.34170296 0 200.55301944 0 2701.97942549 0 6.54393220 0 214.62040812 0 26980
0.15950000 0.15949700 9378.00445792 0 161.35920405 0 2689.94380842 0 -18.29303073 0 -138.30219484 0 27777
0.16050000 0.16050000 9069.03123386 0 269.54246092 0 2586.67223483 0 23.00574434 0 -150.35220594 0 28224
0.16150000 0.16150500 9070.03881542 0 12.98994075 0 2491.27308420 0 34.28467874 0 -22.36543179 0 28075
0.16250000 0.16249700 8824.59859116 0 5.63818281 0 2413.42356840 0 316.07501320 0 108.02746926 0 28590
0.16350000 0.16349900 8966.55686766 0 8.95313721 0 2238.29260674 0 376.79121358 0 -265.48002494 0 29163
0.16450000 0.16449100 8964.16524550 0 -119.96642495 0 1922.04486527 0 465.03210622 0 70.18624907 0 28996
0.16550000 0.16550500 9029.39231101 0 36.17948568 0 2224.43005607 0 18.56607426 0 -313.89376521 0 30777
0.16650000 0.16650700 8863.45137895 0 352.78198444 0 2282.40474882 0 -295.26457871 0 115.07467184 0 29211
0.16750000 0.16749900 8705.10606172 0 277.15357700 0 2436.78617376 0 -232.91742489 0 268.66996172 0 30922
0.16850000 0.16850800 8538.34577763 0 208.58266940 0 2473.72344936 0 -316.71499358 0 285.91067870 0 30867
0.16950000 0.16949900 8524.43893765 0 36.74926752 0 2854.00244525 0 98.60314927 0 313.15413392 0 30852
0.17050000 0.17049200 8416.16267325 0 150.56700905 0 2831.25989008 0 52.44605952 0 224.94424378 0 31257
0.17150000 0.17149500 8356.58249340 0 139.26437987 0 2789.27363436 0 82.95817575 0 500.11476741 0 32608
0.17250000 0.17250900 8221.79908339 0 39.17964282 0 2617.05469414 0 277.15025530 0 285.47996526 0 32361
0.17350000 0.17350400 8346.28523132 0 22.49132413 0 2741.57405905 0 93.12766320 0 297.55544271 0 32508
0.17450000 0.17449800 8233.86791744 0 54.94663336 0 2491.05163770 0 -46.10217102 0 93.65182706 0 32791
0.17550000 0.17549800 8190.74121227 0 97.46436066 0 2538.86193627 0 -147.75463854 0 98.84031847 0 33633
0.17650000 0.17650100 8226.18372401 0 153.47017261 0 2559.71112390 0 -137.14181520 0 195.92478767 0 33984
0.17750000 0.17750300 8022.81833407 0 91.56834770 0 2550.84219172 0 141.99481517 0 244.91539606 0 34069
0.17850000 0.17849800 7891.12410268 0 113.72716991 0 2389.47412981 0 483.53617546 0 294.78403981 0 34536
