### header ###
fiducial parameters:
Omega_m = 0.31
Omega_nu = 0
Omega_de = 0.69
Omega_k = 0
H_0 = 100
w_de = -1
zeff = 0
beta = 0
fgrowth = 0
b_1 = 2
gamma = 0.55
Lx = 3500 Ly = 3500 Lz = 3500
nx = 700 ny = 700 nz = 700
xoffset = -685.467585 yoffset = -31.7331281 zoffset = 572.489161
bins = 400 dk = 0.001
kx_ny = 0.628318531 ky_ny = 0.628318531 kz_ny = 0.628318531
############################
A(data) = 8.06119605 (not used)
A(ran) = 8.06078739 (used)
Ngal = 478769
weighted Ngal = 0
Nran = 23820508
weighted Nran = 0
SN(data) = 3485.79273
SN(ran) = 70.2123816
SN(data+ran) = 3556.00511
############################
13 columns: k_central k_mean P_0(k) sigma^{lin}_{P_0(k)} P^img_1(k) sigma^{lin}_{P_1(k)} P_2(k) sigma^{lin}_{P_2(k)} P^img_3(k) sigma^{lin}_{P_3(k)} P_4(k) sigma^{lin}_{P_4(k)} N_modes
### header ###
0.00050000 0 0 0 0 0 0 0 0 0 0 0 0
0.00150000 0.00179520 12981.41506388 0 -23130.86160889 0 10940.32056216 0 -69775.90871189 0 2065.55326724 0 3
0.00250000 0.00253879 25950.31840071 0 -26260.89711187 0 -20978.40166414 0 -14263.92244762 0 -11102.88443515 0 6
0.00350000 0.00331552 38829.97879950 0 -11208.18224417 0 3960.57058763 0 -4728.59132635 0 15960.31333309 0 7
0.00450000 0.00420575 55176.82699201 0 -5216.91406783 0 7574.16773242 0 -31446.28827094 0 9534.20174414 0 24
0.00550000 0.00557378 68245.60269870 0 -7633.69255064 0 23156.21723272 0 -24332.76246795 0 5891.45116810 0 45
0.00650000 0.00659388 65741.59644097 0 1134.40396697 0 -1608.98595335 0 -234.69896195 0 17864.97464839 0 40
0.00750000 0.00754703 75940.64700117 0 -8560.06967892 0 41879.07560806 0 -11672.77699356 0 -16511.27221606 0 57
0.00850000 0.00846663 88342.31513754 0 1339.18661449 0 25173.48409143 0 -4295.43090712 0 -29032.52146048 0 75
0.00950000 0.00948925 80414.19839765 0 6038.89024539 0 35474.28931672 0 -7028.90002440 0 -32224.67270569 0 112
0.01050000 0.01054430 71175.89346196 0 97.22641640 0 10107.64851882 0 8536.19774661 0 -26807.98068116 0 105
0.01150000 0.01145670 71085.32184494 0 -325.99360178 0 6904.03741742 0 4773.83284556 0 -40845.58480949 0 144
0.01250000 0.01249090 74902.72727267 0 -12989.94075399 0 -16661.08077086 0 9140.25949942 0 -40953.20780673 0 169
0.01350000 0.01339930 90798.48895206 0 -10970.11618825 0 -10643.20579797 0 6324.73338291 0 -57230.41107612 0 180
0.01450000 0.01448870 86601.63495280 0 -9983.25094948 0 -22812.42154711 0 -20449.47670756 0 -63695.65226098 0 267
0.01550000 0.01550050 86533.42943192 0 8669.84070717 0 -19835.29484987 0 -25473.10120103 0 -57082.26337005 0 238
0.01650000 0.01653350 87271.06771134 0 1192.38973204 0 -11760.69125262 0 -26488.43338690 0 -53201.74569086 0 315
0.01750000 0.01747870 74772.62745605 0 8710.13289719 0 -17607.98598935 0 -12036.28141736 0 -32539.56962353 0 297
0.01850000 0.01844180 84337.78742038 0 7422.52117170 0 3104.01553966 0 -11162.67498917 0 -28052.50999078 0 388
0.01950000 0.01947590 72507.78341439 0 2600.42406226 0 -1605.42066475 0 -4867.59329212 0 -10082.97937913 0 399
0.02050000 0.02045430 74463.37742386 0 4010.16353049 0 5333.27312935 0 9196.29653532 0 -5637.33024119 0 462
0.02150000 0.02154770 70372.70701961 0 1418.08800115 0 6455.23180322 0 6955.01440088 0 -18738.35963008 0 571
0.02250000 0.02255340 70657.04432096 0 -1004.03730732 0 3233.70568026 0 9245.55730844 0 6238.87857626 0 510
0.02350000 0.02348930 70203.96478938 0 -805.60020916 0 -463.58384613 0 2159.81196842 0 -8859.73107781 0 555
0.02450000 0.02439640 69539.29313052 0 -71.76981297 0 -9881.68451392 0 2278.31906096 0 7146.88671767 0 592
0.02550000 0.02547300 79495.19543770 0 -2734.14452909 0 8137.05150922 0 -14763.50574344 0 -10799.82383253 0 837
0.02650000 0.02652900 72541.44328184 0 3798.00671464 0 2604.15543572 0 -6989.12823365 0 -327.15398142 0 723
0.02750000 0.02749970 72844.82498187 0 8453.22174442 0 22178.64167449 0 -11197.99570534 0 -8117.33169872 0 826
0.02850000 0.02848090 67443.08059585 0 3957.53677063 0 14640.60293795 0 -2539.12767206 0 -5716.17626622 0 831
0.02950000 0.02946900 65223.07946971 0 1167.46592888 0 25381.53307478 0 2780.17218336 0 -5208.72054746 0 996
0.03050000 0.03053250 61067.63596527 0 3188.61917360 0 15602.45579495 0 11614.42584177 0 -4101.26661910 0 1041
0.03150000 0.03150510 58652.20830609 0 -1433.84391937 0 11980.80907002 0 7764.63386395 0 -1060.71875253 0 1036
0.03250000 0.03246190 59847.57649351 0 -446.68969293 0 9620.83161352 0 4696.95769434 0 -6497.01875709 0 1059
0.03350000 0.03345080 59711.16545174 0 1648.48093597 0 8984.04006855 0 135.46214353 0 -5097.41046606 0 1302
0.03450000 0.03451200 54878.76000789 0 5713.79571639 0 9416.99011361 0 -9832.24658361 0 -3780.61209235 0 1339
0.03550000 0.03553350 53835.30411698 0 4217.81391014 0 14384.94295789 0 -7889.95043625 0 2975.36619759 0 1365
0.03650000 0.03647120 51138.19651441 0 1477.05920313 0 20465.08868555 0 -5121.81386996 0 -3775.23094249 0 1308
0.03750000 0.03744890 50742.69307189 0 3208.28362248 0 26021.73489579 0 -2328.05594404 0 1926.58451844 0 1579
0.03850000 0.03847530 47383.57116840 0 3190.60111974 0 27382.85578575 0 -3890.71529035 0 -1401.86704529 0 1662
0.03950000 0.03950240 47807.19831597 0 675.63436767 0 27647.37362566 0 6129.94904470 0 961.71113124 0 1683
0.04050000 0.04050350 44991.94900758 0 231.09049129 0 27911.33784934 0 1947.06831936 0 -110.35631134 0 1822
0.04150000 0.04152450 46481.61958868 0 1192.31222577 0 25635.08931312 0 8320.35384660 0 -955.38440484 0 1887
0.04250000 0.04250150 43232.44587065 0 848.43903388 0 22268.54895201 0 4242.21731404 0 -1935.28736575 0 1920
0.04350000 0.04349210 44627.66952104 0 -476.01142351 0 18085.75680527 0 2394.47882063 0 -5052.36824870 0 2005
0.04450000 0.04448520 42089.33905637 0 675.04199829 0 16298.46213305 0 3669.35737257 0 -3979.38246750 0 2151
0.04550000 0.04548030 42593.35128211 0 356.35834536 0 13372.60029972 0 112.59779278 0 -5206.43964855 0 2274
0.04650000 0.04648670 41294.45685764 0 -733.85043710 0 13273.61371584 0 4176.77987436 0 -5671.64337580 0 2311
0.04750000 0.04749250 42065.31211151 0 1028.70976872 0 12321.83667443 0 2072.18558981 0 -5957.37579007 0 2568
0.04850000 0.04851840 40383.20452506 0 1092.83070897 0 10936.73312892 0 2011.94107047 0 -6187.40333818 0 2493
0.04950000 0.04949480 39599.50537440 0 1406.88280843 0 10119.16373663 0 1715.46850113 0 -1891.92814176 0 2644
0.05050000 0.05050630 39044.44973124 0 1784.36050615 0 11460.52052679 0 -446.55350333 0 -1960.22224124 0 2829
0.05150000 0.05149060 38181.36201163 0 866.07281838 0 10265.56201539 0 1336.37424399 0 597.89778958 0 2784
0.05250000 0.05249300 36638.65499465 0 585.40599272 0 9763.73103763 0 1801.60011589 0 196.65556110 0 3055
0.05350000 0.05348950 37407.40650680 0 368.56447624 0 8846.94254265 0 534.84975760 0 -189.20610097 0 3009
0.05450000 0.05448610 37082.76594312 0 -243.42838284 0 11155.69942453 0 962.30792955 0 -736.61851830 0 3336
0.05550000 0.05550870 35852.18776278 0 792.92350447 0 11718.61641831 0 -1678.70838273 0 -1824.18765852 0 3349
0.05650000 0.05647670 35339.76057017 0 2302.01383607 0 12246.32341917 0 -1456.39824502 0 -2098.63737380 0 3324
0.05750000 0.05747970 33568.29932243 0 826.16926697 0 14549.36698145 0 -3093.30860156 0 -2368.02703664 0 3639
0.05850000 0.05849280 33594.43000901 0 510.50725148 0 16313.74194130 0 -1093.67220566 0 -1506.04654951 0 3846
0.05950000 0.05951020 35102.48064931 0 -434.72715319 0 18201.57332288 0 -1092.41328233 0 -518.21137509 0 3787
0.06050000 0.06049470 34451.87084296 0 396.85980231 0 17933.84450876 0 1636.32352332 0 2060.98039709 0 3930
0.06150000 0.06148310 34676.08542054 0 825.81052365 0 17071.31040539 0 2737.59909444 0 817.28372630 0 4083
0.06250000 0.06249100 33602.84497587 0 540.98714724 0 16584.01739012 0 3523.90024143 0 2658.95237125 0 4303
0.06350000 0.06350600 33265.69268514 0 347.36429591 0 15789.46736113 0 2176.60868517 0 690.17786632 0 4470
0.06450000 0.06451750 32707.31534454 0 1449.19016156 0 15902.51579753 0 597.79260249 0 497.39097550 0 4479
0.06550000 0.06550280 31313.08820337 0 985.63621071 0 13607.66575562 0 928.40557818 0 659.59942686 0 4636
0.06650000 0.06648880 29658.55070572 0 1103.63951246 0 12790.63890725 0 2101.12864689 0 3548.79082762 0 4653
0.06750000 0.06749660 29682.24548083 0 35.91541074 0 10289.45609234 0 2363.18843069 0 1372.95720519 0 5220
0.06850000 0.06852730 29209.34648783 0 -644.19117965 0 9345.10858089 0 2638.78966775 0 191.72948379 0 5029
0.06950000 0.06949320 29260.16845875 0 449.96599384 0 7902.59503119 0 404.69347212 0 -851.05985316 0 5040
0.07050000 0.07048030 29024.88155635 0 -102.78328406 0 8260.97296859 0 -1296.63567021 0 -3002.36052550 0 5475
0.07150000 0.07148790 29159.07813315 0 707.76514706 0 9888.62686158 0 -3276.85453008 0 -1427.07872890 0 5509
0.07250000 0.07249820 28615.20553806 0 1250.12083365 0 10629.44289823 0 -2879.61273256 0 -3074.31956450 0 5916
0.07350000 0.07351270 28333.63631792 0 263.62430330 0 11837.53318686 0 -1183.54294451 0 -1749.59340622 0 5721
0.07450000 0.07449140 27959.17029256 0 357.63387718 0 12833.26735780 0 -233.97040298 0 -2185.87622105 0 6028
0.07550000 0.07549160 28315.92059821 0 198.98185655 0 14126.18272688 0 2078.64075518 0 -2741.17545535 0 6183
0.07650000 0.07648840 28340.61188256 0 -27.20625220 0 13159.56877021 0 1800.79183618 0 -1889.55866425 0 6330
0.07750000 0.07749960 28227.00982992 0 469.49203866 0 12604.40240380 0 1710.00984499 0 -1820.93239502 0 6583
0.07850000 0.07848650 27694.65245264 0 727.75622952 0 11456.97738285 0 1727.27159938 0 1771.02942707 0 6549
0.07950000 0.07947320 26919.70043858 0 903.52717155 0 10908.12224159 0 1476.62738246 0 1587.11811183 0 6828
0.08050000 0.08048110 25828.96572070 0 840.09492990 0 10359.98680144 0 2231.92601997 0 2580.82604733 0 7147
0.08150000 0.08149960 25284.98240236 0 655.10074129 0 10573.25084977 0 224.91213404 0 1168.29635324 0 7386
0.08250000 0.08250610 24078.98478311 0 1210.65906800 0 10245.57646909 0 332.57388442 0 1608.06695039 0 7227
0.08350000 0.08350160 23308.35097573 0 870.21276063 0 9931.47675863 0 577.06963936 0 2048.05899403 0 7798
0.08450000 0.08449610 22708.56314031 0 177.85586079 0 9342.67266943 0 605.51776352 0 2153.54503258 0 7371
0.08550000 0.08548940 22892.14228580 0 -16.14090295 0 9160.68793871 0 1321.76984755 0 2007.50106822 0 8256
0.08650000 0.08650700 22805.11381272 0 -105.71401772 0 9128.63355836 0 1081.93886305 0 2478.93851435 0 8037
0.08750000 0.08749060 22456.11413444 0 792.08754395 0 8901.23015123 0 1549.39470117 0 2428.60372572 0 8155
0.08850000 0.08849210 21590.25833362 0 976.21698398 0 7568.76443791 0 -41.23322690 0 2742.47091736 0 8718
0.08950000 0.08949900 21375.12306240 0 339.03237148 0 8193.74181229 0 805.02887719 0 3803.75325122 0 8571
0.09050000 0.09049190 20700.26486470 0 19.61783439 0 7403.02280770 0 1018.16891549 0 2894.18391202 0 8932
0.09150000 0.09150830 20584.89124009 0 453.44713276 0 7426.02002634 0 66.68706226 0 1847.58348086 0 9285
0.09250000 0.09250820 20224.81923699 0 864.68545608 0 7105.67552469 0 -665.09683614 0 1351.02292972 0 9204
0.09350000 0.09350330 19554.61141571 0 847.07824516 0 6896.30893470 0 -24.70900007 0 1968.65935276 0 9349
0.09450000 0.09448040 19453.18892038 0 -388.39611722 0 6653.43748980 0 395.41818562 0 2914.16945832 0 9564
0.09550000 0.09549270 19220.89154568 0 -271.58641208 0 6793.11486739 0 1235.98147486 0 1366.71241399 0 10155
0.09650000 0.09649430 19588.49272966 0 418.34343416 0 6710.01706962 0 560.77892786 0 1100.14951568 0 9913
0.09750000 0.09749140 18675.02593212 0 715.75604388 0 7028.21354026 0 -203.64551976 0 1512.73423370 0 10476
0.09850000 0.09850240 18123.84560265 0 716.92195968 0 6685.48079782 0 -100.31249478 0 1279.24104792 0 10575
0.09950000 0.09950330 17540.99842420 0 425.56701887 0 7262.58143970 0 32.11516741 0 1278.36633426 0 10882
0.10050000 0.10051200 17286.44567662 0 316.03736730 0 6860.74462738 0 -73.76128131 0 272.45116065 0 10875
0.10150000 0.10150300 17159.11394120 0 107.74988608 0 6930.04630842 0 169.15744242 0 -969.88029249 0 11118
0.10250000 0.10250800 16733.82594492 0 -11.66646577 0 5906.54274683 0 -56.06704191 0 -880.29189792 0 11575
0.10350000 0.10349800 17100.09844992 0 304.50443377 0 5881.89575179 0 275.00776045 0 -2010.32451105 0 11364
0.10450000 0.10450100 16750.65587864 0 92.86336681 0 5358.99413990 0 351.16099609 0 -1646.67614703 0 12093
0.10550000 0.10551000 16674.36756064 0 58.87431914 0 5176.10147855 0 -80.50831316 0 -1986.59651896 0 12067
0.10650000 0.10649700 16738.03342835 0 429.36482628 0 5705.04857978 0 168.80644972 0 -1846.48732071 0 12054
0.10750000 0.10749900 16178.43813201 0 256.12501770 0 5081.22272717 0 -45.94250809 0 -1534.28097780 0 12807
0.10850000 0.10850100 16144.22464832 0 292.98589426 0 5403.51595800 0 471.31232886 0 -1123.94062002 0 12736
0.10950000 0.10950300 15977.80760630 0 66.92323495 0 5299.42503238 0 600.07239417 0 -948.05784750 0 12933
0.11050000 0.11050200 15811.72273402 0 287.61028056 0 5649.04476085 0 447.27874061 0 -820.55781275 0 13428
0.11150000 0.11150900 15566.47073929 0 579.09808927 0 5037.24345299 0 -173.02500548 0 -1084.59954270 0 13453
0.11250000 0.11250000 14930.80857145 0 401.87777992 0 5627.08834073 0 -177.39857378 0 260.64363346 0 13668
0.11350000 0.11349100 14436.53999154 0 211.74824706 0 5298.97106706 0 350.12905542 0 254.45752559 0 13791
0.11450000 0.11448600 14763.06285045 0 82.10128853 0 5713.25317247 0 1028.13290059 0 390.90399879 0 14205
0.11550000 0.11549300 14458.79536443 0 211.70949393 0 5600.37082095 0 138.52364134 0 764.39123065 0 14776
0.11650000 0.11649800 14557.22833207 0 181.32260570 0 5238.54939052 0 473.55226017 0 1593.98295322 0 14553
0.11750000 0.11747300 14442.51904695 0 -27.47364885 0 5089.30552429 0 302.37411847 0 2084.12155596 0 14568
0.11850000 0.11849100 14592.88121798 0 -118.94887829 0 4963.32461251 0 310.34729957 0 1551.35450267 0 16015
0.11950000 0.11950300 14538.95899612 0 64.14120261 0 4621.24513723 0 397.65258077 0 1456.88542731 0 15270
0.12050000 0.12050700 14507.18142389 0 110.98344782 0 4520.06623304 0 5.47938353 0 1137.95818324 0 15999
0.12150000 0.12150000 14196.93488247 0 174.01265685 0 4526.11172239 0 55.85899292 0 259.47771766 0 15670
0.12250000 0.12250700 14271.00873551 0 200.84311435 0 4454.76166126 0 -111.75740332 0 325.50752672 0 16887
0.12350000 0.12352200 13706.09872326 0 339.37229185 0 4711.40707823 0 9.46191054 0 497.63013772 0 16407
0.12450000 0.12449800 13753.15610374 0 532.97853470 0 4674.21513917 0 -411.00248280 0 57.12743846 0 16306
0.12550000 0.12549900 13168.20518357 0 406.84482483 0 5126.37566779 0 -95.83329649 0 1029.58558961 0 17523
0.12650000 0.12650100 13212.38375959 0 212.52220257 0 5422.25033159 0 332.91712648 0 1320.20864975 0 17154
0.12750000 0.12750600 13008.65298293 0 46.28741101 0 5116.90883007 0 939.62516492 0 1627.93070111 0 18007
0.12850000 0.12850300 13105.09293210 0 -171.56124413 0 5199.56373484 0 763.83207824 0 1337.91329714 0 17496
0.12950000 0.12949900 13002.67392753 0 215.34010924 0 5025.68394588 0 595.89812772 0 1411.66605275 0 18405
0.13050000 0.13049000 12957.49884227 0 304.92075318 0 4709.70194021 0 68.87639304 0 2030.48721454 0 18100
0.13150000 0.13148800 12553.02681664 0 186.45130655 0 4470.18540973 0 95.15002333 0 1955.12897183 0 19059
0.13250000 0.13249300 12398.45716218 0 143.79628242 0 4535.41247524 0 -141.22307413 0 1733.12885921 0 18957
0.13350000 0.13349100 12380.63071922 0 105.35870681 0 4656.86480618 0 117.16955570 0 1356.76946630 0 19468
0.13450000 0.13450700 12408.42225451 0 152.19574803 0 4478.76646147 0 -184.81481694 0 1499.29243137 0 19953
0.13550000 0.13551000 12207.79172880 0 189.86158260 0 4626.99167381 0 -103.87601180 0 1119.00236315 0 19956
0.13650000 0.13649900 12196.94085048 0 92.65653578 0 4500.35749486 0 92.87067454 0 853.29867724 0 19723
0.13750000 0.13749600 12006.38614035 0 54.85761187 0 4266.65393492 0 185.21674233 0 679.89167656 0 20946
0.13850000 0.13851100 12018.23352790 0 62.88360796 0 4563.83513305 0 288.33551783 0 333.35669778 0 20955
0.13950000 0.13949800 11892.45191796 0 74.37634895 0 4198.84701773 0 181.87400747 0 516.65792792 0 20506
0.14050000 0.14048300 11680.74906743 0 192.25320476 0 3856.20285389 0 595.07988291 0 110.96573210 0 21447
0.14150000 0.14148400 11654.83982736 0 2.24472563 0 3795.21648879 0 269.70190240 0 323.76585002 0 21771
0.14250000 0.14249400 11480.89360445 0 271.73145954 0 3985.11793175 0 154.45450229 0 135.48318095 0 22470
0.14350000 0.14350900 11357.10501298 0 220.21746832 0 3471.98211036 0 -115.85305627 0 157.19822438 0 22519
0.14450000 0.14449900 11090.15126160 0 271.67388345 0 3759.38644567 0 68.96142850 0 -106.08427626 0 22218
0.14550000 0.14550500 10884.47175577 0 233.94050770 0 3425.40083985 0 -202.21718986 0 -80.08302516 0 23559
0.14650000 0.14650700 10867.07713348 0 84.41905828 0 3523.98882003 0 272.76450744 0 -290.24770833 0 23044
0.14750000 0.14750500 10598.87220940 0 -57.57110651 0 2973.40639610 0 331.41904094 0 -333.10535601 0 23649
0.14850000 0.14849900 10648.04440392 0 237.18691334 0 2867.49960921 0 480.62747573 0 -421.83010924 0 23640
0.14950000 0.14949500 10517.86708103 0 183.99214321 0 2430.93998626 0 281.80838235 0 -301.71642238 0 24457
0.15050000 0.15050000 10181.67808256 0 254.87716670 0 2407.59952554 0 154.87192894 0 -57.77051908 0 24591
0.15150000 0.15149900 10139.92434567 0 205.63964546 0 2565.57945605 0 111.85373255 0 -246.86966139 0 25020
0.15250000 0.15250500 9873.47992123 0 155.44326090 0 2746.55660521 0 2.83743825 0 116.72223377 0 25297
0.15350000 0.15350100 9749.72454673 0 276.34308282 0 2770.41746520 0 18.91706695 0 318.30387219 0 25452
0.15450000 0.15450400 9637.42902842 0 218.89986166 0 3068.69482349 0 77.46043431 0 737.66042407 0 26061
0.15550000 0.15549900 9499.17998074 0 213.86084664 0 3038.07984536 0 142.10110949 0 970.54684644 0 26128
0.15650000 0.15649500 9189.01094559 0 208.92148254 0 3012.14846064 0 384.54959158 0 1383.03302077 0 26331
0.15750000 0.15749700 9252.65466865 0 -44.32993471 0 2860.71227409 0 361.56012356 0 869.28711428 0 27345
0.15850000 0.15849900 9190.60536037 0 -85.30484427 0 2643.00822351 0 449.56296122 0 1077.19437186 0 26980
0.15950000 0.15949700 9170.65303104 0 -8.98871259 0 2406.30406354 0 164.46499116 0 1065.94821155 0 27777
0.16050000 0.16050000 9176.78709899 0 154.20758945 0 2331.67659426 0 129.35907809 0 848.70809137 0 28224
0.16150000 0.16150500 9171.84884212 0 -0.95138287 0 2007.20211545 0 121.64609662 0 647.99009429 0 28075
0.16250000 0.16249700 8978.81393124 0 102.34581651 0 1882.04055570 0 63.73241238 0 528.00263193 0 28590
0.16350000 0.16349900 9139.00832671 0 110.13098953 0 1896.54530121 0 -166.99391015 0 183.34109051 0 29163
0.16450000 0.16449100 8985.74520657 0 -2.29153942 0 1843.87425205 0 151.77389245 0 534.54969759 0 28996
0.16550000 0.16550500 8943.38249182 0 81.97772139 0 1834.36312503 0 -78.42350512 0 183.67879642 0 30777
0.16650000 0.16650700 8929.44243487 0 78.65801696 0 1965.58124646 0 -112.46271042 0 519.81907666 0 29211
0.16750000 0.16749900 8865.83192879 0 165.74163021 0 2132.78442354 0 -114.20881604 0 154.00828760 0 30922
0.16850000 0.16850800 8799.78551124 0 218.62416078 0 2365.98972887 0 -240.75552362 0 406.70088461 0 30867
0.16950000 0.16949900 8447.41984621 0 311.75016313 0 2533.19290596 0 -126.28650795 0 170.10191172 0 30852
0.17050000 0.17049200 8370.58898430 0 261.50173864 0 2646.19705306 0 -141.51316904 0 494.86759268 0 31257
0.17150000 0.17149500 8206.14281609 0 3.57603982 0 2756.68778242 0 56.44028998 0 593.31938327 0 32608
0.17250000 0.17250900 8262.83311916 0 2.13373664 0 2655.18778081 0 194.36137540 0 701.97099948 0 32361
0.17350000 0.17350400 8281.09138279 0 15.43592803 0 2692.10291176 0 202.83502559 0 723.51220741 0 32508
0.17450000 0.17449800 8156.32842673 0 98.09205076 0 2532.12996278 0 143.91697076 0 602.29460977 0 32791
0.17550000 0.17549800 8167.24573900 0 133.34400779 0 2516.48476781 0 70.70598400 0 594.24613685 0 33633
0.17650000 0.17650100 8079.98474711 0 64.95202896 0 2372.61097911 0 55.03930872 0 955.15077878 0 33984
0.17750000 0.17750300 8063.90773147 0 18.85439759 0 2586.69437948 0 157.75294785 0 926.08814060 0 34069
0.17850000 0.17849800 7987.86300462 0 99.36426088 0 2266.53810735 0 280.43652131 0 623.18255054 0 34536
