### header ###
fiducial parameters:
Omega_m = 0.31
Omega_nu = 0
Omega_de = 0.69
Omega_k = 0
H_0 = 100
w_de = -1
zeff = 0
beta = 0
fgrowth = 0
b_1 = 2
gamma = 0.55
Lx = 3500 Ly = 3500 Lz = 3500
nx = 700 ny = 700 nz = 700
xoffset = -685.467585 yoffset = -31.7331281 zoffset = 572.489161
bins = 400 dk = 0.001
kx_ny = 0.628318531 ky_ny = 0.628318531 kz_ny = 0.628318531
############################
A(data) = 8.05549345 (not used)
A(ran) = 8.04977086 (used)
Ngal = 478267
weighted Ngal = 0
Nran = 23820508
weighted Nran = 0
SN(data) = 3495.32277
SN(ran) = 70.1164236
SN(data+ran) = 3565.43919
############################
13 columns: k_central k_mean P_0(k) sigma^{lin}_{P_0(k)} P^img_1(k) sigma^{lin}_{P_1(k)} P_2(k) sigma^{lin}_{P_2(k)} P^img_3(k) sigma^{lin}_{P_3(k)} P_4(k) sigma^{lin}_{P_4(k)} N_modes
### header ###
0.00050000 0 0 0 0 0 0 0 0 0 0 0 0
0.00150000 0.00179520 46310.22000048 0 17.24016336 0 28371.50366880 0 15399.05718803 0 -78793.76366044 0 3
0.00250000 0.00253879 79814.63200872 0 13140.52437152 0 29723.54525241 0 20267.44768754 0 45312.82498082 0 6
0.00350000 0.00331552 67176.01612122 0 10125.49710643 0 57623.03571419 0 -62063.92375245 0 83615.87184221 0 7
0.00450000 0.00420575 59324.40914583 0 -2490.37622589 0 51122.91670616 0 33136.81082425 0 52256.50132109 0 24
0.00550000 0.00557378 68507.79535041 0 1675.48633621 0 59411.99123514 0 75088.52088312 0 -6896.60788747 0 45
0.00650000 0.00659388 88325.04231082 0 2120.06232233 0 48808.02575632 0 87713.96070408 0 31049.56687269 0 40
0.00750000 0.00754703 73749.21247306 0 -4022.87455938 0 31781.44754320 0 58866.56851457 0 26693.04994954 0 57
0.00850000 0.00846663 77794.48634555 0 -11751.72266952 0 30568.91725231 0 47978.37645766 0 50765.72350751 0 75
0.00950000 0.00948925 77158.27056147 0 2516.08616411 0 11008.67002326 0 41536.49787817 0 4996.57480394 0 112
0.01050000 0.01054430 77529.74705914 0 -342.64859277 0 -3055.38588906 0 5255.09144380 0 38134.19390790 0 105
0.01150000 0.01145670 71503.41283010 0 -6045.41184471 0 -10343.46689281 0 -18550.13010817 0 12290.28054870 0 144
0.01250000 0.01249090 71595.64529583 0 3620.19625038 0 -16844.65991635 0 -8823.61315425 0 16295.58332859 0 169
0.01350000 0.01339930 76668.65235799 0 -5141.99871810 0 -7965.05401549 0 -41595.40264621 0 -14878.10430531 0 180
0.01450000 0.01448870 77160.04213345 0 2385.86455192 0 -7314.78745122 0 -24558.30572451 0 -12213.21716796 0 267
0.01550000 0.01550050 80437.45027976 0 2363.46523881 0 8521.17260183 0 -19679.61796292 0 -20765.81302763 0 238
0.01650000 0.01653350 73736.92219251 0 6211.02060702 0 12998.02355111 0 -19503.34655180 0 -24508.92315582 0 315
0.01750000 0.01747870 74530.69715876 0 9213.82402551 0 23818.34225688 0 -5138.11233209 0 -17690.80697899 0 297
0.01850000 0.01844180 71526.00037273 0 177.65323725 0 29549.48830626 0 -963.48823937 0 -15480.10660570 0 388
0.01950000 0.01947590 70510.11457061 0 -474.35057479 0 38579.52281211 0 13732.56157957 0 6033.19907043 0 399
0.02050000 0.02045430 72158.34084312 0 227.64589104 0 42856.42971980 0 12094.52184590 0 4847.56345653 0 462
0.02150000 0.02154770 71954.94223620 0 -183.51271154 0 41671.13734797 0 12542.95100106 0 7138.03993014 0 571
0.02250000 0.02255340 67923.28732323 0 5173.72092871 0 35970.55091509 0 10147.01063355 0 13785.70873870 0 510
0.02350000 0.02348930 70165.21165251 0 -4409.58657600 0 33137.36444049 0 4782.77928401 0 17458.39888105 0 555
0.02450000 0.02439640 73684.55009612 0 -536.41870602 0 43200.55757517 0 -966.48330323 0 25771.27890839 0 592
0.02550000 0.02547300 77662.94712671 0 -3648.95107793 0 28258.23378591 0 9364.29691980 0 8741.34578085 0 837
0.02650000 0.02652900 75151.07951835 0 2184.39252952 0 26827.91086584 0 2234.80482442 0 6092.79032261 0 723
0.02750000 0.02749970 74921.55022486 0 4502.85984027 0 19344.79086040 0 5398.85450925 0 7484.62584161 0 826
0.02850000 0.02848090 69915.30928136 0 1539.48497046 0 21278.57238998 0 5527.04988600 0 -2131.88756523 0 831
0.02950000 0.02946900 68562.60335826 0 2412.41598684 0 16822.84743646 0 1182.15890391 0 -2225.26048043 0 996
0.03050000 0.03053250 65250.76028176 0 4543.58385096 0 19340.58337697 0 -294.38100719 0 -1750.71171103 0 1041
0.03150000 0.03150510 59659.12552509 0 5323.33018166 0 17931.74076705 0 -7434.11389579 0 4720.01027462 0 1036
0.03250000 0.03246190 58701.14798178 0 3451.46509247 0 19142.94237896 0 264.55770029 0 409.84542486 0 1059
0.03350000 0.03345080 59782.91411657 0 -2461.10099906 0 23326.95248143 0 -1459.18847087 0 1810.13687833 0 1302
0.03450000 0.03451200 58559.31150086 0 -634.47964355 0 22326.56793406 0 3501.33484345 0 -4443.55646854 0 1339
0.03550000 0.03553350 59297.72484301 0 3154.11780946 0 20963.34330239 0 1483.39257293 0 645.78891612 0 1365
0.03650000 0.03647120 55244.36817340 0 3387.55563362 0 19006.75278369 0 -1377.09825467 0 131.58240091 0 1308
0.03750000 0.03744890 55478.76928981 0 675.68087143 0 19832.52676866 0 73.89115968 0 2474.19955933 0 1579
0.03850000 0.03847530 53062.01295165 0 2437.35086233 0 25654.68732805 0 -1235.18426747 0 -4979.19125397 0 1662
0.03950000 0.03950240 49981.36001735 0 6428.18211369 0 25822.21160256 0 -2064.45710709 0 -5546.10535701 0 1683
0.04050000 0.04050350 45780.18781142 0 4570.83284233 0 25117.45812785 0 -1684.93102928 0 -2819.29070695 0 1822
0.04150000 0.04152450 44011.16247514 0 -859.59329390 0 23139.71946874 0 1741.55489840 0 -3113.06162904 0 1887
0.04250000 0.04250150 44834.05765566 0 -827.77586130 0 23291.07814902 0 6540.86516337 0 -5546.10535701 0 1920
0.04350000 0.04349210 44709.16183171 0 935.84839493 0 23127.31846495 0 7949.06557845 0 -5483.81245758 0 2005
0.04450000 0.04448520 43707.11643562 0 2462.96114963 0 18616.67478033 0 2076.32663929 0 -5525.64370075 0 2151
0.04550000 0.04548030 41210.75008201 0 1715.42421183 0 18409.06868998 0 1760.47750152 0 -4597.20712005 0 2274
0.04650000 0.04648670 40361.39204517 0 240.03582251 0 20023.63509503 0 1339.33055471 0 -813.21353970 0 2311
0.04750000 0.04749250 39532.29636275 0 163.25810775 0 18343.40980380 0 1198.73417417 0 -32.40703390 0 2568
0.04850000 0.04851840 41237.32366157 0 -427.64529424 0 17666.22641789 0 -130.71875958 0 -3862.91268273 0 2493
0.04950000 0.04949480 41274.63739621 0 -1350.42502418 0 17088.58323211 0 149.60925295 0 -2877.30968900 0 2644
0.05050000 0.05050630 41737.57129688 0 1594.23761669 0 17254.88955088 0 -1919.36536266 0 -7419.87488607 0 2829
0.05150000 0.05149060 39035.92404113 0 3137.58682851 0 14432.00033837 0 -75.72949777 0 -4833.74519515 0 2784
0.05250000 0.05249300 38032.99285906 0 1445.45878810 0 14158.18174560 0 2686.15707333 0 -7962.45201916 0 3055
0.05350000 0.05348950 36375.57655695 0 455.53426599 0 14407.30905402 0 2041.58168401 0 -6076.40328187 0 3009
0.05450000 0.05448610 35807.01267752 0 577.60886158 0 13885.13821558 0 1572.03760543 0 -8155.18797728 0 3336
0.05550000 0.05550870 35205.45327012 0 1390.79472047 0 14151.75979721 0 -327.69873980 0 -2107.46201668 0 3349
0.05650000 0.05647670 35273.65879100 0 168.17643444 0 16377.73997875 0 1450.59634682 0 -784.70673222 0 3324
0.05750000 0.05747970 34796.66303782 0 -52.55622915 0 15729.56608387 0 2593.00560463 0 1533.20696229 0 3639
0.05850000 0.05849280 34790.24108942 0 1262.32253560 0 16271.66710699 0 1236.78975457 0 279.69467555 0 3846
0.05950000 0.05951020 33153.97292772 0 1008.91577364 0 13030.35473958 0 744.96040782 0 2065.08822960 0 3787
0.06050000 0.06049470 33730.17671128 0 393.52924701 0 15568.79592750 0 1136.44127474 0 1098.46873677 0 3930
0.06150000 0.06148310 31692.09388191 0 740.80164262 0 11288.34587586 0 -673.06337384 0 -1527.79259545 0 4083
0.06250000 0.06249100 32215.15050635 0 296.90217555 0 13080.18020126 0 -573.72358280 0 -4608.46767439 0 4303
0.06350000 0.06350600 32047.40478535 0 200.02819124 0 11129.67946121 0 743.37152921 0 -4823.06040170 0 4470
0.06450000 0.06451750 31483.38055908 0 -229.96775755 0 12269.35385479 0 207.29606525 0 -4991.37081127 0 4479
0.06550000 0.06550280 31968.90200238 0 -89.38012414 0 11863.22098044 0 1791.46893868 0 -4896.17096248 0 4636
0.06650000 0.06648880 32177.06170897 0 644.98506534 0 12573.95351055 0 2311.73533726 0 -2938.08567993 0 4653
0.06750000 0.06749660 31116.33299135 0 724.01599819 0 12449.72202609 0 1845.38008822 0 -945.44588608 0 5220
0.06850000 0.06852730 30749.06397711 0 1666.25201731 0 12392.58883002 0 -217.92881878 0 1164.84178790 0 5029
0.06950000 0.06949320 29613.48634371 0 1032.72237923 0 13736.54761651 0 1021.82388991 0 3978.15343944 0 5040
0.07050000 0.07048030 28946.26805014 0 271.41146935 0 14246.20672791 0 984.86225520 0 6580.41550762 0 5475
0.07150000 0.07148790 29088.87959380 0 -271.81339474 0 12934.24696015 0 1525.38990097 0 4418.46658050 0 5509
0.07250000 0.07249820 29318.18744080 0 91.60809734 0 12577.49665449 0 915.14979091 0 1143.49434565 0 5916
0.07350000 0.07351270 28552.31473309 0 820.01194714 0 12898.59407423 0 -266.30380591 0 1081.50039899 0 5721
0.07450000 0.07449140 27760.08989232 0 1564.72987105 0 11713.30170240 0 -273.96917638 0 2291.53941679 0 6028
0.07550000 0.07549160 26932.21216563 0 620.04686815 0 11857.57409478 0 1562.36039354 0 1493.92235383 0 6183
0.07650000 0.07648840 26261.11855837 0 130.91363249 0 11074.42856036 0 1188.87980508 0 1166.50263662 0 6330
0.07750000 0.07749960 26568.26484884 0 273.89831350 0 10927.28843585 0 1874.98748479 0 -321.70307591 0 6583
0.07850000 0.07848650 25759.87441383 0 571.13708773 0 10758.76765211 0 704.54974393 0 1381.11750858 0 6549
0.07950000 0.07947320 24997.10195707 0 920.18880594 0 9796.46082979 0 1215.74126509 0 1579.74394350 0 6828
0.08050000 0.08048110 24666.26089149 0 435.77127342 0 8645.11620585 0 1656.17620172 0 3055.19765953 0 7147
0.08150000 0.08149960 24121.50251041 0 -208.10545220 0 8778.68166014 0 1492.97013390 0 899.11374288 0 7386
0.08250000 0.08250610 24407.50066048 0 -309.31535890 0 7743.35285565 0 461.77794996 0 1098.18971419 0 7227
0.08350000 0.08350160 24470.72363519 0 113.70170356 0 7482.01277295 0 385.15635498 0 1399.06574711 0 7798
0.08450000 0.08449610 24110.98380184 0 574.25948332 0 7803.16555432 0 -1024.15239982 0 1416.77039449 0 7371
0.08550000 0.08548940 23695.32872814 0 950.41403823 0 7722.76940381 0 -1025.86307400 0 891.88351477 0 8256
0.08650000 0.08650700 22922.59117905 0 1196.59721548 0 8814.54492023 0 -544.78052573 0 2234.37300375 0 8037
0.08750000 0.08749060 22104.45709820 0 829.80098951 0 8369.26030532 0 353.68659338 0 2027.44232522 0 8155
0.08850000 0.08849210 21357.29661944 0 562.55603599 0 8246.81146515 0 1037.13027174 0 2003.85827335 0 8718
0.08950000 0.08949900 20797.59059986 0 489.94705153 0 8647.52997266 0 1380.67461559 0 929.53052639 0 8571
0.09050000 0.09049190 20521.22537238 0 142.73776817 0 7786.15846340 0 1255.78986396 0 1230.24601060 0 8932
0.09150000 0.09150830 20575.70121049 0 -113.18351876 0 6751.10646702 0 386.72751787 0 1315.39218846 0 9285
0.09250000 0.09250820 20592.08825122 0 -171.43834133 0 6302.73267349 0 -140.71263996 0 660.79523794 0 9204
0.09350000 0.09350330 20594.96705567 0 558.23450761 0 6919.94834818 0 -467.30414727 0 -879.73828168 0 9349
0.09450000 0.09448040 19683.93616960 0 1033.71335230 0 6566.38687207 0 -638.05489723 0 675.85359970 0 9564
0.09550000 0.09549270 18705.14265563 0 1009.89124545 0 7325.15114725 0 -288.85813157 0 439.97543516 0 10155
0.09650000 0.09649430 18270.99679949 0 603.91006196 0 7751.55744834 0 624.11373305 0 181.21963307 0 9913
0.09750000 0.09749140 17625.36953931 0 425.28024566 0 8141.59116240 0 570.42956617 0 637.38945051 0 10476
0.09850000 0.09850240 17635.66680140 0 174.48765958 0 7512.72740200 0 400.40737518 0 2044.33869289 0 10575
0.09950000 0.09950330 17601.01042471 0 -305.29942669 0 7679.52090307 0 1293.09252627 0 2733.21445381 0 10882
0.10050000 0.10051200 17901.95621328 0 -244.17465753 0 7601.75996587 0 376.27967217 0 3069.66918807 0 10875
0.10150000 0.10150300 18021.09442833 0 338.56844107 0 7629.28576536 0 989.17824742 0 2832.86537718 0 11118
0.10250000 0.10250800 17700.43990158 0 302.85576460 0 7211.03976767 0 255.40642382 0 2645.14518220 0 11575
0.10350000 0.10349800 17266.51549194 0 657.35395939 0 7369.47366350 0 6.54249280 0 2795.75094438 0 11364
0.10450000 0.10450100 16826.39058040 0 211.05622676 0 7205.24894179 0 628.51276770 0 2216.35833127 0 12093
0.10550000 0.10551000 16398.33450291 0 430.58278201 0 6815.48096352 0 23.04405458 0 1202.98594690 0 12067
0.10650000 0.10649700 16290.04716619 0 205.71825897 0 5846.45324004 0 197.70853919 0 -83.19678435 0 12054
0.10750000 0.10749900 15652.61342638 0 161.75559328 0 5876.64746982 0 174.03590873 0 -460.28872227 0 12807
0.10850000 0.10850100 15772.41598091 0 320.67556417 0 5146.16191224 0 -33.62631830 0 -1099.48960512 0 12736
0.10950000 0.10950300 15315.23968915 0 180.84760296 0 4514.37505808 0 358.46651600 0 -1168.29635324 0 12933
0.11050000 0.11050200 15272.16834561 0 181.48315440 0 4395.25898769 0 753.04320494 0 -1676.15067570 0 13428
0.11150000 0.11150900 15181.15383560 0 13.10775029 0 4318.99281433 0 404.80530260 0 -1140.56017957 0 13453
0.11250000 0.11250000 15055.70439540 0 166.80789509 0 4365.30834905 0 -108.19023244 0 -1150.03808961 0 13668
0.11350000 0.11349100 14909.43898455 0 523.37107846 0 4599.84233336 0 -501.70475325 0 -852.36528026 0 13791
0.11450000 0.11448600 14625.43385295 0 367.02431586 0 4832.78190289 0 -38.40258706 0 -246.79879851 0 14205
0.11550000 0.11549300 14613.36501890 0 197.89012532 0 5114.84937765 0 -37.64845102 0 299.20964804 0 14776
0.11650000 0.11649800 14371.43472161 0 -145.84023358 0 4737.60419875 0 925.58767152 0 484.64783687 0 14553
0.11750000 0.11747300 14457.90957844 0 -341.90231807 0 4818.41002528 0 1027.45638155 0 740.94669007 0 14568
0.11850000 0.11849100 14802.48032680 0 -73.11886502 0 4634.68693956 0 751.37239112 0 714.46722527 0 16015
0.11950000 0.11950300 14771.80998705 0 230.18366789 0 4014.13849510 0 636.04305581 0 594.84625686 0 15270
0.12050000 0.12050700 14457.90957844 0 168.35802056 0 4039.52733591 0 -55.66877038 0 1170.25615473 0 15999
0.12150000 0.12150000 14291.38181317 0 307.13189645 0 4598.19255696 0 -416.10793178 0 1549.57185837 0 15670
0.12250000 0.12250700 14316.62671376 0 123.54721479 0 4441.39736520 0 -330.07264624 0 912.56440307 0 16887
0.12350000 0.12352200 14136.25854246 0 223.82926067 0 5012.99506164 0 -162.38228686 0 1734.71220166 0 16407
0.12450000 0.12449800 13990.76819435 0 270.33413214 0 4810.83655510 0 -200.46444084 0 1481.49920538 0 16306
0.12550000 0.12549900 13836.19853988 0 141.96713436 0 4905.02882234 0 673.14641628 0 1456.32073875 0 17523
0.12650000 0.12650100 13624.93858234 0 178.22899814 0 4405.13550142 0 667.87598967 0 1405.23303203 0 17154
0.12750000 0.12750600 13600.46874449 0 118.57906265 0 4521.74922641 0 243.53135546 0 1029.72731537 0 18007
0.12850000 0.12850300 13556.06872197 0 80.31067216 0 4483.32825929 0 -85.78571534 0 668.47721690 0 17496
0.12950000 0.12949900 13297.30849095 0 278.70702417 0 4471.19299129 0 -560.70363605 0 807.69398578 0 18405
0.13050000 0.13049000 13052.83155896 0 275.98433950 0 4324.58433837 0 -437.63142399 0 711.37251048 0 18100
0.13150000 0.13148800 13087.26648914 0 145.37187424 0 4485.34342241 0 317.35497395 0 103.05167721 0 19059
0.13250000 0.13249300 12867.92373449 0 63.04304944 0 4292.36387315 0 33.02243371 0 -221.23612220 0 18957
0.13350000 0.13349100 12812.34066390 0 198.37509315 0 4374.58695725 0 416.18433082 0 -107.57660420 0 19468
0.13450000 0.13450700 12356.16088137 0 473.34963662 0 3982.63773099 0 594.39782770 0 -36.81293339 0 19953
0.13550000 0.13551000 12149.77274675 0 260.35243132 0 3659.04903817 0 632.49548294 0 242.47284120 0 19956
0.13650000 0.13649900 12026.64849477 0 -18.79106390 0 3365.23382678 0 373.88140662 0 297.82450020 0 19723
0.13750000 0.13749600 11870.63943807 0 246.91727239 0 3414.28422573 0 237.52904817 0 30.08184568 0 20946
0.13850000 0.13851100 11751.72266952 0 190.27568754 0 3158.50245009 0 -136.57159048 0 -125.65649267 0 20955
0.13950000 0.13949800 11417.67062974 0 196.00450840 0 3185.69607985 0 -214.53625845 0 153.41481099 0 20506
0.14050000 0.14048300 11511.23177446 0 170.22592176 0 3014.69509535 0 25.14425315 0 -320.18063125 0 21447
0.14150000 0.14148400 11286.02068765 0 -13.58076001 0 3341.02972473 0 -30.18149661 0 -223.73957484 0 21771
0.14250000 0.14249400 11335.18180984 0 189.82725839 0 3221.85829270 0 48.10260794 0 -823.18748990 0 22470
0.14350000 0.14350900 11041.32230915 0 379.55043692 0 3287.50610655 0 -272.96823822 0 -686.89492201 0 22519
0.14450000 0.14449900 10890.39544955 0 303.40827361 0 3427.44921994 0 -231.67732451 0 -537.00443201 0 22218
0.14550000 0.14550500 10753.35328527 0 153.52110531 0 3795.64830946 0 -329.62643155 0 -294.33450342 0 23559
0.14650000 0.14650700 10614.92708039 0 144.45619298 0 3846.64743757 0 175.19407391 0 -365.26492344 0 23044
0.14750000 0.14750500 10372.79748125 0 209.86595185 0 4051.30828952 0 73.40840632 0 -114.81336497 0 23649
0.14850000 0.14849900 10375.47698386 0 144.31446722 0 3765.60909222 0 463.57055934 0 235.54710203 0 23640
0.14950000 0.14949500 10177.01663381 0 -38.76066605 0 3680.03109370 0 780.09843063 0 331.82318079 0 24457
0.15050000 0.15050000 10240.00708970 0 -20.53794458 0 3219.99814213 0 647.09987938 0 144.02658678 0 24591
0.15150000 0.15149900 10174.75787955 0 103.74779427 0 2950.35381583 0 553.09694890 0 -154.62612332 0 25020
0.15250000 0.15250500 10039.03332192 0 70.52041183 0 2535.83919159 0 -26.72228089 0 -303.70944085 0 25297
0.15350000 0.15350100 9764.87148709 0 260.57387782 0 2274.10050520 0 -86.70427540 0 -181.12773278 0 25452
0.15450000 0.15450400 9648.33526837 0 221.50185800 0 2277.63257682 0 -146.94082267 0 -431.36116645 0 26061
0.15550000 0.15549900 9493.75454158 0 190.53145825 0 2535.36308162 0 -116.93482241 0 -308.39414148 0 26128
0.15650000 0.15649500 9371.17283351 0 76.73763294 0 2300.47478292 0 45.84861478 0 -441.36722639 0 26331
0.15750000 0.15749700 9298.32800853 0 212.35390323 0 2519.07569182 0 142.08782270 0 -366.13077924 0 27345
0.15850000 0.15849900 9183.93982083 0 106.17329775 0 2515.99758552 0 17.10917776 0 -230.34975276 0 26980
0.15950000 0.15949700 9129.75186316 0 189.29135787 0 2624.41779014 0 211.40279053 0 124.90468181 0 27777
0.16050000 0.16050000 9074.63383022 0 126.58546072 0 2497.76146654 0 35.23534855 0 152.68625202 0 28224
0.16150000 0.16150500 8999.03199635 0 -23.74637215 0 2644.56942131 0 241.06665595 0 453.29987084 0 28075
0.16250000 0.16249700 9025.90452869 0 29.57584044 0 2776.92799219 0 -128.12783557 0 183.85152468 0 28590
0.16350000 0.16349900 8943.82538481 0 230.31653579 0 2838.54547981 0 2.02124182 0 383.51432921 0 29163
0.16450000 0.16449100 8827.01235797 0 211.57773326 0 2857.93312056 0 -0.93405025 0 516.90041183 0 28996
0.16550000 0.16550500 8647.90643171 0 47.77110254 0 2815.75863533 0 291.54538480 0 757.02924187 0 30777
0.16650000 0.16650700 8734.73560293 0 51.05105732 0 2729.07340433 0 258.99607153 0 837.96129290 0 29211
0.16750000 0.16749900 8680.52550062 0 -59.83528621 0 2537.84328238 0 249.65988724 0 336.22332268 0 30922
0.16850000 0.16850800 8603.51748151 0 51.21337760 0 2376.55272675 0 -87.58231076 0 211.34078551 0 30867
0.16950000 0.16949900 8574.86230488 0 179.44031048 0 2306.33204275 0 -37.38459752 0 -22.83035871 0 30852
0.17050000 0.17049200 8373.53422270 0 260.68017214 0 2283.74450012 0 -207.50533219 0 141.40908919 0 31257
0.17150000 0.17149500 8302.61598224 0 219.16338300 0 2321.12466871 0 -151.23134854 0 -13.17684160 0 32608
0.17250000 0.17250900 8153.07316324 0 48.29692724 0 2574.00549524 0 25.23737141 0 281.10196803 0 32361
0.17350000 0.17350400 8175.86000771 0 30.45265784 0 2581.54574844 0 313.60809923 0 317.10584664 0 32508
0.17450000 0.17449800 8135.50138375 0 51.50934084 0 2504.68166955 0 284.67500725 0 584.95756356 0 32791
0.17550000 0.17549800 8166.99107553 0 29.48825835 0 2566.87491806 0 230.33314427 0 571.43714773 0 33633
0.17650000 0.17650100 8108.71743001 0 93.35298501 0 2700.57324024 0 59.56478932 0 757.52638926 0 33984
0.17750000 0.17750300 8108.63992374 0 -17.90040609 0 2397.37976973 0 97.67794581 0 503.08215046 0 34069
