### header ###
fiducial parameters:
Omega_m = 0.31
Omega_nu = 0
Omega_de = 0.69
Omega_k = 0
H_0 = 100
w_de = -1
zeff = 0
beta = 0
fgrowth = 0
b_1 = 2
gamma = 0.55
Lx = 3500 Ly = 3500 Lz = 3500
nx = 700 ny = 700 nz = 700
xoffset = -685.467585 yoffset = -31.7331281 zoffset = 572.489161
bins = 400 dk = 0.001
kx_ny = 0.628318531 ky_ny = 0.628318531 kz_ny = 0.628318531
############################
A(data) = 8.05696849 (not used)
A(ran) = 8.05691721 (used)
Ngal = 478736
weighted Ngal = 0
Nran = 23820508
weighted Nran = 0
SN(data) = 3484.24918
SN(ran) = 70.1786708
SN(data+ran) = 3554.42786
############################
13 columns: k_central k_mean P_0(k) sigma^{lin}_{P_0(k)} P^img_1(k) sigma^{lin}_{P_1(k)} P_2(k) sigma^{lin}_{P_2(k)} P^img_3(k) sigma^{lin}_{P_3(k)} P_4(k) sigma^{lin}_{P_4(k)} N_modes
### header ###
0.00050000 0 0 0 0 0 0 0 0 0 0 0 0
0.00150000 0.00179520 38015.38786260 0 -16107.68597642 0 49779.73298241 0 9155.63895859 0 -47298.42499055 0 3
0.00250000 0.00253879 71942.98412540 0 -10394.12277885 0 43185.27776692 0 -54828.38092997 0 2456.80493703 0 6
0.00350000 0.00331552 65960.49630263 0 7176.66019910 0 -5165.88172274 0 9862.79512778 0 55821.01484996 0 7
0.00450000 0.00420575 53136.75114417 0 23331.15996486 0 8212.33224567 0 -24929.78222217 0 30556.73769501 0 24
0.00550000 0.00557378 37606.15473730 0 13326.98232147 0 37419.03244786 0 -2943.89865046 0 -5891.82762715 0 45
0.00650000 0.00659388 36023.69807422 0 -7521.65169580 0 43623.40965999 0 6829.02241677 0 -10638.43362598 0 40
0.00750000 0.00754703 44099.07673420 0 -7784.46439770 0 30151.60132990 0 7911.89578404 0 -14286.73143675 0 57
0.00850000 0.00846663 49528.28048578 0 -17965.40063449 0 32197.76695638 0 -1935.43130597 0 -38443.77610983 0 75
0.00950000 0.00948925 64144.85647887 0 -10201.77435211 0 32135.54049090 0 -9639.99780778 0 -28870.53334838 0 112
0.01050000 0.01054430 73247.96832852 0 -357.41021622 0 22693.83694830 0 -3234.84612972 0 -23777.37465505 0 105
0.01150000 0.01145670 71123.96425856 0 -330.01064122 0 19238.93943514 0 3120.71260549 0 -21830.85995193 0 144
0.01250000 0.01249090 74525.82533584 0 1997.86814563 0 21283.22276640 0 -4420.38209270 0 -37329.12517034 0 169
0.01350000 0.01339930 67667.73806642 0 1671.25670813 0 18020.31936560 0 9134.41331191 0 -18567.73510463 0 180
0.01450000 0.01448870 68580.09763148 0 4062.35846969 0 4284.38072695 0 5230.14549599 0 -30236.52606126 0 267
0.01550000 0.01550050 64027.48983579 0 -1139.26471756 0 -527.35157923 0 -4718.17226870 0 -22029.94035217 0 238
0.01650000 0.01653350 66401.61772341 0 -299.06238612 0 -5583.20871748 0 -9977.07259224 0 -40901.94294282 0 315
0.01750000 0.01747870 59973.57954994 0 2686.00206078 0 -4986.25539721 0 -15762.78305832 0 -29203.03526268 0 297
0.01850000 0.01844180 59560.47111096 0 4933.99402406 0 -888.12888942 0 -14701.61144770 0 -42021.24425873 0 388
0.01950000 0.01947590 61153.55720587 0 -1136.06481569 0 -1697.25452680 0 -6036.89722692 0 -26278.50210833 0 399
0.02050000 0.02045430 60536.93943672 0 -3190.53468579 0 5005.46588077 0 -5471.63290028 0 -23409.99491757 0 462
0.02150000 0.02154770 63018.91176806 0 47.81450605 0 7830.53634127 0 -4486.89354788 0 -21736.63446773 0 571
0.02250000 0.02255340 67072.15771442 0 80.06663812 0 19628.02092926 0 -4771.74017617 0 -14347.29705351 0 510
0.02350000 0.02348930 64383.79724846 0 2770.82714122 0 18833.24945378 0 -2224.88402138 0 -9102.95683710 0 555
0.02450000 0.02439640 67876.89428224 0 -1941.75360345 0 29969.35086338 0 -9046.88658422 0 -10541.97153216 0 592
0.02550000 0.02547300 69811.34015131 0 172.84120488 0 34473.46187636 0 -3801.09589327 0 -20582.23388213 0 837
0.02650000 0.02652900 69061.41159134 0 3862.22619859 0 40953.98286946 0 -7803.12126502 0 -7181.29950320 0 723
0.02750000 0.02749970 67017.23898332 0 4908.89306370 0 43504.49289144 0 -1948.35270904 0 -9918.34498140 0 826
0.02850000 0.02848090 63247.00165933 0 995.37985655 0 35978.74443545 0 6193.48204451 0 -8854.36100027 0 831
0.02950000 0.02946900 66838.42093750 0 -3783.78984958 0 38168.96100783 0 14820.74966275 0 -10836.39572141 0 996
0.03050000 0.03053250 67965.58360404 0 -4732.43342306 0 24415.69418085 0 15756.91472617 0 -8529.04502478 0 1041
0.03150000 0.03150510 69653.89169239 0 -1851.44772223 0 17732.77109005 0 14245.09949543 0 -10007.02323087 0 1036
0.03250000 0.03246190 64480.68009062 0 5454.81403888 0 11686.94956933 0 11518.42878559 0 -8075.85476995 0 1059
0.03350000 0.03345080 60476.15237346 0 7623.56137343 0 4705.46123980 0 -733.37432713 0 -5996.60503691 0 1302
0.03450000 0.03451200 52770.70008567 0 5777.66088594 0 9551.19776274 0 129.10109292 0 -6361.39385038 0 1339
0.03550000 0.03553350 46914.10459609 0 3514.56627161 0 6672.84727521 0 -6228.11627654 0 -2590.34824667 0 1365
0.03650000 0.03647120 44216.00048429 0 1578.82494054 0 9590.29414167 0 -1614.68820063 0 -7638.99619423 0 1308
0.03750000 0.03744890 46017.46773228 0 -805.18721144 0 13192.45357492 0 -1639.57878682 0 -7691.98834081 0 1579
0.03850000 0.03847530 48546.27599761 0 -127.91856863 0 12887.30030292 0 -2523.80357451 0 -11164.33583789 0 1662
0.03950000 0.03950240 47915.81782244 0 1076.53889023 0 15840.84294829 0 -5351.05528301 0 -13968.95571445 0 1683
0.04050000 0.04050350 46904.25022700 0 1660.94837372 0 17063.22760827 0 -6392.40743220 0 -11082.40063423 0 1822
0.04150000 0.04152450 46517.93681408 0 3431.93351149 0 21346.11357137 0 -4147.90325124 0 -13373.81825545 0 1887
0.04250000 0.04250150 44274.13018958 0 1976.21067828 0 21472.67024405 0 1027.65236170 0 -8460.25267068 0 1920
0.04350000 0.04349210 42904.37288627 0 1713.07687897 0 22552.88625336 0 1985.16818906 0 -11532.71208461 0 2005
0.04450000 0.04448520 41522.76819540 0 157.06092755 0 17407.57691013 0 5945.27373905 0 -7261.13096514 0 2151
0.04550000 0.04548030 42440.44247637 0 -1202.68699413 0 19302.27313310 0 4986.84223042 0 -7701.77627595 0 2274
0.04650000 0.04648670 43401.52027063 0 -888.12667496 0 20873.54674811 0 1797.31512619 0 -4450.36594831 0 2311
0.04750000 0.04749250 43991.45373696 0 1135.73264595 0 20193.26311125 0 1127.11837724 0 746.73419426 0 2568
0.04850000 0.04851840 43259.57306645 0 1681.99686320 0 20674.13417813 0 -605.51444182 0 2253.95994636 0 2493
0.04950000 0.04949480 40293.62941728 0 2986.23922056 0 20451.35900278 0 -121.20541809 0 8361.02249565 0 2644
0.05050000 0.05050630 41075.88916572 0 1337.30431927 0 20578.35856845 0 143.93357925 0 869.51741864 0 2829
0.05150000 0.05149060 38049.93351603 0 567.58287146 0 20012.56277021 0 3082.82310996 0 1029.51583396 0 2784
0.05250000 0.05249300 37625.08841274 0 1052.97033963 0 17647.51418895 0 2572.65467161 0 -2705.74401593 0 3055
0.05350000 0.05348950 37920.16586916 0 466.80589266 0 18351.16043118 0 651.51995144 0 -4579.87893171 0 3009
0.05450000 0.05448610 37117.31159656 0 1121.91438457 0 17543.43433566 0 -204.32093158 0 -5284.38881527 0 3336
0.05550000 0.05550870 35751.98322317 0 1116.23428194 0 18559.54158426 0 -1255.66806838 0 -3007.12162517 0 3349
0.05650000 0.05647670 34929.08804265 0 1563.05795000 0 20089.51542770 0 -280.03570315 0 -1247.56312662 0 3324
0.05750000 0.05747970 35040.25418383 0 915.75987601 0 22844.19911933 0 718.47429962 0 -108.15922993 0 3639
0.05850000 0.05849280 34294.20093755 0 23.91500365 0 21122.67405653 0 3841.96384417 0 1588.14783804 0 3846
0.05950000 0.05951020 32881.48301393 0 -62.05340504 0 19382.65821128 0 3086.07837345 0 1718.83448787 0 3787
0.06050000 0.06049470 34384.77255456 0 -366.47955747 0 18764.04742366 0 2782.82954132 0 -1011.94959064 0 3930
0.06150000 0.06148310 33430.44887844 0 762.91086082 0 17009.52683290 0 570.77391547 0 -1374.49625834 0 4083
0.06250000 0.06249100 33222.17844860 0 850.90373338 0 15515.87021487 0 543.70872468 0 -921.95373451 0 4303
0.06350000 0.06350600 31833.59819310 0 -52.50551791 0 13624.71713584 0 978.11256599 0 -1330.42840556 0 4470
0.06450000 0.06451750 32356.65481753 0 -94.67668144 0 11837.09029387 0 2816.51155342 0 -2026.14686321 0 4479
0.06550000 0.06550280 31546.60353380 0 42.89894745 0 11307.39027455 0 1961.20767815 0 -4564.38874929 0 4636
0.06650000 0.06648880 30919.90994906 0 1129.53214405 0 9694.36292264 0 2439.49889334 0 -2645.84273866 0 4653
0.06750000 0.06749660 29942.88800707 0 1794.24809221 0 11496.39485920 0 -255.38981534 0 -1607.63512972 0 5220
0.06850000 0.06852730 28801.44204151 0 1556.35919348 0 10396.86871541 0 -284.62850349 0 104.99033057 0 5029
0.06950000 0.06949320 28232.21382258 0 978.31297507 0 11302.18628188 0 -578.85006919 0 -2179.16639221 0 5040
0.07050000 0.07048030 27795.63205499 0 31.40011668 0 12175.68198682 0 -1626.12591217 0 1191.68110326 0 5475
0.07150000 0.07148790 28179.39883320 0 -571.02082831 0 13623.05628712 0 1101.91555149 0 795.33505682 0 5509
0.07250000 0.07249820 28470.04735969 0 -408.61196787 0 11617.63681596 0 1655.47864526 0 -840.95746400 0 5916
0.07350000 0.07351270 28571.02696203 0 -167.25743148 0 12737.93464112 0 2127.74651575 0 -597.32756485 0 5721
0.07450000 0.07449140 28712.64199647 0 484.56147274 0 10665.87084688 0 1714.23947307 0 529.57379482 0 6028
0.07550000 0.07549160 28329.42883449 0 344.12674813 0 11658.82586429 0 1617.50057113 0 1164.45425653 0 6183
0.07650000 0.07648840 27284.20137161 0 846.03966109 0 9609.92537357 0 1677.09182331 0 1304.36415294 0 6330
0.07750000 0.07749960 26754.50135229 0 971.53671228 0 9999.59370092 0 346.77856993 0 2024.68531634 0 6583
0.07850000 0.07848650 25442.43086128 0 830.66352361 0 9330.40453353 0 -136.48411911 0 1434.80721162 0 6549
0.07950000 0.07947320 25515.17603534 0 236.73737695 0 10646.08460243 0 -940.18542456 0 1234.46456636 0 6828
0.08050000 0.08048110 25272.24922882 0 347.74850558 0 10129.49421569 0 -402.53104708 0 482.42340681 0 7147
0.08150000 0.08149960 25138.05265201 0 435.33502382 0 10830.28379811 0 -838.23477933 0 -421.87439854 0 7386
0.08250000 0.08250610 25298.49063864 0 118.07416463 0 10824.48189991 0 -303.85448830 0 -1448.34866488 0 7227
0.08350000 0.08350160 24985.03312302 0 315.96539719 0 11593.60987111 0 -160.50663504 0 -791.52285538 0 7798
0.08450000 0.08449610 24355.57145708 0 423.16543162 0 10883.60811444 0 1256.55385437 0 -947.10341310 0 7371
0.08550000 0.08548940 23891.86249368 0 668.04207454 0 9651.70125511 0 2080.58948435 0 -1178.62683230 0 8256
0.08650000 0.08650700 23637.30974609 0 252.70256210 0 8878.08899236 0 1907.88336183 0 -991.08711621 0 8037
0.08750000 0.08749060 22837.99861744 0 678.13339138 0 8290.51393121 0 1745.17554862 0 -1452.04682137 0 8155
0.08850000 0.08849210 22020.30742958 0 1052.39125704 0 6938.49449225 0 729.11148208 0 -727.49713712 0 8718
0.08950000 0.08949900 20762.60205343 0 638.86206971 0 6885.63521357 0 1081.47050371 0 603.75726387 0 8571
0.09050000 0.09049190 20312.84421930 0 714.39968409 0 6894.65915830 0 640.46202065 0 883.37443315 0 8932
0.09150000 0.09150830 19555.60792495 0 564.70406701 0 7186.92424421 0 736.68716672 0 1717.91548491 0 9285
0.09250000 0.09250820 19445.77046275 0 66.94205790 0 6897.61546902 0 469.47764464 0 2016.08211995 0 9204
0.09350000 0.09350330 19435.91609366 0 -103.02864678 0 7396.40155745 0 73.45468863 0 1666.78348890 0 9349
0.09450000 0.09448040 19592.47876659 0 135.39460235 0 7189.99127819 0 198.61868429 0 2046.65280878 0 9564
0.09550000 0.09549270 19209.04415812 0 775.23768004 0 7182.49531428 0 -946.73913362 0 2078.85112935 0 10155
0.09650000 0.09649430 18980.17920412 0 854.27857799 0 7837.44547196 0 -390.57957968 0 2045.76702279 0 9913
0.09750000 0.09749140 18430.77044662 0 288.00445532 0 7338.18327356 0 393.65990044 0 306.69786131 0 10476
0.09850000 0.09850240 18153.74087966 0 101.37366639 0 7143.79753904 0 22.80079561 0 -187.00824449 0 10575
0.09950000 0.09950330 17937.94126894 0 366.09424057 0 7342.80043301 0 113.25438164 0 152.94091549 0 10882
0.10050000 0.10051200 17409.45920535 0 270.98850654 0 6752.86696667 0 750.28065990 0 -310.59642688 0 10875
0.10150000 0.10150300 17229.20175730 0 362.03734076 0 6613.56604813 0 280.04566824 0 -397.66254586 0 11118
0.10250000 0.10250800 16835.91277974 0 495.99696981 0 6021.88315447 0 549.32460783 0 -76.66333764 0 11575
0.10350000 0.10349800 16943.64650023 0 119.97971173 0 6116.37437447 0 502.55178610 0 352.30919617 0 11364
0.10450000 0.10450100 16306.10203717 0 227.09670373 0 6160.49758887 0 392.84276287 0 1277.03765528 0 12093
0.10550000 0.10551000 16522.89815712 0 140.26753250 0 6492.95521388 0 1131.35907764 0 717.58740640 0 12067
0.10650000 0.10649700 15949.68390126 0 -51.87262382 0 6055.43229867 0 359.10096022 0 1211.98774697 0 12054
0.10750000 0.10749900 16069.15428605 0 387.61884002 0 6145.63852897 0 558.41055758 0 1202.91951295 0 12807
0.10850000 0.10850100 15779.61299205 0 475.15110387 0 6324.51193641 0 -309.89997765 0 1387.06334701 0 12736
0.10950000 0.10950300 15476.12056877 0 294.30350091 0 6152.94626335 0 -352.96689227 0 1568.93735448 0 12933
0.11050000 0.11050200 15402.48960872 0 -4.44314679 0 6529.59353670 0 -490.17735588 0 1409.20799664 0 13428
0.11150000 0.11150900 15122.80268380 0 370.70586386 0 6244.17114753 0 302.74171966 0 686.89049308 0 13453
0.11250000 0.11250000 15099.10790869 0 321.44176904 0 5899.72219474 0 47.15836008 0 -45.92147068 0 13668
0.11350000 0.11349100 14714.67679099 0 63.14115023 0 5451.07159309 0 202.53496558 0 -389.24315007 0 13791
0.11450000 0.11448600 14729.07081325 0 43.70490197 0 5498.89296398 0 11.35300825 0 -611.74262453 0 14205
0.11550000 0.11549300 14453.81281826 0 118.34211489 0 5637.62919396 0 520.45352087 0 -421.64298695 0 14776
0.11650000 0.11649800 14524.23280411 0 188.37456937 0 5414.65471676 0 462.64159129 0 -18.44195349 0 14553
0.11750000 0.11747300 14478.83627235 0 15.81670528 0 5213.31556226 0 693.40655623 0 66.63314004 0 14568
0.11850000 0.11849100 14574.83332853 0 -0.67200154 0 6004.17850708 0 583.84700938 0 1181.67172162 0 16015
0.11950000 0.11950300 14526.77943882 0 200.68699457 0 5708.90174882 0 226.88079339 0 1910.57393676 0 15270
0.12050000 0.12050700 14348.18283949 0 292.80541536 0 6381.06937158 0 450.43324595 0 2309.27728115 0 15999
0.12150000 0.12150000 14408.30556326 0 136.40329114 0 6102.40110055 0 319.66023198 0 2676.57951236 0 15670
0.12250000 0.12250700 14093.29792217 0 131.36981228 0 6054.40257246 0 499.65858763 0 2874.96235614 0 16887
0.12350000 0.12352200 13792.57358009 0 456.68025161 0 5613.20364541 0 173.60076637 0 2238.70228276 0 16407
0.12450000 0.12449800 13617.74157120 0 366.59028072 0 5290.87719762 0 408.73154898 0 2253.55027034 0 16306
0.12550000 0.12549900 13204.19023923 0 291.75797344 0 5051.03956972 0 -213.57850236 0 1730.19469314 0 17523
0.12650000 0.12650100 12907.34121084 0 143.62355415 0 4588.02816278 0 443.73006050 0 1437.08811054 0 17154
0.12750000 0.12750600 13037.44102746 0 -155.14652259 0 4291.90990783 0 596.68426278 0 1342.65225216 0 18007
0.12850000 0.12850300 12953.84497508 0 -260.66134918 0 4041.14389534 0 285.40467346 0 998.97836211 0 17496
0.12950000 0.12949900 13221.46306595 0 25.21024421 0 3800.05509473 0 318.97374784 0 803.27059201 0 18405
0.13050000 0.13049000 12819.53767503 0 533.58640534 0 3523.24697427 0 78.91245898 0 1060.79293711 0 18100
0.13150000 0.13148800 12507.51956164 0 448.56202305 0 3824.50278793 0 -4.67344008 0 945.64629516 0 19059
0.13250000 0.13249300 12260.27454844 0 93.40347481 0 3918.00857103 0 -327.45514865 0 1173.66643078 0 18957
0.13350000 0.13349100 12108.80514492 0 253.98363009 0 4002.12502267 0 129.52184126 0 803.92939534 0 19468
0.13450000 0.13450700 12096.07197138 0 217.70958675 0 3946.49766279 0 192.63962889 0 918.04741832 0 19953
0.13550000 0.13551000 11877.61500271 0 58.78551910 0 3796.82197589 0 444.48408582 0 1329.48725795 0 19956
0.13650000 0.13649900 11779.62492806 0 166.17234365 0 3592.43793206 0 447.23555854 0 1046.48749344 0 19723
0.13750000 0.13749600 11723.93113422 0 159.87994145 0 3536.45625778 0 358.23399718 0 1034.78293888 0 20946
0.13850000 0.13851100 11572.46173070 0 129.14870392 0 3714.41066226 0 442.67929688 0 1189.99810988 0 20955
0.13950000 0.13949800 11462.62426850 0 129.45983624 0 3452.17372126 0 -94.85527804 0 1320.58510880 0 20506
0.14050000 0.14048300 11438.37587715 0 -40.19032463 0 3597.49798450 0 148.91280372 0 1228.20870283 0 21447
0.14150000 0.14148400 11513.22479292 0 163.70542968 0 3713.89026300 0 -705.26944504 0 695.08069175 0 21771
0.14250000 0.14249400 11229.10893808 0 398.46971834 0 3722.64847193 0 -171.87791262 0 840.80577315 0 22470
0.14350000 0.14350900 10917.64444093 0 254.09656780 0 3977.46695530 0 -211.89440175 0 1007.92812226 0 22519
0.14450000 0.14449900 10857.34455997 0 91.74893731 0 3815.42348158 0 365.50851459 0 882.94704141 0 22218
0.14550000 0.14550500 10922.35017898 0 -19.74682697 0 4001.67105736 0 374.50145681 0 327.00671950 0 23559
0.14650000 0.14650700 10729.22668949 0 145.70736568 0 3704.21305110 0 239.53092450 0 599.35158583 0 23044
0.14750000 0.14750500 10555.83408283 0 254.55164035 0 3693.96007832 0 -32.66623702 0 352.61257787 0 23649
0.14850000 0.14849900 10486.60990806 0 184.54354498 0 3461.87307780 0 111.33444052 0 1009.35645217 0 23640
0.14950000 0.14949500 10346.11317844 0 107.90013753 0 3575.91802343 0 58.64600780 0 509.40444793 0 24457
0.15050000 0.15050000 10349.35736961 0 74.56657149 0 3309.28536947 0 438.91581367 0 879.03961798 0 24591
0.15150000 0.15149900 10070.71124323 0 153.01731453 0 3141.70573334 0 228.70661976 0 295.99535214 0 25020
0.15250000 0.15250500 10131.79725925 0 205.08492199 0 2983.53757331 0 326.68340761 0 591.01412524 0 25297
0.15350000 0.15350100 9899.06806389 0 93.47511275 0 2771.92330137 0 346.06440497 0 581.36680863 0 25452
0.15450000 0.15450400 9844.66973205 0 8.24144139 0 2307.53892615 0 357.12787193 0 574.88506968 0 26061
0.15550000 0.15549900 9800.41364975 0 -48.13039948 0 2586.53936694 0 45.30684593 0 414.06951678 0 26128
0.15650000 0.15649500 9690.75334475 0 136.15084213 0 2555.69186999 0 67.98307788 0 274.68001964 0 26331
0.15750000 0.15749700 9731.23376429 0 165.62647803 0 2545.01814887 0 48.80448261 0 1010.42271705 0 27345
0.15850000 0.15849900 9475.82844770 0 164.38748488 0 2414.84082597 0 -117.74420935 0 1057.80783834 0 26980
0.15950000 0.15949700 9509.92013581 0 28.01220673 0 2611.80641217 0 321.58570927 0 791.88492040 0 27777
0.16050000 0.16050000 9415.60607301 0 127.75469822 0 2618.73768751 0 169.23716316 0 765.37334586 0 28224
0.16150000 0.16150500 9319.08861756 0 256.90893830 0 2585.79752117 0 -213.20204331 0 611.76809088 0 28075
0.16250000 0.16249700 9241.23910176 0 222.01339940 0 2802.61578577 0 -312.08233287 0 580.13556611 0 28590
0.16350000 0.16349900 8982.52316005 0 172.80245175 0 2986.16171429 0 -242.84265685 0 635.50936976 0 29163
0.16450000 0.16449100 8909.83334762 0 99.29472668 0 2871.99497308 0 -128.01711232 0 600.67805034 0 28996
0.16550000 0.16550500 8891.22076960 0 140.92633583 0 3261.33113068 0 262.99318079 0 250.01973780 0 30777
0.16650000 0.16650700 8672.37626956 0 206.84542163 0 2959.36668823 0 107.00062186 0 360.34216783 0 29211
0.16750000 0.16749900 8522.72272731 0 287.35450986 0 2885.20425659 0 130.58146275 0 -49.47546550 0 30922
0.16850000 0.16850800 8386.71028923 0 125.13609340 0 2939.60258843 0 -187.11786051 0 412.36991492 0 30867
0.16950000 0.16949900 8323.23265105 0 66.63535450 0 2961.85796131 0 -131.74184239 0 347.83819141 0 30852
0.17050000 0.17049200 8263.01027636 0 54.55755186 0 3142.50294073 0 131.48939338 0 642.08965240 0 31257
0.17150000 0.17149500 8202.63288912 0 112.78602230 0 2961.74723806 0 162.68345410 0 666.12988404 0 32608
0.17250000 0.17250900 8293.71383308 0 -46.55746501 0 2699.88675610 0 429.39029263 0 686.85727610 0 32361
0.17350000 0.17350400 8184.14210668 0 -13.43449460 0 2933.95570277 0 366.77297408 0 842.78550483 0 32508
0.17450000 0.17449800 8296.64799916 0 75.80523247 0 2601.79703054 0 50.70083968 0 583.69642577 0 32791
0.17550000 0.17549800 8078.04709026 0 174.13555966 0 2426.95394932 0 -10.59581625 0 710.27524309 0 33633
0.17650000 0.17650100 7955.95256449 0 204.32314604 0 2452.73032150 0 -0.98188269 0 634.57708001 0 33984
0.17750000 0.17750300 7876.29825974 0 5.30955621 0 2401.79762734 0 90.72607595 0 447.67180814 0 34069
