### header ###
fiducial parameters:
Omega_m = 0.31
Omega_nu = 0
Omega_de = 0.69
Omega_k = 0
H_0 = 100
w_de = -1
zeff = 0
beta = 0
fgrowth = 0
b_1 = 2
gamma = 0.55
Lx = 3500 Ly = 3500 Lz = 3500
nx = 700 ny = 700 nz = 700
xoffset = -685.467585 yoffset = -31.7331281 zoffset = 572.489161
bins = 400 dk = 0.001
kx_ny = 0.628318531 ky_ny = 0.628318531 kz_ny = 0.628318531
############################
A(data) = 8.01552281 (not used)
A(ran) = 8.01076299 (used)
Ngal = 476765
weighted Ngal = 0
Nran = 23820508
weighted Nran = 0
SN(data) = 3492.93518
SN(ran) = 69.7766509
SN(data+ran) = 3562.71183
############################
13 columns: k_central k_mean P_0(k) sigma^{lin}_{P_0(k)} P^img_1(k) sigma^{lin}_{P_1(k)} P_2(k) sigma^{lin}_{P_2(k)} P^img_3(k) sigma^{lin}_{P_3(k)} P_4(k) sigma^{lin}_{P_4(k)} N_modes
### header ###
0.00050000 0 0 0 0 0 0 0 0 0 0 0 0
0.00150000 0.00179520 89441.90771528 0 -93663.78516863 0 -44193.74511140 0 120552.15092798 0 -195387.77991224 0 3
0.00250000 0.00253879 129031.33727409 0 -53150.59155020 0 11181.05504837 0 -11260.55434056 0 183397.55936613 0 6
0.00350000 0.00331552 138580.11019770 0 8614.83339747 0 37162.48668182 0 -154946.11351214 0 -46565.21564106 0 7
0.00450000 0.00420575 110035.87826172 0 51921.12060233 0 5206.69431202 0 -14545.49166776 0 63814.23685979 0 24
0.00550000 0.00557378 53715.28011595 0 26014.64860791 0 9743.34688764 0 32318.12312716 0 9371.44964163 0 45
0.00650000 0.00659388 44437.88987365 0 825.85481295 0 -5978.64572605 0 36336.38052710 0 13290.66509606 0 40
0.00750000 0.00754703 52316.95621460 0 -13010.42455490 0 18945.96572043 0 22257.80879694 0 -31934.68851869 0 57
0.00850000 0.00846663 48245.44093229 0 -281.63233239 0 5825.02829152 0 6803.05781507 0 31180.99536829 0 75
0.00950000 0.00948925 60790.49567506 0 -2752.75710711 0 9592.69683616 0 -4378.52870488 0 12321.83667443 0 112
0.01050000 0.01054430 68266.64011586 0 -8401.94580818 0 31877.88749237 0 3094.03937500 0 24573.36408626 0 105
0.01150000 0.01145670 75647.89473296 0 -5533.37218347 0 32367.39497260 0 -2718.53255110 0 21509.98397869 0 144
0.01250000 0.01249090 78662.00299509 0 4632.91536759 0 46797.84518550 0 15654.71716809 0 52638.93942033 0 169
0.01350000 0.01339930 76593.02837948 0 -1298.20794034 0 44146.79845417 0 10844.35672296 0 34096.22776979 0 180
0.01450000 0.01448870 80903.59515463 0 1887.68744136 0 36572.33176898 0 29528.45088910 0 39554.77318213 0 267
0.01550000 0.01550050 82862.51086154 0 227.49530742 0 31184.20634248 0 29596.76713323 0 48502.31886808 0 238
0.01650000 0.01653350 72827.99504815 0 5983.91615266 0 24075.88453216 0 19187.01023174 0 41633.60216683 0 315
0.01750000 0.01747870 70961.75469997 0 5987.61430915 0 17220.67606719 0 15924.43900067 0 43652.97276726 0 297
0.01850000 0.01844180 62546.67711455 0 3725.61585498 0 6030.25383203 0 17591.15605562 0 35127.50410340 0 388
0.01950000 0.01947590 63620.36045221 0 -1169.08248830 0 763.56855691 0 4055.89223199 0 37488.67737097 0 399
0.02050000 0.02045430 59619.92949523 0 -1954.63071721 0 9112.18008368 0 3371.40111170 0 13554.18642675 0 462
0.02150000 0.02154770 62464.29901790 0 1603.70445441 0 -2718.99758874 0 -3171.40170851 0 13917.46940405 0 571
0.02250000 0.02255340 60210.97019405 0 674.33447673 0 7768.30987579 0 -10077.08890232 0 6506.49666713 0 510
0.02350000 0.02348930 66232.98621642 0 -1367.53176603 0 7051.80866445 0 -2749.78972406 0 9625.31590507 0 555
0.02450000 0.02439640 65407.43367794 0 -3584.34406262 0 16541.61038606 0 -5244.50630128 0 9964.42799729 0 592
0.02550000 0.02547300 67037.27989125 0 1797.86874243 0 15925.54623316 0 -8689.83732579 0 -378.39448621 0 837
0.02650000 0.02652900 64530.72699880 0 4390.46467104 0 21161.87008639 0 -1786.67462204 0 5975.64512602 0 723
0.02750000 0.02749970 64741.10117036 0 3002.06157273 0 25888.31338173 0 -8514.81708739 0 -3508.84187968 0 826
0.02850000 0.02848090 59994.28479735 0 2135.06532245 0 29676.04497894 0 2525.53085718 0 7628.33354543 0 831
0.02950000 0.02946900 63517.83072439 0 981.10430816 0 29326.15951467 0 3890.52706083 0 2776.10864016 0 996
0.03050000 0.03053250 61687.46470862 0 1694.76325372 0 31519.47633799 0 2437.10727118 0 655.85587384 0 1041
0.03150000 0.03150510 58614.67312495 0 3521.14323255 0 32303.06476541 0 4754.35662620 0 10912.06398922 0 1036
0.03250000 0.03246190 56988.70222533 0 3283.65293752 0 28798.23106731 0 5186.69769340 0 8988.31398593 0 1059
0.03350000 0.03345080 56310.52233019 0 -765.85942092 0 29022.11347515 0 7468.17236693 0 4986.15574628 0 1302
0.03450000 0.03451200 54992.91567677 0 124.85264189 0 27057.55088257 0 3669.03627515 0 -1917.06231910 0 1339
0.03550000 0.03553350 56626.96937351 0 2255.42149323 0 26780.96420860 0 -3815.94388085 0 -2382.38784193 0 1365
0.03650000 0.03647120 52215.09082627 0 2289.78998947 0 23616.05088244 0 -3023.63046148 0 -875.21966592 0 1308
0.03750000 0.03744890 51630.36135260 0 1404.95622391 0 21741.06339765 0 -735.32416353 0 -5238.93692189 0 1579
0.03850000 0.03847530 50795.28661477 0 2354.35271549 0 19783.25492322 0 3378.94136491 0 -7984.88454924 0 1662
0.03950000 0.03950240 48977.10015630 0 922.46306145 0 18823.72725444 0 2994.64311510 0 -11854.58456708 0 1683
0.04050000 0.04050350 47108.20245016 0 1580.00967930 0 18249.51648934 0 1055.35642562 0 -10592.25095916 0 1822
0.04150000 0.04152450 45211.62393198 0 3015.66945993 0 19826.65843651 0 17.32431303 0 -8976.47767070 0 1887
0.04250000 0.04250150 42972.46768390 0 2477.91986046 0 22771.34322203 0 -789.84539817 0 -4317.17695306 0 1920
0.04350000 0.04349210 41069.91011032 0 1876.58189956 0 19103.96779560 0 1064.47780681 0 -2220.66546563 0 2005
0.04450000 0.04448520 39496.97564658 0 643.04740849 0 20253.27511177 0 5725.86455044 0 3573.85857101 0 2151
0.04550000 0.04548030 40775.82916313 0 -1368.94902360 0 17451.42331641 0 6868.05236176 0 2283.22410085 0 2274
0.04650000 0.04648670 41196.90967599 0 -1193.82913427 0 16824.95117817 0 6006.16045323 0 2621.97080635 0 2311
0.04750000 0.04749250 42052.91110772 0 -490.29140083 0 11871.30377756 0 4486.05205120 0 3867.90630122 0 2568
0.04850000 0.04851840 41390.01102082 0 1101.11834410 0 10134.59855743 0 981.03565974 0 -1019.88512584 0 2493
0.04950000 0.04949480 39689.19120543 0 1921.40267043 0 8997.31578601 0 519.51237326 0 5513.28698625 0 2644
0.05050000 0.05050630 38434.03246399 0 1941.69824182 0 9530.78039577 0 -1536.04147744 0 2407.98705691 0 2829
0.05150000 0.05149060 35863.92442708 0 2047.97041543 0 9892.87863431 0 911.00099080 0 5688.46223720 0 2784
0.05250000 0.05249300 35939.21623585 0 58.42013238 0 11034.76749286 0 1948.87310830 0 278.40364247 0 3055
0.05350000 0.05348950 35693.85351787 0 -337.69151295 0 12473.52752445 0 -408.94081592 0 2333.39280461 0 3009
0.05450000 0.05448610 35260.70417096 0 1046.04792215 0 13580.53855981 0 -1780.78414523 0 439.25905574 0 3336
0.05550000 0.05550870 35901.45960822 0 1077.57858154 0 15466.04475318 0 -2063.29451298 0 4418.89840117 0 3349
0.05650000 0.05647670 34623.27043116 0 565.33076059 0 13774.19352089 0 -1302.93582303 0 3689.73045024 0 3324
0.05750000 0.05747970 34874.39075804 0 205.96074288 0 14882.97612823 0 2441.37011624 0 3252.61721105 0 3639
0.05850000 0.05849280 34636.22505119 0 819.87575754 0 14587.89867181 0 2190.48230817 0 1936.83749123 0 3846
0.05950000 0.05951020 33453.92220706 0 678.06474296 0 13561.49416113 0 2460.04912821 0 1903.58729980 0 3787
0.06050000 0.06049470 33111.89809341 0 534.25849545 0 12522.13503040 0 961.14090651 0 2812.48122718 0 3930
0.06150000 0.06148310 32843.17277006 0 111.77290458 0 13306.71996705 0 -451.03890211 0 486.60542390 0 4083
0.06250000 0.06249100 33069.49108935 0 478.80386383 0 13818.26137367 0 -2174.25027999 0 1206.29657202 0 4303
0.06350000 0.06350600 32310.15105329 0 1438.83753786 0 15146.05456592 0 -1560.54453226 0 2596.27194045 0 4470
0.06450000 0.06451750 31564.98359300 0 793.99419828 0 15268.62520167 0 -765.64572505 0 2080.52305040 0 4479
0.06550000 0.06550280 31803.59219284 0 -635.69538481 0 15136.75381308 0 2665.75077869 0 -123.70333457 0 4636
0.06650000 0.06648880 31298.36201136 0 135.36913600 0 14482.15796980 0 3327.96438144 0 -2050.84921988 0 4653
0.06750000 0.06749660 31140.47065945 0 343.43915676 0 12724.98002108 0 1731.92197581 0 -3509.53943614 0 5220
0.06850000 0.06852730 30143.62925603 0 504.82271992 0 11979.25894454 0 1154.81026161 0 -2580.95891523 0 5029
0.06950000 0.06949320 30307.83183309 0 352.79637846 0 11546.77393713 0 555.29369814 0 -2061.11326499 0 5040
0.07050000 0.07048030 29086.33295909 0 232.43134983 0 9561.52824179 0 -249.38307912 0 -2016.46965132 0 5475
0.07150000 0.07148790 29241.34550656 0 653.86728431 0 10038.32469313 0 1255.54627281 0 -1455.75605018 0 5509
0.07250000 0.07249820 29154.98137297 0 -536.32126957 0 9972.74331323 0 508.97927066 0 -2186.07552289 0 5916
0.07350000 0.07351270 29033.51796971 0 322.05296137 0 10271.13139477 0 827.04730233 0 -1259.67624997 0 5721
0.07450000 0.07449140 29395.25082153 0 40.53389887 0 8971.42869058 0 464.70768710 0 -551.27776593 0 6028
0.07550000 0.07549160 28636.02150872 0 707.64667318 0 9759.05851656 0 20.39311857 0 -891.71521543 0 6183
0.07650000 0.07648840 28946.15732689 0 859.64311936 0 11636.12759841 0 245.53212455 0 1259.48802045 0 6330
0.07750000 0.07749960 27288.85174804 0 1495.88215532 0 11231.32340304 0 -39.56141658 0 654.49840682 0 6583
0.07850000 0.07848650 26353.68319385 0 1689.26030828 0 10131.71975298 0 951.56002384 0 753.52374384 0 6549
0.07950000 0.07947320 24810.75473037 0 1111.77213504 0 10430.70574006 0 -304.56643879 0 1626.91204723 0 6828
0.08050000 0.08048110 24313.93951576 0 839.37855048 0 10121.11246580 0 1333.30721001 0 1318.89104310 0 7147
0.08150000 0.08149960 23049.36929822 0 46.00750264 0 9033.81016861 0 1160.41285797 0 149.68454476 0 7386
0.08250000 0.08250610 23361.94102785 0 156.73540120 0 7665.32618265 0 1062.42056886 0 44.50764552 0 7227
0.08350000 0.08350160 22783.85494907 0 178.03966139 0 7458.57266131 0 689.63532240 0 -186.31179526 0 7798
0.08450000 0.08449610 22476.70865860 0 184.12501111 0 7223.06431242 0 388.73603759 0 -378.70451131 0 7371
0.08550000 0.08548940 22352.80934388 0 349.41156877 0 7373.33790486 0 747.32213470 0 651.13684901 0 8256
0.08650000 0.08650700 22032.59771013 0 800.91993745 0 7195.08454760 0 -378.05013691 0 -351.28611336 0 8037
0.08750000 0.08749060 21458.16549854 0 286.81971657 0 7448.64078595 0 26.63348084 0 1256.62028832 0 8155
0.08850000 0.08849210 21262.51751899 0 508.99477191 0 8625.82821602 0 260.39561339 0 1696.59018731 0 8718
0.08950000 0.08949900 21062.44060952 0 532.43709802 0 7957.07086930 0 421.76478253 0 1409.27443059 0 8571
0.09050000 0.09049190 20602.49623655 0 100.35468033 0 8412.87419278 0 531.10620458 0 2821.09549589 0 8932
0.09150000 0.09150830 20638.37056896 0 665.68145489 0 8353.44902548 0 1168.58423368 0 2267.44603799 0 9285
0.09250000 0.09250820 19537.33858900 0 789.18327315 0 7553.41819571 0 570.65322713 0 1773.22174738 0 9204
0.09350000 0.09350330 19279.90703696 0 680.09430010 0 7684.86883595 0 38.11526023 0 2010.22486012 0 9349
0.09450000 0.09448040 18882.85346897 0 -183.26912040 0 7009.72275781 0 356.43917333 0 2428.38227923 0 9564
0.09550000 0.09549270 19112.49348571 0 -298.78225630 0 7174.04713045 0 357.45893445 0 656.44159983 0 10155
0.09650000 0.09649430 18956.48442901 0 -13.59305029 0 6272.71560091 0 61.81845031 0 171.32761808 0 9913
0.09750000 0.09749140 19056.46752212 0 562.64682905 0 6484.39630679 0 -377.53527381 0 -1137.70351977 0 10476
0.09850000 0.09850240 18282.06912431 0 457.59371841 0 5696.39002177 0 143.97897578 0 -705.36798873 0 10575
0.09950000 0.09950330 17868.51779233 0 548.16865712 0 5645.42411063 0 274.55822406 0 -1362.19490546 0 10882
0.10050000 0.10051200 17413.00234929 0 538.67303136 0 5546.29358653 0 1091.46327686 0 -1085.02693444 0 10875
0.10150000 0.10150300 17028.01761535 0 466.89225679 0 5358.67304248 0 782.46015752 0 -585.06496511 0 11118
0.10250000 0.10250800 16563.20141946 0 751.39564301 0 5286.62542489 0 264.70496221 0 647.26264255 0 11575
0.10350000 0.10349800 16138.35631617 0 514.84538835 0 5546.98007067 0 572.63960220 0 1262.01251050 0 11364
0.10450000 0.10450100 15780.38805478 0 179.57760730 0 5652.96436384 0 -108.85767218 0 1502.62520114 0 12093
0.10550000 0.10551000 15560.71313038 0 68.84317607 0 5863.55998189 0 -81.38036946 0 1689.28245293 0 12067
0.10650000 0.10649700 15842.94669001 0 -93.07484821 0 6327.76719991 0 -502.81087850 0 1595.66594659 0 12054
0.10750000 0.10749900 15785.81349394 0 -175.35240815 0 6328.26545452 0 43.57391637 0 1393.25277658 0 12807
0.10850000 0.10850100 16102.26053726 0 -51.62670749 0 6525.84001859 0 36.04185669 0 1408.59901878 0 12736
0.10950000 0.10950300 16308.09505564 0 -79.95934729 0 5938.91822460 0 128.60173107 0 1630.99773509 0 12933
0.11050000 0.11050200 16181.98127596 0 177.67981083 0 6377.41550439 0 298.30393187 0 1354.20068694 0 13428
0.11150000 0.11150900 16286.17185250 0 357.53644072 0 6053.89324552 0 269.33097952 0 1082.70838962 0 13453
0.11250000 0.11250000 15515.20587538 0 508.20199346 0 6305.58933330 0 181.97919456 0 1184.35122423 0 13668
0.11350000 0.11349100 15401.05020650 0 382.06606912 0 5930.38146217 0 470.68342081 0 1231.99543792 0 13791
0.11450000 0.11448600 15160.11641844 0 124.91464691 0 5973.96213265 0 313.38222381 0 1277.98987522 0 14205
0.11550000 0.11549300 15149.70843311 0 132.85239657 0 5532.36460191 0 -20.00204406 0 983.79488309 0 14776
0.11650000 0.11649800 14922.94722083 0 377.24960783 0 5564.37469296 0 433.16595539 0 1151.68786601 0 14553
0.11750000 0.11747300 14497.21633155 0 270.81799274 0 5037.09951277 0 207.91611544 0 752.76307512 0 14568
0.11850000 0.11849100 14439.97241224 0 87.11649806 0 4866.95109728 0 561.58831480 0 348.85020190 0 16015
0.11950000 0.11950300 14140.57674914 0 48.20801647 0 5007.07136786 0 498.60007337 0 627.70227353 0 15270
0.12050000 0.12050700 13895.54620090 0 535.47534395 0 4725.86753444 0 303.77808926 0 -67.58868167 0 15999
0.12150000 0.12150000 13452.54248491 0 602.57031065 0 4410.36163874 0 -264.95187505 0 425.97780212 0 15670
0.12250000 0.12250700 13308.49153902 0 205.59314170 0 4545.86474987 0 21.86385548 0 447.29756356 0 16887
0.12350000 0.12352200 13131.66651167 0 -169.09211570 0 4386.20182598 0 -201.38565827 0 732.67898513 0 16407
0.12450000 0.12449800 13288.33990785 0 -109.06140295 0 4930.82733916 0 659.75222495 0 507.99715545 0 16306
0.12550000 0.12549900 13628.03883329 0 -302.52802379 0 4630.44623916 0 392.00126618 0 619.90624962 0 17523
0.12650000 0.12650100 13542.44976244 0 -65.78953961 0 4493.94661879 0 310.66839699 0 323.09265267 0 17154
0.12750000 0.12750600 13618.29518745 0 115.46663214 0 4205.37968937 0 62.30563260 0 612.89968248 0 18007
0.12850000 0.12850300 13461.51106801 0 316.99180170 0 4097.34701611 0 116.91378499 0 479.49145520 0 17496
0.12950000 0.12949900 13142.84955973 0 577.98642786 0 4318.56099367 0 -148.05137685 0 464.82283928 0 18405
0.13050000 0.13049000 12691.87376987 0 318.18982724 0 3941.96908193 0 -92.61534673 0 477.84389327 0 18100
0.13150000 0.13148800 12357.37883710 0 189.83833071 0 3671.50540359 0 614.95802766 0 93.83894935 0 19059
0.13250000 0.13249300 12338.22371516 0 16.08177674 0 3607.99454843 0 540.50328665 0 134.16446706 0 18957
0.13350000 0.13349100 12057.65100426 0 72.91291978 0 3117.74522243 0 706.80628373 0 -269.18703929 0 19468
0.13450000 0.13450700 12068.94477557 0 154.47111078 0 2814.65140285 0 450.02467716 0 230.02201194 0 19953
0.13550000 0.13551000 12060.08691572 0 8.19758391 0 2733.51340658 0 344.03041891 0 356.94960750 0 19956
0.13650000 0.13649900 12074.81310773 0 -124.17944454 0 2622.65729049 0 278.68598676 0 515.70792245 0 19723
0.13750000 0.13749600 12100.72234780 0 90.40575359 0 2655.39815498 0 -67.91000053 0 135.37910109 0 20946
0.13850000 0.13851100 12061.19414820 0 355.40058926 0 3116.31689253 0 -599.10467298 0 -240.01257063 0 20955
0.13950000 0.13949800 11499.38438690 0 551.25562128 0 2932.84847029 0 -423.24847405 0 122.45659080 0 20506
0.14050000 0.14048300 11220.47252472 0 296.36073886 0 2802.48291787 0 -35.97553346 0 125.20917075 0 21447
0.14150000 0.14148400 11216.92938078 0 -59.70972605 0 2857.12484085 0 373.88029938 0 -92.13602579 0 21771
0.14250000 0.14249400 11143.51986723 0 43.43872328 0 2774.27063424 0 437.54616709 0 -761.65968811 0 22470
0.14350000 0.14350900 11100.78069343 0 148.25510762 0 2540.25704919 0 -137.10859823 0 -649.18147644 0 22519
0.14450000 0.14449900 10729.12703857 0 266.21744178 0 2421.43993156 0 -76.62137353 0 -313.48298196 0 22218
0.14550000 0.14550500 10751.88066607 0 119.58553697 0 2685.47058919 0 -104.76988058 0 -487.13910995 0 23559
0.14650000 0.14650700 10702.68632690 0 139.70948733 0 2974.23682046 0 230.55237630 0 -669.55012518 0 23044
0.14750000 0.14750500 10398.04238184 0 231.76811757 0 2681.42919063 0 -106.00809866 0 -597.68077201 0 23649
0.14850000 0.14849900 10452.32999043 0 250.29654592 0 3068.16335190 0 31.26658444 0 -125.00986890 0 23640
0.14950000 0.14949500 10168.29164185 0 252.63502092 0 3084.09642731 0 -101.94422328 0 238.70492907 0 24457
0.15050000 0.15050000 9992.39668978 0 209.72754778 0 3009.73469383 0 210.26787724 0 152.99295541 0 24591
0.15150000 0.15149900 9952.07128279 0 51.53358923 0 3100.97065033 0 45.82314843 0 502.35469872 0 25020
0.15250000 0.15250500 9811.79599967 0 116.54729104 0 3116.94801505 0 64.77431814 0 265.27850863 0 25297
0.15350000 0.15350100 9746.81252531 0 184.71848772 0 3034.91316047 0 135.74559504 0 272.38583393 0 25452
0.15450000 0.15450400 9509.13400075 0 251.31409257 0 3033.46268591 0 -8.48503253 0 398.82956890 0 26061
0.15550000 0.15549900 9490.31104856 0 180.38477978 0 2997.27832841 0 104.70710050 0 493.23221030 0 26128
0.15650000 0.15649500 9308.29310086 0 86.33434903 0 2966.78514586 0 329.56553376 0 268.90801671 0 26331
0.15750000 0.15749700 9292.52611032 0 -2.43272263 0 2659.73850631 0 201.70454122 0 478.00222751 0 27345
0.15850000 0.15849900 9339.74957567 0 -118.13174072 0 2720.08267657 0 192.80571376 0 75.52045227 0 26980
0.15950000 0.15949700 9313.77390165 0 -11.68008473 0 2470.24673936 0 320.66781354 0 158.98197591 0 27777
0.16050000 0.16050000 9409.42771576 0 8.93634049 0 2418.37289759 0 106.59105656 0 27.68989135 0 28224
0.16150000 0.16150500 9344.42209675 0 102.92600633 0 2367.71701154 0 72.65039496 0 -173.15012275 0 28075
0.16250000 0.16249700 9183.30869831 0 186.84437408 0 2316.33035206 0 -270.06728912 0 -102.44103850 0 28590
0.16350000 0.16349900 8983.68575416 0 282.67423816 0 2495.60236320 0 -183.11964401 0 -99.49469286 0 29163
0.16450000 0.16449100 8845.34812787 0 144.11405814 0 2566.42095274 0 71.85551276 0 38.16353557 0 28996
0.16550000 0.16550500 8697.34436202 0 -0.34013296 0 2358.58234357 0 249.41740333 0 -348.86016699 0 30777
0.16650000 0.16650700 8699.94635835 0 76.84514522 0 2363.11092442 0 246.93388087 0 78.46613357 0 29211
0.16750000 0.16749900 8722.94357700 0 28.87152986 0 2319.56347091 0 17.14704511 0 -23.98331990 0 30922
0.16850000 0.16850800 8619.49484622 0 237.97415563 0 2297.79528031 0 257.49909321 0 367.49378243 0 30867
0.16950000 0.16949900 8450.26543369 0 135.53854257 0 2224.40791142 0 148.61052925 0 320.51280099 0 30852
0.17050000 0.17049200 8335.44542532 0 30.68008339 0 2125.12237477 0 356.42035038 0 643.25003204 0 31257
0.17150000 0.17149500 8359.16234509 0 124.77513561 0 2109.11179308 0 151.38525385 0 619.62279811 0 32608
0.17250000 0.17250900 8097.27971847 0 221.46531933 0 2104.46141666 0 140.79346793 0 806.92445920 0 32361
0.17350000 0.17350400 8040.40118588 0 183.44517036 0 1915.62291687 0 61.52591949 0 634.46635676 0 32508
0.17450000 0.17449800 7966.05052472 0 94.05242377 0 2000.62515451 0 -248.89036067 0 500.75142609 0 32791
0.17550000 0.17549800 7828.04506818 0 192.13694535 0 1935.89634362 0 -265.59849882 0 738.14982082 0 33633
0.17650000 0.17650100 7778.86180134 0 51.40127495 0 2194.47941743 0 -218.69834535 0 723.84548439 0 33984
0.17750000 0.17750300 7819.22042530 0 -104.93762630 0 2108.75747869 0 262.79941511 0 698.99032964 0 34069
0.17850000 0.17849800 7885.41078307 0 -111.57803166 0 2029.60142856 0 78.09731443 0 104.03091362 0 34536
