### header ###
fiducial parameters:
Omega_m = 0.31
Omega_nu = 0
Omega_de = 0.69
Omega_k = 0
H_0 = 100
w_de = -1
zeff = 0
beta = 0
fgrowth = 0
b_1 = 2
gamma = 0.55
Lx = 3500 Ly = 3500 Lz = 3500
nx = 700 ny = 700 nz = 700
xoffset = -685.467585 yoffset = -31.7331281 zoffset = 572.489161
bins = 400 dk = 0.001
kx_ny = 0.628318531 ky_ny = 0.628318531 kz_ny = 0.628318531
############################
A(data) = 8.04044533 (not used)
A(ran) = 8.02847584 (used)
Ngal = 476633
weighted Ngal = 0
Nran = 23820508
weighted Nran = 0
SN(data) = 3503.84364
SN(ran) = 69.9309362
SN(data+ran) = 3573.77458
############################
13 columns: k_central k_mean P_0(k) sigma^{lin}_{P_0(k)} P^img_1(k) sigma^{lin}_{P_1(k)} P_2(k) sigma^{lin}_{P_2(k)} P^img_3(k) sigma^{lin}_{P_3(k)} P_4(k) sigma^{lin}_{P_4(k)} N_modes
### header ###
0.00050000 0 0 0 0 0 0 0 0 0 0 0 0
0.00150000 0.00179520 38620.49041393 0 -35797.26903168 0 20955.26050527 0 5166.93359360 0 -21974.02511184 0 3
0.00250000 0.00253879 48364.57914734 0 -14695.63239230 0 3934.12987596 0 18647.78801307 0 51504.02612642 0 6
0.00350000 0.00331552 45788.38133178 0 5369.36890826 0 3783.86735585 0 -10309.50807259 0 -12580.92907519 0 7
0.00450000 0.00420575 37793.05558024 0 5790.84802480 0 -10570.40526229 0 -12588.67970256 0 -2997.75443837 0 24
0.00550000 0.00557378 34078.29060358 0 -268.35882940 0 -2545.80428393 0 -19342.46567219 0 -19460.60737800 0 45
0.00650000 0.00659388 39961.45967272 0 3812.48931551 0 16435.31606781 0 -21534.45381654 0 24575.79999772 0 40
0.00750000 0.00754703 39812.75835041 0 -7382.57222376 0 3157.90454455 0 9982.28765723 0 722.80247139 0 57
0.00850000 0.00846663 50397.45798404 0 -14588.12011831 0 17012.95925359 0 15975.15024834 0 23370.35599472 0 75
0.00950000 0.00948925 70288.77879749 0 -16086.42711277 0 -14032.73230541 0 29944.54885579 0 -16640.15407695 0 112
0.01050000 0.01054430 80039.84309553 0 -11607.00738414 0 11959.32875987 0 6504.40399774 0 15997.29489798 0 105
0.01150000 0.01145670 84867.04454671 0 -1412.85079151 0 -8192.82280933 0 -11370.83469576 0 -12219.41766986 0 144
0.01250000 0.01249090 80913.22807722 0 12533.98241796 0 10506.11934440 0 -15133.32139238 0 23157.65663495 0 169
0.01350000 0.01339930 75135.35681711 0 10683.84123006 0 10865.11733199 0 -21351.98190353 0 32215.26122960 0 180
0.01450000 0.01448870 65860.07031653 0 7802.37941925 0 24987.24758798 0 1117.87298602 0 21066.75881620 0 267
0.01550000 0.01550050 76488.94852619 0 -787.20464870 0 32893.44112474 0 20781.64645212 0 22747.20555392 0 238
0.01650000 0.01653350 73212.97978209 0 -3125.90552583 0 34742.51936945 0 19288.87562007 0 1777.75032823 0 315
0.01750000 0.01747870 70083.05500236 0 7139.64541723 0 13847.82448094 0 5570.60841183 0 5833.96365765 0 297
0.01850000 0.01844180 67800.71668749 0 229.44514382 0 10599.37046402 0 -7951.59006851 0 11726.14559919 0 388
0.01950000 0.01947590 67212.00117688 0 -3746.44289796 0 12932.80755792 0 15015.40113306 0 11801.88030095 0 399
0.02050000 0.02045430 71676.25182051 0 -8059.44558457 0 7725.47105106 0 9153.40234898 0 -1124.40565766 0 462
0.02150000 0.02154770 75722.85437198 0 -3233.56174004 0 5360.48890375 0 9492.78017699 0 -7498.93128527 0 571
0.02250000 0.02255340 80780.24945615 0 71.12662162 0 5008.85401216 0 -3241.84383900 0 3316.12806621 0 510
0.02350000 0.02348930 77693.50674321 0 3069.08235486 0 8146.29690045 0 -1127.69413813 0 13525.28765897 0 555
0.02450000 0.02439640 77332.88112386 0 2027.51983149 0 14120.20367148 0 -2587.10405550 0 24408.16499997 0 592
0.02550000 0.02547300 73701.49075309 0 2812.19334674 0 23857.64900999 0 2134.09095787 0 13052.61011246 0 837
0.02650000 0.02652900 74314.67610155 0 3382.61737675 0 27817.22308838 0 -2788.12211258 0 17388.75395794 0 723
0.02750000 0.02749970 69801.81795197 0 5601.48912575 0 27958.06306007 0 -6220.73103589 0 11058.91623329 0 826
0.02850000 0.02848090 67648.47222124 0 6121.57836713 0 33590.99758831 0 -6873.84318764 0 17027.68544560 0 831
0.02950000 0.02946900 63798.07126555 0 1541.34512103 0 34756.24905223 0 2616.34606535 0 9467.42455316 0 996
0.03050000 0.03053250 61514.51499495 0 1520.18590830 0 26406.49818324 0 4382.40401857 0 9559.71238052 0 1041
0.03150000 0.03150510 62595.94895999 0 -509.93038336 0 28275.28516613 0 9268.13377875 0 1796.81687157 0 1036
0.03250000 0.03246190 60537.27160646 0 -678.29283286 0 23027.44609508 0 2412.24990196 0 680.90811598 0 1059
0.03350000 0.03345080 62247.17072820 0 2336.74771903 0 28692.60108854 0 6060.48127879 0 -427.64086531 0 1302
0.03450000 0.03451200 54721.20082572 0 4791.95824129 0 19818.57563939 0 785.31903178 0 2603.56860251 0 1339
0.03550000 0.03553350 53857.33804337 0 3926.99929878 0 20950.49940560 0 2959.01237383 0 475.28065007 0 1365
0.03650000 0.03647120 51501.59021496 0 -1113.15617564 0 17123.23960879 0 2990.18096820 0 452.86029955 0 1308
0.03750000 0.03744890 51026.80892673 0 -149.32358697 0 16659.64136863 0 3506.05165382 0 -6582.47496004 0 1579
0.03850000 0.03847530 49383.45447715 0 3288.44725416 0 14919.95769313 0 -76.39560883 0 -5850.29533675 0 1662
0.03950000 0.03950240 45330.42997728 0 5131.63502207 0 15776.62346434 0 1104.66480974 0 1928.19000554 0 1683
0.04050000 0.04050350 42868.16638411 0 3229.71964333 0 16193.16432402 0 2248.16912048 0 5991.01351287 0 1822
0.04150000 0.04152450 41664.05106008 0 1096.25095011 0 19866.40808261 0 -17.15856032 0 6935.51603688 0 1887
0.04250000 0.04250150 41953.70307734 0 983.04639393 0 23738.95368793 0 1112.97901845 0 10074.63084621 0 1920
0.04350000 0.04349210 42921.20281999 0 -1224.98665631 0 25619.92022812 0 779.14953240 0 12083.44952109 0 2005
0.04450000 0.04448520 43709.88451683 0 -1446.94247963 0 25229.84222476 0 4223.78189322 0 13747.95211107 0 2151
0.04550000 0.04548030 43761.48155048 0 554.29718891 0 22984.92836778 0 3839.27326924 0 13801.65288644 0 2274
0.04650000 0.04648670 44131.40792267 0 1547.94422662 0 21528.47476113 0 5939.88151686 0 8878.01148609 0 2311
0.04750000 0.04749250 40659.12685954 0 2478.62848925 0 16860.71478734 0 3367.11612200 0 8567.24454540 0 2568
0.04850000 0.04851840 38194.09518517 0 2064.27994989 0 14508.73154936 0 2847.06009759 0 4740.08439951 0 2493
0.04950000 0.04949480 35947.40975622 0 151.73513931 0 10646.85966517 0 3082.97812250 0 5321.28180157 0 2644
0.05050000 0.05050630 37378.95063202 0 -1739.21863786 0 10118.93121781 0 3124.96437822 0 999.38028750 0 2829
0.05150000 0.05149060 38391.62545993 0 -1071.66263838 0 7968.57501478 0 -160.94288463 0 -957.82031630 0 2784
0.05250000 0.05249300 38828.53939728 0 222.57808797 0 7174.96613341 0 -3199.51434122 0 -838.90465498 0 3055
0.05350000 0.05348950 37584.78515040 0 2023.23484179 0 8006.61952286 0 -4305.53993968 0 125.23352986 0 3009
0.05450000 0.05448610 37258.15156825 0 2183.26315239 0 8944.76653242 0 -833.19244260 0 -362.27650297 0 3336
0.05550000 0.05550870 35592.43102253 0 -834.92747590 0 8850.65177146 0 386.89803167 0 1087.96663668 0 3349
0.05650000 0.05647670 35086.09360857 0 -104.49373680 0 8800.05124704 0 3200.27833163 0 -3959.80659722 0 3324
0.05750000 0.05747970 36101.42579444 0 697.07149575 0 11571.90811446 0 -173.67052201 0 -2262.21990067 0 3639
0.05850000 0.05849280 34007.64917124 0 2372.82135329 0 11180.50143212 0 -248.40650007 0 -1031.14346571 0 3846
0.05950000 0.05951020 32620.17614821 0 1838.19414942 0 11237.52390494 0 -790.55956312 0 -172.19901004 0 3787
0.06050000 0.06049470 31731.73280477 0 821.65729461 0 13715.73164585 0 369.70160400 0 1197.18404869 0 3930
0.06150000 0.06148310 32158.34948003 0 137.56145631 0 12162.94881328 0 1121.30540671 0 16.89791780 0 4083
0.06250000 0.06249100 31182.10260077 0 -220.18646581 0 11385.33944127 0 323.94743615 0 393.79276834 0 4303
0.06350000 0.06350600 32601.35319602 0 40.09953156 0 10637.72499719 0 2119.77444188 0 782.30403774 0 4470
0.06450000 0.06451750 32296.53209376 0 -14.45735596 0 10975.51948276 0 66.44945017 0 -2262.14239440 0 4479
0.06550000 0.06550280 31852.75331503 0 405.57482918 0 11913.37861187 0 -947.35696934 0 -296.99518308 0 4636
0.06650000 0.06648880 31426.02591652 0 470.81185978 0 11924.56165994 0 183.32226756 0 -710.81446531 0 4653
0.06750000 0.06749660 31752.99166842 0 -358.14431135 0 12045.13927721 0 232.33612783 0 -207.69466895 0 5220
0.06850000 0.06852730 32079.29308082 0 261.61689081 0 13972.72030489 0 400.82480183 0 -332.65803408 0 5029
0.06950000 0.06949320 32141.96243930 0 1445.43664345 0 13047.40611980 0 576.66882120 0 -830.81632170 0 5040
0.07050000 0.07048030 30483.32818146 0 1637.67434695 0 12839.68930620 0 -519.93422883 0 1647.07475072 0 5475
0.07150000 0.07148790 29320.29118251 0 389.10363878 0 13115.72236393 0 2256.28513457 0 867.84771205 0 5509
0.07250000 0.07249820 28767.67145081 0 115.12339007 0 12414.06914017 0 79.00192337 0 -1902.75687543 0 5916
0.07350000 0.07351270 28647.53672653 0 405.31684401 0 10907.23645560 0 1687.68803816 0 -2327.41374920 0 5721
0.07450000 0.07449140 28580.65988463 0 361.76606880 0 11222.90843618 0 370.34933500 0 -2468.72983086 0 6028
0.07550000 0.07549160 27605.52023785 0 644.76361884 0 10512.12054445 0 -692.11330869 0 -384.72785601 0 6183
0.07650000 0.07648840 27548.27631854 0 179.19229040 0 11110.52433927 0 141.47330867 0 -901.90729043 0 6330
0.07750000 0.07749960 27253.19886212 0 442.36373562 0 9992.61813628 0 2204.97598136 0 -307.26697881 0 6583
0.07850000 0.07848650 26671.79108589 0 576.16503043 0 9945.56075580 0 1476.06269390 0 -430.49309618 0 6549
0.07950000 0.07947320 26105.66311792 0 961.30809861 0 9278.24281131 0 804.90375992 0 -709.04953674 0 6828
0.08050000 0.08048110 25292.95447623 0 1547.21345318 0 9371.87038997 0 -184.96318610 0 417.72116950 0 7147
0.08150000 0.08149960 23593.13117007 0 1308.31697290 0 9103.07863268 0 -876.65906814 0 60.27984005 0 7386
0.08250000 0.08250610 22776.99010769 0 547.50653210 0 9064.77946113 0 30.71418615 0 -535.09888491 0 7227
0.08350000 0.08350160 22699.81600370 0 -318.39134356 0 8753.91286952 0 245.48672802 0 -1608.42126478 0 7798
0.08450000 0.08449610 22790.83051371 0 344.74126216 0 8896.52441318 0 1356.21585006 0 -2313.57334318 0 7371
0.08550000 0.08548940 22354.91308560 0 146.23883727 0 7816.88416477 0 856.46314767 0 -870.82838189 0 8256
0.08650000 0.08650700 22220.93795529 0 389.11471110 0 7050.25853897 0 1934.09155467 0 -184.79599399 0 8037
0.08750000 0.08749060 22027.06154772 0 -163.43637218 0 6822.13543074 0 1645.46926362 0 549.04779971 0 8155
0.08850000 0.08849210 22157.49353408 0 23.08469001 0 6470.72198564 0 1772.01486398 0 302.12942009 0 8718
0.08950000 0.08949900 21652.15262936 0 765.97125140 0 6470.52268379 0 -183.66550963 0 1254.71584845 0 8571
0.09050000 0.09049190 21122.78477978 0 1046.09110422 0 6806.97741806 0 371.59718601 0 2227.45280074 0 8932
0.09150000 0.09150830 20142.21969384 0 1048.85254203 0 7177.40204487 0 -445.03991653 0 3716.20437888 0 9285
0.09250000 0.09250820 20061.50244591 0 371.90278217 0 7322.84810368 0 221.16636656 0 3265.22858902 0 9204
0.09350000 0.09350330 19537.56003549 0 -11.63136650 0 7421.46930084 0 160.93734847 0 3239.88403751 0 9349
0.09450000 0.09448040 20050.54084434 0 46.48782009 0 7558.07964446 0 737.77668348 0 3926.60069509 0 9564
0.09550000 0.09549270 19699.76959409 0 18.94020811 0 7511.55373557 0 571.93650958 0 3548.48080253 0 10155
0.09650000 0.09649430 19621.04536463 0 257.40165676 0 7541.73689302 0 532.60096843 0 3356.27631600 0 9913
0.09750000 0.09749140 19135.96681432 0 685.19089122 0 7620.28396529 0 -28.90131441 0 3206.71135235 0 10476
0.09850000 0.09850240 18323.70106563 0 834.82561051 0 7154.00622252 0 -57.10496164 0 2750.16618311 0 10575
0.09950000 0.09950330 17716.60549582 0 602.99880962 0 7207.17552630 0 -3.69851080 0 2638.37999174 0 10882
0.10050000 0.10051200 17617.95108169 0 18.13668950 0 6699.37656547 0 420.03639262 0 1749.11729625 0 10875
0.10150000 0.10150300 17115.37825817 0 385.56270930 0 6866.14792189 0 377.03923365 0 1570.40997368 0 11118
0.10250000 0.10250800 16847.09582781 0 486.55338397 0 6112.44369916 0 341.65319077 0 998.79899045 0 11575
0.10350000 0.10349800 16437.86270251 0 137.12409948 0 5164.56411608 0 1519.47727951 0 1985.32320161 0 11364
0.10450000 0.10450100 16107.24308343 0 25.21179434 0 4713.98692991 0 806.88681330 0 826.18255376 0 12093
0.10550000 0.10551000 16333.78284922 0 114.23096069 0 4734.44858618 0 433.29882329 0 1515.31408538 0 12067
0.10650000 0.10649700 15826.44892603 0 383.17662330 0 4971.52920520 0 123.66125974 0 1522.16785444 0 12054
0.10750000 0.10749900 15734.99152303 0 352.54392946 0 4754.64450665 0 -117.28249341 0 2383.76081021 0 12807
0.10850000 0.10850100 15473.35248756 0 111.30122354 0 5028.19736362 0 284.30851330 0 2220.78726120 0 12736
0.10950000 0.10950300 15490.73603753 0 166.56762564 0 5312.91112400 0 -271.35389326 0 1814.74296545 0 12933
0.11050000 0.11050200 15396.39983007 0 210.38192218 0 5709.89825805 0 72.14649346 0 1443.75365008 0 13428
0.11150000 0.11150900 15234.19027148 0 588.66679238 0 5962.43584252 0 -601.11762164 0 1250.99554731 0 13453
0.11250000 0.11250000 15176.94635217 0 154.51097115 0 6065.45275263 0 -178.30318272 0 1616.76979769 0 13668
0.11350000 0.11349100 14934.46243864 0 105.02266175 0 6147.78655998 0 -526.62412749 0 1309.15846958 0 13791
0.11450000 0.11448600 14869.24644546 0 -5.09990174 0 5709.35571414 0 704.62614297 0 826.51029458 0 14205
0.11550000 0.11549300 14937.23051984 0 -103.15044235 0 5170.95284750 0 721.22466511 0 576.96334504 0 14776
0.11650000 0.11649800 14678.13811909 0 76.23683169 0 4505.62792148 0 670.41930268 0 87.79323855 0 14553
0.11750000 0.11747300 14651.12164653 0 80.31111505 0 4338.93407133 0 712.45870555 0 344.76672851 0 14568
0.11850000 0.11849100 14537.07670090 0 62.62230109 0 4394.30676775 0 286.83964675 0 308.96658067 0 16015
0.11950000 0.11950300 14410.18785848 0 141.91177274 0 3923.77725226 0 42.91987414 0 1299.93522301 0 15270
0.12050000 0.12050700 14614.36152813 0 -31.94044613 0 4003.11045958 0 462.82760635 0 1040.83285716 0 15999
0.12150000 0.12150000 14491.45872264 0 -29.50276310 0 3948.74534472 0 57.49271445 0 1036.47036118 0 15670
0.12250000 0.12250700 14679.02390507 0 297.89314862 0 3881.54740540 0 430.70347035 0 1170.16757613 0 16887
0.12350000 0.12352200 13913.37264386 0 500.51669280 0 3855.60494835 0 -215.44197462 0 825.51489257 0 16407
0.12450000 0.12449800 13736.32617001 0 585.51893043 0 3817.25041518 0 -214.60712133 0 517.45624254 0 16306
0.12550000 0.12549900 13198.98624656 0 469.60276191 0 4400.07544898 0 -77.27508359 0 441.62188986 0 17523
0.12650000 0.12650100 12718.66879593 0 392.43530131 0 3480.51887279 0 8.16115596 0 24.19524419 0 17154
0.12750000 0.12750600 12615.03183563 0 -60.40218924 0 3812.73290665 0 -199.59304888 0 344.88741685 0 18007
0.12850000 0.12850300 12802.92918780 0 9.25696180 0 3665.48205889 0 45.31404294 0 -421.77696208 0 17496
0.12950000 0.12949900 13003.22754377 0 -269.67089989 0 3784.03344072 0 -173.44796828 0 -559.99390003 0 18405
0.13050000 0.13049000 12920.84944712 0 143.84278618 0 4077.89294141 0 -133.01626698 0 -234.10327087 0 18100
0.13150000 0.13148800 12932.14321843 0 249.52701935 0 4164.98784843 0 -248.96122355 0 -110.98344782 0 19059
0.13250000 0.13249300 12845.22546861 0 104.25811772 0 4406.92921804 0 79.24894693 0 657.29416884 0 18957
0.13350000 0.13349100 12864.26986730 0 -45.39553525 0 4468.77922448 0 336.07052459 0 143.88375379 0 19468
0.13450000 0.13450700 12832.27084857 0 156.31243839 0 4647.68584890 0 372.49293708 0 184.99418860 0 19953
0.13550000 0.13551000 12653.67424925 0 276.05741684 0 4463.79667831 0 219.38150779 0 -0.62675559 0 19956
0.13650000 0.13649900 12547.82282398 0 199.09590149 0 4680.11668829 0 -576.84708563 0 32.37702790 0 19723
0.13750000 0.13749600 12148.66551427 0 257.94530791 0 4518.26144410 0 -274.94243373 0 549.04890694 0 20946
0.13850000 0.13851100 12254.18476979 0 160.89527364 0 5102.22692736 0 304.27855834 0 -27.40112512 0 20955
0.13950000 0.13949800 11986.34523243 0 75.25460576 0 4736.50803860 0 374.20914743 0 795.41477755 0 20506
0.14050000 0.14048300 11893.55915045 0 218.20784136 0 4641.24175586 0 598.80793468 0 56.92658648 0 21447
0.14150000 0.14148400 11794.57256657 0 87.87572737 0 4222.26498472 0 760.41958773 0 798.98117338 0 21771
0.14250000 0.14249400 11675.76652126 0 -16.36268162 0 4068.76934576 0 575.56712489 0 278.76792196 0 22470
0.14350000 0.14350900 11663.69768721 0 131.28012644 0 3764.28041324 0 312.88286196 0 108.85268963 0 22519
0.14450000 0.14449900 11364.19130087 0 399.82829260 0 3863.42200967 0 -104.51621362 0 154.86750001 0 22218
0.14550000 0.14550500 10965.33294392 0 357.99594220 0 3148.40448986 0 -267.23055950 0 -27.27036097 0 23559
0.14650000 0.14650700 10946.97502937 0 24.34759938 0 3572.78455551 0 -33.73205901 0 -376.58969727 0 23044
0.14750000 0.14750500 10893.62856840 0 -1.79423702 0 3473.41044026 0 -69.52589562 0 -817.70447465 0 23649
0.14850000 0.14849900 10920.64504096 0 205.31854804 0 3564.45816724 0 -142.30151857 0 -731.83195228 0 23640
0.14950000 0.14949500 10759.62022112 0 318.12117883 0 3390.20191925 0 -123.92035214 0 -600.01703255 0 24457
0.15050000 0.15050000 10484.73868517 0 42.04283529 0 3332.91371064 0 280.73768854 0 -234.98794963 0 24591
0.15150000 0.15149900 10584.79928456 0 64.19612134 0 3616.64203411 0 208.46640999 0 -66.83952817 0 25020
0.15250000 0.15250500 10516.26159393 0 94.24065329 0 3546.74244753 0 501.91402019 0 -124.56365421 0 25297
0.15350000 0.15350100 10329.50469121 0 204.80589940 0 3316.93634592 0 504.20820589 0 267.71663456 0 25452
0.15450000 0.15450400 10106.45270774 0 295.92006034 0 3049.00822996 0 356.98503894 0 639.24627938 0 26061
0.15550000 0.15549900 9956.58879132 0 100.44824148 0 3022.78896479 0 367.46610162 0 1035.42845542 0 26128
0.15650000 0.15649500 9874.65358766 0 54.08443143 0 2745.01755206 0 440.99076734 0 848.76898916 0 26331
0.15750000 0.15749700 9874.78645556 0 -29.29416050 0 2740.30074169 0 184.31545509 0 1165.49505506 0 27345
0.15850000 0.15849900 9762.43557563 0 65.70361837 0 2436.38757007 0 10.37183419 0 843.35794402 0 26980
0.15950000 0.15949700 9881.70665857 0 219.57748794 0 2683.65472792 0 -56.40651939 0 1108.99298151 0 27777
0.16050000 0.16050000 9563.10051192 0 284.94074305 0 2716.31808613 0 -234.17302652 0 796.08133151 0 28224
0.16150000 0.16150500 9410.95569658 0 218.21559199 0 2818.01738959 0 50.77557788 0 1005.04378165 0 28075
0.16250000 0.16249700 9191.59079728 0 145.48481195 0 2615.62636423 0 190.18489448 0 967.61268037 0 28590
0.16350000 0.16349900 9084.44391001 0 27.01425809 0 2491.52774767 0 357.84425135 0 603.35755295 0 29163
0.16450000 0.16449100 9001.83329453 0 92.40940149 0 2142.22911661 0 420.18144008 0 527.74464676 0 28996
0.16550000 0.16550500 8984.82620361 0 -1.22510845 0 2050.16273575 0 317.47676953 0 300.73762886 0 30777
0.16650000 0.16650700 8892.99234157 0 -34.05182775 0 1816.03842746 0 -22.10246408 0 366.86376715 0 29211
0.16750000 0.16749900 9024.71978993 0 45.66536780 0 1940.95639606 0 -157.12957597 0 24.37959840 0 30922
0.16850000 0.16850800 8778.61522619 0 210.56350831 0 1945.92786990 0 -210.85471045 0 254.37337592 0 30867
0.16950000 0.16949900 8878.83083812 0 167.29175568 0 2181.72409924 0 -63.95895215 0 409.22205297 0 30852
0.17050000 0.17049200 8626.03859019 0 165.09279198 0 2135.79609589 0 -41.33586735 0 192.39160882 0 31257
0.17150000 0.17149500 8562.69381990 0 217.00538689 0 2476.27008407 0 213.49103099 0 447.03957839 0 32608
0.17250000 0.17250900 8374.35357474 0 200.13448556 0 2103.99637901 0 226.91179590 0 460.19017858 0 32361
0.17350000 0.17350400 8248.18443343 0 107.25860703 0 2298.31567958 0 127.67054855 0 778.26817534 0 32508
0.17450000 0.17449800 8250.14423492 0 71.33101673 0 2181.89018411 0 -42.81147608 0 371.96921612 0 32791
0.17550000 0.17549800 8107.85378868 0 57.69832752 0 2264.91047560 0 -158.64427000 0 375.41713807 0 33633
0.17650000 0.17650100 8025.50890900 0 295.41073339 0 2268.97401881 0 -224.12821344 0 70.22710595 0 33984
0.17750000 0.17750300 7796.04604946 0 168.23843946 0 2338.45285705 0 -81.95214431 0 602.13073936 0 34069
0.17850000 0.17849800 7837.62262915 0 -15.94248689 0 2306.29882578 0 310.77026238 0 376.90415129 0 34536
