### header ###
fiducial parameters:
Omega_m = 0.31
Omega_nu = 0
Omega_de = 0.69
Omega_k = 0
H_0 = 100
w_de = -1
zeff = 0
beta = 0
fgrowth = 0
b_1 = 2
gamma = 0.55
Lx = 3500 Ly = 3500 Lz = 3500
nx = 700 ny = 700 nz = 700
xoffset = -685.467585 yoffset = -31.7331281 zoffset = 572.489161
bins = 400 dk = 0.001
kx_ny = 0.628318531 ky_ny = 0.628318531 kz_ny = 0.628318531
############################
A(data) = 8.03632982 (not used)
A(ran) = 8.02712577 (used)
Ngal = 476816
weighted Ngal = 0
Nran = 23820508
weighted Nran = 0
SN(data) = 3497.82323
SN(ran) = 69.9191767
SN(data+ran) = 3567.7424
############################
13 columns: k_central k_mean P_0(k) sigma^{lin}_{P_0(k)} P^img_1(k) sigma^{lin}_{P_1(k)} P_2(k) sigma^{lin}_{P_2(k)} P^img_3(k) sigma^{lin}_{P_3(k)} P_4(k) sigma^{lin}_{P_4(k)} N_modes
### header ###
0.00050000 0 0 0 0 0 0 0 0 0 0 0 0
0.00150000 0.00179520 59944.23788917 0 -47232.21248813 0 3500.43798514 0 -5347.78894718 0 -88984.95287001 0 3
0.00250000 0.00253879 87436.59896738 0 -18492.88618885 0 5139.64031292 0 34712.73481569 0 139272.13049886 0 6
0.00350000 0.00331552 85380.91114155 0 6161.02906046 0 42373.34418797 0 -82646.60052758 0 22777.76517042 0 7
0.00450000 0.00420575 69809.45785609 0 23813.69188046 0 22256.70156446 0 2330.31469831 0 40549.95373683 0 24
0.00550000 0.00557378 60289.58370027 0 -2850.50359061 0 33180.98940028 0 47326.65941884 0 5671.17833816 0 45
0.00650000 0.00659388 74291.64566593 0 -13326.98232147 0 19718.81399278 0 51760.79333896 0 -5011.75496126 0 40
0.00750000 0.00754703 67357.04863201 0 -9957.61851753 0 28218.70558631 0 29212.11456903 0 1242.07125351 0 57
0.00850000 0.00846663 90589.77562923 0 -11544.33802567 0 4289.78402146 0 16386.26566886 0 5241.22889313 0 75
0.00950000 0.00948925 87952.90147367 0 2433.85200769 0 1203.87173288 0 -2062.98448789 0 4937.57038498 0 112
0.01050000 0.01054430 100153.05329834 0 8161.94209542 0 27765.07243849 0 -23929.50839806 0 5256.36476116 0 105
0.01150000 0.01145670 84227.50706519 0 9614.47609907 0 12431.00979714 0 -19086.58424563 0 19709.95613292 0 144
0.01250000 0.01249090 80404.34402856 0 10450.54734613 0 31203.14001792 0 2697.72765276 0 -11999.29985246 0 169
0.01350000 0.01339930 78981.55028936 0 -5543.89089205 0 26783.95373631 0 -3600.45429523 0 -21754.90380368 0 180
0.01450000 0.01448870 82248.77189685 0 -4696.89126039 0 40156.33258953 0 8728.33579919 0 -26286.69562870 0 267
0.01550000 0.01550050 83723.27339295 0 -306.67571666 0 33493.78257641 0 -5928.99742156 0 -15676.64037123 0 238
0.01650000 0.01653350 82648.26137630 0 6984.45571258 0 44013.70910985 0 -850.84505006 0 -12918.52425891 0 315
0.01750000 0.01747870 81682.97609861 0 8417.15918249 0 41759.60522327 0 -4260.18769722 0 4083.27409127 0 297
0.01850000 0.01844180 75483.58143265 0 7227.20536190 0 43845.07760286 0 13184.59222430 0 2741.09794908 0 388
0.01950000 0.01947590 68707.09719715 0 3990.58766021 0 33803.14333184 0 14925.93674853 0 7828.15579143 0 399
0.02050000 0.02045430 69646.69468126 0 367.92892479 0 26423.99245645 0 24039.12441376 0 3248.49830622 0 462
0.02150000 0.02154770 70426.73996473 0 -2592.71772418 0 23734.96765099 0 9338.01122068 0 -10573.94840623 0 571
0.02250000 0.02255340 69788.53116218 0 -653.98243648 0 19875.81955870 0 706.02789929 0 -9065.00090762 0 510
0.02350000 0.02348930 69470.42327014 0 595.36554889 0 23328.17043716 0 -9666.73747222 0 -7472.87810498 0 555
0.02450000 0.02439640 72148.81864377 0 -926.02170665 0 24818.06246475 0 -3358.78973374 0 -4789.23444938 0 592
0.02550000 0.02547300 73819.41101241 0 -529.58375991 0 28978.48851536 0 -3499.34182498 0 -8919.72093368 0 837
0.02650000 0.02652900 76320.98135869 0 2110.91658203 0 34760.12436591 0 -2415.87055218 0 -7404.09682320 0 723
0.02750000 0.02749970 70177.61265631 0 7061.26442984 0 39574.81409005 0 -281.96782383 0 -6191.42259209 0 826
0.02850000 0.02848090 66791.80645002 0 10194.75449817 0 39080.98840314 0 4559.90445774 0 8658.44728493 0 831
0.02950000 0.02946900 56011.56956009 0 2816.53369807 0 33866.14486006 0 11277.49499754 0 4059.59038848 0 996
0.03050000 0.03053250 58528.41971461 0 880.70489563 0 30652.40258144 0 15577.32161761 0 2257.71346447 0 1041
0.03150000 0.03150510 53113.49926205 0 -556.12190804 0 24156.82322659 0 16220.84513607 0 5405.46468716 0 1036
0.03250000 0.03246190 52836.80186484 0 -1569.20309027 0 13921.56616423 0 3595.16172396 0 -1051.06036359 0 1059
0.03350000 0.03345080 54053.87180890 0 -1292.86000745 0 13592.93956361 0 2998.27483764 0 2454.83406322 0 1302
0.03450000 0.03451200 53069.65285577 0 2888.24914592 0 11864.99255241 0 -2349.20408445 0 -1014.48072409 0 1339
0.03550000 0.03553350 53582.19077163 0 3249.82698520 0 11370.72397251 0 -5935.84011830 0 -3039.16493320 0 1365
0.03650000 0.03647120 50110.24187824 0 2652.01002359 0 15170.85657352 0 -8565.18509299 0 -3493.03059984 0 1308
0.03750000 0.03744890 47778.29954819 0 2672.17272708 0 16870.34770993 0 282.60891144 0 -4190.01130252 0 1579
0.03850000 0.03847530 46262.71972701 0 2707.50451558 0 21642.96259976 0 -1338.41155175 0 -1311.48365779 0 1662
0.03950000 0.03950240 43889.80979513 0 983.49703755 0 17503.90613605 0 8033.62492309 0 -2288.54988909 0 1683
0.04050000 0.04050350 44679.59872444 0 -861.60624255 0 18208.77033401 0 6310.67153039 0 -1105.70892997 0 1822
0.04150000 0.04152450 44226.96208586 0 -776.25633392 0 12631.08670662 0 5699.55670667 0 -688.21474313 0 1887
0.04250000 0.04250150 44321.40901656 0 1078.21966914 0 12302.12793625 0 1732.07698836 0 849.86847101 0 1920
0.04350000 0.04349210 42854.43670134 0 3291.94610881 0 14511.16746082 0 -3211.37280110 0 2597.50096851 0 2005
0.04450000 0.04448520 40003.53450703 0 2750.71979935 0 16815.76114857 0 -2579.92918902 0 2450.91446023 0 2151
0.04550000 0.04548030 38954.98534671 0 805.07759542 0 16443.06669518 0 -1523.46331645 0 3500.33833422 0 2274
0.04650000 0.04648670 38814.03465176 0 -543.36658985 0 15511.33056169 0 -451.92800980 0 2390.34884347 0 2311
0.04750000 0.04749250 38493.71229476 0 294.63788512 0 19736.30826599 0 1535.57643980 0 1483.99047847 0 2568
0.04850000 0.04851840 38721.13784654 0 1596.15312888 0 16919.50883213 0 2497.38500750 0 -24.30098490 0 2493
0.04950000 0.04949480 36875.04912952 0 2024.22027870 0 18314.40031278 0 -224.64418378 0 1092.33688329 0 2644
0.05050000 0.05050630 35782.09994667 0 828.66054005 0 17820.24245612 0 -995.26027544 0 -390.81874189 0 2829
0.05150000 0.05149060 34655.82306612 0 807.12043935 0 20488.00839793 0 1344.64527063 0 -2657.24723323 0 2784
0.05250000 0.05249300 35196.48468702 0 790.16538836 0 18884.62504094 0 -1301.44105918 0 -2538.60727280 0 3055
0.05350000 0.05348950 34815.70743650 0 473.55890356 0 18854.17614769 0 535.37237133 0 -1580.10933022 0 3009
0.05450000 0.05448610 35326.36305714 0 -1096.99611757 0 16131.27002829 0 3484.26131858 0 -5799.30728096 0 3336
0.05550000 0.05550870 35550.35618822 0 -1052.77325224 0 14327.03469909 0 5743.67992107 0 -3470.73093765 0 3349
0.05650000 0.05647670 35758.07300182 0 -1079.73436318 0 10096.19973496 0 4732.94275000 0 -7492.44290293 0 3324
0.05750000 0.05747970 36155.90163255 0 233.51643766 0 7342.72292673 0 3853.53442361 0 -5964.96033257 0 3639
0.05850000 0.05849280 34309.37002255 0 1188.70264788 0 5931.11223560 0 2045.65629954 0 -4274.06132022 0 3846
0.05950000 0.05951020 34437.58754395 0 1080.96560570 0 5019.99277093 0 -2229.29080666 0 -5113.85286842 0 3787
0.06050000 0.06049470 33243.21586576 0 -141.09020623 0 5805.59636146 0 -1603.80410533 0 -2393.82555347 0 3930
0.06150000 0.06148310 32676.97717453 0 1078.68470678 0 8733.48443023 0 -321.12620779 0 -2929.68178539 0 4083
0.06250000 0.06249100 33618.23550737 0 1149.01943573 0 9023.69006373 0 -3233.38458284 0 -3088.65822514 0 4303
0.06350000 0.06350600 32326.09520103 0 860.09154852 0 10112.50926942 0 -578.42378469 0 -313.70996462 0 4470
0.06450000 0.06451750 32327.97749625 0 417.82746382 0 11391.42921992 0 741.07955797 0 -282.80599882 0 4479
0.06550000 0.06550280 32085.93647571 0 -108.88457793 0 11290.67106407 0 1206.94983918 0 -1044.85875446 0 4636
0.06650000 0.06648880 32406.59100246 0 -74.83762200 0 10297.27315367 0 2343.87829621 0 -190.73518902 0 4653
0.06750000 0.06749660 32521.41101083 0 -162.03350863 0 10444.73437560 0 613.24956794 0 361.16151986 0 5220
0.06850000 0.06852730 32271.95153267 0 801.57099015 0 9196.28546300 0 520.50777526 0 2332.14163190 0 5029
0.06950000 0.06949320 31512.39005011 0 932.58095187 0 10250.54794293 0 1230.82177149 0 3182.57368425 0 5040
0.07050000 0.07048030 30162.12003847 0 1092.49964646 0 9847.92499555 0 1314.47318550 0 3335.23889885 0 5475
0.07150000 0.07148790 29928.60470805 0 798.53606592 0 10528.20863241 0 962.91690741 0 5874.95340412 0 5509
0.07250000 0.07249820 28648.75468226 0 539.54442332 0 10601.86173710 0 1691.86230461 0 3927.80757849 0 5916
0.07350000 0.07351270 28504.15012013 0 1075.19249554 0 9687.34306871 0 651.25421565 0 4808.66637944 0 5721
0.07450000 0.07449140 27513.73066510 0 501.47887783 0 9966.11099067 0 -675.72183903 0 3368.05726961 0 6028
0.07550000 0.07549160 27495.35060590 0 343.82115197 0 10115.80882221 0 -322.52353518 0 5648.40256601 0 6183
0.07650000 0.07648840 27027.98777531 0 -228.16961200 0 9338.46518600 0 -345.06457404 0 2855.27576261 0 6330
0.07750000 0.07749960 27519.82044375 0 -125.29553488 0 10660.52291399 0 326.80298872 0 2338.56358030 0 6583
0.07850000 0.07848650 27549.05138127 0 789.98933839 0 11305.06508633 0 -414.62534748 0 1837.17549553 0 6549
0.07950000 0.07947320 26528.73664924 0 1461.69081628 0 10176.72875337 0 639.64266861 0 2346.57994347 0 6828
0.08050000 0.08048110 25501.00345957 0 521.74676841 0 9930.85670844 0 443.17201533 0 2723.01684265 0 7147
0.08150000 0.08149960 25422.05778361 0 152.05734397 0 10240.10674063 0 2870.50020923 0 2727.83330395 0 7386
0.08250000 0.08250610 25185.44220224 0 -181.20856075 0 9612.27270644 0 1133.17493891 0 840.26322923 0 7227
0.08350000 0.08350160 24676.89032332 0 987.97468571 0 10040.64988134 0 561.90387606 0 2721.93175482 0 7798
0.08450000 0.08449610 23926.18670061 0 1615.60720359 0 8974.07497621 0 -1486.80284897 0 2875.25023658 0 7371
0.08550000 0.08548940 22694.27984129 0 1158.90702179 0 9858.98624804 0 5.55786417 0 4515.03939757 0 8256
0.08650000 0.08650700 21803.06841664 0 699.21066890 0 10392.65015965 0 220.58285504 0 3128.11999079 0 8037
0.08750000 0.08749060 21642.40898352 0 364.28059377 0 10409.95620335 0 522.81524775 0 3893.90411990 0 8155
0.08850000 0.08849210 21352.42479652 0 385.11981631 0 10582.05334800 0 622.79280470 0 2916.10711516 0 8718
0.08950000 0.08949900 20455.56648621 0 111.61899926 0 9504.30646713 0 -69.33766610 0 2727.58971280 0 8571
0.09050000 0.09049190 21091.22865405 0 -443.75331238 0 9620.82054120 0 778.82179158 0 1038.81547958 0 8932
0.09150000 0.09150830 20895.02705826 0 125.33650248 0 9100.15553892 0 -75.29346962 0 1235.26177374 0 9285
0.09250000 0.09250820 20878.64001753 0 215.67449344 0 7948.19086479 0 713.66669619 0 -1004.07052430 0 9204
0.09350000 0.09350330 20323.80582087 0 7.56885302 0 8000.89513093 0 827.93419555 0 -34.57222701 0 9349
0.09450000 0.09448040 20138.67654990 0 575.77749906 0 7337.93968241 0 723.52881590 0 -455.79557286 0 9564
0.09550000 0.09549270 19609.75159331 0 255.98107748 0 7077.44109640 0 935.33353182 0 -723.24868608 0 10155
0.09650000 0.09649430 19403.80635168 0 429.18324016 0 6856.18282955 0 774.56226822 0 -524.40744806 0 9913
0.09750000 0.09749140 19108.61817202 0 261.11199280 0 7176.58269283 0 316.84121808 0 -8.38596844 0 10476
0.09850000 0.09850240 18957.37021500 0 382.91974537 0 6909.35213333 0 -160.50109887 0 494.09031547 0 10575
0.09950000 0.09950330 18696.28479577 0 638.19219406 0 6767.94747307 0 -179.09485394 0 -77.21042121 0 10882
0.10050000 0.10051200 18255.93843774 0 363.70594011 0 6696.64170124 0 191.04632135 0 -90.90544761 0 10875
0.10150000 0.10150300 17825.00355579 0 281.71537483 0 5857.60307113 0 0.84627661 0 -690.48346248 0 11118
0.10250000 0.10250800 17818.13871441 0 226.60841420 0 6333.65767671 0 278.77567259 0 -647.54387960 0 11575
0.10350000 0.10349800 17300.17535939 0 382.34841341 0 6475.70453181 0 -94.28660344 0 -906.23656943 0 11364
0.10450000 0.10450100 17119.14284861 0 735.74269741 0 6386.53910004 0 -52.03284036 0 -1081.97097279 0 12093
0.10550000 0.10551000 16368.66067240 0 711.02483948 0 6595.87247307 0 -147.20655846 0 -103.80227011 0 12067
0.10650000 0.10649700 15885.57514056 0 431.22497685 0 6348.00740968 0 197.06966605 0 -184.54797391 0 12054
0.10750000 0.10749900 15840.28933205 0 2.39652720 0 6727.19024542 0 1095.61982759 0 -16.32713945 0 12807
0.10850000 0.10850100 15796.44292577 0 -173.47786356 0 6473.39041592 0 699.34021510 0 39.82095187 0 12736
0.10950000 0.10950300 15854.79407756 0 17.21657931 0 5829.02540078 0 601.98679914 0 -232.60629256 0 12933
0.11050000 0.11050200 15618.06777294 0 349.43592788 0 5297.79740063 0 -266.25951661 0 -813.46931040 0 13428
0.11150000 0.11150900 15257.99576984 0 285.21422947 0 5122.72180059 0 -69.95262302 0 -299.26058073 0 13453
0.11250000 0.11250000 15105.97275008 0 255.51382537 0 4818.45431458 0 339.16634661 0 -760.05862994 0 13668
0.11350000 0.11349100 14994.25299266 0 -114.31953929 0 4237.79945644 0 627.62587449 0 -1162.67161223 0 13791
0.11450000 0.11448600 14723.53465084 0 298.04483947 0 4112.99221108 0 753.09192317 0 -1145.46521946 0 14205
0.11550000 0.11549300 14593.32411098 0 429.48883632 0 4007.90477623 0 121.33385706 0 -1428.17488906 0 14776
0.11650000 0.11649800 14026.97469650 0 569.20164535 0 3922.29356073 0 -171.09731373 0 -763.91290621 0 14553
0.11750000 0.11747300 13905.84346299 0 403.92394555 0 4528.95730987 0 -354.84475856 0 310.05941913 0 14568
0.11850000 0.11849100 13665.24184468 0 -33.13769661 0 4629.94798454 0 59.19763103 0 65.22850491 0 16015
0.11950000 0.11950300 13832.76611918 0 -170.38757770 0 5155.45159276 0 255.24366065 0 683.55883054 0 15270
0.12050000 0.12050700 13934.63150751 0 -113.50572341 0 4965.06296750 0 490.91255825 0 -9.53241910 0 15999
0.12150000 0.12150000 14185.64111115 0 -53.61164316 0 4725.52429238 0 439.96214837 0 283.92319639 0 15670
0.12250000 0.12250700 14173.12938411 0 64.18881361 0 4611.99974601 0 457.79634195 0 41.95890707 0 16887
0.12350000 0.12352200 13917.13723430 0 221.15529423 0 4473.63997508 0 246.19424958 0 762.51890052 0 16407
0.12450000 0.12449800 13996.63652650 0 40.88400578 0 4357.96739770 0 434.93974183 0 760.51259526 0 16306
0.12550000 0.12549900 13803.86735141 0 121.36485957 0 3756.97267886 0 843.33247767 0 1038.56524504 0 17523
0.12650000 0.12650100 13882.03796463 0 -35.38881097 0 3255.05312251 0 631.67059474 0 1074.53147775 0 17154
0.12750000 0.12750600 13672.43885581 0 274.04557542 0 3477.18610302 0 440.26442283 0 775.72375510 0 18007
0.12850000 0.12850300 13372.26812998 0 421.96740607 0 3345.69117348 0 -153.68829741 0 1127.21802816 0 17496
0.12950000 0.12949900 13062.35375830 0 370.69146984 0 3572.17557764 0 -328.92223169 0 1095.96417690 0 18405
0.13050000 0.13049000 12674.93311290 0 163.37104547 0 3406.52252603 0 -170.30121357 0 1277.91236894 0 18100
0.13150000 0.13148800 12613.59243340 0 38.17482934 0 3855.19527233 0 409.56197334 0 1323.54141952 0 19059
0.13250000 0.13249300 12987.83701227 0 -195.78638361 0 3567.44769494 0 431.01570991 0 1333.48436721 0 18957
0.13350000 0.13349100 12886.30379369 0 -43.07488669 0 3398.34007799 0 574.59940370 0 934.48317728 0 19468
0.13450000 0.13450700 13112.51138973 0 68.06501308 0 3307.86811190 0 -35.66927296 0 1069.94642804 0 19953
0.13550000 0.13551000 12931.14670920 0 260.71671081 0 3284.29513236 0 -238.45912346 0 683.84006759 0 19956
0.13650000 0.13649900 12508.73751737 0 588.30362012 0 3607.93918681 0 -585.73926970 0 872.11387881 0 19723
0.13750000 0.13749600 12193.06553679 0 532.19904304 0 3670.60854528 0 -323.49900699 0 709.46807061 0 20946
0.13850000 0.13851100 11700.67925210 0 282.11176405 0 3669.98849509 0 -11.29056034 0 859.20133360 0 20955
0.13950000 0.13949800 11686.50667634 0 152.82576331 0 3978.25309037 0 574.18308428 0 482.08680814 0 20506
0.14050000 0.14048300 11531.38340563 0 -14.39557239 0 3864.89462887 0 667.68222398 0 526.48683066 0 21447
0.14150000 0.14148400 11448.11952299 0 40.19940393 0 3882.66571021 0 418.36447158 0 940.91176907 0 21771
0.14250000 0.14249400 11368.50950755 0 253.09341517 0 3720.52258556 0 134.88416817 0 882.67355499 0 22470
0.14350000 0.14350900 11090.15126160 0 236.83038448 0 3528.20737579 0 115.73901133 0 1085.14319385 0 22519
0.14450000 0.14449900 10971.63309675 0 202.04003266 0 3652.56065582 0 19.13773839 0 1084.01935288 0 22218
0.14550000 0.14550500 10712.72892551 0 205.81569543 0 3621.76852050 0 -114.82886623 0 989.73629259 0 23559
0.14650000 0.14650700 10660.24610587 0 251.83670630 0 3274.25253375 0 -90.14887565 0 1043.47582109 0 23044
0.14750000 0.14750500 10500.93749638 0 109.45856725 0 3469.91158562 0 -39.93499682 0 916.38546236 0 23649
0.14850000 0.14849900 10507.00513038 0 96.06127566 0 3539.42364083 0 -138.07078326 0 865.96873853 0 23640
0.14950000 0.14949500 10426.06643596 0 61.87148675 0 3547.07461728 0 159.50680410 0 884.67543131 0 24457
0.15050000 0.15050000 10441.39053351 0 74.08669693 0 3517.01325539 0 42.31720750 0 1196.59721548 0 24591
0.15150000 0.15149900 10325.23077383 0 30.35267475 0 3290.10810289 0 465.77505922 0 1152.08646970 0 25020
0.15250000 0.15250500 10291.93629310 0 16.39556642 0 3149.16848027 0 102.03922383 0 737.85308252 0 25297
0.15350000 0.15350100 10157.80615025 0 281.41310036 0 2975.78694593 0 497.09202273 0 653.56058091 0 25452
0.15450000 0.15450400 9917.01630242 0 353.67219936 0 2785.12151256 0 -35.86038128 0 431.52614409 0 26061
0.15550000 0.15549900 9606.61474845 0 318.00824112 0 2650.59276601 0 108.79356342 0 501.25410963 0 26128
0.15650000 0.15649500 9320.64981536 0 252.80110579 0 2352.16039517 0 71.56763231 0 248.86267986 0 26331
0.15750000 0.15749700 9284.25508368 0 -9.93448843 0 2406.43693143 0 178.88005084 0 437.15309956 0 27345
0.15850000 0.15849900 9104.76162605 0 48.24676961 0 2647.23785159 0 56.40740517 0 69.44894296 0 26980
0.15950000 0.15949700 9254.92449524 0 25.65944843 0 2596.51553160 0 280.43209238 0 172.11596761 0 27777
0.16050000 0.16050000 9090.94336467 0 46.24245737 0 2498.29293813 0 -62.74597896 0 431.83395472 0 28224
0.16150000 0.16150500 9174.26260893 0 98.96045319 0 2514.72426816 0 25.88222360 0 305.60170116 0 28075
0.16250000 0.16249700 9160.33362431 0 73.93611332 0 2813.25628992 0 58.73536147 0 899.49352362 0 28590
0.16350000 0.16349900 9137.51356286 0 37.29314011 0 2777.88021213 0 -210.27673510 0 573.11239047 0 29163
0.16450000 0.16449100 9061.53526996 0 133.92198315 0 3011.48412115 0 -40.90150005 0 724.22415790 0 28996
0.16550000 0.16550500 8889.86994597 0 254.96906699 0 2928.23131084 0 75.42655896 0 1008.10527946 0 30777
0.16650000 0.16650700 8733.57300883 0 276.56010039 0 2936.93415815 0 308.30888458 0 1013.92710785 0 29211
0.16750000 0.16749900 8560.22469147 0 58.17720557 0 2664.58818458 0 294.00122644 0 978.94741928 0 30922
0.16850000 0.16850800 8528.11494949 0 20.14089101 0 2451.55665507 0 345.71673398 0 647.19953030 0 30867
0.16950000 0.16949900 8441.59580336 0 101.25840348 0 2360.78573621 0 65.94444143 0 575.86939935 0 30852
0.17050000 0.17049200 8298.38635416 0 197.82258414 0 2225.53728855 0 -93.94601873 0 491.66879804 0 31257
0.17150000 0.17149500 8092.93936715 0 46.48925949 0 2118.01394223 0 -12.88032474 0 413.50925714 0 32608
0.17250000 0.17250900 8230.56836464 0 -54.01578301 0 1963.23391359 0 350.71035247 0 266.58061403 0 32361
0.17350000 0.17350400 8197.97144038 0 -169.37113829 0 1662.33241432 0 188.64916303 0 27.05533642 0 32508
0.17450000 0.17449800 8361.72005212 0 14.62078348 0 1711.57104279 0 171.38519417 0 -370.38808814 0 32791
0.17550000 0.17549800 8203.80655555 0 136.99455328 0 1634.57409600 0 -193.95391385 0 -192.49679590 0 33633
0.17650000 0.17650100 8202.11248986 0 186.83883792 0 1665.82019664 0 -89.26142882 0 -239.08692427 0 33984
0.17750000 0.17750300 8017.33753328 0 88.39324783 0 1495.02958631 0 136.60259299 0 -84.36890065 0 34069
0.17850000 0.17849800 7989.70101054 0 98.82415287 0 1760.47750152 0 122.33479522 0 -132.08840616 0 34536
