### header ###
fiducial parameters:
Omega_m = 0.31
Omega_nu = 0
Omega_de = 0.69
Omega_k = 0
H_0 = 100
w_de = -1
zeff = 0
beta = 0
fgrowth = 0
b_1 = 2
gamma = 0.55
Lx = 3500 Ly = 3500 Lz = 3500
nx = 700 ny = 700 nz = 700
xoffset = -685.467585 yoffset = -31.7331281 zoffset = 572.489161
bins = 400 dk = 0.001
kx_ny = 0.628318531 ky_ny = 0.628318531 kz_ny = 0.628318531
############################
A(data) = 8.05259321 (not used)
A(ran) = 8.04147246 (used)
Ngal = 477949
weighted Ngal = 0
Nran = 23820508
weighted Nran = 0
SN(data) = 3499.14224
SN(ran) = 70.0441415
SN(data+ran) = 3569.18639
############################
13 columns: k_central k_mean P_0(k) sigma^{lin}_{P_0(k)} P^img_1(k) sigma^{lin}_{P_1(k)} P_2(k) sigma^{lin}_{P_2(k)} P^img_3(k) sigma^{lin}_{P_3(k)} P_4(k) sigma^{lin}_{P_4(k)} N_modes
### header ###
0.00050000 0 0 0 0 0 0 0 0 0 0 0 0
0.00150000 0.00179520 18142.00421535 0 -29119.43921030 0 -44228.51221133 0 61271.92035818 0 -14677.36305635 0 3
0.00250000 0.00253879 32091.36191488 0 -37705.58421417 0 -12154.53384642 0 -29600.97461667 0 30819.37323971 0 6
0.00350000 0.00331552 52577.04512459 0 -32435.15760049 0 -17622.82290461 0 -34867.08302366 0 13335.17584183 0 7
0.00450000 0.00420575 68366.51248572 0 -11456.86665960 0 3865.34859419 0 -27457.04036203 0 15623.71465860 0 24
0.00550000 0.00557378 58045.11273628 0 18020.98370508 0 -7194.94060738 0 -5347.73358556 0 27502.32617054 0 45
0.00650000 0.00659388 53568.46108885 0 5946.19274201 0 5729.44091136 0 27801.38966389 0 17910.81407314 0 40
0.00750000 0.00754703 47538.14082287 0 -1970.66344355 0 2800.14665734 0 3287.99328885 0 -6783.02797948 0 57
0.00850000 0.00846663 51062.35108940 0 -4666.71917526 0 12325.26909512 0 5814.44314899 0 -15577.98595710 0 75
0.00950000 0.00948925 50363.46594685 0 1351.75370316 0 19484.74504611 0 -500.45800948 0 15198.98027856 0 112
0.01050000 0.01054430 61023.01449625 0 -1028.35877602 0 26120.16786343 0 11175.74033245 0 33924.93890484 0 105
0.01150000 0.01145670 65503.20928762 0 -8890.05817549 0 26290.23877264 0 5381.19415116 0 41837.44366674 0 144
0.01250000 0.01249090 79855.93178029 0 -6680.84149372 0 25175.25566340 0 12234.47603161 0 7094.09387293 0 169
0.01350000 0.01339930 77897.68041286 0 -13088.37372163 0 24415.69418085 0 -18190.50099806 0 -361.18809344 0 180
0.01450000 0.01448870 92680.34127824 0 8838.06253814 0 45420.22653156 0 7419.62022260 0 -639.00822440 0 267
0.01550000 0.01550050 76908.58963681 0 688.54248394 0 19059.34632658 0 -12313.64315406 0 -7206.92086283 0 238
0.01650000 0.01653350 84760.19661221 0 1773.91930384 0 34461.50376555 0 19848.91380939 0 -18705.03193238 0 315
0.01750000 0.01747870 85819.15375787 0 -2481.18619629 0 30997.41622279 0 -6628.20366154 0 -13583.52808752 0 297
0.01850000 0.01844180 84709.37464129 0 2984.23512977 0 30930.98227388 0 8226.05085612 0 -28399.84882034 0 388
0.01950000 0.01947590 76949.33579215 0 3345.34793141 0 18121.18824469 0 -1809.90435951 0 -10769.39708393 0 399
0.02050000 0.02045430 82307.12304864 0 2364.42853107 0 24032.37029562 0 -4459.24595281 0 -28844.62410830 0 462
0.02150000 0.02154770 76748.15165019 0 1713.89623100 0 21070.08051364 0 -3878.40286515 0 -11152.37772709 0 571
0.02250000 0.02255340 77434.41434245 0 9289.82446307 0 27100.29005637 0 -5609.63835682 0 -12739.81693633 0 510
0.02350000 0.02348930 70136.53433123 0 5839.46660308 0 22702.36263841 0 2786.16231109 0 2744.10962143 0 555
0.02450000 0.02439640 65654.90013764 0 2678.10749319 0 24319.14350843 0 9305.09319899 0 -12377.41974502 0 592
0.02550000 0.02547300 61413.97828560 0 4005.98926404 0 21741.83846039 0 12988.61207501 0 -7552.13380603 0 837
0.02650000 0.02652900 52925.71263313 0 3901.69903657 0 14600.41039886 0 8113.06885367 0 -2406.20441261 0 723
0.02750000 0.02749970 56390.68596188 0 -323.62412426 0 17793.33670681 0 7311.34395820 0 4283.02990332 0 826
0.02850000 0.02848090 55801.63828152 0 -5441.13971773 0 10407.75281071 0 2393.89198742 0 -162.44318465 0 831
0.02950000 0.02946900 60884.27826628 0 -2477.24444865 0 16220.07007333 0 -5071.09154997 0 -912.19901635 0 996
0.03050000 0.03053250 62497.07309936 0 3710.63499950 0 21948.11587176 0 -11298.86458444 0 5319.89776097 0 1041
0.03150000 0.03150510 59866.06727595 0 4397.79455007 0 30300.41337546 0 328.53470032 0 3975.80610658 0 1036
0.03250000 0.03246190 57987.42592397 0 883.65345573 0 30313.36799550 0 -1751.67500328 0 12249.64511661 0 1059
0.03350000 0.03345080 57319.87546066 0 1747.67789402 0 35340.09273991 0 5882.19470456 0 7156.86288233 0 1302
0.03450000 0.03451200 58802.79192362 0 1803.78136388 0 33699.17420179 0 9550.03516863 0 11606.56449115 0 1339
0.03550000 0.03553350 55357.08444006 0 1872.69551355 0 31663.97017688 0 3054.50010307 0 12817.98754955 0 1365
0.03650000 0.03647120 52132.38055987 0 4403.17569993 0 29957.61419907 0 5474.51170473 0 9580.98231650 0 1308
0.03750000 0.03744890 50942.88070461 0 2927.66662227 0 29684.34922255 0 4356.45048920 0 12845.22546861 0 1579
0.03850000 0.03847530 48218.75662947 0 -698.23630432 0 20211.97534020 0 8463.37506628 0 14050.33730187 0 1662
0.03950000 0.03950240 49542.01016855 0 -1525.71099839 0 24323.79388485 0 6130.14834654 0 9312.19055920 0 1683
0.04050000 0.04050350 50050.22987773 0 -466.62652099 0 18568.28872087 0 6747.39723821 0 8674.42464965 0 1822
0.04150000 0.04152450 47679.86658055 0 2493.10001779 0 18234.79029733 0 -1844.31714504 0 8808.37763530 0 1887
0.04250000 0.04250150 46642.72191479 0 3314.82153188 0 20988.36675648 0 -3010.32152704 0 12462.34447638 0 1920
0.04350000 0.04349210 45614.54583213 0 2464.56663673 0 23057.00920235 0 -946.06815073 0 12047.02157243 0 2005
0.04450000 0.04448520 43194.57851977 0 459.38854226 0 23598.44588598 0 1955.02932090 0 11347.25064389 0 2151
0.04550000 0.04548030 43678.88200733 0 -576.69982371 0 22437.62335199 0 2249.47565481 0 10677.65180049 0 2274
0.04650000 0.04648670 43377.93621876 0 507.95175892 0 23235.93797142 0 4729.03421934 0 7033.47289455 0 2311
0.04750000 0.04749250 42134.84631137 0 2289.21422858 0 20416.37045635 0 3257.21222585 0 6004.85391890 0 2568
0.04850000 0.04851840 39942.30455078 0 2153.05785029 0 15723.14413547 0 3010.01150195 0 5496.24667835 0 2493
0.04950000 0.04949480 38588.93428820 0 68.79645086 0 15806.29729486 0 4642.03896324 0 9194.29244453 0 2644
0.05050000 0.05050630 38231.18747331 0 -77.16790348 0 12776.68777798 0 4886.90342661 0 5775.03674496 0 2829
0.05150000 0.05149060 38375.79203544 0 393.53921210 0 11664.91564294 0 5552.59373935 0 5344.57797299 0 2784
0.05250000 0.05249300 37279.41043190 0 771.55059587 0 7617.81483685 0 1570.46533530 0 4854.25114072 0 3055
0.05350000 0.05348950 36403.81098524 0 1301.82859055 0 8531.46986391 0 -1139.05434339 0 6846.30631581 0 3009
0.05450000 0.05448610 34951.01124579 0 1046.85952356 0 9401.87639023 0 -2285.02888980 0 5496.27989533 0 3336
0.05550000 0.05550870 34475.23344833 0 1205.66544950 0 9646.74085360 0 -1875.23107594 0 5832.26959195 0 3349
0.05650000 0.05647670 34022.04319350 0 250.63314459 0 11685.51016710 0 -1615.59613126 0 3844.20045379 0 3324
0.05750000 0.05747970 34005.21325978 0 307.36995143 0 13989.43951537 0 -554.19421629 0 3228.77849572 0 3639
0.05850000 0.05849280 33745.45651953 0 84.29360884 0 13265.19874898 0 1589.00040705 0 2193.50505285 0 3846
0.05950000 0.05951020 34392.08028894 0 -330.39817259 0 12122.42410445 0 395.00629514 0 2872.06140703 0 3787
0.06050000 0.06049470 34019.93945179 0 -227.32036469 0 10810.17645624 0 2358.22802917 0 -297.30299371 0 3930
0.06150000 0.06148310 34029.12948139 0 333.77744612 0 9857.86794324 0 798.56042504 0 -1107.00328474 0 4083
0.06250000 0.06249100 33291.04830898 0 993.67471852 0 9437.85037357 0 -602.28021574 0 -2108.65782776 0 4303
0.06350000 0.06350600 32230.87320759 0 1264.12732454 0 10591.45375177 0 -1322.79957376 0 -3333.96558149 0 4470
0.06450000 0.06451750 31469.31870656 0 1094.63549792 0 8887.24580499 0 -591.82904835 0 -1997.30345706 0 4479
0.06550000 0.06550280 30956.78079071 0 1180.95202051 0 10221.30593309 0 -294.73642881 0 -977.47369285 0 4636
0.06650000 0.06648880 30624.94321589 0 659.75222495 0 10222.22493605 0 208.61256468 0 1527.91439102 0 4653
0.06750000 0.06749660 30242.17294691 0 -5.03701093 0 11876.83993997 0 1868.05620945 0 2164.11910278 0 5220
0.06850000 0.06852730 29857.18821297 0 662.35532851 0 11888.24443453 0 2107.10770229 0 2770.88250284 0 5029
0.06950000 0.06949320 29556.35314765 0 672.01371745 0 12627.43283943 0 1963.16747965 0 4874.14810842 0 5040
0.07050000 0.07048030 28927.44509795 0 1081.93554135 0 12161.39868781 0 510.94128662 0 4649.19168508 0 5475
0.07150000 0.07148790 27796.62856422 0 1102.84673400 0 11427.41427558 0 754.25562451 0 5867.56816347 0 5509
0.07250000 0.07249820 26529.17954223 0 639.50094285 0 10892.08951525 0 352.55168009 0 4971.69529007 0 5916
0.07350000 0.07351270 26166.67162767 0 974.63142707 0 9973.69553317 0 1657.22807258 0 4012.09011501 0 5721
0.07450000 0.07449140 25374.33606364 0 338.77106462 0 8799.22082268 0 1706.99817264 0 2181.09297673 0 6028
0.07550000 0.07549160 25005.07403094 0 -19.76531776 0 6346.81159860 0 277.67286903 0 -523.90144282 0 6183
0.07650000 0.07648840 24894.68295250 0 25.09730650 0 8233.58003699 0 210.32213163 0 -812.15391822 0 6330
0.07750000 0.07749960 25111.03617946 0 333.14300191 0 6936.18037637 0 -1356.24906704 0 -2193.13966613 0 6583
0.07850000 0.07848650 24366.20088891 0 861.85758433 0 8065.82324366 0 -793.50480152 0 -1008.04991784 0 6549
0.07950000 0.07947320 24066.69450256 0 539.53335100 0 7651.30861943 0 581.85952708 0 -609.79168090 0 6828
0.08050000 0.08048110 23614.50075697 0 229.11961747 0 8418.73145261 0 364.07464852 0 -103.80592398 0 7147
0.08150000 0.08149960 23612.61846175 0 396.61842563 0 8617.00357314 0 1766.03580857 0 -427.43713453 0 7386
0.08250000 0.08250610 23229.18385328 0 494.27965223 0 7908.80660541 0 814.28091181 0 1324.54900108 0 7227
0.08350000 0.08350160 22467.29718251 0 799.15279441 0 8073.49636476 0 692.25503445 0 699.39225503 0 7798
0.08450000 0.08449610 22111.54338608 0 643.90994260 0 8467.91471945 0 -174.42676180 0 2396.97009372 0 7371
0.08550000 0.08548940 21415.09415499 0 613.25510410 0 8437.11151181 0 -500.70049339 0 1999.03073973 0 8256
0.08650000 0.08650700 21714.37909484 0 102.08517398 0 9159.17103021 0 -153.29855158 0 1762.84697903 0 8037
0.08750000 0.08749060 21743.16713937 0 -321.21367915 0 9992.26382189 0 -261.46852166 0 1679.56095174 0 8155
0.08850000 0.08849210 21891.09339895 0 300.68116001 0 9329.81770031 0 -96.32291470 0 332.50523600 0 8718
0.08950000 0.08949900 21252.10953366 0 349.04950375 0 9222.30542632 0 789.09469455 0 1442.46926040 0 8571
0.09050000 0.09049190 21068.30894167 0 167.18213967 0 7800.12066499 0 1196.48649223 0 209.59578712 0 8932
0.09150000 0.09150830 20728.16712324 0 76.84525594 0 7891.48948940 0 1648.18198320 0 139.07615035 0 9285
0.09250000 0.09250820 20489.55852340 0 518.74173945 0 7225.93204455 0 1293.67935949 0 -776.10907200 0 9204
0.09350000 0.09350330 20033.48946412 0 633.89834649 0 6690.86194769 0 187.54635948 0 -733.49390824 0 9349
0.09450000 0.09448040 19352.32004128 0 606.69696611 0 7026.87378896 0 -923.02442832 0 589.00339105 0 9564
0.09550000 0.09549270 19186.01372250 0 493.27207067 0 7004.75128397 0 202.17179333 0 319.76984799 0 10155
0.09650000 0.09649430 18972.53930000 0 -41.82249603 0 6923.80151722 0 883.60363027 0 1723.80596172 0 9913
0.09750000 0.09749140 18746.11025746 0 28.26388067 0 6482.51401157 0 700.18614072 0 67.32449600 0 10476
0.09850000 0.09850240 18732.93419092 0 522.21180605 0 6196.27227036 0 551.71622999 0 457.98124978 0 10575
0.09950000 0.09950330 18045.78571268 0 544.21140823 0 5855.07858107 0 -421.72935109 0 80.12820025 0 10882
0.10050000 0.10051200 17597.24583427 0 106.74208307 0 5403.19486058 0 598.00186943 0 -277.74151745 0 10875
0.10150000 0.10150300 17349.44720483 0 30.04663569 0 5161.34206956 0 132.21241619 0 -679.40006534 0 11118
0.10250000 0.10250800 17614.40793774 0 307.54821586 0 4770.32291859 0 255.04103711 0 -1532.03329586 0 11575
0.10350000 0.10349800 16899.35720096 0 499.24337545 0 4596.43205732 0 382.44031370 0 -1444.19654307 0 11364
0.10450000 0.10450100 16567.96251913 0 475.17546299 0 3859.33632181 0 -56.15152375 0 -1653.89530281 0 12093
0.10550000 0.10551000 16664.29174506 0 138.65318754 0 4275.14640805 0 424.50075399 0 -942.97565041 0 12067
0.10650000 0.10649700 15904.06592301 0 231.59538930 0 4359.29607667 0 -141.22307413 0 -1400.59372793 0 12054
0.10750000 0.10749900 16291.92946140 0 110.39428942 0 4231.39965269 0 277.49903353 0 -31.60240805 0 12807
0.10850000 0.10850100 15899.41554658 0 74.43957193 0 3960.53737066 0 501.20206971 0 -566.23758399 0 12736
0.10950000 0.10950300 15648.07377320 0 265.24086273 0 4061.37303278 0 705.40009848 0 -529.07886190 0 12933
0.11050000 0.11050200 15498.81883464 0 222.57476627 0 3701.10172783 0 623.39181747 0 -973.30053363 0 13428
0.11150000 0.11150900 15385.65967500 0 270.57993776 0 3559.04380041 0 584.52906459 0 -223.86358488 0 13453
0.11250000 0.11250000 14983.62356083 0 327.55369234 0 3370.63712129 0 26.97450845 0 57.33371587 0 13668
0.11350000 0.11349100 14937.23051984 0 -23.41032709 0 2971.60160715 0 465.36316873 0 -456.82197737 0 13791
0.11450000 0.11448600 14882.75468174 0 190.04981212 0 3529.75750126 0 15.63633711 0 -85.96198675 0 14205
0.11550000 0.11549300 14803.80900578 0 318.87852585 0 3460.82120694 0 -480.29973491 0 -110.59281620 0 14776
0.11650000 0.11649800 14477.17542363 0 299.93267085 0 4410.64951918 0 -280.03681038 0 492.05300771 0 14553
0.11750000 0.11747300 14412.18087694 0 250.22346858 0 4425.44214514 0 -340.63010795 0 759.19055968 0 14568
0.11850000 0.11849100 14493.45174111 0 64.14031683 0 4806.14188938 0 -296.81359695 0 1078.92608347 0 16015
0.11950000 0.11950300 14281.74889058 0 3.72188448 0 5072.75239869 0 426.09959769 0 1139.94012938 0 15270
0.12050000 0.12050700 14416.38836037 0 282.54912088 0 5315.91172403 0 525.04632120 0 1523.04256810 0 15999
0.12150000 0.12150000 14038.82208406 0 -54.79837493 0 4426.94798132 0 510.05771510 0 1481.83137513 0 15670
0.12250000 0.12250700 14311.53344434 0 -186.83440899 0 4509.27071634 0 465.49603663 0 716.44474248 0 16887
0.12350000 0.12352200 14288.72445521 0 -33.70803206 0 4205.66756982 0 74.87858960 0 249.32328857 0 16407
0.12450000 0.12449800 14310.31548861 0 249.04094429 0 4419.96134436 0 -54.08830674 0 201.55395760 0 16306
0.12550000 0.12549900 13886.13472481 0 559.33731117 0 3972.55084308 0 -861.42465643 0 109.35725547 0 17523
0.12650000 0.12650100 13551.41834554 0 612.21984173 0 4747.61358039 0 -387.70188245 0 69.36501474 0 17154
0.12750000 0.12750600 13064.67894651 0 559.41813914 0 4327.52957677 0 134.93510087 0 341.09625283 0 18007
0.12850000 0.12850300 12623.88969548 0 188.59933757 0 4448.43936379 0 688.40518711 0 686.35348532 0 17496
0.12950000 0.12949900 12477.40283813 0 -193.26300078 0 3917.41066549 0 1086.11534397 0 432.54922690 0 18405
0.13050000 0.13049000 12669.50767374 0 -234.31918121 0 3895.32137747 0 965.01400573 0 -82.27523475 0 18100
0.13150000 0.13148800 12722.87627936 0 156.95574047 0 3359.84160459 0 226.44122210 0 -159.87661975 0 19059
0.13250000 0.13249300 12484.15695627 0 310.98617272 0 3326.61355781 0 -713.39431700 0 382.27755053 0 18957
0.13350000 0.13349100 12453.92950952 0 251.33734445 0 3450.50180021 0 -332.69567999 0 397.29273021 0 19468
0.13450000 0.13450700 12286.84812800 0 103.56033981 0 3731.76099525 0 -222.04772361 0 646.75885177 0 19953
0.13550000 0.13551000 12261.60322742 0 16.33322923 0 3266.91158239 0 582.76081432 0 477.42093046 0 19956
0.13650000 0.13649900 12219.08550011 0 56.63206264 0 3382.62844907 0 675.12836242 0 828.90966736 0 19723
0.13750000 0.13749600 12044.36421448 0 92.52211776 0 3273.14530126 0 700.00344736 0 743.85538980 0 20946
0.13850000 0.13851100 11984.24149071 0 191.57447124 0 2602.74925047 0 705.63815346 0 1259.36622487 0 20955
0.13950000 0.13949800 11806.30923087 0 179.08931778 0 2596.65947182 0 23.86606398 0 983.83806516 0 20506
0.14050000 0.14048300 11535.70161231 0 239.79444583 0 2091.65073684 0 148.12334696 0 1055.15380208 0 21447
0.14150000 0.14148400 11396.07959634 0 165.95532608 0 2292.64664927 0 -5.21708015 0 496.41882538 0 21771
0.14250000 0.14249400 11104.87745361 0 174.22081656 0 1946.03859315 0 -102.30518107 0 618.10699684 0 22470
0.14350000 0.14350900 11189.58073848 0 246.34040426 0 2340.47909249 0 -107.20844940 0 106.05748123 0 22519
0.14450000 0.14449900 10852.26236288 0 175.41884210 0 2131.69933571 0 -125.07298115 0 198.85673928 0 22218
0.14550000 0.14550500 10885.84472405 0 211.39725437 0 2520.37115382 0 -403.27510731 0 226.06033412 0 23559
0.14650000 0.14650700 10581.90940778 0 270.46700004 0 2675.82659427 0 -244.21451790 0 152.82244161 0 23044
0.14750000 0.14750500 10460.52351079 0 214.69127100 0 2971.72340273 0 23.79376170 0 541.70906282 0 23649
0.14850000 0.14849900 10409.74582917 0 79.15139975 0 3077.36445382 0 190.63664533 0 298.85533365 0 23640
0.14950000 0.14949500 10301.17061200 0 89.12114247 0 3127.65495315 0 300.78856156 0 467.57320477 0 24457
0.15050000 0.15050000 10217.39740242 0 294.26253331 0 3220.92821742 0 -5.47103499 0 587.41340521 0 24591
0.15150000 0.15149900 9914.10428099 0 239.75790716 0 3044.25820261 0 -145.58778458 0 604.08279022 0 25020
0.15250000 0.15250500 9920.20513197 0 202.14632698 0 3365.08988656 0 -183.32337479 0 965.80124803 0 25297
0.15350000 0.15350100 9870.41288726 0 -20.11298876 0 3256.96863470 0 328.35865036 0 835.51763082 0 25452
0.15450000 0.15450400 9705.84492348 0 -51.56603115 0 3193.12560980 0 110.90261985 0 459.25013820 0 26061
0.15550000 0.15549900 9802.24058335 0 132.59330417 0 3087.87209007 0 176.89810470 0 488.86417816 0 26128
0.15650000 0.15649500 9689.96720969 0 122.57395744 0 3246.41670915 0 136.05229844 0 448.84547457 0 26331
0.15750000 0.15749700 9527.79086807 0 228.00131267 0 2778.74385346 0 169.79631556 0 611.59093368 0 27345
0.15850000 0.15849900 9306.38866100 0 81.35667469 0 2718.70970830 0 310.60085581 0 316.26656442 0 26980
0.15950000 0.15949700 9282.89318773 0 145.62100155 0 2583.31732041 0 115.57514092 0 302.20803360 0 27777
0.16050000 0.16050000 9337.30259189 0 -63.63807617 0 2662.80554029 0 5.51453816 0 118.29007497 0 28224
0.16150000 0.16150500 9272.35233450 0 -47.29731776 0 2434.07345418 0 193.07809296 0 497.15624222 0 28075
0.16250000 0.16249700 9329.68483241 0 115.91173960 0 2354.16448597 0 -102.61454183 0 117.39764559 0 28590
0.16350000 0.16349900 9088.17528347 0 312.65034314 0 2597.70027035 0 -25.85066748 0 234.38229346 0 29163
0.16450000 0.16449100 8982.78889585 0 332.01694648 0 2545.71570533 0 -41.22038300 0 448.09144925 0 28996
0.16550000 0.16550500 8692.52790073 0 132.13269546 0 2382.33248030 0 9.05180270 0 651.07484399 0 30777
0.16650000 0.16650700 8574.53013513 0 86.53431522 0 2482.90240663 0 35.09904823 0 190.29451050 0 29211
0.16750000 0.16749900 8670.99222895 0 -1.86433591 0 2370.56259902 0 24.73291629 0 -86.81300563 0 30922
0.16850000 0.16850800 8503.21329098 0 41.76038029 0 2340.95520246 0 -56.48612940 0 -263.76713629 0 30867
0.16950000 0.16949900 8487.23592626 0 140.43361737 0 2393.18335863 0 -60.87674909 0 -425.99883954 0 30852
0.17050000 0.17049200 8378.49462422 0 209.32340793 0 2285.21711932 0 160.39812625 0 -210.71187746 0 31257
0.17150000 0.17149500 8261.59301878 0 169.43092884 0 2371.75841010 0 110.30482503 0 -303.53339088 0 32608
0.17250000 0.17250900 8076.86235151 0 144.23031755 0 2316.14212254 0 66.53094248 0 -159.76921820 0 32361
0.17350000 0.17350400 8123.83115339 0 48.90391209 0 2474.26599327 0 164.26236761 0 77.76857711 0 32508
0.17450000 0.17449800 8119.25828324 0 -17.21237182 0 2469.42738733 0 -24.43363135 0 170.89469018 0 32791
0.17550000 0.17549800 8126.75424714 0 80.22386513 0 2614.76272290 0 -21.47621339 0 222.16841195 0 33633
0.17650000 0.17650100 8144.60283475 0 31.92804512 0 2636.11016515 0 -74.88013973 0 241.59591308 0 33984
0.17750000 0.17750300 8151.64483333 0 0.96286930 0 2616.53429487 0 147.47672319 0 295.28007996 0 34069
0.17850000 0.17849800 8030.66861237 0 109.81996793 0 2562.01416746 0 150.90914388 0 348.75055098 0 34536
