### header ###
fiducial parameters:
Omega_m = 0.31
Omega_nu = 0
Omega_de = 0.69
Omega_k = 0
H_0 = 100
w_de = -1
zeff = 0
beta = 0
fgrowth = 0
b_1 = 2
gamma = 0.55
Lx = 3500 Ly = 3500 Lz = 3500
nx = 700 ny = 700 nz = 700
xoffset = -685.467585 yoffset = -31.7331281 zoffset = 572.489161
bins = 400 dk = 0.001
kx_ny = 0.628318531 ky_ny = 0.628318531 kz_ny = 0.628318531
############################
A(data) = 8.00971502 (not used)
A(ran) = 7.99877441 (used)
Ngal = 474883
weighted Ngal = 0
Nran = 23820508
weighted Nran = 0
SN(data) = 3496.50349
SN(ran) = 69.672226
SN(data+ran) = 3566.17572
############################
13 columns: k_central k_mean P_0(k) sigma^{lin}_{P_0(k)} P^img_1(k) sigma^{lin}_{P_1(k)} P_2(k) sigma^{lin}_{P_2(k)} P^img_3(k) sigma^{lin}_{P_3(k)} P_4(k) sigma^{lin}_{P_4(k)} N_modes
### header ###
0.00050000 0 0 0 0 0 0 0 0 0 0 0 0
0.00150000 0.00179520 2779.47462690 0 -641.25701357 0 -1903.84196327 0 -1649.30028801 0 -14910.21404729 0 3
0.00250000 0.00253879 1144.35798698 0 -197.04530694 0 -7506.60440637 0 12256.95285099 0 -1828.80481797 0 6
0.00350000 0.00331552 8148.81031818 0 -10400.55579957 0 -7462.42583035 0 5812.99267444 0 -8409.66321858 0 7
0.00450000 0.00420575 16093.95629365 0 -12335.78780370 0 -6205.44015531 0 -2892.99917327 0 -14113.89244633 0 24
0.00550000 0.00557378 29624.89083827 0 -5341.98704898 0 702.27770288 0 -8467.16180137 0 2636.90737254 0 45
0.00650000 0.00659388 33418.38004439 0 -8959.95776207 0 -1768.28349051 0 -20295.79283908 0 -5909.80908265 0 40
0.00750000 0.00754703 40936.82076600 0 -6062.31928471 0 -3434.56872480 0 10946.99717402 0 -3582.36211647 0 57
0.00850000 0.00846663 58987.58902484 0 -22082.86606480 0 9487.94157105 0 -7812.93134481 0 2701.69154505 0 75
0.00950000 0.00948925 62587.53399313 0 -15505.24078304 0 6334.20022063 0 5595.10039433 0 -9277.76670134 0 112
0.01050000 0.01054430 82509.52514633 0 943.40525662 0 13173.07700649 0 -12690.21292115 0 -10334.79726248 0 105
0.01150000 0.01145670 75208.10199117 0 6867.52089017 0 16401.43475386 0 -3836.22837992 0 -2160.35451234 0 144
0.01250000 0.01249090 75042.12784213 0 9133.19535618 0 24693.94170354 0 -10982.30681787 0 4248.90499823 0 169
0.01350000 0.01339930 67165.94030564 0 6119.07602173 0 34766.43559106 0 -5386.14348036 0 338.71016683 0 180
0.01450000 0.01448870 68410.35889201 0 -2249.63066735 0 31913.20820854 0 8900.84261986 0 -11042.87243463 0 267
0.01550000 0.01550050 69322.60773381 0 -2047.09570177 0 21961.51338479 0 2720.91310093 0 -2299.72186483 0 238
0.01650000 0.01653350 72126.67399414 0 2380.46125741 0 13119.15478462 0 13376.36489016 0 -10023.79780297 0 315
0.01750000 0.01747870 74413.66268543 0 -1850.14118790 0 2904.20436598 0 297.94297408 0 -2549.86782714 0 297
0.01850000 0.01844180 68601.24577188 0 -4229.22947703 0 -2305.28017189 0 8409.29783186 0 -9637.81655979 0 388
0.01950000 0.01947590 72736.98053814 0 -1929.37474430 0 -3950.04080673 0 -860.60751885 0 -8464.81446850 0 399
0.02050000 0.02045430 74260.97532618 0 -788.43367676 0 -2263.38249478 0 -2178.92280106 0 -11691.93211550 0 462
0.02150000 0.02154770 74348.55741549 0 1074.41411110 0 3177.14824509 0 -11880.49380716 0 290.32189291 0 571
0.02250000 0.02255340 73345.07261718 0 4764.90855176 0 18069.14831805 0 -6244.83548702 0 277.05281884 0 510
0.02350000 0.02348930 72927.75669477 0 1081.44060843 0 26461.97053058 0 -7836.32716715 0 12482.38538430 0 555
0.02450000 0.02439640 74805.51226076 0 698.85414004 0 31667.84549056 0 9615.76048875 0 4524.42872902 0 592
0.02550000 0.02547300 74106.73784146 0 1484.07905707 0 32346.80044844 0 903.50945583 0 12687.00194695 0 837
0.02650000 0.02652900 74487.62581522 0 3519.06163549 0 41653.20018176 0 386.70426599 0 10972.77354620 0 723
0.02750000 0.02749970 67345.09052120 0 6451.96546740 0 39876.53494136 0 5170.73140101 0 4426.28364183 0 826
0.02850000 0.02848090 67392.48007143 0 2678.62789245 0 34522.40155206 0 7116.08351002 0 17397.16892480 0 831
0.02950000 0.02946900 63588.47215673 0 4043.69053004 0 32840.51541210 0 4939.22016138 0 6256.32856018 0 996
0.03050000 0.03053250 62545.56988207 0 4338.15900860 0 28632.81053452 0 6853.81335204 0 6884.30653459 0 1041
0.03150000 0.03150510 55049.71670309 0 85.91371141 0 26908.40666727 0 11028.58913561 0 9919.34149063 0 1036
0.03250000 0.03246190 55660.24469359 0 2017.18935244 0 22059.17128969 0 5663.10661337 0 1279.48463907 0 1059
0.03350000 0.03345080 53152.14167567 0 -545.09497975 0 22163.36186624 0 6624.79338549 0 -1179.90014965 0 1302
0.03450000 0.03451200 51692.25564833 0 4043.76803632 0 20732.70677642 0 2449.55256428 0 10018.43879776 0 1339
0.03550000 0.03553350 49473.69392442 0 2139.44996308 0 18880.63900400 0 2107.17413624 0 9630.92957375 0 1365
0.03650000 0.03647120 46640.61817307 0 775.89316167 0 15422.30907015 0 3812.77719595 0 10782.72816301 0 1308
0.03750000 0.03744890 48012.36849486 0 129.06123255 0 14940.44149404 0 4071.27169117 0 6942.00441922 0 1579
0.03850000 0.03847530 46496.45650393 0 751.19634116 0 11913.26788862 0 1076.42927422 0 9083.13737568 0 1662
0.03950000 0.03950240 48460.90837326 0 -1202.87522365 0 11006.55520922 0 4323.62104611 0 7889.37467535 0 1683
0.04050000 0.04050350 47146.29124754 0 -500.54658808 0 9822.39221452 0 -1944.98672229 0 3499.82900728 0 1822
0.04150000 0.04152450 47692.37830760 0 2472.19546853 0 13125.79817951 0 -2538.59620047 0 3594.96242212 0 1887
0.04250000 0.04250150 46941.12106865 0 2295.81333417 0 17453.63778138 0 -2458.25541159 0 10419.11301597 0 1920
0.04350000 0.04349210 45090.16052872 0 1157.84407861 0 16519.13356668 0 3024.62697071 0 8685.03193682 0 2005
0.04450000 0.04448520 45077.31663193 0 -1434.09858284 0 16426.34748470 0 2859.73790951 0 10484.94905934 0 2151
0.04550000 0.04548030 47842.96192513 0 -177.53033444 0 19453.74253662 0 1464.59176539 0 6526.67044295 0 2274
0.04650000 0.04648670 45673.67204666 0 2775.10105860 0 18547.02985722 0 -988.63681073 0 8660.09706133 0 2311
0.04750000 0.04749250 44206.58900819 0 3482.86620565 0 18687.75910566 0 -1894.98410341 0 8361.08892960 0 2568
0.04850000 0.04851840 40224.64883366 0 3317.41245589 0 15646.08075473 0 657.24766507 0 7267.65256446 0 2493
0.04950000 0.04949480 37772.46105607 0 2205.77318875 0 16445.28116014 0 2107.93812665 0 2810.74287219 0 2644
0.05050000 0.05050630 35950.28856067 0 704.22753928 0 14692.08924836 0 3196.28122237 0 -2033.65389944 0 2829
0.05150000 0.05149060 35071.36741657 0 817.01577604 0 14715.56257697 0 1001.96346088 0 -261.71986344 0 2784
0.05250000 0.05249300 34025.58633744 0 1559.01655144 0 14177.44759079 0 1060.60027866 0 -2011.78605792 0 3055
0.05350000 0.05348950 32754.92634126 0 1424.04491190 0 12850.65090777 0 1003.46265366 0 792.24698542 0 3009
0.05450000 0.05448610 32492.18007331 0 -3.19949220 0 13190.46055645 0 2155.41625547 0 3393.25788090 0 3336
0.05550000 0.05550870 32853.69147864 0 -175.51406410 0 14488.57991819 0 2540.04667502 0 4276.43079773 0 3349
0.05650000 0.05647670 33554.79108616 0 198.92317323 0 14519.80387418 0 1502.01622327 0 1815.98306583 0 3324
0.05750000 0.05747970 32477.12171156 0 773.51704076 0 16446.83128562 0 785.56815909 0 6646.61693771 0 3639
0.05850000 0.05849280 32612.20407434 0 514.76345314 0 14184.86604842 0 2835.09091446 0 6346.71194767 0 3846
0.05950000 0.05951020 31782.66549893 0 -575.07772813 0 12269.13240829 0 3133.88867202 0 7199.86779192 0 3787
0.06050000 0.06049470 32819.25654845 0 -185.73049821 0 11895.10927592 0 1320.92835086 0 3964.27981644 0 3930
0.06150000 0.06148310 32066.11701429 0 509.73440321 0 11517.65372285 0 -458.28130978 0 2867.33352434 0 4083
0.06250000 0.06249100 31643.15420622 0 1562.12787471 0 12811.12270817 0 -2471.89651576 0 462.01046878 0 4303
0.06350000 0.06350600 30810.84754960 0 465.29119862 0 11495.84124296 0 -991.29749039 0 162.52290539 0 4470
0.06450000 0.06451750 30293.43781082 0 -245.65945629 0 12012.14374925 0 -61.59047114 0 -510.46074772 0 4479
0.06550000 0.06550280 31629.97813968 0 -487.90863653 0 11954.89982994 0 484.50389665 0 -725.84403902 0 4636
0.06650000 0.06648880 30540.35065428 0 -8.42693605 0 11840.30126807 0 3575.90695111 0 -1232.42725859 0 4653
0.06750000 0.06749660 29823.63906877 0 1286.33840813 0 10826.69636487 0 1299.21552190 0 -1527.89224637 0 5220
0.06850000 0.06852730 28769.99663903 0 1646.25539869 0 9041.61615761 0 1079.11874192 0 -1408.58794645 0 5029
0.06950000 0.06949320 27802.71834287 0 843.13428306 0 11021.85716212 0 1576.25616118 0 290.75482081 0 5040
0.07050000 0.07048030 27949.09447697 0 -445.51713373 0 8199.73194002 0 -63.36536481 0 530.26138619 0 5475
0.07150000 0.07148790 28252.25473051 0 -395.08269418 0 9911.75694813 0 996.16931331 0 2215.92651061 0 5509
0.07250000 0.07249820 28129.35192502 0 -74.69799999 0 8690.83383503 0 507.35938954 0 1409.66196196 0 5916
0.07350000 0.07351270 28260.22680438 0 370.15778378 0 9387.86989934 0 2466.05032826 0 3763.72679700 0 5721
0.07450000 0.07449140 27757.65398086 0 803.55847246 0 8601.53553537 0 514.38477963 0 2968.99961082 0 6028
0.07550000 0.07549160 27281.43329041 0 663.74490528 0 8101.38755098 0 1515.29194073 0 2265.69661067 0 6183
0.07650000 0.07648840 26229.00881639 0 780.72844591 0 8577.16534844 0 -548.33031306 0 2975.94195848 0 6330
0.07750000 0.07749960 25744.48388233 0 1240.22217526 0 9160.54399848 0 -1178.87042344 0 3094.52655729 0 6583
0.07850000 0.07848650 25598.99353421 0 228.60807607 0 8562.36165016 0 -289.46489497 0 2039.43365300 0 6549
0.07950000 0.07947320 25088.67008332 0 272.01380382 0 9105.56990576 0 -894.32274793 0 1468.47815140 0 6828
0.08050000 0.08048110 25289.96494853 0 464.60471448 0 8491.08909530 0 -415.61742779 0 418.57373851 0 7147
0.08150000 0.08149960 24297.88464477 0 848.66490930 0 8861.62444536 0 718.45215497 0 -206.74355625 0 7386
0.08250000 0.08250610 24191.36888002 0 351.27725550 0 8090.07163502 0 1076.46249119 0 379.45410770 0 7227
0.08350000 0.08350160 23874.70039021 0 -515.29049581 0 8671.08080755 0 1541.44477195 0 1035.07967718 0 7798
0.08450000 0.08449610 23868.49988831 0 811.10426182 0 8490.40261116 0 1473.56034849 0 1011.99498717 0 7371
0.08550000 0.08548940 23342.34301293 0 378.75987293 0 8219.08636380 0 826.08290284 0 3046.46159525 0 8256
0.08650000 0.08650700 22947.94680289 0 283.01969469 0 7793.76515055 0 1325.20226824 0 3770.65807234 0 8037
0.08750000 0.08749060 23182.79081229 0 127.97393025 0 9019.89225631 0 -349.84671113 0 4041.27676323 0 8155
0.08850000 0.08849210 22834.34475025 0 390.90510602 0 8813.86950841 0 735.15807866 0 3265.10679345 0 8718
0.08950000 0.08949900 22384.80836261 0 962.25478239 0 8573.35646870 0 -409.15561902 0 3714.06742019 0 8571
0.09050000 0.09049190 21536.33611176 0 845.38971562 0 7931.44950967 0 454.49125299 0 4213.24103999 0 8932
0.09150000 0.09150830 21045.83212229 0 744.96483675 0 8613.57115244 0 815.73581529 0 4143.12000691 0 9285
0.09250000 0.09250820 20064.38125037 0 536.21386801 0 7878.50165238 0 730.86533833 0 3061.29851051 0 9204
0.09350000 0.09350330 19605.32266338 0 363.02609936 0 7986.85542306 0 887.61070462 0 1955.48328622 0 9349
0.09450000 0.09448040 19283.78235065 0 360.31670148 0 7737.15235375 0 -501.55195517 0 1417.00291332 0 9564
0.09550000 0.09549270 19016.60715278 0 516.14527928 0 8054.04229006 0 -711.21085454 0 1497.90839077 0 10155
0.09650000 0.09649430 18535.62536265 0 328.49151825 0 7625.82012770 0 -680.10094350 0 1232.20581209 0 9913
0.09750000 0.09749140 18485.79990097 0 373.81718713 0 7998.09383275 0 -72.74174164 0 115.36033782 0 10476
0.09850000 0.09850240 17963.85050902 0 364.12115229 0 6937.84122509 0 174.83865228 0 142.38898994 0 10575
0.09950000 0.09950330 17722.36310473 0 429.15113041 0 6845.06621543 0 707.05319657 0 -969.42854164 0 10882
0.10050000 0.10051200 17222.55836241 0 237.53901326 0 6166.65380147 0 179.32294383 0 -290.04065586 0 10875
0.10150000 0.10150300 17136.19422883 0 326.78527300 0 6455.43110507 0 373.79172079 0 -1245.80262697 0 11118
0.10250000 0.10250800 16848.31378354 0 235.25368542 0 6382.18767639 0 215.41982997 0 -1364.77475715 0 11575
0.10350000 0.10349800 16823.73322244 0 12.74269574 0 6576.08622862 0 -208.54945242 0 -529.21837319 0 11364
0.10450000 0.10450100 16477.61234861 0 437.20513949 0 6353.18925769 0 853.95637334 0 -23.92740466 0 12093
0.10550000 0.10551000 16456.24276171 0 84.74336668 0 6296.14464023 0 1119.77742588 0 541.61051913 0 12067
0.10650000 0.10649700 16325.81077535 0 -14.52080038 0 5911.07132768 0 780.44831610 0 408.40934433 0 12054
0.10750000 0.10749900 16275.09952768 0 83.52607529 0 5729.57377926 0 374.26450905 0 -219.73139326 0 12807
0.10850000 0.10850100 15752.92868923 0 642.58901425 0 5787.08343436 0 -342.50354531 0 510.63458322 0 12736
0.10950000 0.10950300 15425.63076759 0 491.36541634 0 6106.27641424 0 1.63851584 0 1355.36328105 0 12933
0.11050000 0.11050200 15258.43866283 0 -31.46954015 0 5881.59679902 0 250.68186282 0 1858.52293778 0 13428
0.11150000 0.11150900 15151.81217483 0 -51.06999099 0 5825.27188266 0 1135.34511458 0 618.94074290 0 13453
0.11250000 0.11250000 15286.45164462 0 112.71626665 0 5581.40392853 0 352.54503669 0 1096.42035668 0 13668
0.11350000 0.11349100 15049.94678650 0 289.21355319 0 5459.94052527 0 28.65495518 0 284.13024887 0 13791
0.11450000 0.11448600 15003.55374551 0 50.76306615 0 5102.97984544 0 62.65673602 0 1329.93015094 0 14205
0.11550000 0.11549300 14876.88634958 0 -214.29488177 0 4315.95899733 0 922.42209385 0 328.75282512 0 14776
0.11650000 0.11649800 14963.02903667 0 -140.22656490 0 4088.93204925 0 848.95611145 0 355.17249937 0 14553
0.11750000 0.11747300 14997.13179711 0 188.69566679 0 3603.67634175 0 507.59965899 0 -507.11358393 0 14568
0.11850000 0.11849100 14882.97612823 0 366.87483947 0 3620.09659946 0 -226.77449908 0 -436.65484494 0 16015
0.11950000 0.11950300 14189.29497834 0 633.97806723 0 3361.35851309 0 -528.42448750 0 517.47174379 0 15270
0.12050000 0.12050700 13992.20759657 0 504.38425586 0 4275.42321617 0 -872.55898626 0 290.81128966 0 15999
0.12150000 0.12150000 13889.34569901 0 200.82539863 0 4464.19528201 0 -182.43537434 0 804.11983933 0 15670
0.12250000 0.12250700 13719.16406654 0 -331.32492618 0 4520.37625814 0 500.97840874 0 172.04510473 0 16887
0.12350000 0.12352200 14124.30043166 0 -115.56406860 0 4508.84996800 0 520.13020898 0 16.81631476 0 16407
0.12450000 0.12449800 14032.06796592 0 61.39559823 0 4097.50202866 0 357.58958788 0 -319.88389294 0 16306
0.12550000 0.12549900 14211.77179773 0 269.85359325 0 4135.65725999 0 30.99464814 0 -573.47113380 0 17523
0.12650000 0.12650100 13759.79949863 0 306.41219533 0 3419.38856747 0 6.33318157 0 -153.11142929 0 17154
0.12750000 0.12750600 13218.80570799 0 491.24140630 0 3930.08847740 0 3.81069560 0 -946.70148771 0 18007
0.12850000 0.12850300 12981.30434063 0 459.50147997 0 3667.84046407 0 -184.95986440 0 -417.00257562 0 17496
0.12950000 0.12949900 12613.14954041 0 336.60531788 0 4017.57091580 0 306.96359711 0 -390.26069672 0 18405
0.13050000 0.13049000 12465.22328083 0 109.70426213 0 3456.93482093 0 183.94121051 0 -134.08031739 0 18100
0.13150000 0.13148800 12414.29058667 0 -116.98243341 0 3924.29765152 0 430.16867706 0 300.72877100 0 19059
0.13250000 0.13249300 12603.73806431 0 63.05356814 0 4160.75822035 0 378.26383278 0 741.74943362 0 18957
0.13350000 0.13349100 12577.05376150 0 158.03972107 0 3792.23803341 0 -3.83052613 0 750.16993665 0 19468
0.13450000 0.13450700 12342.98481483 0 296.14482853 0 3929.18054677 0 -83.15991351 0 956.22811599 0 19953
0.13550000 0.13551000 12349.40676323 0 276.67082364 0 4339.79771267 0 -52.54593189 0 1058.92503591 0 19956
0.13650000 0.13649900 12087.43555802 0 168.62154190 0 4252.68066100 0 -234.69231855 0 531.94437956 0 19723
0.13750000 0.13749600 11990.44199261 0 101.18344385 0 4623.93571216 0 55.87106176 0 878.52032595 0 20946
0.13850000 0.13851100 11777.85335609 0 152.95198781 0 4207.37270784 0 219.77236086 0 865.85690805 0 20955
0.13950000 0.13949800 11702.22937758 0 63.83173113 0 3888.09114937 0 878.06525340 0 895.36465369 0 20506
0.14050000 0.14048300 11721.82739251 0 26.83455426 0 3654.68654219 0 900.25197787 0 765.43424364 0 21447
0.14150000 0.14148400 11455.20581088 0 127.55539638 0 3054.33401820 0 786.55691770 0 662.41290460 0 21771
0.14250000 0.14249400 11392.20428266 0 251.01403257 0 2801.51962561 0 435.58525837 0 921.32814816 0 22470
0.14350000 0.14350900 10994.08777148 0 216.71972091 0 2609.01618632 0 -83.74641455 0 765.95907184 0 22519
0.14450000 0.14449900 10857.24490904 0 205.17571505 0 2835.03555284 0 -199.40260489 0 1021.81724652 0 22218
0.14550000 0.14550500 10763.10800344 0 121.47115389 0 2915.83030704 0 -208.56052475 0 805.23592967 0 23559
0.14650000 0.14650700 10596.85704628 0 288.95667526 0 3322.63859320 0 -180.64387218 0 1066.31249103 0 23044
0.14750000 0.14750500 10378.11219717 0 310.52334954 0 3219.92063586 0 -269.57235620 0 898.72510427 0 23649
0.14850000 0.14849900 10343.45582048 0 101.30269278 0 3429.11006866 0 170.55476981 0 631.53108345 0 23640
0.14950000 0.14949500 10161.91398276 0 53.23706641 0 3567.31482705 0 -87.66834273 0 741.01644572 0 24457
0.15050000 0.15050000 10074.84122038 0 233.09568931 0 3556.33108083 0 -96.78806306 0 458.76849207 0 24591
0.15150000 0.15149900 9833.24309284 0 416.64604676 0 3633.98129478 0 -158.43057413 0 341.84695645 0 25020
0.15250000 0.15250500 9575.28006922 0 271.12137444 0 3603.32202736 0 79.31637739 0 511.07083282 0 25297
0.15350000 0.15350100 9347.84344512 0 90.62088886 0 3392.15064841 0 265.47891771 0 80.89506946 0 25452
0.15450000 0.15450400 9339.51705685 0 4.87021743 0 3320.10303082 0 -45.62462165 0 -202.36555901 0 26061
0.15550000 0.15549900 9333.26119333 0 0.58652208 0 3070.51068476 0 425.47290411 0 -64.17718767 0 26128
0.15650000 0.15649500 9361.96065926 0 145.17700132 0 3012.60242596 0 -14.59974606 0 -298.69146324 0 26331
0.15750000 0.15749700 9259.64130561 0 83.39896500 0 2729.23948920 0 99.19717950 0 115.20200358 0 27345
0.15850000 0.15849900 9202.49703722 0 100.18925980 0 2866.75776345 0 273.65140066 0 26.35246524 0 26980
0.15950000 0.15949700 9158.53990769 0 18.68598753 0 2724.98771647 0 155.98691205 0 217.26890822 0 27777
0.16050000 0.16050000 9174.30689823 0 -18.89104699 0 2798.82905068 0 441.15685221 0 64.26787001 0 28224
0.16150000 0.16150500 9117.76053539 0 60.55841975 0 2769.94135523 0 -45.60181266 0 427.12046604 0 28075
0.16250000 0.16249700 9107.10895891 0 173.39260666 0 2724.82163160 0 126.59210412 0 480.65737100 0 28590
0.16350000 0.16349900 8956.48105208 0 250.78483544 0 2925.59609753 0 -327.60130334 0 488.65269676 0 29163
0.16450000 0.16449100 8829.68078825 0 294.16952578 0 2894.29463527 0 107.77424519 0 613.23295945 0 28996
0.16550000 0.16550500 8589.35597806 0 111.65664517 0 2984.52301022 0 -44.66332241 0 1005.30841021 0 30777
0.16650000 0.16650700 8558.12094975 0 3.06087776 0 2864.36614128 0 676.93758030 0 716.82452322 0 29211
0.16750000 0.16749900 8702.52621004 0 -135.34809858 0 2555.72508696 0 353.41642865 0 515.33810680 0 30922
0.16850000 0.16850800 8475.48818963 0 122.57174297 0 2318.10192403 0 320.48733464 0 459.70631798 0 30867
0.16950000 0.16949900 8401.13752847 0 223.22471174 0 2172.27940617 0 -6.10108349 0 432.86810986 0 30852
0.17050000 0.17049200 8287.66834373 0 -41.70889398 0 2003.90256265 0 105.69253741 0 927.44560762 0 31257
0.17150000 0.17149500 8475.75392543 0 -141.22196690 0 1990.85936402 0 186.91191526 0 320.47404785 0 32608
0.17250000 0.17250900 8510.80890580 0 35.36566981 0 2141.67550037 0 -138.58121743 0 239.73133358 0 32361
0.17350000 0.17350400 8459.41117399 0 230.44386752 0 2375.33477102 0 -91.89708502 0 592.79455507 0 32508
0.17450000 0.17449800 8122.24781094 0 413.09183050 0 2139.16208264 0 -89.28102684 0 831.79068628 0 32791
0.17550000 0.17549800 7943.34118652 0 240.91164340 0 2243.35265918 0 172.67844171 0 1012.41241382 0 33633
0.17650000 0.17650100 7806.13293737 0 128.52201033 0 2371.18264921 0 249.67095957 0 865.13831417 0 33984
0.17750000 0.17750300 7728.79274851 0 64.05926741 0 2180.94903650 0 258.24426068 0 956.20043518 0 34069
0.17850000 0.17849800 7624.09284502 0 47.75061874 0 2142.32876754 0 144.59016811 0 919.85110003 0 34536
