### header ###
fiducial parameters:
Omega_m = 0.31
Omega_nu = 0
Omega_de = 0.69
Omega_k = 0
H_0 = 100
w_de = -1
zeff = 0
beta = 0
fgrowth = 0
b_1 = 2
gamma = 0.55
Lx = 3500 Ly = 3500 Lz = 3500
nx = 700 ny = 700 nz = 700
xoffset = -685.467585 yoffset = -31.7331281 zoffset = 572.489161
bins = 400 dk = 0.001
kx_ny = 0.628318531 ky_ny = 0.628318531 kz_ny = 0.628318531
############################
A(data) = 8.0473717 (not used)
A(ran) = 8.05160695 (used)
Ngal = 478364
weighted Ngal = 0
Nran = 23820508
weighted Nran = 0
SN(data) = 3482.3317
SN(ran) = 70.1324166
SN(data+ran) = 3552.46412
############################
13 columns: k_central k_mean P_0(k) sigma^{lin}_{P_0(k)} P^img_1(k) sigma^{lin}_{P_1(k)} P_2(k) sigma^{lin}_{P_2(k)} P^img_3(k) sigma^{lin}_{P_3(k)} P_4(k) sigma^{lin}_{P_4(k)} N_modes
### header ###
0.00050000 0 0 0 0 0 0 0 0 0 0 0 0
0.00150000 0.00179520 22534.61691741 0 -28715.96369391 0 -16874.11230037 0 -39134.35700877 0 -26718.84846637 0 3
0.00250000 0.00253879 34462.72172128 0 -23206.92848039 0 -4738.51212939 0 -38799.41918300 0 3558.61197974 0 6
0.00350000 0.00331552 39731.26603974 0 4065.77981806 0 8641.04159032 0 -24035.13837683 0 -5855.68755894 0 7
0.00450000 0.00420575 46375.32527042 0 5753.46785621 0 13472.02977659 0 -9036.85505794 0 41778.76034521 0 24
0.00550000 0.00557378 44966.92555349 0 -6348.12920525 0 8350.75845055 0 20486.67971895 0 -4419.42987276 0 45
0.00650000 0.00659388 64747.19094901 0 -16166.92291420 0 2830.35195944 0 -547.54196354 0 -9131.92203883 0 40
0.00750000 0.00754703 66568.47765842 0 -1704.54011653 0 -1424.53209419 0 28021.83965103 0 -4094.87788768 0 57
0.00850000 0.00846663 65903.47382982 0 246.47216493 0 -522.95697351 0 -18150.52990546 0 -19003.76325599 0 75
0.00950000 0.00948925 59007.40848627 0 1783.65187736 0 -15935.06843250 0 5633.89782050 0 16857.06092015 0 112
0.01050000 0.01054430 63787.44183373 0 -8500.25698025 0 -15752.37507299 0 8961.39716430 0 11908.61751220 0 105
0.01150000 0.01145670 71543.93753893 0 -10548.36026358 0 1309.76744745 0 18940.09738828 0 11745.85433736 0 144
0.01250000 0.01249090 83685.73821181 0 -10592.99280492 0 -8730.97101250 0 -143.45414758 0 18523.55652860 0 169
0.01350000 0.01339930 101651.91390904 0 -10733.71098104 0 8375.46080722 0 -17530.59043887 0 12598.97696464 0 180
0.01450000 0.01448870 103666.63413304 0 5168.04082608 0 45671.45758170 0 -21613.17804600 0 36604.99512720 0 267
0.01550000 0.01550050 104390.54272969 0 13413.01428531 0 61183.45248288 0 -22982.49245632 0 55396.61263966 0 238
0.01650000 0.01653350 94756.95579798 0 10898.84363339 0 90852.18972743 0 2215.94865525 0 53418.20964106 0 315
0.01750000 0.01747870 100185.93810305 0 5407.67915213 0 97695.88297459 0 11155.25653154 0 49939.06373655 0 297
0.01850000 0.01844180 88283.74253925 0 4739.24290283 0 93770.63310313 0 35348.50770678 0 14025.20312453 0 388
0.01950000 0.01947590 89505.24141324 0 6572.77560349 0 88010.80973247 0 17521.62185576 0 23529.35457911 0 399
0.02050000 0.02045430 79465.18943744 0 10038.52399498 0 73769.14265773 0 9739.28334443 0 5318.23691224 0 462
0.02150000 0.02154770 69615.36000202 0 5976.42018876 0 56603.38532164 0 4307.02363121 0 -14516.81434648 0 571
0.02250000 0.02255340 66901.42246572 0 -974.72554183 0 46856.52850704 0 12276.55086592 0 -28997.97580704 0 510
0.02350000 0.02348930 65431.34989955 0 -3298.85523949 0 36818.91244269 0 8823.77923913 0 -33697.18118332 0 555
0.02450000 0.02439640 69837.36011463 0 -3181.64360896 0 24907.19467954 0 9929.77162061 0 -35863.48153409 0 592
0.02550000 0.02547300 70701.88723647 0 -2065.12144658 0 17649.28576092 0 7872.74404348 0 -39049.10010766 0 837
0.02650000 0.02652900 72593.48320849 0 1656.17620172 0 17585.73061646 0 6689.48897941 0 -21057.12589361 0 723
0.02750000 0.02749970 68684.95254751 0 -659.14656878 0 14796.61199465 0 70.25611544 0 -18040.02810377 0 826
0.02850000 0.02848090 73649.34010320 0 5951.27493910 0 25304.24824754 0 6915.41976733 0 3113.51559435 0 831
0.02950000 0.02946900 68421.43121682 0 6027.76255895 0 22477.70516784 0 6391.77630968 0 6267.76627172 0 996
0.03050000 0.03053250 65263.82562504 0 338.48982757 0 26705.45095334 0 5734.62275937 0 9991.33374660 0 1041
0.03150000 0.03150510 61570.65168178 0 1553.49146136 0 26279.60934082 0 -2229.61190408 0 13674.32115103 0 1036
0.03250000 0.03246190 63509.74792727 0 7034.35868053 0 33599.30183193 0 227.39454927 0 3502.09883386 0 1059
0.03350000 0.03345080 53476.89296260 0 6345.68222146 0 30856.68697435 0 -4060.66440399 0 9103.96441866 0 1302
0.03450000 0.03451200 51022.82288980 0 2279.07197905 0 30386.77750904 0 1397.48240466 0 6012.16165328 0 1339
0.03550000 0.03553350 52718.88160552 0 -4694.00138362 0 32532.70478215 0 4683.57125364 0 -4228.80872869 0 1365
0.03650000 0.03647120 54433.43110368 0 -396.11684932 0 31656.77316574 0 4788.21579550 0 -9522.47615216 0 1308
0.03750000 0.03744890 56239.77017460 0 1432.19414297 0 32394.74361491 0 1179.02543599 0 -3459.30429844 0 1579
0.03850000 0.03847530 54573.27456614 0 -172.34073580 0 28370.06426658 0 2506.43109687 0 -42.90426216 0 1662
0.03950000 0.03950240 55898.07823070 0 1153.02761731 0 35561.42851304 0 3425.47834612 0 2769.02235227 0 1683
0.04050000 0.04050350 55592.48206570 0 2212.31693271 0 32691.70336654 0 4448.45043611 0 2400.18106791 0 1822
0.04150000 0.04152450 49151.71071869 0 3653.55716506 0 29118.66414757 0 7109.38475351 0 6673.43410842 0 1887
0.04250000 0.04250150 49221.79853480 0 1672.27536201 0 26138.43719938 0 5983.13001760 0 9648.50135324 0 1920
0.04350000 0.04349210 46378.86841436 0 -794.24332559 0 19873.38364724 0 12236.69049658 0 5604.82189552 0 2005
0.04450000 0.04448520 46475.64053328 0 -980.83746513 0 15546.54055461 0 8443.65525578 0 8631.23151053 0 2151
0.04550000 0.04548030 46111.25032349 0 2006.03952134 0 11798.33715700 0 3734.81695690 0 6095.14872779 0 2274
0.04650000 0.04648670 44343.11077320 0 2004.85478259 0 12456.25469773 0 1605.35423081 0 10731.26399726 0 2311
0.04750000 0.04749250 42745.26357863 0 1602.86295772 0 11213.60768333 0 -1674.76663509 0 11397.51899857 0 2568
0.04850000 0.04851840 41539.37668263 0 2243.04263409 0 13890.56365474 0 718.56619992 0 10938.28325439 0 2493
0.04950000 0.04949480 41411.38060772 0 792.34885081 0 17885.90134230 0 -2074.48863337 0 13903.96116777 0 2644
0.05050000 0.05050630 39540.48988312 0 1009.59118545 0 17374.58138217 0 -672.58062048 0 10651.18894417 0 2829
0.05150000 0.05149060 39950.16590141 0 1035.90235092 0 21517.18098982 0 -1813.12640603 0 9985.97474139 0 2784
0.05250000 0.05249300 38596.24202258 0 1477.42458985 0 20389.13253730 0 1187.54005377 0 10488.22646749 0 3055
0.05350000 0.05348950 37518.68337123 0 5.22789781 0 18721.30824986 0 1757.45475684 0 5409.39536247 0 3009
0.05450000 0.05448610 37480.70529710 0 -1190.07561616 0 15791.79254935 0 2754.63940233 0 1760.78752661 0 3336
0.05550000 0.05550870 37096.60634914 0 -562.88377681 0 12713.24335677 0 2625.01569568 0 -1295.42878681 0 3349
0.05650000 0.05647670 37250.95455712 0 652.44891950 0 10056.43901654 0 2116.34202119 0 -3979.67034794 0 3324
0.05750000 0.05747970 36487.73920737 0 613.49315909 0 8902.42596231 0 399.00008270 0 -1991.35761863 0 3639
0.05850000 0.05849280 35828.82515741 0 1072.89055921 0 8024.49025512 0 427.72501498 0 -2632.13520054 0 3846
0.05950000 0.05951020 35354.48676218 0 604.69841148 0 9528.47735221 0 -356.31959222 0 -3026.36532571 0 3787
0.06050000 0.06049470 34941.37832319 0 1194.41596749 0 10483.04461947 0 -481.59962585 0 -993.77104775 0 3930
0.06150000 0.06148310 34744.06949493 0 531.75172111 0 10799.14842072 0 791.06889006 0 -691.90404175 0 4083
0.06250000 0.06249100 33783.10242392 0 512.89776641 0 10349.51238216 0 255.62011969 0 577.61439774 0 4303
0.06350000 0.06350600 32770.87048900 0 1213.38285990 0 10650.05956704 0 2319.89564065 0 -1670.01660775 0 4470
0.06450000 0.06451750 31890.06704967 0 984.82350206 0 10293.78537135 0 574.37684997 0 -409.19880109 0 4479
0.06550000 0.06550280 30140.30755858 0 1390.17467028 0 7962.87276750 0 1158.44198415 0 -2129.44058145 0 4636
0.06650000 0.06648880 29690.77117094 0 1025.68591681 0 8473.93806416 0 201.32365325 0 -1174.19790237 0 4653
0.06750000 0.06749660 29344.76102036 0 441.01180476 0 8689.27263723 0 -476.16975776 0 -1999.78365782 0 5220
0.06850000 0.06852730 28637.46091095 0 -78.23184318 0 8513.12302169 0 -63.92496011 0 -2099.96605278 0 5029
0.06950000 0.06949320 29196.94548403 0 -62.45942719 0 8912.05888490 0 -291.89748473 0 -533.26198622 0 5040
0.07050000 0.07048030 29036.72894391 0 -26.53549077 0 9231.62832382 0 -846.04851895 0 -2220.34436821 0 5475
0.07150000 0.07148790 29555.35663841 0 751.43439614 0 10068.24211479 0 -190.24800673 0 -2809.62456738 0 5509
0.07250000 0.07249820 28603.69032025 0 1195.67821252 0 10664.30964908 0 -1160.62323214 0 -1862.52004704 0 5916
0.07350000 0.07351270 28116.61875148 0 584.56228157 0 10464.53169238 0 -1515.23657911 0 -334.27016458 0 5721
0.07450000 0.07449140 28053.72794651 0 -332.16420840 0 12134.93583149 0 438.84273633 0 -1127.02979864 0 6028
0.07550000 0.07549160 28332.08619245 0 10.12695865 0 11274.94836283 0 1139.74082753 0 -2597.15772644 0 6183
0.07650000 0.07648840 28016.96782811 0 0.21603767 0 10803.66592925 0 1372.73575869 0 -1810.41368645 0 6330
0.07750000 0.07749960 27578.61448854 0 440.34414357 0 12035.28490812 0 1707.97253723 0 -712.22175780 0 6583
0.07850000 0.07848650 27468.88774959 0 577.76055243 0 10297.18457507 0 475.76118897 0 -456.76661574 0 6549
0.07950000 0.07947320 26794.80461463 0 995.56144267 0 10722.40613740 0 1381.46075065 0 -299.94042148 0 6828
0.08050000 0.08048110 25715.58511455 0 1012.19096732 0 10100.10826562 0 463.26164148 0 849.39457551 0 7147
0.08150000 0.08149960 25130.96636413 0 966.92066007 0 10037.22853298 0 468.89302588 0 1078.46658199 0 7386
0.08250000 0.08250610 24535.60745863 0 579.89418942 0 9193.34022460 0 912.34738550 0 834.04058268 0 7227
0.08350000 0.08350160 23787.78264038 0 394.09282834 0 8724.81479990 0 341.98757498 0 653.19519419 0 7798
0.08450000 0.08449610 23186.33395623 0 478.13066648 0 8464.20549064 0 679.45764143 0 -362.19567500 0 7371
0.08550000 0.08548940 23245.68161726 0 149.25493856 0 8161.47705777 0 463.19299307 0 63.92529228 0 8256
0.08650000 0.08650700 22987.80717223 0 76.84647389 0 8120.04441830 0 -298.80882988 0 213.76451741 0 8037
0.08750000 0.08749060 22907.75426379 0 298.67706922 0 8023.53803518 0 -71.58645527 0 345.82524276 0 8155
0.08850000 0.08849210 22301.21231023 0 491.65551125 0 8600.46151986 0 1252.46816651 0 392.87155091 0 8718
0.08950000 0.08949900 22165.13343821 0 570.42181554 0 7388.65093008 0 1218.64221419 0 1923.63928004 0 8571
0.09050000 0.09049190 21393.17095185 0 281.96339490 0 7719.55842961 0 1439.71225152 0 1060.99334619 0 8932
0.09150000 0.09150830 21005.75030645 0 524.74847567 0 6307.06195250 0 1185.27022719 0 1006.86185738 0 9285
0.09250000 0.09250820 20737.24642959 0 721.93993729 0 6223.80914219 0 339.96355400 0 1811.28840011 0 9204
0.09350000 0.09350330 20127.82567158 0 217.06074851 0 5945.82735529 0 -717.52761585 0 1453.29799407 0 9349
0.09450000 0.09448040 19600.22939397 0 681.79058027 0 6467.94283211 0 -257.88773182 0 1488.20903422 0 9564
0.09550000 0.09549270 19657.47331328 0 383.75681312 0 5969.52213040 0 65.28198424 0 1451.42677118 0 10155
0.09650000 0.09649430 19039.74831165 0 -194.45438293 0 6093.06713073 0 804.59927099 0 540.22647853 0 9913
0.09750000 0.09749140 18862.48039130 0 266.05910753 0 6240.11867664 0 -13.99110036 0 425.69767230 0 10476
0.09850000 0.09850240 19001.88096077 0 473.76263434 0 6144.27663301 0 134.80555467 0 1352.37375335 0 10575
0.09950000 0.09950330 18308.53198062 0 690.13911318 0 6383.80423581 0 228.06996108 0 1165.17395764 0 10882
0.10050000 0.10051200 17943.25598486 0 316.03515283 0 6198.55316927 0 212.25203784 0 1622.12880291 0 10875
0.10150000 0.10150300 17575.87624737 0 461.92299741 0 6679.29136825 0 410.31267697 0 1165.69435691 0 11118
0.10250000 0.10250800 17395.95096907 0 486.25000227 0 6486.31181899 0 180.62726370 0 1803.36061554 0 11575
0.10350000 0.10349800 16837.02001223 0 365.84954219 0 6391.45521226 0 689.30315265 0 2409.86935213 0 11364
0.10450000 0.10450100 16817.31127405 0 -46.17845934 0 6057.54711271 0 154.49879159 0 2080.35696553 0 12093
0.10550000 0.10551000 16543.60340453 0 130.34451500 0 5875.92776871 0 309.05737373 0 1363.22463167 0 12067
0.10650000 0.10649700 16366.88910043 0 291.53431247 0 5648.32505974 0 497.37104532 0 1535.52107817 0 12054
0.10750000 0.10749900 15988.21559163 0 437.30700487 0 5628.91527433 0 520.81004973 0 881.51538981 0 12807
0.10850000 0.10850100 15919.23500801 0 4.44324644 0 5095.58353246 0 278.25416609 0 530.72199490 0 12736
0.10950000 0.10950300 15495.16496745 0 227.42223008 0 5019.92633698 0 755.87661286 0 407.23346343 0 12933
0.11050000 0.11050200 15606.33110863 0 45.36619359 0 4504.73106317 0 110.68349854 0 112.52139374 0 13428
0.11150000 0.11150900 15553.84828899 0 301.04322503 0 4295.30911155 0 180.20762259 0 19.67430325 0 13453
0.11250000 0.11250000 15194.32990213 0 448.86540475 0 4388.99205184 0 -577.60443265 0 195.36120633 0 13668
0.11350000 0.11349100 14761.84489472 0 595.60138941 0 4732.69915886 0 -173.02389824 0 -75.43098789 0 13791
0.11450000 0.11448600 14591.77398550 0 517.33112527 0 4886.36088269 0 -310.96402807 0 31.49821747 0 14205
0.11550000 0.11549300 13855.57510831 0 353.87039397 0 4769.38177098 0 -6.52178755 0 291.51881122 0 14776
0.11650000 0.11649800 13814.38605998 0 159.69614086 0 4773.53389279 0 1049.23232277 0 -132.56673059 0 14553
0.11750000 0.11747300 13805.52820013 0 -269.98978284 0 4399.90936411 0 884.05870282 0 -377.58067034 0 14568
0.11850000 0.11849100 13727.13614041 0 -3.24083626 0 3597.56441845 0 967.06017136 0 46.43544799 0 16015
0.11950000 0.11950300 13828.89080550 0 185.65963533 0 3416.36582279 0 203.72745497 0 267.53947736 0 15270
0.12050000 0.12050700 13740.75509994 0 -38.71670892 0 3122.99350440 0 9.08861818 0 261.23711007 0 15999
0.12150000 0.12150000 13662.36304022 0 241.70663633 0 3448.25411827 0 -501.68814477 0 530.70538642 0 15670
0.12250000 0.12250700 13611.54106931 0 77.35491505 0 4254.40794367 0 -556.87482613 0 434.97849497 0 16887
0.12350000 0.12352200 13592.60739387 0 220.95156345 0 4350.02854080 0 -506.32523440 0 485.60891466 0 16407
0.12450000 0.12449800 13401.83123724 0 319.74438165 0 4701.44198590 0 275.45840407 0 477.75642190 0 16306
0.12550000 0.12549900 13256.00871938 0 135.29827312 0 4751.56640035 0 -243.43613346 0 575.36117964 0 17523
0.12650000 0.12650100 13300.18729541 0 176.47403466 0 5050.77383392 0 246.22857378 0 664.87206794 0 17154
0.12750000 0.12750600 13279.14987825 0 -47.63779175 0 4397.26307848 0 573.31169232 0 773.13393832 0 18007
0.12850000 0.12850300 13408.47463213 0 -202.66672625 0 4631.63097791 0 178.79922287 0 733.64781355 0 17496
0.12950000 0.12949900 13352.22722205 0 -30.92821419 0 4283.95997861 0 207.47875861 0 244.73934609 0 18405
0.13050000 0.13049000 13435.71255119 0 271.44579356 0 4632.07387091 0 -61.44431646 0 696.33075722 0 18100
0.13150000 0.13148800 13271.84214387 0 323.81124655 0 4701.24268405 0 -121.27738820 0 660.08328746 0 19059
0.13250000 0.13249300 12915.97762420 0 405.62354741 0 4821.91995225 0 15.41743725 0 1254.99265657 0 18957
0.13350000 0.13349100 12648.58097983 0 192.63630719 0 4973.24541554 0 329.44705989 0 1112.34789593 0 19468
0.13450000 0.13450700 12593.33007898 0 120.77913359 0 4827.54469325 0 251.63297553 0 1511.28375915 0 19953
0.13550000 0.13551000 12342.20975210 0 143.76085098 0 4809.59645472 0 589.01224891 0 1093.60577171 0 19956
0.13650000 0.13649900 12274.55784745 0 242.35547456 0 4174.29967360 0 560.02379530 0 1588.02604246 0 19723
0.13750000 0.13749600 12160.29145533 0 -43.05252059 0 3679.37782654 0 691.53311887 0 1111.37353135 0 20946
0.13850000 0.13851100 11867.64991037 0 144.27792855 0 3801.48342464 0 446.30769772 0 691.17880448 0 20955
0.13950000 0.13949800 11969.95819169 0 119.94095860 0 3240.19406260 0 -36.56613127 0 324.89522715 0 20506
0.14050000 0.14048300 11708.42987948 0 205.72379513 0 3080.84116381 0 -38.52338613 0 158.23237952 0 21447
0.14150000 0.14148400 11466.27813569 0 315.28998537 0 2967.99202926 0 -157.40527685 0 379.55708032 0 21771
0.14250000 0.14249400 11307.39027455 0 251.31409257 0 2846.40683043 0 21.76276515 0 -85.21216891 0 22470
0.14350000 0.14350900 11010.26443804 0 386.40420599 0 2803.00331714 0 147.69927692 0 391.53955024 0 22519
0.14450000 0.14449900 10792.50502583 0 209.61350284 0 2850.82468803 0 281.16840198 0 28.75604551 0 22218
0.14550000 0.14550500 10616.42184424 0 103.70084762 0 2758.00538908 0 108.99496901 0 -215.98451854 0 23559
0.14650000 0.14650700 10526.78030251 0 59.89275158 0 2629.49998723 0 107.46012334 0 91.55782899 0 23044
0.14750000 0.14750500 10341.03098135 0 41.70933687 0 2547.15510756 0 39.05607567 0 90.31529270 0 23649
0.14850000 0.14849900 10393.81275376 0 75.15506556 0 2711.60127576 0 -21.88998617 0 267.21284378 0 23640
0.14950000 0.14949500 10439.32000876 0 4.88892966 0 2748.88179343 0 183.54039236 0 392.53273777 0 24457
0.15050000 0.15050000 10364.29393579 0 -36.47511676 0 2744.47500815 0 -55.34645501 0 35.96700777 0 24591
0.15150000 0.15149900 10629.45397055 0 53.02259548 0 2947.84039809 0 -146.64297713 0 118.19153128 0 25020
0.15250000 0.15250500 10523.02678439 0 -1.24538188 0 3186.95832488 0 -202.59807783 0 375.21230006 0 25297
0.15350000 0.15350100 10469.64710644 0 277.23883390 0 3157.57237481 0 -327.46732821 0 433.03530196 0 25452
0.15450000 0.15450400 10316.77151767 0 293.00914614 0 3505.44267596 0 -73.56286525 0 267.30806577 0 26061
0.15550000 0.15549900 10085.06097619 0 152.37844139 0 3462.83637006 0 206.36820443 0 353.16508688 0 26128
0.15650000 0.15649500 9709.58736927 0 346.28252977 0 3276.46699871 0 281.62236730 0 -45.76302571 0 26331
0.15750000 0.15749700 9534.71107108 0 357.61283976 0 3203.57788443 0 416.52757289 0 639.04697754 0 27345
0.15850000 0.15849900 9363.37791684 0 55.27204899 0 2931.88517803 0 481.26413440 0 341.87131557 0 26980
0.15950000 0.15949700 9270.31502674 0 40.84425613 0 2733.04836894 0 456.04027124 0 443.44993068 0 27777
0.16050000 0.16050000 9174.99338237 0 124.63119539 0 2539.98024107 0 100.11186425 0 333.75640871 0 28224
0.16150000 0.16150500 9096.65668428 0 224.38841308 0 2589.09707397 0 19.67430325 0 496.44097003 0 28075
0.16250000 0.16249700 8984.47188922 0 98.65452486 0 2491.84884509 0 -182.81183338 0 437.95584311 0 28590
0.16350000 0.16349900 8971.96016217 0 28.16633349 0 2905.69912983 0 -253.19638779 0 512.00533703 0 29163
0.16450000 0.16449100 8961.00963293 0 110.02159496 0 2741.98373506 0 36.65880663 0 646.26724055 0 28996
0.16550000 0.16550500 8948.84114795 0 -40.55261109 0 2881.32894291 0 189.81397160 0 639.84861385 0 30777
0.16650000 0.16650700 8867.08310149 0 66.75106029 0 2732.80477779 0 268.96448556 0 326.50182148 0 29211
0.16750000 0.16749900 8971.49512453 0 155.86733094 0 2804.25448984 0 -112.82145374 0 232.94953463 0 30922
0.16850000 0.16850800 8652.53466348 0 196.90579564 0 2574.17158011 0 56.92226828 0 265.57303247 0 30867
0.16950000 0.16949900 8608.90970369 0 86.06208056 0 2555.76937626 0 -152.37290522 0 193.59627776 0 30852
0.17050000 0.17049200 8600.79368960 0 -66.65893855 0 2506.40895222 0 -41.56727894 0 25.53621345 0 31257
0.17150000 0.17149500 8593.93992054 0 25.20969059 0 2701.58082180 0 194.04692138 0 -290.16023696 0 32608
0.17250000 0.17250900 8561.97411879 0 196.62012966 0 2386.29637259 0 155.67577972 0 -195.15304663 0 32361
0.17350000 0.17350400 8416.55020462 0 164.23247234 0 2509.63099874 0 165.15036807 0 -115.89956004 0 32508
0.17450000 0.17449800 8226.41624283 0 255.63451372 0 2556.26763088 0 197.24017985 0 16.97509190 0 32791
0.17550000 0.17549800 8108.75064699 0 243.99196417 0 2520.38222614 0 97.96881578 0 505.65203705 0 33633
0.17650000 0.17650100 7798.10550187 0 103.37897513 0 2437.49480255 0 198.54228525 0 517.24143944 0 33984
0.17750000 0.17750300 7892.22026283 0 -44.12520742 0 2278.39656723 0 109.59453539 0 710.28188649 0 34069
0.17850000 0.17849800 7894.22435363 0 -102.29111922 0 2287.61981381 0 437.78643654 0 641.06103342 0 34536
