### header ###
fiducial parameters:
Omega_m = 0.31
Omega_nu = 0
Omega_de = 0.69
Omega_k = 0
H_0 = 100
w_de = -1
zeff = 0
beta = 0
fgrowth = 0
b_1 = 2
gamma = 0.55
Lx = 3500 Ly = 3500 Lz = 3500
nx = 700 ny = 700 nz = 700
xoffset = -685.467585 yoffset = -31.7331281 zoffset = 572.489161
bins = 400 dk = 0.001
kx_ny = 0.628318531 ky_ny = 0.628318531 kz_ny = 0.628318531
############################
A(data) = 8.05982778 (not used)
A(ran) = 8.05905931 (used)
Ngal = 479122
weighted Ngal = 0
Nran = 23820508
weighted Nran = 0
SN(data) = 3484.59547
SN(ran) = 70.1973293
SN(data+ran) = 3554.7928
############################
13 columns: k_central k_mean P_0(k) sigma^{lin}_{P_0(k)} P^img_1(k) sigma^{lin}_{P_1(k)} P_2(k) sigma^{lin}_{P_2(k)} P^img_3(k) sigma^{lin}_{P_3(k)} P_4(k) sigma^{lin}_{P_4(k)} N_modes
### header ###
0.00050000 0 0 0 0 0 0 0 0 0 0 0 0
0.00150000 0.00179520 11196.22413337 0 -25500.89273632 0 -10745.31477745 0 -31624.33125402 0 -9990.07150157 0 3
0.00250000 0.00253879 17989.98119559 0 -23458.93459327 0 -22850.39962123 0 -1974.14015354 0 7959.52892541 0 6
0.00350000 0.00331552 22149.07856722 0 -9314.10607139 0 -10704.46897120 0 -1136.65164891 0 8727.50537483 0 7
0.00450000 0.00420575 29821.42460380 0 -10705.26617858 0 -23610.84688978 0 -8855.15820766 0 3729.02613102 0 24
0.00550000 0.00557378 33695.63105785 0 -16081.44456660 0 -33776.56975227 0 -14569.29716612 0 -13891.67088722 0 45
0.00650000 0.00659388 56364.99816830 0 -15110.18023351 0 -45943.06170950 0 -23348.76496132 0 15648.95955919 0 40
0.00750000 0.00754703 50301.35020461 0 -1497.66479962 0 -7647.51081202 0 -51977.92162865 0 -3235.42189061 0 57
0.00850000 0.00846663 57591.03669547 0 4393.38776479 0 -19647.50822094 0 -14331.35290577 0 38289.98151810 0 75
0.00950000 0.00948925 58885.05929702 0 -8650.94024871 0 -1998.12280910 0 -11600.25326600 0 10744.56185936 0 112
0.01050000 0.01054430 77072.01715114 0 -14956.49636503 0 2154.53046949 0 -3638.47665866 0 7816.88416477 0 105
0.01150000 0.01145670 85457.08873630 0 -4408.46827119 0 32312.03334851 0 -9440.96169684 0 -16.97996373 0 144
0.01250000 0.01249090 86861.61313954 0 15738.86683671 0 29467.88527235 0 -19094.33487300 0 8161.70957659 0 169
0.01350000 0.01339930 81228.34644156 0 10858.30785223 0 45104.44382773 0 5954.41947935 0 32159.67815901 0 180
0.01450000 0.01448870 71809.34116483 0 7832.37434719 0 55177.26988500 0 356.10589635 0 8581.07387910 0 267
0.01550000 0.01550050 69216.20269231 0 5620.36743957 0 50523.23959398 0 20790.94720496 0 600.95928739 0 238
0.01650000 0.01653350 67200.15378933 0 -2145.28507826 0 42357.84293322 0 4861.43707952 0 -1076.56767828 0 315
0.01750000 0.01747870 70878.60154058 0 -3574.65577840 0 31702.39114400 0 20654.75760970 0 3606.45549528 0 297
0.01850000 0.01844180 73699.82990437 0 -4747.69108666 0 27877.78870514 0 12429.90256466 0 -23128.75786717 0 388
0.01950000 0.01947590 70907.72175485 0 1460.60572845 0 17040.97223539 0 9675.47353650 0 -12809.12968970 0 399
0.02050000 0.02045430 64802.22040335 0 7724.20880604 0 7656.20258700 0 4940.40490013 0 -19730.43993383 0 462
0.02150000 0.02154770 61204.15773029 0 4234.71027781 0 -387.38521397 0 6270.66722082 0 -7525.13947812 0 571
0.02250000 0.02255340 62463.19178541 0 -143.21166367 0 3684.40466200 0 9182.85473299 0 10372.29922664 0 510
0.02350000 0.02348930 60131.69234835 0 -4735.00220242 0 -8798.49004924 0 -737.16327668 0 446.03974746 0 555
0.02450000 0.02439640 68608.55350626 0 -2022.44870672 0 2190.89198419 0 1706.94281102 0 17829.76465547 0 592
0.02550000 0.02547300 66571.79935587 0 1211.25697354 0 13542.78193218 0 -1346.70472304 0 13863.99007517 0 837
0.02650000 0.02652900 67031.41155909 0 2949.78912726 0 14317.06960675 0 2647.14927299 0 16471.07967697 0 723
0.02750000 0.02749970 63506.97984607 0 5144.94395651 0 19540.88173294 0 -2697.70550811 0 7110.59163691 0 826
0.02850000 0.02848090 61907.91469576 0 2254.65750282 0 25292.84375298 0 -3604.91644213 0 19637.65385185 0 831
0.02950000 0.02946900 59253.98915998 0 2226.01339852 0 26086.50799598 0 2671.18729017 0 13541.23180671 0 996
0.03050000 0.03053250 58664.27714014 0 2449.40862406 0 22452.23882075 0 2930.08038908 0 8438.24088894 0 1041
0.03150000 0.03150510 57246.35522386 0 -532.38284363 0 15328.41575569 0 10356.86440584 0 12035.83852436 0 1036
0.03250000 0.03246190 56944.19147956 0 -3142.01575844 0 14759.40898326 0 4552.91782078 0 -1290.56803621 0 1059
0.03350000 0.03345080 57574.98182448 0 700.18281902 0 14911.21055652 0 1747.73325565 0 9010.20397210 0 1302
0.03450000 0.03451200 56334.65999829 0 4980.13240158 0 18351.71404742 0 397.34587737 0 1991.15831679 0 1339
0.03550000 0.03553350 51984.56502354 0 4257.89572598 0 20379.61033795 0 -3023.30936406 0 16867.02601248 0 1365
0.03650000 0.03647120 51104.53664696 0 2745.95869967 0 23310.56544070 0 5655.93174689 0 16671.48875619 0 1308
0.03750000 0.03744890 49444.46298690 0 -684.25195807 0 24596.61596838 0 1192.50045529 0 19615.73064871 0 1579
0.03850000 0.03847530 52016.34259577 0 1274.86747962 0 28262.21982284 0 4488.89763868 0 13255.45510314 0 1662
0.03950000 0.03950240 50029.63535356 0 220.88623674 0 24833.89588925 0 632.75236088 0 17503.35251981 0 1683
0.04050000 0.04050350 49087.49123475 0 767.69964130 0 23853.99514280 0 2987.36859769 0 12377.30902177 0 1822
0.04150000 0.04152450 50556.34584519 0 -135.24180426 0 19677.73566770 0 2168.17157366 0 11782.17156277 0 1887
0.04250000 0.04250150 48731.51599183 0 -570.81931200 0 21530.35705635 0 2602.87104604 0 4218.54468358 0 1920
0.04350000 0.04349210 49314.14172378 0 3091.17164287 0 16666.83837976 0 1242.40342325 0 959.43355402 0 2005
0.04450000 0.04448520 44773.93493190 0 3235.17829946 0 19045.83809030 0 -2328.64277726 0 -2133.93594532 0 2151
0.04550000 0.04548030 42022.90510746 0 4212.53241120 0 18002.16075289 0 107.72408756 0 3880.61733011 0 2274
0.04650000 0.04648670 40079.04776230 0 2233.49829009 0 19939.26397991 0 2227.06526937 0 3325.12986629 0 2311
0.04750000 0.04749250 37727.39669406 0 -317.97391691 0 14137.03360520 0 6405.49492013 0 -242.90909080 0 2568
0.04850000 0.04851840 39044.00683825 0 -2536.17136134 0 12945.31928497 0 5309.17975054 0 -497.20828214 0 2493
0.04950000 0.04949480 40080.70861102 0 -1491.39786377 0 10134.06708584 0 2249.42029318 0 -755.35067743 0 2644
0.05050000 0.05050630 40805.83516339 0 -21.61959999 0 9487.75334153 0 2397.29119113 0 -3411.37220430 0 2829
0.05150000 0.05149060 38897.96287389 0 1298.88335215 0 9486.12570978 0 -1368.08538227 0 35.59896369 0 2784
0.05250000 0.05249300 39827.04164942 0 2167.28578768 0 7629.02002957 0 -1350.34751791 0 2705.83259453 0 3055
0.05350000 0.05348950 37810.32840695 0 1225.86136997 0 12292.93790665 0 -528.43334536 0 1728.53384441 0 3009
0.05450000 0.05448610 37043.90208301 0 1508.85892001 0 13520.96945229 0 458.19937458 0 4152.97437600 0 3336
0.05550000 0.05550870 36875.82419226 0 917.49380207 0 15013.40811460 0 1696.72305521 0 7389.11596772 0 3349
0.05650000 0.05647670 36045.39983086 0 275.97437441 0 12402.66464561 0 4260.42021604 0 10318.31057082 0 3324
0.05750000 0.05747970 36173.06373602 0 -1078.51751468 0 11453.21279241 0 5594.52463344 0 9043.96349047 0 3639
0.05850000 0.05849280 36886.12145434 0 -239.26851040 0 9839.21107592 0 2848.00124520 0 5248.91308655 0 3846
0.05950000 0.05951020 35292.48174319 0 951.99405898 0 10531.67427008 0 875.17426939 0 5754.53079940 0 3787
0.06050000 0.06049470 34811.72139957 0 1880.09182653 0 9177.99398240 0 -3948.28030708 0 4790.35275419 0 3930
0.06150000 0.06148310 33928.81421853 0 1897.43108720 0 10460.56780009 0 -2247.63764889 0 3580.33588103 0 4083
0.06250000 0.06249100 32505.13469335 0 925.13149173 0 13261.32343529 0 -3866.53333295 0 3858.20694468 0 4303
0.06350000 0.06350600 32854.79871112 0 33.20180537 0 12690.98798388 0 558.47477706 0 3058.72973115 0 4470
0.06450000 0.06451750 32528.82946846 0 -230.11944840 0 14717.00197920 0 871.81603327 0 4110.54522730 0 4479
0.06550000 0.06550280 33169.25273597 0 156.92916689 0 13199.20769306 0 4222.13211682 0 2320.13923180 0 4636
0.06650000 0.06648880 32903.95983332 0 189.31018082 0 12833.37808105 0 2645.82059401 0 2921.12287830 0 4653
0.06750000 0.06749660 32041.42572994 0 952.94184998 0 10573.04047560 0 1616.76979769 0 1665.45480992 0 5220
0.06850000 0.06852730 30735.44501758 0 1086.32571814 0 10667.29917678 0 1963.36678149 0 2935.68298544 0 5029
0.06950000 0.06949320 29323.83432645 0 671.83988195 0 7458.74981851 0 796.90511247 0 2670.87726508 0 5040
0.07050000 0.07048030 29793.41162201 0 -106.62205907 0 7231.54571323 0 1985.44499718 0 556.22709512 0 5475
0.07150000 0.07148790 29008.49451562 0 -607.34691158 0 6709.64061058 0 386.03106864 0 364.65816004 0 5509
0.07250000 0.07249820 30062.91200810 0 -27.59788033 0 6819.11268606 0 -446.86574289 0 -939.35832189 0 5916
0.07350000 0.07351270 29567.42547246 0 564.76053586 0 8016.35209638 0 -2675.82659427 0 -875.04140149 0 5721
0.07450000 0.07449140 29049.79428719 0 1556.18203629 0 8965.90360050 0 -1935.30951040 0 -1495.79357673 0 6028
0.07550000 0.07549160 28409.81391268 0 1458.73450556 0 11245.16380907 0 -2279.59237831 0 687.92796991 0 6183
0.07650000 0.07648840 27246.22329748 0 1125.69004734 0 11923.12225771 0 503.34899349 0 1609.51742494 0 6330
0.07750000 0.07749960 26390.99692849 0 811.21387784 0 12043.69987499 0 846.14484818 0 869.02248572 0 6583
0.07850000 0.07848650 26093.15139087 0 646.46875686 0 11869.53220559 0 1720.28496242 0 158.97976144 0 6549
0.07950000 0.07947320 25326.39289718 0 456.89062578 0 11184.48746906 0 618.49009928 0 639.92058396 0 6828
0.08050000 0.08048110 24827.80611060 0 402.98501240 0 10604.92877108 0 541.65037950 0 -40.52581607 0 7147
0.08150000 0.08149960 24637.36212371 0 -109.34518664 0 10485.05978259 0 562.69886898 0 1212.48600159 0 7386
0.08250000 0.08250610 24646.21998357 0 300.78523986 0 9838.98962942 0 334.45617963 0 -990.58775437 0 7227
0.08350000 0.08350160 24397.53556814 0 283.32750532 0 9372.93333316 0 962.97337627 0 -53.40315128 0 7798
0.08450000 0.08449610 23568.10771598 0 873.52560022 0 8772.60295381 0 931.06515061 0 -1151.46641952 0 7371
0.08550000 0.08548940 23353.52606099 0 723.09699523 0 9338.74199412 0 -671.31173206 0 -383.69702257 0 8256
0.08650000 0.08650700 22497.52462926 0 686.59154031 0 9081.15542953 0 387.28224134 0 -645.51210800 0 8037
0.08750000 0.08749060 21809.82253478 0 781.65187780 0 9413.84557336 0 930.61229252 0 1852.45530378 0 8155
0.08850000 0.08849210 21509.65180894 0 -68.37249154 0 8726.34278072 0 764.35137028 0 247.68458450 0 8718
0.08950000 0.08949900 21759.44345685 0 74.09134731 0 8930.95934337 0 1933.90332515 0 654.89147435 0 8571
0.09050000 0.09049190 21328.95146790 0 199.46571714 0 8398.14800077 0 1037.75917979 0 917.12398643 0 8932
0.09150000 0.09150830 20427.44278117 0 821.07599755 0 7183.70219769 0 1259.65410532 0 1385.52429386 0 9285
0.09250000 0.09250820 20765.59158113 0 71.03372481 0 7027.53812845 0 -169.48407600 0 1143.32826077 0 9204
0.09350000 0.09350330 19845.48138870 0 388.74932438 0 6484.62882561 0 -3.85479667 0 121.54312400 0 9349
0.09450000 0.09448040 19935.94228247 0 852.16154948 0 7212.58989314 0 -249.08523359 0 1234.47563868 0 9564
0.09550000 0.09549270 19003.32036299 0 486.87669586 0 7132.27124891 0 -478.27128501 0 394.37960155 0 10155
0.09650000 0.09649430 18842.10731363 0 451.78739127 0 7047.46831312 0 169.88932309 0 776.62504234 0 9913
0.09750000 0.09749140 18435.08865330 0 -25.84967097 0 7117.99902221 0 841.64837707 0 -812.71196339 0 10476
0.09850000 0.09850240 18461.21933987 0 304.21876779 0 6671.26393276 0 703.38272089 0 -833.45264224 0 10575
0.09950000 0.09950330 18003.04653888 0 180.03821602 0 6474.42014213 0 935.29699315 0 -84.21366666 0 10882
0.10050000 0.10051200 17747.71872856 0 231.42819720 0 5733.48230992 0 791.60589782 0 -45.18660048 0 10875
0.10150000 0.10150300 17490.39789977 0 152.72721962 0 4999.48682536 0 440.76599915 0 -427.01417172 0 11118
0.10250000 0.10250800 17366.38786181 0 194.11889149 0 5362.37119897 0 282.46275675 0 -645.39695582 0 11575
0.10350000 0.10349800 17106.96329130 0 481.10580016 0 5302.58064495 0 -581.05124737 0 -427.20018678 0 11364
0.10450000 0.10450100 16867.69035197 0 264.55327136 0 5016.46069931 0 -349.05061098 0 -691.03818595 0 12093
0.10550000 0.10551000 16928.92030822 0 83.19645218 0 5900.23152169 0 -367.26458530 0 -467.30857620 0 12067
0.10650000 0.10649700 16940.21407954 0 -27.41518697 0 6022.12674561 0 251.29526962 0 -298.57298936 0 12054
0.10750000 0.10749900 16607.93361173 0 411.16967491 0 5911.71352252 0 767.23792536 0 598.88765542 0 12807
0.10850000 0.10850100 16501.86073997 0 412.90913714 0 5879.55949125 0 778.99894878 0 598.75257306 0 12736
0.10950000 0.10950300 16056.31038926 0 349.65405268 0 5462.12177326 0 1142.65284896 0 195.34902678 0 12933
0.11050000 0.11050200 15757.57906566 0 391.75103164 0 5105.49326318 0 708.05634920 0 657.33956537 0 13428
0.11150000 0.11150900 15165.20968786 0 417.26056079 0 4418.89840117 0 61.54629257 0 1057.51331450 0 13453
0.11250000 0.11250000 15046.95725880 0 324.18881283 0 4810.57081931 0 -498.86913087 0 1312.53552865 0 13668
0.11350000 0.11349100 14910.87838677 0 79.18295588 0 4712.04927307 0 -241.44643669 0 396.48777220 0 13791
0.11450000 0.11448600 14732.94612694 0 190.94667043 0 4845.39328086 0 -319.38120939 0 269.07963774 0 14205
0.11550000 0.11549300 14670.94110795 0 240.92160850 0 4939.36410160 0 -337.59961265 0 -347.30450535 0 14776
0.11650000 0.11649800 14588.89518105 0 215.83282769 0 5020.14778347 0 6.51330615 0 122.38462069 0 14553
0.11750000 0.11747300 14303.89354022 0 162.64691542 0 5012.88433839 0 476.53403724 0 201.81747893 0 14568
0.11850000 0.11849100 14355.49057387 0 -74.90449884 0 4485.39878403 0 1073.18176135 0 408.90759895 0 16015
0.11950000 0.11950300 14368.77736365 0 -198.08610547 0 4712.56967234 0 653.95143397 0 704.74572408 0 15270
0.12050000 0.12050700 14368.33447066 0 215.68667300 0 4481.04736038 0 739.09871906 0 373.53595008 0 15999
0.12150000 0.12150000 14125.96128038 0 407.38847598 0 4558.09966879 0 -330.79566905 0 757.21193523 0 15670
0.12250000 0.12250700 13606.22635339 0 522.72666915 0 4231.11177225 0 -143.33788817 0 1208.97607462 0 16887
0.12350000 0.12352200 13545.32856689 0 60.10821902 0 4718.30513659 0 -84.15022224 0 1495.89322765 0 16407
0.12450000 0.12449800 13651.06926891 0 -180.62504923 0 4701.02123755 0 51.50125805 0 332.99352553 0 16306
0.12550000 0.12549900 13581.20289930 0 232.34830739 0 4484.80087849 0 222.80064170 0 595.71875606 0 17523
0.12650000 0.12650100 13360.42074242 0 208.48744741 0 3862.66909158 0 88.64215369 0 343.12248827 0 17154
0.12750000 0.12750600 13219.58077073 0 -2.69572356 0 3818.50158788 0 339.84950905 0 -75.16348052 0 18007
0.12850000 0.12850300 13219.69149397 0 193.92401857 0 3833.34957546 0 -46.56499419 0 -519.36621857 0 17496
0.12950000 0.12949900 12995.03402340 0 315.55682840 0 3520.70033956 0 274.14079742 0 -577.34534025 0 18405
0.13050000 0.13049000 12668.17899476 0 63.41662968 0 3236.71735261 0 116.22730085 0 -440.88779472 0 18100
0.13150000 0.13148800 12660.42836738 0 68.77939948 0 3245.29840435 0 183.72972911 0 -1060.73314656 0 19059
0.13250000 0.13249300 12689.32713516 0 179.68168716 0 3568.43313185 0 -89.69623902 0 -1062.03746642 0 18957
0.13350000 0.13349100 12425.80580448 0 357.04261503 0 3609.97649457 0 -589.30345106 0 -780.01428096 0 19468
0.13450000 0.13450700 12168.04208270 0 364.55297296 0 3506.32846194 0 -431.31134099 0 -585.82784829 0 19953
0.13550000 0.13551000 12190.29745559 0 -33.50230827 0 3895.69783652 0 25.22829210 0 -837.08215031 0 19956
0.13650000 0.13649900 12082.56373510 0 -37.94374992 0 3858.01871516 0 286.07676357 0 -1146.07419733 0 19723
0.13750000 0.13749600 11989.22403688 0 168.84520286 0 3900.37035759 0 458.94564927 0 -929.60249650 0 20946
0.13850000 0.13851100 11884.25839760 0 215.87711699 0 3573.43782267 0 451.21605931 0 -863.70776980 0 20955
0.13950000 0.13949800 11621.51212965 0 120.08379159 0 3538.94753086 0 420.14379417 0 -523.82504378 0 20506
0.14050000 0.14048300 11654.83982736 0 222.23484590 0 3323.18113712 0 -18.04235329 0 -939.64509511 0 21447
0.14150000 0.14148400 11305.50797933 0 339.12980794 0 3355.11372190 0 371.62043789 0 -594.17970291 0 21771
0.14250000 0.14249400 11000.23291175 0 228.17736263 0 3377.66804755 0 -121.09358761 0 -409.99933017 0 22470
0.14350000 0.14350900 10902.37570500 0 253.16981421 0 3063.41332455 0 239.27293933 0 -104.99132707 0 22519
0.14450000 0.14449900 10879.78816237 0 -44.95275298 0 3219.78776796 0 594.60266571 0 114.62734992 0 22218
0.14550000 0.14550500 10889.74218239 0 -30.08228858 0 3078.01772099 0 367.61336354 0 324.52984043 0 23559
0.14650000 0.14650700 10799.04876980 0 139.19019530 0 3331.49645306 0 206.40252864 0 813.85130561 0 23044
0.14750000 0.14750500 10650.71283420 0 342.58658775 0 3397.37678573 0 -193.10909546 0 1026.04576736 0 23649
0.14850000 0.14849900 10476.70017735 0 255.45957098 0 3529.41425919 0 -24.70313173 0 1249.03574582 0 23640
0.14950000 0.14949500 10281.17399338 0 123.49406763 0 3646.51516647 0 -262.94556979 0 1152.23040993 0 24457
0.15050000 0.15050000 10281.98227309 0 98.15427722 0 3653.34679089 0 -121.69370762 0 757.10564091 0 24591
0.15150000 0.15149900 10196.23818970 0 98.06580935 0 3593.53409222 0 -92.58179759 0 578.69505665 0 25020
0.15250000 0.15250500 10103.41889074 0 168.12218005 0 3360.09626806 0 129.26274886 0 145.05520575 0 25297
0.15350000 0.15350100 10008.11939103 0 11.59704229 0 2960.58464396 0 546.51666626 0 49.66934190 0 25452
0.15450000 0.15450400 9906.29829199 0 -89.39839348 0 2902.69852981 0 556.91468650 0 -40.59535027 0 26061
0.15550000 0.15549900 10023.12239116 0 48.96492060 0 2533.25933991 0 420.84245787 0 -52.19261401 0 26128
0.15650000 0.15649500 10012.50403166 0 106.57920918 0 2580.01776762 0 242.08973876 0 275.81825463 0 26331
0.15750000 0.15749700 9856.21816684 0 221.16636656 0 2440.00822029 0 34.83718775 0 578.30420358 0 27345
0.15850000 0.15849900 9694.77259866 0 197.82258414 0 2787.66814727 0 -302.82144040 0 937.05527833 0 26980
0.15950000 0.15949700 9543.69072651 0 194.11114086 0 2816.86586781 0 -32.24039541 0 834.98505199 0 27777
0.16050000 0.16050000 9484.95204335 0 120.22551735 0 3010.58726284 0 163.32897063 0 923.04214404 0 28224
0.16150000 0.16150500 9311.71444923 0 79.62097705 0 2813.57738734 0 129.58163182 0 748.85343723 0 28075
0.16250000 0.16249700 9281.56450875 0 137.55702738 0 2601.23234197 0 342.10826332 0 548.89943056 0 28590
0.16350000 0.16349900 9144.31197030 0 90.74877421 0 2385.78704565 0 198.35184127 0 779.11299372 0 29163
0.16450000 0.16449100 9037.84049484 0 76.57653062 0 2214.49818070 0 183.83270173 0 786.48605482 0 28996
0.16550000 0.16550500 9060.72699024 0 157.55807494 0 2250.41680242 0 35.10203776 0 555.00138877 0 30777
0.16650000 0.16650700 8818.99599480 0 228.58703865 0 2286.45721970 0 -230.62434642 0 594.47865568 0 29211
0.16750000 0.16749900 8712.83454444 0 278.27298904 0 2567.89357194 0 -313.45087222 0 493.03180122 0 30922
0.16850000 0.16850800 8523.17669262 0 149.63139760 0 2745.74832550 0 -251.57650667 0 450.54618366 0 30867
0.16950000 0.16949900 8378.51676887 0 143.07325961 0 2906.39668630 0 25.81446098 0 266.49978606 0 30852
0.17050000 0.17049200 8425.21983495 0 101.40544396 0 2793.52540709 0 21.65658156 0 309.37625669 0 31257
0.17150000 0.17149500 8207.28326555 0 46.23105288 0 2547.14403523 0 321.22696594 0 22.70313770 0 32608
0.17250000 0.17250900 8197.93822340 0 89.09324021 0 2635.10258359 0 43.83101575 0 -211.67184802 0 32361
0.17350000 0.17350400 8091.51103724 0 115.72240284 0 2315.25633655 0 47.42819264 0 -353.08979507 0 32508
0.17450000 0.17449800 8033.10452383 0 21.71947236 0 2504.59309095 0 -71.90245942 0 -92.17068217 0 32791
0.17550000 0.17549800 8044.64188629 0 85.25524025 0 2364.12957830 0 79.00236626 0 32.65793278 0 33633
0.17650000 0.17650100 7983.47836399 0 39.37695165 0 2498.44795068 0 208.94141272 0 111.88473506 0 33984
0.17750000 0.17750300 7928.07245060 0 179.22329291 0 2399.02954613 0 228.57264463 0 146.98621920 0 34069
0.17850000 0.17849800 7892.08739494 0 117.38325156 0 2351.06423502 0 312.48093657 0 206.37041890 0 34536
