### header ###
fiducial parameters:
Omega_m = 0.31
Omega_nu = 0
Omega_de = 0.69
Omega_k = 0
H_0 = 100
w_de = -1
zeff = 0
beta = 0
fgrowth = 0
b_1 = 2
gamma = 0.55
Lx = 3500 Ly = 3500 Lz = 3500
nx = 700 ny = 700 nz = 700
xoffset = -685.467585 yoffset = -31.7331281 zoffset = 572.489161
bins = 400 dk = 0.001
kx_ny = 0.628318531 ky_ny = 0.628318531 kz_ny = 0.628318531
############################
A(data) = 8.08235431 (not used)
A(ran) = 8.08260444 (used)
Ngal = 480346
weighted Ngal = 0
Nran = 23820508
weighted Nran = 0
SN(data) = 3484.49217
SN(ran) = 70.402416
SN(data+ran) = 3554.89458
############################
13 columns: k_central k_mean P_0(k) sigma^{lin}_{P_0(k)} P^img_1(k) sigma^{lin}_{P_1(k)} P_2(k) sigma^{lin}_{P_2(k)} P^img_3(k) sigma^{lin}_{P_3(k)} P_4(k) sigma^{lin}_{P_4(k)} N_modes
### header ###
0.00050000 0 0 0 0 0 0 0 0 0 0 0 0
0.00150000 0.00179520 32305.83284661 0 -30954.45560250 0 30868.97725490 0 -77294.34943350 0 -41745.21120100 0 3
0.00250000 0.00253879 55057.02443747 0 -26049.30498459 0 -20799.03000208 0 5349.75982100 0 35660.08292717 0 6
0.00350000 0.00331552 58398.54134449 0 -9106.13459433 0 -12041.59613327 0 -16197.81470045 0 -2238.29260674 0 7
0.00450000 0.00420575 59547.62721417 0 978.92638187 0 -23442.87972228 0 -32541.00902576 0 19804.07089388 0 24
0.00550000 0.00557378 53697.45367299 0 -5409.39536247 0 -22962.34082515 0 -7808.82351230 0 3222.04652223 0 45
0.00650000 0.00659388 52193.94268587 0 2040.83983825 0 -33007.81824011 0 -28793.35924439 0 21132.30697912 0 40
0.00750000 0.00754703 72652.72014627 0 -23903.93132773 0 -11214.82563906 0 -3146.48897766 0 -27020.56931768 0 57
0.00850000 0.00846663 71858.05939404 0 -7952.85231354 0 -8993.65084649 0 -22584.88527208 0 -9481.98466029 0 75
0.00950000 0.00948925 75018.43306702 0 16309.97735086 0 -14956.05347203 0 -19021.58969895 0 7861.18453637 0 112
0.01050000 0.01054430 61642.84323960 0 -2598.71892424 0 989.00109022 0 -14903.45992915 0 12010.37217728 0 105
0.01150000 0.01145670 66571.57790937 0 -4636.62459641 0 16594.53609870 0 -1176.11341456 0 12388.15990009 0 144
0.01250000 0.01249090 62998.20652065 0 3573.55961824 0 23506.10269699 0 -1594.12689344 0 8014.41443953 0 169
0.01350000 0.01339930 67949.75017955 0 4072.31248970 0 29895.49845684 0 -6358.65898615 0 5275.80776354 0 180
0.01450000 0.01448870 64685.07520677 0 -1654.41570208 0 29688.99959897 0 -1915.42361503 0 25499.23188760 0 267
0.01550000 0.01550050 74572.77199307 0 -2660.97860669 0 46140.37053777 0 -296.76930765 0 12213.21716796 0 238
0.01650000 0.01653350 70525.83727186 0 4078.18082185 0 36299.17751571 0 -3419.27784422 0 -719.19953690 0 315
0.01750000 0.01747870 83391.32509488 0 3424.28253504 0 55075.40449667 0 -3982.42735682 0 -16774.35065375 0 297
0.01850000 0.01844180 72077.84504169 0 2225.32691438 0 45598.26951465 0 -15348.78883335 0 -20352.70458864 0 388
0.01950000 0.01947590 77228.91199382 0 3391.85169564 0 43423.99709001 0 -13588.06774069 0 -29020.45262642 0 399
0.02050000 0.02045430 68922.23246837 0 -801.11702484 0 44198.72765757 0 4228.85301799 0 -34762.44955413 0 462
0.02150000 0.02154770 75679.34013545 0 -1108.45043759 0 42791.21372662 0 10136.85731169 0 -40703.85905181 0 571
0.02250000 0.02255340 71819.63842692 0 226.82543177 0 26941.29147198 0 23959.84656806 0 -36944.80477588 0 510
0.02350000 0.02348930 74075.84605521 0 159.20342240 0 19489.72759228 0 5984.33690101 0 -34659.03404032 0 555
0.02450000 0.02439640 70827.22595342 0 2701.56974948 0 17808.17362207 0 8852.98803200 0 -17744.39703111 0 592
0.02550000 0.02547300 69010.25745068 0 2471.66399694 0 21033.20967200 0 2612.33788376 0 -11352.67608305 0 837
0.02650000 0.02652900 66665.91411683 0 4130.48648430 0 17639.43139183 0 2008.15433538 0 -2692.19149035 0 723
0.02750000 0.02749970 67002.62351456 0 169.97347276 0 20494.98396256 0 -1957.50952166 0 6206.38130292 0 826
0.02850000 0.02848090 64400.40573569 0 1726.57404292 0 24785.17766004 0 3137.35430969 0 11836.42595438 0 831
0.02950000 0.02946900 64603.91506585 0 1528.25763309 0 22636.37158249 0 10521.95276889 0 8558.86279551 0 996
0.03050000 0.03053250 64198.55725424 0 244.97297215 0 22825.48689039 0 1715.50171810 0 15114.71988669 0 1041
0.03150000 0.03150510 63266.04605802 0 -1688.45202857 0 21913.23804858 0 10166.70829940 0 5732.75153648 0 1036
0.03250000 0.03246190 60671.02529027 0 2178.08130438 0 20408.84127547 0 -1923.65035237 0 -47.89168015 0 1059
0.03350000 0.03345080 61812.47125582 0 2950.97386602 0 21328.28712841 0 794.04180928 0 -4774.35324483 0 1302
0.03450000 0.03451200 56174.44345817 0 3874.06251382 0 19398.93452876 0 -5609.07366825 0 -7268.58263975 0 1339
0.03550000 0.03553350 50975.32261632 0 5823.67746789 0 15535.02533680 0 -1650.18607400 0 -2455.93022337 0 1365
0.03650000 0.03647120 50950.40988548 0 3054.36723517 0 20482.69368201 0 4390.65290056 0 -7462.08258828 0 1308
0.03750000 0.03744890 45805.43271200 0 -275.10187521 0 12062.07993419 0 9148.79626185 0 -4730.31860902 0 1579
0.03850000 0.03847530 49788.03722602 0 -1263.79515480 0 13576.22035313 0 6748.96950833 0 -2972.14415107 0 1662
0.03950000 0.03950240 48893.28265743 0 -1195.36818742 0 11458.08461533 0 6706.70644450 0 851.24033206 0 1683
0.04050000 0.04050350 47565.48946517 0 1782.33427071 0 12330.47308779 0 -95.01394446 0 5090.80028814 0 1822
0.04150000 0.04152450 47382.68538242 0 3695.53234845 0 16219.73790359 0 1693.61173194 0 10032.63351818 0 1887
0.04250000 0.04250150 44422.49934215 0 3893.15120181 0 17176.82966091 0 -2937.01166442 0 16140.23861139 0 1920
0.04350000 0.04349210 42780.80574129 0 3490.88256882 0 21812.81206248 0 -1376.45605983 0 13428.07264706 0 2005
0.04450000 0.04448520 41664.05106008 0 -36.26950369 0 24289.69112441 0 -2932.10662453 0 17869.84647131 0 2151
0.04550000 0.04548030 41666.70841804 0 398.67234189 0 25640.95764528 0 2669.47107983 0 13138.97424605 0 2274
0.04650000 0.04648670 41318.04090950 0 307.84273970 0 26209.07863172 0 1505.40435467 0 11558.28915494 0 2311
0.04750000 0.04749250 40970.81280319 0 1169.82433406 0 25284.53950936 0 490.13860275 0 7525.22805672 0 2568
0.04850000 0.04851840 39589.20811232 0 2368.94603960 0 24582.99700885 0 4383.35623850 0 10042.18893449 0 2493
0.04950000 0.04949480 38485.74022089 0 1029.63430784 0 23117.24264936 0 309.85679558 0 8814.71100510 0 2644
0.05050000 0.05050630 37156.06473342 0 -157.32001995 0 19920.33030447 0 6270.09145993 0 8832.96926872 0 2829
0.05150000 0.05149060 37756.51690834 0 -817.51403066 0 19649.05834642 0 5243.91946806 0 8827.92028861 0 2784
0.05250000 0.05249300 37440.40203476 0 -305.55187570 0 13943.37864412 0 4314.25385931 0 4791.92502431 0 3055
0.05350000 0.05348950 37198.25029098 0 917.24356753 0 14582.03033966 0 1834.93888592 0 5313.11042585 0 3009
0.05450000 0.05448610 36775.84109915 0 797.90272894 0 10791.75210774 0 248.78960251 0 2228.96970924 0 3336
0.05550000 0.05550870 36693.13083275 0 431.08989449 0 12503.75497120 0 -2496.94211450 0 2009.94805200 0 3349
0.05650000 0.05647670 36009.63622170 0 32.97460127 0 12916.97413343 0 -1727.49304588 0 828.26415083 0 3324
0.05750000 0.05747970 35939.99129859 0 1266.44144043 0 12409.86165674 0 -89.36894109 0 -2865.75018189 0 3639
0.05850000 0.05849280 34905.72543728 0 525.58775789 0 11344.70400919 0 1073.69883892 0 -2459.31835477 0 3846
0.05950000 0.05951020 34097.00283252 0 206.03935639 0 11600.47471250 0 1220.48022011 0 -5474.76636820 0 3787
0.06050000 0.06049470 33768.26550866 0 430.08009847 0 9686.57907829 0 2747.08807681 0 -3448.16553967 0 3930
0.06150000 0.06148310 32721.37719706 0 227.49973635 0 9469.84939229 0 1220.71273893 0 -5389.69769662 0 4083
0.06250000 0.06249100 32624.93724789 0 1156.90293100 0 8717.29669134 0 1246.02407347 0 -1327.19528671 0 4303
0.06350000 0.06350600 31466.10773237 0 1225.41847698 0 8947.23566085 0 216.63557124 0 -3161.29267595 0 4470
0.06450000 0.06451750 31011.36735206 0 672.07461524 0 9432.67959788 0 -1185.84598808 0 -2118.75578800 0 4479
0.06550000 0.06550280 30688.83053010 0 1176.22413781 0 10804.19740084 0 -1267.80333638 0 -1200.91542216 0 4636
0.06650000 0.06648880 29586.91276415 0 864.18830870 0 11140.53033953 0 531.78715255 0 667.28362029 0 4653
0.06750000 0.06749660 29596.65640999 0 -840.58654112 0 10827.99182687 0 3380.80151548 0 1571.03002387 0 5220
0.06850000 0.06852730 30111.74096055 0 -981.99673754 0 8404.81354031 0 3471.01881810 0 611.47467427 0 5029
0.06950000 0.06949320 30994.98031133 0 -201.60489030 0 9274.09068950 0 2694.39488299 0 810.00145827 0 5040
0.07050000 0.07048030 30997.52694604 0 726.12195437 0 8171.53072871 0 104.52274629 0 1422.69408827 0 5475
0.07150000 0.07148790 29198.05271651 0 2647.38179181 0 9390.08436430 0 -1386.62045401 0 5115.29227064 0 5509
0.07250000 0.07249820 28540.13517579 0 1367.69785090 0 9981.19149707 0 -1750.14702246 0 5601.46698110 0 5916
0.07350000 0.07351270 28330.09317398 0 -481.39035891 0 11089.59764536 0 -136.48965527 0 7412.22390962 0 5721
0.07450000 0.07449140 28543.12470349 0 -356.30741266 0 11917.36464881 0 721.24127359 0 4327.27491330 0 6028
0.07550000 0.07549160 28782.39764282 0 -182.77861641 0 12679.91565907 0 1211.21268424 0 3321.94103674 0 6183
0.07650000 0.07648840 28796.12732560 0 115.63825317 0 11207.51790468 0 207.21634452 0 4098.86392461 0 6330
0.07750000 0.07749960 28501.49276217 0 554.40126876 0 11243.06006735 0 102.29687683 0 3364.58055962 0 6583
0.07850000 0.07848650 27941.56529609 0 514.37924347 0 10762.36615767 0 1175.47121972 0 4462.85553070 0 6549
0.07950000 0.07947320 27539.19701219 0 1401.86704529 0 11393.97585463 0 -584.32865551 0 2073.80214923 0 6828
0.08050000 0.08048110 25448.40991668 0 1460.67216240 0 10332.62708681 0 753.39087594 0 3198.50675966 0 7147
0.08150000 0.08149960 24600.82345181 0 1213.80360824 0 10679.41230013 0 855.86524213 0 3128.71789633 0 7386
0.08250000 0.08250610 23559.02840963 0 499.96750549 0 8858.53526673 0 2134.65564644 0 3002.69269524 0 7227
0.08350000 0.08350160 23393.05426060 0 -209.42748778 0 8910.94058010 0 1957.71989583 0 3327.66542867 0 7798
0.08450000 0.08449610 23621.25487511 0 -394.32645439 0 8295.23074158 0 1641.36143112 0 2471.02180210 0 7371
0.08550000 0.08548940 22998.21515756 0 383.62615969 0 6995.74948389 0 739.05332253 0 3489.33244335 0 8256
0.08650000 0.08650700 22871.43703839 0 1008.95784847 0 7260.16767289 0 415.33840520 0 2412.16132337 0 8037
0.08750000 0.08749060 22111.65410933 0 595.26036181 0 6291.35032358 0 -185.33743067 0 2999.47064872 0 8155
0.08850000 0.08849210 21822.11281533 0 97.31366632 0 6423.93034096 0 312.83303650 0 1842.23554798 0 8718
0.08950000 0.08949900 21421.40538014 0 457.66015236 0 7099.74075859 0 -237.98854965 0 2260.99087262 0 8571
0.09050000 0.09049190 20777.54969193 0 1083.74918816 0 7568.10009842 0 162.67127454 0 1853.58468092 0 8932
0.09150000 0.09150830 20304.98286867 0 830.08776272 0 7033.63897942 0 329.10381782 0 2526.90382546 0 9285
0.09250000 0.09250820 19449.09216019 0 135.47543032 0 7425.54391638 0 1095.92985269 0 2917.45793879 0 9204
0.09350000 0.09350330 19969.71287317 0 12.37166214 0 7608.25942053 0 742.99396293 0 2864.74260033 0 9349
0.09450000 0.09448040 19542.54258166 0 -165.40281707 0 6728.74037089 0 392.35447334 0 3440.12703185 0 9564
0.09550000 0.09549270 19761.55316658 0 225.84663826 0 6808.18430146 0 -300.83949425 0 2691.84824829 0 10155
0.09650000 0.09649430 19306.92350952 0 641.35445003 0 6740.35523962 0 -152.49359356 0 1839.16851400 0 9913
0.09750000 0.09749140 18574.93211576 0 961.95915131 0 7186.71387004 0 140.46019095 0 1331.94531406 0 10476
0.09850000 0.09850240 17813.59906123 0 792.49943443 0 6483.75411195 0 -746.02002931 0 1223.00471017 0 10575
0.09950000 0.09950330 17370.92751498 0 227.65807060 0 6532.12909909 0 191.34527412 0 580.77554648 0 10882
0.10050000 0.10051200 17408.35197287 0 49.52938772 0 6141.27603299 0 276.35194068 0 -63.34543463 0 10875
0.10150000 0.10150300 17175.39025868 0 -48.75875391 0 6526.16111601 0 -11.76711320 0 -248.81063993 0 11118
0.10250000 0.10250800 17145.82715142 0 325.26947173 0 6219.75667130 0 -82.60452569 0 -198.57882392 0 11575
0.10350000 0.10349800 16898.02852198 0 431.80959560 0 6496.06653715 0 -5.42464195 0 235.32011937 0 11364
0.10450000 0.10450100 16533.63831220 0 153.30962390 0 6549.93339739 0 553.71478462 0 198.59211071 0 12093
0.10550000 0.10551000 16221.50947556 0 536.63904529 0 6823.85164108 0 658.62284781 0 593.95161301 0 12067
0.10650000 0.10649700 16162.93687727 0 491.71087287 0 6023.28933972 0 473.38174637 0 404.39009042 0 12054
0.10750000 0.10749900 15613.63884301 0 -147.42911219 0 6248.56686048 0 393.61118221 0 1625.74945312 0 12807
0.10850000 0.10850100 15890.77913322 0 -86.21831107 0 5933.04989245 0 597.56783430 0 1388.33666436 0 12736
0.10950000 0.10950300 15975.03952509 0 -182.20064105 0 5503.15580904 0 960.42120540 0 464.41537773 0 12933
0.11050000 0.11050200 16082.21962934 0 55.02015360 0 5230.32265318 0 273.65250789 0 99.21821691 0 13428
0.11150000 0.11150900 15714.72916861 0 314.83602006 0 4205.94437794 0 33.42812369 0 49.91869066 0 13453
0.11250000 0.11250000 15474.68116654 0 519.51901665 0 4771.99483964 0 -179.03506339 0 -183.11521508 0 13668
0.11350000 0.11349100 15171.41018976 0 233.19423301 0 4121.70613072 0 214.73556030 0 -340.45627245 0 13791
0.11450000 0.11448600 14917.07888867 0 148.08016489 0 4358.19991652 0 43.45311730 0 53.43968995 0 14205
0.11550000 0.11549300 14867.14270374 0 230.19916914 0 4022.96313798 0 142.50635658 0 132.33199730 0 14776
0.11650000 0.11649800 14647.02488635 0 245.88090278 0 4441.50808845 0 217.45270881 0 226.95276351 0 14553
0.11750000 0.11747300 14489.02281118 0 354.46054888 0 4650.54250870 0 15.86143747 0 431.47742586 0 14568
0.11850000 0.11849100 14197.15632896 0 343.56205957 0 4833.61232726 0 138.79269883 0 87.59482249 0 16015
0.11950000 0.11950300 14009.14825354 0 418.46633696 0 4922.10234721 0 -406.57687457 0 820.71282530 0 15270
0.12050000 0.12050700 13647.96901796 0 312.69906137 0 5362.96910451 0 -63.85808327 0 678.44784540 0 15999
0.12150000 0.12150000 13558.06174043 0 110.51132389 0 5111.42802928 0 645.31169892 0 722.90987294 0 15670
0.12250000 0.12250700 13420.21129644 0 -22.48744881 0 4819.05222012 0 712.72554858 0 613.23738838 0 16887
0.12350000 0.12352200 13546.87869237 0 -77.67468379 0 4314.39779953 0 293.15087190 0 936.29460962 0 16407
0.12450000 0.12449800 13500.37492813 0 -46.62567053 0 4048.13053230 0 744.28831770 0 765.33237825 0 16306
0.12550000 0.12549900 13617.18795496 0 106.84682727 0 4253.40036211 0 10.45739004 0 1271.40184195 0 17523
0.12650000 0.12650100 13507.23976951 0 211.91322470 0 4444.14330176 0 -56.99523490 0 977.80254090 0 17154
0.12750000 0.12750600 13209.28350865 0 280.27265090 0 4438.80644120 0 -180.11572229 0 1488.07616633 0 18007
0.12850000 0.12850300 13188.79970773 0 158.81699827 0 4773.85499021 0 356.28305355 0 1088.00981875 0 17496
0.12950000 0.12949900 12849.10078229 0 254.52728123 0 4465.85613073 0 97.72411740 0 893.38824371 0 18405
0.13050000 0.13049000 12676.26179188 0 389.77240720 0 4223.12862605 0 263.22569961 0 578.20676712 0 18100
0.13150000 0.13148800 12336.78431294 0 77.46475251 0 4070.33054356 0 494.80669489 0 852.68969938 0 19059
0.13250000 0.13249300 12331.35887377 0 18.14964412 0 3768.24430553 0 320.66670631 0 224.36405396 0 18957
0.13350000 0.13349100 12205.79871033 0 180.82767278 0 3354.44938241 0 447.00968311 0 380.76728542 0 19468
0.13450000 0.13450700 12094.96473890 0 147.82993035 0 3106.80576551 0 -76.53689169 0 330.40924491 0 19953
0.13550000 0.13551000 11828.12171077 0 80.76441603 0 3038.30129186 0 466.78374801 0 589.94010973 0 19956
0.13650000 0.13649900 11816.05287671 0 234.16416866 0 3063.57940942 0 178.62760183 0 277.46360210 0 19723
0.13750000 0.13749600 11659.15803403 0 166.20002446 0 3152.13586332 0 19.47987322 0 546.85990833 0 20946
0.13850000 0.13851100 11489.08712482 0 188.36238981 0 3244.47905231 0 -296.44488853 0 622.16500388 0 20955
0.13950000 0.13949800 11361.86611265 0 289.86017696 0 3423.66248485 0 -408.03731422 0 304.22319672 0 20506
0.14050000 0.14048300 11347.36136714 0 -13.92865245 0 3692.37673587 0 -418.35672095 0 292.77884178 0 21447
0.14150000 0.14148400 11207.51790468 0 24.37815900 0 3707.31330205 0 -6.01024614 0 117.39653835 0 21771
0.14250000 0.14249400 11375.04217919 0 36.08802828 0 3879.00077069 0 179.81344782 0 -512.60434980 0 22470
0.14350000 0.14350900 11269.30147717 0 100.05827420 0 3740.02094957 0 -169.73873947 0 -385.20396598 0 22519
0.14450000 0.14449900 11253.80022242 0 238.80347276 0 3657.23317690 0 15.90473026 0 -273.64032834 0 22218
0.14550000 0.14550500 11028.68878654 0 248.37106863 0 3722.64847193 0 227.53848949 0 32.11837839 0 23559
0.14650000 0.14650700 10909.57271614 0 66.14872582 0 3717.82093831 0 21.91113431 0 94.05895644 0 23044
0.14750000 0.14750500 10765.10102190 0 166.84332653 0 3592.02825604 0 508.83311597 0 -202.46188824 0 23649
0.14850000 0.14849900 10544.93891521 0 399.77182374 0 3562.80839084 0 280.76979829 0 368.88778812 0 23640
0.14950000 0.14949500 10343.71048396 0 207.34810518 0 3272.55846805 0 70.38953695 0 101.99593104 0 24457
0.15050000 0.15050000 10221.72668143 0 -29.83902960 0 3281.25024303 0 421.38278732 0 495.33816648 0 24591
0.15150000 0.15149900 10163.76306100 0 -2.43322089 0 2927.99879202 0 320.11973346 0 170.21927837 0 25020
0.15250000 0.15250500 10013.83271063 0 63.06696566 0 2940.27800024 0 324.09359084 0 111.13956760 0 25297
0.15350000 0.15350100 10182.75209807 0 98.58177968 0 2737.94233651 0 271.14241186 0 141.02377229 0 25452
0.15450000 0.15450400 9771.08306131 0 213.62389889 0 2706.97304399 0 38.44599057 0 128.37585564 0 26061
0.15550000 0.15549900 9801.36586969 0 460.88773504 0 2627.90557246 0 -169.46525305 0 410.63820332 0 26128
0.15650000 0.15649500 9341.02289303 0 375.70834021 0 3042.33161809 0 -246.80876360 0 306.32361674 0 26331
0.15750000 0.15749700 9242.72279329 0 269.08517391 0 3133.13575393 0 -370.86973427 0 643.65195743 0 27345
0.15850000 0.15849900 9069.78415195 0 41.54059464 0 3326.51390689 0 -186.65503733 0 410.09565940 0 26980
0.15950000 0.15949700 9084.34425908 0 -1.88968046 0 3450.26928139 0 -76.47842982 0 344.99814009 0 27777
0.16050000 0.16050000 9116.00003574 0 -17.64319598 0 3363.79442455 0 148.16431456 0 254.11539075 0 28224
0.16150000 0.16150500 9085.51792551 0 -18.93057519 0 3165.34514683 0 507.64616275 0 51.14340051 0 28075
0.16250000 0.16249700 9110.48601798 0 -52.61280873 0 2970.33936212 0 395.95630061 0 160.64725356 0 28590
0.16350000 0.16349900 9089.86934917 0 81.24329408 0 2784.65647492 0 552.60865937 0 -118.90901792 0 29163
0.16450000 0.16449100 8955.03057753 0 166.30299708 0 2343.50183717 0 488.76563447 0 358.91494516 0 28996
0.16550000 0.16550500 8763.23576702 0 142.50746381 0 2208.64092087 0 339.19734912 0 392.59695726 0 30777
0.16650000 0.16650700 8712.54666400 0 130.04445500 0 2024.53030379 0 21.18512197 0 372.88379015 0 29211
0.16750000 0.16749900 8645.34872467 0 82.46667525 0 2169.86563936 0 36.15257994 0 588.08549533 0 30922
0.16850000 0.16850800 8584.49522747 0 72.51110511 0 2012.25109557 0 -107.81222327 0 815.83214452 0 30867
0.16950000 0.16949900 8518.00591693 0 -40.65591589 0 2128.42192756 0 103.60994383 0 827.99841503 0 30852
0.17050000 0.17049200 8647.89535938 0 37.05109909 0 2231.90387532 0 257.96966702 0 838.56473461 0 31257
0.17150000 0.17149500 8490.17009234 0 144.15945467 0 2194.53477906 0 60.38735233 0 474.30074933 0 32608
0.17250000 0.17250900 8486.47193585 0 133.75146934 0 2096.95438043 0 -89.96396783 0 684.09805276 0 32361
0.17350000 0.17350400 8347.51425938 0 131.44731855 0 2146.39231074 0 -23.46015255 0 906.99945261 0 32508
0.17450000 0.17449800 8277.96898719 0 66.07321257 0 2234.15155726 0 52.49145605 0 754.84356495 0 32791
0.17550000 0.17549800 8248.46124155 0 -22.85981110 0 2124.48017993 0 158.54240461 0 497.36993809 0 33633
0.17650000 0.17650100 8193.50929347 0 28.34282635 0 1866.07426331 0 -24.01144360 0 48.95274104 0 33984
0.17750000 0.17750300 8225.37544430 0 112.14714916 0 1820.45628506 0 -93.11980185 0 -107.75497935 0 34069
0.17850000 0.17849800 8043.21355639 0 106.86354648 0 1778.63611422 0 -49.75825267 0 -80.36902331 0 34536
