### header ###
fiducial parameters:
Omega_m = 0.31
Omega_nu = 0
Omega_de = 0.69
Omega_k = 0
H_0 = 100
w_de = -1
zeff = 0
beta = 0
fgrowth = 0
b_1 = 2
gamma = 0.55
Lx = 3500 Ly = 3500 Lz = 3500
nx = 700 ny = 700 nz = 700
xoffset = -685.467585 yoffset = -31.7331281 zoffset = 572.489161
bins = 400 dk = 0.001
kx_ny = 0.628318531 ky_ny = 0.628318531 kz_ny = 0.628318531
############################
A(data) = 8.06558248 (not used)
A(ran) = 8.06035537 (used)
Ngal = 478606
weighted Ngal = 0
Nran = 23820508
weighted Nran = 0
SN(data) = 3492.10937
SN(ran) = 70.2086185
SN(data+ran) = 3562.31799
############################
13 columns: k_central k_mean P_0(k) sigma^{lin}_{P_0(k)} P^img_1(k) sigma^{lin}_{P_1(k)} P_2(k) sigma^{lin}_{P_2(k)} P^img_3(k) sigma^{lin}_{P_3(k)} P_4(k) sigma^{lin}_{P_4(k)} N_modes
### header ###
0.00050000 0 0 0 0 0 0 0 0 0 0 0 0
0.00150000 0.00179520 5088.81834200 0 -1692.32734226 0 -5123.77367145 0 -3518.14263253 0 4652.53552717 0 3
0.00250000 0.00253879 13689.82240577 0 -5802.15286844 0 1839.72213024 0 -5108.84817760 0 -5959.78955688 0 6
0.00350000 0.00331552 16242.21472297 0 -6523.06086506 0 7454.66413065 0 -6587.78967595 0 28905.30044831 0 7
0.00450000 0.00420575 22918.82658861 0 -8576.91068497 0 14267.79776131 0 4230.55815601 0 17940.26645716 0 24
0.00550000 0.00557378 33224.06074382 0 -4819.09650942 0 22571.26631256 0 19409.45323734 0 7426.16396657 0 45
0.00650000 0.00659388 48280.76164846 0 -1400.50514934 0 31677.81058290 0 36425.51274189 0 31634.51779286 0 40
0.00750000 0.00754703 44650.36778692 0 2492.40246133 0 18549.79793842 0 18732.82346767 0 22965.66252260 0 57
0.00850000 0.00846663 56011.56956009 0 -4567.98725486 0 14408.63773300 0 23409.55202457 0 11561.50012913 0 75
0.00950000 0.00948925 60848.29321062 0 -3261.19826278 0 28121.93346739 0 6052.54242189 0 -497.00122967 0 112
0.01050000 0.01054430 61148.46393645 0 4881.94302509 0 42529.35324466 0 -28386.56203056 0 4268.91268918 0 105
0.01150000 0.01145670 58030.60799077 0 13146.94631992 0 45412.03301120 0 -10027.88349083 0 -2880.08884253 0 144
0.01250000 0.01249090 52907.44329718 0 185.02851281 0 53974.92613294 0 4667.60496125 0 16098.27450033 0 169
0.01350000 0.01339930 50381.40311305 0 -4220.46019577 0 46729.41821812 0 21143.49002719 0 2323.78202666 0 180
0.01450000 0.01448870 59549.62023264 0 -6160.47544422 0 31178.11656383 0 30367.29021736 0 -16382.27963192 0 267
0.01550000 0.01550050 67672.60988934 0 -7624.69075057 0 32784.60017177 0 28636.46440171 0 11507.02429103 0 238
0.01650000 0.01653350 66793.79946848 0 -2190.09477680 0 15476.45273851 0 -250.86566342 0 -4427.78947800 0 315
0.01750000 0.01747870 67589.12456021 0 776.16443362 0 15422.30907015 0 2569.20010627 0 1043.43596072 0 297
0.01850000 0.01844180 62514.56737257 0 4399.62148366 0 13943.15719762 0 -8465.67810984 0 656.25447754 0 388
0.01950000 0.01947590 66029.14471651 0 6424.55039115 0 15376.35892215 0 -7710.99952253 0 -8728.56831801 0 399
0.02050000 0.02045430 58085.63744511 0 -107.44329341 0 7044.33484520 0 -5651.83498670 0 -11998.41406648 0 462
0.02150000 0.02154770 58707.79137667 0 -797.17638443 0 8056.21246572 0 4051.21971092 0 -17919.00759350 0 571
0.02250000 0.02255340 64057.60655930 0 -6481.65037024 0 5688.28508001 0 -5876.68068680 0 -19712.94566062 0 510
0.02350000 0.02348930 66774.31217680 0 -5175.28212651 0 5653.21902731 0 1011.54655801 0 -22145.64614653 0 555
0.02450000 0.02439640 68742.30719007 0 573.80551801 0 11549.54201833 0 -6441.32496325 0 -12161.28796456 0 592
0.02550000 0.02547300 68539.24075290 0 3685.13543544 0 12585.69017486 0 -2874.60804174 0 -8183.35597161 0 837
0.02650000 0.02652900 68051.39412139 0 2506.35359060 0 15252.90250042 0 4477.88067548 0 4372.89289155 0 723
0.02750000 0.02749970 66364.30398877 0 3374.71173683 0 18120.19173546 0 -187.55189564 0 5358.13049856 0 826
0.02850000 0.02848090 67531.65919440 0 1268.11336148 0 19585.39247871 0 1574.47351689 0 2163.38832934 0 831
0.02950000 0.02946900 62786.39294687 0 839.08070494 0 23241.03124083 0 -1562.31610424 0 2025.64860860 0 996
0.03050000 0.03053250 61631.21729854 0 2778.58884091 0 26289.57443315 0 -2981.36739764 0 -1386.41007984 0 1041
0.03150000 0.03150510 59807.38395441 0 4342.27791343 0 26506.70272285 0 982.79948109 0 4505.91580192 0 1036
0.03250000 0.03246190 59291.74578761 0 860.41596763 0 28858.02162133 0 5098.77236201 0 -1930.72556793 0 1059
0.03350000 0.03345080 52880.64827112 0 3238.96503455 0 23966.71140945 0 3964.71163711 0 -1977.88259933 0 1302
0.03450000 0.03451200 54295.91282944 0 2477.53232910 0 25834.50188311 0 1038.78558430 0 -5764.41838546 0 1339
0.03550000 0.03553350 50558.67103340 0 2703.90601001 0 25339.79041021 0 4395.20362606 0 4691.03400057 0 1365
0.03650000 0.03647120 48204.25188396 0 4044.14449536 0 26157.48159807 0 2163.80907768 0 -2383.16290467 0 1308
0.03750000 0.03744890 47030.03183694 0 851.79173383 0 20554.44234684 0 -1665.07835088 0 2295.41473048 0 1579
0.03850000 0.03847530 47707.10449961 0 330.70266152 0 27293.39140121 0 -2516.21903201 0 -7879.63102951 0 1662
0.03950000 0.03950240 44766.18430452 0 3500.50441909 0 25259.07316228 0 -3095.24625840 0 -3673.95238737 0 1683
0.04050000 0.04050350 42646.60916449 0 4201.42686941 0 26645.21750633 0 2674.64185552 0 -4611.09181537 0 1822
0.04150000 0.04152450 40467.68636343 0 -748.50576623 0 20751.08683562 0 2832.98717275 0 -2784.88899374 0 1887
0.04250000 0.04250150 42019.91557976 0 -3972.06366079 0 19353.20582726 0 10277.22117342 0 -7203.82061188 0 1920
0.04350000 0.04349210 42562.79166561 0 -1021.83717670 0 16008.47794605 0 5723.62794083 0 -12077.35974243 0 2005
0.04450000 0.04448520 42068.41236246 0 1339.41913331 0 9752.91337628 0 4285.27758526 0 -7318.41917376 0 2151
0.04550000 0.04548030 42089.00688662 0 1914.52675672 0 11422.98534565 0 -652.91838607 0 -5207.17042199 0 2274
0.04650000 0.04648670 40189.66028723 0 409.64833748 0 10399.30462687 0 -790.85297973 0 -2819.93290179 0 2311
0.04750000 0.04749250 40821.77931113 0 862.69908101 0 14751.32618614 0 1119.92136611 0 -4272.36725452 0 2568
0.04850000 0.04851840 40457.94271759 0 1025.05811599 0 14355.15840413 0 -418.00904995 0 4704.95191286 0 2493
0.04950000 0.04949480 40068.08616072 0 436.96154834 0 15757.02544942 0 2475.34000878 0 2867.42210293 0 2644
0.05050000 0.05050630 40799.30249175 0 -698.64819480 0 17514.97846087 0 2365.85686097 0 7163.92702556 0 2829
0.05150000 0.05149060 40911.35441891 0 362.74375508 0 15146.38673567 0 6112.56549473 0 7994.66141206 0 2784
0.05250000 0.05249300 39622.64653327 0 468.87088124 0 16194.27155650 0 3318.63041162 0 10851.81946988 0 3055
0.05350000 0.05348950 38853.89502111 0 757.14550128 0 11946.04197009 0 6119.09816638 0 7698.78674825 0 3009
0.05450000 0.05448610 36991.86215636 0 546.03059120 0 9749.56953419 0 2587.73517802 0 6778.56583257 0 3336
0.05550000 0.05550870 37305.98401147 0 1586.04409632 0 8059.04698088 0 1479.18508950 0 3960.38235811 0 3349
0.05650000 0.05647670 35317.50519728 0 1079.92923609 0 8640.15580433 0 -1410.92420699 0 3960.29377951 0 3324
0.05750000 0.05747970 33731.39466701 0 1805.82974397 0 5695.16099372 0 -3188.49737803 0 122.12884998 0 3639
0.05850000 0.05849280 33851.08649830 0 1088.88010348 0 8938.70997074 0 -2963.47452074 0 2548.66094373 0 3846
0.05950000 0.05951020 32127.45769378 0 1165.82722480 0 9776.27598165 0 -1239.77928227 0 1596.14205656 0 3787
0.06050000 0.06049470 32390.64685472 0 1071.48105226 0 10022.61306421 0 1385.41357061 0 1523.02042345 0 3930
0.06150000 0.06148310 31751.77371269 0 -563.73966751 0 8918.90158164 0 1665.93091989 0 1970.90703469 0 4083
0.06250000 0.06249100 31952.62568490 0 129.76764687 0 9646.53047942 0 2085.42809029 0 255.95893283 0 4303
0.06350000 0.06350600 32589.17363872 0 20.47438944 0 10395.09714344 0 350.26635224 0 984.72274391 0 4470
0.06450000 0.06451750 31068.38982488 0 -33.24000489 0 8718.73609357 0 -1564.96238987 0 1905.83498173 0 4479
0.06550000 0.06550280 31890.50994267 0 19.15512194 0 9506.52093209 0 667.49953062 0 1330.41733323 0 4636
0.06650000 0.06648880 31720.10686371 0 711.87962296 0 11000.67580474 0 1055.14715869 0 1635.96920893 0 4653
0.06750000 0.06749660 31376.86479433 0 695.76828312 0 10268.97229143 0 364.75670373 0 190.17271492 0 5220
0.06850000 0.06852730 30204.96993552 0 1198.39093210 0 10717.87755655 0 685.89841277 0 474.51444520 0 5029
0.06950000 0.06949320 29467.33165610 0 1148.14472207 0 11147.39518092 0 297.82228574 0 1984.82494699 0 5040
0.07050000 0.07048030 28694.48338376 0 1283.90249667 0 11477.57190701 0 226.74238933 0 2470.56783678 0 5475
0.07150000 0.07148790 27858.19069021 0 46.83349807 0 9300.77499231 0 -36.21292411 0 3601.47294911 0 5509
0.07250000 0.07249820 27846.89691890 0 251.24876585 0 10159.64415617 0 2213.36880357 0 1967.57426492 0 5916
0.07350000 0.07351270 27882.66052806 0 -282.09626280 0 8565.69441993 0 -224.66965013 0 953.95053877 0 5721
0.07450000 0.07449140 27655.56714603 0 329.69286550 0 9547.43317230 0 320.67224247 0 -533.60079936 0 6028
0.07550000 0.07549160 26619.75115924 0 917.84368754 0 7791.26280514 0 351.79765477 0 1624.70865459 0 6183
0.07650000 0.07648840 26494.96605854 0 696.95412910 0 8369.63676436 0 337.30841051 0 157.23365582 0 6330
0.07750000 0.07749960 26149.84169394 0 480.62304680 0 7441.86452316 0 1439.59045595 0 1286.38269743 0 6583
0.07850000 0.07848650 25230.61728750 0 617.29982436 0 8923.65160899 0 -368.87007240 0 1864.52413784 0 6549
0.07950000 0.07947320 25241.46816582 0 920.73577878 0 7529.60162502 0 640.59710301 0 536.00792277 0 6828
0.08050000 0.08048110 24404.73257927 0 416.71248071 0 9005.52037870 0 -243.70186926 0 195.67898205 0 7147
0.08150000 0.08149960 24024.17677526 0 498.38969920 0 7950.98109065 0 -1368.29575644 0 994.59593595 0 7386
0.08250000 0.08250610 23899.50239780 0 431.40213405 0 9977.92516125 0 -955.75200602 0 -1038.66821766 0 7227
0.08350000 0.08350160 23312.22628942 0 788.42703336 0 9072.26435271 0 -799.53257515 0 -446.29551816 0 7798
0.08450000 0.08449610 23068.19225042 0 417.79092515 0 10414.04189120 0 844.75637864 0 -1860.13949721 0 7371
0.08550000 0.08548940 22479.91963280 0 68.57910112 0 8949.51655977 0 972.87314189 0 89.85346603 0 8256
0.08650000 0.08650700 22366.20685691 0 148.87294335 0 8326.96402451 0 2752.97855361 0 -1476.09591087 0 8037
0.08750000 0.08749060 22297.00482680 0 149.00248955 0 8007.78211697 0 438.56592821 0 -376.20216590 0 8155
0.08850000 0.08849210 22210.52996996 0 166.18341597 0 7712.66037125 0 1200.79362658 0 832.53031758 0 8718
0.08950000 0.08949900 22137.78479591 0 172.88327972 0 7905.09737660 0 -208.91151745 0 2136.99190697 0 8571
0.09050000 0.09049190 21734.53072601 0 302.29661220 0 7781.12055560 0 1055.06079455 0 2019.62526390 0 8932
0.09150000 0.09150830 21374.12655316 0 12.40587562 0 7498.64340483 0 1212.95103923 0 1624.64222064 0 9285
0.09250000 0.09250820 21070.08051364 0 686.34019853 0 7391.47437291 0 597.29766957 0 1591.48060781 0 9204
0.09350000 0.09350330 20391.34700226 0 1028.72859167 0 6974.03665492 0 139.52457950 0 504.05872951 0 9349
0.09450000 0.09448040 19592.47876659 0 737.35039897 0 6617.45243414 0 352.34573484 0 2020.38925431 0 9564
0.09550000 0.09549270 18887.39312214 0 583.54141322 0 6505.01297560 0 -38.08492206 0 482.25953641 0 10155
0.09650000 0.09649430 18446.71459436 0 454.80681425 0 6490.92897844 0 67.36834240 0 674.53931474 0 9913
0.09750000 0.09749140 18117.09148451 0 514.70144812 0 6179.71914476 0 801.96405768 0 456.79540379 0 10476
0.09850000 0.09850240 17804.07686189 0 97.47332925 0 5834.30689971 0 699.97023039 0 1074.74849531 0 10575
0.09950000 0.09950330 17775.73171035 0 58.07445440 0 5573.53150559 0 502.06681827 0 461.41477770 0 10882
0.10050000 0.10051200 17672.75908954 0 271.85879127 0 5890.24428470 0 432.75849384 0 663.57328424 0 10875
0.10150000 0.10150300 17519.96100704 0 349.52118478 0 5579.98667096 0 -25.03474786 0 1189.72130176 0 11118
0.10250000 0.10250800 16876.99110482 0 519.99180492 0 5497.57535733 0 -153.18118494 0 1037.56098518 0 11575
0.10350000 0.10349800 16902.12528216 0 70.73211468 0 5448.75747720 0 101.31675464 0 1514.67189054 0 11364
0.10450000 0.10450100 16772.13618879 0 -162.28595763 0 5251.30470871 0 144.61674169 0 1214.92191305 0 12093
0.10550000 0.10551000 16721.42494112 0 255.08864810 0 5330.27252932 0 347.50491443 0 -66.70854257 0 12067
0.10650000 0.10649700 16595.42188468 0 420.35527558 0 5289.19420424 0 66.23608647 0 -340.92131010 0 12054
0.10750000 0.10749900 16352.49507816 0 462.59287306 0 5296.82303604 0 -913.43468780 0 -285.25076814 0 12807
0.10850000 0.10850100 15763.66884431 0 591.44594591 0 5320.36279861 0 -189.40651005 0 99.95651953 0 12736
0.10950000 0.10950300 15787.36361942 0 232.07482097 0 5930.22644962 0 -294.85047376 0 316.42046974 0 12933
0.11050000 0.11050200 15524.61735147 0 -326.94139278 0 5284.52168317 0 537.55029762 0 162.15087527 0 13428
0.11150000 0.11150900 15829.65990023 0 10.30658498 0 5771.90327704 0 503.69112833 0 -689.13596055 0 13453
0.11250000 0.11250000 15666.45383240 0 149.59596616 0 5469.18591650 0 81.63990476 0 -162.93147417 0 13668
0.11350000 0.11349100 15563.25976509 0 -41.61079318 0 5236.12455139 0 204.54791423 0 -1155.25315460 0 13791
0.11450000 0.11448600 15150.59421910 0 423.08792534 0 5586.09859426 0 -172.49907005 0 -209.12742778 0 14205
0.11550000 0.11549300 15334.17336459 0 484.33891901 0 5558.06346781 0 424.19405059 0 -223.93887669 0 14776
0.11650000 0.11649800 14601.18546160 0 223.02762436 0 5474.37883684 0 462.28174074 0 748.60320269 0 14553
0.11750000 0.11747300 14638.72064273 0 236.88906780 0 5202.29859907 0 773.72852216 0 793.96319577 0 14568
0.11850000 0.11849100 14448.60882560 0 159.44590632 0 5437.17582544 0 679.77984608 0 674.69764899 0 16015
0.11950000 0.11950300 14134.70841699 0 299.69461587 0 5087.43430140 0 170.72860531 0 817.44870394 0 15270
0.12050000 0.12050700 14006.82306533 0 243.77162490 0 4875.64287227 0 3.81359655 0 155.49419359 0 15999
0.12150000 0.12150000 13830.21948447 0 205.93306207 0 4993.74028878 0 -359.25375830 0 266.68690835 0 15670
0.12250000 0.12250700 13706.09872326 0 181.70017197 0 4244.37641738 0 -300.17404753 0 -516.68007257 0 16887
0.12350000 0.12352200 13516.87269211 0 153.61854177 0 4795.36851733 0 563.06979186 0 56.00946582 0 16407
0.12450000 0.12449800 13664.68822844 0 -137.42083779 0 4415.05630446 0 278.11465479 0 -605.09258625 0 16306
0.12550000 0.12549900 13623.49918011 0 -106.47125401 0 4193.34407229 0 607.90274229 0 -74.87161404 0 17523
0.12650000 0.12650100 13577.43830887 0 244.30863266 0 4047.07866144 0 241.84725485 0 -707.69760588 0 17154
0.12750000 0.12750600 13416.22525951 0 387.09733352 0 4476.79558765 0 319.91821715 0 143.05222219 0 18007
0.12850000 0.12850300 13007.43502720 0 231.04509476 0 3849.05013206 0 103.02610014 0 306.63696353 0 17496
0.12950000 0.12949900 12803.81497379 0 132.60880542 0 4074.32765282 0 79.14508853 0 31.58513522 0 18405
0.13050000 0.13049000 12825.84890018 0 131.39195693 0 3928.73765378 0 279.19974263 0 177.38639422 0 18100
0.13150000 0.13148800 12530.66072051 0 87.42740894 0 3762.92958962 0 360.07532480 0 -49.20773668 0 19059
0.13250000 0.13249300 12495.34000434 0 141.56078004 0 3415.96721910 0 224.80251803 0 169.36670936 0 18957
0.13350000 0.13349100 12425.47363473 0 29.61935468 0 3374.36849476 0 128.69584583 0 -264.49126634 0 19468
0.13450000 0.13450700 12257.28502074 0 251.68501545 0 3064.26589356 0 436.98480022 0 -160.90966766 0 19953
0.13550000 0.13551000 12028.97368298 0 293.60815891 0 3012.07095437 0 -65.52778985 0 162.48636671 0 19956
0.13650000 0.13649900 11938.40206596 0 118.10516714 0 3304.60177607 0 300.01792775 0 -84.30999589 0 19723
0.13750000 0.13749600 11789.03640416 0 -37.12251559 0 3106.45145112 0 89.73355275 0 134.76680153 0 20946
0.13850000 0.13851100 11716.73412309 0 277.08271412 0 2992.07433574 0 84.82939864 0 -255.62897755 0 20955
0.13950000 0.13949800 11598.81386377 0 355.66853952 0 2904.58082503 0 -170.04212117 0 19.74715914 0 20506
0.14050000 0.14048300 11259.00421509 0 220.18203688 0 2959.18953103 0 -77.31117937 0 294.20274276 0 21447
0.14150000 0.14148400 11134.10839113 0 248.78738805 0 3094.39368939 0 67.06108539 0 216.99985073 0 21771
0.14250000 0.14249400 10951.02750026 0 200.95162313 0 3177.08181114 0 248.85603646 0 266.06242923 0 22470
0.14350000 0.14350900 10842.95053770 0 131.36981228 0 3120.53544829 0 99.30768130 0 367.08299918 0 22519
0.14450000 0.14449900 10714.86588420 0 45.30706737 0 2967.65985952 0 288.53260522 0 461.16786486 0 22218
0.14550000 0.14550500 10709.68403619 0 -93.66666397 0 2945.88059660 0 214.81306657 0 414.34521767 0 23559
0.14650000 0.14650700 10888.15883994 0 16.96025499 0 2803.52371641 0 315.54132715 0 297.72042035 0 23044
0.14750000 0.14750500 10765.64356582 0 174.85083184 0 3142.52508538 0 -93.41476858 0 208.88826556 0 23649
0.14850000 0.14849900 10492.91006089 0 404.37348193 0 2859.25072722 0 -138.89234976 0 539.88545092 0 23640
0.14950000 0.14949500 10397.05694493 0 204.11609357 0 3123.90143503 0 -142.28491008 0 498.12174894 0 24457
0.15050000 0.15050000 10182.75209807 0 127.18447349 0 3087.51777568 0 287.84169215 0 498.68090134 0 24591
0.15150000 0.15149900 10086.36751052 0 287.01791118 0 3057.68893262 0 -223.39079661 0 70.91956914 0 25020
0.15250000 0.15250500 9806.72487490 0 192.53887074 0 3010.85299864 0 -153.93742472 0 277.63300867 0 25297
0.15350000 0.15350100 9808.51859152 0 122.42890998 0 3269.81253149 0 -220.50313430 0 202.44195805 0 25452
0.15450000 0.15450400 9791.26790945 0 23.21833297 0 2969.88539681 0 110.72435542 0 298.98820154 0 26061
0.15550000 0.15549900 9714.49240916 0 0.85161125 0 3196.18157145 0 207.61494821 0 270.76263112 0 26128
0.15650000 0.15649500 9615.36188506 0 173.49115035 0 3037.40443355 0 338.00375251 0 307.69990671 0 26331
0.15750000 0.15749700 9744.56484337 0 -35.61756520 0 3044.45750446 0 230.53133889 0 445.90798679 0 27345
0.15850000 0.15849900 9594.71199927 0 103.05333806 0 3008.83783552 0 268.57031080 0 749.22436011 0 26980
0.15950000 0.15949700 9583.42930028 0 -30.65218113 0 2936.12587843 0 196.58248376 0 961.28373950 0 27777
0.16050000 0.16050000 9539.92613607 0 66.73954508 0 3109.99459506 0 162.65798775 0 952.31847809 0 28224
0.16150000 0.16150500 9514.40442736 0 279.83086514 0 3172.36500076 0 189.40872451 0 1231.90685932 0 28075
0.16250000 0.16249700 9257.37147902 0 310.10149396 0 2991.96361249 0 2.81414208 0 1269.64134230 0 28590
0.16350000 0.16349900 9102.83504153 0 121.16887942 0 2894.23927365 0 -57.55095488 0 1153.70302913 0 29163
0.16450000 0.16449100 8952.81611256 0 144.61452722 0 3190.11393745 0 -129.17527750 0 990.35855724 0 28996
0.16550000 0.16550500 8849.50024968 0 140.66724343 0 3032.04542834 0 72.90151528 0 781.22670053 0 30777
0.16650000 0.16650700 8795.54481084 0 28.43140495 0 2903.08606118 0 -23.37832807 0 613.74007193 0 29211
0.16750000 0.16749900 8647.59640661 0 95.22376501 0 2779.36390365 0 126.51459784 0 441.30079244 0 30922
0.16850000 0.16850800 8670.91472268 0 116.57607909 0 2807.23294522 0 -26.46374210 0 -58.37362861 0 30867
0.16950000 0.16949900 8585.59138763 0 140.78571730 0 2634.65969060 0 81.60912369 0 -74.22521172 0 30852
0.17050000 0.17049200 8364.93102632 0 70.55816846 0 2436.46507634 0 156.29915160 0 264.45583490 0 31257
0.17150000 0.17149500 8444.48568014 0 35.05044072 0 2446.86198935 0 175.62589458 0 184.94214868 0 32608
0.17250000 0.17250900 8519.31245126 0 -43.77432545 0 2314.22661035 0 348.09396211 0 -76.57542338 0 32361
0.17350000 0.17350400 8280.73706839 0 187.04146146 0 2367.51770970 0 130.85605640 0 97.48096915 0 32508
0.17450000 0.17449800 8220.62541695 0 236.32548646 0 2236.89749381 0 120.39049499 0 -40.20294708 0 32791
0.17550000 0.17549800 8096.91433176 0 147.94951146 0 2399.48351145 0 103.03230064 0 537.68980891 0 33633
0.17650000 0.17650100 7974.90838458 0 54.71522177 0 2311.42531217 0 43.48124101 0 285.72244918 0 33984
0.17750000 0.17750300 7927.52990668 0 149.47749228 0 2452.17670526 0 39.93300380 0 402.52551092 0 34069
0.17850000 0.17849800 7894.14684735 0 195.92368043 0 2558.79212094 0 -27.19529060 0 438.02449152 0 34536
