### header ###
fiducial parameters:
Omega_m = 0.31
Omega_nu = 0
Omega_de = 0.69
Omega_k = 0
H_0 = 100
w_de = -1
zeff = 0
beta = 0
fgrowth = 0
b_1 = 2
gamma = 0.55
Lx = 3500 Ly = 3500 Lz = 3500
nx = 700 ny = 700 nz = 700
xoffset = -685.467585 yoffset = -31.7331281 zoffset = 572.489161
bins = 400 dk = 0.001
kx_ny = 0.628318531 ky_ny = 0.628318531 kz_ny = 0.628318531
############################
A(data) = 8.07556577 (not used)
A(ran) = 8.08004832 (used)
Ngal = 480669
weighted Ngal = 0
Nran = 23820508
weighted Nran = 0
SN(data) = 3476.36575
SN(ran) = 70.3801512
SN(data+ran) = 3546.74591
############################
13 columns: k_central k_mean P_0(k) sigma^{lin}_{P_0(k)} P^img_1(k) sigma^{lin}_{P_1(k)} P_2(k) sigma^{lin}_{P_2(k)} P^img_3(k) sigma^{lin}_{P_3(k)} P_4(k) sigma^{lin}_{P_4(k)} N_modes
### header ###
0.00050000 0 0 0 0 0 0 0 0 0 0 0 0
0.00150000 0.00179520 28479.56955903 0 -28038.33741501 0 -16147.21417602 0 -18223.93941901 0 7019.54390993 0 3
0.00250000 0.00253879 48522.58122250 0 -24972.85356572 0 -7672.43461518 0 -18174.66757357 0 25377.10414485 0 6
0.00350000 0.00331552 56579.46910003 0 -12833.04591131 0 -4167.01408387 0 -43618.98073006 0 -38229.63734784 0 7
0.00450000 0.00420575 63791.64931716 0 -3990.90875763 0 6308.26883590 0 -13199.98275580 0 28826.24404910 0 24
0.00550000 0.00557378 57376.45504048 0 6239.39897553 0 8134.15056012 0 6712.32011318 0 1542.28626864 0 45
0.00650000 0.00659388 52354.71284223 0 13714.84585986 0 15867.85942085 0 21116.69500113 0 -6603.76704066 0 40
0.00750000 0.00754703 38708.29394975 0 7750.12911844 0 -7686.78434815 0 -8787.00804840 0 -29380.19245978 0 57
0.00850000 0.00846663 38258.42539236 0 -3189.61568283 0 -740.21480940 0 -3448.61950499 0 1575.02713313 0 75
0.00950000 0.00948925 44926.95446089 0 -9406.73714083 0 -2328.81993446 0 -22903.65750361 0 -17158.67104821 0 112
0.01050000 0.01054430 49447.56323785 0 -9856.36210706 0 -3178.70944289 0 -336.63632039 0 -552.67287886 0 105
0.01150000 0.01145670 63083.79559150 0 -11825.35362956 0 -6296.75361809 0 12955.61654705 0 13179.16678514 0 144
0.01250000 0.01249090 65813.23438254 0 -5219.94788483 0 -20211.64317045 0 10919.70389335 0 5877.19001374 0 169
0.01350000 0.01339930 72421.75145055 0 -14851.64144899 0 -25946.33236377 0 15793.23195157 0 -8990.34022137 0 180
0.01450000 0.01448870 82338.12555813 0 -4120.23351151 0 -32806.19120517 0 4633.03716317 0 -3021.83674486 0 267
0.01550000 0.01550050 80672.40501242 0 -1048.63995339 0 -23771.83849264 0 -25232.27813622 0 -20873.65747136 0 238
0.01650000 0.01653350 74359.29757057 0 11906.40304723 0 -19369.81431449 0 -33946.41921499 0 -2027.53090382 0 315
0.01750000 0.01747870 69428.34843583 0 13936.73524923 0 -5052.97722656 0 -30340.82736105 0 -12251.08451884 0 297
0.01850000 0.01844180 65681.25227071 0 -4101.79809069 0 3673.84166413 0 -27163.29158459 0 -19258.31600357 0 388
0.01950000 0.01947590 72711.18202131 0 -1928.26751182 0 17353.76541151 0 -385.02570155 0 -32604.12127723 0 399
0.02050000 0.02045430 75147.64709766 0 -5580.32991302 0 27188.42576193 0 -7843.08128529 0 -41210.86080526 0 462
0.02150000 0.02154770 79755.83796393 0 3096.37563553 0 21574.09273939 0 -5949.48122248 0 -28730.13626968 0 571
0.02250000 0.02255340 79358.56294944 0 3295.54461437 0 27744.36719107 0 -5897.16448771 0 -957.28220131 0 510
0.02350000 0.02348930 73943.19960388 0 -895.47537694 0 26551.32419187 0 13754.59550596 0 -9281.69737665 0 555
0.02450000 0.02439640 77318.26565510 0 4024.70149298 0 33811.00468246 0 11202.86752826 0 250.01420164 0 592
0.02550000 0.02547300 70016.95322319 0 7963.75855349 0 20341.52154058 0 14306.21872843 0 -5965.80182926 0 837
0.02650000 0.02652900 60497.85413011 0 8869.48579598 0 29240.68116707 0 4957.76630545 0 2912.95150259 0 723
0.02750000 0.02749970 57581.84666587 0 3906.46013624 0 21012.72587108 0 -2610.83204759 0 4139.21147625 0 826
0.02850000 0.02848090 54960.91665804 0 -479.86237808 0 24529.96057297 0 2296.01263602 0 7223.40755449 0 831
0.02950000 0.02946900 58802.45975387 0 -3664.12016294 0 23845.35872944 0 3153.87421832 0 -1731.18013004 0 996
0.03050000 0.03053250 58226.69886330 0 1882.73811216 0 19754.46687869 0 2106.73124324 0 -7965.88443985 0 1041
0.03150000 0.03150510 58058.51024931 0 4236.83616418 0 16115.32588055 0 8061.33895211 0 -2367.86095177 0 1036
0.03250000 0.03246190 52658.31598876 0 315.91557173 0 8997.21613508 0 11889.24094377 0 -7201.13003695 0 1059
0.03350000 0.03345080 51310.81405833 0 645.40581368 0 5730.03881690 0 6960.09659798 0 -6396.02808241 0 1302
0.03450000 0.03451200 49264.09481560 0 1549.66043697 0 5247.16365923 0 5809.51596445 0 -10291.21659199 0 1339
0.03550000 0.03553350 50556.45656844 0 1089.20120090 0 7884.86823915 0 -5841.09423483 0 -7273.16658222 0 1365
0.03650000 0.03647120 45863.34097080 0 1588.39142918 0 4173.55782784 0 -7971.28773436 0 1628.14107528 0 1308
0.03750000 0.03744890 48646.36981397 0 -588.68118640 0 12931.92177194 0 -5308.50433873 0 1981.43681560 0 1579
0.03850000 0.03847530 50810.23425328 0 -1379.47880451 0 15228.10049283 0 -709.59872405 0 -2060.31605760 0 1662
0.03950000 0.03950240 52874.89066221 0 632.34711379 0 18058.07599323 0 1150.97923722 0 -2416.57918097 0 1683
0.04050000 0.04050350 49853.80683544 0 2803.02546179 0 15241.60872911 0 1530.26172389 0 1249.21290301 0 1822
0.04150000 0.04152450 48084.44932942 0 3182.28580380 0 18633.83688380 0 -328.73289494 0 -129.02247941 0 1887
0.04250000 0.04250150 46451.72431167 0 2386.28530027 0 20193.26311125 0 2168.06085041 0 1227.06825338 0 1920
0.04350000 0.04349210 44998.59240247 0 1012.98485301 0 18624.09323796 0 -324.30396501 0 -1619.91433794 0 2005
0.04450000 0.04448520 42905.03722576 0 30.40814710 0 17551.40640953 0 -931.47261216 0 2108.27029639 0 2151
0.04550000 0.04548030 43712.54187478 0 914.99699283 0 18100.26155079 0 -265.56417461 0 -2176.45367263 0 2274
0.04650000 0.04648670 43688.07203693 0 1022.00769050 0 17782.92872148 0 1791.15891359 0 -5635.87976664 0 2311
0.04750000 0.04749250 41109.21686342 0 1463.46238825 0 16442.84524868 0 -1028.43517506 0 -4056.30190801 0 2568
0.04850000 0.04851840 41241.42042176 0 1447.00891357 0 12774.25186652 0 3466.26879075 0 -4980.42028203 0 2493
0.04950000 0.04949480 37832.47305659 0 740.39971723 0 13587.95701744 0 2712.97424404 0 -3602.59125392 0 2644
0.05050000 0.05050630 39353.69976343 0 -363.58525177 0 10941.83747066 0 3970.43602904 0 -5663.31698754 0 2829
0.05150000 0.05149060 37649.33680409 0 -131.60454556 0 11057.12251667 0 1551.86382961 0 -4298.80796619 0 2784
0.05250000 0.05249300 37301.33363504 0 2563.33177412 0 8919.48841486 0 2115.17942708 0 -1910.10889911 0 3055
0.05350000 0.05348950 35978.41226571 0 1039.09007323 0 11327.76335221 0 856.02246915 0 1139.41973011 0 3009
0.05450000 0.05448610 34663.24152375 0 837.97457969 0 9537.95526225 0 -135.41896146 0 -184.77606381 0 3336
0.05550000 0.05550870 36208.82734519 0 -246.89955667 0 11936.63049399 0 428.30963373 0 1607.23652603 0 3349
0.05650000 0.05647670 34297.96552798 0 -170.56141320 0 8988.62401103 0 831.98666643 0 2208.82915040 0 3324
0.05750000 0.05747970 36116.15198645 0 -161.00599689 0 10338.93831196 0 2322.79658975 0 1095.57996723 0 3639
0.05850000 0.05849280 34662.02356802 0 -172.81684577 0 8834.18722445 0 2009.81518411 0 2168.24907994 0 3846
0.05950000 0.05951020 34959.64765915 0 958.91426199 0 7875.46783538 0 639.07687281 0 1052.31707246 0 3787
0.06050000 0.06049470 33374.42291486 0 605.82225245 0 7155.57849265 0 1465.26717720 0 4364.45578004 0 3930
0.06150000 0.06148310 34164.98690691 0 396.70700423 0 7392.91377514 0 476.33473540 0 1124.27278976 0 4083
0.06250000 0.06249100 32797.66551506 0 139.13372644 0 7542.22407532 0 1568.11800244 0 2637.47206110 0 4303
0.06350000 0.06350600 32293.32111957 0 1484.98698770 0 7554.80223631 0 -1844.76003803 0 3894.31379592 0 4470
0.06450000 0.06451750 33091.08212275 0 526.83339443 0 9078.98525387 0 2.50584426 0 6179.84094033 0 4479
0.06550000 0.06550280 31662.53077465 0 -681.95555791 0 8084.05936264 0 1171.81735253 0 5934.00211238 0 4636
0.06650000 0.06648880 32774.63507943 0 350.52987357 0 10545.35966355 0 1888.20784062 0 5683.21395524 0 4653
0.06750000 0.06749660 32572.67587474 0 751.57501467 0 11056.91214250 0 -535.72225679 0 5194.38188682 0 5220
0.06850000 0.06852730 31955.17231961 0 1698.26210836 0 11877.83644920 0 -1181.63850465 0 4937.96898867 0 5029
0.06950000 0.06949320 31055.98882108 0 879.65191754 0 11550.53852756 0 -1023.05956136 0 6565.22427797 0 5040
0.07050000 0.07048030 30523.07782756 0 351.12335018 0 13642.43285555 0 -870.97453658 0 4223.72653159 0 5475
0.07150000 0.07148790 30648.52726776 0 715.65971465 0 13702.55557932 0 -843.84734078 0 3355.21337282 0 5509
0.07250000 0.07249820 29156.75294494 0 1474.13610938 0 11911.60703990 0 943.41190001 0 598.73928627 0 5916
0.07350000 0.07351270 27468.77702634 0 1347.98911272 0 11268.19424469 0 1128.08166950 0 467.09598757 0 5721
0.07450000 0.07449140 26047.53341262 0 760.58899430 0 10004.66482568 0 2134.31240437 0 -1445.32592020 0 6028
0.07550000 0.07549160 26148.07012197 0 -127.44245866 0 8416.92666366 0 1870.59177184 0 -3995.78058055 0 6183
0.07650000 0.07648840 25289.85422528 0 140.65284940 0 7405.66909333 0 566.53764400 0 -3781.01069605 0 6330
0.07750000 0.07749960 25485.83437457 0 761.47367306 0 7038.65474256 0 -760.20478463 0 -4693.22632088 0 6583
0.07850000 0.07848650 24380.26274143 0 612.24420085 0 7080.82922780 0 -174.23963951 0 -2370.98334737 0 6549
0.07950000 0.07947320 24729.37314296 0 530.32117675 0 8101.35433401 0 -1003.55566119 0 -3568.45527650 0 6828
0.08050000 0.08048110 24224.36440798 0 -226.13008977 0 8484.50106203 0 646.10337014 0 -1651.33759578 0 7147
0.08150000 0.08149960 24686.19107616 0 148.74228992 0 9272.78415517 0 609.24802975 0 -2342.09565191 0 7386
0.08250000 0.08250610 24784.62404380 0 399.33003798 0 9432.13705396 0 2.96196868 0 -1357.69954159 0 7227
0.08350000 0.08350160 23859.30985871 0 900.27190805 0 10186.92636452 0 644.23214725 0 -590.97980103 0 7798
0.08450000 0.08449610 23209.80728485 0 887.69706876 0 10172.94201828 0 264.09044818 0 -13.83852373 0 7371
0.08550000 0.08548940 22052.41717155 0 1188.33726116 0 9934.80952840 0 1542.26412399 0 2021.77329491 0 8256
0.08650000 0.08650700 21807.05445357 0 265.38923188 0 9291.51852876 0 1364.84119110 0 556.48286583 0 8037
0.08750000 0.08749060 21359.28963791 0 -198.84677419 0 8191.78201080 0 1684.97531858 0 936.90912364 0 8155
0.08850000 0.08849210 21435.68867915 0 20.17222569 0 6863.49056393 0 935.61809057 0 -60.36088947 0 8718
0.08950000 0.08949900 21305.03524629 0 449.92724070 0 6851.41065756 0 -187.24629947 0 206.64501256 0 8571
0.09050000 0.09049190 20569.72215509 0 1129.88645844 0 7257.51031493 0 -822.49436236 0 -127.96950132 0 8932
0.09150000 0.09150830 19586.05681820 0 765.40767006 0 6932.63723243 0 -1031.78344609 0 600.89617514 0 9285
0.09250000 0.09250820 19469.90813085 0 231.01298502 0 7642.68327840 0 -246.80765637 0 -610.89005552 0 9204
0.09350000 0.09350330 19211.03717659 0 97.54673876 0 8133.53050993 0 -712.40888009 0 -1474.49042377 0 9349
0.09450000 0.09448040 19137.62766304 0 139.66076910 0 8031.04507141 0 893.11143559 0 -744.58505601 0 9564
0.09550000 0.09549270 19315.22775314 0 -8.73300832 0 8125.23733864 0 -470.82071764 0 -1128.59099644 0 10155
0.09650000 0.09649430 19028.01164734 0 338.21412668 0 7788.01861396 0 515.02918894 0 -1337.73613994 0 9913
0.09750000 0.09749140 18706.91422760 0 542.63470918 0 7675.83381890 0 532.28319270 0 -1750.88886822 0 10476
0.09850000 0.09850240 17859.99210222 0 629.76283318 0 6914.93258504 0 689.48141708 0 -725.76321105 0 10575
0.09950000 0.09950330 17629.68774599 0 253.22739030 0 7202.21512478 0 1008.57806773 0 -757.65482823 0 10882
0.10050000 0.10051200 17159.11394120 0 509.60707148 0 6188.24483487 0 1568.09585779 0 -317.05159225 0 10875
0.10150000 0.10150300 16979.63155589 0 232.10471624 0 6096.23381562 0 854.37490721 0 296.16032978 0 11118
0.10250000 0.10250800 16547.58944147 0 -42.09033557 0 5795.28802705 0 556.64341454 0 -134.62618300 0 11575
0.10350000 0.10349800 16501.30712372 0 320.01565361 0 5770.85140618 0 293.40221367 0 775.50230860 0 11364
0.10450000 0.10450100 16390.91604528 0 321.21700085 0 5814.17741319 0 -871.81603327 0 74.79576861 0 12093
0.10550000 0.10551000 16178.32740877 0 50.15508479 0 5514.48279733 0 240.36356333 0 989.67428757 0 12067
0.10650000 0.10649700 16397.11654718 0 40.42583298 0 5194.88014144 0 205.83894731 0 71.13149344 0 12054
0.10750000 0.10749900 16229.48154943 0 145.41727077 0 5264.19289480 0 381.39951517 0 -512.67631992 0 12807
0.10850000 0.10850100 15950.01607100 0 342.41275225 0 4846.35657312 0 678.77558622 0 -446.53689484 0 12736
0.10950000 0.10950300 15333.84119485 0 625.90523521 0 4436.38160206 0 649.23573083 0 -368.14704959 0 12933
0.11050000 0.11050200 15199.86606454 0 -11.41313098 0 4785.59165452 0 390.69251739 0 144.15502574 0 13428
0.11150000 0.11150900 15256.55636761 0 -70.89299556 0 4775.61548986 0 373.66328182 0 -88.40011267 0 13453
0.11250000 0.11250000 15372.70505496 0 246.48102279 0 4911.87151907 0 -208.21174652 0 569.95677790 0 13668
0.11350000 0.11349100 15153.47302355 0 394.30873867 0 5190.80552590 0 -615.99550450 0 1016.82362802 0 13791
0.11450000 0.11448600 14967.12579685 0 436.44225631 0 5595.79795080 0 -6.59034738 0 1458.96702438 0 14205
0.11550000 0.11549300 14438.75445651 0 337.35159257 0 5799.09690679 0 -43.93210608 0 1541.04616826 0 14776
0.11650000 0.11649800 14245.87455817 0 412.33448348 0 5598.53281503 0 602.63453014 0 1291.61990707 0 14553
0.11750000 0.11747300 14104.70241673 0 -116.65801429 0 5312.57895426 0 1156.83649705 0 719.44423528 0 14568
0.11850000 0.11849100 13937.51031197 0 -17.86962502 0 4873.87130030 0 484.11082912 0 853.76925105 0 16015
0.11950000 0.11950300 14198.37428469 0 -236.35206004 0 3936.58793207 0 616.36642738 0 444.78193136 0 15270
0.12050000 0.12050700 14026.86397325 0 136.17077232 0 4231.31107410 0 -17.32929557 0 378.13650104 0 15999
0.12150000 0.12150000 14134.70841699 0 185.68731614 0 4155.01168377 0 -322.39509621 0 92.13680085 0 15670
0.12250000 0.12250700 13723.81444297 0 176.01785487 0 4410.63844686 0 -279.33371776 0 537.31667157 0 16887
0.12350000 0.12352200 13996.52580325 0 19.07219022 0 4802.32193732 0 -248.04111335 0 55.79931309 0 16407
0.12450000 0.12449800 13553.41136401 0 161.76223667 0 4886.81484801 0 342.74160030 0 -32.69103903 0 16306
0.12550000 0.12549900 13673.32464179 0 197.80929735 0 4629.13970483 0 322.50028330 0 192.72710026 0 17523
0.12650000 0.12650100 13289.22569384 0 308.26902421 0 4464.30600525 0 156.04448813 0 -59.00486185 0 17154
0.12750000 0.12750600 13317.46012212 0 95.59690236 0 4263.49832234 0 29.20082080 0 -239.40470000 0 18007
0.12850000 0.12850300 13261.65560504 0 -161.83531401 0 4193.43265089 0 181.58723426 0 115.71354498 0 17496
0.12950000 0.12949900 13025.48291666 0 223.21474665 0 3948.73427240 0 46.35240556 0 -485.31992699 0 18405
0.13050000 0.13049000 12998.68789059 0 284.44138120 0 4009.02308104 0 284.99610467 0 -395.67395632 0 18100
0.13150000 0.13148800 12671.83286195 0 134.72029777 0 3447.10259649 0 184.35199377 0 -966.02048006 0 19059
0.13250000 0.13249300 12648.13808684 0 328.94548357 0 3749.16668987 0 536.44306514 0 -325.83969646 0 18957
0.13350000 0.13349100 12316.96485151 0 272.28839748 0 3384.14535757 0 169.53943762 0 -366.38101378 0 19468
0.13450000 0.13450700 12399.12150166 0 -6.19018249 0 3461.23088296 0 211.40168330 0 460.87998441 0 19953
0.13550000 0.13551000 12198.15880621 0 -13.40061328 0 3508.87509665 0 366.67775209 0 203.02879127 0 19956
0.13650000 0.13649900 12289.50548596 0 196.35771557 0 3558.93307716 0 -153.91638730 0 188.58826524 0 19723
0.13750000 0.13749600 12151.54431872 0 325.91166657 0 3588.95014974 0 -226.15666335 0 707.44072794 0 20946
0.13850000 0.13851100 11873.73968902 0 429.16552444 0 4042.29541712 0 -276.41062401 0 707.46730152 0 20955
0.13950000 0.13949800 11664.91564294 0 130.59585677 0 3575.66335996 0 78.23527560 0 936.80172209 0 20506
0.14050000 0.14048300 11715.95906035 0 -68.62992309 0 3842.10778440 0 35.19626324 0 280.66350397 0 21447
0.14150000 0.14148400 11660.04382002 0 271.79900072 0 3654.66439754 0 176.71430411 0 121.18659514 0 21771
0.14250000 0.14249400 11422.32100616 0 216.51377567 0 3606.88731595 0 -117.10312175 0 225.71487759 0 22470
0.14350000 0.14350900 11190.35580121 0 44.06763133 0 3336.61186712 0 317.43912362 0 397.59057575 0 22519
0.14450000 0.14449900 11278.04861378 0 -47.43273229 0 3129.55939302 0 492.27999037 0 -277.22111818 0 22218
0.14550000 0.14550500 11206.07850246 0 72.89332176 0 3302.66411923 0 455.68152791 0 -122.92052121 0 23559
0.14650000 0.14650700 10928.82748900 0 292.12557462 0 3068.53981094 0 -0.69849208 0 -131.59236600 0 23044
0.14750000 0.14750500 10754.71518122 0 380.33435752 0 3095.19089678 0 -18.36776892 0 463.32253927 0 23649
0.14850000 0.14849900 10566.47458698 0 40.92763074 0 3180.59173811 0 4.26746221 0 580.53638426 0 23640
0.14950000 0.14949500 10517.25810316 0 49.82568313 0 3485.67857616 0 68.14960564 0 361.15266200 0 24457
0.15050000 0.15050000 10443.12888850 0 281.52493084 0 3415.56861541 0 0.21717147 0 239.44234590 0 24591
0.15150000 0.15149900 10196.34891294 0 300.14415225 0 3285.05912277 0 75.56341289 0 702.45264561 0 25020
0.15250000 0.15250500 9854.50195649 0 424.61258447 0 3164.75831361 0 55.82178991 0 594.18745353 0 25297
0.15350000 0.15350100 9589.05404129 0 192.65291568 0 3079.82250993 0 263.64644795 0 699.66352699 0 25452
0.15450000 0.15450400 9501.63803685 0 38.24956753 0 2865.44015679 0 466.09726387 0 574.62376281 0 26061
0.15550000 0.15549900 9345.71755875 0 12.28252992 0 2570.08589225 0 188.06011535 0 333.04113652 0 26128
0.15650000 0.15649500 9433.46573294 0 11.62837697 0 2296.73233713 0 245.52215946 0 0.84058986 0 26331
0.15750000 0.15749700 9293.46725793 0 76.94811784 0 2415.46087616 0 -346.85054004 0 25.09154889 0 27345
0.15850000 0.15849900 9356.85631752 0 127.20440368 0 2559.48967740 0 -165.22344541 0 87.98490049 0 26980
0.15950000 0.15949700 9311.03903742 0 30.94083664 0 2668.51885989 0 -117.99887282 0 117.08429879 0 27777
0.16050000 0.16050000 9217.55539898 0 190.13617625 0 2631.94697102 0 309.04740864 0 359.50731454 0 28224
0.16150000 0.16150500 9258.52300080 0 77.86667790 0 2706.60765727 0 68.29221719 0 206.38149122 0 28075
0.16250000 0.16249700 9105.65848436 0 66.78494161 0 2809.44741018 0 289.77159836 0 469.20083651 0 28590
0.16350000 0.16349900 9004.14741042 0 38.51397465 0 2585.43213445 0 177.43289799 0 208.37561692 0 29163
0.16450000 0.16449100 8897.67593496 0 257.38836997 0 2704.73643437 0 259.95825656 0 431.34898689 0 28996
0.16550000 0.16550500 8708.32810824 0 223.30000355 0 2354.51880036 0 -12.93269683 0 348.03084986 0 30777
0.16650000 0.16650700 8625.01993631 0 76.72811074 0 2077.24564225 0 249.57352311 0 461.55207453 0 29211
0.16750000 0.16749900 8563.19207452 0 30.65959959 0 2128.41085524 0 307.60800641 0 333.22382988 0 30922
0.16850000 0.16850800 8540.57131491 0 10.57297404 0 1928.42252436 0 162.82075092 0 267.31138747 0 30867
0.16950000 0.16949900 8494.86475806 0 76.70098355 0 1939.48377686 0 -74.86286690 0 139.50686379 0 30852
0.17050000 0.17049200 8492.30705103 0 90.12041978 0 2125.36596591 0 -167.58738676 0 275.19820444 0 31257
0.17150000 0.17149500 8483.02844283 0 137.98331189 0 2227.88462141 0 -237.34635481 0 462.57515734 0 32608
0.17250000 0.17250900 8396.17712695 0 197.16820974 0 2528.32108304 0 -230.47487003 0 265.54313720 0 32361
0.17350000 0.17350400 8322.93369828 0 68.51742827 0 2547.15510756 0 -175.69565022 0 630.72501820 0 32508
0.17450000 0.17449800 8325.49140531 0 2.43996393 0 2583.97058758 0 119.86566679 0 149.67457967 0 32791
0.17550000 0.17549800 8278.55582041 0 48.95661636 0 2547.19939685 0 185.62531112 0 57.57254591 0 33633
0.17650000 0.17650100 8197.82750015 0 194.08346005 0 2487.74101258 0 93.47267684 0 -46.50210339 0 33984
0.17750000 0.17750300 8030.70182934 0 200.20534844 0 2246.41969316 0 69.09950039 0 -141.06031096 0 34069
0.17850000 0.17849800 7827.39180102 0 186.18446352 0 2166.14533822 0 11.29820024 0 56.36676974 0 34536
