### header ###
fiducial parameters:
Omega_m = 0.31
Omega_nu = 0
Omega_de = 0.69
Omega_k = 0
H_0 = 100
w_de = -1
zeff = 0
beta = 0
fgrowth = 0
b_1 = 2
gamma = 0.55
Lx = 3500 Ly = 3500 Lz = 3500
nx = 700 ny = 700 nz = 700
xoffset = -685.467585 yoffset = -31.7331281 zoffset = 572.489161
bins = 400 dk = 0.001
kx_ny = 0.628318531 ky_ny = 0.628318531 kz_ny = 0.628318531
############################
A(data) = 8.04753475 (not used)
A(ran) = 8.04140046 (used)
Ngal = 477307
weighted Ngal = 0
Nran = 23820508
weighted Nran = 0
SN(data) = 3493.26985
SN(ran) = 70.0435144
SN(data+ran) = 3563.31337
############################
13 columns: k_central k_mean P_0(k) sigma^{lin}_{P_0(k)} P^img_1(k) sigma^{lin}_{P_1(k)} P_2(k) sigma^{lin}_{P_2(k)} P^img_3(k) sigma^{lin}_{P_3(k)} P_4(k) sigma^{lin}_{P_4(k)} N_modes
### header ###
0.00050000 0 0 0 0 0 0 0 0 0 0 0 0
0.00150000 0.00179520 831.80175861 0 -4509.48109051 0 -587.04358956 0 -3202.82496634 0 -1915.63398920 0 3
0.00250000 0.00253879 9697.46317359 0 -14799.49079910 0 -15722.47979598 0 24048.09299687 0 20985.37722878 0 6
0.00350000 0.00331552 17549.74556080 0 -16482.26272504 0 -7704.10146416 0 -7044.05803708 0 -19468.46872863 0 7
0.00450000 0.00420575 35470.08183329 0 -19601.66879619 0 -20404.52306879 0 -13187.24958226 0 -23012.94134957 0 24
0.00550000 0.00557378 45187.81843362 0 813.44162959 0 -1530.81534013 0 -25521.93015348 0 -2287.68624775 0 45
0.00650000 0.00659388 48014.36151332 0 3450.63466811 0 -18924.48541029 0 -221.03792759 0 54914.96651005 0 40
0.00750000 0.00754703 45792.58881521 0 -13425.96890535 0 -566.43910030 0 15644.75207575 0 15421.09111442 0 57
0.00850000 0.00846663 48522.35977600 0 -12364.35440173 0 -1680.26958053 0 22889.37420459 0 13401.83123724 0 75
0.00950000 0.00948925 69035.72379776 0 -8774.73991250 0 4478.26820685 0 6844.39080362 0 -19877.59113067 0 112
0.01050000 0.01054430 69259.82765209 0 957.70737858 0 -13460.18238904 0 -8624.02342707 0 19648.17256043 0 105
0.01150000 0.01145670 63339.12340182 0 -178.06623497 0 -719.42430509 0 -18356.25370059 0 3439.05301635 0 144
0.01250000 0.01249090 68642.87771320 0 -252.01386350 0 11861.67085497 0 -30314.80739772 0 -4417.61401149 0 169
0.01350000 0.01339930 67601.63628725 0 -5294.18782274 0 23556.59249817 0 -13481.21980619 0 -24989.24060645 0 180
0.01450000 0.01448870 71481.04673396 0 6761.61410328 0 28561.72620919 0 -28692.15819555 0 -14799.93369209 0 267
0.01550000 0.01550050 63721.11860806 0 9369.93273313 0 28703.89485986 0 -18221.17133781 0 -7548.96712113 0 238
0.01650000 0.01653350 67158.63257126 0 5080.00477144 0 38267.06180572 0 -7096.23083162 0 -27335.24478903 0 315
0.01750000 0.01747870 55383.54729637 0 4860.39628099 0 28969.85210200 0 9312.97669426 0 -35430.33218719 0 297
0.01850000 0.01844180 59462.03814332 0 -853.97076736 0 28029.14738541 0 14474.40734242 0 -23596.12069777 0 388
0.01950000 0.01947590 61363.48848443 0 -1942.52866618 0 20150.52393745 0 19870.06194980 0 -21588.92965464 0 399
0.02050000 0.02045430 60991.23692402 0 100.79635537 0 16111.78273661 0 17983.22707745 0 -9023.35789398 0 462
0.02150000 0.02154770 61021.57509403 0 244.24552041 0 16720.42843189 0 6685.03790483 0 2581.23572335 0 571
0.02250000 0.02255340 58324.02459846 0 6725.89478341 0 25400.46675022 0 4340.12988241 0 23047.37627976 0 510
0.02350000 0.02348930 59883.89371891 0 626.00045720 0 27466.45183813 0 -5618.06439601 0 29766.83804245 0 555
0.02450000 0.02439640 59105.84145391 0 -2649.86199257 0 35237.89518184 0 11211.72538811 0 43164.35107301 0 592
0.02550000 0.02547300 63893.18253574 0 -1477.33601125 0 38107.17743534 0 5463.42830759 0 35459.12023171 0 837
0.02650000 0.02652900 67661.98045751 0 -1626.87883025 0 38068.20285198 0 10142.13881063 0 41859.58831638 0 723
0.02750000 0.02749970 67622.89515090 0 41.99057392 0 38229.85879433 0 14135.70492622 0 40679.38921396 0 826
0.02850000 0.02848090 68118.27096329 0 425.88590182 0 30539.35414505 0 10559.62081792 0 36615.07094278 0 831
0.02950000 0.02946900 64692.38294115 0 861.36375864 0 30492.07531807 0 7689.59671865 0 29229.27667250 0 996
0.03050000 0.03053250 63773.71215095 0 4761.02216574 0 21969.70690516 0 4150.30594572 0 30775.08394043 0 1041
0.03150000 0.03150510 59651.04272798 0 4010.15245817 0 23921.42560094 0 788.72155720 0 26491.20146810 0 1036
0.03250000 0.03246190 56590.43070160 0 3526.76797356 0 22651.09777450 0 1826.40212349 0 15115.71639592 0 1059
0.03350000 0.03345080 54527.65658789 0 1804.54535429 0 20325.79883933 0 -1917.01802980 0 16514.26174376 0 1302
0.03450000 0.03451200 54162.15914563 0 2220.93120142 0 21968.15677968 0 -4095.71938437 0 7809.00066950 0 1339
0.03550000 0.03553350 51521.29895313 0 1663.80503352 0 19932.17769203 0 330.12357893 0 4602.51076364 0 1365
0.03650000 0.03647120 50668.17632586 0 598.18788449 0 19716.37808132 0 5029.18280053 0 1332.17783288 0 1308
0.03750000 0.03744890 51021.49421082 0 -654.07987294 0 16561.65129399 0 1205.69866648 0 -8076.02085482 0 1579
0.03850000 0.03847530 50990.93459432 0 1691.67407509 0 21138.50748102 0 -4554.27971673 0 -11394.75091737 0 1662
0.03950000 0.03950240 47778.96388768 0 4213.70607763 0 22293.35095961 0 -4597.12961378 0 -8258.75850363 0 1683
0.04050000 0.04050350 44569.87198549 0 3135.51630377 0 23311.34050343 0 585.10482548 0 -2331.70981123 0 1822
0.04150000 0.04152450 44420.28487719 0 614.74986795 0 23102.62718060 0 2081.81851240 0 -9018.53036036 0 1887
0.04250000 0.04250150 43636.80717302 0 1055.02314865 0 22668.81349421 0 3073.12375342 0 -4699.59290765 0 1920
0.04350000 0.04349210 43153.38947144 0 1277.72413942 0 20322.25569539 0 2651.06887598 0 -5978.30248398 0 2005
0.04450000 0.04448520 38814.47754476 0 1296.96783996 0 19694.12270843 0 1961.61735417 0 -519.77589459 0 2151
0.04550000 0.04548030 41394.77212049 0 761.76598243 0 19243.58981156 0 3228.04772228 0 -1410.27093983 0 2274
0.04650000 0.04648670 38911.47111017 0 1525.55598584 0 21508.98746945 0 2972.38774222 0 -644.09595765 0 2311
0.04750000 0.04749250 37987.15343431 0 870.40320462 0 20130.37230628 0 2788.42106535 0 1262.25610165 0 2568
0.04850000 0.04851840 38375.12769595 0 -151.63659562 0 19686.59352755 0 1912.19049618 0 2651.99895126 0 2493
0.04950000 0.04949480 38402.14416851 0 -1389.01207617 0 18115.98425203 0 3089.27827533 0 3603.73170337 0 2644
0.05050000 0.05050630 40298.16907046 0 84.58315014 0 20086.08300701 0 1688.81741529 0 2711.65663739 0 2829
0.05150000 0.05149060 39493.76467238 0 1727.89164957 0 18097.49346958 0 1190.30813498 0 6507.49317636 0 2784
0.05250000 0.05249300 37593.08939401 0 2383.39542349 0 17140.18026576 0 1230.71104824 0 5307.29745532 0 3055
0.05350000 0.05348950 35454.13768555 0 1210.10545175 0 15585.95803097 0 1680.43566540 0 4148.54544608 0 3009
0.05450000 0.05448610 34994.08258933 0 1402.58674640 0 16998.56523133 0 138.35091307 0 3651.18768755 0 3336
0.05550000 0.05550870 33266.24630138 0 1745.80667113 0 15023.04103719 0 1641.60502226 0 3943.91781110 0 3349
0.05650000 0.05647670 32243.60638113 0 -65.54196242 0 14198.37428469 0 1463.22986943 0 5082.42961058 0 3324
0.05750000 0.05747970 33584.46491667 0 -1477.09242011 0 13741.53016268 0 3447.62299576 0 1175.63730459 0 3639
0.05850000 0.05849280 33886.29649123 0 -1812.69458536 0 12608.16699424 0 2233.85260449 0 1137.33813305 0 3846
0.05950000 0.05951020 35669.82657301 0 136.13866258 0 11926.44395516 0 804.16412863 0 -2680.90879136 0 3787
0.06050000 0.06049470 34998.95441225 0 856.43435963 0 13402.93846972 0 -1633.10147680 0 -666.68571475 0 3930
0.06150000 0.06148310 33936.01122966 0 1616.42655562 0 10956.89583241 0 -233.47657729 0 -627.85728607 0 4083
0.06250000 0.06249100 32593.27039890 0 1013.56725729 0 10739.15856485 0 285.12675810 0 2116.99528835 0 4303
0.06350000 0.06350600 32523.95764554 0 291.89637750 0 11645.42835126 0 2900.86052389 0 -1389.28888429 0 4470
0.06450000 0.06451750 32334.39944464 0 108.61640622 0 11192.57026618 0 1399.35362755 0 -261.63017760 0 4479
0.06550000 0.06550280 30325.43682955 0 1100.64001967 0 10955.60037041 0 1211.79951745 0 1153.41514868 0 4636
0.06650000 0.06648880 30593.05492042 0 771.25496480 0 12474.74548018 0 -1103.27744744 0 1337.09394510 0 4653
0.06750000 0.06749660 29980.20174170 0 905.27216994 0 11848.38406519 0 675.84031291 0 2323.01803625 0 5220
0.06850000 0.06852730 29596.32424024 0 1063.91643994 0 12617.02485410 0 460.24332574 0 1570.40997368 0 5029
0.06950000 0.06949320 28049.40973983 0 1081.02539625 0 11127.90788924 0 468.98935511 0 3837.59027587 0 5040
0.07050000 0.07048030 28268.64177124 0 589.52268309 0 13063.79316053 0 1280.75795642 0 2734.62063906 0 5475
0.07150000 0.07148790 27714.25046757 0 156.10427869 0 12454.48312576 0 536.98339459 0 3236.44054449 0 5509
0.07250000 0.07249820 27267.37143789 0 454.40045993 0 11621.40140640 0 2176.95192724 0 3941.78085241 0 5916
0.07350000 0.07351270 27356.61437593 0 -194.74447784 0 11387.00028999 0 1418.90735318 0 4630.26908196 0 5721
0.07450000 0.07449140 27795.74277823 0 -505.68968295 0 10883.20951074 0 468.65275644 0 4364.00181472 0 6028
0.07550000 0.07549160 27876.12785642 0 -471.39204960 0 11193.12388242 0 1644.82706878 0 2134.04666857 0 6183
0.07650000 0.07648840 28356.44530705 0 -45.55420166 0 10593.49105954 0 -420.12607845 0 2348.13006894 0 6330
0.07750000 0.07749960 27153.88010850 0 575.70331448 0 8577.75218165 0 1215.63054184 0 2217.31055121 0 6583
0.07850000 0.07848650 27714.58263731 0 37.30078002 0 8828.63998972 0 1350.36966256 0 -123.70333457 0 6549
0.07950000 0.07947320 27088.22122232 0 375.43928272 0 7527.86327003 0 695.82807367 0 171.89895004 0 6828
0.08050000 0.08048110 26611.11474589 0 1064.12017072 0 7496.79432658 0 192.44586321 0 -332.94037837 0 7147
0.08150000 0.08149960 25438.22337785 0 795.48231874 0 7023.55209151 0 109.48359070 0 199.74695419 0 7386
0.08250000 0.08250610 25080.69800945 0 941.65361483 0 8141.61330705 0 -731.14546814 0 -208.71664453 0 7227
0.08350000 0.08350160 24569.26732608 0 595.58588816 0 8211.34680876 0 -942.50729107 0 708.39737680 0 7798
0.08450000 0.08449610 23440.55453407 0 1172.33775180 0 9587.94680881 0 -1026.62927888 0 374.25232950 0 7371
0.08550000 0.08548940 23612.83990825 0 592.00842001 0 9455.01247704 0 781.44925426 0 1666.05271546 0 8256
0.08650000 0.08650700 22758.05643225 0 220.13664035 0 9219.80308091 0 197.70743196 0 241.50512001 0 8037
0.08750000 0.08749060 22315.38488600 0 989.54141967 0 9227.84158873 0 268.82829597 0 466.36964306 0 8155
0.08850000 0.08849210 21695.22397290 0 798.26922289 0 9700.91773893 0 564.18920390 0 -206.21983528 0 8718
0.08950000 0.08949900 21340.90957871 0 206.04489255 0 8811.19000581 0 321.10959930 0 -15.35842176 0 8571
0.09050000 0.09049190 20865.02105800 0 -307.29465962 0 8126.55494530 0 1184.16299470 0 -302.86351523 0 8932
0.09150000 0.09150830 21126.43864697 0 -26.39431863 0 7957.13730324 0 153.83445210 0 -827.14141709 0 9285
0.09250000 0.09250820 21018.37275674 0 384.61270383 0 7793.96445239 0 -313.94580514 0 -1904.46201346 0 9204
0.09350000 0.09350330 20670.59103419 0 740.51597664 0 8538.61151342 0 -878.63769259 0 -1945.41854296 0 9349
0.09450000 0.09448040 19965.83755948 0 827.80686381 0 8631.17614890 0 -1027.95131447 0 -1883.44674095 0 9564
0.09550000 0.09549270 19351.43425529 0 802.21872116 0 8575.85881411 0 -21.82919910 0 -2148.46283549 0 10155
0.09650000 0.09649430 18958.80961722 0 266.90503315 0 8413.38351972 0 254.30362027 0 -2834.51515357 0 9913
0.09750000 0.09749140 18555.00193109 0 151.38968278 0 7961.59945015 0 749.63957229 0 -3117.85594568 0 10476
0.09850000 0.09850240 18531.97149546 0 240.42556834 0 7448.29754388 0 1177.20957472 0 -1857.96932154 0 10575
0.09950000 0.09950330 17959.20013260 0 75.26589953 0 6180.93710049 0 2497.72824956 0 -1901.10709904 0 10882
0.10050000 0.10051200 17833.41852266 0 208.54723796 0 6241.15947518 0 1075.24010653 0 -1340.64816137 0 10875
0.10150000 0.10150300 17669.54811534 0 280.41659112 0 5156.85777801 0 1276.17401395 0 -1021.67884246 0 11118
0.10250000 0.10250800 17286.99929286 0 256.78382103 0 5110.74154514 0 154.16219291 0 -701.24354774 0 11575
0.10350000 0.10349800 17110.94932824 0 279.57952337 0 4748.24470290 0 200.44008173 0 -33.08787115 0 11364
0.10450000 0.10450100 16937.55672158 0 333.50395970 0 5344.88799808 0 365.13869894 0 461.04053312 0 12093
0.10550000 0.10551000 16514.48319026 0 260.40890018 0 4455.44814540 0 307.12082412 0 143.08101024 0 12067
0.10650000 0.10649700 16127.06254485 0 341.18483143 0 4216.25271234 0 294.52494741 0 -130.75419102 0 12054
0.10750000 0.10749900 15900.07988607 0 606.26293098 0 4597.74966397 0 446.06189211 0 -199.07043515 0 12807
0.10850000 0.10850100 15368.05467854 0 465.28012630 0 4157.13757014 0 -709.36509799 0 -405.19615567 0 12736
0.10950000 0.10950300 15215.81021228 0 289.51139873 0 4588.12781370 0 -116.26051783 0 242.79393862 0 12933
0.11050000 0.11050200 15153.91591654 0 -139.71502349 0 4884.25714098 0 -710.24866951 0 450.82188455 0 13428
0.11150000 0.11150900 15644.08773627 0 -155.08783927 0 5327.49337579 0 312.74445790 0 -390.51093126 0 13453
0.11250000 0.11250000 15650.17751492 0 -45.75693593 0 5621.53003367 0 -322.07399879 0 195.52175504 0 13668
0.11350000 0.11349100 15556.06275396 0 305.02372580 0 5436.89901732 0 813.19693121 0 -246.97374124 0 13791
0.11450000 0.11448600 14993.03503693 0 616.36421291 0 5398.41161625 0 -59.44155434 0 837.63576655 0 14205
0.11550000 0.11549300 14596.86725492 0 559.98282770 0 5686.69066523 0 709.33630995 0 206.28073307 0 14776
0.11650000 0.11649800 14083.33282983 0 152.86783814 0 4814.23575882 0 633.15871520 0 450.07893155 0 14553
0.11750000 0.11747300 13933.85644478 0 145.21464723 0 5240.42061342 0 231.84008768 0 179.19450486 0 14568
0.11850000 0.11849100 13872.40504203 0 309.87672577 0 4777.47564042 0 -95.77516679 0 315.33981084 0 16015
0.11950000 0.11950300 13691.92614749 0 94.79061567 0 4887.34631960 0 -359.45748907 0 807.53786600 0 15270
0.12050000 0.12050700 13710.85982293 0 28.39076951 0 5014.15765575 0 460.91763032 0 981.38886691 0 15999
0.12150000 0.12150000 13801.20999345 0 -151.99423172 0 4698.00956520 0 171.93881041 0 705.12550482 0 15670
0.12250000 0.12250700 13991.10036409 0 122.06241603 0 4926.61985573 0 399.50608794 0 94.17444079 0 16887
0.12350000 0.12352200 13713.62790413 0 235.61242875 0 4459.98779857 0 86.89992338 0 540.38259831 0 16407
0.12450000 0.12449800 13510.89363670 0 343.49451838 0 4542.94165612 0 298.23528346 0 892.13264208 0 16306
0.12550000 0.12549900 13276.16035055 0 66.50669409 0 4306.53644891 0 28.40084533 0 465.22919360 0 17523
0.12650000 0.12650100 13178.28099915 0 223.90898141 0 4340.63920935 0 194.37687666 0 37.06139636 0 17154
0.12750000 0.12750600 12928.93224424 0 125.05194373 0 4423.20553553 0 131.22697929 0 495.74673527 0 18007
0.12850000 0.12850300 13078.18718279 0 11.17839769 0 3858.00764283 0 542.43430010 0 452.50377069 0 17496
0.12950000 0.12949900 12840.79653868 0 18.39810709 0 4086.38541454 0 398.97572359 0 744.41011328 0 18405
0.13050000 0.13049000 12952.84846585 0 57.60199830 0 3811.99106089 0 555.24387268 0 369.07380318 0 18100
0.13150000 0.13148800 12733.61643444 0 238.13691880 0 3815.32383066 0 197.03091292 0 312.40121583 0 19059
0.13250000 0.13249300 12295.70598786 0 404.04131219 0 3581.38775189 0 -75.78530228 0 65.86261695 0 18957
0.13350000 0.13349100 12212.10993548 0 412.64783027 0 3955.62125844 0 -197.31104273 0 476.01806691 0 19468
0.13450000 0.13450700 11923.67587395 0 108.07131567 0 3733.99760487 0 -168.36355673 0 296.93760699 0 19953
0.13550000 0.13551000 12087.32483477 0 -164.71522570 0 3875.96695369 0 -33.84865059 0 572.63517327 0 19956
0.13650000 0.13649900 12097.95426660 0 -61.93836359 0 3716.35939143 0 57.07340551 0 50.43089640 0 19723
0.13750000 0.13749600 12234.58675486 0 130.75751271 0 3756.95053421 0 390.11564927 0 626.44999359 0 20946
0.13850000 0.13851100 12121.20614872 0 190.52481485 0 4036.09491522 0 -253.20413842 0 461.91192509 0 20955
0.13950000 0.13949800 11881.60103964 0 296.39838477 0 4152.71971253 0 188.74881395 0 569.69547103 0 20506
0.14050000 0.14048300 11801.43740795 0 407.23014174 0 4239.50459446 0 -44.83826514 0 896.43202580 0 21447
0.14150000 0.14148400 11320.89851082 0 260.83075575 0 4123.56628129 0 96.39986735 0 888.55517393 0 21771
0.14250000 0.14249400 11135.21562362 0 278.22537804 0 4200.67395132 0 354.01654866 0 658.30839379 0 22470
0.14350000 0.14350900 10899.95086587 0 340.02113009 0 3790.13429170 0 501.63942654 0 718.80536213 0 22519
0.14450000 0.14449900 10631.46913367 0 169.98011615 0 3689.28755725 0 10.72881701 0 285.54861368 0 22218
0.14550000 0.14550500 10394.17814048 0 186.51995496 0 3356.04379718 0 175.17303649 0 235.76633406 0 23559
0.14650000 0.14650700 10207.36587614 0 202.06217731 0 3402.06037913 0 -19.46160389 0 125.60666721 0 23044
0.14750000 0.14750500 10110.10657493 0 96.61068442 0 3026.02208364 0 -21.34002379 0 85.92566952 0 23649
0.14850000 0.14849900 10039.47621491 0 -73.28129603 0 3219.51095984 0 68.03544997 0 330.89642721 0 23640
0.14950000 0.14949500 10342.49252823 0 -57.57918931 0 3425.12403172 0 6.56541251 0 -84.64471226 0 24457
0.15050000 0.15050000 10381.32317136 0 -184.63433805 0 3381.29977009 0 -116.80749067 0 -60.16380209 0 24591
0.15150000 0.15149900 10570.41633462 0 109.25096116 0 3444.21271971 0 -135.15544013 0 -231.47027203 0 25020
0.15250000 0.15250500 10346.45642051 0 193.72471672 0 3225.44572595 0 274.76306207 0 -109.23191676 0 25297
0.15350000 0.15350100 10177.78062422 0 92.77401315 0 2892.87737769 0 472.64875846 0 -211.43157857 0 25452
0.15450000 0.15450400 10021.05186642 0 145.49588428 0 2751.53915138 0 535.95477561 0 -734.07188359 0 26061
0.15550000 0.15549900 9796.52726374 0 306.54949216 0 2573.42973435 0 592.40813093 0 -610.73836467 0 26128
0.15650000 0.15649500 9443.02114926 0 272.19206825 0 2433.46447632 0 -93.36405734 0 -663.36069560 0 26331
0.15750000 0.15749700 9257.72579342 0 287.41983657 0 2439.56532729 0 -49.65550150 0 100.48455870 0 27345
0.15850000 0.15849900 9138.01181748 0 113.52897530 0 2670.11327467 0 126.57992456 0 224.41498666 0 26980
0.15950000 0.15949700 9156.49152760 0 -32.03013196 0 2827.46208266 0 228.72654994 0 529.56382973 0 27777
0.16050000 0.16050000 9207.67888524 0 69.88829281 0 2885.09353335 0 138.74398061 0 735.66962007 0 28224
0.16150000 0.16150500 9191.24755521 0 64.87308328 0 2949.64518704 0 89.50490924 0 1083.23875398 0 28075
0.16250000 0.16249700 9244.74902873 0 51.66601424 0 3030.63924309 0 -238.44251497 0 957.19583718 0 28590
0.16350000 0.16349900 9160.00145457 0 151.28671016 0 3111.29005707 0 -167.37369089 0 924.67309749 0 29163
0.16450000 0.16449100 9015.09793967 0 242.03216268 0 3061.61960793 0 -349.32188294 0 464.09317308 0 28996
0.16550000 0.16550500 8838.30612929 0 297.33731791 0 3249.77162357 0 -27.34687073 0 801.79575835 0 30777
0.16650000 0.16650700 8651.89246864 0 -13.54455350 0 2837.88114032 0 200.19538335 0 425.20716831 0 29211
0.16750000 0.16749900 8633.22452900 0 -38.95598186 0 2797.24570823 0 625.31175860 0 207.55294319 0 30922
0.16850000 0.16850800 8615.89634066 0 84.10039678 0 2692.54580475 0 269.15050062 0 -175.11988933 0 30867
0.16950000 0.16949900 8475.60998520 0 287.11866934 0 2426.58856260 0 127.36716685 0 -85.53226982 0 30852
0.17050000 0.17049200 8137.10687085 0 275.74739175 0 2347.26642760 0 -24.87951387 0 483.26711796 0 31257
0.17150000 0.17149500 8097.68939449 0 58.11298609 0 2438.32522691 0 80.01548398 0 274.96900731 0 32608
0.17250000 0.17250900 8061.95900230 0 28.31104878 0 2447.95814950 0 -27.27257543 0 229.09525836 0 32361
0.17350000 0.17350400 8033.91280354 0 40.03586570 0 2323.20626577 0 161.38245593 0 182.12645648 0 32508
0.17450000 0.17449800 8047.13315937 0 34.74152286 0 2252.98558177 0 -69.21155232 0 37.48513423 0 32791
0.17550000 0.17549800 7984.03198023 0 120.93082444 0 2372.94314886 0 -93.35785683 0 357.70031113 0 33633
0.17650000 0.17650100 7922.29269704 0 130.96567242 0 2371.27122781 0 -86.06274490 0 -69.13493183 0 33984
0.17750000 0.17750300 7800.15388197 0 158.82696336 0 2443.14168821 0 88.00748804 0 197.96984606 0 34069
0.17850000 0.17849800 7775.98299689 0 52.61546609 0 2407.66595949 0 92.58467639 0 349.08050625 0 34536
