### header ###
fiducial parameters:
Omega_m = 0.31
Omega_nu = 0
Omega_de = 0.69
Omega_k = 0
H_0 = 100
w_de = -1
zeff = 0
beta = 0
fgrowth = 0
b_1 = 2
gamma = 0.55
Lx = 3500 Ly = 3500 Lz = 3500
nx = 700 ny = 700 nz = 700
xoffset = -685.467585 yoffset = -31.7331281 zoffset = 572.489161
bins = 400 dk = 0.001
kx_ny = 0.628318531 ky_ny = 0.628318531 kz_ny = 0.628318531
############################
A(data) = 8.04541664 (not used)
A(ran) = 8.052579 (used)
Ngal = 478891
weighted Ngal = 0
Nran = 23820508
weighted Nran = 0
SN(data) = 3475.58653
SN(ran) = 70.1408835
SN(data+ran) = 3545.72742
############################
13 columns: k_central k_mean P_0(k) sigma^{lin}_{P_0(k)} P^img_1(k) sigma^{lin}_{P_1(k)} P_2(k) sigma^{lin}_{P_2(k)} P^img_3(k) sigma^{lin}_{P_3(k)} P_4(k) sigma^{lin}_{P_4(k)} N_modes
### header ###
0.00050000 0 0 0 0 0 0 0 0 0 0 0 0
0.00150000 0.00179520 14088.20465275 0 -22373.29314480 0 -7542.74447458 0 -28567.59454134 0 32188.02331054 0 3
0.00250000 0.00253879 20184.18380490 0 -15176.61418242 0 -14350.84019745 0 -23760.32327483 0 -22553.99348584 0 6
0.00350000 0.00331552 43137.00243071 0 -23591.24887485 0 -32255.12159894 0 46264.49129898 0 5721.61277771 0 7
0.00450000 0.00420575 52641.81822478 0 -15343.91701043 0 -14832.04343407 0 1648.56951457 0 -18936.66496759 0 24
0.00550000 0.00557378 67421.60028570 0 -1408.65438040 0 -8022.34222410 0 21026.56627711 0 9811.95101221 0 45
0.00650000 0.00659388 56869.89618003 0 448.49891080 0 22764.58910389 0 12725.86580706 0 28649.08685201 0 40
0.00750000 0.00754703 64173.53380015 0 8449.42393701 0 15669.11119036 0 25893.29592789 0 24625.40401291 0 57
0.00850000 0.00846663 65048.80107707 0 -831.28689550 0 34118.26169618 0 33368.00096647 0 27091.76436626 0 75
0.00950000 0.00948925 66724.37599187 0 -614.15749858 0 32545.21650919 0 23316.76594259 0 19635.88227988 0 112
0.01050000 0.01054430 68161.67447658 0 8397.57223988 0 58776.43979055 0 1313.45453161 0 35465.65290336 0 105
0.01150000 0.01145670 68050.84050514 0 2569.54334834 0 48453.04702264 0 -9808.14213248 0 29748.67942975 0 144
0.01250000 0.01249090 63592.79036341 0 -1244.85040704 0 48312.20705094 0 18019.87647260 0 19514.19743013 0 169
0.01350000 0.01339930 62835.44334582 0 -42.64804857 0 36009.96839144 0 15090.47149533 0 8554.11276817 0 180
0.01450000 0.01448870 74112.82762011 0 -3982.60451402 0 32664.79761723 0 20755.40504230 0 -2198.62046691 0 267
0.01550000 0.01550050 61576.85218368 0 -3096.70780528 0 9908.44632301 0 10543.47736833 0 -9261.01427389 0 238
0.01650000 0.01653350 71537.62631378 0 2041.44881611 0 9474.57727499 0 7834.17913613 0 -2489.31328270 0 315
0.01750000 0.01747870 70925.32675131 0 -2178.90065641 0 585.16461604 0 -1006.06465000 0 1099.18068726 0 297
0.01850000 0.01844180 75568.61688726 0 -8679.23003862 0 10023.60957345 0 2723.12756590 0 -422.54981036 0 388
0.01950000 0.01947590 80126.53939886 0 -1796.13038743 0 2566.77526713 0 6288.44937448 0 11030.21676736 0 399
0.02050000 0.02045430 83348.14302809 0 3353.51930712 0 10408.82682621 0 332.06123578 0 4637.90898609 0 462
0.02150000 0.02154770 82649.70077853 0 3038.61131696 0 10301.85709614 0 4771.12012598 0 22872.98716386 0 571
0.02250000 0.02255340 75321.15042756 0 290.05615711 0 13604.34405817 0 12185.53635591 0 21408.45076010 0 510
0.02350000 0.02348930 79643.12169727 0 2089.25911468 0 18961.13480544 0 -1539.72856161 0 13753.59899673 0 555
0.02450000 0.02439640 74444.11157868 0 9203.39389553 0 15240.72294312 0 1019.07906059 0 12736.16306914 0 592
0.02550000 0.02547300 69932.02849183 0 2059.27525907 0 22843.97767284 0 -7172.70737914 0 7525.16162277 0 837
0.02650000 0.02652900 64579.88812100 0 2496.59887243 0 15286.78381437 0 272.68146501 0 8640.33296153 0 723
0.02750000 0.02749970 66894.55762433 0 1266.35286183 0 26872.08944186 0 -5608.14359297 0 -9456.91691691 0 826
0.02850000 0.02848090 67791.08376490 0 736.75138620 0 20023.19220204 0 2517.69165121 0 -8419.29614118 0 831
0.02950000 0.02946900 64867.21495004 0 3866.12365693 0 26016.08801013 0 -6133.72470746 0 -4920.38613686 0 996
0.03050000 0.03053250 62602.59235488 0 6587.40214458 0 30452.32567197 0 -6894.72559225 0 -14809.78806118 0 1041
0.03150000 0.03150510 57230.30035287 0 1136.10910499 0 30457.19749489 0 6766.74058967 0 -1794.33667081 0 1036
0.03250000 0.03246190 57870.28072739 0 -294.43969051 0 27864.50191536 0 9708.88981280 0 -16733.82594492 0 1059
0.03350000 0.03345080 59000.65436813 0 -1045.65596185 0 28843.29542933 0 7475.50224596 0 -13796.89178677 0 1302
0.03450000 0.03451200 57757.45373749 0 748.65745708 0 25877.57322665 0 3078.50490328 0 -18658.86033789 0 1339
0.03550000 0.03553350 56723.40932268 0 1257.62786988 0 22106.56083992 0 -1634.81768715 0 -5844.38271530 0 1365
0.03650000 0.03647120 54990.14759557 0 3931.43930103 0 18328.57288855 0 -280.10324433 0 -8517.92841066 0 1308
0.03750000 0.03744890 55502.35334168 0 703.98284090 0 22157.38281083 0 100.12160790 0 -6428.38141553 0 1579
0.03850000 0.03847530 51051.61093433 0 2263.95825567 0 22613.67331661 0 303.82902195 0 -3790.26715959 0 1662
0.03950000 0.03950240 51053.16105980 0 3585.87204344 0 23323.63078398 0 1855.43375916 0 3283.19897220 0 1683
0.04050000 0.04050350 48910.88765389 0 1832.21509402 0 21450.19342467 0 8367.22299755 0 3800.11045636 0 1822
0.04150000 0.04152450 45991.77993870 0 556.16841180 0 21523.82438471 0 8008.80077085 0 5522.95312581 0 1887
0.04250000 0.04250150 45366.74720269 0 341.21915563 0 17461.49913200 0 4538.82275128 0 2160.52059721 0 1920
0.04350000 0.04349210 45341.28085560 0 -2096.98759740 0 11759.69474339 0 1921.86770807 0 -4940.49347873 0 2005
0.04450000 0.04448520 45454.10784551 0 1359.83650028 0 12523.13153963 0 -4467.57234108 0 -11638.67423312 0 2151
0.04550000 0.04548030 44426.81754883 0 2873.68903878 0 12421.48759780 0 -5276.33923513 0 -7115.25308566 0 2274
0.04650000 0.04648670 42827.97384502 0 934.58947159 0 11659.82237352 0 -3885.63309326 0 -11986.78812542 0 2311
0.04750000 0.04749250 42613.50291328 0 678.05809957 0 14452.04124629 0 -1126.73084587 0 -10302.52143563 0 2568
0.04850000 0.04851840 42425.49483786 0 1575.03820545 0 18640.81244843 0 891.37529506 0 -10291.22766431 0 2493
0.04950000 0.04949480 40766.19624054 0 2185.16759226 0 17443.34051930 0 4194.38487083 0 -5556.75693349 0 2644
0.05050000 0.05050630 39683.43359652 0 547.63607830 0 16624.87426870 0 4497.02472509 0 -817.68011553 0 2829
0.05150000 0.05149060 39096.37893464 0 467.19231679 0 18265.34991383 0 4972.24890631 0 698.55075834 0 2784
0.05250000 0.05249300 38868.51048987 0 1360.60049069 0 15627.81141878 0 1294.54300082 0 -1141.23559138 0 3055
0.05350000 0.05348950 36325.30820228 0 1951.68547881 0 14603.62137306 0 791.99232195 0 162.32913970 0 3009
0.05450000 0.05448610 35608.04300053 0 1585.35761218 0 13460.62528203 0 -759.63788160 0 156.75090246 0 3336
0.05550000 0.05550870 33708.03206165 0 161.51421659 0 14146.99869754 0 1601.61178502 0 -275.76178577 0 3349
0.05650000 0.05647670 34461.28231906 0 -760.03648529 0 12975.65745497 0 783.07024261 0 -1325.86660773 0 3324
0.05750000 0.05747970 34308.81640631 0 474.86986682 0 14528.10811779 0 1353.52527513 0 -172.17022200 0 3639
0.05850000 0.05849280 34389.42293099 0 337.08585678 0 13032.45848129 0 2187.21597235 0 -88.07259330 0 3846
0.05950000 0.05951020 33398.89275271 0 1000.29707600 0 13217.58775226 0 1445.08232906 0 1380.54174769 0 3787
0.06050000 0.06049470 32811.83809082 0 1848.31425430 0 12585.57945161 0 -58.81120689 0 2621.76043218 0 3930
0.06150000 0.06148310 31272.89566428 0 1269.78528253 0 12322.39029067 0 730.58520851 0 943.57466319 0 4083
0.06250000 0.06249100 29426.47477752 0 1078.98698125 0 11235.42016322 0 -598.00519113 0 1503.06809413 0 4303
0.06350000 0.06350600 30075.97735139 0 -94.64988642 0 11016.91890525 0 -638.58083266 0 -1344.37953483 0 4470
0.06450000 0.06451750 29160.73898188 0 -352.91153064 0 11842.84790278 0 -24.75793974 0 -3378.75313538 0 4479
0.06550000 0.06550280 29705.05446996 0 452.83261874 0 10842.99482700 0 53.94480941 0 -4729.97536695 0 4636
0.06650000 0.06648880 29470.65335355 0 -222.31456664 0 9698.23823633 0 -602.97555774 0 -3161.19302502 0 4653
0.06750000 0.06749660 30274.06124239 0 -4.17784282 0 12149.88347000 0 1091.96928210 0 -2666.13831006 0 5220
0.06850000 0.06852730 29626.10879400 0 82.45427425 0 11882.70827212 0 394.28327233 0 -1933.48257681 0 5029
0.06950000 0.06949320 29302.13256981 0 1762.91341298 0 11915.59307683 0 754.30434274 0 -1491.57502097 0 5040
0.07050000 0.07048030 28189.80681853 0 1765.13895026 0 11450.00181821 0 1279.62857929 0 -85.09856686 0 5475
0.07150000 0.07148790 27855.97622525 0 -395.29417558 0 11384.78582503 0 1255.62377908 0 1947.59979095 0 5509
0.07250000 0.07249820 27770.16570790 0 -1253.73041154 0 10989.04986369 0 2199.68341010 0 -671.62729331 0 5916
0.07350000 0.07351270 28567.48381809 0 20.05308748 0 10342.59217915 0 1289.54938233 0 -665.09129997 0 5721
0.07450000 0.07449140 27942.56180533 0 958.05504958 0 9564.70599901 0 585.45913988 0 -348.18143348 0 6028
0.07550000 0.07549160 27356.50365268 0 1053.49073889 0 8149.46358534 0 964.40059894 0 254.93474279 0 6183
0.07650000 0.07648840 25369.35351748 0 962.63567036 0 7469.14673151 0 684.97498088 0 350.86204332 0 6330
0.07750000 0.07749960 25436.56252912 0 867.79899382 0 7693.80420208 0 1796.18574906 0 -83.19689507 0 6583
0.07850000 0.07848650 24295.67017981 0 456.68578777 0 7298.86544813 0 981.87383473 0 1040.46636321 0 6549
0.07950000 0.07947320 24268.76443050 0 409.58743969 0 5933.91353378 0 1082.24667368 0 1482.81681204 0 6828
0.08050000 0.08048110 23394.38293957 0 394.32977609 0 6076.69116232 0 683.95300530 0 2074.18968060 0 7147
0.08150000 0.08149960 23073.83913607 0 387.02425618 0 6538.07493751 0 718.04137172 0 2735.15211065 0 7386
0.08250000 0.08250610 22419.35401604 0 590.72624479 0 5228.14140519 0 710.40811099 0 3135.78203956 0 7227
0.08350000 0.08350160 22011.11739998 0 916.22712812 0 5538.08899384 0 594.20184756 0 2483.78819262 0 7798
0.08450000 0.08449610 21529.80344011 0 32.98511997 0 4492.20826380 0 385.11317291 0 3436.91605766 0 7371
0.08550000 0.08548940 21303.92801381 0 -37.44294867 0 4192.63544350 0 844.60690226 0 2984.06904490 0 8256
0.08650000 0.08650700 21325.96194020 0 204.29878693 0 4523.05576074 0 -662.17484962 0 2166.65466516 0 8037
0.08750000 0.08749060 21140.50049949 0 443.33145681 0 5999.24025021 0 -138.83809537 0 2216.94516449 0 8155
0.08850000 0.08849210 20529.86178574 0 822.29838221 0 5585.85500311 0 -1037.59752385 0 1933.52686611 0 8718
0.08950000 0.08949900 20357.24424182 0 483.07778121 0 7358.06916893 0 -1053.11981601 0 1788.53477261 0 8571
0.09050000 0.09049190 20197.91348768 0 230.53133889 0 7463.27839936 0 -373.92791038 0 2150.62193882 0 8932
0.09150000 0.09150830 20200.46012239 0 30.80619717 0 7788.60544718 0 -177.80824980 0 1493.03656785 0 9285
0.09250000 0.09250820 20038.58273354 0 301.25138474 0 7330.46586316 0 387.91004216 0 1598.73298056 0 9204
0.09350000 0.09350330 19653.48727635 0 604.05178771 0 6972.97371174 0 168.82859437 0 -535.32254587 0 9349
0.09450000 0.09448040 18841.33225090 0 1054.38759720 0 7092.78733860 0 -267.77863958 0 -59.86706379 0 9564
0.09550000 0.09549270 18141.00770612 0 1045.06469971 0 6695.04728647 0 33.36667229 0 -270.31752366 0 10155
0.09650000 0.09649430 17255.22172063 0 350.94840745 0 6528.72989537 0 -146.68394473 0 111.37762258 0 9913
0.09750000 0.09749140 17255.44316712 0 -114.50333988 0 6637.22760626 0 801.62303008 0 211.35628677 0 10476
0.09850000 0.09850240 17439.79737535 0 184.32099126 0 6487.21974962 0 349.02625186 0 -257.71057462 0 10575
0.09950000 0.09950330 16810.55715591 0 606.67592870 0 6593.23725976 0 957.00207149 0 818.43635532 0 10882
0.10050000 0.10051200 16669.71718422 0 356.79348772 0 6229.68854666 0 212.55874124 0 485.55355304 0 10875
0.10150000 0.10150300 16156.18275913 0 -145.75497668 0 5465.41025373 0 1070.94515174 0 -567.12115551 0 11118
0.10250000 0.10250800 16285.39678976 0 109.57881269 0 5127.87043164 0 235.44080771 0 -221.07003733 0 11575
0.10350000 0.10349800 16140.57078113 0 194.52524581 0 4840.70968746 0 825.20043855 0 -543.32119332 0 11364
0.10450000 0.10450100 15835.30678588 0 126.82019401 0 4286.19658822 0 120.28420067 0 -703.89979846 0 12093
0.10550000 0.10551000 15540.45077596 0 470.55166014 0 3831.87695626 0 465.67762276 0 -779.30122325 0 12067
0.10650000 0.10649700 15372.48360846 0 127.38820427 0 3802.73459734 0 -38.67341613 0 -782.22542423 0 12054
0.10750000 0.10749900 15238.84064790 0 -115.72240284 0 3741.93646176 0 443.84631991 0 -577.11282143 0 12807
0.10850000 0.10850100 15483.87119614 0 -47.72149852 0 3996.25669052 0 -142.43549370 0 -892.33526562 0 12736
0.10950000 0.10950300 15309.03918725 0 64.65960886 0 3649.88115322 0 -113.09604740 0 -731.31930364 0 12933
0.11050000 0.11050200 15251.13092845 0 663.02741863 0 3958.34505034 0 -488.77559956 0 -491.46949619 0 13428
0.11150000 0.11150900 15000.34277131 0 81.44979294 0 3619.15545185 0 -123.47303022 0 206.81995529 0 13453
0.11250000 0.11250000 14824.84642293 0 5.29993436 0 4119.85705247 0 794.06395393 0 -162.47861609 0 13668
0.11350000 0.11349100 15078.73483103 0 -182.02902002 0 4030.22658306 0 553.07148255 0 68.52130359 0 13791
0.11450000 0.11448600 15085.48894916 0 223.30664694 0 4537.70444648 0 263.08840278 0 -289.18144345 0 14205
0.11550000 0.11549300 14774.13517526 0 482.77107781 0 4521.43920132 0 -427.14814685 0 703.66285071 0 14776
0.11650000 0.11649800 14644.03535865 0 466.34085501 0 4787.27464789 0 -100.92866965 0 1292.86000745 0 14553
0.11750000 0.11747300 14391.03273654 0 -25.72920407 0 5080.52517071 0 -227.21849930 0 1424.37708165 0 14568
0.11850000 0.11849100 14364.45915697 0 43.25237606 0 4722.26902888 0 1069.40942028 0 1118.62590410 0 16015
0.11950000 0.11950300 14480.49712107 0 -166.26424394 0 4608.78877181 0 203.79056722 0 1423.49129566 0 15270
0.12050000 0.12050700 14525.89365283 0 7.62411499 0 4106.18273132 0 691.74570751 0 636.70518084 0 15999
0.12150000 0.12150000 14350.95092070 0 203.21812802 0 3523.33555287 0 -78.22663918 0 754.05189373 0 15670
0.12250000 0.12250700 14036.05400285 0 441.02398432 0 3259.03915945 0 498.18596843 0 159.02626521 0 16887
0.12350000 0.12352200 13683.51118063 0 212.39265637 0 3236.70628029 0 -21.89264352 0 303.63525627 0 16407
0.12450000 0.12449800 13545.43929014 0 312.34806867 0 3481.88076875 0 -3.32144278 0 -292.53082171 0 16306
0.12550000 0.12549900 13260.88054230 0 289.04746832 0 3333.94343684 0 -18.35326417 0 -25.56433716 0 17523
0.12650000 0.12650100 13033.67643702 0 306.37676389 0 3739.02444033 0 -77.51081338 0 480.40049307 0 17154
0.12750000 0.12750600 12938.67589008 0 218.76367207 0 4032.93930264 0 -151.99091002 0 600.66365632 0 18007
0.12850000 0.12850300 13018.50735202 0 140.18670453 0 4553.95861931 0 -51.30295271 0 1208.15672259 0 17496
0.12950000 0.12949900 12750.88926115 0 74.29928557 0 4437.16773712 0 46.30789481 0 1162.87091408 0 18405
0.13050000 0.13049000 12791.74613973 0 18.57072463 0 4074.57124396 0 329.57660609 0 710.15566199 0 18100
0.13150000 0.13148800 12901.69432518 0 19.98853583 0 4629.98120152 0 -42.34544193 0 674.71757917 0 19059
0.13250000 0.13249300 12691.32015363 0 24.47924933 0 4141.17127775 0 -399.93237245 0 178.02637460 0 18957
0.13350000 0.13349100 12449.05768660 0 400.53581415 0 4370.36840149 0 -661.31785168 0 55.23938563 0 19468
0.13450000 0.13450700 12503.53352470 0 328.03866017 0 4462.94410930 0 -183.29569398 0 -61.75954554 0 19953
0.13550000 0.13551000 12035.28490812 0 27.32738344 0 4588.65928529 0 177.51815489 0 -396.12127825 0 19956
0.13650000 0.13649900 12171.14233365 0 214.72227351 0 4434.45501754 0 298.64163778 0 -31.46621846 0 19723
0.13750000 0.13749600 11897.54518738 0 259.71798711 0 4521.01845298 0 354.13391530 0 409.32059666 0 20946
0.13850000 0.13851100 11844.17658175 0 68.25324260 0 4428.89671048 0 663.19571797 0 102.46894076 0 20955
0.13950000 0.13949800 11829.67183624 0 1.83727515 0 4676.37424251 0 338.12444085 0 1014.41871907 0 20506
0.14050000 0.14048300 11946.59558633 0 -178.50027010 0 4330.50803215 0 565.09824177 0 549.86161559 0 21447
0.14150000 0.14148400 11867.76063362 0 166.71820926 0 4100.70193053 0 287.34011583 0 1007.43318934 0 21771
0.14250000 0.14249400 11826.57158529 0 293.24055773 0 4172.29558281 0 -145.58114118 0 955.52502336 0 22470
0.14350000 0.14350900 11606.45376790 0 263.99190449 0 4098.74212904 0 -316.89547247 0 554.35365777 0 22519
0.14450000 0.14449900 11169.42910731 0 511.66209496 0 4137.14095151 0 -327.56476467 0 638.56311694 0 22218
0.14550000 0.14550500 10992.30512718 0 313.02901665 0 4232.30758333 0 96.38226236 0 244.46696690 0 23559
0.14650000 0.14650700 10754.00655244 0 -25.41021040 0 3943.36419486 0 258.88866998 0 490.66785987 0 23044
0.14750000 0.14750500 10796.86752181 0 225.17011921 0 4181.86207146 0 411.12760007 0 191.03967796 0 23649
0.14850000 0.14849900 10504.19275988 0 88.18752404 0 3675.49144052 0 429.04483610 0 622.11517842 0 23640
0.14950000 0.14949500 10391.44327625 0 102.56416275 0 3727.36528230 0 549.60363042 0 358.26832139 0 24457
0.15050000 0.15050000 10216.81056921 0 139.65523294 0 3577.24670241 0 369.64956407 0 517.08864136 0 24591
0.15150000 0.15149900 10189.47299923 0 81.79458513 0 3760.94764347 0 341.42510088 0 764.14653227 0 25020
0.15250000 0.15250500 10001.67529798 0 208.17852954 0 3341.56119632 0 356.00735266 0 694.32334473 0 25297
0.15350000 0.15350100 9901.24931188 0 157.62007996 0 3393.13608532 0 46.19750373 0 1080.64229381 0 25452
0.15450000 0.15450400 9797.83379807 0 194.99139068 0 3374.98854495 0 -260.09223169 0 1100.85150107 0 26061
0.15550000 0.15549900 9726.83805133 0 176.06989480 0 3574.10216216 0 106.62626656 0 1436.44591570 0 26128
0.15650000 0.15649500 9531.97620685 0 159.96852005 0 3488.55738061 0 -77.57525431 0 920.55308542 0 26331
0.15750000 0.15749700 9440.79561197 0 99.45737913 0 3416.93051136 0 322.64975968 0 1352.67270612 0 27345
0.15850000 0.15849900 9388.54531115 0 -5.48167550 0 3258.98379782 0 503.44421548 0 894.57962586 0 26980
0.15950000 0.15949700 9490.57678435 0 -98.58930886 0 2706.41942775 0 471.39315683 0 1063.89761699 0 27777
0.16050000 0.16050000 9269.60639795 0 41.13700840 0 2842.77510789 0 402.32288738 0 241.32353389 0 28224
0.16150000 0.16150500 9344.25601188 0 184.62215849 0 2634.56003967 0 46.19872169 0 545.91211732 0 28075
0.16250000 0.16249700 9116.50936268 0 132.38071553 0 2318.89913142 0 -303.94638860 0 244.16137074 0 28590
0.16350000 0.16349900 9081.67582880 0 108.41931884 0 2580.93677058 0 -413.21362607 0 324.60291778 0 29163
0.16450000 0.16449100 8974.37392898 0 178.54566663 0 2621.68292591 0 -194.29383422 0 346.24377664 0 28996
0.16550000 0.16550500 8970.64255552 0 141.33601185 0 2675.52764150 0 -104.14551218 0 299.56506967 0 30777
0.16650000 0.16650700 8874.92230746 0 75.58168223 0 2879.03697167 0 1.14558702 0 447.25327426 0 29211
0.16750000 0.16749900 8830.22333217 0 156.69554083 0 2754.36259421 0 342.52568996 0 95.67463008 0 30922
0.16850000 0.16850800 8661.23751079 0 194.48759990 0 2891.12795037 0 182.60588814 0 206.85095780 0 30867
0.16950000 0.16949900 8486.22834470 0 133.02291037 0 2678.68325408 0 106.97227671 0 359.23936428 0 30852
0.17050000 0.17049200 8322.87833665 0 179.67282930 0 2503.55229242 0 408.32630189 0 567.70355980 0 31257
0.17150000 0.17149500 8180.45502251 0 91.73553980 0 2299.14610394 0 268.97112896 0 202.07214241 0 32608
0.17250000 0.17250900 8170.50100250 0 57.46038326 0 2168.26015226 0 308.71413166 0 336.25211072 0 32361
0.17350000 0.17350400 8020.20526541 0 90.37131866 0 1833.67664089 0 179.93081447 0 495.55739851 0 32508
0.17450000 0.17449800 7953.06268771 0 103.81599979 0 1771.54982633 0 116.90271267 0 329.30533413 0 32791
0.17550000 0.17549800 7918.06306896 0 20.90111684 0 1766.89944991 0 161.95268066 0 503.39106832 0 33633
0.17650000 0.17650100 7941.45889130 0 92.20389914 0 1746.96926524 0 120.70384178 0 498.02320525 0 33984
0.17750000 0.17750300 7791.42889001 0 55.28588939 0 1811.00051966 0 -3.58613778 0 723.84437716 0 34069
0.17850000 0.17849800 7865.03770540 0 -59.00076509 0 1917.75987556 0 -98.08961485 0 219.21542292 0 34536
