### header ###
fiducial parameters:
Omega_m = 0.31
Omega_nu = 0
Omega_de = 0.69
Omega_k = 0
H_0 = 100
w_de = -1
zeff = 0
beta = 0
fgrowth = 0
b_1 = 2
gamma = 0.55
Lx = 3500 Ly = 3500 Lz = 3500
nx = 700 ny = 700 nz = 700
xoffset = -685.467585 yoffset = -31.7331281 zoffset = 572.489161
bins = 400 dk = 0.001
kx_ny = 0.628318531 ky_ny = 0.628318531 kz_ny = 0.628318531
############################
A(data) = 8.02026036 (not used)
A(ran) = 8.01848536 (used)
Ngal = 475778
weighted Ngal = 0
Nran = 23820508
weighted Nran = 0
SN(data) = 3492.19197
SN(ran) = 69.8439155
SN(data+ran) = 3562.03588
############################
13 columns: k_central k_mean P_0(k) sigma^{lin}_{P_0(k)} P^img_1(k) sigma^{lin}_{P_1(k)} P_2(k) sigma^{lin}_{P_2(k)} P^img_3(k) sigma^{lin}_{P_3(k)} P_4(k) sigma^{lin}_{P_4(k)} N_modes
### header ###
0.00050000 0 0 0 0 0 0 0 0 0 0 0 0
0.00150000 0.00179520 1507.44166243 0 -10669.31433990 0 -12539.18641062 0 -3934.82743243 0 14933.68737590 0 3
0.00250000 0.00253879 10867.59753275 0 -19023.47199416 0 -17700.10773184 0 -9628.11720325 0 -18234.01523459 0 6
0.00350000 0.00331552 28040.66260322 0 -30039.99229572 0 -23298.82877639 0 -25624.68132779 0 -45983.36497184 0 7
0.00450000 0.00420575 38067.75995899 0 -16911.53675826 0 -21691.68082896 0 -13907.28286521 0 7939.06726914 0 24
0.00550000 0.00557378 39939.09357659 0 1503.43348085 0 -23123.33242801 0 -16116.10094328 0 9316.32053636 0 45
0.00650000 0.00659388 40728.77178265 0 -1164.04458051 0 -19037.86601643 0 -11889.68383676 0 20373.29911281 0 40
0.00750000 0.00754703 50929.26174508 0 -15952.45198246 0 -9065.75382571 0 -10452.88360667 0 -34913.69751115 0 57
0.00850000 0.00846663 63434.78828825 0 -10280.27713507 0 -5285.29674591 0 -10361.75837341 0 -1553.74612483 0 75
0.00950000 0.00948925 66772.65132808 0 2288.35058724 0 -4399.46647112 0 -19919.44451849 0 -12785.10274484 0 112
0.01050000 0.01054430 67141.69191429 0 -746.97446371 0 17182.03365358 0 -18447.71110359 0 3992.70247425 0 105
0.01150000 0.01145670 74549.29866446 0 -1482.50678694 0 11711.86230017 0 -7306.47213528 0 788.42703336 0 144
0.01250000 0.01249090 74239.60573928 0 -699.51626507 0 28315.03481223 0 -13394.96639585 0 -9597.20327236 0 169
0.01350000 0.01339930 76232.18131364 0 941.02470678 0 28976.16332715 0 -18218.29253335 0 -31750.66648021 0 180
0.01450000 0.01448870 69120.31635938 0 11127.68644274 0 33650.56669584 0 -9922.49710320 0 -12578.38244048 0 267
0.01550000 0.01550050 74130.87550956 0 4997.41630062 0 37660.96274515 0 -4503.12557607 0 -9405.17594303 0 238
0.01650000 0.01653350 69438.20280492 0 -12639.28022698 0 34162.44027220 0 5124.81446999 0 -4706.67919553 0 315
0.01750000 0.01747870 82994.49297338 0 -8297.37877260 0 35223.27971308 0 12030.85597820 0 -20572.82240604 0 297
0.01850000 0.01844180 81487.32811907 0 3995.13838571 0 36929.52496763 0 15897.97614436 0 -13962.64448931 0 388
0.01950000 0.01947590 76133.74834600 0 10157.42969121 0 28842.29892009 0 4385.02815955 0 -8986.03308702 0 399
0.02050000 0.02045430 69301.57031666 0 8475.87572100 0 27071.83418159 0 3283.17682755 0 2454.33580860 0 462
0.02150000 0.02154770 65377.98129392 0 3295.52246972 0 34849.25658070 0 10537.28793876 0 837.13197577 0 571
0.02250000 0.02255340 60677.33651542 0 -304.25973539 0 26094.25862335 0 10594.76437689 0 13458.41081706 0 510
0.02350000 0.02348930 65881.43990343 0 -3530.52149167 0 31734.94377896 0 14777.78904245 0 17326.30604596 0 555
0.02450000 0.02439640 66227.89294700 0 -1162.98163733 0 20259.80778341 0 12402.77536885 0 20572.04734330 0 592
0.02550000 0.02547300 67656.44429510 0 -1344.04736509 0 23039.07203614 0 6051.35768313 0 8271.83491924 0 837
0.02650000 0.02652900 68483.43623581 0 2214.33209583 0 26710.76566925 0 -5039.97831723 0 20816.41355205 0 723
0.02750000 0.02749970 68137.42608523 0 6365.81170798 0 27298.15250088 0 1870.38139767 0 22750.41652812 0 826
0.02850000 0.02848090 62592.51653930 0 2140.85614833 0 32216.58990857 0 -5934.36749910 0 23345.88615687 0 831
0.02950000 0.02946900 64864.11469909 0 -771.09441609 0 31040.04467334 0 6730.45658124 0 10372.68675801 0 996
0.03050000 0.03053250 62545.56988207 0 328.53137862 0 30755.81809525 0 5276.47210303 0 1977.93796095 0 1041
0.03150000 0.03150510 61495.47059627 0 1655.01360762 0 29319.95901277 0 -1978.18155210 0 6058.64327287 0 1036
0.03250000 0.03246190 60744.43480382 0 -240.07679011 0 28340.50115931 0 8118.36142493 0 5576.86427536 0 1059
0.03350000 0.03345080 60117.85194233 0 -102.30507035 0 23550.39199627 0 4171.95234074 0 1973.56439265 0 1302
0.03450000 0.03451200 61066.75017929 0 2670.37901046 0 25964.93386947 0 3847.44464496 0 3495.31149875 0 1339
0.03550000 0.03553350 55830.31560280 0 2947.96219367 0 25002.19522649 0 -1469.49680528 0 2544.85206399 0 1365
0.03650000 0.03647120 53863.87071501 0 6669.61415636 0 24540.03638856 0 -3112.23120467 0 6282.37066815 0 1308
0.03750000 0.03744890 53746.28262544 0 3333.38982060 0 29039.60774836 0 -4652.15906813 0 7446.38203169 0 1579
0.03850000 0.03847530 49497.05652979 0 2549.00418580 0 32935.95885204 0 -2044.87016448 0 5947.31104681 0 1662
0.03950000 0.03950240 48696.85961514 0 1667.92393836 0 33262.48171094 0 1749.82592504 0 5122.03531646 0 1683
0.04050000 0.04050350 46529.67347839 0 2914.26910924 0 37326.46781238 0 3463.85502394 0 3447.67835738 0 1822
0.04150000 0.04152450 43726.27155756 0 2840.79316175 0 30343.26327251 0 6202.46169993 0 3084.91577935 0 1887
0.04250000 0.04250150 41150.40591175 0 625.05709513 0 28304.51610365 0 8317.82935654 0 1637.94008275 0 1920
0.04350000 0.04349210 42052.68966122 0 -420.82031322 0 23033.97876673 0 6814.44016499 0 3308.31100489 0 2005
0.04450000 0.04448520 40337.25437707 0 -1600.27203371 0 20631.50572758 0 7232.40935457 0 2233.55365172 0 2151
0.04550000 0.04548030 41459.65594393 0 1370.95311440 0 21226.86463308 0 2854.56713382 0 -1131.74660901 0 2274
0.04650000 0.04648670 38665.33332945 0 1149.67270289 0 18190.16882831 0 -1284.82149963 0 5862.19808593 0 2311
0.04750000 0.04749250 38943.24868240 0 1761.64009562 0 19637.21095886 0 -363.93292277 0 4386.33469388 0 2568
0.04850000 0.04851840 37668.38120278 0 1679.21770967 0 18404.08614381 0 1772.10344257 0 5830.05512698 0 2493
0.04950000 0.04949480 37021.42526363 0 737.39800997 0 19582.40295101 0 713.90142947 0 3390.58945062 0 2644
0.05050000 0.05050630 34349.00894540 0 1396.18694266 0 15804.08282989 0 3111.30112939 0 72.01805449 0 2829
0.05150000 0.05149060 34730.22908890 0 698.96486329 0 15077.95976829 0 3180.91283552 0 217.30323243 0 2784
0.05250000 0.05249300 33756.19667461 0 -639.29167591 0 13186.80668926 0 1807.76740082 0 3356.73028132 0 3055
0.05350000 0.05348950 33920.50997492 0 798.55488887 0 11820.48180664 0 3990.05618862 0 2387.48111135 0 3009
0.05450000 0.05448610 33212.87769576 0 -119.63868413 0 12040.15673104 0 -1420.95573328 0 -1124.10670489 0 3336
0.05550000 0.05550870 33239.45127532 0 1051.63280279 0 11376.26013492 0 -1158.09874208 0 2973.53926400 0 3349
0.05650000 0.05647670 32781.05702783 0 1046.59600223 0 14550.69566042 0 -2915.94103029 0 2057.12722806 0 3324
0.05750000 0.05747970 32572.12225850 0 835.88301753 0 16678.68576732 0 -1337.97973109 0 4105.93914017 0 3639
0.05850000 0.05849280 32981.35538380 0 718.43554649 0 19180.03466710 0 84.25684873 0 3695.87559052 0 3846
0.05950000 0.05951020 31919.74088019 0 526.27977819 0 16724.85736181 0 3047.81241888 0 5494.53046801 0 3787
0.06050000 0.06049470 30953.45909326 0 264.43036855 0 17165.31444310 0 4525.22593641 0 5264.94581289 0 3930
0.06150000 0.06148310 31690.87592618 0 -560.33935656 0 14482.15796980 0 4497.84407713 0 5535.35412961 0 4083
0.06250000 0.06249100 32116.05319922 0 9.60362522 0 13594.93258208 0 3165.95412469 0 3968.95233752 0 4303
0.06350000 0.06350600 31283.74654260 0 212.43694567 0 11308.49750703 0 53.75071156 0 5068.74421710 0 4470
0.06450000 0.06451750 30625.71827863 0 1010.77813867 0 10056.68260768 0 568.78311147 0 4870.89284492 0 4479
0.06550000 0.06550280 30900.31193413 0 -325.68357668 0 10625.02504062 0 -833.69401892 0 3614.09539940 0 4636
0.06650000 0.06648880 30146.06516749 0 627.10547522 0 9604.72138091 0 -233.93718600 0 1802.39732328 0 4653
0.06750000 0.06749660 30110.63372807 0 1149.11908665 0 10329.48254656 0 -13.15502912 0 -674.23371858 0 5220
0.06850000 0.06852730 28630.15317657 0 684.71035232 0 8189.27966539 0 902.22174445 0 1477.02598616 0 5029
0.06950000 0.06949320 28978.04562237 0 327.33113861 0 8443.90991925 0 1522.88755556 0 318.62718407 0 5040
0.07050000 0.07048030 28218.59486306 0 188.86064443 0 8708.33918057 0 1347.86731715 0 901.45443234 0 5475
0.07150000 0.07148790 28349.91263541 0 -219.78454042 0 9672.06326046 0 -415.63625074 0 -234.53176984 0 5509
0.07250000 0.07249820 27024.88752436 0 914.56295770 0 8397.39508268 0 929.03559347 0 1201.21437493 0 5916
0.07350000 0.07351270 27829.18119919 0 -77.24806712 0 8444.39710154 0 -139.14369153 0 1914.83678181 0 5721
0.07450000 0.07449140 27378.09468607 0 -868.59509398 0 8310.05658451 0 909.62691529 0 2119.54192306 0 6028
0.07550000 0.07549160 28375.60042899 0 249.75400200 0 9107.55185190 0 -263.63316116 0 2183.03063357 0 6183
0.07650000 0.07648840 27435.67077513 0 1045.50869993 0 9326.62887076 0 288.86588219 0 1847.43954064 0 6330
0.07750000 0.07749960 27321.07221326 0 1058.10789834 0 8830.19011520 0 -66.75305331 0 2050.27345899 0 6583
0.07850000 0.07848650 25807.59613380 0 931.21351976 0 9784.44735737 0 -220.26286485 0 1305.67068726 0 6549
0.07950000 0.07947320 25325.50711119 0 903.17839332 0 9179.36695068 0 -51.53657876 0 -285.53311242 0 6828
0.08050000 0.08048110 24681.20853000 0 793.91115584 0 10947.29612679 0 -1169.54752594 0 1029.54019308 0 7147
0.08150000 0.08149960 24020.85507781 0 1084.60064994 0 10541.18539710 0 -663.43488018 0 -316.39278893 0 7386
0.08250000 0.08250610 23525.58998867 0 594.43215191 0 11094.02657529 0 136.72328133 0 982.62010943 0 7227
0.08350000 0.08350160 23440.00091783 0 -291.46344960 0 10657.07942097 0 899.00301963 0 -612.87643059 0 7798
0.08450000 0.08449610 23813.47043396 0 -269.67754328 0 10816.93057438 0 1270.54927294 0 -937.15050033 0 7371
0.08550000 0.08548940 22973.41314997 0 304.11136624 0 9042.73446241 0 1579.31212283 0 168.61932743 0 8256
0.08650000 0.08650700 22838.77368017 0 924.23684789 0 7909.61488512 0 1925.51050294 0 -1176.10234224 0 8037
0.08750000 0.08749060 22128.04115006 0 460.62421371 0 6555.24811331 0 1670.26019889 0 153.45577859 0 8155
0.08850000 0.08849210 21279.12600622 0 596.25797827 0 5766.24531905 0 737.39800997 0 -1582.64489260 0 8718
0.08950000 0.08949900 20753.85491682 0 723.10474586 0 5971.85839094 0 -1001.59585970 0 -1511.60485657 0 8571
0.09050000 0.09049190 19775.72574234 0 929.52166853 0 6324.39014084 0 181.95594267 0 -1011.40815395 0 8932
0.09150000 0.09150830 19336.26517029 0 414.15920261 0 5978.04782051 0 -98.21340344 0 -97.33702893 0 9285
0.09250000 0.09250820 19462.26822673 0 -253.34475694 0 6491.07291866 0 267.29810068 0 -709.61201084 0 9204
0.09350000 0.09350330 19886.00609754 0 -33.01944418 0 7211.25014184 0 86.56188531 0 -1499.32564834 0 9349
0.09450000 0.09448040 19273.81725831 0 761.62425667 0 7421.82361524 0 325.31929719 0 -522.54176133 0 9564
0.09550000 0.09549270 18912.97019247 0 752.09319947 0 7129.71354187 0 554.43780743 0 625.06484575 0 10155
0.09650000 0.09649430 18402.53601833 0 -70.16487948 0 6415.31607225 0 878.75173753 0 685.10009815 0 9913
0.09750000 0.09749140 18130.26755104 0 459.53801865 0 6623.36505559 0 1342.59689053 0 1359.55969216 0 10476
0.09850000 0.09850240 17905.83152697 0 369.11255632 0 6319.99442788 0 475.18764254 0 1190.39671358 0 10575
0.09950000 0.09950330 17426.62130882 0 88.89382764 0 6191.61082161 0 852.38631768 0 1872.86159842 0 10882
0.10050000 0.10051200 17478.55051222 0 231.66182325 0 5152.19632926 0 308.97986746 0 1115.59208710 0 10875
0.10150000 0.10150300 17026.68893637 0 516.98677597 0 5616.74678935 0 -139.79142253 0 803.40235268 0 11118
0.10250000 0.10250800 16875.55170260 0 326.34016554 0 5030.72185368 0 -969.52819256 0 114.58527508 0 11575
0.10350000 0.10349800 16755.41697831 0 -167.27846890 0 5891.84977180 0 -482.18092290 0 86.05931248 0 11364
0.10450000 0.10450100 16809.89281642 0 30.34082736 0 5512.43441724 0 -142.19411702 0 -1477.59067472 0 12093
0.10550000 0.10551000 16767.04291937 0 187.09460862 0 5929.77248430 0 -88.95018577 0 -921.00262181 0 12067
0.10650000 0.10649700 16287.61125473 0 592.56867964 0 5615.48454432 0 443.62155172 0 -1374.05336534 0 12054
0.10750000 0.10749900 16081.44456660 0 320.44858151 0 5420.82200169 0 682.64536374 0 -414.99405590 0 12807
0.10850000 0.10850100 15792.01399584 0 177.05754617 0 5309.50084796 0 1181.63850465 0 -556.06322472 0 12736
0.10950000 0.10950300 15523.62084224 0 385.29586627 0 5119.79870684 0 546.78018759 0 -152.56334921 0 12933
0.11050000 0.11050200 15256.77781411 0 469.73009364 0 5049.20156380 0 213.34819800 0 351.90616355 0 13428
0.11150000 0.11150900 14968.78664558 0 139.92871936 0 4994.23854340 0 -19.53368472 0 346.10205088 0 13453
0.11250000 0.11250000 14695.41094580 0 90.76947946 0 4619.67286711 0 131.47721383 0 422.98163102 0 13668
0.11350000 0.11349100 14962.14325068 0 -23.96106452 0 4811.03585695 0 -399.99659193 0 -354.60559634 0 13791
0.11450000 0.11448600 14566.19691517 0 363.74690771 0 5131.19212908 0 -323.15687216 0 -1023.42273361 0 14205
0.11550000 0.11549300 14516.48217673 0 483.22725760 0 4944.91133633 0 -918.57446098 0 -1306.10250793 0 14776
0.11650000 0.11649800 14148.77026951 0 281.15179349 0 5114.28468908 0 -7.15546777 0 -774.58219841 0 14553
0.11750000 0.11747300 14197.26705221 0 -343.49562562 0 5038.35068548 0 241.92143943 0 -704.91734511 0 14568
0.11850000 0.11849100 14615.02586762 0 -188.61373159 0 5139.93926569 0 723.81116018 0 -1360.58941836 0 16015
0.11950000 0.11950300 14538.29465663 0 204.48258752 0 4674.33693474 0 624.83897033 0 -1083.38490867 0 15270
0.12050000 0.12050700 14281.30599759 0 382.59643348 0 4460.70749969 0 341.29112574 0 -769.93625091 0 15999
0.12150000 0.12150000 13782.94065750 0 254.40437843 0 3913.10353113 0 168.54625009 0 -668.80274325 0 15670
0.12250000 0.12250700 13987.22505040 0 72.82135165 0 3996.44492004 0 544.10843561 0 -630.82356189 0 16887
0.12350000 0.12352200 13798.10974250 0 -126.59653305 0 3606.17868716 0 774.91990432 0 -431.36780984 0 16407
0.12450000 0.12449800 13635.90018391 0 46.47652632 0 3387.43383804 0 437.69785794 0 -935.45311293 0 16306
0.12550000 0.12549900 13755.03839896 0 290.05062095 0 3198.40710874 0 225.21219404 0 -585.11589781 0 17523
0.12650000 0.12650100 13299.74440241 0 434.13478381 0 3494.90182273 0 -275.73521219 0 -313.75093222 0 17154
0.12750000 0.12750600 13146.94631992 0 102.31370676 0 3700.22701417 0 -374.80040958 0 -198.79362703 0 18007
0.12850000 0.12850300 13240.72891113 0 168.88506323 0 4028.79825316 0 -286.65473893 0 537.21369895 0 17496
0.12950000 0.12949900 12986.50833329 0 234.31696674 0 4512.60348611 0 -324.44569077 0 143.59808781 0 18405
0.13050000 0.13049000 12874.78857587 0 133.94744949 0 4569.52630801 0 153.69604804 0 624.21781291 0 18100
0.13150000 0.13148800 12930.03947672 0 84.33003679 0 4680.58172594 0 33.39391021 0 260.01583265 0 19059
0.13250000 0.13249300 12700.28873673 0 210.96211200 0 4717.99511150 0 448.82443715 0 874.52210945 0 18957
0.13350000 0.13349100 12661.53559987 0 87.14960431 0 4014.83605157 0 754.77048761 0 871.75181378 0 19468
0.13450000 0.13450700 12576.72159176 0 -19.49836401 0 4024.32503394 0 909.09433647 0 628.00897692 0 19953
0.13550000 0.13551000 12345.97434254 0 215.79518179 0 3319.31689576 0 430.21185913 0 194.96481710 0 19956
0.13650000 0.13649900 12009.92928429 0 402.21437859 0 3303.76027939 0 -33.29603086 0 141.20757288 0 19723
0.13750000 0.13749600 11901.42050107 0 261.87155429 0 3294.04985052 0 -138.69858407 0 293.88496703 0 20946
0.13850000 0.13851100 11518.09661585 0 115.57292646 0 3471.82709781 0 -88.54671025 0 -361.31985411 0 20955
0.13950000 0.13949800 11459.74546405 0 241.82732467 0 3259.55955871 0 -254.57378500 0 -163.24371373 0 20506
0.14050000 0.14048300 11421.65666667 0 325.98917285 0 3306.83838569 0 143.55490574 0 -392.10645327 0 21447
0.14150000 0.14148400 11074.65000686 0 220.40901954 0 3033.47375824 0 144.68649734 0 374.05967105 0 21771
0.14250000 0.14249400 10945.11487880 0 -18.37861980 0 2958.06015390 0 561.61710285 0 33.02996289 0 22470
0.14350000 0.14350900 10838.32230593 0 224.41830835 0 2827.67245684 0 436.41014656 0 -16.86403648 0 22519
0.14450000 0.14449900 10690.62856517 0 212.29632714 0 2730.31350471 0 337.36487936 0 638.04825384 0 22218
0.14550000 0.14550500 10467.35513521 0 16.52201237 0 2384.91233199 0 316.63527284 0 806.85027463 0 23559
0.14650000 0.14650700 10556.97453229 0 -30.08007411 0 2329.21853815 0 205.36615904 0 702.66080532 0 23044
0.14750000 0.14750500 10698.12452908 0 61.54784269 0 2629.07923889 0 -26.39343284 0 355.22564653 0 23649
0.14850000 0.14849900 10526.82459181 0 177.89461393 0 2568.20359704 0 -283.21678207 0 567.34370924 0 23640
0.14950000 0.14949500 10375.80915360 0 162.33467586 0 2613.35653765 0 75.17665659 0 473.02743197 0 24457
0.15050000 0.15050000 10258.98505444 0 67.62189864 0 2500.48525844 0 67.10758915 0 422.41804969 0 24591
0.15150000 0.15149900 10228.95690953 0 50.91597496 0 2652.96224352 0 395.19452466 0 319.94921966 0 25020
0.15250000 0.15250500 10155.69133621 0 255.57472316 0 2473.61272611 0 137.16617432 0 140.44026077 0 25297
0.15350000 0.15350100 9928.18827816 0 190.97324401 0 2629.00173261 0 -158.83582122 0 482.09345153 0 25452
0.15450000 0.15450400 9907.87056212 0 256.97537225 0 2589.16350792 0 -186.44909209 0 336.08381138 0 26061
0.15550000 0.15549900 9533.49311535 0 294.83386527 0 2725.26452459 0 -319.59379803 0 783.22525516 0 26128
0.15650000 0.15649500 9520.27275952 0 169.19619555 0 2843.06298833 0 65.77492414 0 656.51689163 0 26331
0.15750000 0.15749700 9321.69061389 0 35.52035019 0 2762.17965553 0 259.18208659 0 657.41928611 0 27345
0.15850000 0.15849900 9366.97642240 0 22.75263099 0 2768.80090577 0 343.45465801 0 182.76975855 0 26980
0.15950000 0.15949700 9227.04438135 0 33.99281226 0 2429.64452425 0 269.48377760 0 243.08624800 0 27777
0.16050000 0.16050000 9323.48433052 0 147.79006998 0 2376.46414815 0 287.90923333 0 83.36663381 0 28224
0.16150000 0.16150500 9050.99441673 0 218.82235539 0 2199.82735032 0 -233.01264688 0 416.10350285 0 28075
0.16250000 0.16249700 9101.91603857 0 107.59996680 0 2447.03914654 0 -7.24942752 0 468.82548470 0 28590
0.16350000 0.16349900 8881.15602634 0 118.77725726 0 2538.43011560 0 -69.86714467 0 699.79750212 0 29163
0.16450000 0.16449100 8772.27078407 0 249.88244097 0 2504.92526070 0 167.22975067 0 669.01754635 0 28996
0.16550000 0.16550500 8706.60082557 0 189.08984156 0 2518.80995602 0 217.77159177 0 710.49668959 0 30777
0.16650000 0.16650700 8609.58511551 0 25.95186853 0 2326.97085621 0 -31.49135263 0 577.07406829 0 29211
0.16750000 0.16749900 8412.45344444 0 53.35088991 0 2315.32277050 0 60.79857847 0 421.99287242 0 30922
0.16850000 0.16850800 8482.37517567 0 104.87307465 0 2305.88914976 0 -43.22591320 0 203.54365437 0 30867
0.16950000 0.16949900 8384.30759475 0 -13.44567764 0 2271.08883285 0 -91.53989182 0 122.90944888 0 30852
0.17050000 0.17049200 8356.11745576 0 24.62651125 0 2313.32975203 0 142.01917429 0 -76.13385907 0 31257
0.17150000 0.17149500 8444.36388456 0 73.20423265 0 2235.88991225 0 -18.13823962 0 33.04059232 0 32608
0.17250000 0.17250900 8369.09422045 0 37.14543530 0 2329.56178022 0 63.31919322 0 338.87182277 0 32361
0.17350000 0.17350400 8383.66539991 0 147.44461345 0 2485.42689669 0 -63.66442830 0 466.18473523 0 32508
0.17450000 0.17449800 8301.48660510 0 168.53517776 0 2438.04841879 0 39.75617877 0 456.24621648 0 32791
0.17550000 0.17549800 8225.02112991 0 131.18601168 0 2676.71238026 0 -79.69106486 0 750.09132314 0 33633
0.17650000 0.17650100 8199.70979537 0 -6.07180827 0 2652.40862728 0 17.25389304 0 555.93478575 0 33984
0.17750000 0.17750300 8135.99963837 0 77.91783204 0 2710.15080121 0 159.72271444 0 584.60657087 0 34069
0.17850000 0.17849800 8027.18083005 0 182.40990799 0 2616.89968159 0 194.35141031 0 322.52242794 0 34536
