### header ###
fiducial parameters:
Omega_m = 0.31
Omega_nu = 0
Omega_de = 0.69
Omega_k = 0
H_0 = 100
w_de = -1
zeff = 0
beta = 0
fgrowth = 0
b_1 = 2
gamma = 0.55
Lx = 3500 Ly = 3500 Lz = 3500
nx = 700 ny = 700 nz = 700
xoffset = -685.467585 yoffset = -31.7331281 zoffset = 572.489161
bins = 400 dk = 0.001
kx_ny = 0.628318531 ky_ny = 0.628318531 kz_ny = 0.628318531
############################
A(data) = 8.01367046 (not used)
A(ran) = 8.01182504 (used)
Ngal = 475868
weighted Ngal = 0
Nran = 23820508
weighted Nran = 0
SN(data) = 3490.27155
SN(ran) = 69.7859017
SN(data+ran) = 3560.05745
############################
13 columns: k_central k_mean P_0(k) sigma^{lin}_{P_0(k)} P^img_1(k) sigma^{lin}_{P_1(k)} P_2(k) sigma^{lin}_{P_2(k)} P^img_3(k) sigma^{lin}_{P_3(k)} P_4(k) sigma^{lin}_{P_4(k)} N_modes
### header ###
0.00050000 0 0 0 0 0 0 0 0 0 0 0 0
0.00150000 0.00179520 14238.01320755 0 -25692.00106269 0 -2993.61338889 0 -46515.16873288 0 28172.20182207 0 3
0.00250000 0.00253879 21829.64199620 0 -17904.61357124 0 -10021.42832546 0 -13109.30041553 0 11733.45333357 0 6
0.00350000 0.00331552 30707.98565203 0 -5299.95650397 0 -6421.63836972 0 -22647.22246081 0 -26175.19731778 0 7
0.00450000 0.00420575 30725.92281824 0 7953.99276300 0 364.85081849 0 -20530.74757173 0 23776.15669932 0 24
0.00550000 0.00557378 28413.68922636 0 -7989.06988802 0 -17368.27015702 0 21467.35552814 0 20535.84084114 0 45
0.00650000 0.00659388 43957.46169977 0 -31010.81373582 0 -15322.21525379 0 -492.00318225 0 -3494.86860576 0 40
0.00750000 0.00754703 67692.87224376 0 -28187.70307681 0 -22133.79875897 0 1608.67592825 0 -26560.84639121 0 57
0.00850000 0.00846663 96586.87892075 0 -5697.20937381 0 -4655.99009251 0 -30873.51690807 0 6517.39183475 0 75
0.00950000 0.00948925 77475.49266753 0 11559.95000366 0 -8843.39939870 0 -29905.90644217 0 5291.65226035 0 112
0.01050000 0.01054430 87348.57398507 0 4950.90146406 0 38079.60734654 0 -14421.81379954 0 34661.02705879 0 105
0.01150000 0.01145670 79179.74490361 0 -5617.04574212 0 22992.56827190 0 22091.28103167 0 -5036.91128325 0 144
0.01250000 0.01249090 95801.18675162 0 -7921.83873172 0 41292.68528567 0 10093.69738955 0 -29214.32903400 0 169
0.01350000 0.01339930 88621.44844622 0 4302.43968873 0 8585.87926807 0 7496.73896496 0 -28497.72817174 0 180
0.01450000 0.01448870 94055.08112772 0 -1496.79008596 0 30196.66569191 0 -2503.07618245 0 1796.09717046 0 267
0.01550000 0.01550050 92001.16487386 0 -8028.83060645 0 4121.76149234 0 19015.05702730 0 25861.40763242 0 238
0.01650000 0.01653350 100523.31184028 0 -11591.39540614 0 3062.94828691 0 21075.39522956 0 -11333.74240761 0 315
0.01750000 0.01747870 107593.87702297 0 -7407.13064020 0 -17911.36768938 0 2033.26636807 0 -17816.92075868 0 297
0.01850000 0.01844180 107189.51572059 0 9073.55981471 0 -15782.49179650 0 -90.80878621 0 -13962.97665905 0 388
0.01950000 0.01947590 90589.22201299 0 20202.23169436 0 -6519.46235949 0 -25506.87179172 0 1542.92846348 0 399
0.02050000 0.02045430 78114.80870256 0 14063.18119866 0 9245.90055051 0 -18601.17352558 0 -1668.32254205 0 462
0.02150000 0.02154770 71344.41424570 0 4795.05849224 0 25149.34642333 0 -5797.19246692 0 -664.96950440 0 571
0.02250000 0.02255340 69849.87184168 0 3530.28897285 0 30239.29414246 0 -1818.18645847 0 -9224.89635033 0 510
0.02350000 0.02348930 69347.40974141 0 -2091.16355455 0 24897.67248020 0 4042.35077874 0 -5808.74090171 0 555
0.02450000 0.02439640 65141.03354280 0 2872.41572143 0 28095.80278082 0 2217.98596302 0 576.94341486 0 592
0.02550000 0.02547300 67356.49501577 0 2287.08834221 0 22201.11849387 0 8109.40391415 0 -11887.24792530 0 837
0.02650000 0.02652900 62099.79808487 0 -1415.79602991 0 16232.69252362 0 10483.67574199 0 -11263.10097527 0 723
0.02750000 0.02749970 65590.34848395 0 -2051.73500587 0 11547.32755337 0 6882.29137147 0 -10902.27605408 0 826
0.02850000 0.02848090 59637.31304520 0 4950.30355852 0 1508.75926909 0 1530.40566411 0 -10337.49890973 0 831
0.02950000 0.02946900 60522.76686095 0 5356.93468748 0 212.33729474 0 1071.31164569 0 -4133.24349318 0 996
0.03050000 0.03053250 54700.49557831 0 -881.66375896 0 3084.53932030 0 2320.57105247 0 3473.58759746 0 1041
0.03150000 0.03150510 55927.53061471 0 -597.84464242 0 3922.41535630 0 2016.46965132 0 -4662.11308814 0 1036
0.03250000 0.03246190 52386.82258421 0 4247.00055836 0 9732.86139604 0 1461.36971886 0 -4445.40554679 0 1059
0.03350000 0.03345080 50133.71520686 0 2857.40164897 0 6881.71561058 0 -307.41756243 0 -2155.77056987 0 1302
0.03450000 0.03451200 46859.73948123 0 376.54208627 0 5452.23418720 0 -2187.60350372 0 -1295.27377426 0 1339
0.03550000 0.03553350 47597.26703740 0 1195.35711510 0 7362.99635348 0 -3123.38103577 0 -1847.89350596 0 1365
0.03650000 0.03647120 46479.40512371 0 644.86326976 0 8642.75780067 0 -2595.13149099 0 -3957.08280531 0 1308
0.03750000 0.03744890 44343.33221970 0 2860.51297225 0 7576.93581362 0 -3819.15485505 0 -3366.48499949 0 1579
0.03850000 0.03847530 44834.16837891 0 2592.98345998 0 7661.15191619 0 -3872.26879720 0 66.35577830 0 1662
0.03950000 0.03950240 44208.69274991 0 1689.57033338 0 12985.95471705 0 -3038.51166603 0 -2065.70827979 0 1683
0.04050000 0.04050350 42074.61286436 0 1052.54073342 0 11139.53383030 0 727.16607460 0 2332.18592120 0 1822
0.04150000 0.04152450 42395.26739111 0 -630.41388587 0 18766.15116538 0 1520.49593340 0 -2322.28726281 0 1887
0.04250000 0.04250150 42527.80311919 0 -430.25614843 0 16252.17981531 0 1122.72266429 0 3050.07117314 0 1920
0.04350000 0.04349210 44661.44011174 0 -2381.20310317 0 17770.52771769 0 5271.88816055 0 -2948.93655825 0 2005
0.04450000 0.04448520 45296.32721684 0 -704.80994356 0 14480.82929082 0 1396.81806517 0 411.45423366 0 2151
0.04550000 0.04548030 45572.24955132 0 -224.51574481 0 13383.56190129 0 2258.66568441 0 -5470.42601687 0 2274
0.04650000 0.04648670 43670.35631722 0 2361.22862920 0 12009.04349830 0 -914.64821460 0 -616.12062177 0 2311
0.04750000 0.04749250 43241.74662349 0 2005.77378555 0 14067.38868209 0 -71.26823665 0 -1144.53514418 0 2568
0.04850000 0.04851840 41179.08323303 0 2150.62193882 0 10838.23372733 0 2229.16901109 0 2143.56886792 0 2493
0.04950000 0.04949480 40013.72104587 0 2123.32865815 0 9868.91812341 0 2156.72278980 0 -996.27892932 0 2644
0.05050000 0.05050630 40026.34349616 0 -807.84346216 0 9241.11730619 0 4133.13276993 0 -940.66264176 0 2829
0.05150000 0.05149060 39264.12465564 0 -899.62749875 0 8998.96556241 0 2068.77531377 0 -2871.72923729 0 2784
0.05250000 0.05249300 39381.82346846 0 90.72264353 0 8151.60054403 0 1487.72185193 0 -1181.98174672 0 3055
0.05350000 0.05348950 39253.71667031 0 650.91650974 0 7499.08629782 0 696.23110629 0 2580.78175803 0 3009
0.05450000 0.05448610 38485.07588140 0 1678.17691114 0 9200.68117595 0 -432.90354129 0 -2202.06395993 0 3336
0.05550000 0.05550870 36071.41979419 0 2437.60552580 0 10134.08923049 0 -2541.12069053 0 1845.49081147 0 3349
0.05650000 0.05647670 35384.49276244 0 1561.76248799 0 11239.95981640 0 -602.06762711 0 2103.03308675 0 3324
0.05750000 0.05747970 34156.46121680 0 752.72210752 0 13096.45651874 0 -2543.82233778 0 3144.15271713 0 3639
0.05850000 0.05849280 34715.94578989 0 369.55877101 0 13767.32867950 0 -400.60335533 0 756.58191995 0 3846
0.05950000 0.05951020 33190.73304612 0 1262.28931862 0 13772.64339542 0 368.68516458 0 782.51219744 0 3787
0.06050000 0.06049470 33653.88839328 0 1056.45369301 0 13544.22133441 0 379.14297537 0 3310.83549495 0 3930
0.06150000 0.06148310 32240.83829993 0 -655.53588366 0 12636.17997603 0 2181.84589481 0 1150.06023426 0 4083
0.06250000 0.06249100 33608.49186153 0 -795.11582478 0 11699.35057313 0 1512.08096653 0 1103.06042987 0 4303
0.06350000 0.06350600 34169.74800658 0 -100.55265350 0 12088.98568349 0 306.11545703 0 1297.34429900 0 4470
0.06450000 0.06451750 33749.99617271 0 786.44287275 0 12049.45748389 0 499.72169988 0 543.24922320 0 4479
0.06550000 0.06550280 33118.09859531 0 1553.83470342 0 11966.96866399 0 -443.95593593 0 2694.67169111 0 4636
0.06650000 0.06648880 31817.21115237 0 1434.71863303 0 12150.87997923 0 -705.81531066 0 656.78041297 0 4653
0.06750000 0.06749660 31297.14405563 0 743.18108522 0 12412.51901470 0 1001.83612915 0 2422.94576774 0 5220
0.06850000 0.06852730 30334.84830565 0 195.56493711 0 11017.10713478 0 2257.66917517 0 118.49048405 0 5029
0.06950000 0.06949320 29190.19136589 0 441.15353052 0 10315.75286379 0 3168.41218080 0 3413.86347738 0 5040
0.07050000 0.07048030 30206.63078425 0 -574.90721433 0 7904.37767548 0 2899.21074749 0 -947.68692462 0 5475
0.07150000 0.07148790 29885.20119476 0 -266.61604547 0 7052.72766741 0 664.24205266 0 -121.62284474 0 5509
0.07250000 0.07249820 29132.72600008 0 925.35293823 0 8165.67346888 0 -735.18686670 0 -1985.82145622 0 5916
0.07350000 0.07351270 28397.96652512 0 2034.79434890 0 7279.99820664 0 -3057.42319682 0 -1485.13092793 0 5721
0.07450000 0.07449140 27239.91207234 0 1333.98262183 0 8962.51546910 0 -2654.19127158 0 -1514.42829940 0 6028
0.07550000 0.07549160 26711.65145524 0 757.90506277 0 10226.39920250 0 -1196.73008337 0 -2607.98646011 0 6183
0.07650000 0.07648840 25810.36421500 0 394.52575624 0 8896.08152019 0 394.19026480 0 -4092.76307364 0 6330
0.07750000 0.07749960 26124.92896310 0 298.98820154 0 10600.26732233 0 955.14745709 0 -3424.73650036 0 6583
0.07850000 0.07848650 25679.93222864 0 -611.10153693 0 8900.18935270 0 1245.93549487 0 -2020.57748383 0 6549
0.07950000 0.07947320 26068.46010652 0 -73.35758434 0 8907.07633874 0 2821.18407449 0 -3836.11765667 0 6828
0.08050000 0.08048110 25878.90190563 0 441.28529118 0 8515.39284828 0 1038.31722496 0 -1426.54725731 0 7147
0.08150000 0.08149960 24720.73672960 0 1346.15110680 0 7909.50416188 0 1427.42197097 0 -1165.07430672 0 7386
0.08250000 0.08250610 23746.37214556 0 1039.89613848 0 8279.49696802 0 1179.85586035 0 612.38149767 0 7227
0.08350000 0.08350160 23103.07007359 0 371.88728092 0 7803.04375874 0 75.61644933 0 1805.78545467 0 7798
0.08450000 0.08449610 23057.34137209 0 1.77543621 0 8136.35395276 0 -236.61558137 0 1198.05876235 0 7371
0.08550000 0.08548940 23160.97833240 0 48.48283158 0 8329.97569686 0 732.99454639 0 2360.95182108 0 8256
0.08650000 0.08650700 23131.96884137 0 129.03687344 0 7861.20668102 0 -348.02974263 0 1359.81435563 0 8037
0.08750000 0.08749060 22681.98956074 0 736.53104694 0 7805.42430858 0 383.83874833 0 1971.46065093 0 8155
0.08850000 0.08849210 22243.85766767 0 429.89297618 0 7532.31434460 0 302.80372468 0 1615.15323827 0 8718
0.08950000 0.08949900 21680.16561115 0 729.05501322 0 8475.49926195 0 410.03033268 0 1982.64369900 0 8571
0.09050000 0.09049190 21443.66075302 0 768.48356190 0 8639.09286115 0 -38.42174218 0 2075.93910792 0 8932
0.09150000 0.09150830 20589.54161651 0 783.21418284 0 8742.25371149 0 -225.02064282 0 3038.36772581 0 9285
0.09250000 0.09250820 20278.40928911 0 439.50153965 0 9098.00750791 0 125.07408838 0 3444.12414111 0 9204
0.09350000 0.09350330 19950.33630473 0 -33.02055141 0 9227.50941899 0 665.37585872 0 2086.83427554 0 9349
0.09450000 0.09448040 19838.39510082 0 242.41194342 0 8517.20870955 0 882.91382443 0 2323.44985692 0 9564
0.09550000 0.09549270 19770.41102643 0 134.73469179 0 8139.05560002 0 1226.18246739 0 1593.60649417 0 10155
0.09650000 0.09649430 19283.33945766 0 625.00616243 0 7391.18649246 0 125.56791407 0 1630.88701184 0 9913
0.09750000 0.09749140 18617.11767332 0 741.70292986 0 7386.13751235 0 311.13232740 0 748.84347213 0 10476
0.09850000 0.09850240 17807.50928258 0 915.38341696 0 6768.77789743 0 -132.95536919 0 1649.98677215 0 10575
0.09950000 0.09950330 17271.05514512 0 513.00627519 0 6141.24281601 0 -87.28767620 0 388.26103486 0 10882
0.10050000 0.10051200 17036.32185896 0 -342.45261262 0 6421.48335717 0 314.23036389 0 -56.12240353 0 10875
0.10150000 0.10150300 17152.02765332 0 -156.23493212 0 6632.23398777 0 -421.56326622 0 -755.75924622 0 11118
0.10250000 0.10250800 17347.67563286 0 65.26936179 0 6790.87825777 0 -180.66380237 0 -919.06607220 0 11575
0.10350000 0.10349800 17316.89456987 0 142.02138875 0 6938.56092620 0 305.69470869 0 -242.42080128 0 11364
0.10450000 0.10450100 17017.72035327 0 772.53714001 0 6703.84978470 0 521.38138169 0 -186.12024404 0 12093
0.10550000 0.10551000 16603.94757479 0 646.74667221 0 7101.24659476 0 711.00380207 0 633.17753815 0 12067
0.10650000 0.10649700 15974.15373911 0 213.22640243 0 6050.42760785 0 1293.71257646 0 124.84710573 0 12054
0.10750000 0.10749900 15859.55517724 0 72.94048987 0 6498.10384492 0 999.54747961 0 816.84415501 0 12807
0.10850000 0.10850100 15642.98050378 0 410.40014833 0 5740.28071735 0 -108.40149240 0 1022.40850866 0 12736
0.10950000 0.10950300 15605.55604590 0 184.32652742 0 6121.15761879 0 -104.60335281 0 1352.79450169 0 12933
0.11050000 0.11050200 15187.35433750 0 166.23877759 0 5453.41892595 0 191.60436652 0 1910.83967255 0 13428
0.11150000 0.11150900 15342.14543846 0 20.07489996 0 4926.24339669 0 763.31057174 0 1555.99380676 0 13453
0.11250000 0.11250000 15201.30546677 0 -451.39764544 0 4969.80192252 0 1234.65279588 0 1285.59656237 0 13668
0.11350000 0.11349100 15369.93697376 0 -119.85680893 0 4523.01147144 0 830.98462103 0 494.88863009 0 13791
0.11450000 0.11448600 15548.97646607 0 98.08363579 0 4490.76886157 0 333.31019402 0 588.85723637 0 14205
0.11550000 0.11549300 15103.75828512 0 466.52022668 0 4011.41470320 0 -21.86042306 0 498.59232275 0 14776
0.11650000 0.11649800 14760.84838548 0 511.03318691 0 3757.92489880 0 -112.66865566 0 415.43362720 0 14553
0.11750000 0.11747300 14488.24774845 0 377.20864022 0 3611.57090935 0 148.98809553 0 500.21995449 0 14568
0.11850000 0.11849100 14252.29650656 0 60.35092438 0 3467.48674648 0 139.63640999 0 572.36943748 0 16015
0.11950000 0.11950300 14184.86604842 0 52.15064990 0 3336.16897413 0 582.98115358 0 -190.55581736 0 15270
0.12050000 0.12050700 14127.95429885 0 162.24166834 0 3119.56108370 0 223.00547971 0 -86.42636005 0 15999
0.12150000 0.12150000 13986.89288066 0 232.97610821 0 3032.05650066 0 -461.20772523 0 -335.48701308 0 15670
0.12250000 0.12250700 13642.87574854 0 250.14042614 0 2727.27968770 0 7.65350094 0 -47.99697796 0 16887
0.12350000 0.12352200 13611.76251580 0 120.65844525 0 3572.81777248 0 -160.95838589 0 -288.13953769 0 16407
0.12450000 0.12449800 13457.63575433 0 307.89477963 0 3334.70742726 0 -261.92580868 0 -152.37622692 0 16306
0.12550000 0.12549900 13201.97577426 0 116.61372499 0 3359.52050717 0 -88.34142935 0 -681.10188166 0 17523
0.12650000 0.12650100 13137.75629032 0 151.00325864 0 3519.30522663 0 -6.85116707 0 -728.13047410 0 17154
0.12750000 0.12750600 13056.15325640 0 110.52151043 0 3613.27604737 0 -281.91910560 0 -640.19849932 0 18007
0.12850000 0.12850300 13049.06696852 0 64.33607553 0 3619.93051458 0 224.58550046 0 -180.87306931 0 17496
0.12950000 0.12949900 13118.15827539 0 65.88974415 0 3548.79082762 0 303.65850815 0 -250.18028651 0 18405
0.13050000 0.13049000 13065.67545575 0 86.82673532 0 3622.56572789 0 252.78117561 0 -195.40106670 0 18100
0.13150000 0.13148800 12955.06293081 0 165.31423847 0 3404.25269944 0 206.91407005 0 -220.78547858 0 19059
0.13250000 0.13249300 12789.31022827 0 306.78643991 0 3637.93411474 0 151.54801703 0 548.32145520 0 18957
0.13350000 0.13349100 12351.17833520 0 364.51421982 0 3502.85175195 0 79.96576924 0 -76.44333055 0 19468
0.13450000 0.13450700 12212.55282847 0 304.32616934 0 3816.78537753 0 310.88098563 0 197.37526222 0 19953
0.13550000 0.13551000 11804.31621241 0 168.29712278 0 3665.48205889 0 20.83080757 0 356.70490913 0 19956
0.13650000 0.13649900 11869.64292884 0 46.23991074 0 3494.07139837 0 154.59069189 0 -75.60072663 0 19723
0.13750000 0.13749600 11795.34762930 0 95.13485424 0 3436.31815212 0 -86.88287200 0 230.76385771 0 20946
0.13850000 0.13851100 11783.94313474 0 247.23061918 0 3656.65741601 0 -341.70080176 0 144.41301091 0 20955
0.13950000 0.13949800 11459.96691055 0 294.86043885 0 3532.56987177 0 253.71678706 0 576.18385338 0 20506
0.14050000 0.14048300 11365.85214959 0 149.47638505 0 3408.63734007 0 545.51240640 0 -25.54529276 0 21447
0.14150000 0.14148400 11156.91738026 0 1.97815941 0 3137.94114290 0 719.08659918 0 -82.61504440 0 21771
0.14250000 0.14249400 11084.72582244 0 130.13414083 0 2975.02295552 0 193.92401857 0 -189.10202111 0 22470
0.14350000 0.14350900 10837.56938784 0 349.81460139 0 2768.24728953 0 117.31903208 0 -132.39621679 0 22519
0.14450000 0.14449900 10696.46368035 0 349.99729475 0 2898.69034822 0 -314.44738145 0 406.29895922 0 22218
0.14550000 0.14550500 10306.08672422 0 313.34236344 0 2797.36750381 0 -4.97787365 0 414.60652453 0 23559
0.14650000 0.14650700 10294.74866361 0 66.86654464 0 3207.10995605 0 2.78116869 0 132.02086498 0 23044
0.14750000 0.14750500 10348.71517477 0 -99.63918670 0 3267.88594698 0 44.40544796 0 -66.32444362 0 23649
0.14850000 0.14849900 10316.09610586 0 46.60574035 0 3249.98199774 0 124.50718535 0 440.57887686 0 23640
0.14950000 0.14949500 10303.85011461 0 206.42578052 0 3026.34318106 0 -42.03718841 0 676.77924605 0 24457
0.15050000 0.15050000 10296.24342746 0 147.66384548 0 3101.98930422 0 315.28887814 0 521.69694295 0 24591
0.15150000 0.15149900 10138.04205045 0 -56.61013944 0 3368.51123493 0 240.16869041 0 344.46777574 0 25020
0.15250000 0.15250500 9964.84874564 0 274.81953093 0 3036.35256269 0 121.92179751 0 146.80795477 0 25297
0.15350000 0.15350100 9852.43143175 0 96.07655547 0 3233.17420867 0 -71.03859663 0 376.41254007 0 25452
0.15450000 0.15450400 9838.03740949 0 -46.04747373 0 2989.79343683 0 142.45542388 0 485.28338831 0 26061
0.15550000 0.15549900 9878.01957441 0 212.16567371 0 3161.75771359 0 -30.22379289 0 329.54006741 0 26128
0.15650000 0.15649500 9767.76136386 0 166.38271782 0 3136.56817463 0 -109.07745783 0 318.52864038 0 26331
0.15750000 0.15749700 9461.57836565 0 201.43659096 0 3219.25629637 0 156.94245368 0 606.35593851 0 27345
0.15850000 0.15849900 9337.65690628 0 260.22067066 0 3065.47277697 0 118.15942153 0 382.58979009 0 26980
0.15950000 0.15949700 9305.83504475 0 -76.27658134 0 3101.50212193 0 474.19777671 0 748.61427501 0 27777
0.16050000 0.16050000 9233.73206554 0 87.70731731 0 2958.44768527 0 152.14038640 0 286.80532254 0 28224
0.16150000 0.16150500 9109.33449620 0 282.48711587 0 2666.19367168 0 -28.55751873 0 898.72842597 0 28075
0.16250000 0.16249700 9092.84780454 0 152.59988788 0 2734.41026489 0 45.58919021 0 1065.46324372 0 28590
0.16350000 0.16349900 8963.14659162 0 57.87426676 0 2681.78350503 0 100.43517613 0 1041.42190484 0 29163
0.16450000 0.16449100 8797.84785440 0 112.36305949 0 2582.36510048 0 231.89323484 0 766.55033398 0 28996
0.16550000 0.16550500 8852.68907923 0 6.54654527 0 2483.03527453 0 359.02013224 0 843.98574484 0 30777
0.16650000 0.16650700 8690.30236344 0 175.88387974 0 2437.92662322 0 24.07765610 0 683.79024213 0 29211
0.16750000 0.16749900 8550.02708031 0 211.72388795 0 2610.80990294 0 237.24338219 0 1012.79219456 0 30922
0.16850000 0.16850800 8489.90435654 0 209.49170727 0 2487.29811959 0 119.03967136 0 784.78756019 0 30867
0.16950000 0.16949900 8163.34828067 0 26.63514169 0 2195.96310896 0 283.36958015 0 1169.38144107 0 30852
0.17050000 0.17049200 8261.83660993 0 63.71491811 0 2139.20637194 0 138.17154141 0 742.41266588 0 31257
0.17150000 0.17149500 8278.52260343 0 -14.76793467 0 2093.40016416 0 -60.16546294 0 915.03020980 0 32608
0.17250000 0.17250900 8240.64418023 0 12.07580962 0 2117.79249574 0 -30.17252802 0 485.34539333 0 32361
0.17350000 0.17350400 8240.82133742 0 60.92712816 0 2054.84632914 0 -210.76281016 0 639.58841422 0 32508
0.17450000 0.17449800 8242.17216105 0 50.60174238 0 2194.96659972 0 -76.16940123 0 246.75008028 0 32791
0.17550000 0.17549800 8115.47154815 0 132.34196239 0 2302.60066929 0 -121.83986230 0 319.37788770 0 33633
0.17650000 0.17650100 8163.65830576 0 71.22095782 0 2212.64910246 0 198.21897337 0 212.23100043 0 33984
0.17750000 0.17750300 7933.34287721 0 150.98886462 0 2147.39989230 0 288.26022603 0 342.40832332 0 34069
0.17850000 0.17849800 7964.52254390 0 81.32666869 0 1945.28567506 0 433.68081850 0 512.78593593 0 34536
