### header ###
fiducial parameters:
Omega_m = 0.31
Omega_nu = 0
Omega_de = 0.69
Omega_k = 0
H_0 = 100
w_de = -1
zeff = 0
beta = 0
fgrowth = 0
b_1 = 2
gamma = 0.55
Lx = 3500 Ly = 3500 Lz = 3500
nx = 700 ny = 700 nz = 700
xoffset = -685.467585 yoffset = -31.7331281 zoffset = 572.489161
bins = 400 dk = 0.001
kx_ny = 0.628318531 ky_ny = 0.628318531 kz_ny = 0.628318531
############################
A(data) = 8.0635946 (not used)
A(ran) = 8.05083291 (used)
Ngal = 478248
weighted Ngal = 0
Nran = 23820508
weighted Nran = 0
SN(data) = 3499.44252
SN(ran) = 70.1256744
SN(data+ran) = 3569.5682
############################
13 columns: k_central k_mean P_0(k) sigma^{lin}_{P_0(k)} P^img_1(k) sigma^{lin}_{P_1(k)} P_2(k) sigma^{lin}_{P_2(k)} P^img_3(k) sigma^{lin}_{P_3(k)} P_4(k) sigma^{lin}_{P_4(k)} N_modes
### header ###
0.00050000 0 0 0 0 0 0 0 0 0 0 0 0
0.00150000 0.00179520 36485.08184941 0 -20204.66760582 0 19425.72955483 0 -35172.34701891 0 -112364.16672459 0 3
0.00250000 0.00253879 62624.51555802 0 -21173.82819719 0 -4025.35476014 0 12581.03979844 0 65155.53828832 0 6
0.00350000 0.00331552 61867.72215667 0 -16725.30025481 0 -7867.07501317 0 -46024.55402016 0 -12804.59003652 0 7
0.00450000 0.00420575 67080.90485103 0 -11369.83818652 0 -15231.64363677 0 -6410.42210468 0 43092.04879195 0 24
0.00550000 0.00557378 72053.92882008 0 -12415.95143539 0 549.21056289 0 -8996.96147161 0 -14021.54925734 0 45
0.00650000 0.00659388 112694.12200418 0 -2601.64201799 0 -5561.58446711 0 -14127.51140586 0 6612.52524959 0 40
0.00750000 0.00754703 86926.71840948 0 17353.76541151 0 25190.53547165 0 -9080.50216237 0 47674.88403438 0 57
0.00850000 0.00846663 82932.82012414 0 18783.64543859 0 6509.46405018 0 19091.67751505 0 52044.13413107 0 75
0.00950000 0.00948925 71313.30101296 0 866.03517248 0 29163.17489334 0 20639.92069444 0 33024.42672734 0 112
0.01050000 0.01054430 67498.66366644 0 3114.94392426 0 39779.65209920 0 41754.40123060 0 34118.37241942 0 105
0.01150000 0.01145670 69513.71606018 0 -3358.41327469 0 51470.36625897 0 16131.82364453 0 34671.54576736 0 144
0.01250000 0.01249090 67609.38691463 0 5868.31000923 0 42647.16278073 0 19642.96856777 0 62030.48533150 0 169
0.01350000 0.01339930 73315.73095641 0 -2665.66220009 0 39301.43839028 0 18757.29330552 0 50507.62761599 0 180
0.01450000 0.01448870 84332.25125797 0 -13973.82753737 0 33250.41287689 0 3869.33463112 0 31361.69570933 0 267
0.01550000 0.01550050 89566.69281599 0 2541.00996728 0 39365.21498124 0 3187.61159204 0 19793.22001556 0 238
0.01650000 0.01653350 91722.14228843 0 2004.22366007 0 32173.29711853 0 -428.88428739 0 11174.96526972 0 315
0.01750000 0.01747870 81836.21707410 0 7963.57032396 0 32582.41952058 0 4982.82297651 0 7935.19195545 0 297
0.01850000 0.01844180 80681.48431877 0 5225.25152842 0 26910.84257873 0 8723.92901391 0 -4254.68475179 0 388
0.01950000 0.01947590 77950.16323250 0 1187.00858218 0 23981.76977120 0 23792.54374005 0 7945.01310757 0 399
0.02050000 0.02045430 70356.54142538 0 503.91478929 0 3801.61629253 0 18284.39431252 0 8990.86062064 0 462
0.02150000 0.02154770 74251.23168034 0 -2890.55218948 0 5513.01017813 0 9346.50369381 0 16960.47643395 0 571
0.02250000 0.02255340 77011.11936463 0 4857.59498281 0 3171.88889080 0 -1394.63681718 0 15135.20368760 0 510
0.02350000 0.02348930 70716.61342848 0 8700.52211924 0 12032.40610367 0 -17853.34870733 0 16735.92968663 0 555
0.02450000 0.02439640 67968.24096200 0 5979.79724783 0 23155.88506298 0 -15627.70069553 0 32142.84822528 0 592
0.02550000 0.02547300 64392.98727806 0 1643.80841490 0 33649.68090985 0 -7829.49554274 0 16989.15375523 0 837
0.02650000 0.02652900 64237.08894461 0 1477.63496402 0 39371.30475989 0 4239.13920774 0 12444.07514043 0 723
0.02750000 0.02749970 62709.10811964 0 -1165.67221226 0 38071.30310293 0 8617.02571779 0 4357.93418072 0 826
0.02850000 0.02848090 65541.85170124 0 -3697.55858389 0 35557.22102961 0 7441.59878736 0 -3243.40503680 0 831
0.02950000 0.02946900 64397.30548474 0 3029.70916780 0 35379.06732328 0 3258.55197715 0 -7805.01463256 0 996
0.03050000 0.03053250 62647.65671689 0 4062.33632504 0 28771.98965749 0 -3887.79219660 0 -6378.15735016 0 1041
0.03150000 0.03150510 62055.84095534 0 1034.23153710 0 26816.94926427 0 -2872.03926238 0 466.21573774 0 1036
0.03250000 0.03246190 62407.83016132 0 686.91263773 0 34702.65900010 0 1233.94416709 0 -1671.13491255 0 1059
0.03350000 0.03345080 60195.13676956 0 2305.46840141 0 30801.32535025 0 2369.14534145 0 226.19098756 0 1302
0.03450000 0.03451200 58939.97802812 0 2949.72269331 0 34622.60609167 0 4928.81217605 0 -2391.27891876 0 1339
0.03550000 0.03553350 55623.70602169 0 4430.02608762 0 34381.34013387 0 5798.87546030 0 5585.07994037 0 1365
0.03650000 0.03647120 53384.21760387 0 5147.77847166 0 37857.27506419 0 5338.78714711 0 7839.75958784 0 1308
0.03750000 0.03744890 51319.11830194 0 609.64331175 0 33124.18837396 0 9458.15701728 0 12099.94728506 0 1579
0.03850000 0.03847530 49039.21589854 0 -773.71855707 0 29402.89072566 0 12634.96202030 0 13131.11289543 0 1662
0.03950000 0.03950240 49107.19997292 0 -417.29377777 0 24125.82071709 0 11219.58673873 0 9257.81437202 0 1683
0.04050000 0.04050350 46892.18139295 0 2232.30247901 0 19210.92645334 0 4854.14041747 0 11040.07113645 0 1822
0.04150000 0.04152450 45501.16522599 0 3146.57755626 0 17830.09682521 0 128.28174088 0 9516.93998975 0 1887
0.04250000 0.04250150 41870.10702496 0 2986.59353496 0 16899.46792420 0 -1756.10393321 0 9243.56428997 0 1920
0.04350000 0.04349210 41448.03000287 0 2253.35096849 0 19152.13240856 0 -5060.53962441 0 7990.19926515 0 2005
0.04450000 0.04448520 41136.67622897 0 518.59337030 0 21114.70198266 0 -5247.18580388 0 4728.39202450 0 2151
0.04550000 0.04548030 40184.67774106 0 24.44868971 0 23481.30068940 0 -458.05986328 0 -936.42969198 0 2274
0.04650000 0.04648670 40045.16644835 0 -346.48847501 0 22001.04158439 0 771.31143366 0 -1876.62618886 0 2311
0.04750000 0.04749250 40584.61011351 0 1096.40485542 0 19823.00456932 0 3008.07384511 0 -4302.42861641 0 2568
0.04850000 0.04851840 38103.74501465 0 420.65422835 0 17350.22226757 0 3618.55754631 0 -3049.77222037 0 2493
0.04950000 0.04949480 38453.63047892 0 1086.01347858 0 17641.20296380 0 2521.53374792 0 -5158.14216769 0 2644
0.05050000 0.05050630 37142.22432740 0 1404.64619882 0 16253.06560129 0 896.67561695 0 -1507.10949269 0 2829
0.05150000 0.05149060 36623.37518640 0 1807.32450782 0 17972.48692238 0 1463.28523106 0 448.55537966 0 2784
0.05250000 0.05249300 35189.50912238 0 -492.18144668 0 16760.62097098 0 2559.31252021 0 3952.22205472 0 3055
0.05350000 0.05348950 37219.95204762 0 319.90493036 0 17619.39048391 0 3887.43788220 0 3773.33757495 0 3009
0.05450000 0.05448610 36259.31714636 0 -213.57960959 0 16805.46388649 0 2962.89875985 0 3483.91807651 0 3336
0.05550000 0.05550870 36877.26359449 0 79.55863986 0 16889.39210862 0 1262.54398210 0 5012.08713101 0 3349
0.05650000 0.05647670 36905.38729953 0 158.73506307 0 15066.33382723 0 500.55987487 0 3764.74545089 0 3324
0.05750000 0.05747970 35627.19812246 0 1552.78283257 0 15588.72611217 0 -1599.55233260 0 189.05219565 0 3639
0.05850000 0.05849280 34866.97230041 0 1857.30498205 0 15445.22878252 0 -3348.68070118 0 774.41389907 0 3846
0.05950000 0.05951020 33423.80548355 0 540.81441898 0 15235.96184345 0 -693.17625188 0 -137.71868333 0 3787
0.06050000 0.06049470 33671.93628274 0 155.88393942 0 16021.21111959 0 755.08937056 0 788.78024052 0 3930
0.06150000 0.06148310 33609.04547777 0 -1047.29466592 0 15137.97176881 0 1873.72523976 0 -4174.91972379 0 4083
0.06250000 0.06249100 34779.72238084 0 448.89972896 0 14620.78347653 0 2348.53974496 0 -2744.12069375 0 4303
0.06350000 0.06350600 33416.27630267 0 1899.25802079 0 15371.26565273 0 -1502.94629856 0 -1776.15591346 0 4470
0.06450000 0.06451750 32404.26581425 0 1824.05479062 0 15662.46779546 0 -851.15950409 0 1314.93822314 0 4479
0.06550000 0.06550280 31383.28674272 0 107.41882357 0 17201.52094526 0 303.60978992 0 960.18757934 0 4636
0.06650000 0.06648880 30803.42909197 0 456.56842113 0 16285.50751301 0 501.51763096 0 504.08641032 0 4653
0.06750000 0.06749660 31337.11514823 0 742.96074596 0 17251.90002318 0 638.42028395 0 -1083.80787148 0 5220
0.06850000 0.06852730 30615.08884681 0 290.91315505 0 16346.73746926 0 531.67753654 0 1319.77682908 0 5029
0.06950000 0.06949320 30167.54547764 0 475.72354307 0 16068.60066981 0 2291.98230978 0 685.12667173 0 5040
0.07050000 0.07048030 30080.29555806 0 183.71644232 0 15705.42841576 0 2330.90153152 0 1136.54092566 0 5475
0.07150000 0.07148790 29389.82538237 0 540.36598982 0 14447.72303961 0 3599.08132695 0 2042.58926557 0 5509
0.07250000 0.07249820 28914.71192441 0 341.95435800 0 12287.29102100 0 2362.85626095 0 2193.04001521 0 5916
0.07350000 0.07351270 28016.08204212 0 442.79334182 0 11340.49652575 0 1975.49097717 0 2535.52916650 0 5721
0.07450000 0.07449140 28286.91110719 0 -31.55645790 0 10476.48980318 0 1753.36906898 0 -101.12930018 0 6028
0.07550000 0.07549160 27149.56190182 0 290.65295542 0 9402.20855998 0 433.30325222 0 1241.75015609 0 6183
0.07650000 0.07648840 27761.75074104 0 418.68889069 0 9699.95444667 0 150.63344300 0 2107.96027130 0 6330
0.07750000 0.07749960 26572.91522526 0 336.51895375 0 8590.21961940 0 914.71686301 0 580.58953142 0 6583
0.07850000 0.07848650 26384.46425685 0 832.79494614 0 7765.16533554 0 874.38924156 0 451.71985009 0 6549
0.07950000 0.07947320 25295.05821794 0 920.97383377 0 8113.60032526 0 1884.02250184 0 195.84395969 0 6828
0.08050000 0.08048110 25176.03072614 0 34.58296717 0 7384.16663853 0 1146.51709032 0 984.16802044 0 7147
0.08150000 0.08149960 24408.71861621 0 234.36789944 0 7166.76154072 0 742.73929946 0 916.29245483 0 7386
0.08250000 0.08250610 24931.55379415 0 765.37556032 0 7761.95436134 0 -399.87368913 0 2457.63536140 0 7227
0.08350000 0.08350160 24075.77380891 0 449.88848757 0 6817.98330893 0 -294.71428416 0 2848.16733007 0 7798
0.08450000 0.08449610 23736.18560672 0 694.08196805 0 6776.98249012 0 283.26771477 0 1995.29936627 0 7371
0.08550000 0.08548940 23282.99535190 0 588.85280744 0 7296.60669386 0 -297.74810116 0 2977.32599908 0 8256
0.08650000 0.08650700 22893.24951828 0 509.13206874 0 8226.30551959 0 496.25495498 0 2892.47877400 0 8037
0.08750000 0.08749060 22805.22453597 0 41.18849471 0 7152.31215683 0 247.59157697 0 2741.96159041 0 8155
0.08850000 0.08849210 22451.35303477 0 343.68828407 0 7805.91149087 0 1032.99254396 0 2396.72650257 0 8718
0.08950000 0.08949900 21636.98354436 0 516.18181795 0 7149.53300330 0 796.43786037 0 1887.87567088 0 8571
0.09050000 0.09049190 21531.46428884 0 911.71404852 0 7158.02547643 0 855.26290766 0 1985.63322670 0 8932
0.09150000 0.09150830 20445.26922413 0 850.78083058 0 7018.10450770 0 299.52410206 0 1775.42514002 0 9285
0.09250000 0.09250820 19670.42793332 0 1045.59395683 0 6572.54308467 0 -22.04854186 0 1744.38941355 0 9204
0.09350000 0.09350330 19017.38221551 0 588.08992426 0 6985.07576277 0 -203.82821312 0 1789.32090767 0 9349
0.09450000 0.09448040 18334.99483694 0 415.71929318 0 7209.04674920 0 -436.75892480 0 2341.66383125 0 9564
0.09550000 0.09549270 18720.97608012 0 197.20917734 0 7541.43794025 0 -549.32128614 0 1503.24525133 0 10155
0.09650000 0.09649430 18468.85924400 0 217.99525273 0 9059.33187732 0 -633.26279505 0 2054.92383542 0 9913
0.09750000 0.09749140 18176.54986879 0 514.30062997 0 8368.49631491 0 -1009.53250213 0 980.93157989 0 10476
0.09850000 0.09850240 18035.82062034 0 347.18603148 0 9237.54094527 0 276.93877390 0 1595.18983662 0 10575
0.09950000 0.09950330 17975.91934307 0 -78.78490580 0 8586.46610129 0 949.04439165 0 1037.02951358 0 10882
0.10050000 0.10051200 17566.46477128 0 -159.12923783 0 8069.72070200 0 1562.55969538 0 388.57216719 0 10875
0.10150000 0.10150300 17628.13762052 0 444.42650973 0 7320.94366382 0 1291.84135357 0 -388.03848113 0 11118
0.10250000 0.10250800 17316.56240012 0 208.81850992 0 6816.54390670 0 730.14785168 0 -35.29923586 0 11575
0.10350000 0.10349800 16778.55813718 0 405.19172674 0 6288.48259145 0 586.20430734 0 139.06175633 0 11364
0.10450000 0.10450100 16351.94146192 0 500.56319656 0 6114.95711689 0 259.79881508 0 664.24869606 0 12093
0.10550000 0.10551000 16270.33842801 0 410.90947527 0 6672.47081616 0 143.23491555 0 929.45634181 0 12067
0.10650000 0.10649700 15810.28333179 0 301.11408791 0 6639.90710887 0 629.15274808 0 1197.87053283 0 12054
0.10750000 0.10749900 15897.31180487 0 39.21463136 0 6444.45843117 0 93.69622708 0 2059.47456092 0 12807
0.10850000 0.10850100 15760.90076310 0 -124.97997362 0 7206.17901707 0 248.56815602 0 1720.75000007 0 12736
0.10950000 0.10950300 15790.13170062 0 225.44582010 0 6934.17628558 0 -146.82567049 0 1645.42497432 0 12933
0.11050000 0.11050200 15722.92268897 0 580.66150153 0 6744.20840866 0 -188.01804051 0 1976.11102736 0 13428
0.11150000 0.11150900 15215.92093553 0 300.09321956 0 6488.61486255 0 118.05423445 0 1822.31643563 0 13453
0.11250000 0.11250000 14957.71432076 0 45.49042507 0 5925.25497578 0 549.13637831 0 1321.64805198 0 13668
0.11350000 0.11349100 15203.74137823 0 -71.47097092 0 6377.67016787 0 514.31391676 0 852.96207857 0 13791
0.11450000 0.11448600 14944.31680773 0 227.58167155 0 5784.80253545 0 205.02623867 0 698.37249391 0 14205
0.11550000 0.11549300 14784.32171410 0 352.01135063 0 6258.63160374 0 246.99920759 0 1377.58543696 0 14776
0.11650000 0.11649800 14601.62835459 0 84.54185037 0 5713.95072894 0 774.32642770 0 1880.35756233 0 14553
0.11750000 0.11747300 14500.87019874 0 78.99970890 0 5340.59193605 0 838.73857010 0 1352.35160870 0 14568
0.11850000 0.11849100 14574.94405178 0 45.29588432 0 5328.81098244 0 506.07278539 0 1643.07764146 0 16015
0.11950000 0.11950300 14199.48151718 0 212.29854161 0 4772.93598725 0 288.16389680 0 2131.55539549 0 15270
0.12050000 0.12050700 14099.94131706 0 277.04174652 0 5027.30050531 0 297.96844043 0 1847.88243363 0 15999
0.12150000 0.12150000 13921.34471773 0 197.05195033 0 4164.34565359 0 89.02769204 0 1718.02620816 0 15670
0.12250000 0.12250700 13646.41889249 0 180.34713388 0 4538.41307527 0 256.92001063 0 1400.35013679 0 16887
0.12350000 0.12352200 13557.06523120 0 194.43445275 0 4100.53584566 0 61.20991534 0 1458.74557788 0 16407
0.12450000 0.12449800 13512.22231568 0 -208.82404608 0 4214.85759941 0 250.27329404 0 1121.72615505 0 16306
0.12550000 0.12549900 13535.47419780 0 126.48470257 0 4311.79580320 0 116.69787466 0 892.60985928 0 17523
0.12650000 0.12650100 13490.85272878 0 290.76035697 0 4003.35405073 0 22.70778808 0 79.62983491 0 17154
0.12750000 0.12750600 13144.84257820 0 232.15454171 0 4072.15747715 0 136.84286243 0 573.40248538 0 18007
0.12850000 0.12850300 13181.04908036 0 81.50138997 0 3920.56627806 0 -90.57659956 0 426.58899445 0 17496
0.12950000 0.12949900 13013.08191286 0 -107.75974045 0 3733.31112073 0 280.07777799 0 -136.86722155 0 18405
0.13050000 0.13049000 13276.49252029 0 11.47480383 0 3695.15588940 0 354.36421966 0 131.05757272 0 18100
0.13150000 0.13148800 13148.93933838 0 -56.90997800 0 3348.93536465 0 260.46647627 0 -411.31915129 0 19059
0.13250000 0.13249300 13087.15576590 0 218.26320299 0 3317.19100939 0 320.69881605 0 296.14925746 0 18957
0.13350000 0.13349100 12847.66138007 0 343.41369041 0 3092.68855137 0 427.13375283 0 98.09802981 0 19468
0.13450000 0.13450700 12478.62079386 0 415.05495369 0 3123.89036271 0 140.36829066 0 383.74131187 0 19953
0.13550000 0.13551000 12499.10459478 0 139.91321811 0 3459.32644309 0 202.51171370 0 384.76771638 0 19956
0.13650000 0.13649900 12088.76423700 0 96.56052679 0 3301.49045280 0 93.49149979 0 1012.02156075 0 19723
0.13750000 0.13749600 12220.19273260 0 40.34168331 0 3120.30292947 0 -68.16444256 0 743.81774390 0 20946
0.13850000 0.13851100 12184.09695369 0 179.79573210 0 3357.93716473 0 -153.28083586 0 1017.22998234 0 20955
0.13950000 0.13949800 11940.72725417 0 411.24164502 0 3641.68763285 0 -220.13553311 0 532.80248474 0 20506
0.14050000 0.14048300 11676.32013750 0 309.51023182 0 3331.72897188 0 -521.89292309 0 686.59707647 0 21447
0.14150000 0.14148400 11519.75746457 0 120.79352761 0 3881.72456260 0 -97.88112297 0 689.61871391 0 21771
0.14250000 0.14249400 11318.68404586 0 180.11461506 0 3651.42020637 0 401.77480730 0 654.75085583 0 22470
0.14350000 0.14350900 11194.23111490 0 314.80391031 0 3561.00360190 0 591.92316311 0 356.93632071 0 22519
0.14450000 0.14449900 11023.44050457 0 294.74085774 0 3382.11912213 0 386.41860001 0 464.33233529 0 22218
0.14550000 0.14550500 10691.18218141 0 238.83890420 0 3139.18124328 0 549.93801463 0 736.55097712 0 23559
0.14650000 0.14650700 10510.28253853 0 8.90677739 0 2755.04907835 0 231.28093528 0 920.96165421 0 23044
0.14750000 0.14750500 10544.60674546 0 93.28123635 0 2887.47408318 0 204.27221335 0 828.80890921 0 23649
0.14850000 0.14849900 10363.50780073 0 102.89367514 0 2777.96879072 0 276.26004039 0 1030.82679722 0 23640
0.14950000 0.14949500 10279.61279558 0 100.21838001 0 2837.11714991 0 29.66375470 0 943.28788997 0 24457
0.15050000 0.15050000 10201.69684583 0 97.69865106 0 2893.29812604 0 -81.85836172 0 619.92617981 0 24591
0.15150000 0.15149900 10148.59397600 0 120.15908340 0 3114.93285193 0 -260.08005213 0 318.94828149 0 25020
0.15250000 0.15250500 10110.12871958 0 160.90080980 0 3217.98297902 0 -199.23762725 0 719.72990126 0 25297
0.15350000 0.15350100 9936.16035203 0 123.85723989 0 3125.91659815 0 124.23369893 0 805.03773505 0 25452
0.15450000 0.15450400 10122.09790271 0 -140.37714852 0 2999.90246939 0 546.48344928 0 1167.54343515 0 26061
0.15550000 0.15549900 10262.40640281 0 -216.21260843 0 2665.23037942 0 577.10507080 0 904.45503237 0 26128
0.15650000 0.15649500 10232.09037746 0 38.72844558 0 2461.47745811 0 371.55843287 0 949.32562870 0 26331
0.15750000 0.15749700 10287.29698900 0 181.25395728 0 2632.30128541 0 -13.88004495 0 1104.50315380 0 27345
0.15850000 0.15849900 9889.95554056 0 368.13376280 0 2389.46305749 0 53.38144952 0 1278.35526194 0 26980
0.15950000 0.15949700 9691.28481634 0 352.87942090 0 2732.27330620 0 -181.06240606 0 1058.76227274 0 27777
0.16050000 0.16050000 9365.73632202 0 279.58284507 0 2584.69028869 0 -36.48596764 0 1147.33644236 0 28224
0.16150000 0.16150500 9183.29762599 0 314.08531643 0 2581.67861634 0 29.24887469 0 976.60008642 0 28075
0.16250000 0.16249700 8884.21198799 0 251.28198283 0 2413.61179792 0 196.54262339 0 857.35779152 0 28590
0.16350000 0.16349900 8729.56482724 0 58.56529056 0 2210.83324119 0 112.15932872 0 681.77175731 0 29163
0.16450000 0.16449100 8799.45334150 0 -87.37392961 0 2406.54765468 0 -30.49827582 0 569.37326638 0 28996
0.16550000 0.16550500 8831.12019048 0 44.85941328 0 2421.00811090 0 -121.30174732 0 258.05270946 0 30777
0.16650000 0.16650700 8799.28725663 0 192.66398801 0 2343.42433089 0 -288.64554293 0 94.67081311 0 29211
0.16750000 0.16749900 8634.19889358 0 237.92654463 0 2678.91577290 0 -601.48743729 0 158.97090358 0 30922
0.16850000 0.16850800 8517.69589184 0 217.43277863 0 2918.95270264 0 -138.21472348 0 329.37287531 0 30867
0.16950000 0.16949900 8472.95262725 0 -22.24131103 0 2964.62604252 0 235.79955104 0 -71.52898990 0 30852
0.17050000 0.17049200 8423.55898623 0 70.06068891 0 2894.34999689 0 190.80494467 0 203.29452707 0 31257
0.17150000 0.17149500 8425.20876263 0 137.11081269 0 2932.11769685 0 264.64184996 0 285.63719228 0 32608
0.17250000 0.17250900 8410.07289460 0 -64.92988431 0 2590.68041642 0 540.14011440 0 194.02256226 0 32361
0.17350000 0.17350400 8437.11151181 0 -8.37332385 0 2591.15652638 0 153.73923011 0 432.55254860 0 32508
0.17450000 0.17449800 8274.18225210 0 206.83213484 0 2563.24319552 0 -7.62651768 0 268.58691929 0 32791
0.17550000 0.17549800 8199.75408467 0 186.72147128 0 2633.26457767 0 110.58152243 0 803.79431298 0 33633
0.17650000 0.17650100 7998.65852131 0 110.77528811 0 2389.88380583 0 354.06305242 0 728.59219004 0 33984
0.17750000 0.17750300 8002.97672799 0 86.18299035 0 2382.50963750 0 165.88003427 0 897.11408101 0 34069
0.17850000 0.17849800 7972.87107681 0 20.49741987 0 2209.82565963 0 253.18531547 0 774.45818837 0 34536
