### header ###
fiducial parameters:
Omega_m = 0.31
Omega_nu = 0
Omega_de = 0.69
Omega_k = 0
H_0 = 100
w_de = -1
zeff = 0
beta = 0
fgrowth = 0
b_1 = 2
gamma = 0.55
Lx = 3500 Ly = 3500 Lz = 3500
nx = 700 ny = 700 nz = 700
xoffset = -685.467585 yoffset = -31.7331281 zoffset = 572.489161
bins = 400 dk = 0.001
kx_ny = 0.628318531 ky_ny = 0.628318531 kz_ny = 0.628318531
############################
A(data) = 7.97995949 (not used)
A(ran) = 7.97850544 (used)
Ngal = 474047
weighted Ngal = 0
Nran = 23820508
weighted Nran = 0
SN(data) = 3486.52145
SN(ran) = 69.4956759
SN(data+ran) = 3556.01713
############################
13 columns: k_central k_mean P_0(k) sigma^{lin}_{P_0(k)} P^img_1(k) sigma^{lin}_{P_1(k)} P_2(k) sigma^{lin}_{P_2(k)} P^img_3(k) sigma^{lin}_{P_3(k)} P_4(k) sigma^{lin}_{P_4(k)} N_modes
### header ###
0.00050000 0 0 0 0 0 0 0 0 0 0 0 0
0.00150000 0.00179520 38864.41372969 0 -44827.08209103 0 11536.36595180 0 -13627.70666354 0 -32767.99168454 0 3
0.00250000 0.00253879 54677.35441944 0 -25041.72342609 0 -4380.69888055 0 -9934.90917933 0 7426.89474000 0 6
0.00350000 0.00331552 61096.42400980 0 -6662.59430242 0 -4216.19735072 0 -39160.04480235 0 1918.47957668 0 7
0.00450000 0.00420575 50226.61201209 0 8159.15186956 0 -19836.84497534 0 -19221.11299218 0 40545.30336041 0 24
0.00550000 0.00557378 40665.21663819 0 7783.13571872 0 -15773.08032040 0 -12233.81169212 0 9839.58753496 0 45
0.00650000 0.00659388 28033.13342235 0 5647.50570770 0 -22918.38369562 0 -12036.39214061 0 14812.44541914 0 40
0.00750000 0.00754703 37418.25738513 0 -11199.43510756 0 -21563.57403081 0 9506.06696678 0 -10493.57440038 0 57
0.00850000 0.00846663 40464.47538923 0 -19464.15052195 0 -12761.07579999 0 -22131.69501725 0 -1371.22992252 0 75
0.00950000 0.00948925 59966.05036907 0 -15061.01911132 0 -17871.95021303 0 -5071.58980458 0 -19918.22656276 0 112
0.01050000 0.01054430 71673.92663230 0 -6158.15025601 0 -310.85773375 0 -18881.41406674 0 5488.78393142 0 105
0.01150000 0.01145670 72228.65010572 0 1385.02603924 0 -93.17040237 0 -17891.21605821 0 17191.33440642 0 144
0.01250000 0.01249090 75508.82633324 0 6280.98662755 0 24954.80567627 0 -16224.49900326 0 8287.95622418 0 169
0.01350000 0.01339930 78186.88953713 0 7403.00066305 0 25568.21247122 0 -1823.88870575 0 14495.77692932 0 180
0.01450000 0.01448870 68091.36521398 0 3183.74735068 0 39438.62449478 0 5761.55065333 0 8633.42383084 0 267
0.01550000 0.01550050 67983.07787725 0 -1394.26035814 0 30351.23534638 0 18193.04763277 0 23884.77620579 0 238
0.01650000 0.01653350 72683.94410226 0 -825.35988003 0 35228.70515224 0 14623.66228098 0 9595.95209965 0 315
0.01750000 0.01747870 66072.65895305 0 3294.11628447 0 28334.63282716 0 8880.67991637 0 12843.12172689 0 297
0.01850000 0.01844180 68123.47495596 0 5014.86628454 0 30935.63265031 0 1468.24563258 0 -4286.66162586 0 388
0.01950000 0.01947590 62587.53399313 0 5111.68269275 0 24498.18300074 0 -5725.51023605 0 3969.04091612 0 399
0.02050000 0.02045430 57586.27559579 0 4661.84735234 0 29387.05730117 0 -9960.76305778 0 -10119.24124291 0 462
0.02150000 0.02154770 56504.62018426 0 752.59477578 0 27035.29550969 0 3251.57641252 0 -4824.11227256 0 571
0.02250000 0.02255340 60592.85467705 0 -4991.54796847 0 39499.74372778 0 -562.82177179 0 -2000.62515451 0 510
0.02350000 0.02348930 61229.84552387 0 -1779.45546625 0 25950.42912396 0 7460.87570487 0 -10333.76753627 0 555
0.02450000 0.02439640 65518.82126562 0 -536.15518469 0 30871.41316636 0 14760.18404599 0 -259.64269530 0 592
0.02550000 0.02547300 64906.96459614 0 -929.59585310 0 17530.14754587 0 5393.50657636 0 -1599.65198352 0 837
0.02650000 0.02652900 63688.23380335 0 -327.12519337 0 17031.56075929 0 2162.39182011 0 4701.30911800 0 723
0.02750000 0.02749970 65158.63853927 0 5787.90278640 0 16126.50892861 0 -3335.99181693 0 -482.63820991 0 826
0.02850000 0.02848090 57871.49868312 0 6072.74941468 0 14394.35443398 0 20.14044812 0 9188.32446145 0 831
0.02950000 0.02946900 53874.94303983 0 3849.38230180 0 13793.23791958 0 4821.14488951 0 5681.79669766 0 996
0.03050000 0.03053250 51362.96470823 0 -1121.83687830 0 13167.76229058 0 3864.88355655 0 2672.98100679 0 1041
0.03150000 0.03150510 56097.60152393 0 -3382.51772582 0 13685.72564559 0 6385.91904985 0 -1880.77831067 0 1036
0.03250000 0.03246190 54018.44036948 0 -1568.48338916 0 12972.11431103 0 2116.06521307 0 3787.20012562 0 1059
0.03350000 0.03345080 58975.18802105 0 2662.24085172 0 19551.95405776 0 -4229.72773165 0 7974.90838458 0 1302
0.03450000 0.03451200 54515.36630734 0 2708.71139898 0 22173.21623532 0 -4850.68585213 0 8564.14429445 0 1339
0.03550000 0.03553350 53213.70380166 0 4645.13921419 0 27174.80680240 0 -3690.92626132 0 10343.15686771 0 1365
0.03650000 0.03647120 50462.56325397 0 4156.21856718 0 29063.30252347 0 93.60598763 0 10866.22456447 0 1308
0.03750000 0.03744890 48293.27337550 0 2967.63771487 0 27501.10821481 0 5250.69573085 0 5123.60758658 0 1579
0.03850000 0.03847530 44909.34946443 0 1365.22872246 0 23368.69514599 0 3322.57215925 0 2532.58392809 0 1662
0.03950000 0.03950240 43739.89051708 0 2283.53412595 0 21614.28527848 0 4802.14478012 0 -4319.13675456 0 1683
0.04050000 0.04050350 41048.20835367 0 1513.52036876 0 17094.78373400 0 1518.40326401 0 -6610.54330345 0 1822
0.04150000 0.04152450 38184.68370907 0 1515.02620494 0 16503.85375843 0 1167.82024327 0 -10643.32759355 0 1887
0.04250000 0.04250150 37958.80828277 0 1705.08266045 0 12893.16863507 0 -321.10849207 0 -9888.57149996 0 1920
0.04350000 0.04349210 35634.06296385 0 1389.14494407 0 15821.79854960 0 -1450.79564866 0 -10646.57178472 0 2005
0.04450000 0.04448520 35825.83562971 0 79.22193046 0 13543.44627167 0 593.34374238 0 -7771.88623670 0 2151
0.04550000 0.04548030 36780.27002908 0 -1755.61675092 0 14441.19036797 0 755.97847825 0 -8495.04191526 0 2274
0.04650000 0.04648670 37879.08754408 0 -1599.08729496 0 15371.26565273 0 3035.04602836 0 -3846.21561690 0 2311
0.04750000 0.04749250 40821.77931113 0 -711.83201196 0 19587.38549718 0 -3623.15256111 0 -7088.22554078 0 2568
0.04850000 0.04851840 40077.60836007 0 2623.79773995 0 20189.60924406 0 -1626.63523911 0 -5407.33591006 0 2493
0.04950000 0.04949480 39016.65819595 0 2554.59570983 0 23231.95193448 0 -698.70023473 0 -3143.49944996 0 2644
0.05050000 0.05050630 36626.69688384 0 1286.94738600 0 19883.23801633 0 2664.20065321 0 760.78608168 0 2829
0.05150000 0.05149060 37717.32087848 0 -1619.72610842 0 20972.09043900 0 6219.92275617 0 370.29065168 0 2784
0.05250000 0.05249300 39063.82629967 0 -2006.54884828 0 16447.27417861 0 7677.63860785 0 -1905.21493154 0 3055
0.05350000 0.05348950 38345.01097245 0 -65.55757440 0 13179.16678514 0 4011.21540135 0 -917.62002658 0 3009
0.05450000 0.05448610 39076.55947321 0 762.49454140 0 9426.81126572 0 3618.01500239 0 -742.04063577 0 3336
0.05550000 0.05550870 36410.12221039 0 2075.24155146 0 7828.85334790 0 970.83583412 0 2058.68842586 0 3349
0.05650000 0.05647670 35009.36239758 0 2345.86024235 0 8760.53411976 0 -956.49385178 0 -779.14288900 0 3324
0.05750000 0.05747970 33582.13972846 0 1397.70385116 0 8574.96195580 0 -272.87744516 0 3964.58984154 0 3639
0.05850000 0.05849280 31284.63232859 0 1994.29178471 0 10979.37265179 0 -1814.82047173 0 2903.58431579 0 3846
0.05950000 0.05951020 31858.95381693 0 391.67131090 0 11256.45758038 0 -220.82755342 0 3883.87259361 0 3787
0.06050000 0.06049470 31085.33048185 0 -741.56009687 0 13042.53429688 0 -806.93331706 0 3871.21692634 0 3930
0.06150000 0.06148310 32182.04425514 0 118.73075350 0 12909.77712230 0 2063.83705690 0 4839.67996126 0 4083
0.06250000 0.06249100 32826.67500608 0 -380.70306594 0 14738.15011960 0 1348.84168173 0 5541.45498059 0 4303
0.06350000 0.06350600 32785.37523451 0 48.99791613 0 13157.02213550 0 2327.85664220 0 4876.24077781 0 4470
0.06450000 0.06451750 32287.45278741 0 332.11991910 0 13241.94686686 0 1093.04772654 0 3106.24107695 0 4479
0.06550000 0.06550280 31626.98861198 0 516.22610725 0 13205.18674846 0 284.95845877 0 2667.88773738 0 4636
0.06650000 0.06648880 31079.57287295 0 1152.61794130 0 12416.50505163 0 989.78390358 0 3057.62249867 0 4653
0.06750000 0.06749660 30644.87340057 0 -59.85255904 0 11080.85050876 0 459.52694632 0 1863.60513488 0 5220
0.06850000 0.06852730 29959.27504780 0 -139.64748231 0 8948.96294352 0 2223.90965680 0 -993.77658391 0 5029
0.06950000 0.06949320 30323.22236459 0 810.76434145 0 9824.50702856 0 554.43559297 0 -2368.81317170 0 5040
0.07050000 0.07048030 28629.71028357 0 1363.75610326 0 7525.94775783 0 -1427.95344256 0 -3743.12120052 0 5475
0.07150000 0.07148790 28164.45119469 0 1070.67941594 0 7936.42098351 0 -260.14759331 0 -3142.43650678 0 5509
0.07250000 0.07249820 27500.77604506 0 -231.92091565 0 7603.95228618 0 466.21905944 0 -2396.78186419 0 5916
0.07350000 0.07351270 27863.28395963 0 -153.29965881 0 7935.62377612 0 730.60846039 0 -2460.48094887 0 5721
0.07450000 0.07449140 27912.66652832 0 171.41176775 0 8314.02047680 0 1336.39638864 0 -2139.05135939 0 6028
0.07550000 0.07549160 27119.55590156 0 380.25242232 0 7136.14656259 0 710.16451985 0 -1360.26832095 0 6183
0.07650000 0.07648840 27427.69870126 0 703.77357396 0 7436.67160282 0 3.92410942 0 -803.24069674 0 6330
0.07750000 0.07749960 26746.97217141 0 365.31807060 0 7514.23323817 0 407.55898978 0 -1150.75779073 0 6583
0.07850000 0.07848650 26206.97489001 0 376.93515380 0 7791.04135864 0 639.80100286 0 -12.00483601 0 6549
0.07950000 0.07947320 25729.42552058 0 704.47777382 0 6519.21876835 0 1086.25817696 0 253.11002366 0 6828
0.08050000 0.08048110 24880.06748374 0 1248.58178050 0 7168.51096804 0 1121.56007018 0 527.61842226 0 7147
0.08150000 0.08149960 23975.45854606 0 702.90661093 0 6175.71096317 0 533.13354725 0 -1425.04142113 0 7386
0.08250000 0.08250610 23430.03582549 0 717.98711733 0 7139.91115303 0 -934.15986539 0 138.94881861 0 7227
0.08350000 0.08350160 22768.35369433 0 1113.59906864 0 7313.03802389 0 -1357.92098808 0 -557.58013322 0 7798
0.08450000 0.08449610 22285.15743924 0 470.49186959 0 9149.65990319 0 -1313.53203789 0 -31.11998686 0 7371
0.08550000 0.08548940 21364.82580032 0 696.76147065 0 8296.44869731 0 259.66816165 0 1585.95551772 0 8256
0.08650000 0.08650700 21626.90772877 0 153.75805306 0 8804.40267069 0 525.40174283 0 373.26910705 0 8037
0.08750000 0.08749060 21179.36435960 0 25.60342246 0 8449.15820121 0 1569.05915005 0 1968.29396604 0 8155
0.08850000 0.08849210 21301.27065586 0 632.44676471 0 8970.78649574 0 1470.53760381 0 959.34940435 0 8718
0.08950000 0.08949900 20384.37143762 0 362.63635353 0 7566.30638180 0 630.42717266 0 2104.61642920 0 8571
0.09050000 0.09049190 20362.11606474 0 545.28542374 0 8028.44307508 0 213.44784892 0 2519.62930806 0 8932
0.09150000 0.09150830 19786.46589742 0 357.94390227 0 7783.22429732 0 159.87994145 0 2063.02877718 0 9285
0.09250000 0.09250820 19385.64773898 0 242.86923043 0 7538.62556975 0 -627.31806386 0 2173.01017961 0 9204
0.09350000 0.09350330 19256.98732459 0 334.45064347 0 7007.18719543 0 920.40693073 0 403.16992023 0 9349
0.09450000 0.09448040 19037.09095369 0 -364.89400056 0 6164.77150625 0 415.74586676 0 1250.37549712 0 9564
0.09550000 0.09549270 19280.90354620 0 194.86073725 0 5808.06548989 0 767.35197030 0 -715.86898159 0 10155
0.09650000 0.09649430 19108.17527903 0 429.54530518 0 5550.89967366 0 -0.06960174 0 -442.33162588 0 9913
0.09750000 0.09749140 18587.55456605 0 624.11151859 0 5250.34141645 0 204.29546523 0 -876.20399559 0 10476
0.09850000 0.09850240 18066.49096009 0 145.27775948 0 4473.58461345 0 233.88071714 0 -902.90269243 0 10575
0.09950000 0.09950330 17785.25390970 0 275.41743647 0 5267.43708597 0 372.29806417 0 -1149.30731618 0 10882
0.10050000 0.10051200 18010.79716625 0 151.35868027 0 5880.41206026 0 399.65224263 0 -1223.28151829 0 10875
0.10150000 0.10150300 17394.29012035 0 735.08278685 0 5857.65843276 0 -426.36422626 0 -678.68147146 0 11118
0.10250000 0.10250800 16851.63548099 0 715.02194874 0 5598.27815156 0 -174.12780903 0 542.98127294 0 11575
0.10350000 0.10349800 16472.40835595 0 523.30685897 0 6435.19089530 0 166.93301236 0 1168.84996948 0 11364
0.10450000 0.10450100 15999.95225594 0 524.34322858 0 6666.94572608 0 396.18549773 0 1736.83808803 0 12093
0.10550000 0.10551000 15661.80345598 0 400.16710574 0 6661.09953857 0 1214.31293519 0 1841.67085941 0 12067
0.10650000 0.10649700 15374.03373394 0 120.51561226 0 6565.06926542 0 654.23488549 0 2495.01552998 0 12054
0.10750000 0.10749900 15547.75851034 0 -170.77178738 0 6308.98853702 0 467.28753879 0 2629.54427653 0 12807
0.10850000 0.10850100 15676.64037123 0 -275.31889278 0 6679.72318892 0 335.66970643 0 2833.99475431 0 12736
0.10950000 0.10950300 15770.42296245 0 -211.31864086 0 6106.08818471 0 221.07668072 0 2488.89253436 0 12933
0.11050000 0.11050200 16047.78469915 0 -21.71858658 0 6302.73267349 0 71.07491386 0 2612.98007860 0 13428
0.11150000 0.11150900 15829.65990023 0 110.68161625 0 6184.42488281 0 -191.83909981 0 1880.13611583 0 13453
0.11250000 0.11250000 15805.30078562 0 623.13272507 0 6454.50102978 0 261.35004779 0 2694.97064388 0 13668
0.11350000 0.11349100 15121.47400483 0 730.34936799 0 6190.59216773 0 98.26965085 0 2447.55954581 0 13791
0.11450000 0.11448600 14638.94208923 0 421.82125138 0 6268.51918980 0 389.31069125 0 2520.30471987 0 14205
0.11550000 0.11549300 14560.88219926 0 204.86126103 0 6040.37393691 0 825.93010475 0 2832.67714765 0 14776
0.11650000 0.11649800 14165.04658699 0 -11.02434844 0 5966.24472225 0 841.80338961 0 2482.85811733 0 14553
0.11750000 0.11747300 14395.57238971 0 70.59869317 0 5796.61670603 0 569.04884726 0 2563.98504128 0 14568
0.11850000 0.11849100 14098.61263808 0 226.53755132 0 5345.14266155 0 485.24795687 0 2093.73233391 0 16015
0.11950000 0.11950300 13861.99705670 0 319.17858585 0 4747.01567485 0 173.94954460 0 2372.19023077 0 15270
0.12050000 0.12050700 13609.21588109 0 205.67839860 0 4386.54506805 0 -25.24667216 0 1676.51606242 0 15999
0.12150000 0.12150000 13424.97239611 0 129.13098820 0 3960.81417878 0 59.71869463 0 1762.76947275 0 15670
0.12250000 0.12250700 13508.45772524 0 -141.10460026 0 3678.13772616 0 419.32112044 0 1129.84216914 0 16887
0.12350000 0.12352200 13505.35747430 0 -186.64285777 0 3454.96394711 0 401.43045800 0 701.44284959 0 16407
0.12450000 0.12449800 13556.29016846 0 34.21846624 0 3284.98161650 0 149.68011583 0 -213.31608826 0 16306
0.12550000 0.12549900 13514.76895039 0 391.03575946 0 3210.01090515 0 -408.29197769 0 -264.12809408 0 17523
0.12650000 0.12650100 13145.72836419 0 216.50048888 0 3465.02869037 0 -397.19861545 0 -127.60190014 0 17154
0.12750000 0.12750600 13205.74036470 0 138.18704267 0 3625.63276187 0 -54.38515577 0 47.40239412 0 18007
0.12850000 0.12850300 13131.33434192 0 24.96875681 0 3786.39184591 0 -25.30358391 0 -277.19454460 0 17496
0.12950000 0.12949900 13002.12031129 0 175.80748070 0 3693.42860673 0 537.59680138 0 116.84402935 0 18405
0.13050000 0.13049000 12857.07285616 0 203.43403836 0 3376.28400695 0 370.76343995 0 -183.43963420 0 18100
0.13150000 0.13148800 12760.30073725 0 287.83615599 0 3583.62436150 0 455.20541794 0 159.46140757 0 19059
0.13250000 0.13249300 12511.61632182 0 177.07747636 0 3294.35987562 0 347.34990189 0 316.98626554 0 18957
0.13350000 0.13349100 12189.96528584 0 289.85131910 0 3332.70333646 0 -241.64795300 0 465.13397161 0 19468
0.13450000 0.13450700 12197.38374347 0 182.91591324 0 3131.53026683 0 -132.05851088 0 407.15374270 0 19953
0.13550000 0.13551000 12256.84212775 0 -200.00936829 0 3719.08318334 0 -267.73102858 0 463.51298326 0 19956
0.13650000 0.13649900 12135.04655474 0 129.56502333 0 3763.33926564 0 -220.40680507 0 123.47303022 0 19723
0.13750000 0.13749600 12248.53788413 0 254.31690706 0 3630.53780176 0 70.49394898 0 105.27566438 0 20946
0.13850000 0.13851100 11922.34719497 0 132.60880542 0 3589.82486340 0 243.74615856 0 449.77001369 0 20955
0.13950000 0.13949800 11784.82892073 0 257.72386141 0 3716.45904235 0 302.79929575 0 -34.83098724 0 20506
0.14050000 0.14048300 11592.50263863 0 125.80375459 0 3572.37487949 0 371.72673221 0 55.74583376 0 21447
0.14150000 0.14148400 11556.73902946 0 59.93305484 0 3364.80200611 0 107.05133311 0 -101.33524542 0 21771
0.14250000 0.14249400 11404.82673295 0 186.12356574 0 3323.09255852 0 -18.76947286 0 65.96348583 0 22470
0.14350000 0.14350900 11254.24311542 0 262.58239754 0 3529.53605476 0 -107.09772615 0 -184.35088653 0 22519
0.14450000 0.14449900 11088.60113613 0 113.83457146 0 3040.32752730 0 89.65006742 0 -93.33338700 0 22218
0.14550000 0.14550500 11055.27343843 0 144.26242729 0 3237.49241535 0 318.41791713 0 13.84727086 0 23559
0.14650000 0.14650700 10791.86283099 0 126.81244338 0 2670.27935954 0 215.87822422 0 -427.65304487 0 23044
0.14750000 0.14750500 10748.03856936 0 117.03225887 0 2974.81258135 0 202.61911525 0 -483.15085855 0 23649
0.14850000 0.14849900 10426.89686032 0 278.90078986 0 2649.24194238 0 61.89883539 0 -298.74350316 0 23640
0.14950000 0.14949500 10444.30255493 0 200.91065553 0 2798.92870161 0 -112.71626665 0 -307.49728317 0 24457
0.15050000 0.15050000 10189.24048041 0 -26.78207144 0 2445.37829782 0 241.72878098 0 82.75942752 0 24591
0.15150000 0.15149900 10369.73044728 0 -15.33384119 0 2764.64878397 0 234.82740092 0 -35.14344825 0 25020
0.15250000 0.15250500 10258.56430610 0 212.89533992 0 2760.38593891 0 -75.76415414 0 68.31414039 0 25297
0.15350000 0.15350100 10071.08770227 0 471.91687779 0 3052.16384253 0 -153.97285616 0 355.02855915 0 25452
0.15450000 0.15450400 9781.00386435 0 318.38359293 0 2937.89745041 0 148.99916785 0 665.98151489 0 26061
0.15550000 0.15549900 9492.61409212 0 123.51510505 0 2989.46126709 0 225.48678770 0 536.43974344 0 26128
0.15650000 0.15649500 9573.81852234 0 -109.90467121 0 2968.15811413 0 343.06269772 0 533.90750276 0 26331
0.15750000 0.15749700 9542.76065122 0 22.54978600 0 3005.54935505 0 236.26791038 0 435.63729829 0 27345
0.15850000 0.15849900 9545.01940549 0 34.08426966 0 2722.72896220 0 128.71466878 0 756.97166578 0 26980
0.15950000 0.15949700 9341.72044949 0 95.88123966 0 2675.90410055 0 234.42215383 0 754.12829277 0 27777
0.16050000 0.16050000 9399.32975552 0 255.15065312 0 2865.06369775 0 76.37080682 0 819.78053555 0 28224
0.16150000 0.16150500 9260.31671743 0 203.26684625 0 2675.12903781 0 51.43726001 0 747.47161109 0 28075
0.16250000 0.16249700 8879.36230971 0 230.53466058 0 2699.65423728 0 25.86561512 0 1250.99554731 0 28590
0.16350000 0.16349900 8861.32549259 0 168.04578101 0 2704.04995024 0 398.00578793 0 1311.11827108 0 29163
0.16450000 0.16449100 8880.69098869 0 -132.74610225 0 2608.23005125 0 541.55405027 0 1144.77873532 0 28996
0.16550000 0.16550500 8840.50952193 0 -80.28232701 0 2220.94227375 0 336.94634549 0 1012.81433921 0 30777
0.16650000 0.16650700 8859.24389552 0 41.16590717 0 1983.21945989 0 239.09910383 0 897.31891902 0 29211
0.16750000 0.16749900 8824.43250629 0 206.75684304 0 1980.45137869 0 -369.01954879 0 905.27438441 0 30922
0.16850000 0.16850800 8605.58800625 0 240.33588251 0 1951.55261091 0 -115.79326572 0 937.63325369 0 30867
0.16950000 0.16949900 8446.37904768 0 118.14945644 0 2105.25862404 0 -142.67022699 0 760.55356286 0 30852
0.17050000 0.17049200 8317.09858310 0 181.54958835 0 2184.83542251 0 -154.89407359 0 526.41153885 0 31257
0.17150000 0.17149500 8265.49047712 0 182.99009781 0 2187.96889044 0 63.94278655 0 520.54099223 0 32608
0.17250000 0.17250900 8073.44100314 0 201.64364343 0 2220.75404423 0 -23.15378132 0 436.47768775 0 32361
0.17350000 0.17350400 7960.16004792 0 55.89719244 0 2180.63901141 0 173.12244193 0 584.41169795 0 32508
0.17450000 0.17449800 8000.75119071 0 -31.66563103 0 2125.88636518 0 370.40580386 0 405.96568224 0 32791
0.17550000 0.17549800 7957.46947299 0 8.75104514 0 1750.63420475 0 169.95464980 0 570.51039414 0 33633
0.17650000 0.17650100 7924.41858341 0 69.54294700 0 1677.09182331 0 370.96163456 0 158.54572631 0 33984
0.17750000 0.17750300 7847.37734732 0 0.59559917 0 1667.58069629 0 -85.86255727 0 445.72418620 0 34069
0.17850000 0.17849800 7840.37963803 0 118.38972589 0 1448.96871507 0 -80.00474383 0 46.64128251 0 34536
