### header ###
fiducial parameters:
Omega_m = 0.31
Omega_nu = 0
Omega_de = 0.69
Omega_k = 0
H_0 = 100
w_de = -1
zeff = 0
beta = 0
fgrowth = 0
b_1 = 2
gamma = 0.55
Lx = 3500 Ly = 3500 Lz = 3500
nx = 700 ny = 700 nz = 700
xoffset = -685.467585 yoffset = -31.7331281 zoffset = 572.489161
bins = 400 dk = 0.001
kx_ny = 0.628318531 ky_ny = 0.628318531 kz_ny = 0.628318531
############################
A(data) = 8.04869882 (not used)
A(ran) = 8.04759276 (used)
Ngal = 478521
weighted Ngal = 0
Nran = 23820508
weighted Nran = 0
SN(data) = 3483.83986
SN(ran) = 70.0974515
SN(data+ran) = 3553.93731
############################
13 columns: k_central k_mean P_0(k) sigma^{lin}_{P_0(k)} P^img_1(k) sigma^{lin}_{P_1(k)} P_2(k) sigma^{lin}_{P_2(k)} P^img_3(k) sigma^{lin}_{P_3(k)} P_4(k) sigma^{lin}_{P_4(k)} N_modes
### header ###
0.00050000 0 0 0 0 0 0 0 0 0 0 0 0
0.00150000 0.00179520 8791.06051929 0 -22816.85047703 0 -20962.90040940 0 -9297.63045206 0 21072.29497861 0 3
0.00250000 0.00253879 22391.45175750 0 -30049.29304857 0 -17652.71818162 0 -12580.48618219 0 -15175.06405695 0 6
0.00350000 0.00331552 40457.83199434 0 -35667.39066155 0 -37721.74980841 0 341.62329549 0 -2358.50483730 0 7
0.00450000 0.00420575 59267.38667301 0 -30957.77729994 0 -37044.34497600 0 -15615.18896849 0 4826.13850800 0 24
0.00550000 0.00557378 76142.93837560 0 -7829.61733831 0 -42367.91874881 0 -33354.71417668 0 7790.96385237 0 45
0.00650000 0.00659388 68931.75466772 0 6481.45106839 0 -23152.89553528 0 -7000.67666844 0 25127.53394344 0 40
0.00750000 0.00754703 62121.49984151 0 10047.54793971 0 -35710.35128185 0 -16795.16662441 0 13485.53801287 0 57
0.00850000 0.00846663 53570.67555382 0 7748.20253392 0 -27895.06153186 0 -1826.83394415 0 38853.45212812 0 75
0.00950000 0.00948925 52676.80677121 0 960.78880658 0 -31623.00257505 0 -6093.43251745 0 18493.21835860 0 112
0.01050000 0.01054430 50347.63252236 0 4444.15437408 0 -23684.81001957 0 -4400.76193312 0 11708.98349572 0 105
0.01150000 0.01145670 56276.75173949 0 -4625.53012694 0 -12891.39706310 0 -14487.91557870 0 14496.66271531 0 144
0.01250000 0.01249090 47334.96366245 0 -2880.56495249 0 -10887.85988717 0 -8421.32237662 0 10201.25395284 0 169
0.01350000 0.01339930 58067.47883241 0 -742.29419200 0 -5597.89062019 0 -533.45464467 0 1369.89017121 0 180
0.01450000 0.01448870 59762.20886915 0 -11713.52314889 0 -2068.16633590 0 -4081.56895325 0 -1177.51959981 0 267
0.01550000 0.01550050 70223.11991132 0 -5461.19169798 0 2121.87818360 0 -4330.33087495 0 -14797.60850388 0 238
0.01650000 0.01653350 71871.23546057 0 4002.01429943 0 2362.91162257 0 -17537.67672675 0 -15132.98922264 0 315
0.01750000 0.01747870 74199.63464668 0 2800.01378944 0 6157.04302353 0 -19372.91456544 0 -19674.08180051 0 297
0.01850000 0.01844180 63020.57261679 0 7252.02951414 0 6703.09686661 0 -20157.38877884 0 -12144.67947733 0 388
0.01950000 0.01947590 70495.60982510 0 -5332.42056034 0 16857.94670613 0 -6613.63248208 0 -12564.43131121 0 399
0.02050000 0.02045430 72322.43269693 0 -5781.23724686 0 15561.04530013 0 12435.43872707 0 -10578.08945572 0 462
0.02150000 0.02154770 76620.93063803 0 -1767.48628313 0 16507.17545588 0 4498.72986312 0 -10917.26798189 0 571
0.02250000 0.02255340 77400.86519825 0 1457.61620075 0 13143.51389922 0 9780.95957505 0 -7552.45490345 0 510
0.02350000 0.02348930 78227.30352271 0 4906.20248877 0 25339.12607072 0 1905.98999428 0 12002.06793367 0 555
0.02450000 0.02439640 68365.84814624 0 5038.41711943 0 14690.31767639 0 -2072.82778465 0 5901.21695859 0 592
0.02550000 0.02547300 68623.94403776 0 3905.81794140 0 30815.38720277 0 -4005.74567289 0 10355.00425527 0 837
0.02650000 0.02652900 66806.31119553 0 1572.90124676 0 34993.75041959 0 -4211.73520382 0 11666.79793816 0 723
0.02750000 0.02749970 68973.94022528 0 2512.33264600 0 41228.13363197 0 -7081.44927799 0 1537.94591731 0 826
0.02850000 0.02848090 64039.33722335 0 2464.17910536 0 34005.76687602 0 2578.86624584 0 13392.53048439 0 831
0.02950000 0.02946900 67564.21182937 0 -2859.87077741 0 31914.20471778 0 5930.80221051 0 890.84050177 0 996
0.03050000 0.03053250 67149.22109516 0 -1087.91238229 0 30981.58279830 0 1951.99550390 0 -8669.17636768 0 1041
0.03150000 0.03150510 68072.65298504 0 3881.42560983 0 28910.94733397 0 4206.04402886 0 -15044.29990084 0 1036
0.03250000 0.03246190 59465.35984077 0 3866.24545250 0 24573.03191652 0 4621.85411510 0 -7000.25592009 0 1059
0.03350000 0.03345080 58742.89064635 0 2564.04040290 0 20857.49187713 0 9490.10067439 0 -5114.98224555 0 1302
0.03450000 0.03451200 57396.05305541 0 -91.11216791 0 16499.75699825 0 13390.31601943 0 -11899.20603610 0 1339
0.03550000 0.03553350 54989.81542582 0 1765.83650673 0 14265.36184985 0 6393.12713331 0 -6005.60683698 0 1365
0.03650000 0.03647120 54527.98875764 0 1054.85152761 0 10084.81738505 0 1301.57392708 0 -3016.34487175 0 1308
0.03750000 0.03744890 51712.62872600 0 2715.70910827 0 10416.02383735 0 -8238.95011453 0 1636.07993218 0 1579
0.03850000 0.03847530 52442.07348505 0 2299.24575487 0 16523.67321986 0 -9208.42073100 0 1544.34572106 0 1662
0.03950000 0.03950240 49200.98256414 0 2304.18401173 0 19936.82806845 0 -3955.72090936 0 324.24195999 0 1683
0.04050000 0.04050350 50840.35097679 0 -235.48841871 0 24198.67661440 0 -2642.58747517 0 1672.20892806 0 1822
0.04150000 0.04152450 49552.86104687 0 -398.28370328 0 26745.20059944 0 -2261.23446376 0 -2851.94299284 0 1887
0.04250000 0.04250150 51926.21387175 0 876.33575626 0 30241.61933067 0 4057.81881651 0 -656.29765960 0 1920
0.04350000 0.04349210 49515.76875873 0 3084.02999336 0 29235.36645115 0 1371.10812694 0 -2333.19350276 0 2005
0.04450000 0.04448520 47545.11638751 0 4311.09824674 0 31867.03661405 0 2817.43055638 0 1341.31250086 0 2151
0.04550000 0.04548030 44298.26785769 0 3138.66084402 0 29585.03046893 0 819.14387687 0 3013.28891010 0 2274
0.04650000 0.04648670 41069.02432433 0 3272.84634849 0 27970.02117088 0 4809.72932262 0 4873.50591358 0 2311
0.04750000 0.04749250 39193.26177680 0 1774.43970311 0 26437.72213923 0 7441.60985969 0 8068.85706067 0 2568
0.04850000 0.04851840 37356.47381264 0 -790.14988710 0 22004.25255859 0 10023.81994762 0 7526.55673570 0 2493
0.04950000 0.04949480 38530.02952017 0 -1809.86007021 0 19024.02561041 0 8444.89535616 0 5762.10426957 0 2644
0.05050000 0.05050630 38873.27158954 0 -448.66499567 0 15545.21187563 0 3054.76583887 0 1325.51229334 0 2829
0.05150000 0.05149060 39479.48137337 0 1208.28959048 0 15790.90676336 0 1536.51758741 0 5871.11130741 0 2784
0.05250000 0.05249300 38488.95119509 0 899.61864089 0 14081.33981136 0 -2542.57116508 0 6684.19640814 0 3055
0.05350000 0.05348950 38063.44175231 0 355.80362188 0 14541.17346108 0 -29.79640115 0 7609.27807442 0 3009
0.05450000 0.05448610 37612.68740894 0 -157.27019449 0 15042.86049861 0 912.46032321 0 1112.61363173 0 3336
0.05550000 0.05550870 38305.37204960 0 833.89110630 0 14655.43985321 0 1310.04425557 0 -665.45004330 0 3349
0.05650000 0.05647670 37054.42079159 0 1604.20270902 0 14547.92757922 0 501.23085775 0 1378.85875432 0 3324
0.05750000 0.05747970 35574.38313308 0 1099.73541073 0 12440.64271973 0 2765.97746295 0 -1027.28586774 0 3639
0.05850000 0.05849280 35013.12698802 0 34.02436838 0 12500.10110401 0 -224.65414887 0 1969.93267011 0 3846
0.05950000 0.05951020 34524.06240078 0 899.93641661 0 10672.61389269 0 2985.68560432 0 -541.84303795 0 3787
0.06050000 0.06049470 34709.08094850 0 -185.16248794 0 11847.27683270 0 340.70207806 0 172.84231212 0 3930
0.06150000 0.06148310 33444.73217746 0 476.68462086 0 10157.76186095 0 1363.76717559 0 566.77237728 0 4083
0.06250000 0.06249100 33351.61392573 0 1299.19337725 0 12003.61805914 0 915.44652922 0 821.53328457 0 4303
0.06350000 0.06350600 32291.10665460 0 251.89760409 0 9825.14922340 0 1974.94843325 0 1331.55778269 0 4470
0.06450000 0.06451750 32294.98196829 0 187.90399557 0 9665.90704786 0 1585.90015610 0 3298.98810739 0 4479
0.06550000 0.06550280 32457.41297338 0 874.80445374 0 10085.12741014 0 840.55443138 0 2037.92781682 0 4636
0.06650000 0.06648880 30910.05557997 0 952.91859810 0 8906.83274759 0 -680.92140277 0 4124.50742889 0 4653
0.06750000 0.06749660 31105.14994328 0 960.77441256 0 9424.50822216 0 -1608.94166405 0 2025.32751118 0 5220
0.06850000 0.06852730 30318.90415791 0 -54.07767731 0 10375.62092408 0 -881.60729011 0 993.58946162 0 5029
0.06950000 0.06949320 30796.56425058 0 -4.26418481 0 10914.26738186 0 673.42100994 0 126.14810389 0 5040
0.07050000 0.07048030 30096.57187555 0 1192.32329810 0 10873.26656306 0 118.93448427 0 -1418.56411112 0 5475
0.07150000 0.07148790 28758.59214446 0 812.13620250 0 10859.41508471 0 667.42866774 0 -1474.42398983 0 5509
0.07250000 0.07249820 27976.55384252 0 1033.79860920 0 10040.48379647 0 1477.71247030 0 192.33735442 0 5916
0.07350000 0.07351270 27698.52776633 0 -292.63933049 0 9398.83150091 0 1339.41913331 0 -483.19071892 0 5721
0.07450000 0.07449140 27587.91524139 0 -297.53994146 0 8413.17314555 0 1600.78136066 0 -1327.81533690 0 6028
0.07550000 0.07549160 27777.36271903 0 411.32690192 0 8671.86694261 0 -878.93110920 0 -2711.13623812 0 6183
0.07650000 0.07648840 27156.75891295 0 1133.14172194 0 8231.26592111 0 -1414.97667787 0 -1500.79826754 0 6330
0.07750000 0.07749960 26429.86078861 0 1316.10081724 0 9844.86903390 0 -1537.20407155 0 -1121.81473365 0 6583
0.07850000 0.07848650 25241.91105881 0 592.48785167 0 9244.38364201 0 -517.76073147 0 -2102.53483214 0 6549
0.07950000 0.07947320 25677.27487068 0 512.59659918 0 10890.40652188 0 1609.18525519 0 -2543.46802339 0 6828
0.08050000 0.08048110 25150.89654880 0 260.95255133 0 9254.93556756 0 1219.79373597 0 -1490.15776339 0 7147
0.08150000 0.08149960 24857.92283410 0 17.84836616 0 9782.81972562 0 2000.45906963 0 -583.45394185 0 7386
0.08250000 0.08250610 24701.13871467 0 -14.24432443 0 8008.80077085 0 1570.39890135 0 1328.65683359 0 7227
0.08350000 0.08350160 24655.74218291 0 333.18286228 0 8497.14565698 0 1767.32019825 0 2722.23070759 0 7798
0.08450000 0.08449610 24440.71763494 0 594.84847132 0 7292.46564438 0 2083.39078253 0 3030.12991614 0 7371
0.08550000 0.08548940 23665.21200464 0 267.31249470 0 7519.50366479 0 1600.83672228 0 3761.74485086 0 8256
0.08650000 0.08650700 22705.79505910 0 1005.03049486 0 5979.38757181 0 341.26012324 0 2865.41801214 0 8037
0.08750000 0.08749060 22433.96948480 0 696.23774969 0 6520.83532777 0 373.69096263 0 4464.11777573 0 8155
0.08850000 0.08849210 21207.59878789 0 316.11044464 0 5256.55299068 0 286.60823516 0 3811.21599815 0 8718
0.08950000 0.08949900 21433.80638394 0 575.90150909 0 5487.31131222 0 919.01956843 0 2560.64119918 0 8571
0.09050000 0.09049190 21049.48598948 0 111.68764768 0 5561.31873131 0 -164.26458208 0 2474.63137999 0 8932
0.09150000 0.09150830 20236.22373155 0 636.23792873 0 5326.26434774 0 397.89395745 0 2664.41102738 0 9285
0.09250000 0.09250820 20177.76185651 0 604.88221208 0 6562.83265581 0 -301.02993824 0 3265.61612039 0 9204
0.09350000 0.09350330 19593.58599908 0 455.04597647 0 6317.15991273 0 -592.68826075 0 2708.05813182 0 9349
0.09450000 0.09448040 19526.15554093 0 349.56436685 0 7684.58095551 0 -242.21928497 0 3882.33354046 0 9564
0.09550000 0.09549270 19255.32647587 0 668.09743616 0 7315.99433462 0 -1020.44095654 0 3545.66843203 0 10155
0.09650000 0.09649430 19045.61664380 0 515.40786245 0 8676.93806738 0 -324.03822921 0 4026.26269078 0 9913
0.09750000 0.09749140 18374.30159005 0 479.33422819 0 8200.90560645 0 314.45181038 0 2848.11196845 0 10476
0.09850000 0.09850240 18103.69397148 0 611.40048970 0 7857.14313781 0 778.87383151 0 2527.56816495 0 10575
0.09950000 0.09950330 17528.92959014 0 49.56027950 0 7300.32699500 0 1236.77868224 0 2571.89068120 0 10882
0.10050000 0.10051200 17524.83282996 0 50.63340923 0 6775.41022000 0 1217.45747543 0 2183.94963653 0 10875
0.10150000 0.10150300 17303.27561034 0 -174.87961988 0 5410.32543776 0 1398.35711832 0 1517.63927359 0 11118
0.10250000 0.10250800 17028.90340133 0 119.71286871 0 5408.83067391 0 699.85175651 0 982.61014433 0 11575
0.10350000 0.10349800 17016.39167429 0 606.97820316 0 4610.21710171 0 -413.49597035 0 34.00200229 0 11364
0.10450000 0.10450100 16436.97691653 0 419.66214804 0 4525.67990172 0 -235.62460830 0 609.35986023 0 12093
0.10550000 0.10551000 15844.93970848 0 716.75808928 0 4684.05843593 0 -1008.11413732 0 -206.48667831 0 12067
0.10650000 0.10649700 15514.65225914 0 440.03190401 0 4693.37026110 0 16.07657274 0 -197.32211506 0 12054
0.10750000 0.10749900 15410.57240584 0 19.53014158 0 4823.45900540 0 16.32182474 0 -79.55288225 0 12807
0.10850000 0.10850100 15521.07420753 0 -4.21999516 0 5196.56313481 0 258.18557735 0 -544.17597679 0 12736
0.10950000 0.10950300 15480.10660570 0 127.86652870 0 5230.73232920 0 -187.76780597 0 -11.75903040 0 12933
0.11050000 0.11050200 15611.97799429 0 13.93219560 0 5328.17985993 0 -167.46005502 0 187.76780597 0 13428
0.11150000 0.11150900 15594.37299783 0 224.83352053 0 5909.33297269 0 -240.65255100 0 114.33393331 0 13453
0.11250000 0.11250000 15751.37856376 0 69.56575599 0 5752.23882816 0 105.50342210 0 128.30167107 0 13668
0.11350000 0.11349100 15037.76722920 0 -10.88680802 0 5637.90600208 0 1173.89894960 0 387.81592740 0 13791
0.11450000 0.11448600 15305.16387357 0 -28.63303198 0 4732.35591679 0 1181.12917770 0 -468.00170374 0 14205
0.11550000 0.11549300 15240.61221987 0 55.79300187 0 4689.32886254 0 417.09115422 0 -1045.98370267 0 14776
0.11650000 0.11649800 14783.65737461 0 712.43988260 0 4524.07441463 0 -240.76770318 0 -429.25963920 0 14553
0.11750000 0.11747300 14417.82776260 0 607.08339025 0 4540.94863765 0 -588.87495208 0 -139.35738740 0 14568
0.11850000 0.11849100 14077.24305118 0 211.00307960 0 4458.63697495 0 63.91488429 0 350.71478140 0 16015
0.11950000 0.11950300 13967.40558898 0 -10.65671403 0 4548.14564878 0 351.71461233 0 219.19659997 0 15270
0.12050000 0.12050700 14201.14236590 0 15.78714217 0 4576.76760844 0 875.14326688 0 -271.29742440 0 15999
0.12150000 0.12150000 13886.90978755 0 55.99496107 0 4282.78631218 0 61.88123039 0 211.17802234 0 15670
0.12250000 0.12250700 13722.70721049 0 247.28265910 0 4318.53884902 0 385.95688406 0 -221.45978316 0 16887
0.12350000 0.12352200 13542.00686945 0 248.78406635 0 4005.75674521 0 56.08774715 0 -327.76074482 0 16407
0.12450000 0.12449800 13224.67404014 0 394.54236473 0 3776.50425984 0 4.56850765 0 -658.19988501 0 16306
0.12550000 0.12549900 12956.39160979 0 314.30565570 0 4009.76492680 0 -349.46360869 0 -336.26096858 0 17523
0.12650000 0.12650100 12846.77559408 0 209.55814122 0 4003.37619538 0 -146.81570540 0 -81.17032746 0 17154
0.12750000 0.12750600 12679.58348932 0 73.63716055 0 3833.93640868 0 512.38401054 0 333.77080273 0 18007
0.12850000 0.12850300 12823.63443521 0 -248.94682952 0 3473.65403140 0 1082.31975102 0 422.55756098 0 17496
0.12950000 0.12949900 12792.52120247 0 -298.19210139 0 3420.32971508 0 1235.73788371 0 771.84844141 0 18405
0.13050000 0.13049000 13186.14234977 0 -92.59165196 0 3094.70371449 0 800.94651103 0 378.47309972 0 18100
0.13150000 0.13148800 12863.38408131 0 286.66913295 0 2900.65014972 0 -198.13814540 0 629.83258882 0 19059
0.13250000 0.13249300 12798.94315087 0 424.92482403 0 3088.93503326 0 -593.93500453 0 1159.42742106 0 18957
0.13350000 0.13349100 12421.48759780 0 370.39251707 0 3418.14846709 0 -597.00868190 0 946.18108845 0 19468
0.13450000 0.13450700 12286.73740476 0 248.86489432 0 3902.86163068 0 -753.82380384 0 614.16524920 0 19953
0.13550000 0.13551000 12140.58271715 0 18.78818509 0 3810.98347933 0 -148.05580578 0 203.35874655 0 19956
0.13650000 0.13649900 12327.48356009 0 -116.71337591 0 3871.16156472 0 218.72381170 0 -92.64502056 0 19723
0.13750000 0.13749600 12202.69845938 0 169.00685880 0 3765.33228410 0 324.78339667 0 -339.84729459 0 20946
0.13850000 0.13851100 12180.55380974 0 232.62954444 0 3646.00583953 0 362.42819382 0 -564.61770287 0 20955
0.13950000 0.13949800 11807.19501686 0 305.80543193 0 3427.57101551 0 -95.62546896 0 -123.88602793 0 20506
0.14050000 0.14048300 11567.47918454 0 325.78212037 0 3774.71054322 0 134.82548485 0 -0.60704021 0 21447
0.14150000 0.14148400 11548.76695559 0 8.38781752 0 3479.09054289 0 85.68540007 0 449.33487133 0 21771
0.14250000 0.14249400 11363.52696138 0 -33.15939837 0 3691.90062591 0 489.89501160 0 541.28056385 0 22470
0.14350000 0.14350900 11440.70106536 0 129.93262451 0 3431.59026942 0 283.55338075 0 444.77196627 0 22519
0.14450000 0.14449900 11312.48354396 0 235.74308218 0 3310.58083148 0 148.44555161 0 632.49326848 0 22218
0.14550000 0.14550500 11056.74605763 0 263.24784426 0 2965.43432223 0 94.81419972 0 668.08082767 0 23559
0.14650000 0.14650700 10894.41470346 0 229.73523873 0 3138.63869937 0 105.82806266 0 597.54347519 0 23044
0.14750000 0.14750500 10630.57227536 0 146.06057285 0 2738.20807230 0 -46.33457912 0 384.64592080 0 23649
0.14850000 0.14849900 10631.15910857 0 50.44661911 0 2767.78225189 0 236.94442942 0 -179.56985668 0 23640
0.14950000 0.14949500 10475.24970280 0 115.42012837 0 2584.57956544 0 63.72665477 0 -508.25846231 0 24457
0.15050000 0.15050000 10269.12730398 0 197.87130237 0 2319.24237349 0 53.53203314 0 -351.74229314 0 24591
0.15150000 0.15149900 10214.15321125 0 149.45756210 0 2233.97440006 0 306.91377165 0 -564.62656073 0 25020
0.15250000 0.15250500 10123.95805328 0 87.92621717 0 2478.18559626 0 -72.13841066 0 -338.55958321 0 25297
0.15350000 0.15350100 10014.38632687 0 229.26687939 0 2388.59941615 0 -33.87489200 0 -537.70198847 0 25452
0.15450000 0.15450400 9886.08022688 0 233.78549515 0 2957.62833323 0 -385.69225550 0 -222.91800834 0 26061
0.15550000 0.15549900 9732.58458791 0 161.63711940 0 2787.12560335 0 -173.91189869 0 46.44917768 0 26128
0.15650000 0.15649500 9880.95374048 0 22.42444729 0 3136.72318717 0 -56.38061015 0 -257.25107314 0 26331
0.15750000 0.15749700 9698.49289980 0 88.39180843 0 2969.25427429 0 -1.86329511 0 -442.51985540 0 27345
0.15850000 0.15849900 9675.35174093 0 249.98098466 0 2942.55889915 0 187.16436427 0 -933.80665823 0 26980
0.15950000 0.15949700 9333.71515865 0 170.83932856 0 2561.54912982 0 85.06125312 0 -407.04966284 0 27777
0.16050000 0.16050000 9235.19361241 0 192.44918491 0 2683.92046372 0 414.24003058 0 -764.02805839 0 28224
0.16150000 0.16150500 9098.27324370 0 109.26657313 0 2226.33449593 0 308.58126377 0 -501.39583539 0 28075
0.16250000 0.16249700 8921.31534845 0 72.36129656 0 2534.04547497 0 352.98682245 0 -611.86663457 0 28590
0.16350000 0.16349900 8899.95683388 0 203.02657680 0 2521.40088003 0 -7.99993184 0 -416.66597695 0 29163
0.16450000 0.16449100 8669.85177950 0 328.77164807 0 2701.78012365 0 -231.86444679 0 -250.39287515 0 28996
0.16550000 0.16550500 8578.50509974 0 185.98183998 0 2990.90066931 0 -412.67661832 0 285.33934674 0 30777
0.16650000 0.16650700 8458.92399170 0 11.50126668 0 3164.01646785 0 -45.06414057 0 419.48056192 0 29211
0.16750000 0.16749900 8568.60644135 0 -17.31357287 0 3036.54079221 0 397.90613701 0 382.75587496 0 30922
0.16850000 0.16850800 8534.52582556 0 -7.15985241 0 3052.34099973 0 212.16345924 0 53.46382762 0 30867
0.16950000 0.16949900 8537.34926839 0 148.27946674 0 2831.21560078 0 87.29022283 0 -418.24931940 0 30852
0.17050000 0.17049200 8350.14947268 0 258.55096407 0 2852.04264376 0 -196.26138634 0 -167.05812963 0 31257
0.17150000 0.17149500 8182.83557235 0 241.33239175 0 2746.02513362 0 -131.87471029 0 -143.84278618 0 32608
0.17250000 0.17250900 8029.36207804 0 24.20476639 0 2715.77554222 0 -19.44145226 0 -355.06620505 0 32361
0.17350000 0.17350400 8122.25888327 0 -108.79245618 0 2652.90688190 0 428.31516989 0 -195.74209431 0 32508
0.17450000 0.17449800 8080.35013383 0 27.32062932 0 2425.33738990 0 439.74402357 0 -800.29545833 0 32791
0.17550000 0.17549800 8129.20123093 0 82.13317683 0 2192.25388014 0 202.18840182 0 -383.02493245 0 33633
0.17650000 0.17650100 7862.18104560 0 138.11728702 0 2024.62995471 0 138.48378097 0 -365.70892367 0 33984
0.17750000 0.17750300 7883.30704135 0 28.23830360 0 2013.39154502 0 118.10738161 0 -175.44098675 0 34069
