### header ###
fiducial parameters:
Omega_m = 0.31
Omega_nu = 0
Omega_de = 0.69
Omega_k = 0
H_0 = 100
w_de = -1
zeff = 0
beta = 0
fgrowth = 0
b_1 = 2
gamma = 0.55
Lx = 3500 Ly = 3500 Lz = 3500
nx = 700 ny = 700 nz = 700
xoffset = -685.467585 yoffset = -31.7331281 zoffset = 572.489161
bins = 400 dk = 0.001
kx_ny = 0.628318531 ky_ny = 0.628318531 kz_ny = 0.628318531
############################
A(data) = 7.98851577 (not used)
A(ran) = 7.98475174 (used)
Ngal = 474548
weighted Ngal = 0
Nran = 23820508
weighted Nran = 0
SN(data) = 3486.12933
SN(ran) = 69.5500834
SN(data+ran) = 3555.67941
############################
13 columns: k_central k_mean P_0(k) sigma^{lin}_{P_0(k)} P^img_1(k) sigma^{lin}_{P_1(k)} P_2(k) sigma^{lin}_{P_2(k)} P^img_3(k) sigma^{lin}_{P_3(k)} P_4(k) sigma^{lin}_{P_4(k)} N_modes
### header ###
0.00050000 0 0 0 0 0 0 0 0 0 0 0 0
0.00150000 0.00179520 49548.98573319 0 -32562.15716616 0 47975.94054620 0 -24038.79224402 0 -124384.28254771 0 3
0.00250000 0.00253879 76205.93990382 0 -7328.07424100 0 36218.01737478 0 27072.05562809 0 86924.39322126 0 6
0.00350000 0.00331552 61002.75214184 0 26232.77340683 0 34555.72924976 0 -27657.33871800 0 48789.31352738 0 7
0.00450000 0.00420575 37995.90057091 0 35424.57457828 0 3175.79742146 0 12399.67511791 0 33027.08408530 0 24
0.00550000 0.00557378 37608.92281850 0 -27959.28101580 0 -549.56266282 0 32525.28632452 0 -36528.70680920 0 45
0.00650000 0.00659388 48228.50027532 0 -23751.02252198 0 9211.81993472 0 8598.80067114 0 -18215.30300565 0 40
0.00750000 0.00754703 89171.18937346 0 -23209.03222211 0 -43432.74422661 0 19498.47472888 0 -14498.10211754 0 57
0.00850000 0.00846663 72910.37314480 0 -15452.64724015 0 -28478.90521954 0 -20835.01505774 0 -10293.54178020 0 75
0.00950000 0.00948925 107862.04873008 0 -4496.40467490 0 -44676.16630375 0 -27101.06511911 0 -4703.64537853 0 112
0.01050000 0.01054430 86687.44547015 0 5230.68803990 0 -18035.37772735 0 -39197.80142998 0 3801.40591836 0 105
0.01150000 0.01145670 87490.29974275 0 15524.39590498 0 -8374.67467216 0 -18183.52543342 0 -2119.75229723 0 144
0.01250000 0.01249090 76939.81359280 0 7624.86790776 0 8701.66256870 0 -16917.29436716 0 9133.58288755 0 169
0.01350000 0.01339930 75035.92734024 0 -3853.63407453 0 25444.75604949 0 -8257.75092207 0 -7993.06699728 0 180
0.01450000 0.01448870 77593.74509659 0 2690.63029256 0 37462.76813090 0 -6578.72144192 0 -689.27215015 0 267
0.01550000 0.01550050 84464.12264656 0 7097.84739104 0 41828.03219065 0 -9808.83968894 0 -3142.74653187 0 238
0.01650000 0.01653350 73318.16686787 0 -551.83359664 0 44778.91747807 0 -11855.35962982 0 -4901.39709979 0 315
0.01750000 0.01747870 81319.36095157 0 160.57860515 0 39239.98698754 0 1076.48463584 0 -26190.92001902 0 297
0.01850000 0.01844180 81386.34851672 0 5592.90807402 0 46334.80056158 0 5778.53559960 0 -25973.01666659 0 388
0.01950000 0.01947590 80479.41439083 0 -5416.95776033 0 27399.13210323 0 14095.51238713 0 -35961.69305523 0 399
0.02050000 0.02045430 86838.02908768 0 -13884.47387609 0 23379.98891731 0 -1586.90773766 0 -46533.65951532 0 462
0.02150000 0.02154770 90870.12689364 0 4768.93887799 0 26097.69104405 0 -3323.69046406 0 -49830.66567657 0 571
0.02250000 0.02255340 87808.96125103 0 13916.80506456 0 29011.92693631 0 -11681.19196042 0 -38682.93832591 0 510
0.02350000 0.02348930 72234.85060761 0 15348.45666361 0 28414.79645884 0 5650.98241769 0 -14663.96554332 0 555
0.02450000 0.02439640 65811.35208733 0 6540.15653458 0 33375.08725435 0 4388.09519353 0 -11621.95502264 0 592
0.02550000 0.02547300 59252.21758801 0 4023.38388633 0 27769.27992192 0 16480.04826007 0 -16597.08273341 0 837
0.02650000 0.02652900 57033.21297110 0 -1113.32226051 0 25590.68929060 0 13788.47681991 0 -1870.11566187 0 723
0.02750000 0.02749970 58354.91638470 0 -2980.41517771 0 16026.74728200 0 8863.55102987 0 2440.97151254 0 826
0.02850000 0.02848090 60928.89973530 0 -6803.42320179 0 10496.13210741 0 9233.01236442 0 -1815.34087099 0 831
0.02950000 0.02946900 65647.37095676 0 -652.92170777 0 6037.71657896 0 -1433.84391937 0 -4448.26220659 0 996
0.03050000 0.03053250 63069.62301573 0 3865.13822002 0 7092.44409653 0 -5314.40588786 0 -7552.76492854 0 1041
0.03150000 0.03150510 58984.26732740 0 6579.31934746 0 11341.60375824 0 -7812.80954923 0 -2681.08594856 0 1036
0.03250000 0.03246190 54991.80844429 0 4958.36421099 0 14453.81281826 0 -4396.02297810 0 -5415.23047765 0 1059
0.03350000 0.03345080 50256.17511935 0 4060.26580030 0 17512.65327266 0 2558.64818072 0 -1896.89961561 0 1302
0.03450000 0.03451200 47443.47244567 0 2150.40049233 0 23531.67976732 0 2718.75399759 0 -3163.10853722 0 1339
0.03550000 0.03553350 48258.28482908 0 -119.17253926 0 20171.78280111 0 5767.89509545 0 3032.39974273 0 1365
0.03650000 0.03647120 47347.25394300 0 269.45720402 0 22505.93959613 0 2619.70097977 0 5321.85756246 0 1308
0.03750000 0.03744890 45674.89000239 0 1084.02821074 0 20896.46646049 0 2258.36673164 0 7499.97208381 0 1579
0.03850000 0.03847530 46547.38919810 0 -833.95975471 0 21371.02630221 0 496.28042132 0 2016.25927715 0 1662
0.03950000 0.03950240 45866.99483799 0 1439.92262569 0 20421.02083277 0 1449.33410179 0 658.90187040 0 1683
0.04050000 0.04050350 45853.81877146 0 2487.30919191 0 17307.04020078 0 -5078.06711460 0 -3689.97404139 0 1822
0.04150000 0.04152450 42133.40690915 0 2254.08174193 0 12512.50210781 0 -990.76823326 0 -1632.25998012 0 1887
0.04250000 0.04250150 42742.82766716 0 555.81852634 0 12522.02430715 0 357.84425135 0 -5779.27744537 0 1920
0.04350000 0.04349210 40391.73021517 0 -598.75589475 0 10936.01342780 0 3632.56403720 0 -9966.53173901 0 2005
0.04450000 0.04448520 41597.17421818 0 -1045.84972754 0 10205.15141117 0 5223.96713874 0 -13842.62048827 0 2151
0.04550000 0.04548030 42323.07583329 0 236.56797038 0 9126.04263435 0 1597.61467576 0 -13506.57543003 0 2274
0.04650000 0.04648670 40202.50418402 0 2013.97837824 0 10497.73759451 0 -2415.58267174 0 -5300.99730250 0 2311
0.04750000 0.04749250 40628.34579655 0 1837.24192948 0 13861.00054747 0 -2555.26004932 0 -546.76468633 0 2568
0.04850000 0.04851840 39049.76444715 0 104.85801628 0 11716.73412309 0 1640.14347539 0 2438.48023946 0 2493
0.04950000 0.04949480 39494.31828862 0 -323.23548566 0 15590.16551440 0 4543.04130704 0 6620.45303416 0 2644
0.05050000 0.05050630 40783.80123700 0 -946.25859472 0 12919.07787515 0 7353.20841834 0 3306.25155247 0 2829
0.05150000 0.05149060 39885.28207797 0 1673.03935242 0 12621.34306077 0 5521.67980846 0 6821.11677685 0 2784
0.05250000 0.05249300 38180.36550239 0 1243.72102990 0 9231.63939614 0 29.99138479 0 6611.01941342 0 3055
0.05350000 0.05348950 36841.27853883 0 2032.01519537 0 7165.87575473 0 704.94945486 0 7926.10157678 0 3009
0.05450000 0.05448610 35728.06700156 0 778.10984110 0 9080.52430702 0 -5074.49075368 0 5696.22393690 0 3336
0.05550000 0.05550870 35849.97329781 0 -491.54146630 0 11206.96428844 0 -2417.49818393 0 2211.35364046 0 3349
0.05650000 0.05647670 34538.67786954 0 898.31099933 0 10842.10904102 0 -1157.09116052 0 1065.62379243 0 3324
0.05750000 0.05747970 35668.94078703 0 282.98979941 0 12881.65341726 0 -823.99244791 0 -1344.22452228 0 3639
0.05850000 0.05849280 34766.87848405 0 -482.70685833 0 13464.16842597 0 -815.89968570 0 -936.59577685 0 3846
0.05950000 0.05951020 36713.61463367 0 318.42456053 0 14342.64667708 0 0.43815404 0 -4125.10533443 0 3787
0.06050000 0.06049470 35031.94994021 0 589.44960574 0 14072.14978176 0 710.96172723 0 -780.43945824 0 3930
0.06150000 0.06148310 34259.21239112 0 1569.18094562 0 13659.70568227 0 1573.89775600 0 -1112.74649962 0 4083
0.06250000 0.06249100 34074.30456665 0 963.50041893 0 12835.70326926 0 2973.86036142 0 805.51827395 0 4303
0.06350000 0.06350600 32106.30955338 0 518.11172417 0 12425.58435798 0 4642.49292856 0 443.39014013 0 4470
0.06450000 0.06451750 31576.38808756 0 742.87881075 0 10899.03186291 0 2756.07880456 0 2285.52714442 0 4479
0.06550000 0.06550280 31060.08558127 0 1193.61876010 0 9368.36046301 0 3207.82965716 0 2913.22831071 0 4636
0.06650000 0.06648880 30656.72078812 0 1419.47204175 0 9809.86941515 0 -127.46017438 0 4783.65399767 0 4653
0.06750000 0.06749660 28505.25735261 0 839.79265543 0 7379.97022742 0 84.38883084 0 5808.51945521 0 5220
0.06850000 0.06852730 28645.87587781 0 657.93414921 0 9362.84644525 0 -868.15441545 0 4140.55122756 0 5029
0.06950000 0.06949320 27730.52678505 0 1076.62857607 0 9271.20081272 0 -813.46931040 0 4043.90090421 0 5040
0.07050000 0.07048030 27212.00981379 0 640.67128759 0 8909.85549227 0 972.15786970 0 2995.38496086 0 5475
0.07150000 0.07148790 26707.77614155 0 79.26422674 0 8131.48212984 0 609.57577057 0 4351.15791793 0 5509
0.07250000 0.07249820 26675.44495308 0 -539.90870281 0 8393.71907084 0 1998.96430578 0 2154.02114254 0 5916
0.07350000 0.07351270 27037.50997465 0 -323.34620891 0 8131.88073353 0 -588.64907666 0 731.39902438 0 5721
0.07450000 0.07449140 26776.53527868 0 603.00988195 0 7859.25795185 0 -370.20096585 0 -179.31740767 0 6028
0.07550000 0.07549160 26415.13459660 0 497.75193329 0 7744.49330510 0 -1290.90020596 0 676.96747557 0 6183
0.07650000 0.07648840 25614.60551221 0 638.56865310 0 8136.17679556 0 301.82825286 0 1102.02848920 0 6330
0.07750000 0.07749960 25785.56220741 0 449.82537531 0 8895.22895118 0 945.12811036 0 86.86449194 0 6583
0.07850000 0.07848650 25236.70706615 0 4.23805412 0 8023.28337171 0 1100.97883281 0 -711.69360790 0 6549
0.07950000 0.07947320 25180.57037932 0 270.71169842 0 7518.83932530 0 -583.65767263 0 -1491.16534495 0 6828
0.08050000 0.08048110 25152.77884402 0 502.70569142 0 7631.42272405 0 24.26367116 0 -6.57045042 0 7147
0.08150000 0.08149960 25096.97432694 0 222.54708546 0 7932.80033329 0 619.25076799 0 794.53674220 0 7386
0.08250000 0.08250610 24811.19762337 0 295.22582557 0 6258.72018234 0 745.71775484 0 -263.77710139 0 7227
0.08350000 0.08350160 24257.58138243 0 970.00540976 0 8024.92207578 0 -206.72141160 0 -1077.17333445 0 7798
0.08450000 0.08449610 23254.53947711 0 1535.32177633 0 7771.19975257 0 435.27301881 0 -784.00031790 0 7371
0.08550000 0.08548940 22035.69796108 0 1099.66565508 0 7262.42642715 0 326.74098370 0 283.42937071 0 8256
0.08650000 0.08650700 21115.47704540 0 381.59217362 0 7271.33964863 0 1650.23036330 0 434.12371149 0 8037
0.08750000 0.08749060 21458.60839153 0 -577.51696129 0 6936.90007748 0 1687.59945956 0 810.21958307 0 8155
0.08850000 0.08849210 21416.86572696 0 2.07765532 0 6314.20360200 0 1659.56433312 0 -811.01789769 0 8718
0.08950000 0.08949900 20714.76961021 0 924.60334184 0 5392.01181251 0 -427.11271541 0 194.41673703 0 8571
0.09050000 0.09049190 20527.42587428 0 666.06345009 0 5797.50249202 0 -1433.13529058 0 92.27055454 0 8932
0.09150000 0.09150830 19521.06227151 0 734.38190869 0 5962.34726392 0 -181.43443618 0 449.97153000 0 9285
0.09250000 0.09250820 19152.13240856 0 126.62421386 0 5375.84621827 0 -105.49943606 0 -321.62003347 0 9204
0.09350000 0.09350330 19331.39334737 0 -98.63282310 0 5547.24580647 0 823.49862222 0 -898.66863542 0 9349
0.09450000 0.09448040 19042.84856260 0 221.28373320 0 4361.99772393 0 1358.81784639 0 -1076.42152359 0 9564
0.09550000 0.09549270 18583.78997562 0 4.09604048 0 3723.95500626 0 1152.66223060 0 -837.17294338 0 10155
0.09650000 0.09649430 18747.66038293 0 173.04161396 0 3112.19798770 0 469.05357459 0 -1353.23739469 0 9913
0.09750000 0.09749140 18381.83077092 0 302.82365486 0 4129.72249388 0 633.99024679 0 -598.79464789 0 10476
0.09850000 0.09850240 18017.77273089 0 577.50256726 0 4054.65213161 0 -260.04129899 0 731.31044578 0 10575
0.09950000 0.09950330 17718.70923754 0 825.36320172 0 4668.03678192 0 -360.41081624 0 976.11733306 0 10882
0.10050000 0.10051200 17444.55847503 0 400.63989401 0 5201.83356142 0 -290.67842177 0 2110.17473626 0 10875
0.10150000 0.10150300 17076.84656780 0 225.56097228 0 5643.49752612 0 140.50115855 0 2323.59379714 0 11118
0.10250000 0.10250800 17172.73290073 0 309.43826171 0 5900.09865379 0 105.05665379 0 2241.65859348 0 11575
0.10350000 0.10349800 16550.68969242 0 148.33372113 0 5472.03150397 0 -50.82916793 0 2215.71613643 0 11364
0.10450000 0.10450100 16492.11709413 0 58.71576345 0 5107.49735397 0 -12.55346971 0 914.16324677 0 12093
0.10550000 0.10551000 16678.79649057 0 153.20111512 0 5322.14544290 0 -691.45671983 0 -200.25517390 0 12067
0.10650000 0.10649700 16133.59521650 0 466.68077539 0 5231.19736684 0 -225.64180025 0 -1122.53443476 0 12054
0.10750000 0.10749900 15506.12656903 0 760.71632604 0 5060.83857718 0 -593.47107412 0 -938.46810698 0 12807
0.10850000 0.10850100 15168.53138530 0 403.28396517 0 5298.86034381 0 87.92732440 0 -904.29669812 0 12736
0.10950000 0.10950300 14995.13877864 0 -308.17712391 0 5304.36328924 0 1008.43634197 0 -1298.37402521 0 12933
0.11050000 0.11050200 15405.92202942 0 -439.21033751 0 5120.20838286 0 697.75133649 0 -1802.59662513 0 13428
0.11150000 0.11150900 15555.61986096 0 215.82064813 0 5113.36568612 0 -192.37389310 0 -1613.10485818 0 13453
0.11250000 0.11250000 15461.28365351 0 357.18766249 0 5697.25366311 0 -454.03175151 0 -689.87005569 0 13668
0.11350000 0.11349100 15247.91995425 0 335.60216525 0 5520.47292506 0 -1049.57667207 0 -1051.19766042 0 13791
0.11450000 0.11448600 15310.92148247 0 218.91093399 0 6385.54259081 0 -228.60032544 0 -553.99823614 0 14205
0.11550000 0.11549300 15000.23204806 0 180.11682952 0 6252.55289741 0 2.48492864 0 -1355.34113640 0 14776
0.11650000 0.11649800 15084.49243993 0 128.00050383 0 6080.42253578 0 666.76654272 0 -772.55707020 0 14553
0.11750000 0.11747300 14771.58854056 0 101.57130738 0 5993.27226714 0 459.46826300 0 -1046.54174784 0 14568
0.11850000 0.11849100 14395.90455946 0 501.52427436 0 5389.74198592 0 1050.12918108 0 -711.20753284 0 16015
0.11950000 0.11950300 14032.62158216 0 471.33779520 0 5418.25322233 0 1367.54283835 0 -12.53719339 0 15270
0.12050000 0.12050700 13572.01286970 0 242.95891626 0 4368.53039557 0 1287.58958084 0 -540.63283285 0 15999
0.12150000 0.12150000 13199.31841631 0 201.70454122 0 3953.40679347 0 1015.82711879 0 911.83362963 0 15670
0.12250000 0.12250700 13098.67098371 0 211.70285053 0 3281.91458252 0 375.22890855 0 489.59938053 0 16887
0.12350000 0.12352200 13090.92035633 0 -177.43068352 0 3184.54455807 0 41.27751620 0 719.51177646 0 16407
0.12450000 0.12449800 13278.81770851 0 -243.57785922 0 3004.80750928 0 -93.82953787 0 117.27917171 0 16306
0.12550000 0.12549900 13242.94337609 0 222.75303070 0 3418.98996378 0 -928.03686977 0 91.46958256 0 17523
0.12650000 0.12650100 13005.33128549 0 546.25314493 0 3874.17323707 0 -827.70389119 0 67.09352730 0 17154
0.12750000 0.12750600 12798.61098112 0 388.49244645 0 4075.76705504 0 -369.59641691 0 353.88368076 0 18007
0.12850000 0.12850300 12569.19241088 0 200.49322889 0 4240.02499373 0 132.55676550 0 367.61004184 0 17496
0.12950000 0.12949900 12641.71613844 0 -55.00210571 0 4453.14510184 0 147.97276334 0 -335.75939227 0 18405
0.13050000 0.13049000 12546.16197526 0 126.64746574 0 4374.49837865 0 335.96644474 0 -19.42993704 0 18100
0.13150000 0.13148800 12468.54497828 0 195.28148559 0 4177.06775481 0 70.01761756 0 -421.82789478 0 19059
0.13250000 0.13249300 12325.26909512 0 62.13666893 0 3903.21594507 0 608.98450842 0 469.76773955 0 18957
0.13350000 0.13349100 12270.12891753 0 -27.32184728 0 3682.83239188 0 617.46148030 0 -353.80285279 0 19468
0.13450000 0.13450700 12245.10546344 0 -52.91464031 0 3421.86876823 0 397.39681007 0 265.83101764 0 19953
0.13550000 0.13551000 12195.05855526 0 137.67993019 0 3444.75526363 0 470.98901697 0 -193.88415820 0 19956
0.13650000 0.13649900 11991.77067159 0 306.48859438 0 3184.35632854 0 -32.67155174 0 17.72767782 0 19723
0.13750000 0.13749600 11920.46489975 0 195.07554035 0 3342.83451367 0 -25.01371044 0 213.42459704 0 20946
0.13850000 0.13851100 11594.49565709 0 230.54905461 0 3036.69580476 0 98.73812091 0 351.41676679 0 20955
0.13950000 0.13949800 11591.28468290 0 384.53519756 0 3219.28951335 0 -5.89845995 0 371.25948010 0 20506
0.14050000 0.14048300 11113.18169723 0 228.73319334 0 3027.42826889 0 234.35793434 0 118.37533187 0 21447
0.14150000 0.14148400 11058.92730562 0 162.65023712 0 2816.43404714 0 219.88529857 0 150.62901407 0 21771
0.14250000 0.14249400 10869.96701026 0 116.60043820 0 3016.94277729 0 -152.24889519 0 -357.75899445 0 22470
0.14350000 0.14350900 10747.59567637 0 124.12076122 0 3099.25443999 0 -55.03665136 0 -244.58101185 0 22519
0.14450000 0.14449900 10672.21528900 0 170.59352295 0 3011.47304883 0 -351.89952015 0 -251.79130977 0 22218
0.14550000 0.14550500 10531.82928262 0 175.58049804 0 3282.31318621 0 -295.27011487 0 34.39340897 0 23559
0.14650000 0.14650700 10424.17306841 0 174.41790394 0 3369.51881649 0 192.44364874 0 -40.06133204 0 23044
0.14750000 0.14750500 10384.21304814 0 14.74202543 0 3148.36020056 0 331.29613813 0 -130.57703382 0 23649
0.14850000 0.14849900 10356.26650030 0 106.47225052 0 2974.15931419 0 392.69771541 0 -154.82210347 0 23640
0.14950000 0.14949500 10142.29382318 0 305.12559119 0 3198.55104896 0 -143.94465157 0 -498.78941013 0 24457
0.15050000 0.15050000 9871.96301273 0 420.91221352 0 3062.07357325 0 13.33683669 0 -36.17483531 0 24591
0.15150000 0.15149900 9528.10089316 0 204.29546523 0 3185.56321195 0 68.85369478 0 124.68434255 0 25020
0.15250000 0.15250500 9544.10040253 0 -3.90984827 0 2994.36630698 0 321.97877680 0 409.37817275 0 25297
0.15350000 0.15350100 9622.20458180 0 -128.68809520 0 3143.98663225 0 597.55122581 0 291.37819270 0 25452
0.15450000 0.15450400 9669.30625158 0 -96.84253890 0 2640.81590320 0 656.08949990 0 278.87310904 0 26061
0.15550000 0.15549900 9714.31525196 0 148.71128741 0 2605.99344164 0 203.79388891 0 425.68327828 0 26128
0.15650000 0.15649500 9531.78797733 0 92.29945330 0 2323.12875950 0 217.69187103 0 408.97956906 0 26331
0.15750000 0.15749700 9404.97664118 0 328.59449088 0 2587.21477875 0 -297.07047488 0 444.20174154 0 27345
0.15850000 0.15849900 9071.47821764 0 391.40668234 0 2604.52082244 0 -253.20303119 0 338.03696948 0 26980
0.15950000 0.15949700 8824.18891514 0 215.89261824 0 2837.64862150 0 54.28506195 0 592.53989160 0 27777
0.16050000 0.16050000 8816.99190401 0 24.73413424 0 2484.53003838 0 290.22999261 0 389.78458675 0 28224
0.16150000 0.16150500 8702.54835469 0 56.38282461 0 2389.56270841 0 152.15256596 0 157.21151117 0 28075
0.16250000 0.16249700 8940.81371246 0 -117.62573548 0 2457.32533630 0 97.16363632 0 448.63952933 0 28590
0.16350000 0.16349900 8857.14015380 0 -109.61468703 0 2512.69803272 0 -104.81106963 0 84.23293250 0 29163
0.16450000 0.16449100 8938.93141724 0 80.41198393 0 2616.26855907 0 -562.03342226 0 125.77164485 0 28996
0.16550000 0.16550500 8871.00270448 0 232.50331994 0 2754.93835510 0 -348.72287016 0 42.54009340 0 30777
0.16650000 0.16650700 8833.46752334 0 209.75412136 0 2894.03997180 0 -109.69817235 0 214.72780967 0 29211
0.16750000 0.16749900 8560.35755936 0 210.84695982 0 2716.16307359 0 155.71231839 0 -21.29540232 0 30922
0.16850000 0.16850800 8515.49249920 0 70.36185614 0 2825.84552324 0 576.13734961 0 145.65200406 0 30867
0.16950000 0.16949900 8468.92230101 0 -4.27991858 0 2666.61442002 0 403.57738178 0 22.55366132 0 30852
0.17050000 0.17049200 8369.96893411 0 47.29311027 0 2455.71984920 0 569.60135627 0 96.56074823 0 31257
0.17150000 0.17149500 8407.50411524 0 100.94417091 0 2194.66764695 0 39.27885085 0 318.65486489 0 32608
0.17250000 0.17250900 8209.87418956 0 117.47404463 0 2120.05125000 0 145.53795911 0 470.03679704 0 32361
0.17350000 0.17350400 8112.40451418 0 141.83648093 0 2088.11866522 0 -54.70337438 0 436.02261520 0 32508
0.17450000 0.17449800 8085.47662022 0 71.69108874 0 2182.11163061 0 11.13266899 0 585.09375316 0 32791
0.17550000 0.17549800 7987.07686955 0 79.30729809 0 2293.91996663 0 51.84040335 0 344.50431441 0 33633
0.17650000 0.17650100 8074.61466957 0 29.53310127 0 1943.51410309 0 166.04279745 0 343.69492746 0 33984
0.17750000 0.17750300 8010.32875167 0 -3.27424146 0 2049.64233648 0 135.31266714 0 256.96097823 0 34069
0.17850000 0.17849800 7960.84653206 0 78.97247098 0 1962.51421248 0 252.57301590 0 256.57344686 0 34536
