### header ###
fiducial parameters:
Omega_m = 0.31
Omega_nu = 0
Omega_de = 0.69
Omega_k = 0
H_0 = 100
w_de = -1
zeff = 0
beta = 0
fgrowth = 0
b_1 = 2
gamma = 0.55
Lx = 3500 Ly = 3500 Lz = 3500
nx = 700 ny = 700 nz = 700
xoffset = -685.467585 yoffset = -31.7331281 zoffset = 572.489161
bins = 400 dk = 0.001
kx_ny = 0.628318531 ky_ny = 0.628318531 kz_ny = 0.628318531
############################
A(data) = 8.01608599 (not used)
A(ran) = 8.00867489 (used)
Ngal = 475850
weighted Ngal = 0
Nran = 23820508
weighted Nran = 0
SN(data) = 3494.53368
SN(ran) = 69.7584628
SN(data+ran) = 3564.29215
############################
13 columns: k_central k_mean P_0(k) sigma^{lin}_{P_0(k)} P^img_1(k) sigma^{lin}_{P_1(k)} P_2(k) sigma^{lin}_{P_2(k)} P^img_3(k) sigma^{lin}_{P_3(k)} P_4(k) sigma^{lin}_{P_4(k)} N_modes
### header ###
0.00050000 0 0 0 0 0 0 0 0 0 0 0 0
0.00150000 0.00179520 28206.19385926 0 -23198.62423678 0 22056.51393174 0 -59902.60594785 0 -31352.83784947 0 3
0.00250000 0.00253879 36607.98465490 0 131.16608150 0 3254.90918229 0 24522.76356184 0 90367.88623986 0 6
0.00350000 0.00331552 43402.51677986 0 -2715.05584111 0 3650.32404621 0 -21059.78325156 0 -22495.42088755 0 7
0.00450000 0.00420575 37438.07684655 0 -9103.84262309 0 -20820.06741924 0 14291.93542941 0 34286.11814043 0 24
0.00550000 0.00557378 63283.54033123 0 -33759.62909530 0 -25760.98164631 0 6515.74205835 0 -40085.69115719 0 45
0.00650000 0.00659388 87705.10284423 0 -39724.95481459 0 -23591.91321434 0 -15293.87010225 0 4091.14651422 0 40
0.00750000 0.00754703 102615.42761476 0 8866.77307640 0 4466.96336321 0 -38706.85454752 0 -12213.99223070 0 57
0.00850000 0.00846663 89715.72630805 0 19241.37534660 0 -2173.55272352 0 -49264.75915509 0 6365.37988732 0 75
0.00950000 0.00948925 69768.93314725 0 13658.81989628 0 13720.04985253 0 -23491.59795148 0 16353.49158740 0 112
0.01050000 0.01054430 77539.49070498 0 8154.62328871 0 31882.98076179 0 -7390.55536995 0 -15970.05697893 0 105
0.01150000 0.01145670 79276.73846903 0 -16.65709473 0 65015.25193286 0 -15061.24055781 0 -8629.03919021 0 144
0.01250000 0.01249090 78465.57995281 0 7316.55902319 0 64536.59533095 0 -8242.26073965 0 -13721.93214775 0 169
0.01350000 0.01339930 82127.86210983 0 -3370.95821871 0 77898.67692210 0 -12535.08965044 0 -266.07460879 0 180
0.01450000 0.01448870 84856.74728463 0 -540.01499713 0 86571.07533630 0 7596.94350457 0 -7700.91263462 0 267
0.01550000 0.01550050 95211.14256204 0 1639.76701634 0 87808.85052778 0 25336.57943601 0 -5645.04765159 0 238
0.01650000 0.01653350 90397.11717739 0 1886.49163028 0 70744.62641027 0 27474.42391200 0 -8605.75409112 0 315
0.01750000 0.01747870 81299.98438314 0 4919.64429110 0 46369.34621502 0 30734.55923160 0 -18867.46293747 0 297
0.01850000 0.01844180 87266.41733491 0 -1006.86075015 0 46004.73455874 0 18666.83241176 0 -33525.22797889 0 388
0.01950000 0.01947590 75641.69423106 0 4472.83169536 0 26236.64872052 0 14871.01801743 0 -18883.62853170 0 399
0.02050000 0.02045430 72229.64661495 0 4864.33802863 0 18106.68349918 0 3209.34656566 0 -31946.97879924 0 462
0.02150000 0.02154770 67746.57301913 0 1697.63098584 0 7846.22582554 0 -3356.69706435 0 -25249.66168619 0 571
0.02250000 0.02255340 68964.63947243 0 -4072.42321295 0 5136.92759334 0 3656.56883741 0 -17974.03704785 0 510
0.02350000 0.02348930 70287.22867202 0 -8862.60988226 0 -9547.94249924 0 4016.23116449 0 -26597.27433986 0 555
0.02450000 0.02439640 79918.26896902 0 -10908.36583273 0 -72.02901609 0 1187.71721097 0 -35152.19538774 0 592
0.02550000 0.02547300 83048.41519525 0 -462.39357122 0 -1087.11296044 0 -9838.45815783 0 -38031.66418008 0 837
0.02650000 0.02652900 81263.44571124 0 12401.77885962 0 2652.87366492 0 -18889.16469411 0 -34499.92473268 0 723
0.02750000 0.02749970 70250.35783037 0 10338.48434664 0 5014.44553619 0 -17923.76869318 0 -23751.68686147 0 826
0.02850000 0.02848090 62103.11978231 0 11440.03672587 0 14148.10593002 0 -11568.47569377 0 -17257.98980183 0 831
0.02950000 0.02946900 55781.26520386 0 6882.55710727 0 20250.39630732 0 1653.76243491 0 -22605.25834975 0 996
0.03050000 0.03053250 55345.79066874 0 1792.94155788 0 28308.16997084 0 695.81589411 0 -19852.89984633 0 1041
0.03150000 0.03150510 54257.38113907 0 -2433.79664606 0 24792.37467118 0 7986.26858984 0 -7830.03808665 0 1036
0.03250000 0.03246190 54700.93847130 0 -4006.59824190 0 25524.36606494 0 5915.66634248 0 -4017.34946930 0 1059
0.03350000 0.03345080 63604.74847422 0 -2807.36581312 0 26957.12489647 0 9774.88086872 0 -1277.74628407 0 1302
0.03450000 0.03451200 63285.09045670 0 -1070.25534590 0 25278.00683772 0 5109.29107059 0 -757.96928225 0 1339
0.03550000 0.03553350 61353.30194559 0 3545.22553903 0 22212.08009544 0 -1617.02446116 0 5312.15820592 0 1365
0.03650000 0.03647120 58097.92772566 0 3090.79518383 0 21287.31952658 0 1789.23232907 0 -1528.16905450 0 1308
0.03750000 0.03744890 55575.43068548 0 5792.98498349 0 22906.20413832 0 -3259.49312476 0 -5491.51879565 0 1579
0.03850000 0.03847530 49636.12492951 0 3429.06577936 0 19503.45727505 0 810.84516942 0 -9471.22236057 0 1662
0.03950000 0.03950240 48896.93652462 0 1795.85357931 0 19559.15106889 0 -1838.63704241 0 -9144.15695775 0 1683
0.04050000 0.04050350 48398.01756829 0 339.93698042 0 18924.48541029 0 -908.18640583 0 -13942.49285814 0 1822
0.04150000 0.04152450 46447.73827473 0 2750.75301632 0 21613.51021574 0 353.51497234 0 -14095.18021738 0 1887
0.04250000 0.04250150 43892.35642984 0 2489.66759710 0 18849.96866426 0 -938.65412204 0 -9145.19775629 0 1920
0.04350000 0.04349210 43543.91036779 0 64.68197496 0 18560.64881675 0 3776.26066870 0 -6219.29163366 0 2005
0.04450000 0.04448520 42955.41630368 0 -456.55291987 0 19479.09816045 0 5768.11654195 0 -6956.44273079 0 2151
0.04550000 0.04548030 43708.88800759 0 -567.51090135 0 16582.79943439 0 6791.32115076 0 -2770.33995892 0 2274
0.04650000 0.04648670 43681.42864204 0 480.49239337 0 13659.81640552 0 1913.40845191 0 -3937.40728411 0 2311
0.04750000 0.04749250 41434.07887360 0 1877.00264791 0 12878.77461281 0 1229.16092277 0 -3419.82038814 0 2568
0.04850000 0.04851840 39987.81180579 0 2744.47500815 0 11834.76510566 0 545.68070573 0 -3468.57183431 0 2493
0.04950000 0.04949480 37431.21200516 0 1714.79308931 0 11126.24704051 0 1970.76309447 0 740.17605627 0 2644
0.05050000 0.05050630 35828.16081792 0 1352.71699542 0 11446.45867427 0 2385.03412756 0 2424.58447181 0 2829
0.05150000 0.05149060 35204.34603764 0 -269.86577280 0 8737.29330997 0 3705.55280241 0 2686.28994123 0 2784
0.05250000 0.05249300 35913.08554928 0 -121.80885979 0 9249.29975423 0 1662.67565639 0 2562.77815787 0 3055
0.05350000 0.05348950 35641.81359122 0 1049.76268713 0 8448.43850010 0 299.59496494 0 3501.97703829 0 3009
0.05450000 0.05448610 34844.27403454 0 481.48668813 0 10187.73464424 0 -1516.07807579 0 3141.05246618 0 3336
0.05550000 0.05550870 35202.68518891 0 918.24672016 0 12687.11267020 0 66.79435308 0 7919.60212211 0 3349
0.05650000 0.05647670 34177.16646421 0 973.47326189 0 11805.31272164 0 1158.57485205 0 4418.80982257 0 3324
0.05750000 0.05747970 33672.26845248 0 41.01465921 0 10602.72537844 0 398.71773842 0 6153.73239841 0 3639
0.05850000 0.05849280 33791.84956052 0 -236.34320218 0 10113.70508050 0 2135.59679405 0 4171.08869941 0 3846
0.05950000 0.05951020 34934.62420506 0 -836.90499311 0 10389.38382383 0 -880.18228190 0 1610.40321092 0 3787
0.06050000 0.06049470 34695.68343547 0 918.56338865 0 9928.15506119 0 -1843.85210740 0 1958.91570691 0 3930
0.06150000 0.06148310 33842.78225469 0 1094.34208131 0 11150.05253887 0 -1960.41047077 0 210.51811178 0 4083
0.06250000 0.06249100 32978.58730259 0 1582.58953098 0 12380.96288896 0 194.66475710 0 1452.11325532 0 4303
0.06350000 0.06350600 33407.86133581 0 -386.38649027 0 14126.29345013 0 387.53801205 0 -1304.35308061 0 4470
0.06450000 0.06451750 32278.59492756 0 726.99002464 0 14227.16232922 0 1528.46800727 0 219.94730359 0 4479
0.06550000 0.06550280 32465.93866349 0 700.24925297 0 13102.76774389 0 34.32442838 0 -2161.10743043 0 4636
0.06650000 0.06648880 31601.52226490 0 499.54564991 0 14928.92627623 0 2183.35173099 0 1227.93189471 0 4653
0.06750000 0.06749660 31374.87177586 0 89.63932727 0 14386.05019037 0 224.10939049 0 1708.37114092 0 5220
0.06850000 0.06852730 31939.33889512 0 -120.05500354 0 14153.75281568 0 2600.08082019 0 49.16112219 0 5029
0.06950000 0.06949320 31441.30572477 0 361.30656732 0 12477.18139164 0 -21.88345349 0 1765.53755396 0 5040
0.07050000 0.07048030 31254.29415859 0 1081.43396504 0 13260.54837256 0 -652.59175249 0 2040.65160873 0 5475
0.07150000 0.07148790 31242.66821753 0 1039.25615811 0 13838.85589783 0 -969.43407780 0 1238.43953097 0 5509
0.07250000 0.07249820 29494.56957516 0 1255.47983886 0 15322.76887003 0 -494.13792647 0 1166.91231264 0 5916
0.07350000 0.07351270 28782.06547308 0 2148.82822220 0 15855.90131005 0 -1147.44716561 0 456.19085485 0 5721
0.07450000 0.07449140 27492.36107820 0 989.49602314 0 15860.10879348 0 386.50164244 0 3476.47747423 0 6028
0.07550000 0.07549160 26294.66770257 0 555.37009718 0 14441.52253771 0 2987.06964492 0 1918.74531247 0 6183
0.07650000 0.07648840 25986.19273312 0 -394.37517262 0 13115.05802444 0 3725.84837380 0 2766.97397218 0 6330
0.07750000 0.07749960 26227.56941417 0 -540.97386045 0 11361.20177316 0 4286.41803472 0 590.22799018 0 6583
0.07850000 0.07848650 26533.82991865 0 4.87383808 0 10021.52797638 0 2847.91266660 0 842.62384888 0 6549
0.07950000 0.07947320 25629.66387396 0 53.77695297 0 7466.06862521 0 134.48224278 0 -502.79316278 0 6828
0.08050000 0.08048110 25961.39072553 0 638.22098210 0 8294.84321021 0 -1198.46843837 0 794.70504153 0 7147
0.08150000 0.08149960 25234.49260118 0 906.05719777 0 8505.97029986 0 -2070.60224736 0 1012.82984046 0 7386
0.08250000 0.08250610 24718.07937164 0 440.74496173 0 9661.79921535 0 -535.84515960 0 914.68807497 0 7227
0.08350000 0.08350160 24685.52673668 0 -288.26908389 0 9177.48465546 0 785.74531629 0 497.51387831 0 7798
0.08450000 0.08449610 24613.11373236 0 -234.31143058 0 8667.31621711 0 839.69632620 0 -1103.79231054 0 7371
0.08550000 0.08548940 23851.33778484 0 1285.57441772 0 9421.21974169 0 584.31647596 0 986.37141307 0 8256
0.08650000 0.08650700 22986.81066300 0 1751.96288373 0 8704.88461522 0 1560.73276179 0 117.75860338 0 8037
0.08750000 0.08749060 21829.97416595 0 360.28902067 0 6341.89548638 0 1096.14022686 0 1641.37250344 0 8155
0.08850000 0.08849210 21237.27261840 0 186.48009460 0 6482.15969718 0 1306.30180978 0 185.61091710 0 8718
0.08950000 0.08949900 21339.91306947 0 -152.34633164 0 5448.10421004 0 1041.82272300 0 -208.78197125 0 8571
0.09050000 0.09049190 21217.34243373 0 365.74324787 0 5657.31578749 0 -177.02211474 0 -1189.78773571 0 8932
0.09150000 0.09150830 20443.82982190 0 933.95613462 0 4999.66398256 0 -486.14592242 0 -1116.63288564 0 9285
0.09250000 0.09250820 19815.25394195 0 548.09115085 0 5644.40545675 0 -1109.35836823 0 -1445.66916227 0 9204
0.09350000 0.09350330 19612.85184426 0 592.83552267 0 6667.68757184 0 -1036.84460576 0 -2418.79364593 0 9349
0.09450000 0.09448040 19219.56286670 0 99.69942015 0 7669.27900261 0 -370.05702562 0 -1221.52101864 0 9564
0.09550000 0.09549270 19378.00783486 0 251.21554888 0 7125.18496102 0 347.52484462 0 -1916.86301725 0 10155
0.09650000 0.09649430 19324.52850598 0 57.84027473 0 7884.79073288 0 649.17926198 0 -631.40485895 0 9913
0.09750000 0.09749140 19320.87463879 0 -215.26260296 0 6795.72793604 0 1079.17521077 0 -935.29034976 0 10476
0.09850000 0.09850240 19188.89252696 0 249.47497942 0 7327.93030078 0 1179.20259319 0 -548.02693136 0 10575
0.09950000 0.09950330 18760.61500297 0 507.08922481 0 5706.77586245 0 747.73291796 0 -1294.52085617 0 10882
0.10050000 0.10051200 18181.75386145 0 579.70263821 0 5841.34889830 0 507.06375846 0 -536.46853149 0 10875
0.10150000 0.10150300 17777.28183583 0 313.90815924 0 4959.47144347 0 541.63044932 0 -662.53359294 0 11118
0.10250000 0.10250800 17485.63680010 0 183.43852697 0 4936.71781597 0 671.84209642 0 -348.10392721 0 11575
0.10350000 0.10349800 17071.53185189 0 573.60621616 0 4289.88367239 0 432.21594992 0 -454.78577683 0 11364
0.10450000 0.10450100 17061.89892929 0 51.34547044 0 4326.34483801 0 3.63114678 0 -359.38219727 0 12093
0.10550000 0.10551000 16768.37159835 0 331.38582396 0 4578.37309554 0 227.97252462 0 515.52522909 0 12067
0.10650000 0.10649700 17072.63908437 0 139.83792630 0 4967.27743247 0 -424.73991621 0 258.39927322 0 12054
0.10750000 0.10749900 16806.90328872 0 53.35554028 0 5340.37048956 0 62.68153803 0 1398.08031020 0 12807
0.10850000 0.10850100 16988.71086224 0 22.61367332 0 5515.80040398 0 -91.25588669 0 1607.14794743 0 12736
0.10950000 0.10950300 16750.76660189 0 141.85751834 0 5742.99343694 0 797.65360163 0 1123.80775212 0 12933
0.11050000 0.11050200 16793.17360594 0 454.49568192 0 5823.98749298 0 -630.87670905 0 781.86668091 0 13428
0.11150000 0.11150900 16230.25661216 0 793.82036278 0 6187.65800165 0 -300.97014769 0 165.82467265 0 13453
0.11250000 0.11250000 15373.25867120 0 570.17933163 0 5689.62483131 0 -499.05514592 0 1017.43924928 0 13668
0.11350000 0.11349100 15094.45753227 0 522.04350671 0 6157.07624050 0 -88.93867055 0 195.76645342 0 13791
0.11450000 0.11448600 14919.29335364 0 -136.79303697 0 5738.50914538 0 292.41345507 0 -45.44259263 0 14205
0.11550000 0.11549300 15046.40364255 0 -298.06144796 0 5776.94118483 0 941.83187926 0 196.44629416 0 14776
0.11650000 0.11649800 15075.63458008 0 -110.94912361 0 4944.98884261 0 1002.48939631 0 53.59957432 0 14553
0.11750000 0.11747300 14874.78260787 0 318.30055049 0 5252.22371167 0 628.83275789 0 435.61183195 0 14568
0.11850000 0.11849100 14939.66643130 0 544.95546846 0 4833.41302541 0 559.42921146 0 978.38383795 0 16015
0.11950000 0.11950300 14274.21970970 0 258.12910850 0 4770.09039977 0 316.00636479 0 1931.88816203 0 15270
0.12050000 0.12050700 14185.86255765 0 65.84279749 0 4590.49729121 0 465.03874962 0 1709.57802432 0 15999
0.12150000 0.12150000 14236.57380532 0 81.98513984 0 4782.75713936 0 270.15365325 0 1291.65312404 0 15670
0.12250000 0.12250700 13908.94371394 0 294.80839892 0 4486.08526817 0 28.03556933 0 1224.28909985 0 16887
0.12350000 0.12352200 13673.54608829 0 251.31962873 0 4098.91928624 0 -63.59179385 0 1302.50400237 0 16407
0.12450000 0.12449800 13674.87476727 0 -130.06659964 0 3682.62201771 0 140.61963243 0 869.18746336 0 16306
0.12550000 0.12549900 13683.84335037 0 -106.99431063 0 3380.34755016 0 75.66372816 0 247.36459431 0 17523
0.12650000 0.12650100 13829.22297524 0 -8.02776766 0 3163.55143021 0 257.62531772 0 121.46672496 0 17154
0.12750000 0.12750600 13610.10166708 0 277.72712343 0 2937.38812346 0 402.34171033 0 -54.57936434 0 18007
0.12850000 0.12850300 13331.18980490 0 373.30010956 0 2768.56838695 0 118.59567113 0 169.46746751 0 17496
0.12950000 0.12949900 13086.93431940 0 433.96316278 0 2939.23720171 0 269.68086498 0 -120.46135786 0 18405
0.13050000 0.13049000 12694.19895808 0 422.66164084 0 3313.12746618 0 -119.91881395 0 -308.15608649 0 18100
0.13150000 0.13148800 12313.42170757 0 289.18697961 0 3081.72694980 0 -45.97705375 0 366.00898367 0 19059
0.13250000 0.13249300 12136.81812671 0 147.05597485 0 3388.18675613 0 -238.80679446 0 357.75788722 0 18957
0.13350000 0.13349100 12192.84409029 0 -96.43496662 0 3306.00796133 0 -40.20217201 0 73.05973881 0 19468
0.13450000 0.13450700 12313.53243082 0 11.91481801 0 3440.72493739 0 -65.56067465 0 -56.00226881 0 19953
0.13550000 0.13551000 12274.00423121 0 -36.51165543 0 3404.30806107 0 179.56099882 0 2.70957504 0 19956
0.13650000 0.13649900 12340.99179637 0 42.19939797 0 3430.62697716 0 178.93319800 0 224.91767020 0 19723
0.13750000 0.13749600 12261.38178092 0 266.15322229 0 3320.87809356 0 209.78180218 0 -254.16743068 0 20946
0.13850000 0.13851100 11950.80306976 0 401.08721593 0 3439.89451303 0 -143.01014736 0 136.88604450 0 20955
0.13950000 0.13949800 11746.51867685 0 234.52069752 0 3478.09403366 0 149.97685413 0 165.40503154 0 20506
0.14050000 0.14048300 11662.81190122 0 102.87507363 0 3262.84803918 0 235.57035391 0 395.82786164 0 21447
0.14150000 0.14148400 11623.83731786 0 -68.22522962 0 3204.97299736 0 633.45323904 0 183.03106541 0 21771
0.14250000 0.14249400 11515.88215088 0 30.15237639 0 2713.64965585 0 235.33229893 0 -126.39390950 0 22470
0.14350000 0.14350900 11480.22926497 0 291.19107041 0 3069.83527294 0 -124.15287096 0 -304.08368542 0 22519
0.14450000 0.14449900 11186.59121077 0 401.48581962 0 2992.05219109 0 -376.54651520 0 53.81459887 0 22218
0.14550000 0.14550500 10844.78854362 0 461.45574530 0 2996.38147010 0 -183.08310534 0 -79.56063288 0 23559
0.14650000 0.14650700 10459.16161484 0 298.82876007 0 3286.93034566 0 51.59913740 0 132.66195258 0 23044
0.14750000 0.14750500 10446.97098521 0 56.78696447 0 3353.77397059 0 410.89729572 0 44.81003071 0 23649
0.14850000 0.14849900 10482.92282390 0 -178.44158678 0 3020.65200610 0 703.79350415 0 785.75417415 0 23640
0.14950000 0.14949500 10593.80108463 0 -178.48255438 0 2695.71248965 0 748.75821523 0 606.96713084 0 24457
0.15050000 0.15050000 10798.86054028 0 -139.87335774 0 2371.45945733 0 338.79653096 0 682.17921887 0 24591
0.15150000 0.15149900 10668.97109783 0 141.67371775 0 2284.04345289 0 43.05683880 0 577.45495627 0 25020
0.15250000 0.15250500 10636.67312633 0 275.49051381 0 2329.08567025 0 -263.32867223 0 438.42752415 0 25297
0.15350000 0.15350100 10276.56790626 0 277.31080401 0 2505.34600904 0 -183.23036726 0 732.44535908 0 25452
0.15450000 0.15450400 10184.08077704 0 315.70851925 0 2872.32714283 0 -27.93182165 0 290.49351394 0 26061
0.15550000 0.15549900 9832.73376590 0 275.28124687 0 2643.82757555 0 -404.58164164 0 524.85698445 0 26128
0.15650000 0.15649500 9877.82027256 0 111.54592192 0 2961.17147717 0 43.38590829 0 403.44451388 0 26331
0.15750000 0.15749700 9638.58055020 0 74.83607188 0 3241.40094601 0 -191.63758350 0 681.00555244 0 27345
0.15850000 0.15849900 9711.54717076 0 178.77375652 0 3203.81040325 0 237.95865437 0 577.41398867 0 26980
0.15950000 0.15949700 9642.41157459 0 290.39386302 0 3271.87198391 0 169.57486906 0 1224.10087033 0 27777
0.16050000 0.16050000 9357.22170424 0 71.55988169 0 3102.58720976 0 215.26924636 0 1329.27688378 0 28224
0.16150000 0.16150500 9420.55540220 0 -71.08665052 0 2984.98804786 0 490.23271751 0 1432.69239758 0 28075
0.16250000 0.16249700 9371.88146230 0 39.51358413 0 3072.55906485 0 340.06541939 0 1212.55243554 0 28590
0.16350000 0.16349900 9336.04034686 0 231.73157890 0 2918.53195430 0 77.85405545 0 698.05914712 0 29163
0.16450000 0.16449100 9008.97494404 0 406.42850542 0 2911.70032988 0 -256.06522715 0 646.88396904 0 28996
0.16550000 0.16550500 8650.39770479 0 166.72374542 0 2603.56860251 0 -161.81870553 0 702.46039624 0 30777
0.16650000 0.16650700 8745.17680524 0 -5.71357427 0 2721.80995924 0 152.19242633 0 545.88997267 0 29211
0.16750000 0.16749900 8677.04879063 0 -28.98479974 0 2486.84415427 0 295.34872837 0 -30.20474849 0 30922
0.16850000 0.16850800 8574.02080819 0 121.82657551 0 2378.91113194 0 137.10084760 0 -39.16104131 0 30867
0.16950000 0.16949900 8475.73178078 0 165.05736054 0 2238.35904069 0 88.36036303 0 -121.33717876 0 30852
0.17050000 0.17049200 8376.55696738 0 152.75268597 0 2227.59674096 0 207.73231485 0 415.07045494 0 31257
0.17150000 0.17149500 8256.96478701 0 64.89489576 0 2008.17648003 0 331.43011326 0 309.61541890 0 32608
0.17250000 0.17250900 8229.26183031 0 -2.38453587 0 1788.25796449 0 664.47457148 0 573.43348789 0 32361
0.17350000 0.17350400 8312.86895502 0 -83.57623292 0 1813.58037135 0 211.22895503 0 560.55637413 0 32508
0.17450000 0.17449800 8229.52756611 0 144.87583409 0 1602.99582562 0 99.88543521 0 627.42214371 0 32791
0.17550000 0.17549800 8190.56405507 0 163.11970369 0 1574.21885342 0 -221.26823194 0 560.19098741 0 33633
0.17650000 0.17650100 8065.24748277 0 157.87031450 0 1714.91488489 0 -221.10546877 0 569.28690225 0 33984
0.17750000 0.17750300 7926.81020557 0 95.47156364 0 1905.91248801 0 -284.57646356 0 429.47001337 0 34069
