### header ###
fiducial parameters:
Omega_m = 0.31
Omega_nu = 0
Omega_de = 0.69
Omega_k = 0
H_0 = 100
w_de = -1
zeff = 0
beta = 0
fgrowth = 0
b_1 = 2
gamma = 0.55
Lx = 3500 Ly = 3500 Lz = 3500
nx = 700 ny = 700 nz = 700
xoffset = -685.467585 yoffset = -31.7331281 zoffset = 572.489161
bins = 400 dk = 0.001
kx_ny = 0.628318531 ky_ny = 0.628318531 kz_ny = 0.628318531
############################
A(data) = 8.07660449 (not used)
A(ran) = 8.08082235 (used)
Ngal = 479936
weighted Ngal = 0
Nran = 23820508
weighted Nran = 0
SN(data) = 3485.75652
SN(ran) = 70.3868934
SN(data+ran) = 3556.14342
############################
13 columns: k_central k_mean P_0(k) sigma^{lin}_{P_0(k)} P^img_1(k) sigma^{lin}_{P_1(k)} P_2(k) sigma^{lin}_{P_2(k)} P^img_3(k) sigma^{lin}_{P_3(k)} P_4(k) sigma^{lin}_{P_4(k)} N_modes
### header ###
0.00050000 0 0 0 0 0 0 0 0 0 0 0 0
0.00150000 0.00179520 35284.50966932 0 -38615.50786777 0 32919.68253456 0 -28080.30152607 0 -1735.06651606 0 3
0.00250000 0.00253879 52594.98229080 0 -12487.25720722 0 7966.95845536 0 69917.96663931 0 42331.93369314 0 6
0.00350000 0.00331552 69369.55439105 0 -18513.14854327 0 16552.79343413 0 -54514.14835161 0 17001.66548228 0 7
0.00450000 0.00420575 63725.43681474 0 -627.38117611 0 -9194.56925265 0 -25501.11418282 0 17911.69985912 0 24
0.00550000 0.00557378 66725.81539410 0 11158.24605924 0 -13425.63673560 0 -1205.74295578 0 26367.08070688 0 45
0.00650000 0.00659388 52296.14024394 0 1765.26074584 0 25204.70804742 0 -14676.80944011 0 20410.72357069 0 40
0.00750000 0.00754703 57535.89651787 0 4811.81091969 0 -9172.49103696 0 22257.03373420 0 -14584.35552787 0 57
0.00850000 0.00846663 57388.52387453 0 -5208.28872679 0 23131.85811812 0 1862.90757841 0 6293.37655902 0 75
0.00950000 0.00948925 56876.20740517 0 3969.84919583 0 15459.62280479 0 -7144.67225270 0 -15580.31114531 0 112
0.01050000 0.01054430 52953.94706142 0 10019.35780072 0 22835.11981298 0 -22325.34997833 0 -1106.26918961 0 105
0.01150000 0.01145670 55932.51316088 0 -343.99609470 0 29285.96697557 0 -9958.34929097 0 6980.94578561 0 144
0.01250000 0.01249090 57044.83891216 0 -9162.02769001 0 42702.30295833 0 -1966.12379037 0 23635.75962062 0 169
0.01350000 0.01339930 76700.42993022 0 -13118.04755214 0 30999.85213425 0 15282.46560769 0 -5023.60234882 0 180
0.01450000 0.01448870 82300.70110025 0 -13941.60707215 0 31216.53753095 0 23149.46311458 0 31.56409781 0 267
0.01550000 0.01550050 102663.26005798 0 -12615.58545187 0 30607.67038918 0 17570.67225471 0 -11339.61073977 0 238
0.01650000 0.01653350 97609.85101075 0 -4545.68759267 0 20942.30588524 0 -1175.22762858 0 -18619.88575452 0 315
0.01750000 0.01747870 104683.51644439 0 10182.61923017 0 28814.28593830 0 -17650.72516315 0 -12234.69747811 0 297
0.01850000 0.01844180 93621.59961107 0 11572.24028421 0 26613.43993410 0 -16063.50740040 0 -19053.58871767 0 388
0.01950000 0.01947590 87527.61347738 0 7995.33682387 0 14633.95954306 0 -3388.06496056 0 -3369.45238254 0 399
0.02050000 0.02045430 79575.91268563 0 3223.55235840 0 16262.03418439 0 5333.94854116 0 -20972.64405524 0 462
0.02150000 0.02154770 85805.64552159 0 -4577.05548888 0 3283.08824895 0 13718.38900381 0 -45998.20188710 0 571
0.02250000 0.02255340 85166.99382605 0 -2266.77062617 0 8575.20554695 0 -826.39846409 0 -43306.85189343 0 510
0.02350000 0.02348930 81887.26049152 0 5571.02916018 0 -1953.54562938 0 -5983.40682572 0 -43305.30176795 0 555
0.02450000 0.02439640 81861.90486768 0 6452.64087921 0 15166.53836684 0 -13597.70066328 0 -32508.45639079 0 592
0.02550000 0.02547300 72453.63974603 0 8694.53199152 0 11590.73106666 0 -5467.61364637 0 -19531.58098009 0 837
0.02650000 0.02652900 67313.31294897 0 6522.38545324 0 24181.07161794 0 4175.71693118 0 -16599.96153786 0 723
0.02750000 0.02749970 60984.92569888 0 5687.80897004 0 15602.56651820 0 10260.03692530 0 -4505.80507867 0 826
0.02850000 0.02848090 59621.70106721 0 430.27607862 0 15428.39884880 0 19831.41953618 0 -2687.03178699 0 831
0.02950000 0.02946900 60805.66476006 0 -4660.56296266 0 4902.80328505 0 11630.36998951 0 -4249.77971189 0 996
0.03050000 0.03053250 60672.90758549 0 -3515.76208269 0 2120.18411790 0 6585.73022353 0 -6771.73420816 0 1041
0.03150000 0.03150510 64671.34552400 0 1912.25693013 0 -350.48669151 0 -6349.17000378 0 -4666.12126972 0 1036
0.03250000 0.03246190 59747.92557014 0 5037.88564783 0 6690.68479049 0 -13987.66794340 0 -6291.12887708 0 1059
0.03350000 0.03345080 53475.45356038 0 8484.39033878 0 5305.78054682 0 -7227.05034935 0 2512.87518992 0 1302
0.03450000 0.03451200 51039.43137702 0 5070.98082672 0 12497.11157631 0 -2059.87316461 0 -2698.91239152 0 1339
0.03550000 0.03553350 46400.79161750 0 910.14620733 0 16044.02010871 0 201.55395760 0 -8815.99539478 0 1365
0.03650000 0.03647120 48420.49438767 0 1088.69076672 0 17051.71239046 0 5358.17478786 0 -9321.75704784 0 1308
0.03750000 0.03744890 44920.53251250 0 -539.18900169 0 13068.44353695 0 -946.47450506 0 -10494.08372732 0 1579
0.03850000 0.03847530 44963.93602579 0 818.26916321 0 14274.99477244 0 -3291.89074718 0 -10695.54467739 0 1662
0.03950000 0.03950240 43449.68488359 0 1894.76265692 0 13464.94348871 0 -1566.59002162 0 -8697.98655686 0 1683
0.04050000 0.04050350 42827.19878228 0 1345.08816362 0 13190.57127970 0 459.87904625 0 -8634.14353196 0 1822
0.04150000 0.04152450 42642.95529730 0 -590.85136206 0 9701.49349982 0 4925.70085277 0 -3969.69418328 0 1887
0.04250000 0.04250150 44168.83238056 0 -1930.58162770 0 9954.88365330 0 4816.15127102 0 -5736.30575275 0 1920
0.04350000 0.04349210 44788.32895416 0 142.68240654 0 10654.49956929 0 603.00766748 0 -3284.59408513 0 2005
0.04450000 0.04448520 45355.67487787 0 1183.35471499 0 12382.29156794 0 -3363.77227990 0 -1173.72179240 0 2151
0.04550000 0.04548030 42419.29433596 0 2532.70572367 0 13935.40657025 0 -1695.79297992 0 -1128.26989902 0 2274
0.04650000 0.04648670 41182.51565372 0 3253.77980516 0 16796.93819638 0 1140.92556629 0 5698.93665648 0 2311
0.04750000 0.04749250 40899.61775460 0 186.25975533 0 16782.21200437 0 4142.42245045 0 2391.21248481 0 2568
0.04850000 0.04851840 39505.94422968 0 -1342.65225216 0 14069.16025406 0 7245.54113180 0 2390.59243462 0 2493
0.04950000 0.04949480 41925.24720256 0 449.12006822 0 14580.70166068 0 2931.57515293 0 4047.54369908 0 2644
0.05050000 0.05050630 39604.48792057 0 1189.43342132 0 12713.68624976 0 -259.94275530 0 3925.37166703 0 2829
0.05150000 0.05149060 39120.73804924 0 2479.38140734 0 12697.07776253 0 -586.47668653 0 3443.96912857 0 2784
0.05250000 0.05249300 36618.28191698 0 2376.61916070 0 14830.49330859 0 -3555.02454650 0 5888.16268763 0 3055
0.05350000 0.05348950 34959.09404290 0 1654.88073972 0 17691.58204173 0 4.85123947 0 6329.02944494 0 3009
0.05450000 0.05448610 34386.98701953 0 -410.78657247 0 15130.33186468 0 2812.78017995 0 5236.66709530 0 3336
0.05550000 0.05550870 36143.83279850 0 -1624.77508854 0 16311.97036933 0 3996.31205214 0 3133.18004323 0 3349
0.05650000 0.05647670 37071.14000206 0 -2113.08675769 0 11624.50165735 0 3964.55662456 0 2423.69868583 0 3324
0.05750000 0.05747970 37081.54798739 0 62.32279471 0 11397.40827532 0 1158.77415390 0 1256.13310603 0 3639
0.05850000 0.05849280 36981.34344778 0 1604.51273412 0 9893.93050517 0 96.11752307 0 654.20831191 0 3846
0.05950000 0.05951020 36742.62412469 0 892.07174429 0 10936.01342780 0 -1125.76755361 0 718.01479814 0 3787
0.06050000 0.06049470 35047.56191821 0 40.34334416 0 9838.61317038 0 -548.33031306 0 -2218.77209808 0 3930
0.06150000 0.06148310 34958.20825692 0 522.95918797 0 11693.81441072 0 -1104.55519372 0 364.94714772 0 4083
0.06250000 0.06249100 35094.95146843 0 169.20505341 0 11635.57398217 0 886.06611531 0 -87.36496103 0 4303
0.06350000 0.06350600 34573.22352297 0 439.93557479 0 11951.24596275 0 2292.91238507 0 11.40261227 0 4470
0.06450000 0.06451750 34042.41627117 0 973.02483274 0 12219.97128610 0 -777.22626957 0 -447.93090054 0 4479
0.06550000 0.06550280 33397.01045749 0 965.65177164 0 12526.78540682 0 2288.79348024 0 521.87631461 0 4636
0.06650000 0.06648880 32830.99321276 0 1074.60676955 0 14234.91295660 0 -621.93580676 0 2484.04285609 0 4653
0.06750000 0.06749660 31995.58630519 0 1220.14805037 0 13185.03511729 0 80.30469311 0 2161.63890202 0 5220
0.06850000 0.06852730 30955.67355823 0 1450.89529959 0 12716.67577746 0 -184.32099126 0 2768.88948437 0 5029
0.06950000 0.06949320 29782.56074369 0 1013.21183567 0 13077.96573630 0 295.34872837 0 2468.12085300 0 5040
0.07050000 0.07048030 28249.59737255 0 784.42106624 0 10934.16434956 0 2105.04824987 0 2879.91168533 0 5475
0.07150000 0.07148790 28610.00154540 0 960.35920038 0 11817.38155569 0 3723.33495607 0 2622.76801374 0 5509
0.07250000 0.07249820 26641.34219264 0 952.34615891 0 8914.95983401 0 1616.79194234 0 2475.11856229 0 5916
0.07350000 0.07351270 26231.99834410 0 551.81034475 0 9274.03532788 0 2014.31054798 0 2947.88468739 0 5721
0.07450000 0.07449140 26098.79827653 0 25.80183852 0 8087.77966378 0 -717.22312692 0 2396.11752470 0 6028
0.07550000 0.07549160 25838.93081303 0 284.88870312 0 9047.27411559 0 -219.64613636 0 1761.39650448 0 6183
0.07650000 0.07648840 26230.44821862 0 -567.63158969 0 8353.22757898 0 623.15597696 0 3078.30560143 0 6330
0.07750000 0.07749960 26368.29866261 0 -287.25485893 0 8315.65918087 0 812.45729992 0 1253.80791781 0 6583
0.07850000 0.07848650 26407.93758546 0 294.73532158 0 9027.36607557 0 -2.54396628 0 -287.93359244 0 6549
0.07950000 0.07947320 25670.63147579 0 1467.32662962 0 9237.10912461 0 -496.31696000 0 186.64285777 0 6828
0.08050000 0.08048110 24272.41829769 0 1462.44373437 0 9431.55022075 0 -2143.91210998 0 376.94290443 0 7147
0.08150000 0.08149960 23562.23938382 0 720.61458001 0 10328.59676058 0 -1268.93271352 0 712.78976806 0 7386
0.08250000 0.08250610 23577.18702233 0 -47.05738048 0 10865.05089804 0 487.72926487 0 689.37844446 0 7227
0.08350000 0.08350160 23815.24200593 0 -322.83466750 0 10187.98930771 0 984.46032981 0 740.10076446 0 7798
0.08450000 0.08449610 24105.89053242 0 -205.19453800 0 10302.04532566 0 1087.60678612 0 -24.73612726 0 7371
0.08550000 0.08548940 23819.11731962 0 274.68112687 0 10275.21708263 0 1348.15519759 0 731.15875493 0 8256
0.08650000 0.08650700 23461.25978148 0 795.37270272 0 9784.24805552 0 719.57821041 0 929.72429207 0 8037
0.08750000 0.08749060 22685.97559768 0 1033.58048440 0 9630.28737892 0 970.72511087 0 1899.00335732 0 8155
0.08850000 0.08849210 22158.82221306 0 744.46215320 0 8969.07028540 0 928.26385243 0 954.20520224 0 8718
0.08950000 0.08949900 21200.95539300 0 65.82574611 0 8680.60300690 0 1424.48780489 0 1966.19022432 0 8571
0.09050000 0.09049190 21310.34996221 0 -221.68233689 0 7605.08166331 0 914.99920729 0 844.22712152 0 8932
0.09150000 0.09150830 21204.94142993 0 465.85145826 0 6657.50103301 0 1188.72479253 0 -207.19419987 0 9285
0.09250000 0.09250820 20260.47212290 0 858.66100415 0 6698.92260015 0 -270.77259621 0 115.89180941 0 9204
0.09350000 0.09350330 19462.37894998 0 969.26024230 0 5838.71368499 0 -157.86256387 0 358.91605239 0 9349
0.09450000 0.09448040 19271.38134685 0 444.30692863 0 6202.16274716 0 442.77230441 0 1314.10779878 0 9564
0.09550000 0.09549270 18552.45529638 0 -86.07902122 0 6061.65494522 0 1126.37653148 0 1174.77366326 0 10155
0.09650000 0.09649430 18828.70980060 0 51.93673258 0 6078.93884426 0 1601.33497690 0 2078.16464521 0 9913
0.09750000 0.09749140 18655.76008694 0 412.71426422 0 6209.34868597 0 331.41682647 0 2662.21870707 0 10476
0.09850000 0.09850240 18317.83273347 0 460.51459769 0 6615.40405405 0 296.40059923 0 3111.35649101 0 10575
0.09950000 0.09950330 17930.74425781 0 593.32934836 0 6798.98319954 0 -404.66911301 0 4195.10457194 0 10882
0.10050000 0.10051200 17779.82847053 0 236.28894779 0 7255.40657321 0 130.57481935 0 3940.60718598 0 10875
0.10150000 0.10150300 17425.18190659 0 246.81762146 0 6680.26573283 0 48.62466806 0 3589.18266856 0 11118
0.10250000 0.10250800 17271.49803811 0 276.81808556 0 7210.03218611 0 -141.23636092 0 2491.99278531 0 11575
0.10350000 0.10349800 16892.82452931 0 319.25609212 0 6450.72536702 0 226.05147627 0 2301.21662868 0 11364
0.10450000 0.10450100 16800.70278682 0 490.53499198 0 6460.93405050 0 239.54310406 0 781.84564349 0 12093
0.10550000 0.10551000 16351.94146192 0 246.85526737 0 5871.56527273 0 -359.35340922 0 850.32022187 0 12067
0.10650000 0.10649700 15963.85647703 0 423.83198557 0 6184.20343631 0 70.60389716 0 -495.73455571 0 12054
0.10750000 0.10749900 15791.90327259 0 159.41601104 0 5538.89727355 0 396.09138297 0 213.06031756 0 12807
0.10850000 0.10850100 15673.87229003 0 -143.21830706 0 5422.32783786 0 723.09699523 0 -108.58274635 0 12736
0.10950000 0.10950300 15694.24536769 0 -132.08065553 0 4818.63147178 0 799.06421581 0 54.67846165 0 12933
0.11050000 0.11050200 16096.72437485 0 -164.54692636 0 4614.69032094 0 509.01691656 0 -512.88447962 0 13428
0.11150000 0.11150900 15915.47041757 0 10.47856033 0 4353.95921611 0 -181.53408710 0 -79.62850623 0 13453
0.11250000 0.11250000 15880.59259439 0 387.97647611 0 4359.88290989 0 544.17154786 0 312.90279214 0 13668
0.11350000 0.11349100 15574.55353640 0 464.69550755 0 4530.13097630 0 -174.77996896 0 425.63456005 0 13791
0.11450000 0.11448600 15147.71541465 0 504.50605143 0 4266.75358584 0 367.88574273 0 388.99070106 0 14205
0.11550000 0.11549300 14694.19299007 0 576.26578858 0 5079.66152938 0 -230.03197704 0 1157.83300629 0 14776
0.11650000 0.11649800 14287.06360649 0 398.51954380 0 4593.83006098 0 253.31486167 0 1180.32089799 0 14553
0.11750000 0.11747300 14071.48544227 0 157.15614955 0 4727.38444295 0 -104.89333700 0 1545.04327752 0 14568
0.11850000 0.11849100 14103.81663074 0 -82.80183452 0 5032.99168026 0 138.44945676 0 301.82603839 0 16015
0.11950000 0.11950300 14219.19025535 0 81.78473076 0 5125.61167737 0 -19.89829638 0 799.48496416 0 15270
0.12050000 0.12050700 14117.43559027 0 -15.18945808 0 4938.95442558 0 -265.08585018 0 881.79773409 0 15999
0.12150000 0.12150000 14075.36075596 0 18.45524028 0 4832.17292503 0 641.77962730 0 994.65351204 0 15670
0.12250000 0.12250700 14382.94993942 0 -11.21759372 0 4795.86677195 0 734.15492603 0 238.80790169 0 16887
0.12350000 0.12352200 14034.83604712 0 77.15993141 0 4345.72140645 0 680.53497863 0 484.50721834 0 16407
0.12450000 0.12449800 14032.51085891 0 187.11453881 0 3682.02411217 0 902.14313095 0 699.86725776 0 16306
0.12550000 0.12549900 13734.66532129 0 185.52787466 0 3235.33331201 0 524.90459545 0 545.87225695 0 17523
0.12650000 0.12650100 13616.30216898 0 137.31565070 0 3030.05240987 0 292.41234783 0 234.96691221 0 17154
0.12750000 0.12750600 13408.91752513 0 287.93802137 0 2848.82059724 0 383.78338670 0 549.59366533 0 18007
0.12850000 0.12850300 13051.61360323 0 187.30387556 0 2279.34878717 0 266.21079838 0 590.18923704 0 17496
0.12950000 0.12949900 12974.10732950 0 165.27437810 0 2304.28366266 0 186.74140146 0 638.62955089 0 18405
0.13050000 0.13049000 12997.02704187 0 148.74671885 0 2640.33979323 0 64.10909287 0 1135.64406735 0 18100
0.13150000 0.13148800 12433.77787835 0 355.89109325 0 2567.42853430 0 -16.61435556 0 697.26526143 0 19059
0.13250000 0.13249300 12624.88620472 0 310.94520511 0 2969.94075843 0 -102.65661666 0 1455.33530184 0 18957
0.13350000 0.13349100 12241.00870325 0 106.40725597 0 3202.16062685 0 -171.79376296 0 963.57460351 0 19468
0.13450000 0.13450700 12301.57432001 0 -25.81822557 0 3485.05852597 0 13.95201506 0 1593.23003513 0 19953
0.13550000 0.13551000 12476.84922189 0 -17.18015136 0 3405.02776218 0 -103.55081762 0 1281.69910403 0 19956
0.13650000 0.13649900 12293.27007640 0 125.00654720 0 3335.02852468 0 472.38523713 0 980.57947996 0 19723
0.13750000 0.13749600 12093.19316693 0 232.59854193 0 2936.91201350 0 113.95858150 0 1189.16768552 0 20946
0.13850000 0.13851100 11864.21748968 0 398.11651118 0 2813.51095339 0 57.03609178 0 1028.51821750 0 20955
0.13950000 0.13949800 11534.26221008 0 383.86864360 0 2838.50119051 0 161.50425150 0 1408.11183649 0 20506
0.14050000 0.14048300 11324.44165477 0 124.95450728 0 2812.96840948 0 161.98479040 0 967.88063063 0 21447
0.14150000 0.14148400 11206.63211870 0 142.22622676 0 2953.63122397 0 -202.67336964 0 935.40218024 0 21771
0.14250000 0.14249400 11070.11035368 0 367.58789719 0 3267.69771745 0 -206.69483802 0 598.35286213 0 22470
0.14350000 0.14350900 10758.09224029 0 302.69632312 0 3437.09321485 0 -233.82314106 0 1017.56215209 0 22519
0.14450000 0.14449900 10667.38775538 0 102.17397402 0 3335.39391139 0 240.93046636 0 827.75814558 0 22218
0.14550000 0.14550500 10582.52945797 0 15.86498062 0 3143.98663225 0 550.68096762 0 664.50225229 0 23559
0.14650000 0.14650700 10739.83397667 0 -99.88886763 0 2949.54553611 0 153.36387830 0 545.25885016 0 23044
0.14750000 0.14750500 10678.16112743 0 130.71765234 0 2862.37312282 0 20.23943471 0 233.45996880 0 23649
0.14850000 0.14849900 10549.56714698 0 150.14958240 0 2726.28317847 0 -217.70515782 0 392.81397482 0 23640
0.14950000 0.14949500 10293.30926138 0 337.95835597 0 2920.65784066 0 -408.98842692 0 417.58276544 0 24457
0.15050000 0.15050000 10135.88294711 0 371.60272217 0 3027.06288217 0 -29.62621952 0 403.94941189 0 24591
0.15150000 0.15149900 9825.02742783 0 187.87742199 0 3295.65533762 0 79.78407239 0 362.74154062 0 25020
0.15250000 0.15250500 9730.46977387 0 128.03704251 0 2996.84650774 0 166.77910705 0 95.44089330 0 25297
0.15350000 0.15350100 9672.43971950 0 51.72979083 0 3154.90394453 0 180.58186716 0 -1.57406384 0 25452
0.15450000 0.15450400 9669.45019180 0 -27.38695255 0 2997.44441328 0 -53.46094881 0 -198.61425536 0 26061
0.15550000 0.15549900 9556.22459820 0 34.46958656 0 2885.92395771 0 95.29318849 0 -171.57785262 0 26128
0.15650000 0.15649500 9626.31241431 0 65.09862654 0 2946.91032281 0 161.05582235 0 -367.60782737 0 26331
0.15750000 0.15749700 9457.22694200 0 153.37827232 0 2731.56467741 0 -35.61966894 0 -343.27417912 0 27345
0.15850000 0.15849900 9390.30581080 0 245.67606477 0 2889.10171493 0 107.19992371 0 -653.31809699 0 26980
0.15950000 0.15949700 9202.40845862 0 247.24722767 0 2926.82512559 0 -240.03471528 0 -55.41975380 0 27777
0.16050000 0.16050000 9068.83193201 0 255.75188036 0 2970.27292817 0 77.98404455 0 14.14854882 0 28224
0.16150000 0.16150500 8901.26336821 0 77.99268096 0 2964.42674067 0 252.56858697 0 304.61626425 0 28075
0.16250000 0.16249700 8837.74144072 0 30.65694223 0 2966.79621818 0 432.49607974 0 581.33912781 0 28590
0.16350000 0.16349900 8878.70904255 0 50.38251035 0 2761.44888210 0 527.27628742 0 381.45266233 0 29163
0.16450000 0.16449100 8725.06946337 0 75.38293400 0 2604.84191986 0 336.95520335 0 855.08132154 0 28996
0.16550000 0.16550500 8647.07600734 0 61.27900665 0 2427.33040837 0 359.05556368 0 769.64726324 0 30777
0.16650000 0.16650700 8655.74563768 0 117.05551075 0 2324.59030638 0 256.86686347 0 1121.49363623 0 29211
0.16750000 0.16749900 8541.94428319 0 161.13000692 0 2256.90518476 0 12.99558764 0 956.01663458 0 30922
0.16850000 0.16850800 8433.01475163 0 187.88738708 0 2491.18450560 0 -165.79477737 0 1013.33030954 0 30867
0.16950000 0.16949900 8333.65170870 0 190.25465013 0 2375.61157914 0 -417.64366323 0 841.45461138 0 30852
0.17050000 0.17049200 8181.20794060 0 46.52203357 0 2533.08218271 0 -118.49602021 0 639.28281805 0 31257
0.17150000 0.17149500 8196.24415770 0 -28.97018427 0 2434.79315530 0 71.15186652 0 549.99005455 0 32608
0.17250000 0.17250900 8357.73401518 0 -92.52532873 0 2330.08217949 0 145.29215350 0 -112.80041632 0 32361
0.17350000 0.17350400 8253.10054565 0 -27.21289560 0 2311.34780589 0 98.97174696 0 -241.29806754 0 32508
0.17450000 0.17449800 8294.56640209 0 196.25806464 0 2087.35467481 0 175.05124092 0 -234.03462246 0 32791
0.17550000 0.17549800 8156.25092046 0 143.45193312 0 2020.37818198 0 -170.34218117 0 -203.47722042 0 33633
0.17650000 0.17650100 7942.97579980 0 234.01579951 0 2086.64604602 0 17.26817634 0 -167.50766602 0 33984
0.17750000 0.17750300 7968.33142364 0 102.11761589 0 2309.70910182 0 110.13619352 0 131.49382231 0 34069
0.17850000 0.17849800 7802.12475578 0 116.08668233 0 2224.57399629 0 318.29944326 0 123.27705007 0 34536
