### header ###
fiducial parameters:
Omega_m = 0.31
Omega_nu = 0
Omega_de = 0.69
Omega_k = 0
H_0 = 100
w_de = -1
zeff = 0
beta = 0
fgrowth = 0
b_1 = 2
gamma = 0.55
Lx = 3500 Ly = 3500 Lz = 3500
nx = 700 ny = 700 nz = 700
xoffset = -685.467585 yoffset = -31.7331281 zoffset = 572.489161
bins = 400 dk = 0.001
kx_ny = 0.628318531 ky_ny = 0.628318531 kz_ny = 0.628318531
############################
A(data) = 8.08762857 (not used)
A(ran) = 8.09174888 (used)
Ngal = 480761
weighted Ngal = 0
Nran = 23820508
weighted Nran = 0
SN(data) = 3479.84188
SN(ran) = 70.4820674
SN(data+ran) = 3550.32395
############################
13 columns: k_central k_mean P_0(k) sigma^{lin}_{P_0(k)} P^img_1(k) sigma^{lin}_{P_1(k)} P_2(k) sigma^{lin}_{P_2(k)} P^img_3(k) sigma^{lin}_{P_3(k)} P_4(k) sigma^{lin}_{P_4(k)} N_modes
### header ###
0.00050000 0 0 0 0 0 0 0 0 0 0 0 0
0.00150000 0.00179520 35347.62192079 0 -10350.33173420 0 9966.19956926 0 15402.37888547 0 -24277.73301360 0 3
0.00250000 0.00253879 76737.96511136 0 -25919.75878421 0 6608.77173148 0 -76647.72566409 0 -91888.33788396 0 6
0.00350000 0.00331552 67071.71482143 0 -2465.28633785 0 -24309.39986259 0 26531.61545369 0 156205.03684402 0 7
0.00450000 0.00420575 80108.04861641 0 -5829.10290705 0 -7577.11297082 0 -6141.24281601 0 20761.49482095 0 24
0.00550000 0.00557378 73642.36453856 0 -6299.16738490 0 3474.94949341 0 15735.87730901 0 -20843.20857811 0 45
0.00650000 0.00659388 86639.28085718 0 9885.59304458 0 44659.33637002 0 -10949.24485596 0 -29825.63208724 0 40
0.00750000 0.00754703 74116.03859430 0 5315.02593805 0 13004.66694600 0 -18050.43608910 0 10130.08104890 0 57
0.00850000 0.00846663 66776.30519527 0 13109.63258528 0 40472.55818635 0 -25906.47199443 0 2855.91795745 0 75
0.00950000 0.00948925 56750.86868823 0 9028.32936782 0 25810.47493825 0 -17540.22336146 0 11026.96150386 0 112
0.01050000 0.01054430 62429.64264121 0 269.56128387 0 45540.13980935 0 3020.27554706 0 -1275.77541025 0 105
0.01150000 0.01145670 66603.02331186 0 -12808.79751995 0 22148.63567423 0 20968.99018805 0 -14517.03579298 0 144
0.01250000 0.01249090 82361.82033325 0 -17386.98238597 0 33116.65919308 0 16781.21549514 0 -14496.33054556 0 169
0.01350000 0.01339930 95238.49120434 0 -16562.86924972 0 28213.94448663 0 10460.85568054 0 -20350.82229342 0 180
0.01450000 0.01448870 100912.72550415 0 -2011.13279076 0 21371.02630221 0 -15873.17413676 0 -16574.49519078 0 267
0.01550000 0.01550050 103465.33926784 0 20688.97109339 0 42330.16212117 0 -11315.47307166 0 8915.51345025 0 238
0.01650000 0.01653350 86700.51081343 0 16658.86630589 0 44846.01576647 0 -10185.40945602 0 7491.08100698 0 315
0.01750000 0.01747870 79201.22521376 0 8676.35123416 0 55795.43777963 0 12547.82282398 0 31246.65425446 0 297
0.01850000 0.01844180 72880.81003753 0 -1124.16206651 0 50185.75513351 0 29022.33492164 0 19169.51595852 0 388
0.01950000 0.01947590 78862.74424406 0 -8509.03733383 0 45926.67466877 0 33497.10427385 0 11696.91466167 0 399
0.02050000 0.02045430 81653.19154485 0 -6730.65588308 0 30573.34618224 0 33475.62396370 0 14355.49057387 0 462
0.02150000 0.02154770 83648.75664692 0 -997.00638106 0 19826.10482027 0 11975.60507735 0 15418.98737270 0 571
0.02250000 0.02255340 78176.92444479 0 8878.70904255 0 13518.75498733 0 7967.75566275 0 13033.45499052 0 510
0.02350000 0.02348930 70050.39164414 0 10637.47033372 0 9983.72705945 0 -794.31418847 0 22408.28169122 0 555
0.02450000 0.02439640 61483.51248546 0 9237.69595782 0 3870.20934478 0 -1222.36251533 0 18772.01949753 0 592
0.02550000 0.02547300 56806.23031232 0 -1730.32756103 0 8854.93676116 0 -488.08911542 0 11697.24683141 0 837
0.02650000 0.02652900 59853.33410241 0 -1845.76761959 0 6469.65904246 0 1776.93097620 0 7630.14940670 0 723
0.02750000 0.02749970 61219.54826178 0 553.42136802 0 7566.84892571 0 -11369.94890977 0 -4088.81025368 0 826
0.02850000 0.02848090 63536.21078359 0 4669.88586016 0 14050.78019486 0 -13585.74255248 0 8828.38532625 0 831
0.02950000 0.02946900 57358.85004402 0 7925.85798563 0 24397.20339840 0 -11207.96079767 0 5376.58806404 0 996
0.03050000 0.03053250 53802.41931227 0 5621.75148017 0 26053.18029827 0 -487.56207276 0 6676.01396010 0 1041
0.03150000 0.03150510 52649.79029865 0 -1018.72253173 0 31347.52313356 0 4903.37904594 0 9485.93748025 0 1036
0.03250000 0.03246190 53698.11801248 0 -2656.48324281 0 28509.02194305 0 9846.76240144 0 118.58127711 0 1059
0.03350000 0.03345080 53132.32221425 0 -869.60931893 0 28185.71005835 0 5739.70495646 0 3466.89991327 0 1302
0.03450000 0.03451200 54479.38125168 0 3088.39248934 0 24975.06803068 0 5433.95377892 0 2883.90879459 0 1339
0.03550000 0.03553350 51750.60680013 0 1718.20336536 0 26527.07580051 0 2397.16939556 0 9196.50690950 0 1365
0.03650000 0.03647120 49331.74672024 0 1366.29166565 0 20250.83920031 0 3362.18893746 0 8793.10889938 0 1308
0.03750000 0.03744890 50969.67573067 0 1892.41532405 0 27890.63260193 0 5985.70986929 0 11771.09923795 0 1579
0.03850000 0.03847530 47845.17639009 0 -403.72796540 0 23146.80575663 0 4999.01071540 0 10621.60369225 0 1662
0.03950000 0.03950240 47241.95613397 0 2136.40507376 0 20881.85099173 0 3980.91044832 0 12374.20877082 0 1683
0.04050000 0.04050350 46990.72508384 0 470.85725631 0 20967.66150907 0 3850.47846196 0 15847.26489669 0 1822
0.04150000 0.04152450 45793.69604769 0 2244.59275956 0 20175.32594505 0 2694.73812506 0 14827.17161115 0 1887
0.04250000 0.04250150 44556.91736545 0 2054.42558080 0 21173.60675070 0 -1622.04022431 0 15906.28038797 0 1920
0.04350000 0.04349210 42719.90795479 0 2299.37862276 0 22258.91602942 0 575.94469116 0 15067.99467595 0 2005
0.04450000 0.04448520 40933.05617556 0 1821.80710869 0 24154.16586863 0 -906.53995113 0 16059.96425645 0 2151
0.04550000 0.04548030 40327.06783823 0 759.28467444 0 25818.33628887 0 2315.26740888 0 12508.07317788 0 2274
0.04650000 0.04648670 40159.32211723 0 662.69857058 0 25961.94434177 0 4244.96325060 0 10848.03273480 0 2311
0.04750000 0.04749250 39523.10633315 0 582.93575705 0 24565.39201239 0 2153.53396025 0 10913.55875307 0 2568
0.04850000 0.04851840 38497.25543870 0 409.46564412 0 19978.57073302 0 2698.22590738 0 7838.79629558 0 2493
0.04950000 0.04949480 38643.52084956 0 55.60034342 0 17597.79945052 0 2168.26015226 0 6990.81122702 0 2644
0.05050000 0.05050630 38272.48724488 0 -1138.06890648 0 15260.87457429 0 2711.42411856 0 2883.79807134 0 2829
0.05150000 0.05149060 39814.86209212 0 -1668.75436272 0 15439.24972712 0 1348.74203081 0 2057.19366201 0 2784
0.05250000 0.05249300 39525.76369111 0 871.83153452 0 13509.89712747 0 453.65861417 0 -1265.69959467 0 3055
0.05350000 0.05348950 39197.13709049 0 878.47492941 0 13025.92580965 0 -2396.48291142 0 674.27025725 0 3009
0.05450000 0.05448610 37550.12877372 0 2185.52190665 0 16339.31901163 0 -308.27345314 0 -2189.75153473 0 3336
0.05550000 0.05550870 36474.23097109 0 2218.16312022 0 16080.44805737 0 -683.93528958 0 485.57459046 0 3349
0.05650000 0.05647670 33749.33183322 0 2714.31399534 0 16028.40813072 0 -620.80421516 0 -700.71207615 0 3324
0.05750000 0.05747970 32770.87048900 0 354.84143686 0 15471.91308534 0 2863.61322320 0 3479.47807426 0 3639
0.05850000 0.05849280 32396.51518688 0 -1251.90347795 0 13790.80200812 0 4150.25058410 0 545.59101990 0 3846
0.05950000 0.05951020 33849.86854257 0 -839.16485461 0 12806.14016200 0 4089.91748616 0 -2208.22017253 0 3787
0.06050000 0.06049470 35038.37188861 0 -105.63197179 0 10307.22717368 0 451.47958064 0 -3205.03943130 0 3930
0.06150000 0.06148310 33875.88850590 0 -301.47061677 0 9678.08660516 0 -1731.60087839 0 187.12228944 0 4083
0.06250000 0.06249100 34910.04364396 0 184.90339554 0 11440.92251186 0 -685.55074177 0 1489.48235158 0 4303
0.06350000 0.06350600 35197.25974975 0 -386.08753750 0 11738.54660298 0 877.59910852 0 467.17792277 0 4470
0.06450000 0.06451750 34880.59125994 0 645.60843722 0 11116.94628767 0 2394.06914461 0 -540.73691270 0 4479
0.06550000 0.06550280 33967.67807864 0 1643.42088353 0 10602.68108914 0 1450.10916452 0 -248.23045011 0 4636
0.06650000 0.06648880 32626.59809661 0 1141.04736186 0 8884.80989353 0 1004.92752224 0 -121.06037064 0 4653
0.06750000 0.06749660 31365.01740677 0 1382.90015287 0 8262.85526381 0 243.62214852 0 -24.42931314 0 5220
0.06850000 0.06852730 30497.61148048 0 1284.16823247 0 8812.91728848 0 1239.75713762 0 708.34976581 0 5029
0.06950000 0.06949320 29589.90229185 0 21.28975544 0 7772.22947877 0 -136.79746590 0 1438.78217623 0 5040
0.07050000 0.07048030 29133.39033957 0 221.57714981 0 7134.48571387 0 2094.33023945 0 -455.12901890 0 5475
0.07150000 0.07148790 29178.34397834 0 -142.92267599 0 8404.91319124 0 106.06977151 0 1972.93327014 0 5509
0.07250000 0.07249820 29208.68214834 0 1108.86011361 0 9097.36531307 0 -1009.48156944 0 1346.60507212 0 5916
0.07350000 0.07351270 28128.46613903 0 1458.02587677 0 9619.60258547 0 -606.50873659 0 2984.45657627 0 5721
0.07450000 0.07449140 26737.22852557 0 1412.07572877 0 9746.01531792 0 -1147.50252723 0 5321.62504364 0 6028
0.07550000 0.07549160 26045.42967090 0 989.10406284 0 10619.03491290 0 963.37751612 0 3153.63062717 0 6183
0.07650000 0.07648840 25742.82303361 0 384.31264383 0 11787.92917168 0 1285.24224797 0 3637.14797968 0 6330
0.07750000 0.07749960 25528.46282512 0 -561.87951694 0 9940.99895798 0 1387.89377137 0 2964.52639159 0 6583
0.07850000 0.07848650 25565.44439001 0 -124.22484107 0 10439.82933571 0 1430.14576288 0 2208.91772900 0 6549
0.07950000 0.07947320 25762.08887879 0 450.94810905 0 9672.01897116 0 -1623.85608558 0 584.31869042 0 6828
0.08050000 0.08048110 25152.55739753 0 1388.64668946 0 10371.61274250 0 369.70714016 0 2024.47494217 0 7147
0.08150000 0.08149960 23699.86838132 0 1199.07741624 0 9086.50336242 0 -970.74504106 0 2721.03489651 0 7386
0.08250000 0.08250610 23357.29065143 0 85.55530026 0 9678.83952325 0 1053.14085343 0 1587.82674062 0 7227
0.08350000 0.08350160 23659.89728872 0 -344.98817500 0 9018.81824081 0 1196.01038226 0 -769.53211106 0 7798
0.08450000 0.08449610 23305.36144803 0 310.05166850 0 9158.29631655 0 -27.90026552 0 -503.62026545 0 7371
0.08550000 0.08548940 22752.18810009 0 747.04089765 0 8199.89802489 0 41.62518720 0 -1436.24661385 0 8256
0.08650000 0.08650700 22274.97090041 0 108.73753745 0 7891.66664659 0 338.15212166 0 -189.43751255 0 8037
0.08750000 0.08749060 22251.60829504 0 -33.70869640 0 7230.62671027 0 848.41356753 0 -1359.70363238 0 8155
0.08850000 0.08849210 21872.49189325 0 295.27232933 0 6798.09741355 0 665.66927533 0 -898.83361306 0 8718
0.08950000 0.08949900 21703.74966301 0 659.66475358 0 7442.00846338 0 1116.23428194 0 -205.15910656 0 8571
0.09050000 0.09049190 21389.95997765 0 521.21972575 0 7125.04102080 0 86.42049172 0 290.49351394 0 8932
0.09150000 0.09150830 20779.65343365 0 504.37207630 0 6883.81935230 0 1284.45611291 0 1065.35252047 0 9285
0.09250000 0.09250820 20698.05039974 0 137.93791536 0 6974.78957301 0 391.33028330 0 1048.04758401 0 9204
0.09350000 0.09350330 20187.06260936 0 385.90262967 0 6720.53577820 0 403.70360628 0 1166.21475617 0 9349
0.09450000 0.09448040 19877.36968418 0 863.55940065 0 6909.13068684 0 -348.80369813 0 1289.75975650 0 9564
0.09550000 0.09549270 19300.39083788 0 781.71609729 0 6782.25291674 0 -870.63793791 0 579.70485267 0 10155
0.09650000 0.09649430 18301.66713924 0 628.89587014 0 6907.66913996 0 307.50724826 0 547.03927999 0 9913
0.09750000 0.09749140 18173.00672484 0 311.90960461 0 7275.29246859 0 405.80734800 0 698.97372115 0 10476
0.09850000 0.09850240 18246.41623839 0 -71.16360318 0 6592.86080072 0 607.65472221 0 1009.43838737 0 10575
0.09950000 0.09950330 18395.11756071 0 -422.67271316 0 6958.64612342 0 940.58956441 0 1249.78866390 0 10882
0.10050000 0.10051200 18605.38100901 0 440.90440321 0 6800.74369919 0 911.94435288 0 1331.50242107 0 10875
0.10150000 0.10150300 18067.93036232 0 379.70877117 0 6464.75400256 0 222.09644184 0 2310.60596013 0 11118
0.10250000 0.10250800 17773.51724539 0 276.05630961 0 6772.83036832 0 862.89395393 0 2099.96605278 0 11575
0.10350000 0.10349800 17580.74807029 0 35.51016365 0 6126.29517751 0 462.84421484 0 2472.14010691 0 11364
0.10450000 0.10450100 17420.19936042 0 280.85394795 0 6323.32719766 0 296.60765171 0 835.89630432 0 12093
0.10550000 0.10551000 16888.50632263 0 737.48991027 0 5535.15482776 0 -329.10049612 0 1437.19883379 0 12067
0.10650000 0.10649700 16314.51700403 0 383.77231438 0 5575.09270339 0 -459.69303119 0 617.65303152 0 12054
0.10750000 0.10749900 15937.72579046 0 457.94249664 0 6050.69334365 0 -220.59171290 0 539.73376007 0 12807
0.10850000 0.10850100 16064.94680262 0 195.40438840 0 5738.67523026 0 548.43660738 0 619.27512711 0 12736
0.10950000 0.10950300 15457.18689333 0 -16.97963156 0 4944.93348098 0 774.48254748 0 327.59465994 0 12933
0.11050000 0.11050200 15865.64495589 0 24.19535492 0 5073.11778541 0 393.59568096 0 -22.35280934 0 13428
0.11150000 0.11150900 15639.65880634 0 -18.44372507 0 5637.82849581 0 239.18325350 0 208.89048003 0 13453
0.11250000 0.11250000 15550.19442180 0 232.93514060 0 5558.21848036 0 -44.29228880 0 598.87658309 0 13668
0.11350000 0.11349100 15311.25365222 0 415.21550240 0 6082.95809817 0 -304.70152115 0 1154.25664537 0 13791
0.11450000 0.11448600 15244.37681031 0 174.07244740 0 5567.59673948 0 -142.25944373 0 202.53385835 0 14205
0.11550000 0.11549300 14793.51174370 0 394.87010554 0 5712.30095254 0 -167.09909723 0 -303.02627840 0 14776
0.11650000 0.11649800 14620.22986029 0 566.72365905 0 6116.86155676 0 -524.73408164 0 -117.48843865 0 14553
0.11750000 0.11747300 14265.91546609 0 316.50351217 0 5627.81911417 0 181.90722445 0 12.95628089 0 14568
0.11850000 0.11849100 13970.61656318 0 -57.40413585 0 5521.95661658 0 389.49006291 0 -558.35962488 0 16015
0.11950000 0.11950300 13981.57816475 0 -83.43683235 0 5362.50406687 0 1156.22751919 0 -797.27935705 0 15270
0.12050000 0.12050700 14366.23072895 0 -50.24144893 0 4886.18372549 0 615.64008287 0 -979.62283110 0 15999
0.12150000 0.12150000 14030.96073344 0 146.97293241 0 4596.94138426 0 431.10207405 0 120.04393122 0 15670
0.12250000 0.12250700 13859.33969875 0 90.09163174 0 4057.89632279 0 206.91628451 0 61.87336904 0 16887
0.12350000 0.12352200 13783.82644348 0 112.07517905 0 4007.03006257 0 1037.72264112 0 939.16012728 0 16407
0.12450000 0.12449800 13737.54412574 0 75.38758438 0 3721.84019221 0 834.33067759 0 717.01828891 0 16306
0.12550000 0.12549900 13511.33652970 0 29.39657950 0 3359.66444740 0 1015.23253495 0 557.62774421 0 17523
0.12650000 0.12650100 13481.77342243 0 170.63559778 0 2830.08622365 0 550.00223411 0 792.83603310 0 17154
0.12750000 0.12750600 13235.08202547 0 3.55489168 0 2524.37933540 0 204.69185446 0 788.68834023 0 18007
0.12850000 0.12850300 13371.49306724 0 25.26549511 0 2616.40142697 0 -522.72113299 0 675.98203867 0 17496
0.12950000 0.12949900 13330.85763515 0 178.84351217 0 3060.64524334 0 -873.18789431 0 354.67313752 0 18405
0.13050000 0.13049000 13129.34132345 0 495.42563785 0 3368.67731980 0 -667.94685254 0 722.42711958 0 18100
0.13150000 0.13148800 12790.19601426 0 508.65042261 0 3662.57003746 0 -510.10754056 0 308.26459528 0 19059
0.13250000 0.13249300 12488.47516295 0 163.99663182 0 3721.45266085 0 202.33344927 0 276.42944696 0 18957
0.13350000 0.13349100 12277.76882165 0 278.76017133 0 3769.84979263 0 193.27075141 0 -456.59720917 0 19468
0.13450000 0.13450700 12063.18716667 0 358.65585276 0 3571.19014073 0 219.88751304 0 -155.54623352 0 19953
0.13550000 0.13551000 11770.98851470 0 185.54780485 0 3361.65746586 0 -13.05615326 0 147.25084776 0 19956
0.13650000 0.13649900 11701.12214510 0 -0.39214631 0 3143.12299092 0 290.93862140 0 278.74577731 0 19723
0.13750000 0.13749600 11793.35461084 0 -163.71096584 0 3072.28225673 0 456.33700954 0 68.46051652 0 20946
0.13850000 0.13851100 11926.33323191 0 47.99288120 0 2951.56069923 0 307.84163247 0 -13.93640308 0 20955
0.13950000 0.13949800 11844.73019800 0 223.97430813 0 3348.80249675 0 -100.32888182 0 100.21328675 0 20506
0.14050000 0.14048300 11658.27224805 0 76.29606863 0 3349.19002812 0 -279.89840632 0 183.25915531 0 21447
0.14150000 0.14148400 11553.74950176 0 271.24317001 0 3596.34646272 0 -106.22124092 0 454.77359728 0 21771
0.14250000 0.14249400 11494.51256398 0 211.33192765 0 3855.49422510 0 -291.61181875 0 32.29487125 0 22470
0.14350000 0.14350900 11096.13031701 0 236.08521702 0 3724.63041807 0 -191.06957323 0 260.22731405 0 22519
0.14450000 0.14449900 11075.53579284 0 292.64929558 0 3642.60663581 0 25.51606182 0 -542.00912282 0 22218
0.14550000 0.14550500 11033.60489876 0 88.79816275 0 3684.10570923 0 -40.88068408 0 -349.62747910 0 23559
0.14650000 0.14650700 10815.28079798 0 50.26215417 0 3471.24026459 0 508.47547988 0 84.10028605 0 23044
0.14750000 0.14750500 10818.84608657 0 149.08885368 0 3006.35763476 0 566.63618769 0 -99.63796875 0 23649
0.14850000 0.14849900 10695.26786927 0 22.38359041 0 3011.69449532 0 594.07008689 0 299.92492022 0 23640
0.14950000 0.14949500 10560.71697808 0 294.52826911 0 3164.27113132 0 658.62727674 0 175.97799451 0 24457
0.15050000 0.15050000 10210.17824664 0 256.12612494 0 2905.37803241 0 195.90596471 0 917.62334828 0 24591
0.15150000 0.15149900 9904.71494955 0 266.54850429 0 2734.01166119 0 235.43748601 0 1095.27990722 0 25020
0.15250000 0.15250500 9952.33701859 0 109.01844233 0 3066.92325152 0 -3.98870536 0 1407.84610069 0 25297
0.15350000 0.15350100 9693.15603924 0 82.31830610 0 3020.84023562 0 132.77821199 0 1144.15868513 0 25452
0.15450000 0.15450400 9772.21243844 0 189.60802636 0 2906.07558888 0 -61.99726836 0 1174.51899979 0 26061
0.15550000 0.15549900 9581.77952388 0 -18.90743403 0 2694.21772580 0 -34.43182994 0 1170.30044403 0 26128
0.15650000 0.15649500 9668.56440581 0 -27.07692745 0 2922.99410120 0 5.59263127 0 807.95197095 0 26331
0.15750000 0.15749700 9735.04264402 0 -36.51010530 0 2854.27925337 0 -50.08654710 0 403.69142673 0 27345
0.15850000 0.15849900 9721.85550517 0 157.09193006 0 2992.42865014 0 -221.11986279 0 34.43592670 0 26980
0.15950000 0.15949700 9529.11954705 0 264.58095217 0 2685.59238476 0 -395.52669440 0 159.54112831 0 27777
0.16050000 0.16050000 9350.09112705 0 250.27107957 0 3282.80036851 0 -333.33012420 0 85.59516063 0 28224
0.16150000 0.16150500 9263.40589605 0 147.89193537 0 3156.85267369 0 -203.94668700 0 71.37630254 0 28075
0.16250000 0.16249700 9247.98214758 0 100.94107066 0 3579.18435925 0 134.38812802 0 328.26010667 0 28590
0.16350000 0.16349900 9130.93660192 0 142.18193746 0 3242.14279177 0 270.22230166 0 355.07838461 0 29163
0.16450000 0.16449100 9003.64915580 0 222.14183837 0 3141.43999755 0 162.84400281 0 401.86227867 0 28996
0.16550000 0.16550500 8960.97641595 0 227.42223008 0 3249.79376822 0 327.35660496 0 583.03540798 0 30777
0.16650000 0.16650700 8733.70587673 0 181.87843640 0 3128.92827050 0 336.66621567 0 1022.70635420 0 29211
0.16750000 0.16749900 8564.94150184 0 56.50151993 0 2632.03554961 0 395.46690385 0 924.90340184 0 30922
0.16850000 0.16850800 8587.57333377 0 -141.30943827 0 2515.30002905 0 813.62100125 0 868.04258497 0 30867
0.16950000 0.16949900 8611.82172512 0 -45.21394912 0 2230.19873730 0 355.07506291 0 465.68758785 0 30852
0.17050000 0.17049200 8531.17091114 0 106.53181963 0 2037.46277918 0 105.35173125 0 616.27784878 0 31257
0.17150000 0.17149500 8377.02200502 0 111.62232096 0 1738.33285188 0 258.37602134 0 665.27952950 0 32608
0.17250000 0.17250900 8308.13000000 0 58.48623416 0 1715.70101995 0 20.30310057 0 511.73738677 0 32361
0.17350000 0.17350400 8402.32226723 0 12.46522328 0 1530.22850691 0 -67.18631338 0 228.48074433 0 32508
0.17450000 0.17449800 8186.73303068 0 158.72841967 0 1756.13715019 0 -164.65100622 0 -48.96558494 0 32791
0.17550000 0.17549800 8062.33546135 0 207.12776592 0 1565.93675445 0 -316.73492376 0 67.94000653 0 33633
0.17650000 0.17650100 7961.28942505 0 128.27620472 0 1798.14555055 0 -280.63139423 0 114.51994837 0 33984
0.17750000 0.17750300 7902.45109097 0 102.09724281 0 1755.43959372 0 205.16685719 0 -119.50360177 0 34069
0.17850000 0.17849800 7869.63272020 0 27.33347322 0 2011.75284095 0 87.81283656 0 201.60710476 0 34536
