### header ###
fiducial parameters:
Omega_m = 0.31
Omega_nu = 0
Omega_de = 0.69
Omega_k = 0
H_0 = 100
w_de = -1
zeff = 0
beta = 0
fgrowth = 0
b_1 = 2
gamma = 0.55
Lx = 3500 Ly = 3500 Lz = 3500
nx = 700 ny = 700 nz = 700
xoffset = -685.467585 yoffset = -31.7331281 zoffset = 572.489161
bins = 400 dk = 0.001
kx_ny = 0.628318531 ky_ny = 0.628318531 kz_ny = 0.628318531
############################
A(data) = 8.03326954 (not used)
A(ran) = 8.03369609 (used)
Ngal = 477860
weighted Ngal = 0
Nran = 23820508
weighted Nran = 0
SN(data) = 3480.94816
SN(ran) = 69.9764065
SN(data+ran) = 3550.92456
############################
13 columns: k_central k_mean P_0(k) sigma^{lin}_{P_0(k)} P^img_1(k) sigma^{lin}_{P_1(k)} P_2(k) sigma^{lin}_{P_2(k)} P^img_3(k) sigma^{lin}_{P_3(k)} P_4(k) sigma^{lin}_{P_4(k)} N_modes
### header ###
0.00050000 0 0 0 0 0 0 0 0 0 0 0 0
0.00150000 0.00179520 15084.49243993 0 -23201.06014824 0 4755.89567935 0 24075.44163917 0 -38688.69593482 0 3
0.00250000 0.00253879 21818.23750164 0 -13264.09151650 0 7211.85911970 0 16187.29599187 0 49336.61854317 0 6
0.00350000 0.00331552 27511.07330715 0 -8624.73205586 0 -4750.20450440 0 -29083.23270815 0 -34776.28996015 0 7
0.00450000 0.00420575 35214.31112997 0 -8608.58860627 0 -25672.73521751 0 6644.33603880 0 13156.57924251 0 24
0.00550000 0.00557378 43517.77968122 0 -14005.49438635 0 -34265.74506276 0 -15589.72262141 0 -8162.78359210 0 45
0.00650000 0.00659388 56475.72141648 0 -372.40103679 0 -10017.23191435 0 -41540.81608485 0 -14291.27108992 0 40
0.00750000 0.00754703 54959.69870231 0 -2686.10171170 0 -17621.38350238 0 -17074.85354933 0 -1814.86476102 0 57
0.00850000 0.00846663 49200.09677815 0 -3996.40063074 0 -20756.84444452 0 -10017.19869738 0 6201.47626303 0 75
0.00950000 0.00948925 61946.00349314 0 -13684.50768986 0 -39992.01928922 0 -1795.75392839 0 -8217.29264718 0 112
0.01050000 0.01054430 66554.41580590 0 -8051.76139115 0 -23099.41620640 0 -12240.12291727 0 -27458.92265725 0 105
0.01150000 0.01145670 81065.14037373 0 -2287.06619757 0 -30736.10935707 0 -57056.46485322 0 -32767.21662181 0 144
0.01250000 0.01249090 70025.36819005 0 4949.31812161 0 3089.82081924 0 -49999.62935331 0 -25798.73827394 0 169
0.01350000 0.01339930 70552.30012817 0 6737.81967724 0 11362.75189864 0 -36514.09134044 0 -23203.16388996 0 180
0.01450000 0.01448870 73517.69016110 0 -7692.14335336 0 35186.74104118 0 -14533.20138721 0 -24688.40554113 0 267
0.01550000 0.01550050 84496.01094204 0 -13339.49404851 0 42997.82330774 0 -3807.07494867 0 -23542.64136889 0 238
0.01650000 0.01653350 95704.96824895 0 -654.59362881 0 55737.86169057 0 512.66524759 0 -20087.96530223 0 315
0.01750000 0.01747870 107398.67193642 0 1322.94351398 0 62614.88263543 0 13130.00566294 0 6007.19017943 0 297
0.01850000 0.01844180 103085.77997306 0 4628.33142512 0 66377.70150180 0 -8313.81010263 0 -5884.06592745 0 388
0.01950000 0.01947590 101635.63759156 0 9642.93197386 0 79932.66299128 0 9315.22437620 0 13463.06119349 0 399
0.02050000 0.02045430 95825.98875922 0 16252.51198505 0 91249.13257218 0 13331.18980490 0 5009.72872582 0 462
0.02150000 0.02154770 85700.12626607 0 6986.64803289 0 61584.71353430 0 33415.94413293 0 19808.49982381 0 571
0.02250000 0.02255340 77290.25267331 0 -6365.61240614 0 46941.34251515 0 39212.30617549 0 5508.90234562 0 510
0.02350000 0.02348930 86362.69418321 0 -3731.57276573 0 32647.85696026 0 35832.70047110 0 -12873.23845040 0 555
0.02450000 0.02439640 79775.76814860 0 1950.50074005 0 17951.56022847 0 15872.73124377 0 -11830.00400599 0 592
0.02550000 0.02547300 66560.94847755 0 12432.67064587 0 3601.68332328 0 -1899.72305843 0 -7578.22020330 0 837
0.02650000 0.02652900 61080.59058531 0 4068.92435831 0 -4699.29395488 0 1654.52642533 0 -5059.62062145 0 723
0.02750000 0.02749970 59394.49696193 0 237.90107829 0 5919.01018458 0 -5949.59194573 0 -15329.19081842 0 826
0.02850000 0.02848090 57431.48449483 0 2998.40770554 0 2511.28077514 0 -7193.49013283 0 -11869.31075909 0 831
0.02950000 0.02946900 59120.67836916 0 4215.79874702 0 12479.28513335 0 -12214.21367719 0 -14383.06066267 0 996
0.03050000 0.03053250 54639.37634531 0 320.87375878 0 21094.21818175 0 -9152.32833347 0 -4345.80998504 0 1041
0.03150000 0.03150510 57076.83793089 0 1481.60992863 0 24502.27976093 0 1142.23210062 0 -10905.02199064 0 1036
0.03250000 0.03246190 59241.92032593 0 155.54401905 0 24200.44818637 0 6203.10389477 0 -4791.09459995 0 1059
0.03350000 0.03345080 57212.80607966 0 -1373.09007309 0 24844.41459782 0 6771.32453214 0 -8539.79625218 0 1302
0.03450000 0.03451200 59056.23743872 0 -45.90873750 0 21287.31952658 0 3078.92565162 0 -11098.23405872 0 1339
0.03550000 0.03553350 56259.81108252 0 3064.09980869 0 22266.55593355 0 -1962.27062133 0 -6158.40491948 0 1365
0.03650000 0.03647120 52780.77590125 0 4733.92818691 0 20488.00839793 0 2799.57089645 0 -6561.60362775 0 1308
0.03750000 0.03744890 51678.19379581 0 -650.14033977 0 21590.92267311 0 4627.68923028 0 -3343.54314246 0 1579
0.03850000 0.03847530 51338.93776337 0 284.30519160 0 18088.52488648 0 3278.78111460 0 -8243.72228653 0 1662
0.03950000 0.03950240 51987.11165825 0 441.83780019 0 16460.78241489 0 3310.22651708 0 -9318.83395409 0 1683
0.04050000 0.04050350 48316.85742737 0 2435.94467708 0 17194.98827361 0 320.30685575 0 -2021.38576354 0 1822
0.04150000 0.04152450 46773.26462440 0 3086.77592992 0 18603.27726730 0 -2151.91740083 0 -1625.80481475 0 1887
0.04250000 0.04250150 46164.84037562 0 2326.46152927 0 22821.61157670 0 697.49999472 0 1667.09351399 0 1920
0.04350000 0.04349210 44808.25913884 0 1173.21246546 0 22468.40441499 0 1407.09318260 0 1243.38886016 0 2005
0.04450000 0.04448520 43973.18440101 0 809.52424107 0 22885.05599792 0 -186.87759106 0 7489.91841287 0 2151
0.04550000 0.04548030 44311.88681722 0 757.00156106 0 24903.54081235 0 1004.61196098 0 5170.78676263 0 2274
0.04650000 0.04648670 43169.77651217 0 300.92364392 0 21607.64188359 0 2376.49736513 0 7019.94251362 0 2311
0.04750000 0.04749250 43238.20347955 0 2365.05965359 0 23262.29010449 0 4332.99930523 0 6645.83080265 0 2568
0.04850000 0.04851840 41994.67067917 0 155.63370488 0 17935.94825048 0 3229.38747358 0 4977.01000598 0 2493
0.04950000 0.04949480 39838.66759048 0 914.64600013 0 17645.41044724 0 2449.90687867 0 2882.15936727 0 2644
0.05050000 0.05050630 39027.06618128 0 1325.82231843 0 14843.22648213 0 2486.03587456 0 2023.97668755 0 2829
0.05150000 0.05149060 38581.51583057 0 -134.47117046 0 12253.07753731 0 4395.84582090 0 205.79133631 0 2784
0.05250000 0.05249300 38705.52586854 0 -964.56336211 0 10883.04342587 0 1896.04704659 0 -3738.83621081 0 3055
0.05350000 0.05348950 37609.47643474 0 768.24329245 0 9202.79598999 0 3800.06616706 0 -3183.19373444 0 3009
0.05450000 0.05448610 37206.00091835 0 1181.84887882 0 7389.71387326 0 -491.93121214 0 -3814.47126165 0 3336
0.05550000 0.05550870 36344.79549396 0 457.44534925 0 6891.93536639 0 1673.15007567 0 -2784.99971698 0 3349
0.05650000 0.05647670 35245.53508596 0 1070.50890214 0 7290.53905986 0 -2136.74831583 0 -2078.68504448 0 3324
0.05750000 0.05747970 34634.12130948 0 1952.99201314 0 9374.32844608 0 -516.29918460 0 -3712.58372867 0 3639
0.05850000 0.05849280 33097.94696414 0 1262.16752305 0 8751.67625991 0 -1389.83142821 0 -1432.42666179 0 3846
0.05950000 0.05951020 32610.54322562 0 1169.68039384 0 11099.34129120 0 -1472.59705623 0 -2338.19819358 0 3787
0.06050000 0.06049470 31816.98970587 0 810.10221643 0 12096.51486437 0 -2300.84016964 0 -2068.74209679 0 3930
0.06150000 0.06148310 32173.62928828 0 159.13145229 0 13988.22155964 0 -222.36328487 0 -2037.32991128 0 4083
0.06250000 0.06249100 31831.27300489 0 81.29876643 0 14363.46264774 0 -84.47829522 0 682.07735348 0 4303
0.06350000 0.06350600 31871.35482073 0 136.43761535 0 14163.93935451 0 3705.09883709 0 -951.07062709 0 4470
0.06450000 0.06451750 31769.93232539 0 -130.52610112 0 12783.55261937 0 2767.36150355 0 1461.40293584 0 4479
0.06550000 0.06550280 31244.66123599 0 -129.41111802 0 11180.50143212 0 4034.97661041 0 3123.27031252 0 4636
0.06650000 0.06648880 31814.11090142 0 137.79618960 0 9653.36210384 0 2551.68368841 0 2396.05109076 0 4653
0.06750000 0.06749660 30917.80620735 0 1168.20777464 0 8392.36824722 0 1706.07916968 0 3999.77768981 0 5220
0.06850000 0.06852730 29892.61965239 0 1580.34184904 0 8708.83743518 0 -824.56488710 0 2191.35702183 0 5029
0.06950000 0.06949320 28333.30414818 0 660.32134244 0 8808.75409435 0 -862.96481681 0 5190.51764546 0 5040
0.07050000 0.07048030 28165.44770393 0 290.84893557 0 7852.39311046 0 -14.33389954 0 2383.79402718 0 5475
0.07150000 0.07148790 28959.66556317 0 -283.77704171 0 9972.03468444 0 -1106.28690533 0 2361.02932735 0 5509
0.07250000 0.07249820 29150.77388954 0 380.19706069 0 9753.94310249 0 -1125.35787759 0 -536.20279569 0 5916
0.07350000 0.07351270 28377.03983121 0 1282.50738374 0 11728.58151065 0 -1604.39093855 0 1750.61206010 0 5721
0.07450000 0.07449140 27480.18152090 0 1102.69725762 0 10918.38628669 0 274.96679285 0 1405.39911691 0 6028
0.07550000 0.07549160 27046.36783451 0 -233.08018806 0 11533.48714734 0 1778.08249798 0 1366.87849886 0 6183
0.07650000 0.07648840 26999.53190052 0 -8.99032915 0 10386.32786218 0 2919.87170560 0 -117.90697253 0 6330
0.07750000 0.07749960 26502.27379292 0 737.45447883 0 9574.12854744 0 1054.34220067 0 44.08291114 0 6583
0.07850000 0.07848650 25496.35308315 0 986.48102909 0 7132.44840610 0 1874.40065157 0 219.49444551 0 6549
0.07950000 0.07947320 24748.63898814 0 197.55906281 0 6661.54243157 0 1483.07147551 0 439.50375412 0 6828
0.08050000 0.08048110 24528.07827775 0 -176.88371068 0 5267.49244760 0 2351.26353686 0 -111.97442089 0 7147
0.08150000 0.08149960 24283.15845277 0 348.24454573 0 5325.91003334 0 540.13789993 0 -1431.93947950 0 7386
0.08250000 0.08250610 23432.36101370 0 1071.78775566 0 4389.57888505 0 -1032.05582528 0 161.98700486 0 7227
0.08350000 0.08350160 22781.86193061 0 1357.57774601 0 6062.89504560 0 -852.37081642 0 690.64068949 0 7798
0.08450000 0.08449610 21805.39360485 0 629.94441930 0 6248.43399258 0 -979.04707021 0 1905.75747546 0 7371
0.08550000 0.08548940 21553.83038497 0 103.67648850 0 7118.14296244 0 318.79769788 0 1465.63256392 0 8256
0.08650000 0.08650700 21616.49974344 0 144.61674169 0 7355.26787075 0 173.16230230 0 -173.90525530 0 8037
0.08750000 0.08749060 21668.31822359 0 230.40732885 0 7532.71294830 0 -482.55627471 0 39.29988826 0 8155
0.08850000 0.08849210 21256.87063333 0 450.89828359 0 7827.65753682 0 -1129.80895217 0 -25.22120581 0 8718
0.08950000 0.08949900 21323.52602874 0 582.16180155 0 8144.63605172 0 -445.30454509 0 627.21841293 0 8571
0.09050000 0.09049190 20607.70022922 0 120.41263964 0 7914.71922686 0 39.25604186 0 -861.95059185 0 8932
0.09150000 0.09150830 21007.30043192 0 -233.07354466 0 8224.15748857 0 729.35285876 0 -736.62405446 0 9285
0.09250000 0.09250820 20926.25101425 0 -67.06551432 0 7546.30976317 0 1253.56432667 0 -883.02454768 0 9204
0.09350000 0.09350330 20661.84389758 0 458.44185849 0 7450.85525091 0 344.43345153 0 -972.10361531 0 9349
0.09450000 0.09448040 20139.67305913 0 874.70923174 0 6977.84553466 0 405.49732290 0 583.89019145 0 9564
0.09550000 0.09549270 19429.05125227 0 567.70798873 0 7050.65714267 0 852.00432247 0 400.21803843 0 10155
0.09650000 0.09649430 18714.55413172 0 421.68727625 0 6105.12489245 0 1227.87653309 0 577.84913103 0 9913
0.09750000 0.09749140 18466.64477903 0 479.50806369 0 5971.29370237 0 681.80940322 0 -1229.99134713 0 10476
0.09850000 0.09850240 17719.04140728 0 477.96790331 0 5401.29042071 0 201.85401761 0 529.64244323 0 10575
0.09950000 0.09950330 17437.91508013 0 415.73479443 0 5034.45322714 0 212.92855689 0 435.31620087 0 10882
0.10050000 0.10051200 17098.43760119 0 182.55274098 0 4933.61756502 0 715.93763001 0 348.84577297 0 10875
0.10150000 0.10150300 16953.39014607 0 96.89646112 0 4754.11303506 0 475.76451067 0 582.63901875 0 11118
0.10250000 0.10250800 16783.98357635 0 284.38601957 0 4969.60262068 0 949.44410257 0 1084.72687444 0 11575
0.10350000 0.10349800 16296.24766808 0 333.89149107 0 4650.55358103 0 662.55573759 0 1235.20641212 0 11364
0.10450000 0.10450100 16086.98072901 0 477.54604773 0 4758.25408454 0 26.24351356 0 1414.16839816 0 12093
0.10550000 0.10551000 16024.20064729 0 352.66129610 0 4946.69398063 0 -407.82583281 0 1865.80852751 0 12067
0.10650000 0.10649700 15581.52910104 0 105.57218123 0 4669.59797972 0 81.53106380 0 2122.79718656 0 12054
0.10750000 0.10749900 16020.98967309 0 44.79685464 0 4749.27442911 0 -233.47768452 0 1343.65983372 0 12807
0.10850000 0.10850100 15886.68237304 0 134.24861673 0 5029.68105514 0 373.70314219 0 1495.28424978 0 12736
0.10950000 0.10950300 15734.88079978 0 205.80130140 0 4696.24906556 0 300.46635691 0 1067.64338448 0 12933
0.11050000 0.11050200 15269.17881791 0 363.66607974 0 4093.60457033 0 409.78674154 0 1064.23200120 0 13428
0.11150000 0.11150900 15266.96435294 0 357.84535858 0 4332.43461666 0 137.40755100 0 207.04472348 0 13453
0.11250000 0.11250000 14701.16855471 0 208.46862445 0 4324.25216862 0 206.12129159 0 1441.25130467 0 13668
0.11350000 0.11349100 14671.71617069 0 279.70796234 0 4468.36954846 0 -294.28467796 0 1164.35460560 0 13791
0.11450000 0.11448600 14562.10015499 0 108.55373686 0 4419.85062111 0 587.42115584 0 1824.24302015 0 14205
0.11550000 0.11549300 14708.80845883 0 110.74428560 0 4886.83699266 0 259.49654061 0 1364.30971950 0 14776
0.11650000 0.11649800 14420.26367406 0 16.31806015 0 4694.25604709 0 -30.11163024 0 2074.95367101 0 14553
0.11750000 0.11747300 14574.39043554 0 185.42822374 0 5591.56832272 0 -617.85344060 0 2034.71684262 0 14568
0.11850000 0.11849100 14513.93554203 0 291.71811307 0 5906.39880661 0 -534.02597663 0 1900.76385697 0 16015
0.11950000 0.11950300 14225.94437349 0 239.83319897 0 6138.58545806 0 -498.24908068 0 2110.59548461 0 15270
0.12050000 0.12050700 14242.22069098 0 69.59144378 0 6231.07258727 0 -87.89853636 0 1702.85712316 0 15999
0.12150000 0.12150000 14049.89440888 0 120.74591661 0 5794.82298941 0 674.22153902 0 1677.33541445 0 15670
0.12250000 0.12250700 13664.79895168 0 439.80381412 0 6096.34453887 0 553.13902373 0 1193.77377265 0 16887
0.12350000 0.12352200 13452.43176166 0 362.96077265 0 5294.37605226 0 914.43673319 0 1399.67472497 0 16407
0.12450000 0.12449800 13035.33728574 0 301.86479153 0 5185.59046092 0 569.65893236 0 721.21359278 0 16306
0.12550000 0.12549900 12961.81704895 0 165.08614858 0 4565.89458547 0 566.04935447 0 1602.90724702 0 17523
0.12650000 0.12650100 12725.53363732 0 108.92798144 0 4524.49516297 0 239.51874494 0 1297.00105693 0 17154
0.12750000 0.12750600 12513.16644730 0 165.90550062 0 4042.14040457 0 215.99669810 0 1666.20772801 0 18007
0.12850000 0.12850300 12721.87977013 0 55.39450890 0 4404.74797005 0 271.15016248 0 1132.64346732 0 17496
0.12950000 0.12949900 12469.87365726 0 60.24463006 0 3857.96335354 0 182.32132939 0 1088.68965949 0 18405
0.13050000 0.13049000 12489.47167218 0 -64.93973868 0 3677.77233944 0 495.95157328 0 1725.19000232 0 18100
0.13150000 0.13148800 12509.40185686 0 -105.06407225 0 3962.15393008 0 397.08124881 0 1208.24530119 0 19059
0.13250000 0.13249300 12560.88816727 0 66.43173445 0 3426.50807233 0 109.58290945 0 867.07264932 0 18957
0.13350000 0.13349100 12200.48399442 0 336.35286888 0 3505.92985825 0 28.37482537 0 587.50198381 0 19468
0.13450000 0.13450700 11882.04393263 0 387.28445581 0 3074.13133497 0 -179.29969195 0 404.95588622 0 19953
0.13550000 0.13551000 11653.73259487 0 244.08054277 0 3338.00698005 0 -322.30098145 0 -40.93549209 0 19956
0.13650000 0.13649900 11558.62132468 0 236.47717731 0 3274.66220976 0 -236.42513739 0 -717.62394508 0 19723
0.13750000 0.13749600 11321.67357356 0 241.99119507 0 3531.58443486 0 -415.38712343 0 -571.18912765 0 20946
0.13850000 0.13851100 11176.95828818 0 159.05283879 0 3523.50163774 0 -237.49472397 0 -826.53576092 0 20955
0.13950000 0.13949800 11139.53383030 0 91.39993764 0 3632.37580768 0 76.34046865 0 -644.95074113 0 20506
0.14050000 0.14048300 11184.26602256 0 -87.11572299 0 3642.41840629 0 236.55800529 0 -637.13478704 0 21447
0.14150000 0.14148400 11384.45365528 0 -134.68929526 0 3402.69150164 0 566.67272636 0 -403.19206488 0 21771
0.14250000 0.14249400 11317.79825988 0 66.90751224 0 3384.86505868 0 295.35869347 0 -562.42206086 0 22470
0.14350000 0.14350900 11309.16184652 0 137.50277299 0 3052.69531412 0 268.82608150 0 -518.51143509 0 22519
0.14450000 0.14449900 11112.96025073 0 247.91599608 0 3167.68140737 0 171.37522908 0 -100.84440926 0 22218
0.14550000 0.14550500 10915.51855456 0 291.11910029 0 2944.00937371 0 73.59785379 0 -224.64971994 0 23559
0.14650000 0.14650700 10813.67531088 0 148.10895294 0 3237.81351277 0 -98.51888888 0 -173.50775884 0 23044
0.14750000 0.14750500 10683.80801308 0 144.79057719 0 3164.43721619 0 -0.86781560 0 -52.19593570 0 23649
0.14850000 0.14849900 10514.16892454 0 197.84694325 0 3228.80064037 0 -60.65895646 0 134.13900071 0 23640
0.14950000 0.14949500 10385.34242527 0 255.32670309 0 3099.21015069 0 81.16822372 0 -182.99341951 0 24457
0.15050000 0.15050000 10140.68833608 0 284.02395455 0 3547.46214865 0 210.41071023 0 -12.34752447 0 24591
0.15150000 0.15149900 9852.84110777 0 359.86716509 0 3285.70131761 0 -121.40139824 0 45.66149249 0 25020
0.15250000 0.15250500 9589.28656011 0 168.92713806 0 3253.14868264 0 472.60336193 0 344.86970113 0 25297
0.15350000 0.15350100 9414.44347890 0 31.02952596 0 3161.49197779 0 505.99638635 0 254.84062803 0 25452
0.15450000 0.15450400 9420.42253430 0 128.73238450 0 3026.25460246 0 372.76974520 0 74.45407667 0 26061
0.15550000 0.15549900 9371.94789625 0 131.75623641 0 2950.71920255 0 -38.58096221 0 144.92565955 0 26128
0.15650000 0.15649500 9219.71450232 0 182.42540925 0 2765.23561718 0 -255.46732161 0 524.11292422 0 26331
0.15750000 0.15749700 9120.98258191 0 84.14457535 0 2881.10749641 0 -204.57891674 0 265.13678287 0 27345
0.15850000 0.15849900 9158.26309957 0 -19.73531176 0 2906.47419257 0 10.87997639 0 25.73385445 0 26980
0.15950000 0.15949700 9129.90687571 0 -19.90826147 0 2788.31034211 0 330.35609775 0 34.60123650 0 27777
0.16050000 0.16050000 9167.67457567 0 7.60256825 0 2342.01814564 0 261.82394329 0 96.92801725 0 28224
0.16150000 0.16150500 9170.88554987 0 -80.33303826 0 2274.42160262 0 327.01779182 0 115.15771428 0 28075
0.16250000 0.16249700 9079.67173801 0 147.28406474 0 2002.75104087 0 465.70308910 0 133.86772875 0 28590
0.16350000 0.16349900 8995.24526127 0 123.27040667 0 1846.56482698 0 372.82510683 0 275.89465367 0 29163
0.16450000 0.16449100 8888.56341164 0 64.95313619 0 1798.76560074 0 335.25449425 0 330.74252189 0 28996
0.16550000 0.16550500 8881.15602634 0 90.24376548 0 2115.93234517 0 58.40308100 0 451.29024389 0 30777
0.16650000 0.16650700 8766.65711539 0 143.03893540 0 2109.33323958 0 65.32118027 0 876.83068918 0 29211
0.16750000 0.16749900 8747.14767906 0 125.73510618 0 2417.85249832 0 -245.12134130 0 877.59246513 0 30922
0.16850000 0.16850800 8643.67680363 0 137.69653868 0 2549.82353784 0 -308.39081978 0 984.82350206 0 30867
0.16950000 0.16949900 8585.60245995 0 64.59339636 0 2667.56663996 0 -172.84341935 0 795.31623386 0 30852
0.17050000 0.17049200 8511.83863201 0 204.40508124 0 2569.79801181 0 65.61802930 0 892.19353986 0 31257
0.17150000 0.17149500 8323.98556914 0 174.81207870 0 2449.09859896 0 68.52041780 0 437.06009203 0 32608
0.17250000 0.17250900 8217.87948040 0 197.32654399 0 2219.53608850 0 320.19834697 0 448.21878098 0 32361
0.17350000 0.17350400 7969.57152402 0 26.69382501 0 1957.60917259 0 421.58430363 0 540.79559602 0 32508
0.17450000 0.17449800 8045.15121323 0 -1.90308905 0 1631.94995502 0 260.50412217 0 107.17921846 0 32791
0.17550000 0.17549800 8049.92338523 0 22.49121340 0 1698.99288180 0 0.38470793 0 96.86711946 0 33633
0.17650000 0.17650100 8008.18072066 0 39.13070314 0 1821.90675961 0 -315.96318272 0 292.60168459 0 33984
0.17750000 0.17750300 8021.06890675 0 124.99990381 0 1927.80247417 0 -221.66572840 0 596.09521510 0 34069
