### header ###
fiducial parameters:
Omega_m = 0.31
Omega_nu = 0
Omega_de = 0.69
Omega_k = 0
H_0 = 100
w_de = -1
zeff = 0
beta = 0
fgrowth = 0
b_1 = 2
gamma = 0.55
Lx = 3500 Ly = 3500 Lz = 3500
nx = 700 ny = 700 nz = 700
xoffset = -685.467585 yoffset = -31.7331281 zoffset = 572.489161
bins = 400 dk = 0.001
kx_ny = 0.628318531 ky_ny = 0.628318531 kz_ny = 0.628318531
############################
A(data) = 8.02054018 (not used)
A(ran) = 8.01438116 (used)
Ngal = 476330
weighted Ngal = 0
Nran = 23820508
weighted Nran = 0
SN(data) = 3496.60895
SN(ran) = 69.8081665
SN(data+ran) = 3566.41712
############################
13 columns: k_central k_mean P_0(k) sigma^{lin}_{P_0(k)} P^img_1(k) sigma^{lin}_{P_1(k)} P_2(k) sigma^{lin}_{P_2(k)} P^img_3(k) sigma^{lin}_{P_3(k)} P_4(k) sigma^{lin}_{P_4(k)} N_modes
### header ###
0.00050000 0 0 0 0 0 0 0 0 0 0 0 0
0.00150000 0.00179520 44291.18156980 0 -3587.79862796 0 58528.75188436 0 13954.67241544 0 -55716.93499666 0 3
0.00250000 0.00253879 66229.33234923 0 13727.35758691 0 41541.92331733 0 -17438.80086612 0 38791.66855563 0 6
0.00350000 0.00331552 48967.68868021 0 24936.42561707 0 28683.52178219 0 38629.34827379 0 97674.84555743 0 7
0.00450000 0.00420575 36659.91385830 0 7571.87576118 0 40913.90105362 0 29183.43724775 0 18736.25588837 0 24
0.00550000 0.00557378 46736.83667575 0 -10567.55967481 0 58705.46618846 0 72729.11918752 0 -16728.95412200 0 45
0.00650000 0.00659388 75185.73589503 0 -17018.16324626 0 33706.59265942 0 72914.35918174 0 -11029.77387437 0 40
0.00750000 0.00754703 67702.50516635 0 -13286.34688938 0 24481.46379027 0 34801.31341424 0 16830.81951033 0 57
0.00850000 0.00846663 81504.04732954 0 -8821.59799114 0 -3832.18698136 0 24390.89217325 0 -5778.49131030 0 75
0.00950000 0.00948925 82622.90575247 0 1177.79640793 0 3273.85393005 0 2426.72143050 0 14617.57250233 0 112
0.01050000 0.01054430 73552.45726103 0 9554.19836276 0 -4560.85667767 0 -20011.01264474 0 -3386.92451110 0 105
0.01150000 0.01145670 62762.80889501 0 10046.61786442 0 -9615.76048875 0 -13306.16635081 0 9661.13487586 0 144
0.01250000 0.01249090 68566.92156494 0 -3884.41513753 0 -11131.11886343 0 -18849.19360152 0 1127.35089606 0 169
0.01350000 0.01339930 70536.02381069 0 -8944.61151987 0 -5826.02480075 0 -13302.29103712 0 -20938.76274129 0 180
0.01450000 0.01448870 75504.50812656 0 -58.62043073 0 9468.72001516 0 -26642.11725538 0 -28630.26389981 0 267
0.01550000 0.01550050 74164.86754675 0 3068.04155632 0 -5367.84092743 0 -16842.22400489 0 -16101.81764427 0 238
0.01650000 0.01653350 71640.37748810 0 -1095.61539866 0 15723.91919821 0 2353.26762766 0 -14455.14149724 0 315
0.01750000 0.01747870 76329.83921854 0 4758.89627938 0 3550.94993096 0 8955.39596424 0 -11522.08265278 0 297
0.01850000 0.01844180 76116.69696578 0 -598.92640856 0 16845.43497909 0 21860.20161270 0 -22622.75262296 0 388
0.01950000 0.01947590 70421.42524882 0 -1121.17253881 0 -3884.37084823 0 7098.42315193 0 -8877.92290749 0 399
0.02050000 0.02045430 74974.14376775 0 -1808.39852333 0 5820.14539627 0 -1133.81713375 0 -3544.99302021 0 462
0.02150000 0.02154770 72233.74337513 0 2038.62537328 0 9197.53663570 0 -12053.11135108 0 -622.13067968 0 571
0.02250000 0.02255340 69977.97863983 0 10387.15828654 0 13715.62092260 0 -18045.12137319 0 9417.30013870 0 510
0.02350000 0.02348930 67321.61719259 0 6063.34901091 0 23265.94397168 0 -11625.05527359 0 14979.08390766 0 555
0.02450000 0.02439640 61221.65200350 0 3570.65866914 0 36479.21351726 0 -6991.63057906 0 10663.62316494 0 592
0.02550000 0.02547300 63156.31931906 0 -659.82530229 0 37144.88168535 0 7307.00360687 0 1907.94979577 0 837
0.02650000 0.02652900 66449.45016662 0 1258.35864331 0 42491.04300079 0 7745.45659736 0 7181.50987737 0 723
0.02750000 0.02749970 62491.09404396 0 3108.69913306 0 31571.51626464 0 4675.67668604 0 861.35268631 0 826
0.02850000 0.02848090 64092.59510573 0 2955.24778340 0 35735.04256620 0 -28.18726018 0 16580.58496943 0 831
0.02950000 0.02946900 63298.04507674 0 -1357.31201022 0 34199.42183710 0 5805.96174818 0 10358.09343389 0 996
0.03050000 0.03053250 64780.29720021 0 -3213.97479743 0 34583.63150830 0 7318.86206675 0 9358.15177952 0 1041
0.03150000 0.03150510 62366.64111300 0 3386.91343878 0 31553.46837519 0 10700.04004127 0 -1272.90767813 0 1036
0.03250000 0.03246190 62001.91873347 0 4468.30311451 0 24372.17994431 0 6552.67933395 0 4547.22664582 0 1059
0.03350000 0.03345080 56199.79908200 0 2893.41992161 0 22099.25310554 0 3029.50986595 0 2409.67005028 0 1302
0.03450000 0.03451200 52826.17243301 0 2682.79108658 0 20199.57433640 0 5086.27170729 0 1925.00117600 0 1339
0.03550000 0.03553350 49447.12034486 0 3514.93165833 0 18263.35689536 0 1782.99861020 0 956.98214131 0 1365
0.03650000 0.03647120 46275.89579355 0 1781.72529284 0 16545.37497650 0 4509.03819752 0 1122.04725247 0 1308
0.03750000 0.03744890 47839.41878119 0 -1790.64958665 0 15976.70037382 0 2512.00047626 0 489.62041795 0 1579
0.03850000 0.03847530 48109.58350676 0 -1547.49026130 0 15644.08773627 0 969.71310038 0 -2147.97565319 0 1662
0.03950000 0.03950240 50200.48132552 0 300.50068111 0 16287.94342447 0 -720.06760716 0 -2574.12729081 0 1683
0.04050000 0.04050350 48470.09840286 0 2293.07846994 0 17708.63342195 0 1778.93506699 0 8092.86186087 0 1822
0.04150000 0.04152450 49752.05217036 0 1225.11952421 0 17050.71588123 0 1864.05910019 0 6408.13013344 0 1887
0.04250000 0.04250150 47917.81084090 0 502.09782078 0 22710.11326578 0 4095.04397255 0 8132.40113280 0 1920
0.04350000 0.04349210 47278.49480588 0 1983.69556986 0 18816.41952006 0 5245.83498025 0 8034.59928768 0 2005
0.04450000 0.04448520 45878.06716281 0 1635.58167756 0 22285.82177873 0 1992.67522529 0 12204.58075460 0 2151
0.04550000 0.04548030 44747.80424533 0 1092.70891340 0 19529.03434538 0 2480.85402654 0 8859.37676342 0 2274
0.04650000 0.04648670 43286.92170875 0 1597.59253111 0 17333.61378034 0 1426.66905288 0 11885.47635333 0 2311
0.04750000 0.04749250 42124.65977254 0 1678.13262184 0 14910.54621703 0 2839.17660232 0 10551.51587615 0 2568
0.04850000 0.04851840 39810.43316219 0 1263.34118948 0 14788.97209052 0 3008.04062813 0 7937.70537319 0 2493
0.04950000 0.04949480 39290.69823521 0 1810.39154180 0 13369.83221852 0 1867.73511203 0 4105.35230696 0 2644
0.05050000 0.05050630 34917.57282483 0 1316.33333606 0 9757.46410178 0 -715.40283672 0 802.03824226 0 2829
0.05150000 0.05149060 35516.58559752 0 3174.41338086 0 11064.66276987 0 -4318.06273905 0 512.86012051 0 2784
0.05250000 0.05249300 33011.13993756 0 714.42293597 0 12127.18520412 0 -395.83339780 0 865.12170568 0 3055
0.05350000 0.05348950 34010.97086868 0 -484.28909355 0 12649.24531932 0 1366.52418447 0 480.62858296 0 3009
0.05450000 0.05448610 34080.28362205 0 -1913.29772866 0 11441.36540485 0 3702.80686585 0 -1046.56057079 0 3336
0.05550000 0.05550870 35483.03645332 0 65.19949542 0 12196.71940398 0 1093.12301835 0 -2250.93720168 0 3349
0.05650000 0.05647670 34263.97349079 0 1308.59378102 0 11222.57626644 0 1559.86912045 0 307.26365711 0 3324
0.05750000 0.05747970 33370.10470818 0 2255.35505928 0 10332.49421891 0 -1567.63082015 0 632.58627600 0 3639
0.05850000 0.05849280 32550.30977861 0 940.32050692 0 11132.00464942 0 -1321.68126895 0 526.78024727 0 3846
0.05950000 0.05951020 31010.14939633 0 162.20070073 0 11822.36410186 0 -334.99761632 0 72.73753415 0 3787
0.06050000 0.06049470 31757.19915185 0 -690.62408101 0 9728.96393770 0 1323.38640697 0 -1292.73821188 0 3930
0.06150000 0.06148310 32556.95317350 0 -761.77926922 0 10149.31367711 0 1923.14102543 0 -343.83886769 0 4083
0.06250000 0.06249100 33550.14070973 0 -610.38958644 0 8879.99343223 0 1056.23224652 0 -956.21261473 0 4303
0.06350000 0.06350600 33125.18488319 0 19.42927270 0 10545.26001263 0 982.31451326 0 -607.03910095 0 4470
0.06450000 0.06451750 33510.61251013 0 707.79836403 0 9315.34617177 0 -530.69652856 0 -407.22571281 0 4479
0.06550000 0.06550280 32440.80448615 0 1211.74415583 0 11657.71863181 0 -915.83848951 0 1345.08816362 0 4636
0.06650000 0.06648880 32804.08746345 0 1577.97237153 0 13572.01286970 0 -1561.33066733 0 -626.77551994 0 4653
0.06750000 0.06749660 30847.60766800 0 143.90479120 0 12462.56592288 0 -791.41102490 0 1062.68962635 0 5220
0.06850000 0.06852730 31177.00933135 0 556.60355417 0 14176.34035831 0 -361.63984430 0 -1393.88389909 0 5029
0.06950000 0.06949320 30706.21408006 0 740.74185206 0 13748.06283432 0 -413.86910770 0 -1538.43309960 0 5040
0.07050000 0.07048030 30421.10171598 0 147.67823950 0 12107.69791244 0 2997.65478745 0 -2656.91506348 0 5475
0.07150000 0.07148790 29112.90653866 0 237.72724279 0 11746.85084660 0 475.42126860 0 -3731.25166831 0 5509
0.07250000 0.07249820 29544.61648334 0 1003.65420488 0 10830.57167856 0 1742.35210579 0 -4371.59742955 0 5916
0.07350000 0.07351270 28148.61777020 0 1126.70870122 0 10108.89969153 0 994.88603086 0 -2333.30422601 0 5721
0.07450000 0.07449140 26613.99355034 0 1079.36786923 0 9012.82811308 0 1710.33094241 0 -2996.69149519 0 6028
0.07550000 0.07549160 26834.66498397 0 -115.91616853 0 8967.45372597 0 1685.91646619 0 -1538.04556823 0 6183
0.07650000 0.07648840 25864.28643687 0 405.64569206 0 9194.96785635 0 389.70597325 0 -1694.47537327 0 6330
0.07750000 0.07749960 26045.76184065 0 813.21796863 0 8763.80045558 0 -232.37820267 0 -528.98031821 0 6583
0.07850000 0.07848650 25191.42125764 0 446.43170776 0 8777.38619814 0 540.73137654 0 824.22385950 0 6549
0.07950000 0.07947320 25520.60147450 0 355.85234011 0 8418.85324818 0 702.43271542 0 665.70138507 0 6828
0.08050000 0.08048110 24978.61117463 0 -454.98507868 0 8153.05101859 0 1514.00755105 0 2286.25791785 0 7147
0.08150000 0.08149960 25245.34347951 0 208.57713324 0 8304.07752911 0 2903.35179697 0 2174.79282390 0 7386
0.08250000 0.08250610 24932.88247312 0 15.94326195 0 5485.08577493 0 2019.43703437 0 2604.46546082 0 7227
0.08350000 0.08350160 24562.40248469 0 607.59050273 0 6737.64252004 0 715.51577443 0 2589.10814629 0 7798
0.08450000 0.08449610 24099.35786078 0 514.55086451 0 5266.06411770 0 -96.24352613 0 2799.18336508 0 7371
0.08550000 0.08548940 23481.63285914 0 622.93010153 0 6180.01809753 0 -636.86019338 0 2454.08114513 0 8256
0.08650000 0.08650700 23177.14392663 0 600.79873868 0 5820.92045901 0 -723.98831738 0 2973.88250607 0 8037
0.08750000 0.08749060 22209.75490723 0 368.80031676 0 6038.64665424 0 476.84074064 0 586.38257177 0 8155
0.08850000 0.08849210 22169.89453788 0 545.56998249 0 5954.57449189 0 750.74680477 0 69.49987565 0 8718
0.08950000 0.08949900 21169.62071376 0 995.19827042 0 5337.24809396 0 -350.44904560 0 49.56105457 0 8571
0.09050000 0.09049190 20607.03588973 0 1035.36312870 0 5496.14702743 0 -72.39418136 0 189.22713838 0 8932
0.09150000 0.09150830 19843.59909348 0 694.64887108 0 6009.51536765 0 -204.41947527 0 1325.87768006 0 9285
0.09250000 0.09250820 19052.59220844 0 878.86799695 0 6201.62020325 0 51.69845615 0 913.26638846 0 9204
0.09350000 0.09350330 18830.25992608 0 304.16340616 0 6147.87513858 0 317.50223587 0 811.90146921 0 9349
0.09450000 0.09448040 18603.72016029 0 52.07081843 0 6741.29638723 0 355.57885369 0 1822.62646072 0 9564
0.09550000 0.09549270 18693.62743782 0 83.53504387 0 6613.68784370 0 684.84100575 0 1843.33170813 0 10155
0.09650000 0.09649430 18511.70914105 0 123.37670099 0 6945.52541851 0 43.45322803 0 1320.37473462 0 9913
0.09750000 0.09749140 18252.94891003 0 664.39817244 0 6999.68015920 0 66.56847766 0 1850.60622554 0 10476
0.09850000 0.09850240 17795.77261827 0 605.03279569 0 6908.85387871 0 -807.08722238 0 1301.82859055 0 10575
0.09950000 0.09950330 17354.20830451 0 458.57251192 0 6926.11563311 0 187.43895792 0 1167.07839751 0 10882
0.10050000 0.10051200 17224.66210413 0 312.45879192 0 6817.30789711 0 719.76311823 0 956.71861998 0 10875
0.10150000 0.10150300 16612.47326490 0 358.70567822 0 6608.05203037 0 825.24362062 0 615.92574885 0 11118
0.10250000 0.10250800 16444.39537416 0 87.94249349 0 5990.22737781 0 1025.73131334 0 497.24592805 0 11575
0.10350000 0.10349800 16317.61725498 0 81.11618379 0 5330.80400091 0 906.74478914 0 747.56683308 0 11364
0.10450000 0.10450100 16238.45013253 0 41.27995211 0 4708.18503171 0 920.79003317 0 1096.37163845 0 12093
0.10550000 0.10551000 16012.57470623 0 19.90726496 0 4422.72942556 0 -34.00897785 0 675.86245756 0 12067
0.10650000 0.10649700 16199.14337942 0 170.25692427 0 4313.01375893 0 188.95697366 0 483.21839974 0 12054
0.10750000 0.10749900 15728.23740489 0 235.89920196 0 4466.33224070 0 -478.42519032 0 646.62044771 0 12807
0.10850000 0.10850100 15684.28027536 0 263.19358987 0 4316.84478332 0 -148.72789589 0 519.32525097 0 12736
0.10950000 0.10950300 15629.69371400 0 27.81412284 0 4982.38008352 0 1.79654006 0 742.66511489 0 12933
0.11050000 0.11050200 15559.05228166 0 -60.17432080 0 5026.18220050 0 797.28378598 0 1836.86547044 0 13428
0.11150000 0.11150900 15588.50466568 0 277.03842482 0 4598.96761970 0 570.29559104 0 1242.01589188 0 13453
0.11250000 0.11250000 15027.35924387 0 499.39395906 0 4981.50536986 0 545.01968794 0 2505.87748063 0 13668
0.11350000 0.11349100 15200.19823429 0 28.07620477 0 4309.73635079 0 937.88016653 0 2275.07486979 0 13791
0.11450000 0.11448600 14909.99260079 0 -159.86111850 0 4307.76547697 0 369.63738451 0 2837.20572850 0 14205
0.11550000 0.11549300 15038.43156869 0 116.10661251 0 3807.96073465 0 169.37335275 0 2470.46818586 0 14776
0.11650000 0.11649800 15134.20717837 0 82.46778248 0 4226.47246815 0 251.17015235 0 2243.02048944 0 14553
0.11750000 0.11747300 14758.74464377 0 246.49984574 0 4040.32454330 0 -749.12913812 0 2358.48269265 0 14568
0.11850000 0.11849100 14786.42545581 0 365.26935237 0 4286.70591516 0 -92.42457057 0 1814.86476102 0 16015
0.11950000 0.11950300 14187.85557612 0 276.93545220 0 4539.34315055 0 -2.80938098 0 1437.20990611 0 15270
0.12050000 0.12050700 14195.16331050 0 447.08718939 0 4386.46756178 0 -93.84913589 0 1140.57125189 0 15999
0.12150000 0.12150000 13990.65747110 0 52.99557900 0 4685.42033188 0 605.39264625 0 1177.05456217 0 15670
0.12250000 0.12250700 13733.66881206 0 21.50001889 0 4028.95326571 0 107.19460899 0 1365.46124129 0 16887
0.12350000 0.12352200 13977.25995807 0 96.67435029 0 4178.69538656 0 111.98327875 0 834.19448800 0 16407
0.12450000 0.12449800 13493.39936349 0 289.51582766 0 4380.57708498 0 -380.50930025 0 754.55236281 0 16306
0.12550000 0.12549900 13533.14900959 0 414.66520785 0 4787.71754088 0 -423.16543162 0 1045.82204672 0 17523
0.12650000 0.12650100 13179.38823163 0 245.31067805 0 4523.76438953 0 -191.71841147 0 1153.80268005 0 17154
0.12750000 0.12750600 13254.45859391 0 -63.66044227 0 5020.80105064 0 484.11193635 0 1638.80372408 0 18007
0.12850000 0.12850300 13398.39881655 0 -126.54781482 0 4592.41280341 0 722.68399752 0 1260.48452968 0 17496
0.12950000 0.12949900 13287.56484511 0 -11.28125959 0 4022.74169149 0 464.07213566 0 605.88315024 0 18405
0.13050000 0.13049000 13267.63466044 0 181.83525433 0 3926.14672977 0 499.20351508 0 1052.06351622 0 18100
0.13150000 0.13148800 12856.74068642 0 197.49595056 0 3316.75918872 0 333.33455313 0 374.12610499 0 19059
0.13250000 0.13249300 12830.60999985 0 244.97740108 0 3447.36833229 0 3.02346438 0 778.23385113 0 18957
0.13350000 0.13349100 12335.12346421 0 508.15770416 0 3401.04172524 0 4.25545981 0 591.15363653 0 19468
0.13450000 0.13450700 11960.87888534 0 615.70873128 0 3448.50878174 0 5.44209194 0 883.98230378 0 19953
0.13550000 0.13551000 11654.95055060 0 239.90074015 0 3382.63952140 0 420.61768968 0 1297.52145620 0 19956
0.13650000 0.13649900 11524.96145723 0 8.46970844 0 3486.84117026 0 372.88932631 0 1332.73144912 0 19723
0.13750000 0.13749600 11525.84724322 0 80.55315607 0 3383.30386088 0 687.01893204 0 1863.80443672 0 20946
0.13850000 0.13851100 11434.05767047 0 43.01974651 0 3071.16395192 0 413.82592563 0 1870.24852977 0 20955
0.13950000 0.13949800 11443.46914657 0 -19.33083973 0 2731.96328110 0 249.09187698 0 1885.83836311 0 20506
0.14050000 0.14048300 11348.13642988 0 127.76798501 0 2981.13487882 0 156.53720659 0 1568.37266591 0 21447
0.14150000 0.14148400 11277.60572078 0 337.44238564 0 3013.53250124 0 -497.97670149 0 1042.72733194 0 21771
0.14250000 0.14249400 10771.96586329 0 440.69292180 0 3154.43890688 0 -431.64793966 0 1610.21498140 0 22470
0.14350000 0.14350900 10545.06071078 0 324.33386029 0 3393.80042481 0 -150.60908388 0 1250.75195616 0 22519
0.14450000 0.14449900 10550.84046434 0 -23.84624452 0 3475.22630153 0 -91.87460820 0 1585.47940776 0 22218
0.14550000 0.14550500 10468.08590864 0 88.78653681 0 3357.97038170 0 392.14742087 0 1043.11264884 0 23559
0.14650000 0.14650700 10505.75395768 0 172.33741410 0 3336.00288926 0 68.26365059 0 1531.29145009 0 23044
0.14750000 0.14750500 10317.21441066 0 9.43238065 0 3255.97212547 0 22.47006526 0 1100.14840845 0 23649
0.14850000 0.14849900 10466.93438686 0 75.48269565 0 3458.91676707 0 263.87785954 0 946.68598646 0 23640
0.14950000 0.14949500 10082.44790753 0 137.40755100 0 2976.31841753 0 -15.29088057 0 665.94608345 0 24457
0.15050000 0.15050000 10200.05814176 0 255.42967571 0 2927.46732043 0 -91.81083161 0 214.82746060 0 24591
0.15150000 0.15149900 9919.62937108 0 78.17172045 0 2962.96519379 0 -108.61142367 0 -178.93651970 0 25020
0.15250000 0.15250500 9793.78132719 0 185.32525112 0 2913.94801182 0 43.77897582 0 -25.77615073 0 25297
0.15350000 0.15350100 9825.27101897 0 32.58640556 0 2798.71832743 0 266.26394554 0 -159.56770189 0 25452
0.15450000 0.15450400 9741.22100127 0 36.62093927 0 2832.17889304 0 156.38330127 0 306.55945725 0 26061
0.15550000 0.15549900 9673.72410918 0 169.60254987 0 2987.42395932 0 276.05852408 0 73.00681309 0 26128
0.15650000 0.15649500 9551.43028156 0 235.91138152 0 2794.26725286 0 139.12265411 0 661.16062466 0 26331
0.15750000 0.15749700 9345.81720967 0 84.80371085 0 2894.68216664 0 254.65461297 0 756.84876298 0 27345
0.15850000 0.15849900 9247.71641178 0 -10.25141158 0 2633.55245812 0 376.28742280 0 537.88357460 0 26980
0.15950000 0.15949700 9368.15008883 0 -130.86934319 0 2512.36586297 0 -70.05936023 0 432.97108248 0 27777
0.16050000 0.16050000 9280.96660321 0 135.21412345 0 2449.71864915 0 101.14325131 0 211.62755872 0 28224
0.16150000 0.16150500 9297.73010299 0 112.78934400 0 2244.73669978 0 -240.65808717 0 341.21694117 0 28075
0.16250000 0.16249700 9136.27346248 0 198.41606075 0 2212.07334157 0 -5.10852708 0 312.51858247 0 28590
0.16350000 0.16349900 9028.46223572 0 112.19476015 0 2184.01607048 0 97.77660022 0 -264.58205940 0 29163
0.16450000 0.16449100 9010.39220162 0 46.39470184 0 2275.97172810 0 -38.77052042 0 -315.74948685 0 28996
0.16550000 0.16550500 8955.52883214 0 252.21095088 0 2542.90333482 0 -118.59899283 0 -293.69120135 0 30777
0.16650000 0.16650700 8724.51584713 0 166.51004955 0 2356.07999816 0 -201.65582299 0 163.29464643 0 29211
0.16750000 0.16749900 8637.31021685 0 90.94896185 0 2674.35397507 0 61.91012916 0 -43.20199698 0 30922
0.16850000 0.16850800 8677.81278104 0 -14.00571583 0 2758.62543927 0 166.70713693 0 -224.59103662 0 30867
0.16950000 0.16949900 8449.03640564 0 177.31220965 0 2505.43458764 0 360.64887123 0 -278.81442572 0 30852
0.17050000 0.17049200 8462.24568915 0 93.31179596 0 2326.45045695 0 182.28589795 0 -204.63760007 0 31257
0.17150000 0.17149500 8385.79128627 0 42.55105500 0 1960.00079475 0 239.97603196 0 -57.09355714 0 32608
0.17250000 0.17250900 8320.28741265 0 82.62700251 0 2051.94538004 0 -4.70148628 0 -450.83849304 0 32361
0.17350000 0.17350400 8141.05969081 0 376.16562723 0 1841.51584686 0 -95.53677963 0 -352.27155027 0 32508
0.17450000 0.17449800 7898.17717359 0 224.82244821 0 1981.83541929 0 -248.37217587 0 -112.02535359 0 32791
0.17550000 0.17549800 7765.02139532 0 133.21003266 0 2062.78518604 0 162.97022731 0 -226.01050866 0 33633
0.17650000 0.17650100 7740.16402610 0 51.38134477 0 2032.19235256 0 25.29760485 0 -374.59335710 0 33984
0.17750000 0.17750300 7665.80229262 0 -13.07885152 0 2109.31109493 0 207.95265412 0 -162.35017712 0 34069
0.17850000 0.17849800 7774.34429281 0 34.97813844 0 2164.25197068 0 148.16099286 0 -137.11191993 0 34536
