### header ###
fiducial parameters:
Omega_m = 0.31
Omega_nu = 0
Omega_de = 0.69
Omega_k = 0
H_0 = 100
w_de = -1
zeff = 0
beta = 0
fgrowth = 0
b_1 = 2
gamma = 0.55
Lx = 3500 Ly = 3500 Lz = 3500
nx = 700 ny = 700 nz = 700
xoffset = -685.467585 yoffset = -31.7331281 zoffset = 572.489161
bins = 400 dk = 0.001
kx_ny = 0.628318531 ky_ny = 0.628318531 kz_ny = 0.628318531
############################
A(data) = 8.04876477 (not used)
A(ran) = 8.04815078 (used)
Ngal = 478339
weighted Ngal = 0
Nran = 23820508
weighted Nran = 0
SN(data) = 3489.58167
SN(ran) = 70.1023121
SN(data+ran) = 3559.68399
############################
13 columns: k_central k_mean P_0(k) sigma^{lin}_{P_0(k)} P^img_1(k) sigma^{lin}_{P_1(k)} P_2(k) sigma^{lin}_{P_2(k)} P^img_3(k) sigma^{lin}_{P_3(k)} P_4(k) sigma^{lin}_{P_4(k)} N_modes
### header ###
0.00050000 0 0 0 0 0 0 0 0 0 0 0 0
0.00150000 0.00179520 -579.04383488 0 -3849.05013206 0 -722.36068563 0 729.24767167 0 14033.72881464 0 3
0.00250000 0.00253879 1621.67483759 0 -4050.99826442 0 -1770.09935178 0 -5947.48820401 0 -12087.65700452 0 6
0.00350000 0.00331552 7885.26684285 0 -10811.92588356 0 -13641.65779281 0 -259.38138843 0 -7919.83464093 0 7
0.00450000 0.00420575 18224.82520500 0 -20009.68396576 0 -16614.02339038 0 -9618.60607623 0 -13605.22984416 0 24
0.00550000 0.00557378 43259.35161995 0 -18499.30813725 0 -11030.13926109 0 -34477.66935979 0 -21835.95322135 0 45
0.00650000 0.00659388 66296.54136088 0 -14212.10396747 0 13104.65003911 0 -47555.52437284 0 -15830.98857920 0 40
0.00750000 0.00754703 64072.44347456 0 6168.62467529 0 13256.56233562 0 -35622.76919253 0 -7527.64182353 0 57
0.00850000 0.00846663 64942.06386581 0 8387.62929219 0 30843.51090781 0 -21881.90336935 0 -2234.90447534 0 75
0.00950000 0.00948925 63193.19016071 0 4270.66211650 0 32922.67206226 0 -9507.60601992 0 -6660.40198211 0 112
0.01050000 0.01054430 63572.97090199 0 3580.98914820 0 54803.80036887 0 19333.27564259 0 -3888.37902981 0 105
0.01150000 0.01145670 66801.43937261 0 -3983.27992583 0 62728.37396482 0 4733.31920905 0 -1457.69370702 0 144
0.01250000 0.01249090 75251.50550446 0 -1512.84495695 0 64784.61540689 0 31117.21877733 0 5224.90828635 0 169
0.01350000 0.01339930 67098.17767775 0 3440.43705695 0 47162.67828827 0 31819.97923357 0 11897.65591063 0 180
0.01450000 0.01448870 75046.33532557 0 -4259.01403079 0 51578.65359569 0 10199.80347829 0 15556.28420045 0 267
0.01550000 0.01550050 79776.43248809 0 -1184.71661095 0 43398.08784993 0 20338.19984313 0 9253.81726276 0 238
0.01650000 0.01653350 78201.94789888 0 1510.47547943 0 36737.97374827 0 6384.72323877 0 4000.12093188 0 315
0.01750000 0.01747870 80359.94400603 0 -80.97279718 0 23020.80270019 0 3083.60924502 0 877.86152262 0 297
0.01850000 0.01844180 80329.16294304 0 4504.73106317 0 28903.19670659 0 -188.48750709 0 2648.26757780 0 388
0.01950000 0.01947590 71664.18298646 0 6311.98913704 0 25145.47110964 0 5039.35826704 0 23.56235011 0 399
0.02050000 0.02045430 64387.67256214 0 7823.61613826 0 21251.22374768 0 11903.74568928 0 4581.47334649 0 462
0.02150000 0.02154770 61262.28743558 0 1187.55112610 0 17459.83828328 0 19849.57814888 0 3500.92516743 0 571
0.02250000 0.02255340 63300.03809521 0 -5312.72289448 0 14520.57893692 0 12192.29047405 0 -1410.76919444 0 510
0.02350000 0.02348930 67498.99583618 0 -6459.79360104 0 12064.40512240 0 -1019.93716576 0 -10815.08149613 0 555
0.02450000 0.02439640 66746.52064151 0 357.28731341 0 14984.28790032 0 -11621.62285290 0 -4024.12573209 0 592
0.02550000 0.02547300 67792.08027413 0 2522.85135458 0 15044.85351708 0 -17499.03431313 0 -7897.31353225 0 837
0.02650000 0.02652900 65078.03201459 0 4064.52864535 0 19556.16154119 0 -8104.28850008 0 -10664.85219300 0 723
0.02750000 0.02749970 62241.30239605 0 4831.09890952 0 12125.96724839 0 5270.74771110 0 -13560.82982164 0 826
0.02850000 0.02848090 59203.05646581 0 631.08376153 0 11159.35329172 0 7421.15927575 0 -12201.03761066 0 831
0.02950000 0.02946900 58132.58410235 0 1220.55772638 0 10833.89337600 0 8047.00029147 0 -14609.60042846 0 996
0.03050000 0.03053250 56353.92584348 0 1146.29564382 0 7127.08940089 0 835.20096233 0 -8146.16403255 0 1041
0.03150000 0.03150510 55988.64984771 0 1891.05342810 0 10206.66831967 0 650.04179608 0 3636.89331621 0 1036
0.03250000 0.03246190 56339.97471421 0 1507.27557756 0 12238.57279179 0 1299.89093371 0 13410.35692735 0 1059
0.03350000 0.03345080 59352.86502061 0 536.42756388 0 22878.19115653 0 -10.78537445 0 15602.01290195 0 1302
0.03450000 0.03451200 56883.84730930 0 1432.80312083 0 23083.36133542 0 1372.21535942 0 17085.15081141 0 1339
0.03550000 0.03553350 56052.53716192 0 4036.75925471 0 25492.92066245 0 6066.81464858 0 20010.34830525 0 1365
0.03650000 0.03647120 53674.64468386 0 2009.94805200 0 24231.00780287 0 6664.11121092 0 19852.45695334 0 1308
0.03750000 0.03744890 51631.91147807 0 1066.48521930 0 21805.39360485 0 4220.43805112 0 15594.26227458 0 1579
0.03850000 0.03847530 48881.21382337 0 2113.48536138 0 20447.59441234 0 3582.02994673 0 9553.15756423 0 1662
0.03950000 0.03950240 47147.06631028 0 2432.62297963 0 15970.72131842 0 664.28523473 0 9982.99628601 0 1683
0.04050000 0.04050350 45122.71316368 0 848.33495403 0 18294.02723511 0 1349.26243008 0 4590.24262774 0 1822
0.04150000 0.04152450 44249.21745874 0 582.67887912 0 16416.38239237 0 -841.67273618 0 5365.50466689 0 1887
0.04250000 0.04250150 44345.65740791 0 1235.81538998 0 17641.42441030 0 -764.68907618 0 3685.40117124 0 1920
0.04350000 0.04349210 44117.12462366 0 675.33652213 0 19606.20844937 0 -3633.27266599 0 4378.22975211 0 2005
0.04450000 0.04448520 44416.85245650 0 369.49787322 0 23150.01673083 0 54.89658645 0 3437.45860157 0 2151
0.04550000 0.04548030 43218.38401813 0 1434.98436882 0 21504.11564653 0 883.85940097 0 -787.03192043 0 2274
0.04650000 0.04648670 43106.44281421 0 1047.41535426 0 23853.44152655 0 313.12977480 0 2417.74177507 0 2311
0.04750000 0.04749250 42309.01398077 0 1022.90565605 0 21595.01943330 0 2269.62728598 0 -478.42076139 0 2568
0.04850000 0.04851840 41707.12240363 0 205.66179011 0 20420.13504679 0 2882.87906838 0 -1886.81272770 0 2493
0.04950000 0.04949480 40930.28809435 0 1244.73968379 0 17877.92926843 0 3110.84716407 0 -448.29518002 0 2644
0.05050000 0.05050630 39296.34512086 0 793.37414809 0 15997.51634448 0 3229.64213705 0 438.34226725 0 2829
0.05150000 0.05149060 39419.69081934 0 568.48526593 0 15099.99369468 0 5468.49943236 0 766.16501708 0 2784
0.05250000 0.05249300 37268.11666059 0 882.21073181 0 13079.40513852 0 5436.74400478 0 3570.07183593 0 3055
0.05350000 0.05348950 37451.69580608 0 1022.09184017 0 11067.99553964 0 4512.12737615 0 2711.92237318 0 3009
0.05450000 0.05448610 35469.08532405 0 425.24149252 0 9298.98127569 0 1379.33486428 0 3206.86636490 0 3336
0.05550000 0.05550870 34988.32498043 0 1926.44057822 0 11039.81647298 0 -1406.86066378 0 5348.43114202 0 3349
0.05650000 0.05647670 33444.06783797 0 2893.72994670 0 12625.10765121 0 -2700.59538489 0 5468.82052978 0 3324
0.05750000 0.05747970 31600.96864866 0 1922.96386823 0 14183.86953918 0 -1838.27165569 0 8591.18291166 0 3639
0.05850000 0.05849280 30821.69842792 0 558.79144555 0 15534.25027406 0 2174.46065416 0 8294.84321021 0 3846
0.05950000 0.05951020 31523.68382142 0 -881.47885114 0 16336.77237692 0 650.09162154 0 8063.96309310 0 3787
0.06050000 0.06049470 31407.86730382 0 -487.92524502 0 15094.01463928 0 4828.20903274 0 7248.34242998 0 3930
0.06150000 0.06148310 31833.59819310 0 -221.76870103 0 16444.83826715 0 2061.83296610 0 7128.38486289 0 4083
0.06250000 0.06249100 31574.39506909 0 523.63681425 0 12909.55567580 0 2109.39967353 0 7076.82104621 0 4303
0.06350000 0.06350600 32045.19032038 0 -288.96774758 0 13398.06664680 0 870.20501001 0 5705.23680930 0 4470
0.06450000 0.06451750 30774.08743120 0 678.24411463 0 12983.85097534 0 -1560.96528061 0 6287.60787779 0 4479
0.06550000 0.06550280 30967.41022253 0 1320.61832577 0 13531.04526787 0 -1125.22500969 0 3541.19521280 0 4636
0.06650000 0.06648880 29445.40845296 0 1289.97013067 0 12558.23080931 0 -1052.43997527 0 5641.51557997 0 4653
0.06750000 0.06749660 29515.38554582 0 -170.34107394 0 14864.15317604 0 -281.19719002 0 3303.10701222 0 5220
0.06850000 0.06852730 30002.67856109 0 -555.36898995 0 14927.81904375 0 878.02982196 0 1691.17582048 0 5029
0.06950000 0.06949320 30356.10716930 0 -739.49732276 0 13656.05181508 0 2390.62565159 0 -2135.27569663 0 5040
0.07050000 0.07048030 29927.82964531 0 249.09741314 0 12950.08038464 0 -155.82857780 0 -1910.13104376 0 5475
0.07150000 0.07148790 30487.75711139 0 749.71043517 0 12641.05179895 0 -562.33348226 0 -630.37291827 0 5509
0.07250000 0.07249820 29640.83498601 0 716.53996448 0 11486.98338310 0 1477.29172195 0 -1418.92949783 0 5916
0.07350000 0.07351270 28703.34124362 0 679.71673383 0 9369.47876781 0 1642.28043408 0 -1192.62225087 0 5721
0.07450000 0.07449140 28622.73471894 0 125.71296153 0 9322.01171131 0 1735.88586809 0 -3228.54597689 0 6028
0.07550000 0.07549160 27824.53082276 0 450.04239288 0 7309.72739877 0 1638.30546947 0 -1700.13333125 0 6183
0.07650000 0.07648840 27732.29835702 0 485.11508898 0 7793.32225755 0 846.83354678 0 -2544.91849794 0 6330
0.07750000 0.07749960 26588.52720326 0 950.52586871 0 7032.37673439 0 -186.67164582 0 -350.98605336 0 6583
0.07850000 0.07848650 26370.84529732 0 1120.70750117 0 8212.57583681 0 798.67889891 0 1512.60136580 0 6549
0.07950000 0.07947320 24801.56470078 0 483.62475406 0 7927.83993177 0 929.84387318 0 1339.06481892 0 6828
0.08050000 0.08048110 25035.74437069 0 354.17156121 0 8128.12721542 0 1302.14968797 0 2651.46747967 0 7147
0.08150000 0.08149960 24917.71338812 0 467.30304004 0 8303.25817708 0 497.56370377 0 3056.93601453 0 7386
0.08250000 0.08250610 23879.35076663 0 434.83676921 0 8143.88313364 0 331.60837769 0 3069.59168180 0 7227
0.08350000 0.08350160 24156.60178009 0 387.67752334 0 8715.23723893 0 346.21277413 0 3982.83703284 0 7798
0.08450000 0.08449610 23544.08077112 0 273.16421837 0 8299.24999549 0 87.10265765 0 3193.81209394 0 7371
0.08550000 0.08548940 23376.99938961 0 406.90904432 0 8737.93550481 0 47.69880026 0 2794.01258939 0 8256
0.08650000 0.08650700 23243.02425930 0 487.75583845 0 8762.03995594 0 -8.86375033 0 2142.93774540 0 8037
0.08750000 0.08749060 22816.18613754 0 284.39487743 0 8216.84975419 0 392.73203962 0 1412.70685129 0 8155
0.08850000 0.08849210 22090.28452243 0 492.07847406 0 7680.53955695 0 -790.03362769 0 -289.90557349 0 8718
0.08950000 0.08949900 21613.62093899 0 1335.93135099 0 8620.32527058 0 -588.63578987 0 98.85094790 0 8571
0.09050000 0.09049190 20771.79208303 0 1032.81981569 0 8816.41614312 0 -102.39486690 0 187.51978590 0 8932
0.09150000 0.09150830 19584.17452298 0 432.46507723 0 7944.64772085 0 1850.98268458 0 1325.46800404 0 9285
0.09250000 0.09250820 20022.08496956 0 -112.83031160 0 7732.15873525 0 1793.69447597 0 648.93677806 0 9204
0.09350000 0.09350330 19946.46099105 0 -232.18111528 0 7404.10789553 0 1868.03406480 0 401.17468729 0 9349
0.09450000 0.09448040 19834.07689414 0 601.64909323 0 7072.69106906 0 988.94019243 0 2175.05855970 0 9564
0.09550000 0.09549270 19049.71340398 0 861.20210270 0 6510.39412547 0 210.79934883 0 3428.45680150 0 10155
0.09650000 0.09649430 18854.50831743 0 242.99656217 0 6328.33188847 0 263.05407858 0 3709.27310355 0 9913
0.09750000 0.09749140 18473.84179017 0 209.22264977 0 5887.98553044 0 -144.87804855 0 2798.40830234 0 10476
0.09850000 0.09850240 18494.32559108 0 188.75877904 0 5932.23054041 0 -157.17829420 0 1377.50793069 0 10575
0.09950000 0.09950330 18155.95534462 0 271.91858183 0 6345.41648567 0 -910.49387832 0 2084.06619434 0 10882
0.10050000 0.10051200 17931.29787405 0 414.85343738 0 6674.24238813 0 301.63559441 0 1761.28578123 0 10875
0.10150000 0.10150300 17639.09922209 0 264.35729121 0 6693.57466727 0 448.97280630 0 1769.43501229 0 11118
0.10250000 0.10250800 17304.93645906 0 181.99912474 0 5782.24482842 0 672.31267022 0 1304.33093596 0 11575
0.10350000 0.10349800 17076.51439805 0 422.20213936 0 6459.53893757 0 1008.10638669 0 1544.24607013 0 11364
0.10450000 0.10450100 16759.95663149 0 348.04967281 0 6472.10602624 0 -119.03302796 0 1687.14549424 0 12093
0.10550000 0.10551000 16755.85987131 0 368.44710960 0 6767.09490406 0 -444.44643992 0 2521.40088003 0 12067
0.10650000 0.10649700 16418.59685733 0 64.45000975 0 6328.17687593 0 224.60985957 0 1803.46026646 0 12054
0.10750000 0.10749900 16651.00495527 0 -75.31705367 0 7292.69816320 0 60.63149709 0 2105.15897312 0 12807
0.10850000 0.10850100 16701.27330995 0 -139.84899862 0 6749.19095483 0 673.37893510 0 1664.32543279 0 12736
0.10950000 0.10950300 16537.84579563 0 400.68971947 0 6654.88796435 0 338.13440594 0 1829.11484307 0 12933
0.11050000 0.11050200 16139.35282540 0 509.51960011 0 5865.01045644 0 456.61824659 0 1284.48932989 0 13428
0.11150000 0.11150900 15642.64833404 0 468.40473636 0 6229.56675109 0 421.65295205 0 1703.51039032 0 13453
0.11250000 0.11250000 15045.29641007 0 538.06958965 0 5753.49000086 0 372.23273745 0 1617.55593276 0 13668
0.11350000 0.11349100 14858.39556713 0 46.85796791 0 5374.36252675 0 423.24958129 0 1383.35411819 0 13791
0.11450000 0.11448600 14743.46483552 0 -16.05941064 0 5136.85008706 0 666.72778958 0 1281.36693429 0 14205
0.11550000 0.11549300 14811.00601691 0 79.37395348 0 4890.40228125 0 546.18560375 0 263.69184449 0 14776
0.11650000 0.11649800 14330.35639653 0 211.22009717 0 4387.60801124 0 450.81191946 0 766.22480763 0 14553
0.11750000 0.11747300 14569.85078236 0 298.50544818 0 4150.12878853 0 206.13790008 0 915.48528235 0 14568
0.11850000 0.11849100 14359.14444106 0 -34.18414203 0 3929.57915046 0 -92.20201685 0 753.03766878 0 16015
0.11950000 0.11950300 14315.40875803 0 166.52887250 0 4587.09808749 0 -253.94930588 0 639.42786551 0 15270
0.12050000 0.12050700 14157.62812936 0 445.45180701 0 4346.65148173 0 -255.99547150 0 724.43231761 0 15999
0.12150000 0.12150000 13762.67830308 0 372.63577007 0 4837.25512212 0 -195.12093688 0 663.92316971 0 15670
0.12250000 0.12250700 13527.50212393 0 185.16138071 0 4630.08085244 0 372.34013900 0 857.93023071 0 16887
0.12350000 0.12352200 13463.39336323 0 -77.31859782 0 4589.71115615 0 711.20088945 0 810.88170809 0 16407
0.12450000 0.12449800 13457.52503108 0 -89.28091611 0 4217.18278763 0 849.40786230 0 30.25844926 0 16306
0.12550000 0.12549900 13390.53746593 0 66.33961270 0 3666.53392975 0 940.84754958 0 651.87758754 0 17523
0.12650000 0.12650100 13368.94643253 0 183.34662667 0 3300.64895611 0 251.37720482 0 290.70720981 0 17154
0.12750000 0.12750600 13033.67643702 0 393.01881283 0 3079.92216085 0 347.36429591 0 866.70504813 0 18007
0.12850000 0.12850300 12739.70621309 0 219.37264993 0 2934.04428137 0 -157.80941671 0 880.58642176 0 17496
0.12950000 0.12949900 12666.07525304 0 134.28958433 0 2839.45341044 0 49.62715635 0 1417.67832513 0 18405
0.13050000 0.13049000 12610.60290570 0 189.65674459 0 3303.41703732 0 43.22812766 0 1302.91367838 0 18100
0.13150000 0.13148800 12466.21979007 0 -21.12245261 0 3145.48139611 0 100.56029341 0 730.02051994 0 19059
0.13250000 0.13249300 12538.07917814 0 129.25389100 0 3040.63755240 0 124.87367930 0 962.42861789 0 18957
0.13350000 0.13349100 12361.91849027 0 224.35962503 0 3165.21227893 0 -281.14957903 0 1098.18749972 0 19468
0.13450000 0.13450700 12196.05506449 0 293.42768002 0 3396.43563812 0 -104.25080999 0 1011.66835359 0 19953
0.13550000 0.13551000 12009.15422155 0 189.82836562 0 3532.33735294 0 -24.44282138 0 560.99705266 0 19956
0.13650000 0.13649900 11955.78561593 0 118.20149637 0 3620.87166219 0 -492.16594542 0 533.06489884 0 19723
0.13750000 0.13749600 11747.62590934 0 348.55899976 0 3828.76563299 0 -406.40303907 0 537.69755954 0 20946
0.13850000 0.13851100 11714.40893488 0 341.68972944 0 4201.98048565 0 -459.57012839 0 674.09531452 0 20955
0.13950000 0.13949800 11384.78582503 0 35.86359226 0 4181.21987662 0 163.88258687 0 697.39037870 0 20506
0.14050000 0.14048300 11421.87811317 0 6.10371871 0 3999.63374959 0 769.96061003 0 436.40461040 0 21447
0.14150000 0.14148400 11402.94443773 0 -2.45310678 0 3774.36730115 0 726.19171002 0 300.90703543 0 21771
0.14250000 0.14249400 11451.55194368 0 -123.09989287 0 3165.01297709 0 913.19441835 0 302.32097131 0 22470
0.14350000 0.14350900 11312.26209747 0 4.21825680 0 3102.77543928 0 411.91262790 0 257.70614569 0 22519
0.14450000 0.14449900 11218.14733651 0 145.69740059 0 2670.64474626 0 398.47082557 0 490.66785987 0 22218
0.14550000 0.14550500 11097.68044248 0 233.52861722 0 2364.10743365 0 -30.24914851 0 545.22009702 0 23559
0.14650000 0.14650700 11018.08149936 0 99.81313293 0 2156.32418611 0 -4.93089377 0 869.35576269 0 23044
0.14750000 0.14750500 11076.53230208 0 20.40607319 0 2548.41735258 0 45.67245409 0 464.38880415 0 23649
0.14850000 0.14849900 10843.82525136 0 281.76852198 0 2591.67692565 0 -297.10258463 0 438.28247669 0 23640
0.14950000 0.14949500 10665.17329042 0 430.33033301 0 2641.13700062 0 -410.13884147 0 254.73322648 0 24457
0.15050000 0.15050000 10263.35862275 0 305.19534684 0 2922.98302887 0 40.34710875 0 470.08551527 0 24591
0.15150000 0.15149900 10048.98734193 0 190.26350799 0 2825.32512397 0 -27.86771289 0 405.07657456 0 25020
0.15250000 0.15250500 10027.29665761 0 187.82870376 0 2852.77341720 0 344.01491765 0 120.01735764 0 25297
0.15350000 0.15350100 9817.81934437 0 -43.66515232 0 3002.65947827 0 7.15657500 0 476.09778764 0 25452
0.15450000 0.15450400 9902.69978643 0 109.20667186 0 2738.52916972 0 126.14367496 0 587.32261215 0 26061
0.15550000 0.15549900 9762.54629887 0 264.93969549 0 2965.26823736 0 24.08496384 0 774.08062209 0 26128
0.15650000 0.15649500 9645.53397019 0 117.46740123 0 2869.92444834 0 208.51291375 0 627.64580467 0 26331
0.15750000 0.15749700 9393.46142337 0 260.89497524 0 2832.99824507 0 231.81572857 0 669.62763145 0 27345
0.15850000 0.15849900 9128.47854581 0 362.18460268 0 2921.93115802 0 -0.54724523 0 766.38424911 0 26980
0.15950000 0.15949700 9071.20140952 0 76.88589137 0 2680.59876627 0 -33.02963072 0 667.94906701 0 27777
0.16050000 0.16050000 8867.29347566 0 46.57983111 0 2863.19247485 0 190.33104917 0 617.06398384 0 28224
0.16150000 0.16150500 8996.86182069 0 -79.69726537 0 2749.90044731 0 18.23966212 0 538.62984929 0 28075
0.16250000 0.16249700 8976.74340649 0 57.19354023 0 2642.97500654 0 64.74442287 0 217.59775627 0 28590
0.16350000 0.16349900 8974.97183452 0 -1.57595721 0 2669.48215215 0 -14.55556748 0 538.15484656 0 29163
0.16450000 0.16449100 9051.57017762 0 27.38529170 0 2557.34164639 0 203.09190352 0 418.52502028 0 28996
0.16550000 0.16550500 9012.62881123 0 126.34740574 0 2788.21069118 0 207.17537691 0 402.97061838 0 30777
0.16650000 0.16650700 8885.16420792 0 155.62152533 0 2577.34933734 0 157.29123191 0 392.04112655 0 29211
0.16750000 0.16749900 8806.87179913 0 168.07014012 0 2515.58790950 0 223.09073661 0 699.85286374 0 30922
0.16850000 0.16850800 8766.20315007 0 -108.47091587 0 2671.76305106 0 166.56762564 0 662.32764770 0 30867
0.16950000 0.16949900 8814.93245160 0 46.82231502 0 2362.66803143 0 262.54696610 0 382.49346086 0 30852
0.17050000 0.17049200 8683.52610065 0 153.59528988 0 2090.07846672 0 55.55948654 0 360.21262163 0 31257
0.17150000 0.17149500 8556.93621100 0 58.21274773 0 2066.71586135 0 109.10768527 0 307.38102376 0 32608
0.17250000 0.17250900 8535.26767133 0 98.22846180 0 2052.34398373 0 -110.81071955 0 291.99270672 0 32361
0.17350000 0.17350400 8518.75883502 0 110.01971267 0 1793.26265530 0 144.25689113 0 244.33963517 0 32508
0.17450000 0.17449800 8363.87915546 0 79.14121321 0 1811.68700380 0 55.52328004 0 49.30661254 0 32791
0.17550000 0.17549800 8266.14374428 0 140.46461988 0 1889.89083400 0 62.42366359 0 4.57056711 0 33633
0.17650000 0.17650100 8119.55723601 0 202.10203768 0 1790.76030989 0 -46.92119088 0 -289.30434626 0 33984
0.17750000 0.17750300 7926.66626534 0 106.86697890 0 1744.44477518 0 234.25274726 0 -6.73924801 0 34069
0.17850000 0.17849800 7973.14788493 0 10.18239778 0 1639.15803848 0 205.96960074 0 38.81547405 0 34536
