### header ###
fiducial parameters:
Omega_m = 0.31
Omega_nu = 0
Omega_de = 0.69
Omega_k = 0
H_0 = 100
w_de = -1
zeff = 0
beta = 0
fgrowth = 0
b_1 = 2
gamma = 0.55
Lx = 3500 Ly = 3500 Lz = 3500
nx = 700 ny = 700 nz = 700
xoffset = -685.467585 yoffset = -31.7331281 zoffset = 572.489161
bins = 400 dk = 0.001
kx_ny = 0.628318531 ky_ny = 0.628318531 kz_ny = 0.628318531
############################
A(data) = 8.08747872 (not used)
A(ran) = 8.09448501 (used)
Ngal = 481323
weighted Ngal = 0
Nran = 23820508
weighted Nran = 0
SN(data) = 3479.7284
SN(ran) = 70.5059001
SN(data+ran) = 3550.2343
############################
13 columns: k_central k_mean P_0(k) sigma^{lin}_{P_0(k)} P^img_1(k) sigma^{lin}_{P_1(k)} P_2(k) sigma^{lin}_{P_2(k)} P^img_3(k) sigma^{lin}_{P_3(k)} P_4(k) sigma^{lin}_{P_4(k)} N_modes
### header ###
0.00050000 0 0 0 0 0 0 0 0 0 0 0 0
0.00150000 0.00179520 24944.17624444 0 -32958.54639467 0 16037.59816032 0 -106652.61869014 0 31644.92577819 0 3
0.00250000 0.00253879 42093.87870954 0 -23292.07465825 0 -11171.08995603 0 -8552.38548550 0 -50266.80455118 0 6
0.00350000 0.00331552 62801.22986213 0 -26409.15554119 0 -3390.61159527 0 -13606.22635339 0 38999.38536923 0 7
0.00450000 0.00420575 67714.57400040 0 -7461.37395949 0 8524.60502253 0 -15924.10683093 0 29152.54546151 0 24
0.00550000 0.00557378 59965.27530633 0 19139.17778852 0 7165.66538056 0 25777.03651730 0 21639.19800932 0 45
0.00650000 0.00659388 52284.84647263 0 12163.17025978 0 28591.17859320 0 15689.59499127 0 18315.39682201 0 40
0.00750000 0.00754703 57306.36722438 0 -10437.47093052 0 -17706.75112673 0 38641.19566135 0 24408.60789296 0 57
0.00850000 0.00846663 59545.96636545 0 -15372.59433171 0 1521.69174448 0 13988.44300613 0 -6280.23370946 0 75
0.00950000 0.00948925 76522.60839364 0 -11680.19545119 0 -6125.12151108 0 3394.01079898 0 14611.26127718 0 112
0.01050000 0.01054430 86833.82160425 0 -8921.90218167 0 -11220.58324797 0 -539.52560037 0 1819.92481347 0 105
0.01150000 0.01145670 81840.09238779 0 -291.08699055 0 -8223.38242583 0 1327.19528671 0 26979.15882286 0 144
0.01250000 0.01249090 84964.70245161 0 7553.06388131 0 2496.15597944 0 -6275.30652492 0 12222.62864406 0 169
0.01350000 0.01339930 76414.76394990 0 7958.23346340 0 4585.06077973 0 5581.78038758 0 21704.52472575 0 180
0.01450000 0.01448870 69431.55941003 0 6706.51821498 0 6704.53626884 0 4037.84434254 0 14010.03403953 0 267
0.01550000 0.01550050 68979.80855743 0 -651.38044015 0 22551.22540463 0 -1171.45196581 0 26324.23080984 0 238
0.01650000 0.01653350 73918.06542655 0 -3461.71806525 0 16181.09548997 0 786.44287275 0 13941.49634890 0 315
0.01750000 0.01747870 72784.03791862 0 1311.07398178 0 21618.60348516 0 -2595.18685262 0 30184.37541136 0 297
0.01850000 0.01844180 71539.95150200 0 4292.66282592 0 24383.25226913 0 -2990.40241470 0 16216.63765264 0 388
0.01950000 0.01947590 74653.93213399 0 4505.69435543 0 42710.71792519 0 -4746.70564975 0 13378.46863187 0 399
0.02050000 0.02045430 67738.37949876 0 4642.43756694 0 45251.37357808 0 -5613.76833398 0 8598.93353903 0 462
0.02150000 0.02154770 67820.97904191 0 2283.04694366 0 39566.84201618 0 -1410.90206234 0 466.55233642 0 571
0.02250000 0.02255340 67017.68187632 0 1493.60125641 0 53245.03848090 0 -6310.67153039 0 -3437.11535950 0 510
0.02350000 0.02348930 64279.93884166 0 3997.90646692 0 44716.02667310 0 -7396.13582166 0 -7263.24577919 0 555
0.02450000 0.02439640 65881.99351967 0 1285.99516606 0 55664.12000728 0 11593.60987111 0 428.63294561 0 592
0.02550000 0.02547300 65826.52117233 0 -4721.60468939 0 39075.56296398 0 9059.05506920 0 -7529.70127595 0 837
0.02650000 0.02652900 70477.11904265 0 -2512.02262091 0 37747.54832523 0 14620.56203003 0 -11936.96266373 0 723
0.02750000 0.02749970 71524.78241700 0 1653.08702310 0 31022.88256988 0 7583.94459523 0 -20993.34930265 0 826
0.02850000 0.02848090 65944.21998515 0 4583.43314798 0 20614.01145436 0 6797.53272499 0 -3327.23360800 0 831
0.02950000 0.02946900 62224.58318557 0 3341.82693211 0 27574.29628186 0 -4970.41090039 0 -7126.52471232 0 996
0.03050000 0.03053250 59552.94193008 0 4221.81101940 0 27130.40677988 0 1865.91925076 0 -10360.17503096 0 1041
0.03150000 0.03150510 60046.65689375 0 2999.19384060 0 34269.95254619 0 -6229.33423227 0 -4710.16697785 0 1036
0.03250000 0.03246190 56409.61963732 0 988.65009752 0 30974.16434067 0 -955.15188602 0 5295.05146407 0 1059
0.03350000 0.03345080 58402.08448843 0 2967.80379974 0 39217.73161465 0 559.67169538 0 7494.17018560 0 1302
0.03450000 0.03451200 57518.29152141 0 147.55644393 0 35545.15219556 0 6848.63150403 0 7923.12312140 0 1339
0.03550000 0.03553350 56296.12830793 0 1908.09373600 0 36197.20140413 0 12086.54977203 0 4852.65672594 0 1365
0.03650000 0.03647120 55704.31254637 0 417.35024662 0 32183.59438061 0 7067.79710149 0 7248.71888902 0 1308
0.03750000 0.03744890 52765.38536976 0 819.81264529 0 29396.24733077 0 10326.73661001 0 3408.89200354 0 1579
0.03850000 0.03847530 50418.82757094 0 2555.10503677 0 26105.10950167 0 3075.03926561 0 6180.32812262 0 1662
0.03950000 0.03950240 51488.85704141 0 2795.73987206 0 25263.16992246 0 588.77530116 0 5496.85565622 0 1683
0.04050000 0.04050350 47775.31002049 0 297.83889423 0 23754.78711242 0 946.88418107 0 13317.23867563 0 1822
0.04150000 0.04152450 48051.67524796 0 -641.63568708 0 23054.46256764 0 5679.63759432 0 7933.38716651 0 1887
0.04250000 0.04250150 50252.18908242 0 -668.58018952 0 24319.25423167 0 6274.57575148 0 6559.58846464 0 1920
0.04350000 0.04349210 47580.32638043 0 2651.01351435 0 21349.65671531 0 5594.42498252 0 4428.75277026 0 2005
0.04450000 0.04448520 44831.51102095 0 3547.27391912 0 19121.79423855 0 2053.66159039 0 5305.64767892 0 2151
0.04550000 0.04548030 42599.33033752 0 2485.15008857 0 14629.41988988 0 2564.12898150 0 7414.98091850 0 2274
0.04650000 0.04648670 40802.84563569 0 1431.80661160 0 12598.31262515 0 3530.57685330 0 7431.92157547 0 2311
0.04750000 0.04749250 38940.92349419 0 99.91743423 0 10840.91322994 0 2763.74085333 0 5257.02910065 0 2568
0.04850000 0.04851840 39786.84911033 0 -624.25435158 0 7658.87101728 0 3747.62763672 0 2435.60143501 0 2493
0.04950000 0.04949480 38535.89785232 0 714.43290106 0 9424.08747382 0 1976.67571592 0 4520.70842788 0 2644
0.05050000 0.05050630 38141.28019578 0 1563.43440904 0 6694.29436838 0 989.98209820 0 2548.48378653 0 2829
0.05150000 0.05149060 37232.13160492 0 -120.66951757 0 8552.28583457 0 432.99433436 0 9351.92913297 0 2784
0.05250000 0.05249300 37294.46879365 0 453.95203077 0 11299.30747743 0 778.06998073 0 8712.70167654 0 3055
0.05350000 0.05348950 37316.83488979 0 -94.73780068 0 12848.10427306 0 -946.49664970 0 9043.18842773 0 3009
0.05450000 0.05448610 36367.60448308 0 2238.95694623 0 13905.17912350 0 915.75655431 0 9839.24429289 0 3336
0.05550000 0.05550870 35166.03579377 0 1767.71880195 0 12283.85860030 0 -1217.78964518 0 7397.01053532 0 3349
0.05650000 0.05647670 34274.82436911 0 -85.94039571 0 13836.97360261 0 -1190.15312243 0 5606.91456491 0 3324
0.05750000 0.05747970 33353.71766745 0 1043.49132235 0 12795.28928368 0 172.01299499 0 4106.58133501 0 3639
0.05850000 0.05849280 33519.13820024 0 831.00012229 0 12197.16229697 0 -2286.01432671 0 914.09570559 0 3846
0.05950000 0.05951020 32878.60420948 0 515.24509927 0 13860.33620798 0 -1788.66764050 0 14.47507168 0 3787
0.06050000 0.06049470 32686.61009713 0 734.57567437 0 12981.08289413 0 -1764.24209195 0 -1573.60987555 0 3930
0.06150000 0.06148310 32250.80339226 0 631.95847519 0 15066.22310398 0 -193.36043724 0 -1207.18235800 0 4083
0.06250000 0.06249100 32149.27017368 0 -105.76317884 0 14738.92518234 0 1347.18083301 0 -1298.68405030 0 4303
0.06350000 0.06350600 32337.16752585 0 -933.08474265 0 13657.26977081 0 2005.25338628 0 -3361.04848800 0 4470
0.06450000 0.06451750 32766.99517531 0 -71.03128890 0 12885.86090069 0 2799.82555992 0 -3988.86037754 0 4479
0.06550000 0.06550280 32811.94881407 0 731.39459545 0 11937.18411023 0 571.88779135 0 -2199.27373408 0 4636
0.06650000 0.06648880 31028.41873229 0 1407.95682394 0 10730.05711385 0 1996.78305779 0 -1339.90631560 0 4653
0.06750000 0.06749660 30275.38992137 0 513.16682390 0 10528.65152540 0 943.05647838 0 233.71795397 0 5220
0.06850000 0.06852730 29936.57678192 0 836.20079326 0 10694.68103606 0 2579.77417647 0 -419.28347454 0 5029
0.06950000 0.06949320 28931.76330463 0 1048.41850689 0 11791.36159237 0 -284.98060341 0 2778.76599811 0 5040
0.07050000 0.07048030 29365.79843752 0 358.19856574 0 13077.30139681 0 241.24049145 0 3341.93765536 0 5475
0.07150000 0.07148790 28757.26346548 0 -148.62492327 0 13459.07515655 0 -1306.68934115 0 4628.73002881 0 5509
0.07250000 0.07249820 29639.50630703 0 920.56194328 0 16061.73582842 0 -157.95446417 0 5085.85095895 0 5916
0.07350000 0.07351270 28206.19385926 0 775.97841857 0 15270.83966663 0 627.03350511 0 5128.93337482 0 5721
0.07450000 0.07449140 28412.36054738 0 376.48893911 0 14293.04266189 0 454.89650008 0 5121.90244856 0 6028
0.07550000 0.07549160 27790.42806232 0 424.75652469 0 13963.53027529 0 2900.52835414 0 4850.96266025 0 6183
0.07650000 0.07648840 27303.46721680 0 546.58199298 0 11806.64140062 0 1824.24302015 0 2903.90541321 0 6330
0.07750000 0.07749960 26419.12063353 0 662.91005198 0 11373.49205371 0 1324.89224315 0 3891.33534054 0 6583
0.07850000 0.07848650 25904.81114570 0 416.22086949 0 10191.05634168 0 993.75776096 0 3142.84618280 0 6549
0.07950000 0.07947320 25314.21333988 0 726.48180493 0 10627.54953068 0 634.13197255 0 2940.21156629 0 6828
0.08050000 0.08048110 25116.01872562 0 282.75949506 0 10637.37068280 0 -268.84268999 0 2031.28442193 0 7147
0.08150000 0.08149960 24889.81112958 0 512.57888346 0 10114.97839785 0 465.73409161 0 2008.05468446 0 7386
0.08250000 0.08250610 23757.33374713 0 754.28994871 0 9872.04051901 0 -137.08534635 0 1684.53242558 0 7227
0.08350000 0.08350160 23162.97135086 0 965.01068403 0 9483.12510975 0 1471.75555954 0 1696.62340429 0 7798
0.08450000 0.08449610 22375.50760976 0 269.94992247 0 8920.61779199 0 1211.66664955 0 653.56943877 0 7371
0.08550000 0.08548940 21988.08696436 0 605.03501016 0 8669.03242746 0 707.38979525 0 447.01632651 0 8256
0.08650000 0.08650700 21373.90510667 0 543.65668476 0 7987.49761790 0 -235.02227383 0 222.73974391 0 8037
0.08750000 0.08749060 20821.50682146 0 221.45203254 0 8446.55620488 0 -378.19629160 0 1438.50536811 0 8155
0.08850000 0.08849210 21131.31046989 0 84.12984916 0 8781.08435462 0 -507.10804776 0 -933.43573535 0 8718
0.08950000 0.08949900 21074.62016682 0 231.55995786 0 9387.20555985 0 -165.23230327 0 -462.26291778 0 8571
0.09050000 0.09049190 21167.18480230 0 -224.35741057 0 9092.81458757 0 56.24774225 0 -80.56876805 0 8932
0.09150000 0.09150830 21682.26935287 0 113.87775353 0 9099.56870571 0 900.81223750 0 208.70335774 0 9285
0.09250000 0.09250820 21211.58482483 0 223.69971447 0 8063.35411523 0 1164.87500487 0 769.90967733 0 9204
0.09350000 0.09350330 20932.78368589 0 607.56946531 0 7883.60599412 0 1486.06100321 0 502.42223990 0 9349
0.09450000 0.09448040 20236.88807104 0 673.69671082 0 7284.60429376 0 493.45254957 0 853.91651297 0 9564
0.09550000 0.09549270 19662.89875244 0 428.01843158 0 7569.87167039 0 588.03234817 0 -258.69490430 0 10155
0.09650000 0.09649430 19288.54345032 0 572.73593143 0 7281.23830702 0 -1572.18154565 0 -1503.99816942 0 9913
0.09750000 0.09749140 18849.63649451 0 1043.25548183 0 8496.29308796 0 -997.04956313 0 -890.99994325 0 10476
0.09850000 0.09850240 17853.34870733 0 673.75428691 0 8354.73341516 0 -1032.16654852 0 -764.24064703 0 10575
0.09950000 0.09950330 17454.41284411 0 483.98903354 0 8591.78081720 0 693.62910996 0 -497.58917012 0 10882
0.10050000 0.10051200 17585.06627697 0 -459.24017311 0 8374.98469725 0 1637.41968348 0 -1139.57474266 0 10875
0.10150000 0.10150300 17333.28161060 0 32.00444417 0 7676.99641301 0 1896.15776984 0 -1994.55752051 0 11118
0.10250000 0.10250800 17441.12605433 0 434.90320316 0 6432.02421040 0 1376.73286795 0 -1397.51562164 0 11575
0.10350000 0.10349800 16923.60559231 0 -28.58630677 0 5536.73817021 0 428.22659129 0 20.50827075 0 11364
0.10450000 0.10450100 16861.60057332 0 -90.25860239 0 5579.67664586 0 -292.42452739 0 -916.05772155 0 12093
0.10550000 0.10551000 17080.05754200 0 263.12604869 0 5666.95978241 0 205.09820878 0 -389.59857170 0 12067
0.10650000 0.10649700 16687.65435042 0 330.47900056 0 5515.51252354 0 643.29099964 0 -563.15947769 0 12054
0.10750000 0.10749900 16422.25072452 0 215.75532142 0 4693.62492457 0 226.86307767 0 -642.80603181 0 12807
0.10850000 0.10850100 16363.23523324 0 214.34249277 0 4847.50809490 0 471.69986023 0 -977.26664038 0 12736
0.10950000 0.10950300 15787.14217292 0 372.43314653 0 4601.27066326 0 405.81177693 0 -833.07729043 0 12933
0.11050000 0.11050200 15488.74301906 0 695.51140518 0 4855.64625364 0 -117.05440352 0 -377.52973764 0 13428
0.11150000 0.11150900 15004.99314773 0 400.56128050 0 4855.31408390 0 -184.83363990 0 -427.42827667 0 13453
0.11250000 0.11250000 14731.50672471 0 468.62507562 0 5661.36825837 0 -161.31048582 0 -174.13666689 0 13668
0.11350000 0.11349100 14309.65114912 0 311.91956970 0 5356.43643287 0 -89.45862693 0 303.53671258 0 13791
0.11450000 0.11448600 14435.10058932 0 -16.97619914 0 5972.19056068 0 704.87859198 0 428.32070605 0 14205
0.11550000 0.11549300 14539.40188911 0 -384.73449940 0 5663.56057869 0 368.60433661 0 658.50437394 0 14776
0.11650000 0.11649800 14884.19408396 0 -371.02917574 0 5421.60813675 0 860.66398771 0 644.53663618 0 14553
0.11750000 0.11747300 15011.52581938 0 108.25124095 0 5450.47368755 0 467.86219244 0 92.33599198 0 14568
0.11850000 0.11849100 14958.60010674 0 414.61870409 0 5062.52157056 0 308.35760280 0 1452.77759480 0 16015
0.11950000 0.11950300 14273.55537021 0 657.05722109 0 4529.02374382 0 352.67236843 0 1003.98748186 0 15270
0.12050000 0.12050700 13752.04887126 0 510.95346617 0 4599.64303151 0 37.17743432 0 1401.61238182 0 15999
0.12150000 0.12150000 13345.36238067 0 402.37824900 0 4138.85716186 0 430.17864216 0 1140.02870798 0 15670
0.12250000 0.12250700 13180.71691061 0 64.82237203 0 4528.35940433 0 190.41741330 0 499.86342564 0 16887
0.12350000 0.12352200 13080.95526400 0 -132.31760328 0 3987.02237162 0 182.16299515 0 837.91257467 0 16407
0.12450000 0.12449800 13145.39619444 0 -14.05598419 0 4115.23989302 0 -30.53625389 0 40.42550081 0 16306
0.12550000 0.12549900 13269.95984865 0 -31.73804403 0 4183.77758365 0 -269.39630623 0 397.74669553 0 17523
0.12650000 0.12650100 13343.36936220 0 110.61529302 0 4086.25254665 0 -17.70088279 0 -147.11908710 0 17154
0.12750000 0.12750600 12991.38015621 0 194.58614360 0 3899.04167861 0 198.65079404 0 316.21341726 0 18007
0.12850000 0.12850300 13193.33936091 0 101.35927236 0 4265.12595409 0 61.89241344 0 226.86529214 0 17496
0.12950000 0.12949900 12983.85097534 0 66.88060650 0 3826.01969643 0 705.93932069 0 260.40447125 0 18405
0.13050000 0.13049000 12854.52622146 0 238.47905364 0 3733.36648235 0 134.17664662 0 452.16163585 0 18100
0.13150000 0.13148800 12859.39804438 0 388.44262099 0 3994.13080416 0 40.81458230 0 716.65179496 0 19059
0.13250000 0.13249300 12344.64566356 0 434.78251482 0 4037.77790859 0 -251.32184320 0 850.86830194 0 18957
0.13350000 0.13349100 12081.01360962 0 271.73478123 0 3945.99940817 0 102.36707537 0 1170.87620492 0 19468
0.13450000 0.13450700 12284.85510954 0 -153.78351941 0 4128.77027395 0 43.77465762 0 744.53855225 0 19953
0.13550000 0.13551000 12299.80274804 0 -52.56696931 0 3974.52171690 0 626.47103101 0 466.19470033 0 19956
0.13650000 0.13649900 12318.95786998 0 -76.54143135 0 3570.27113777 0 215.23049322 0 -215.32792968 0 19723
0.13750000 0.13749600 12152.43010471 0 251.35063124 0 3324.62053935 0 -211.69067098 0 -73.31805614 0 20946
0.13850000 0.13851100 12118.43806751 0 323.37831865 0 3354.68190123 0 85.60457210 0 -314.33444374 0 20955
0.13950000 0.13949800 11572.68317720 0 66.27218225 0 2929.31639867 0 167.75568609 0 -9.14720185 0 20506
0.14050000 0.14048300 11625.60888983 0 -33.99646612 0 2625.52502262 0 715.70068226 0 -390.65930041 0 21447
0.14150000 0.14148400 11672.44482382 0 -59.18666943 0 2519.57394643 0 669.65088333 0 76.60775457 0 21771
0.14250000 0.14249400 11623.94804111 0 141.78886993 0 2392.27542799 0 295.01766586 0 87.21149860 0 22470
0.14350000 0.14350900 11577.66572337 0 215.09873255 0 2676.88953746 0 -48.82020531 0 589.33334633 0 22519
0.14450000 0.14449900 11582.42682304 0 106.96685127 0 2799.52660715 0 -333.75973040 0 404.29154673 0 22218
0.14550000 0.14550500 11313.14788345 0 204.15927563 0 3087.30740151 0 -592.60964725 0 934.14104244 0 23559
0.14650000 0.14650700 11353.00825280 0 239.92177757 0 3359.93018319 0 -55.70110157 0 683.85999777 0 23044
0.14750000 0.14750500 11143.74131373 0 -14.81211325 0 3292.28935088 0 134.00834728 0 508.65817324 0 23649
0.14850000 0.14849900 11113.29242048 0 136.47969018 0 3372.38654861 0 452.32218456 0 198.66850976 0 23640
0.14950000 0.14949500 10860.69947439 0 362.04066246 0 2947.61895160 0 -166.83003974 0 -207.15987566 0 24457
0.15050000 0.15050000 10605.99171426 0 435.97721866 0 3174.63482735 0 -263.80810390 0 -418.77525483 0 24591
0.15150000 0.15149900 10123.72553446 0 375.04621519 0 3131.14273546 0 -387.01982725 0 -11.52197193 0 25020
0.15250000 0.15250500 10018.42772543 0 137.35108214 0 3019.57799059 0 31.46898654 0 -99.05135698 0 25297
0.15350000 0.15350100 9736.53740788 0 173.11912024 0 3183.97986950 0 259.90068047 0 -52.68079281 0 25452
0.15450000 0.15450400 9771.28236316 0 67.11567195 0 3093.46361411 0 347.53591694 0 -412.01892222 0 26061
0.15550000 0.15549900 9642.50015319 0 124.34220771 0 3073.68844198 0 422.85872822 0 -334.28788030 0 26128
0.15650000 0.15649500 9465.79692141 0 151.09405171 0 2762.85506735 0 241.66677596 0 -154.76563462 0 26331
0.15750000 0.15749700 9317.49420279 0 211.94533445 0 2783.71532731 0 253.96702160 0 125.42397385 0 27345
0.15850000 0.15849900 9305.00462039 0 117.26920662 0 2637.30597623 0 291.60406812 0 352.48635337 0 26980
0.15950000 0.15949700 9134.93371118 0 -35.20445676 0 2272.10748674 0 443.36024485 0 530.98108731 0 27777
0.16050000 0.16050000 9125.01290814 0 56.95847478 0 2137.15799185 0 481.16559071 0 591.18353181 0 28224
0.16150000 0.16150500 9061.78993343 0 95.61816122 0 2380.71592088 0 143.42535954 0 627.82296187 0 28075
0.16250000 0.16249700 9058.05855996 0 43.85614993 0 2175.49038037 0 11.11251736 0 766.16944601 0 28590
0.16350000 0.16349900 9031.28567855 0 115.38358970 0 2270.71237381 0 -227.99577650 0 415.27307849 0 29163
0.16450000 0.16449100 8938.15635450 0 218.54111834 0 2575.07951075 0 -538.82915114 0 783.32379885 0 28996
0.16550000 0.16550500 8767.79756484 0 300.13307993 0 2824.92652028 0 -260.96140919 0 413.12172577 0 30777
0.16650000 0.16650700 8542.57540571 0 130.88152275 0 2769.04449692 0 -171.47488000 0 499.48807382 0 29211
0.16750000 0.16749900 8613.67080337 0 51.33860559 0 2883.53233555 0 31.27389217 0 198.83791633 0 30922
0.16850000 0.16850800 8397.91548195 0 185.64081237 0 2831.66956610 0 219.60516876 0 183.51714047 0 30867
0.16950000 0.16949900 8369.68105366 0 201.39673059 0 2724.95449949 0 281.03774855 0 246.56295799 0 30852
0.17050000 0.17049200 8150.93620455 0 54.32857619 0 2595.89548141 0 371.30709110 0 567.38467684 0 31257
0.17150000 0.17149500 8124.46227590 0 1.63057699 0 2311.64675866 0 469.00485637 0 350.73028265 0 32608
0.17250000 0.17250900 8147.68094105 0 35.91773593 0 2101.75976940 0 372.82399960 0 327.52822600 0 32361
0.17350000 0.17350400 8143.92742294 0 -4.76169758 0 2028.67135327 0 139.70062947 0 188.80417558 0 32508
0.17450000 0.17449800 8113.84391640 0 71.47097092 0 1860.93670459 0 94.94994642 0 577.34201855 0 32791
0.17550000 0.17549800 8114.74077471 0 27.28464426 0 1922.91957893 0 -271.87761422 0 560.37589523 0 33633
0.17650000 0.17650100 7999.99827262 0 171.65203720 0 2178.04808740 0 -118.51816486 0 415.91084440 0 33984
0.17750000 0.17750300 8003.43069331 0 210.49818159 0 2264.10219589 0 -157.32998505 0 449.92834794 0 34069
0.17850000 0.17849800 7791.87178300 0 162.11655106 0 2275.13023141 0 -164.24243743 0 487.12139423 0 34536
