### header ###
fiducial parameters:
Omega_m = 0.31
Omega_nu = 0
Omega_de = 0.69
Omega_k = 0
H_0 = 100
w_de = -1
zeff = 0
beta = 0
fgrowth = 0
b_1 = 2
gamma = 0.55
Lx = 3500 Ly = 3500 Lz = 3500
nx = 700 ny = 700 nz = 700
xoffset = -685.467585 yoffset = -31.7331281 zoffset = 572.489161
bins = 400 dk = 0.001
kx_ny = 0.628318531 ky_ny = 0.628318531 kz_ny = 0.628318531
############################
A(data) = 8.04886494 (not used)
A(ran) = 8.04550466 (used)
Ngal = 477709
weighted Ngal = 0
Nran = 23820508
weighted Nran = 0
SN(data) = 3488.97161
SN(ran) = 70.0792634
SN(data+ran) = 3559.05087
############################
13 columns: k_central k_mean P_0(k) sigma^{lin}_{P_0(k)} P^img_1(k) sigma^{lin}_{P_1(k)} P_2(k) sigma^{lin}_{P_2(k)} P^img_3(k) sigma^{lin}_{P_3(k)} P_4(k) sigma^{lin}_{P_4(k)} N_modes
### header ###
0.00050000 0 0 0 0 0 0 0 0 0 0 0 0
0.00150000 0.00179520 13210.83363412 0 -2537.98722261 0 -1392.99811311 0 24282.60483653 0 -36801.08599973 0 3
0.00250000 0.00253879 24165.57036319 0 -630.51132233 0 11917.69681855 0 -5837.66181413 0 41709.55831509 0 6
0.00350000 0.00331552 20435.08268529 0 -665.97597873 0 14736.82144063 0 -33758.96475581 0 10314.16952134 0 7
0.00450000 0.00420575 21898.29041008 0 -7805.91149087 0 19204.06161196 0 -6804.10968593 0 4657.49592869 0 24
0.00550000 0.00557378 37961.57636398 0 -8888.47483304 0 34817.58973172 0 23449.96601016 0 20478.70764508 0 45
0.00650000 0.00659388 61490.48805010 0 -14308.65463989 0 14249.74987185 0 57450.75034001 0 43000.92355869 0 40
0.00750000 0.00754703 72634.11864058 0 -34117.04374045 0 -10935.30479902 0 22791.05196021 0 -4356.22904270 0 57
0.00850000 0.00846663 105078.13410092 0 -28585.08881455 0 -12263.92841563 0 15178.16430790 0 5629.53532452 0 75
0.00950000 0.00948925 115120.06837195 0 11255.01817815 0 26020.29549356 0 -31266.03082289 0 11255.35034790 0 112
0.01050000 0.01054430 95931.72946123 0 35219.18295289 0 33990.70851427 0 -9185.19099353 0 64196.23206603 0 105
0.01150000 0.01145670 81752.39957523 0 20313.06566579 0 35002.38683295 0 6854.85415057 0 39792.60671924 0 144
0.01250000 0.01249090 66588.07567335 0 4456.69931810 0 45386.89883386 0 34429.83691657 0 42574.86049967 0 169
0.01350000 0.01339930 70441.24471024 0 -3512.89435056 0 53137.85837665 0 29948.20272298 0 32518.53220638 0 180
0.01450000 0.01448870 76789.67286826 0 -13668.34209563 0 27605.40951460 0 31579.93123150 0 31576.27736431 0 267
0.01550000 0.01550050 82022.45357755 0 854.91302220 0 33087.09608582 0 19312.23822543 0 20808.22003168 0 238
0.01650000 0.01653350 79849.06693890 0 7634.88836172 0 18362.56492574 0 -8591.22720096 0 18146.98676152 0 315
0.01750000 0.01747870 72517.41633699 0 5471.26751356 0 3960.42664741 0 -2148.89465615 0 15141.51491275 0 297
0.01850000 0.01844180 74768.75214236 0 -8000.18650214 0 15797.66088150 0 -566.22318997 0 20572.04734330 0 388
0.01950000 0.01947590 78384.08764215 0 -9201.55588961 0 5060.78321556 0 8408.98780677 0 3711.88617220 0 399
0.02050000 0.02045430 91823.01116753 0 -1793.22943833 0 14625.43385295 0 7120.57887390 0 -19380.66519281 0 462
0.02150000 0.02154770 81555.09074696 0 8608.31179815 0 5846.63039724 0 -11914.92873735 0 1735.29903488 0 571
0.02250000 0.02255340 80986.19469778 0 12964.14223716 0 20564.18599268 0 1998.79822091 0 -1370.17805166 0 510
0.02350000 0.02348930 69781.66632080 0 2713.47249866 0 16891.71729683 0 -5225.08544354 0 19632.44985919 0 555
0.02450000 0.02439640 64588.96742735 0 5000.16223718 0 24678.77261854 0 13188.35681474 0 3140.97495990 0 592
0.02550000 0.02547300 64993.43945297 0 1143.60506889 0 25169.49805450 0 2083.40185485 0 9216.50352812 0 837
0.02650000 0.02652900 65894.17307697 0 -1244.47394799 0 26349.58643367 0 3461.55198038 0 8301.32052023 0 723
0.02750000 0.02749970 66279.48998066 0 3548.12648814 0 22660.06635760 0 -6710.67033679 0 4406.50846970 0 826
0.02850000 0.02848090 65877.56458974 0 2547.32119243 0 28022.94688351 0 -2503.38620755 0 -452.11734655 0 831
0.02950000 0.02946900 61746.59092315 0 2072.55097653 0 28282.59290051 0 -4823.39257145 0 -847.94520819 0 996
0.03050000 0.03053250 59433.25009879 0 4469.14461120 0 27846.01113291 0 2172.47870802 0 -120.60640532 0 1041
0.03150000 0.03150510 59889.98349756 0 564.62213180 0 25605.96909885 0 7370.00513509 0 -1665.86448594 0 1036
0.03250000 0.03246190 57713.82877770 0 -2604.69797964 0 18710.45737154 0 5247.13044226 0 -12169.14931518 0 1059
0.03350000 0.03345080 59134.29732869 0 979.03710511 0 24527.41393827 0 2339.65974045 0 516.20617707 0 1302
0.03450000 0.03451200 56274.42655128 0 1992.81916551 0 20888.38366337 0 3677.05263832 0 -7615.42321469 0 1339
0.03550000 0.03553350 56993.35260176 0 2720.47020794 0 25173.81626118 0 -1221.47672934 0 -4551.07981486 0 1365
0.03650000 0.03647120 51579.98227467 0 3459.64754051 0 18175.55335955 0 1920.14042540 0 -1266.14248766 0 1308
0.03750000 0.03744890 51194.77609423 0 1540.95758966 0 21999.15928918 0 5735.84071510 0 -4610.57141611 0 1579
0.03850000 0.03847530 48628.98626401 0 -719.35344221 0 15933.96120002 0 3947.38344877 0 -8028.35449648 0 1662
0.03950000 0.03950240 48359.37515467 0 -360.40528008 0 12067.17320360 0 6072.41724494 0 -10029.01286796 0 1683
0.04050000 0.04050350 48177.56758115 0 2084.61981058 0 10187.72357191 0 412.96782046 0 -7278.72488928 0 1822
0.04150000 0.04152450 47071.33160852 0 2640.70517995 0 9151.90758513 0 -2006.68171618 0 1023.67850432 0 1887
0.04250000 0.04250150 45555.08744785 0 -485.44282979 0 13191.78923543 0 -63.10926194 0 -828.89305888 0 1920
0.04350000 0.04349210 46656.67304406 0 1397.83671905 0 14280.19876510 0 460.01855754 0 517.38095073 0 2005
0.04450000 0.04448520 45817.83371580 0 1273.04054602 0 17601.12114796 0 425.63234559 0 5298.72747591 0 2151
0.04550000 0.04548030 44771.16685069 0 1967.50783097 0 20495.86974855 0 2215.27324344 0 8204.38231645 0 2274
0.04650000 0.04648670 43027.82930800 0 1127.82700603 0 20494.76251607 0 4225.27665707 0 12415.17637265 0 2311
0.04750000 0.04749250 43010.66720453 0 859.33087980 0 19966.72334546 0 3866.22330785 0 10133.56883122 0 2568
0.04850000 0.04851840 42324.62595876 0 334.06754103 0 17093.12288528 0 2034.76113192 0 11014.52728309 0 2493
0.04950000 0.04949480 41127.04330638 0 1153.45943798 0 15459.29063504 0 -338.53300963 0 8519.25708964 0 2644
0.05050000 0.05050630 39547.57617100 0 1684.96424625 0 13624.93858234 0 -2097.09832065 0 4205.09180892 0 2829
0.05150000 0.05149060 38404.46935672 0 1694.74110907 0 16362.12800075 0 -3210.23235164 0 653.69677050 0 2784
0.05250000 0.05249300 37944.08209076 0 1632.16032919 0 17612.52564252 0 -1564.57485850 0 -812.30339460 0 3055
0.05350000 0.05348950 36537.89683880 0 331.52865695 0 16814.21102310 0 1097.81325514 0 1136.41913009 0 3009
0.05450000 0.05448610 37641.91834646 0 -2065.73042444 0 14763.28429694 0 1340.91389716 0 -2960.51821001 0 3336
0.05550000 0.05550870 39139.22883169 0 -1304.20914039 0 18371.97640184 0 1773.15531343 0 -4364.07932100 0 3349
0.05650000 0.05647670 38795.43314607 0 588.04120603 0 13197.32539784 0 3956.21916398 0 -5806.93611276 0 3324
0.05750000 0.05747970 38073.62829114 0 1457.71585167 0 13641.32562307 0 2675.40584593 0 -3018.33789021 0 3639
0.05850000 0.05849280 36968.72099749 0 857.24263934 0 10938.34968834 0 1340.24955767 0 -4060.49831912 0 3846
0.05950000 0.05951020 35826.49996920 0 1446.26706781 0 8951.54279521 0 1940.73494956 0 -4840.27786680 0 3787
0.06050000 0.06049470 34442.12719712 0 1587.04060556 0 9225.02921823 0 -975.72537276 0 -4425.85182116 0 3930
0.06150000 0.06148310 33061.85118523 0 877.56699878 0 8118.87075187 0 -171.61992746 0 -2228.25000813 0 4083
0.06250000 0.06249100 32773.97073994 0 594.88390276 0 10081.46247063 0 935.04454414 0 -2288.52774444 0 4303
0.06350000 0.06350600 32447.55860429 0 -163.94680636 0 9530.01640536 0 1685.30748832 0 -2303.02141763 0 4470
0.06450000 0.06451750 32151.70608514 0 -23.01393786 0 9317.66028766 0 2064.13600967 0 -1030.23553508 0 4479
0.06550000 0.06550280 32740.53231899 0 169.41653482 0 9934.21162286 0 -319.58272571 0 -723.60632218 0 4636
0.06650000 0.06648880 31987.61423132 0 941.89499151 0 10689.95315336 0 -28.03756235 0 1516.75348761 0 4653
0.06750000 0.06749660 31669.28489279 0 1085.36242588 0 10681.03993188 0 -92.94973094 0 1209.65148644 0 5220
0.06850000 0.06852730 30453.32218120 0 362.66403434 0 10128.03266881 0 11.44944820 0 3370.75891687 0 5029
0.06950000 0.06949320 30311.92859327 0 869.94702484 0 10127.33511235 0 1547.29095946 0 609.23474296 0 5040
0.07050000 0.07048030 30241.50860742 0 77.02075229 0 9916.32981828 0 -428.27752399 0 227.26943200 0 5475
0.07150000 0.07148790 29914.54285553 0 337.51657021 0 9250.27411881 0 1304.75168430 0 985.49559218 0 5509
0.07250000 0.07249820 29013.69850828 0 1641.43893739 0 9816.65675026 0 -785.70988485 0 370.30172400 0 5916
0.07350000 0.07351270 28229.11357164 0 1199.18813948 0 9612.26163411 0 -515.44661558 0 877.22375671 0 5721
0.07450000 0.07449140 26593.50974942 0 1233.10267040 0 9984.15888012 0 1753.47979223 0 1410.14914425 0 6028
0.07550000 0.07549160 26396.42236765 0 525.59772298 0 9162.06090698 0 900.94178370 0 434.58985636 0 6183
0.07650000 0.07648840 25459.48224150 0 472.24240414 0 8773.38908888 0 1664.56902394 0 1063.41375639 0 6330
0.07750000 0.07749960 24914.94530692 0 -98.96798237 0 7915.97039957 0 1817.34496178 0 -907.20539785 0 6583
0.07850000 0.07848650 25387.84429992 0 295.49931199 0 7963.95785533 0 998.16343901 0 -78.16507706 0 6549
0.07950000 0.07947320 24647.10576955 0 561.28382587 0 7536.95364870 0 -633.84298487 0 -2157.64179276 0 6828
0.08050000 0.08048110 23838.38316480 0 1308.20624965 0 7364.23645386 0 4.49183180 0 584.27107943 0 7147
0.08150000 0.08149960 23071.29250137 0 644.89980843 0 7069.23650371 0 161.52639615 0 786.79275822 0 7386
0.08250000 0.08250610 22538.16006135 0 -2.29626730 0 7188.62938223 0 1161.77475392 0 434.48799098 0 7227
0.08350000 0.08350160 22626.84938314 0 44.56057123 0 6576.63984486 0 1279.93860439 0 896.02124255 0 7798
0.08450000 0.08449610 22479.91963280 0 144.01994338 0 5996.01820369 0 1247.36382477 0 341.38302604 0 7371
0.08550000 0.08548940 22157.49353408 0 346.12198106 0 6505.85447229 0 294.97780549 0 2358.25017382 0 8256
0.08650000 0.08650700 22334.76145443 0 419.21593335 0 6560.24173180 0 -852.17151457 0 735.87335084 0 8037
0.08750000 0.08749060 21788.56367112 0 547.69143992 0 7541.58188048 0 -1025.05368706 0 -130.46298887 0 8155
0.08850000 0.08849210 21015.71539878 0 1086.97344914 0 7758.97590597 0 -1817.63284223 0 -242.56695596 0 8718
0.08950000 0.08949900 20461.10264862 0 801.48351879 0 8808.58800947 0 -658.73910723 0 182.52727464 0 8571
0.09050000 0.09049190 19493.71362921 0 591.68510812 0 8617.22501963 0 961.77867242 0 1222.77219135 0 8932
0.09150000 0.09150830 19687.70076004 0 -114.02501545 0 7974.98589085 0 2359.88887790 0 1244.11963360 0 9285
0.09250000 0.09250820 19616.17354171 0 -326.84838525 0 7447.37854092 0 1494.63098262 0 1154.33415164 0 9204
0.09350000 0.09350330 19777.49731431 0 370.86198364 0 7874.48239847 0 1140.29444377 0 2148.37425689 0 9349
0.09450000 0.09448040 19104.85358158 0 583.40079469 0 6868.93814774 0 304.96061355 0 3585.38486115 0 9564
0.09550000 0.09549270 18748.98906191 0 464.70879434 0 6510.38305314 0 858.78279972 0 4076.36496058 0 10155
0.09650000 0.09649430 18736.25588837 0 -92.80291191 0 6386.76054654 0 478.63999342 0 3872.08056768 0 9913
0.09750000 0.09749140 18490.78244714 0 239.36041070 0 6339.20491145 0 1271.96653052 0 3207.63035531 0 10476
0.09850000 0.09850240 18337.43074840 0 349.35177821 0 5704.05207055 0 650.14366147 0 3506.58312542 0 10575
0.09950000 0.09950330 17879.81156365 0 179.12364199 0 4977.58576687 0 438.95013788 0 3263.04734103 0 10882
0.10050000 0.10051200 17538.34106624 0 15.43880683 0 5091.22103649 0 310.89316519 0 2512.07798253 0 10875
0.10150000 0.10150300 17674.64138476 0 412.88699249 0 4974.07583990 0 66.41335439 0 2595.47473306 0 11118
0.10250000 0.10250800 17260.20426680 0 401.52125106 0 5371.61659019 0 -520.11692219 0 1591.21487201 0 11575
0.10350000 0.10349800 16722.86434335 0 962.07651796 0 5643.29822427 0 -831.75857654 0 2878.77123587 0 11364
0.10450000 0.10450100 16259.93044268 0 488.00164406 0 5722.35462347 0 -89.01008705 0 1782.25676443 0 12093
0.10550000 0.10551000 16108.35031591 0 -38.05270160 0 6334.90884942 0 -229.33995674 0 2639.59794747 0 12067
0.10650000 0.10649700 16027.52234474 0 215.77857330 0 6169.78726940 0 324.23420936 0 1579.12389331 0 12054
0.10750000 0.10749900 15988.99065437 0 21.78302751 0 5868.93005942 0 588.60810906 0 1527.89224637 0 12807
0.10850000 0.10850100 15994.96970977 0 293.28373980 0 5737.78944427 0 -85.71928139 0 706.36449797 0 12736
0.10950000 0.10950300 15574.66425965 0 354.03869331 0 5738.76380885 0 113.41493035 0 722.02187249 0 12933
0.11050000 0.11050200 15194.77279512 0 450.94368012 0 5574.05190485 0 -390.56186396 0 825.07199958 0 13428
0.11150000 0.11150900 15084.93533292 0 447.37174813 0 5620.11277610 0 -109.40674877 0 53.28456668 0 13453
0.11250000 0.11250000 14759.18753676 0 -38.20450317 0 5499.25835070 0 220.17760795 0 1111.93821991 0 13668
0.11350000 0.11349100 14835.14368502 0 -32.91625011 0 5395.99784944 0 659.30379579 0 -156.83837382 0 13791
0.11450000 0.11448600 14700.50421522 0 136.38446819 0 5244.48415663 0 869.17860550 0 299.37241121 0 14205
0.11550000 0.11549300 14469.75696600 0 242.16724504 0 4809.47465915 0 545.54119444 0 -71.18464060 0 14776
0.11650000 0.11649800 14431.77889187 0 310.36944422 0 4838.30699298 0 857.51944746 0 766.98990528 0 14553
0.11750000 0.11747300 14008.70536055 0 250.57224681 0 4440.31227737 0 -115.96488676 0 1250.09868900 0 14568
0.11850000 0.11849100 13898.64645185 0 185.12705650 0 4953.16021832 0 191.59440143 0 1147.77933535 0 16015
0.11950000 0.11950300 13503.91807207 0 144.91790892 0 5261.49124755 0 61.30967699 0 1609.42884634 0 15270
0.12050000 0.12050700 13848.59954367 0 109.68831799 0 4849.29073920 0 99.39482049 0 1272.88553348 0 15999
0.12150000 0.12150000 13637.67175588 0 14.44384773 0 5457.28316732 0 -3.42218987 0 1388.07092856 0 15670
0.12250000 0.12250700 13631.36053073 0 143.29913504 0 5295.28398289 0 243.27004859 0 1684.97531858 0 16887
0.12350000 0.12352200 13669.89222110 0 100.35301948 0 5336.11871682 0 336.37833522 0 1719.68705688 0 16407
0.12450000 0.12449800 13466.60433743 0 266.41895809 0 4926.88559153 0 255.13293740 0 1360.45655047 0 16306
0.12550000 0.12549900 13256.45161237 0 408.36284057 0 5083.63649399 0 260.37568320 0 1478.83077510 0 17523
0.12650000 0.12650100 13007.10285746 0 192.85221753 0 4821.46598693 0 -74.85788436 0 422.19549596 0 17154
0.12750000 0.12750600 12765.83689966 0 71.41284121 0 4558.90794850 0 90.41416856 0 986.39355772 0 18007
0.12850000 0.12850300 12992.70883519 0 -144.29342980 0 4144.31581800 0 766.13955073 0 465.60122372 0 17496
0.12950000 0.12949900 12829.83493711 0 -239.13342804 0 3831.42299095 0 323.80681762 0 480.25212392 0 18405
0.13050000 0.13049000 13004.99911574 0 109.76150605 0 3298.50092510 0 531.96873868 0 308.91675521 0 18100
0.13150000 0.13148800 12790.74963050 0 272.61945999 0 3269.94539939 0 191.75495014 0 457.27372822 0 19059
0.13250000 0.13249300 12426.80231371 0 275.62227448 0 2805.28421605 0 447.71388297 0 665.56408824 0 18957
0.13350000 0.13349100 12266.25360384 0 145.43720096 0 2875.33881518 0 299.28493985 0 458.49611288 0 19468
0.13450000 0.13450700 12113.45552134 0 169.33681408 0 2795.47413626 0 170.41747298 0 533.19001611 0 19953
0.13550000 0.13551000 12057.98317400 0 -16.95084351 0 2729.38342942 0 180.52096938 0 464.36444503 0 19956
0.13650000 0.13649900 12048.68242115 0 125.12834278 0 2822.09200513 0 -37.88672745 0 698.31381059 0 19723
0.13750000 0.13749600 11969.62602195 0 119.54124767 0 2722.08676736 0 -147.21098739 0 712.15532385 0 20946
0.13850000 0.13851100 11654.39693436 0 390.61279665 0 2861.40983056 0 89.16498887 0 891.51812805 0 20955
0.13950000 0.13949800 11602.79990071 0 313.97459318 0 2681.35168436 0 223.26346488 0 1161.86333252 0 20506
0.14050000 0.14048300 11317.35536688 0 96.08098440 0 2828.45859190 0 428.96290089 0 951.69067728 0 21447
0.14150000 0.14148400 11024.31521823 0 192.80239207 0 2531.19988749 0 231.70943425 0 560.35928675 0 21771
0.14250000 0.14249400 10950.41852239 0 338.26838107 0 2519.69574200 0 117.76967570 0 1095.13596700 0 22470
0.14350000 0.14350900 10654.07882095 0 153.17232708 0 2453.37251634 0 -246.68032463 0 966.75789689 0 22519
0.14450000 0.14449900 10672.12671040 0 23.01438075 0 2560.60798221 0 337.37373722 0 1518.64685515 0 22218
0.14550000 0.14550500 10858.79503452 0 -208.60149235 0 2421.91604153 0 297.36167703 0 895.00148144 0 23559
0.14650000 0.14650700 10617.92768041 0 16.37829359 0 2303.12106855 0 373.25028410 0 954.89057915 0 23044
0.14750000 0.14750500 10831.52389849 0 244.02075221 0 2307.33962431 0 -153.45910029 0 787.30540686 0 23649
0.14850000 0.14849900 10367.92565833 0 244.24662764 0 2213.95563679 0 -173.26084599 0 865.30107734 0 23640
0.14950000 0.14949500 10273.25728113 0 333.37552073 0 2411.48591155 0 -270.86671097 0 574.50971787 0 24457
0.15050000 0.15050000 10070.77767718 0 236.15940159 0 2275.20773768 0 -370.03377374 0 32.25667172 0 24591
0.15150000 0.15149900 9845.28978224 0 263.58887187 0 2485.48225832 0 -137.94788045 0 -187.10346648 0 25020
0.15250000 0.15250500 9595.61992991 0 253.53077200 0 2487.12096239 0 -204.97530597 0 -474.38600623 0 25297
0.15350000 0.15350100 9531.65510943 0 193.75129030 0 2609.38157304 0 -32.52661500 0 -260.81082557 0 25452
0.15450000 0.15450400 9383.02022107 0 18.98040065 0 2598.41997147 0 169.24048485 0 -152.76154383 0 26061
0.15550000 0.15549900 9546.11556564 0 -84.97201019 0 2494.16296097 0 256.47490317 0 -12.64448422 0 26128
0.15650000 0.15649500 9684.86286795 0 -61.56422973 0 2614.87344615 0 319.98575833 0 -14.69950771 0 26331
0.15750000 0.15749700 9563.89771930 0 76.84536666 0 2558.60389142 0 44.02234552 0 292.31158968 0 27345
0.15850000 0.15849900 9612.20627249 0 196.57916206 0 2641.39166409 0 126.35626360 0 197.98534731 0 26980
0.15950000 0.15949700 9247.36209739 0 315.72734220 0 2520.83619146 0 -121.91847581 0 315.59336707 0 27777
0.16050000 0.16050000 9156.92334827 0 149.39334262 0 2496.80924660 0 133.25321473 0 581.34798567 0 28224
0.16150000 0.16150500 9047.67271928 0 19.04539520 0 2121.29135038 0 218.64187650 0 60.67091457 0 28075
0.16250000 0.16249700 9041.88189340 0 24.93077873 0 2208.57448693 0 123.02902999 0 -103.34653322 0 28590
0.16350000 0.16349900 8921.83574772 0 102.22800697 0 2075.69551678 0 -166.47793981 0 -336.60974681 0 29163
0.16450000 0.16449100 8850.31960172 0 245.13573532 0 2294.00854523 0 -239.11571232 0 -152.48473570 0 28996
0.16550000 0.16550500 8591.00575446 0 185.88551075 0 2285.22819165 0 -38.86175637 0 -439.66873176 0 30777
0.16650000 0.16650700 8556.30508848 0 79.21628358 0 2367.07481670 0 -30.71485049 0 -141.91620167 0 29211
0.16750000 0.16749900 8365.14140049 0 255.25916190 0 2358.28339080 0 21.10495834 0 -662.14716880 0 30922
0.16850000 0.16850800 8359.31735763 0 116.16308137 0 2400.73468415 0 27.20104821 0 -252.12237228 0 30867
0.16950000 0.16949900 8167.56683642 0 129.17749196 0 2399.71603027 0 100.63857474 0 -224.98631862 0 30852
0.17050000 0.17049200 8165.19735891 0 232.47785359 0 2320.54890782 0 67.47463672 0 95.67009043 0 31257
0.17150000 0.17149500 7986.23537287 0 -27.21865321 0 2270.32484244 0 272.15331511 0 -302.20360467 0 32608
0.17250000 0.17250900 8067.62803261 0 53.99585283 0 2165.54743268 0 126.59099688 0 -119.50692347 0 32361
0.17350000 0.17350400 7956.14079401 0 84.60784142 0 1985.92110715 0 242.80501095 0 -262.79166448 0 32508
0.17450000 0.17449800 7924.39643876 0 12.26237829 0 1861.76712896 0 203.00443215 0 -11.29941820 0 32791
0.17550000 0.17549800 7848.94961744 0 26.54390573 0 1712.74470922 0 111.48834583 0 -287.42315827 0 33633
0.17650000 0.17650100 7737.91634416 0 207.45218503 0 1691.81801531 0 227.09006033 0 -225.30741604 0 33984
0.17750000 0.17750300 7654.76318477 0 67.71756353 0 1577.62912946 0 227.58610048 0 -101.99670610 0 34069
0.17850000 0.17849800 7516.53628174 0 -9.13349431 0 1221.81997141 0 315.81592080 0 22.35790261 0 34536
