### header ###
fiducial parameters:
Omega_m = 0.31
Omega_nu = 0
Omega_de = 0.69
Omega_k = 0
H_0 = 100
w_de = -1
zeff = 0
beta = 0
fgrowth = 0
b_1 = 2
gamma = 0.55
Lx = 3500 Ly = 3500 Lz = 3500
nx = 700 ny = 700 nz = 700
xoffset = -685.467585 yoffset = -31.7331281 zoffset = 572.489161
bins = 400 dk = 0.001
kx_ny = 0.628318531 ky_ny = 0.628318531 kz_ny = 0.628318531
############################
A(data) = 8.02202821 (not used)
A(ran) = 8.01801734 (used)
Ngal = 476805
weighted Ngal = 0
Nran = 23820508
weighted Nran = 0
SN(data) = 3493.16236
SN(ran) = 69.8398389
SN(data+ran) = 3563.0022
############################
13 columns: k_central k_mean P_0(k) sigma^{lin}_{P_0(k)} P^img_1(k) sigma^{lin}_{P_1(k)} P_2(k) sigma^{lin}_{P_2(k)} P^img_3(k) sigma^{lin}_{P_3(k)} P_4(k) sigma^{lin}_{P_4(k)} N_modes
### header ###
0.00050000 0 0 0 0 0 0 0 0 0 0 0 0
0.00150000 0.00179520 84739.82353455 0 -36597.79811606 0 -4667.57174427 0 128768.92317589 0 -85557.51472240 0 3
0.00250000 0.00253879 155920.47809618 0 -35804.46604281 0 69122.42010109 0 -128225.27202730 0 25454.61041858 0 6
0.00350000 0.00331552 139665.19802992 0 12186.64358839 0 24991.78724116 0 -117666.70308024 0 84027.09798597 0 7
0.00450000 0.00420575 136976.83756396 0 33125.29560644 0 61640.96094438 0 -40740.84061671 0 100018.85672154 0 24
0.00550000 0.00557378 105430.89836965 0 12643.59843366 0 93101.42179109 0 27330.59441260 0 25843.47046621 0 45
0.00650000 0.00659388 130683.32813704 0 16885.29534844 0 146037.32096305 0 90961.91646638 0 -1477.65710867 0 40
0.00750000 0.00754703 98926.35043168 0 13246.04362704 0 59313.77971400 0 94233.56700380 0 4266.33283750 0 57
0.00850000 0.00846663 77469.62433537 0 10003.30292973 0 57875.26327356 0 72825.89130643 0 2856.16154859 0 75
0.00950000 0.00948925 78538.65729661 0 -15298.07758568 0 -10101.56981250 0 57064.87982008 0 -8594.67069398 0 112
0.01050000 0.01054430 89074.97087079 0 -5988.04612982 0 -18745.33519472 0 -1071.38693750 0 -15405.25768993 0 105
0.01150000 0.01145670 95605.53877208 0 -7667.54064761 0 -22730.15417370 0 -39909.86263907 0 -16134.92389548 0 144
0.01250000 0.01249090 91504.79255224 0 136.40550560 0 -17591.26677887 0 -37034.93349990 0 8696.35892511 0 169
0.01350000 0.01339930 97780.03264321 0 15092.57523705 0 10708.63216533 0 -50237.13072067 0 12713.13263352 0 180
0.01450000 0.01448870 95827.87105443 0 2022.38227278 0 30806.52934292 0 -11115.39616219 0 -18210.32045948 0 267
0.01550000 0.01550050 86141.35841009 0 10947.11896960 0 51029.24483819 0 3125.86123653 0 -154.74681167 0 238
0.01650000 0.01653350 82550.04985516 0 11061.66216985 0 39925.80678680 0 710.61184177 0 -25973.01666659 0 315
0.01750000 0.01747870 75788.51325816 0 111.90134355 0 42879.12798568 0 17908.26743843 0 -7245.28646833 0 297
0.01850000 0.01844180 85712.08437687 0 -17125.45407375 0 20701.81499017 0 21029.88797455 0 -26865.11387723 0 388
0.01950000 0.01947590 87964.08452174 0 -11956.00706242 0 24334.42331668 0 -282.17376907 0 -40510.97915347 0 399
0.02050000 0.02045430 96056.95745493 0 6736.00381597 0 13463.17191674 0 -1499.82390296 0 -40509.09685825 0 462
0.02150000 0.02154770 79573.69822066 0 11309.71546276 0 9825.86892451 0 -10974.86621559 0 -2124.85663897 0 571
0.02250000 0.02255340 75554.55503474 0 9134.46867354 0 11188.80567574 0 6820.83996873 0 -1090.02941079 0 510
0.02350000 0.02348930 74146.37676431 0 -1353.31490096 0 17686.37804906 0 12820.42346101 0 5606.91456491 0 555
0.02450000 0.02439640 71040.92182242 0 -1759.01595464 0 13263.31645376 0 25129.08406891 0 14765.49876191 0 592
0.02550000 0.02547300 71087.64703315 0 -418.72875106 0 17094.11939452 0 13772.75411867 0 19045.83809030 0 837
0.02650000 0.02652900 75550.79044430 0 1985.31212928 0 13202.75083700 0 2751.06304142 0 26948.15631337 0 723
0.02750000 0.02749970 69487.69609686 0 3792.91344523 0 17069.09594043 0 -7389.21561865 0 21654.80998732 0 826
0.02850000 0.02848090 69078.79514131 0 7325.08471330 0 23102.51645735 0 -11837.86535661 0 32913.81420240 0 831
0.02950000 0.02946900 64453.55289481 0 3597.94087749 0 20642.02443615 0 -2967.22803885 0 18740.13120206 0 996
0.03050000 0.03053250 63320.18972638 0 496.11765815 0 30621.62151845 0 -548.40117594 0 9377.09652729 0 1041
0.03150000 0.03150510 56292.58516398 0 3812.57789410 0 21495.92212617 0 6603.33521999 0 473.02189581 0 1036
0.03250000 0.03246190 58666.04871211 0 4537.57157858 0 21662.67133794 0 2110.54012298 0 -2639.80832164 0 1059
0.03350000 0.03345080 51167.64889842 0 4131.66015073 0 23576.41195959 0 1277.85700732 0 9942.89232552 0 1302
0.03450000 0.03451200 49259.77660892 0 1428.06416581 0 18534.85029992 0 5073.81534187 0 -3232.31056733 0 1339
0.03550000 0.03553350 46571.19469646 0 -713.71541442 0 19447.98492771 0 2802.22825440 0 4728.38095218 0 1365
0.03650000 0.03647120 48531.77125210 0 2191.27951556 0 17379.45320509 0 3821.38039233 0 133.06498521 0 1308
0.03750000 0.03744890 49030.91165492 0 -950.88904096 0 13987.44649690 0 4219.48583119 0 2679.07078544 0 1579
0.03850000 0.03847530 48502.76176107 0 310.13028201 0 14664.40843631 0 3476.52176353 0 4808.36742667 0 1662
0.03950000 0.03950240 46768.61424798 0 1783.03182717 0 10318.25520920 0 2488.97004063 0 6425.30330923 0 1683
0.04050000 0.04050350 45286.91574075 0 1255.73450233 0 11040.73547594 0 4304.95310646 0 3432.45391075 0 1822
0.04150000 0.04152450 43593.84655273 0 1099.66233339 0 7651.23111316 0 1060.74311165 0 3369.17557442 0 1887
0.04250000 0.04250150 43011.66371376 0 1823.20222161 0 7520.77698214 0 -2469.81491870 0 137.14513690 0 1920
0.04350000 0.04349210 41240.31318927 0 1389.82035589 0 7901.23313524 0 -2977.83532603 0 1667.96822766 0 2005
0.04450000 0.04448520 40284.32866443 0 307.30462471 0 8513.10087704 0 -2732.55011432 0 2127.00466999 0 2151
0.04550000 0.04548030 40282.55709246 0 -88.93590247 0 7559.95086735 0 71.04070038 0 411.81076251 0 2274
0.04650000 0.04648670 41009.34449356 0 -137.00562561 0 7210.06540308 0 3772.55143988 0 -2323.66023109 0 2311
0.04750000 0.04749250 40286.87529914 0 -477.07436669 0 5636.82091425 0 2487.04345611 0 -480.48464274 0 2568
0.04850000 0.04851840 40563.01908012 0 -520.61628404 0 3970.52460764 0 1608.68700058 0 -829.10454028 0 2493
0.04950000 0.04949480 41426.66041597 0 479.95317115 0 4778.36142641 0 -783.67368432 0 -3402.65828467 0 2644
0.05050000 0.05050630 40600.55426125 0 1877.65591507 0 6794.55426961 0 -5029.18280053 0 -3672.05901983 0 2829
0.05150000 0.05149060 39300.22043455 0 2584.46884219 0 8202.02391126 0 -4562.25179060 0 290.45476081 0 2784
0.05250000 0.05249300 39242.64434549 0 940.37033238 0 14597.97448740 0 -2835.37879491 0 2895.19149358 0 3055
0.05350000 0.05348950 36700.43856713 0 437.05455587 0 14150.09894849 0 472.23354628 0 2778.71063649 0 3009
0.05450000 0.05448610 38640.19915211 0 396.87198187 0 17781.15714951 0 2206.29358801 0 1925.97554058 0 3336
0.05550000 0.05550870 37072.24723454 0 849.65145345 0 18992.02659168 0 2826.36592251 0 1777.56209871 0 3349
0.05650000 0.05647670 35712.45502357 0 1701.14091281 0 17054.25902517 0 2466.02818361 0 4635.14090488 0 3324
0.05750000 0.05747970 34931.63467735 0 1428.25239533 0 16199.47554917 0 1683.79057982 0 5306.16807819 0 3639
0.05850000 0.05849280 33435.76359436 0 1127.60555953 0 13591.27871489 0 2849.30777953 0 5023.61342114 0 3846
0.05950000 0.05951020 33227.49316452 0 222.48175874 0 12886.19307044 0 1766.39012297 0 3754.19352534 0 3787
0.06050000 0.06049470 32599.47090080 0 295.08852874 0 11895.44144566 0 346.85496897 0 2562.18025233 0 3930
0.06150000 0.06148310 32261.21137759 0 -79.09227354 0 9527.17081788 0 77.26644717 0 811.17733917 0 4083
0.06250000 0.06249100 32199.98142135 0 -493.83343754 0 10912.51795454 0 1546.31659487 0 2148.09744877 0 4303
0.06350000 0.06350600 32474.35363035 0 640.76208065 0 10624.08389301 0 609.31999986 0 -636.36083153 0 4470
0.06450000 0.06451750 32474.57507685 0 447.22780791 0 11015.53486465 0 -912.56551030 0 2633.45280719 0 4479
0.06550000 0.06550280 31727.19315159 0 1802.78485465 0 11902.63845680 0 -228.70772699 0 2431.41609623 0 4636
0.06650000 0.06648880 30416.56206281 0 1963.98683168 0 12511.28415208 0 -522.93150716 0 3603.35524433 0 4653
0.06750000 0.06749660 29015.91297325 0 1660.49440840 0 12868.58807398 0 854.82887253 0 4229.78309327 0 5220
0.06850000 0.06852730 27991.94437402 0 982.70536633 0 13939.39260719 0 39.44183547 0 2558.73675932 0 5029
0.06950000 0.06949320 27743.14923534 0 -572.71157231 0 13309.82021800 0 1076.58982293 0 4510.49974440 0 5040
0.07050000 0.07048030 27265.48914267 0 182.71550416 0 13298.41572344 0 768.09160160 0 1804.73358382 0 5475
0.07150000 0.07148790 27922.96379040 0 95.38996061 0 11906.07087749 0 243.63543531 0 2566.71990551 0 5509
0.07250000 0.07249820 27619.36064387 0 -265.52763594 0 12075.36672397 0 2066.84872925 0 2497.42929679 0 5916
0.07350000 0.07351270 27430.57750571 0 478.69756951 0 10008.92767074 0 2011.49817748 0 2584.33597430 0 5721
0.07450000 0.07449140 27791.09240181 0 54.96014160 0 9879.01608364 0 2325.09963332 0 724.43231761 0 6028
0.07550000 0.07549160 26737.56069532 0 -149.59707339 0 7863.21077181 0 972.91853842 0 260.55173317 0 6183
0.07650000 0.07648840 27337.90214698 0 -78.06841566 0 6894.67023062 0 220.67364810 0 -1272.53121908 0 6330
0.07750000 0.07749960 26586.75563129 0 68.91138159 0 6330.01488185 0 -1043.55222014 0 -3117.33554642 0 6583
0.07850000 0.07848650 26942.28798121 0 499.86674733 0 5870.40267862 0 -46.93170959 0 -2120.39449207 0 6549
0.07950000 0.07947320 26121.60726565 0 347.37868993 0 5690.74313612 0 -1395.20150575 0 -3905.28646981 0 6828
0.08050000 0.08048110 26065.69202532 0 745.29257757 0 5679.78153455 0 1159.61565058 0 -2654.73381549 0 7147
0.08150000 0.08149960 25347.09814459 0 738.42884341 0 6112.65407333 0 526.93083089 0 -3270.48794331 0 7386
0.08250000 0.08250610 24829.68840581 0 731.79762808 0 6389.94937609 0 702.45153838 0 -2316.88396830 0 7227
0.08350000 0.08350160 23915.33582229 0 560.31831915 0 7131.71763266 0 -342.52679719 0 -1098.54402858 0 7798
0.08450000 0.08449610 23647.93917792 0 842.40350962 0 8093.58156199 0 65.72919544 0 -841.94290091 0 7371
0.08550000 0.08548940 23107.05611053 0 766.90132668 0 8113.98785663 0 102.17951019 0 1255.62377908 0 8256
0.08650000 0.08650700 22206.21176328 0 191.06514430 0 7443.85754163 0 1243.77639153 0 1977.83831003 0 8037
0.08750000 0.08749060 22380.49015593 0 33.23701536 0 7262.69216294 0 1816.50346510 0 1226.21568437 0 8155
0.08850000 0.08849210 22022.52189454 0 322.73833828 0 6195.77401574 0 1489.38270066 0 523.79847020 0 8718
0.08950000 0.08949900 21493.59693796 0 1088.62433277 0 5626.12504847 0 400.37526544 0 644.48127456 0 8571
0.09050000 0.09049190 20400.97992485 0 1027.67561358 0 5397.24902215 0 -197.25568111 0 1793.53946342 0 8932
0.09150000 0.09150830 19757.34568314 0 367.98096472 0 5106.94373773 0 638.34831384 0 2240.36313148 0 9285
0.09250000 0.09250820 19638.20746810 0 137.64117705 0 5579.27804217 0 251.00960364 0 1080.41863285 0 9204
0.09350000 0.09350330 19436.13754016 0 82.66741650 0 6123.91462767 0 -293.21952031 0 1178.27251790 0 9349
0.09450000 0.09448040 19321.98187128 0 311.34380881 0 6227.81732377 0 -488.75456214 0 1533.73843388 0 9564
0.09550000 0.09549270 19031.33334479 0 545.19020175 0 6770.07335944 0 -94.43364391 0 2459.16334222 0 10155
0.09650000 0.09649430 18920.94226634 0 394.75052443 0 7677.35072740 0 -430.84741058 0 1882.02948337 0 9913
0.09750000 0.09749140 18351.93549391 0 751.78206714 0 7659.72358629 0 7.99778381 0 2261.38947631 0 10476
0.09850000 0.09850240 18262.69255588 0 787.96974635 0 8010.55019817 0 229.42078471 0 3181.34465619 0 10575
0.09950000 0.09950330 17439.57592886 0 172.24883551 0 7424.35917762 0 816.03033913 0 3076.36794459 0 10882
0.10050000 0.10051200 17402.70508721 0 97.85864615 0 6709.13128364 0 1359.44896891 0 2725.64098363 0 10875
0.10150000 0.10150300 17458.73105079 0 -64.63148515 0 6238.73463604 0 826.22130690 0 1998.26674932 0 11118
0.10250000 0.10250800 16866.80456599 0 427.15036132 0 5705.07072443 0 678.14335647 0 1223.04899947 0 11575
0.10350000 0.10349800 16659.64136863 0 535.33472542 0 5768.18297590 0 -406.31113878 0 1495.69392580 0 11364
0.10450000 0.10450100 15991.98018207 0 302.66310615 0 5398.24553138 0 -487.97285601 0 1409.91662543 0 12093
0.10550000 0.10551000 15995.08043302 0 35.59431332 0 5280.88996063 0 574.88728414 0 630.25555163 0 12067
0.10650000 0.10649700 15909.93425516 0 55.17992724 0 5407.13660821 0 -284.68718681 0 -94.35303739 0 12054
0.10750000 0.10749900 16038.26249981 0 140.56537804 0 5203.99266476 0 -22.47659794 0 -229.77731357 0 12807
0.10850000 0.10850100 15849.03646866 0 -160.16892913 0 5119.96479172 0 -92.70292882 0 112.92110466 0 12736
0.10950000 0.10950300 15915.35969432 0 122.52191751 0 5160.46735590 0 557.15052701 0 -279.94491009 0 12933
0.11050000 0.11050200 15914.58463158 0 -134.30065666 0 5020.22528975 0 310.85773375 0 -672.52193716 0 13428
0.11150000 0.11150900 15898.19759085 0 344.86527220 0 4915.13785489 0 475.30943812 0 -1029.06961927 0 13453
0.11250000 0.11250000 15490.95748402 0 841.85985847 0 4781.72741316 0 -84.75931083 0 -335.95426518 0 13668
0.11350000 0.11349100 15144.17227070 0 176.22047842 0 4697.87669730 0 -8.68664850 0 396.10909869 0 13791
0.11450000 0.11448600 14685.66729996 0 297.69827570 0 4960.58974828 0 713.64122984 0 998.85213761 0 14205
0.11550000 0.11549300 14617.79394883 0 243.97092675 0 4812.60812707 0 803.38131526 0 332.77318626 0 14776
0.11650000 0.11649800 14513.27120254 0 -50.03052114 0 4820.29232050 0 586.61176889 0 1583.35352139 0 14553
0.11750000 0.11747300 14454.36643450 0 167.69146661 0 4206.15475211 0 380.93004860 0 448.95951951 0 14568
0.11850000 0.11849100 14411.40581421 0 208.79857973 0 4731.25975663 0 -513.20225534 0 772.17064606 0 16015
0.11950000 0.11950300 14133.82263100 0 370.37369411 0 4126.33436249 0 -472.64875846 0 880.73368368 0 15270
0.12050000 0.12050700 13788.14465016 0 341.29555467 0 4219.39725259 0 -147.07590503 0 527.67378388 0 15999
0.12150000 0.12150000 13528.60935641 0 83.66580803 0 3842.81641318 0 532.52014046 0 440.70510136 0 15670
0.12250000 0.12250700 13549.31460383 0 46.16329025 0 3603.04521924 0 606.80879659 0 -468.56639230 0 16887
0.12350000 0.12352200 13292.87956103 0 -34.84438476 0 3122.11879074 0 855.47438907 0 476.10000211 0 16407
0.12450000 0.12449800 13533.48117934 0 -14.87998660 0 3200.05688514 0 448.12245176 0 154.67484155 0 16306
0.12550000 0.12549900 13397.62375381 0 94.60415772 0 3066.34749063 0 177.21366595 0 153.02395792 0 17523
0.12650000 0.12650100 13146.06053393 0 344.70029456 0 3427.33849669 0 -505.94213196 0 183.24254682 0 17154
0.12750000 0.12750600 12923.28535858 0 520.71039880 0 3480.96176579 0 -353.16065795 0 745.99013403 0 18007
0.12850000 0.12850300 12751.55360064 0 177.48604515 0 3917.33315921 0 -68.06744899 0 786.10848854 0 17496
0.12950000 0.12949900 12630.20092063 0 -1.18102953 0 3307.30342333 0 268.48726836 0 119.19689837 0 18405
0.13050000 0.13049000 12529.55348803 0 88.01247058 0 3307.43629123 0 383.09800980 0 97.14437048 0 18100
0.13150000 0.13148800 12441.30705922 0 142.14429156 0 2986.34994381 0 236.90124735 0 -87.59006139 0 19059
0.13250000 0.13249300 12430.34545765 0 11.75482292 0 3111.42292496 0 230.90115454 0 -68.20009544 0 18957
0.13350000 0.13349100 12005.83252411 0 140.16898881 0 2699.13383802 0 120.56986665 0 -215.57594975 0 19468
0.13450000 0.13450700 12035.72780112 0 298.29950294 0 2958.84628896 0 -76.56545829 0 105.62444261 0 19953
0.13550000 0.13551000 11920.90779275 0 84.38628420 0 2945.63700545 0 -13.04043056 0 340.05102537 0 19956
0.13650000 0.13649900 11800.55162197 0 55.49438127 0 3250.03735937 0 129.76875411 0 408.45806256 0 19723
0.13750000 0.13749600 11763.12716408 0 247.53621534 0 3454.27746297 0 -185.68953060 0 627.33356511 0 20946
0.13850000 0.13851100 11621.06923666 0 204.19802877 0 3501.47878367 0 36.56214523 0 553.72253525 0 20955
0.13950000 0.13949800 11602.24628447 0 -9.46906326 0 3405.28242565 0 140.17341774 0 659.87734222 0 20506
0.14050000 0.14048300 11650.52162068 0 -30.56592772 0 3081.16226123 0 -210.23576749 0 235.28800963 0 21447
0.14150000 0.14148400 11613.87222553 0 104.53348644 0 3493.09703379 0 222.58140967 0 -199.40149766 0 21771
0.14250000 0.14249400 11537.36246103 0 196.20159579 0 3279.46759874 0 -9.01867430 0 -143.15298035 0 22470
0.14350000 0.14350900 11477.90407675 0 257.36068915 0 3328.44049141 0 -363.58746623 0 -158.76385111 0 22519
0.14450000 0.14449900 11294.43565451 0 298.96494966 0 3361.74604446 0 -133.95520012 0 -35.42058854 0 22218
0.14550000 0.14550500 10954.67029512 0 271.53880108 0 3635.65321583 0 155.36686186 0 63.00219256 0 23559
0.14650000 0.14650700 10862.86965005 0 166.36832380 0 3589.59234458 0 509.56942557 0 474.80675457 0 23044
0.14750000 0.14750500 10666.90057309 0 23.05401967 0 3381.86445866 0 542.79415065 0 362.29975486 0 23649
0.14850000 0.14849900 10675.41519087 0 139.89882408 0 3347.34094987 0 463.77871905 0 627.71998925 0 23640
0.14950000 0.14949500 10506.61759901 0 335.76160673 0 3457.90918551 0 -126.89437858 0 485.63438101 0 24457
0.15050000 0.15050000 10092.18048105 0 324.64831431 0 3275.49263413 0 -311.31391353 0 751.39342854 0 24591
0.15150000 0.15149900 9936.02748413 0 317.59081447 0 3530.58792562 0 -114.70153449 0 648.99213969 0 25020
0.15250000 0.15250500 9818.99301080 0 188.88832524 0 3492.75379172 0 -2.84404843 0 651.42140775 0 25297
0.15350000 0.15350100 9540.41331836 0 62.24384903 0 3427.99176385 0 503.03896839 0 544.33652550 0 25452
0.15450000 0.15450400 9422.23839557 0 126.71500692 0 3139.12588166 0 398.94139938 0 428.29856140 0 26061
0.15550000 0.15549900 9461.65587193 0 135.83417364 0 3113.54881133 0 290.19788287 0 215.32128628 0 26128
0.15650000 0.15649500 9312.45629500 0 39.26622840 0 3223.23126098 0 -160.51770736 0 178.68185623 0 26331
0.15750000 0.15749700 9137.21461009 0 164.30222798 0 3282.91109175 0 -342.40610885 0 365.52290861 0 27345
0.15850000 0.15849900 9277.56739949 0 55.56413691 0 3350.86194917 0 -274.84831897 0 310.24211249 0 26980
0.15950000 0.15949700 9125.71046460 0 -69.24742665 0 3395.94845583 0 90.55146539 0 457.53835678 0 27777
0.16050000 0.16050000 9253.20828489 0 27.54196509 0 3373.80380619 0 575.64463116 0 253.30157488 0 28224
0.16150000 0.16150500 9211.91958564 0 68.56160685 0 3115.51968515 0 536.38216735 0 140.40261486 0 28075
0.16250000 0.16249700 9125.21220999 0 128.48657889 0 2723.09434892 0 374.56789075 0 132.90332926 0 28590
0.16350000 0.16349900 9063.00788916 0 195.26709157 0 2502.26790274 0 197.52252414 0 335.15484333 0 29163
0.16450000 0.16449100 8916.48781483 0 88.97354838 0 2479.02709295 0 102.23708628 0 358.36907955 0 28996
0.16550000 0.16550500 8951.89710960 0 -13.80132072 0 2455.96344035 0 103.58702412 0 495.93939372 0 30777
0.16650000 0.16650700 8752.41810567 0 162.93590310 0 2529.17365205 0 -67.54649611 0 468.68708064 0 29211
0.16750000 0.16749900 8664.23811081 0 241.67563382 0 2620.81928457 0 22.07799424 0 520.82001482 0 30922
0.16850000 0.16850800 8482.56340519 0 193.75571923 0 2676.21412564 0 145.46377454 0 961.41660740 0 30867
0.16950000 0.16949900 8418.95289911 0 181.17645101 0 2487.78530188 0 131.53036099 0 817.11985590 0 30852
0.17050000 0.17049200 8323.12192780 0 92.65476421 0 2459.03047432 0 296.41610049 0 934.12111226 0 31257
0.17150000 0.17149500 8232.43958754 0 55.53612393 0 2423.43295003 0 236.72741186 0 1269.51954673 0 32608
0.17250000 0.17250900 8067.83840678 0 79.29855095 0 2183.52888819 0 234.97577007 0 757.05138652 0 32361
0.17350000 0.17350400 8049.60228781 0 -8.24501775 0 1878.71885825 0 368.22787756 0 1007.70999746 0 32508
0.17450000 0.17449800 8086.52849108 0 -14.11998222 0 1981.49217722 0 98.73291692 0 609.23585019 0 32791
0.17550000 0.17549800 7970.40194838 0 99.48838164 0 1728.20167467 0 184.44610853 0 710.74138797 0 33633
0.17650000 0.17650100 7913.50127113 0 132.71067081 0 1798.83203469 0 57.48418876 0 745.82404916 0 33984
0.17750000 0.17750300 7818.19069910 0 87.59150079 0 1664.94548298 0 -39.30221345 0 898.65977756 0 34069
0.17850000 0.17849800 7858.26144261 0 21.46215154 0 1727.44875658 0 113.85117995 0 890.25809749 0 34536
