### header ###
fiducial parameters:
Omega_m = 0.31
Omega_nu = 0
Omega_de = 0.69
Omega_k = 0
H_0 = 100
w_de = -1
zeff = 0
beta = 0
fgrowth = 0
b_1 = 2
gamma = 0.55
Lx = 3500 Ly = 3500 Lz = 3500
nx = 700 ny = 700 nz = 700
xoffset = -685.467585 yoffset = -31.7331281 zoffset = 572.489161
bins = 400 dk = 0.001
kx_ny = 0.628318531 ky_ny = 0.628318531 kz_ny = 0.628318531
############################
A(data) = 7.99785432 (not used)
A(ran) = 7.99051201 (used)
Ngal = 475147
weighted Ngal = 0
Nran = 23820508
weighted Nran = 0
SN(data) = 3493.36148
SN(ran) = 69.6002575
SN(data+ran) = 3562.96174
############################
13 columns: k_central k_mean P_0(k) sigma^{lin}_{P_0(k)} P^img_1(k) sigma^{lin}_{P_1(k)} P_2(k) sigma^{lin}_{P_2(k)} P^img_3(k) sigma^{lin}_{P_3(k)} P_4(k) sigma^{lin}_{P_4(k)} N_modes
### header ###
0.00050000 0 0 0 0 0 0 0 0 0 0 0 0
0.00150000 0.00179520 9163.27886271 0 -22566.28376639 0 -38712.61215643 0 30827.01314383 0 -55240.38213647 0 3
0.00250000 0.00253879 12923.61752832 0 -19674.52469350 0 -27817.11236513 0 20001.49044540 0 40129.86973321 0 6
0.00350000 0.00331552 34893.76732647 0 -39239.10120155 0 -38008.30157471 0 -37749.31989720 0 -31540.40303190 0 7
0.00450000 0.00420575 56789.28965535 0 -53004.65830909 0 -66731.24083326 0 -8626.89115920 0 -13353.88807078 0 24
0.00550000 0.00557378 90165.26269568 0 -42798.07856801 0 -80910.45999602 0 -16397.22727043 0 -17225.32644362 0 45
0.00650000 0.00659388 125287.78425291 0 -32301.29319344 0 -96092.83178734 0 -62812.08074045 0 -33605.50233383 0 40
0.00750000 0.00754703 143858.28743874 0 -20242.75640319 0 -107716.00476572 0 -56746.32903505 0 -22693.72622505 0 57
0.00850000 0.00846663 127987.21704370 0 14240.55984225 0 -64083.73724587 0 -102763.57532083 0 -3746.16608984 0 75
0.00950000 0.00948925 121754.60540328 0 24446.36452059 0 -54660.30303922 0 -77859.48089224 0 9019.69295447 0 112
0.01050000 0.01054430 110299.73176215 0 25188.98534618 0 -21880.57469037 0 -60881.73163157 0 -13095.12783976 0 105
0.01150000 0.01145670 89642.98113399 0 15959.31682385 0 -3152.81127514 0 -5148.55353440 0 1479.40653599 0 144
0.01250000 0.01249090 84137.04617142 0 6318.52180868 0 5886.83400865 0 10118.67655434 0 -10241.80080632 0 169
0.01350000 0.01339930 78969.03856232 0 -4098.94143089 0 1560.98742526 0 17287.44218585 0 -16047.89542240 0 180
0.01450000 0.01448870 86916.31042415 0 -960.64265189 0 11196.66702636 0 5909.65407011 0 -10082.94616215 0 267
0.01550000 0.01550050 89422.42042360 0 -92.33012364 0 16068.93283956 0 -6854.46661921 0 7204.27457720 0 238
0.01650000 0.01653350 86514.16358673 0 8869.89547199 0 39792.16382624 0 -14389.48261106 0 7692.64160798 0 315
0.01750000 0.01747870 80555.14909259 0 8780.57502768 0 43187.93512487 0 -2434.90387854 0 -191.47924925 0 297
0.01850000 0.01844180 74468.35997003 0 4746.16310584 0 52940.10665539 0 1541.92088192 0 7254.37684701 0 388
0.01950000 0.01947590 74155.78824040 0 5913.15292475 0 46369.56766151 0 9784.44735737 0 7371.71027311 0 399
0.02050000 0.02045430 72894.76116681 0 1039.99357494 0 48942.55450287 0 10100.13041027 0 -12420.15891882 0 462
0.02150000 0.02154770 69534.53203084 0 1116.92076608 0 35379.39949302 0 11874.62547501 0 -2228.79255204 0 571
0.02250000 0.02255340 67478.29058877 0 1137.09454190 0 26856.80963361 0 15950.34824075 0 2498.86869902 0 510
0.02350000 0.02348930 70415.22474692 0 -6073.13694605 0 13525.95199846 0 14555.23531360 0 1516.57633041 0 555
0.02450000 0.02439640 73182.42016559 0 -7334.82835914 0 11670.78397509 0 19571.44134944 0 5660.88107608 0 592
0.02550000 0.02547300 78672.30025718 0 -3718.64029034 0 8037.21235633 0 4942.71901602 0 -2817.64093055 0 837
0.02650000 0.02652900 81573.69225265 0 1964.90583464 0 15745.95312460 0 -2377.18384926 0 5327.96948576 0 723
0.02750000 0.02749970 76530.24829776 0 6531.81907399 0 12381.18433546 0 -17192.33091566 0 4559.36191382 0 826
0.02850000 0.02848090 74061.00913995 0 13124.02660754 0 34328.85731423 0 -5495.09515657 0 17199.86009653 0 831
0.02950000 0.02946900 65296.37826001 0 6104.61556551 0 35520.79308095 0 -827.96076913 0 21260.52450052 0 996
0.03050000 0.03053250 61248.66847606 0 3934.28488851 0 37260.03386347 0 3490.30680793 0 15732.66633481 0 1041
0.03150000 0.03150510 57944.35458043 0 1522.01284190 0 35836.13289179 0 6669.22662499 0 4831.49751321 0 1036
0.03250000 0.03246190 55226.98462344 0 1803.46026646 0 30187.47566231 0 6380.37181512 0 -4532.30115197 0 1059
0.03350000 0.03345080 55343.24403403 0 945.20672386 0 29296.26423766 0 4437.04594155 0 1097.94390857 0 1302
0.03450000 0.03451200 53173.95415556 0 -425.28246012 0 24982.15431857 0 4198.24911219 0 -8200.99418505 0 1339
0.03550000 0.03553350 54570.39576169 0 520.18667784 0 22785.07290480 0 -1041.05762535 0 -9521.15854550 0 1365
0.03650000 0.03647120 50584.46955023 0 1249.03574582 0 15756.02894018 0 5684.99659954 0 -6707.54794119 0 1308
0.03750000 0.03744890 50553.46704073 0 944.95870379 0 14339.65714938 0 2361.07361665 0 -4474.01643412 0 1579
0.03850000 0.03847530 49897.21034873 0 1066.65794757 0 14774.13517526 0 3581.17737772 0 1225.76171905 0 1662
0.03950000 0.03950240 48660.09949675 0 1720.50640892 0 13834.53769115 0 6464.25574795 0 3479.30091706 0 1683
0.04050000 0.04050350 46060.64979907 0 1769.70074809 0 10186.25095271 0 2464.82130020 0 6797.42200174 0 1822
0.04150000 0.04152450 45887.36791566 0 2572.82075648 0 12934.80057639 0 765.73983981 0 1741.15629471 0 1887
0.04250000 0.04250150 43306.18755394 0 2688.26081504 0 14987.49887452 0 -4807.21590489 0 -1159.78173545 0 1920
0.04350000 0.04349210 41846.41224985 0 2111.10481155 0 16627.19945691 0 -4023.51675422 0 433.30546669 0 2005
0.04450000 0.04448520 39898.56886775 0 913.16784477 0 14629.08772014 0 -3073.42270619 0 -1690.68863818 0 2151
0.04550000 0.04548030 40473.11180259 0 -683.48021703 0 15464.38390446 0 1324.77044758 0 -5769.25699141 0 2274
0.04650000 0.04648670 40018.59286879 0 -163.85490606 0 15155.46604202 0 2692.46829848 0 -8863.89427194 0 2311
0.04750000 0.04749250 40598.11834979 0 986.78108909 0 15465.82330669 0 781.64301994 0 -9386.28655689 0 2568
0.04850000 0.04851840 38216.35055805 0 2171.06145044 0 15642.09471780 0 1379.00269454 0 -4181.08700872 0 2493
0.04950000 0.04949480 37958.91900602 0 1975.07022883 0 16403.31704908 0 1237.42087708 0 1811.24411081 0 2644
0.05050000 0.05050630 36186.79341880 0 -535.44987760 0 15010.19714040 0 4593.46467426 0 5088.23150878 0 2829
0.05150000 0.05149060 37300.66929555 0 -278.78563768 0 14954.94623955 0 6551.59424612 0 6948.90247758 0 2784
0.05250000 0.05249300 37909.53643733 0 365.86393622 0 14731.94961771 0 1778.80219909 0 7660.38792578 0 3055
0.05350000 0.05348950 36372.47630600 0 839.81922901 0 15392.19234664 0 3532.86882454 0 12581.03979844 0 3009
0.05450000 0.05448610 34976.58831612 0 786.79165099 0 14306.10800518 0 306.84955216 0 8974.62859245 0 3336
0.05550000 0.05550870 34239.61437619 0 1969.93267011 0 15644.86279900 0 1992.92988876 0 9390.06221965 0 3349
0.05650000 0.05647670 33151.86918601 0 1277.25910178 0 15255.67058163 0 -1097.24081595 0 8144.68034102 0 3324
0.05750000 0.05747970 32515.76412517 0 91.91801171 0 15131.54982041 0 -966.31721836 0 8376.76734155 0 3639
0.05850000 0.05849280 33408.30422881 0 -381.93209399 0 15644.08773627 0 -371.71787435 0 6371.03784530 0 3846
0.05950000 0.05951020 34658.81259382 0 -61.94511771 0 15754.58953796 0 -81.21328808 0 4663.82929849 0 3787
0.06050000 0.06049470 33006.37883789 0 893.66726630 0 15083.05303770 0 3176.00779563 0 6192.76234339 0 3930
0.06150000 0.06148310 34037.98734124 0 188.21291343 0 13236.29998120 0 2233.62008567 0 4888.70821555 0 4083
0.06250000 0.06249100 32958.76784117 0 -179.80901889 0 12683.90169600 0 3060.14698873 0 6562.67764326 0 4303
0.06350000 0.06350600 32814.27400228 0 85.37061388 0 11566.15050556 0 3344.34034985 0 2913.10651514 0 4470
0.06450000 0.06451750 32146.50209247 0 612.90300417 0 9754.18669364 0 1876.84763536 0 5273.12826093 0 4479
0.06550000 0.06550280 31880.32340383 0 762.44250148 0 9522.60902005 0 165.19355013 0 4971.96102586 0 4636
0.06650000 0.06648880 29996.69950568 0 1014.75199605 0 8402.16725468 0 -329.44595265 0 5150.18116615 0 4653
0.06750000 0.06749660 30473.58453562 0 603.19921870 0 8396.37642880 0 -195.96796973 0 4118.27371002 0 5220
0.06850000 0.06852730 30035.12047280 0 -250.66746880 0 7707.69996973 0 -1021.78513677 0 2167.48508952 0 5029
0.06950000 0.06949320 30666.46443396 0 450.45871229 0 8945.38658261 0 -1074.00332785 0 1345.36497174 0 5040
0.07050000 0.07048030 29741.81458836 0 421.23441817 0 10441.16908701 0 -1841.63764244 0 -1530.01813274 0 5475
0.07150000 0.07148790 29918.52889246 0 954.96808542 0 10380.60347025 0 40.24778999 0 414.48805066 0 5509
0.07250000 0.07249820 29224.51557283 0 -184.77052764 0 10243.94883734 0 -500.66395472 0 -538.39622324 0 5916
0.07350000 0.07351270 29449.17304340 0 -0.55832862 0 10558.15927104 0 1634.21978161 0 -630.25222993 0 5721
0.07450000 0.07449140 29678.25944390 0 319.62701500 0 10450.32589963 0 1343.28337467 0 30.81549793 0 6028
0.07550000 0.07549160 28505.47879911 0 1037.30742894 0 8967.88554664 0 1819.72551162 0 1044.30956715 0 6183
0.07650000 0.07648840 27817.22308838 0 1035.43731328 0 7935.25838940 0 2129.06412240 0 1302.91367838 0 6330
0.07750000 0.07749960 26975.06206268 0 77.01909144 0 6678.17306344 0 2062.53052257 0 1734.88935886 0 6583
0.07850000 0.07848650 26514.45335022 0 500.56319656 0 6185.98608060 0 1695.95906480 0 738.18193057 0 6549
0.07950000 0.07947320 25965.26603921 0 547.38030759 0 5182.87774133 0 569.64675280 0 661.21709352 0 6828
0.08050000 0.08048110 25295.16894119 0 663.72054616 0 4244.49821295 0 -77.58710170 0 562.26594108 0 7147
0.08150000 0.08149960 24691.17362233 0 782.60963390 0 4938.38973701 0 -383.73577570 0 -397.05578246 0 7386
0.08250000 0.08250610 23661.00452121 0 930.42406300 0 5438.96954207 0 -1048.44729494 0 -258.87649042 0 7227
0.08350000 0.08350160 22914.17621219 0 1092.29591568 0 5688.05256119 0 -1050.02399399 0 18.85871580 0 7798
0.08450000 0.08449610 22806.11032196 0 19.29884071 0 6257.35828639 0 -177.24577570 0 -184.76388425 0 7371
0.08550000 0.08548940 22958.35478821 0 -351.70354000 0 7100.28330250 0 -286.02361641 0 -114.93073162 0 8256
0.08650000 0.08650700 22986.92138625 0 404.93706327 0 6899.03272660 0 -129.91712326 0 -466.43496978 0 8037
0.08750000 0.08749060 22610.79451216 0 475.80215657 0 6670.33385747 0 1063.48904820 0 1025.52315363 0 8155
0.08850000 0.08849210 21933.27895650 0 833.16476179 0 7212.14700015 0 456.87069560 0 733.15177340 0 8718
0.08950000 0.08949900 21471.00939533 0 988.22270578 0 6913.67034001 0 1149.72806452 0 2137.43479997 0 8571
0.09050000 0.09049190 20447.15151935 0 834.33178483 0 6888.59152430 0 1096.57979816 0 2128.15619177 0 8932
0.09150000 0.09150830 19775.17212610 0 478.37647209 0 6740.95314516 0 837.64351718 0 2940.79839951 0 9285
0.09250000 0.09250820 19628.13165251 0 222.03332959 0 7032.66461484 0 503.78302862 0 2644.19296227 0 9204
0.09350000 0.09350330 19197.75038681 0 470.13534073 0 6541.33020101 0 -127.04606943 0 2116.18700864 0 9349
0.09450000 0.09448040 19241.92896284 0 255.75963099 0 6584.62299105 0 -540.02717668 0 2837.13929456 0 9564
0.09550000 0.09549270 18943.86197872 0 -168.61489850 0 6286.10204161 0 63.77083335 0 2272.49501810 0 10155
0.09650000 0.09649430 19329.73249865 0 -67.62123430 0 6911.44480272 0 24.92590691 0 1062.28327203 0 9913
0.09750000 0.09749140 19351.98787153 0 81.47182686 0 6500.72798590 0 -492.58669376 0 -35.84532292 0 10476
0.09850000 0.09850240 18789.84594049 0 528.26172433 0 6974.61241581 0 -198.71279906 0 725.75988935 0 10575
0.09950000 0.09950330 18544.59394576 0 869.96806226 0 6995.12943370 0 -226.28842402 0 719.92920310 0 10882
0.10050000 0.10051200 17718.37706779 0 680.71656476 0 6685.74653362 0 726.63238855 0 1266.97291202 0 10875
0.10150000 0.10150300 17308.92249600 0 350.87200841 0 6422.52415571 0 976.71191690 0 800.55122904 0 11118
0.10250000 0.10250800 16894.26393154 0 363.70815457 0 6019.69083415 0 1373.96478675 0 1845.66796867 0 11575
0.10350000 0.10349800 16710.68478605 0 330.43914019 0 5791.42378569 0 1079.96134584 0 1841.23903874 0 11364
0.10450000 0.10450100 16037.81960682 0 151.20366772 0 4955.69578071 0 562.03120779 0 1604.49058947 0 12093
0.10550000 0.10551000 15904.50881600 0 280.31472574 0 5034.16534670 0 424.98240012 0 1696.62340429 0 12067
0.10650000 0.10649700 15695.46332342 0 68.20153485 0 4511.50732596 0 525.70291006 0 1187.18573938 0 12054
0.10750000 0.10749900 15745.17806186 0 -46.18931021 0 4407.44961731 0 -31.16637990 0 809.92063030 0 12807
0.10850000 0.10850100 15611.42437805 0 245.75024935 0 4217.53710202 0 -709.77255955 0 -134.75683644 0 12736
0.10950000 0.10950300 15520.85276103 0 371.18640276 0 4569.68132055 0 74.54741637 0 1050.28972979 0 12933
0.11050000 0.11050200 15133.65356213 0 56.36776625 0 3787.80910348 0 460.86448316 0 172.57879079 0 13428
0.11150000 0.11150900 15141.40418950 0 87.52562046 0 3864.26350636 0 955.58038499 0 237.67077393 0 13453
0.11250000 0.11250000 15499.37245089 0 101.79917583 0 3978.49668151 0 449.81208853 0 689.95199089 0 13668
0.11350000 0.11349100 14714.12317475 0 573.33826590 0 3770.04909448 0 394.10500790 0 1263.10867066 0 13791
0.11450000 0.11448600 14736.59999413 0 316.64191623 0 3617.18457803 0 197.41401535 0 2120.90381901 0 14205
0.11550000 0.11549300 14594.54206671 0 82.60197906 0 4290.57015652 0 -93.58683251 0 2714.52436951 0 14776
0.11650000 0.11649800 14563.42883397 0 110.52793238 0 4935.26734142 0 -414.60984623 0 2056.57361182 0 14553
0.11750000 0.11747300 14444.51206541 0 144.48055209 0 5161.04311679 0 -201.60931923 0 2304.89264052 0 14568
0.11850000 0.11849100 14373.98135632 0 113.06283042 0 5146.91483032 0 -402.28191978 0 1762.75840043 0 16015
0.11950000 0.11950300 14152.31341345 0 371.85406394 0 5398.06837419 0 -171.74504473 0 1141.16915743 0 15270
0.12050000 0.12050700 14109.35279315 0 291.70814797 0 5206.94897549 0 -60.49420026 0 570.45946145 0 15999
0.12150000 0.12150000 13431.39434451 0 237.52794094 0 4895.96058831 0 -47.24339554 0 569.03113154 0 15670
0.12250000 0.12250700 13280.47855723 0 326.63579662 0 4647.13223266 0 257.73050480 0 -222.26252671 0 16887
0.12350000 0.12352200 13208.95133890 0 74.78281399 0 4610.94787515 0 639.69249407 0 -103.32339206 0 16407
0.12450000 0.12449800 12968.23899734 0 37.29756904 0 3887.95828147 0 461.56425409 0 -370.70918556 0 16306
0.12550000 0.12549900 13220.24511022 0 -114.82443730 0 4165.56360932 0 664.51775355 0 -11.22744809 0 17523
0.12650000 0.12650100 12968.79261358 0 30.93441469 0 3464.12075974 0 182.54277589 0 34.37868278 0 17154
0.12750000 0.12750600 13215.04111755 0 211.09387267 0 3869.26819718 0 -16.08587350 0 382.52114167 0 18007
0.12850000 0.12850300 12817.98754955 0 220.71572293 0 3830.90259168 0 122.86405235 0 1159.47171036 0 17496
0.12950000 0.12949900 12812.34066390 0 152.09277541 0 3572.19772229 0 626.85966961 0 893.63404932 0 18405
0.13050000 0.13049000 12618.90714931 0 -26.44082239 0 3466.46809260 0 633.23954317 0 1348.53165664 0 18100
0.13150000 0.13148800 12640.05528972 0 176.00124639 0 3284.49443420 0 682.74169297 0 1124.29493441 0 19059
0.13250000 0.13249300 12431.89558313 0 215.02565521 0 3038.62238928 0 323.05500677 0 1562.96937140 0 18957
0.13350000 0.13349100 12204.58075460 0 289.74613202 0 3109.89494414 0 -260.76100011 0 1968.11680884 0 19468
0.13450000 0.13450700 12166.60268047 0 200.21974246 0 3350.48549012 0 -483.66350719 0 1463.72812405 0 19953
0.13550000 0.13551000 12073.92732174 0 123.66236697 0 3635.71964978 0 -506.68951389 0 1496.46898854 0 19956
0.13650000 0.13649900 12047.79663517 0 118.98098804 0 4029.87226867 0 -305.58509267 0 1532.54262280 0 19723
0.13750000 0.13749600 12090.31436247 0 -36.83740323 0 3966.06246074 0 -92.98250502 0 1458.60163766 0 20946
0.13850000 0.13851100 12024.54475305 0 -58.09084144 0 4027.19276606 0 429.49880141 0 563.06757740 0 20955
0.13950000 0.13949800 12217.09248165 0 90.69540561 0 3788.41808135 0 398.78306513 0 894.17880770 0 20506
0.14050000 0.14048300 11720.60943678 0 325.46102295 0 3586.79104640 0 483.19846955 0 462.89182583 0 21447
0.14150000 0.14148400 11753.05134850 0 364.74120248 0 3252.16324573 0 115.50427804 0 542.10102312 0 21771
0.14250000 0.14249400 11071.46117731 0 361.72620843 0 3028.50228440 0 150.85488949 0 781.36842629 0 22470
0.14350000 0.14350900 10880.30856164 0 415.04941752 0 2977.00490166 0 55.84515252 0 908.29380738 0 22519
0.14450000 0.14449900 10635.38873665 0 12.20447003 0 2628.03844036 0 437.48859100 0 907.36373210 0 22218
0.14550000 0.14550500 10647.76759580 0 97.74781218 0 2644.09331134 0 423.57621487 0 551.99082365 0 23559
0.14650000 0.14650700 10427.76050165 0 43.48655573 0 2123.49474302 0 357.39582219 0 462.73016989 0 23044
0.14750000 0.14750500 10389.18452199 0 63.01304344 0 2302.22421024 0 64.16478666 0 382.50896211 0 23649
0.14850000 0.14849900 10462.15114254 0 48.91088765 0 2303.90720361 0 109.12772618 0 897.59572714 0 23640
0.14950000 0.14949500 10410.76448306 0 -47.39231831 0 2137.61195716 0 133.68614263 0 398.85060631 0 24457
0.15050000 0.15050000 10439.88469733 0 56.22936219 0 2341.80777147 0 123.33794785 0 1016.34751806 0 24591
0.15150000 0.15149900 10403.45674868 0 285.78888313 0 2319.57454323 0 13.42452950 0 752.23049630 0 25020
0.15250000 0.15250500 10232.38933023 0 203.09854692 0 2369.17855842 0 -68.88945839 0 1282.24164795 0 25297
0.15350000 0.15350100 10035.88878167 0 258.83109389 0 2436.36542542 0 -257.14588605 0 993.79429963 0 25452
0.15450000 0.15450400 9797.43519438 0 336.79354740 0 2724.99878879 0 -419.86587882 0 609.02879772 0 26061
0.15550000 0.15549900 9579.59827590 0 252.45343480 0 2699.34421219 0 -290.20120457 0 811.17069577 0 26128
0.15650000 0.15649500 9385.33433695 0 129.28932244 0 2675.01831456 0 86.14755891 0 763.61506068 0 26331
0.15750000 0.15749700 9289.85768004 0 -47.14219449 0 2589.60640091 0 386.82273986 0 779.56585181 0 27345
0.15850000 0.15849900 9467.82315685 0 -30.97925761 0 2555.21576002 0 595.01787789 0 65.98917362 0 26980
0.15950000 0.15949700 9361.22988582 0 5.37112941 0 2373.61856067 0 -86.98872343 0 -242.56031257 0 27777
0.16050000 0.16050000 9278.53069175 0 183.42524018 0 2427.28611907 0 84.30656346 0 109.36046645 0 28224
0.16150000 0.16150500 9254.22693877 0 146.16797440 0 2351.92787635 0 -180.70366274 0 377.48877004 0 28075
0.16250000 0.16249700 9198.71030213 0 149.81187649 0 2511.49114931 0 12.17590343 0 297.75363733 0 28590
0.16350000 0.16349900 8946.40523649 0 173.64284120 0 2491.48345837 0 370.51541987 0 715.43051753 0 29163
0.16450000 0.16449100 8732.33290845 0 237.87782640 0 2413.97718464 0 417.53515445 0 798.53606592 0 28996
0.16550000 0.16550500 8704.86247057 0 141.74347340 0 2411.13159716 0 387.56126393 0 842.25181877 0 30777
0.16650000 0.16650700 8654.50553730 0 37.84664563 0 2365.89007795 0 118.07305740 0 902.22063722 0 29211
0.16750000 0.16749900 8426.62602021 0 218.54001111 0 2462.17501457 0 -198.13150200 0 1056.32082512 0 30922
0.16850000 0.16850800 8483.63742070 0 99.79685661 0 2582.04400306 0 -139.95307848 0 1605.43173708 0 30867
0.16950000 0.16949900 8392.53433209 0 -189.28803617 0 2613.25688672 0 88.75398417 0 1418.38695392 0 30852
0.17050000 0.17049200 8608.27858118 0 6.60070001 0 2637.81530317 0 422.00726644 0 1126.32116985 0 31257
0.17150000 0.17149500 8546.63894891 0 146.70055322 0 2511.02611167 0 129.00808539 0 848.98268503 0 32608
0.17250000 0.17250900 8398.90091886 0 294.07651825 0 2279.52594436 0 -250.40837640 0 737.35039897 0 32361
0.17350000 0.17350400 8087.70215751 0 227.74775643 0 2420.42127768 0 -246.35258382 0 816.78104276 0 32508
0.17450000 0.17449800 7945.89889355 0 101.39824695 0 2209.24989874 0 -58.07910477 0 592.43470451 0 32791
0.17550000 0.17549800 7973.45791003 0 56.26069687 0 2240.92782005 0 108.20628731 0 332.52738065 0 33633
0.17650000 0.17650100 7822.83000319 0 7.70931653 0 1825.92601352 0 232.30291086 0 -132.83910978 0 33984
0.17750000 0.17750300 7859.44618137 0 -7.20445173 0 1650.16392935 0 261.40873111 0 -79.89435275 0 34069
0.17850000 0.17849800 7910.32351391 0 -16.89337815 0 1452.55614831 0 -11.72260246 0 -193.59184883 0 34536
