### header ###
fiducial parameters:
Omega_m = 0.31
Omega_nu = 0
Omega_de = 0.69
Omega_k = 0
H_0 = 100
w_de = -1
zeff = 0
beta = 0
fgrowth = 0
b_1 = 2
gamma = 0.55
Lx = 3500 Ly = 3500 Lz = 3500
nx = 700 ny = 700 nz = 700
xoffset = -685.467585 yoffset = -31.7331281 zoffset = 572.489161
bins = 400 dk = 0.001
kx_ny = 0.628318531 ky_ny = 0.628318531 kz_ny = 0.628318531
############################
A(data) = 7.98816313 (not used)
A(ran) = 7.98953997 (used)
Ngal = 475205
weighted Ngal = 0
Nran = 23820508
weighted Nran = 0
SN(data) = 3482.48721
SN(ran) = 69.5917907
SN(data+ran) = 3552.079
############################
13 columns: k_central k_mean P_0(k) sigma^{lin}_{P_0(k)} P^img_1(k) sigma^{lin}_{P_1(k)} P_2(k) sigma^{lin}_{P_2(k)} P^img_3(k) sigma^{lin}_{P_3(k)} P_4(k) sigma^{lin}_{P_4(k)} N_modes
### header ###
0.00050000 0 0 0 0 0 0 0 0 0 0 0 0
0.00150000 0.00179520 5020.85641226 0 -132.40728911 0 1006.00818114 0 11316.91247389 0 -18912.41657623 0 3
0.00250000 0.00253879 22814.85745857 0 -20264.56888309 0 -9501.57160290 0 -30207.73801673 0 1444.70587001 0 6
0.00350000 0.00331552 24012.32938770 0 -14223.84063178 0 -16725.85387105 0 24161.03071002 0 14586.23782309 0 7
0.00450000 0.00420575 40181.68821336 0 -18445.49663863 0 -7410.26410813 0 -8029.90462195 0 982.92570559 0 24
0.00550000 0.00557378 49264.20553885 0 -7880.04070553 0 -6728.80680484 0 8217.14870696 0 8539.38657616 0 45
0.00650000 0.00659388 58194.92129108 0 795.67497719 0 -9360.26659356 0 -8309.84621034 0 -1019.88512584 0 40
0.00750000 0.00754703 57721.02578884 0 -5251.14969617 0 -729.68835020 0 -12704.16405042 0 7851.41874588 0 57
0.00850000 0.00846663 63396.69949088 0 -5782.16732214 0 5514.49386965 0 14260.04713393 0 48233.59354473 0 75
0.00950000 0.00948925 69084.10985722 0 -10894.61400531 0 -4878.98671436 0 16637.27527250 0 16799.37410784 0 112
0.01050000 0.01054430 88816.21063978 0 -21035.20269046 0 -20195.69902271 0 21115.47704540 0 -11062.33758166 0 105
0.01150000 0.01145670 97008.62377310 0 -25712.59558685 0 -19134.41668885 0 -2111.19339015 0 -11636.45976816 0 144
0.01250000 0.01249090 98531.06843566 0 11752.49773226 0 -14171.68998188 0 -24410.93308117 0 -23556.37105167 0 169
0.01350000 0.01339930 100450.89883596 0 22132.35935674 0 -15085.04605617 0 -26532.27979318 0 3268.29562299 0 180
0.01450000 0.01448870 78164.63416424 0 10116.12991963 0 -12310.54290312 0 -36557.05196073 0 1121.94760155 0 267
0.01550000 0.01550050 73626.86328382 0 6221.56146025 0 8222.35269963 0 -22339.63327735 0 -5815.34000730 0 238
0.01650000 0.01653350 73236.23166421 0 -227.56949200 0 18980.73282036 0 -6344.27603621 0 -29038.38979263 0 315
0.01750000 0.01747870 76654.36905898 0 624.52673077 0 31662.42005140 0 -9156.40294900 0 -17991.97421406 0 297
0.01850000 0.01844180 73664.95208119 0 -78.70020252 0 14796.50127140 0 3745.36888245 0 -24202.55192809 0 388
0.01950000 0.01947590 72737.86632413 0 -1620.99942577 0 28999.63665576 0 4622.04234462 0 -15981.46147349 0 399
0.02050000 0.02045430 77677.00897923 0 1214.71153888 0 28714.63501493 0 2338.66323122 0 -16102.03909076 0 462
0.02150000 0.02154770 71002.94374829 0 -869.20517908 0 19353.75944350 0 7069.30293766 0 -1260.05270901 0 571
0.02250000 0.02255340 72609.75952597 0 -1863.72693045 0 22897.89989471 0 4518.41645664 0 -7855.81445883 0 510
0.02350000 0.02348930 74504.67719544 0 711.67699942 0 10675.54805877 0 3330.87640287 0 -8462.11282125 0 555
0.02450000 0.02439640 73350.71950284 0 4992.66627328 0 28629.59956033 0 2534.94233328 0 2970.89297836 0 592
0.02550000 0.02547300 68704.99345543 0 7836.00606973 0 14815.32422359 0 978.22661094 0 8018.37833182 0 837
0.02650000 0.02652900 68089.37219551 0 1129.72037357 0 24486.11416669 0 2209.80351498 0 18131.92839977 0 723
0.02750000 0.02749970 62923.91122112 0 2806.50217178 0 14552.24578590 0 2569.84230111 0 -2680.58769394 0 826
0.02850000 0.02848090 63206.03405750 0 2911.46781106 0 31257.17296304 0 5894.63999765 0 13165.65854886 0 831
0.02950000 0.02946900 58851.51015282 0 5534.16939086 0 17201.74239175 0 2996.41468707 0 10492.87684391 0 996
0.03050000 0.03053250 55834.63380948 0 -2313.62870481 0 18609.14559945 0 7044.62272564 0 11089.59764536 0 1041
0.03150000 0.03150510 59200.28838461 0 -2020.85429195 0 18153.51943316 0 5287.64407877 0 9785.74281937 0 1036
0.03250000 0.03246190 61500.01024944 0 358.53405719 0 18708.24290658 0 1360.12438072 0 -1431.58516510 0 1059
0.03350000 0.03345080 57433.58823654 0 1961.61735417 0 19371.03227022 0 -4920.58543871 0 5912.35571736 0 1302
0.03450000 0.03451200 56241.09885358 0 5959.46845946 0 22863.02207153 0 -1941.53215695 0 9495.61469215 0 1339
0.03550000 0.03553350 52386.04752147 0 4049.44813895 0 22868.77968043 0 -2180.39542026 0 13547.43230861 0 1365
0.03650000 0.03647120 51752.04620235 0 1571.51720616 0 24394.32459395 0 4264.78271202 0 10777.98920799 0 1308
0.03750000 0.03744890 48037.17050245 0 1240.99723800 0 22075.22616068 0 6870.00109093 0 12368.00826892 0 1579
0.03850000 0.03847530 48504.31188655 0 1331.96745871 0 22712.32773074 0 4156.87183434 0 4071.01702770 0 1662
0.03950000 0.03950240 45636.80120501 0 2084.57552128 0 19207.16186291 0 4486.92676486 0 438.34448171 0 1683
0.04050000 0.04050350 43936.20283612 0 2357.86264246 0 21548.62639230 0 -3536.75521055 0 3089.82081924 0 1822
0.04150000 0.04152450 42081.25625925 0 2304.70441100 0 22131.47357076 0 -3428.53430777 0 3047.45810449 0 1887
0.04250000 0.04250150 43099.35652633 0 1203.28489967 0 25225.52401808 0 345.37902807 0 491.29787516 0 1920
0.04350000 0.04349210 39408.61849453 0 1178.59361532 0 23903.26698824 0 1575.51431542 0 3064.01123009 0 2005
0.04450000 0.04448520 41760.82317900 0 928.57609199 0 23327.28465117 0 5372.52452083 0 -674.20825223 0 2151
0.04550000 0.04548030 38687.25653259 0 -43.28404290 0 21662.11772170 0 2307.50570918 0 -1384.77137577 0 2274
0.04650000 0.04648670 40372.02147700 0 754.69630303 0 19175.05212093 0 4261.36136365 0 -2148.87251150 0 2311
0.04750000 0.04749250 38453.18758592 0 419.98435270 0 18030.28445793 0 922.37337562 0 -439.94886158 0 2568
0.04850000 0.04851840 37788.84809681 0 -163.81393846 0 14748.22593519 0 1549.63829232 0 -2223.31175126 0 2493
0.04950000 0.04949480 37790.84111527 0 189.14409595 0 15804.85789263 0 2951.93715828 0 -1040.85500181 0 2644
0.05050000 0.05050630 38051.59436475 0 435.67605143 0 14860.94220184 0 1707.15318519 0 -984.83125269 0 2829
0.05150000 0.05149060 36835.74237642 0 1497.37691917 0 16474.29065117 0 1185.73526483 0 -1220.95633008 0 2784
0.05250000 0.05249300 36269.50368519 0 1476.49451457 0 14650.56803029 0 1508.44924399 0 1048.56576881 0 3055
0.05350000 0.05348950 35593.53825501 0 304.13240365 0 15964.07792352 0 1844.61609781 0 4217.92463339 0 3009
0.05450000 0.05448610 35373.97405386 0 127.78016457 0 14950.96020262 0 2222.17130180 0 3391.01019896 0 3336
0.05550000 0.05550870 36413.88680083 0 -334.20705233 0 16964.57319414 0 720.56143285 0 3262.28335062 0 3349
0.05650000 0.05647670 34861.43613800 0 1193.25337338 0 14505.18840542 0 1439.29150318 0 4079.80845360 0 3324
0.05750000 0.05747970 34831.54086099 0 1639.10267685 0 14444.17989567 0 862.64371939 0 4800.10747235 0 3639
0.05850000 0.05849280 33459.56909272 0 -159.41268934 0 11975.27290761 0 1203.48420151 0 5517.61626525 0 3846
0.05950000 0.05951020 33183.53603499 0 131.52593206 0 12471.09161299 0 2440.50647490 0 -29.73351034 0 3787
0.06050000 0.06049470 32912.26407693 0 109.88407669 0 10045.97566958 0 1293.29182812 0 951.34632798 0 3930
0.06150000 0.06148310 32797.11189882 0 50.35006843 0 10097.96023461 0 -891.25128502 0 236.56243422 0 4083
0.06250000 0.06249100 32567.80405182 0 -261.24596793 0 10682.47933411 0 -836.33366115 0 145.92438325 0 4303
0.06350000 0.06350600 32778.84256287 0 574.89282030 0 12307.11048242 0 -758.73327266 0 -1244.61788821 0 4470
0.06450000 0.06451750 32054.93396622 0 1192.25686415 0 11907.62100296 0 879.43932891 0 -576.72750453 0 4479
0.06550000 0.06550280 31589.78560059 0 1262.73221162 0 11609.99691184 0 103.90479984 0 -101.22485434 0 4636
0.06650000 0.06648880 30859.89794855 0 746.06985477 0 12512.50210781 0 2101.61582918 0 -143.29249164 0 4653
0.06750000 0.06749660 30264.31759655 0 255.94453881 0 12250.08800961 0 545.71613717 0 -1350.53574743 0 5220
0.06850000 0.06852730 30020.61572729 0 823.16423801 0 13111.29343400 0 643.49915935 0 -80.72090180 0 5029
0.06950000 0.06949320 29211.00733655 0 883.99891227 0 12373.98732433 0 -50.58989499 0 887.58634551 0 5040
0.07050000 0.07048030 28646.65094055 0 630.48142706 0 12477.51356138 0 337.83877487 0 1483.23756038 0 5475
0.07150000 0.07148790 28113.51850053 0 480.96407440 0 13212.93737584 0 1494.92993539 0 1694.58609652 0 5509
0.07250000 0.07249820 27839.03556827 0 636.45937523 0 12200.92688741 0 1172.88029571 0 1916.42012426 0 5916
0.07350000 0.07351270 27006.06457217 0 545.09497975 0 11584.75201125 0 2570.80559337 0 2652.32004868 0 5721
0.07450000 0.07449140 26588.19503351 0 -396.22535810 0 10461.96291302 0 1790.15133203 0 2593.99104154 0 6028
0.07550000 0.07549160 26959.22863818 0 -512.81804567 0 9660.43731940 0 2648.77690474 0 965.08708308 0 6183
0.07650000 0.07648840 27209.02028609 0 -36.98455442 0 8214.87888037 0 222.26695564 0 2170.49676187 0 6330
0.07750000 0.07749960 26312.38342228 0 868.47551287 0 6747.58546773 0 1560.45595367 0 2305.86700511 0 6583
0.07850000 0.07848650 26487.21543117 0 336.12810068 0 7059.20497743 0 445.39976708 0 2160.78633301 0 6549
0.07950000 0.07947320 25556.80797665 0 461.19111674 0 7184.46618810 0 -939.29299518 0 1656.67445634 0 6828
0.08050000 0.08048110 25517.39050030 0 766.93232919 0 7613.88416154 0 -278.60072985 0 2646.38528258 0 7147
0.08150000 0.08149960 24618.42844827 0 1070.70820399 0 8363.87915546 0 -589.24808943 0 1652.56662383 0 7386
0.08250000 0.08250610 23694.99655840 0 1017.16354839 0 8181.46260407 0 -776.93174573 0 2214.12172166 0 7227
0.08350000 0.08350160 23669.64093456 0 607.73997911 0 8311.49598674 0 281.52160914 0 945.86663442 0 7798
0.08450000 0.08449610 22685.08981169 0 495.51643091 0 8142.14477864 0 219.93623127 0 300.20283558 0 7371
0.08550000 0.08548940 22292.24372713 0 429.55305580 0 7016.23328481 0 1047.68109006 0 -184.38853244 0 8256
0.08650000 0.08650700 21532.57152132 0 56.42445655 0 6698.25826066 0 743.58633231 0 -1436.73379614 0 8037
0.08750000 0.08749060 21476.54555774 0 416.47442573 0 5575.01519711 0 152.15588766 0 -1461.73510558 0 8155
0.08850000 0.08849210 20962.12534666 0 740.73520867 0 5801.68783080 0 592.76908872 0 -591.78254458 0 8718
0.08950000 0.08949900 20384.14999113 0 295.52810004 0 5191.89061374 0 1233.94416709 0 -155.94372998 0 8571
0.09050000 0.09049190 19912.69040035 0 623.91553844 0 5653.89443912 0 563.53150781 0 724.85528042 0 8932
0.09150000 0.09150830 19717.59603705 0 564.48594221 0 6164.55005976 0 86.45238001 0 755.05061743 0 9285
0.09250000 0.09250820 19038.75180241 0 414.78921789 0 5833.46540303 0 159.51234027 0 1590.57267717 0 9204
0.09350000 0.09350330 18622.10021949 0 316.05176132 0 6943.16701333 0 392.23599947 0 1717.91548491 0 9349
0.09450000 0.09448040 18795.82499589 0 30.78527048 0 6674.87351065 0 148.56623995 0 2770.81606889 0 9564
0.09550000 0.09549270 18585.34010109 0 107.14832667 0 6871.23011898 0 829.98589734 0 2129.05305008 0 10155
0.09650000 0.09649430 18661.51769584 0 261.93245207 0 6570.01859461 0 -22.84497418 0 2835.92133883 0 9913
0.09750000 0.09749140 18327.02276307 0 431.69887235 0 6981.83157159 0 630.86231503 0 3333.26802503 0 10476
0.09850000 0.09850240 18289.81975168 0 217.67194084 0 6611.67268058 0 346.98451517 0 3440.83566064 0 10575
0.09950000 0.09950330 17800.20154820 0 359.45638184 0 6324.32370689 0 -309.19799226 0 2916.91539487 0 10882
0.10050000 0.10051200 17433.70759670 0 425.81836064 0 6923.95652977 0 -385.13753203 0 2579.04340303 0 10875
0.10150000 0.10150300 17270.28008238 0 508.69692638 0 6555.23704098 0 45.31249281 0 2368.74673775 0 11118
0.10250000 0.10250800 17013.40214659 0 264.88433387 0 6524.58884588 0 495.55518405 0 2520.19399662 0 11575
0.10350000 0.10349800 16686.99001093 0 294.67663826 0 5654.21553654 0 890.00343402 0 2359.60099745 0 11364
0.10450000 0.10450100 16528.10214979 0 -255.82938663 0 5429.63557224 0 563.91571748 0 1793.08549811 0 12093
0.10550000 0.10551000 16639.48973746 0 57.72235447 0 5103.36737681 0 204.40840294 0 1670.33770517 0 12067
0.10650000 0.10649700 16621.88474100 0 287.50509347 0 5306.55560956 0 -9.10366547 0 270.93646661 0 12054
0.10750000 0.10749900 16098.38522357 0 144.72303601 0 5458.82222046 0 -557.71853728 0 375.96964708 0 12807
0.10850000 0.10850100 15757.57906566 0 663.37287516 0 5782.46627491 0 -207.20084326 0 372.07661767 0 12736
0.10950000 0.10950300 15220.23914221 0 707.95448381 0 6139.10585732 0 -315.83917268 0 225.44692733 0 12933
0.11050000 0.11050200 15011.41509613 0 518.71627310 0 5708.61386837 0 96.53018862 0 136.02683209 0 13428
0.11150000 0.11150900 14627.09470167 0 -174.52087656 0 5900.34224493 0 62.04244344 0 115.74454749 0 13453
0.11250000 0.11250000 14845.88384009 0 -177.66098788 0 5754.35364220 0 359.86384340 0 16.41272853 0 13668
0.11350000 0.11349100 15133.87500862 0 -272.68589394 0 5905.33586343 0 236.43510248 0 -861.29843192 0 13791
0.11450000 0.11448600 15122.69196056 0 20.74588284 0 5287.37834297 0 479.04856221 0 225.03614408 0 14205
0.11550000 0.11549300 15788.13868216 0 1.10998949 0 5848.57912641 0 -13.29786211 0 -654.50505021 0 14776
0.11650000 0.11649800 15122.35979081 0 348.61768308 0 5903.27641101 0 36.74317774 0 -154.47553971 0 14553
0.11750000 0.11747300 15057.69741387 0 645.59404320 0 5828.37213361 0 88.89604210 0 112.84138392 0 14568
0.11850000 0.11849100 14584.57697437 0 317.61738805 0 6105.05845851 0 117.62573548 0 688.32325191 0 16015
0.11950000 0.11950300 14494.00535735 0 333.99778539 0 6222.98979015 0 644.07049131 0 630.14261392 0 15270
0.12050000 0.12050700 14016.23454143 0 185.61977496 0 5612.47287197 0 805.17171018 0 777.83303297 0 15999
0.12150000 0.12150000 14030.73928694 0 177.60451902 0 5160.40092195 0 382.40045333 0 1092.18629967 0 15670
0.12250000 0.12250700 13838.74517459 0 42.60752386 0 5145.18754765 0 391.07008366 0 1010.53344029 0 16887
0.12350000 0.12352200 13693.47627296 0 144.32443231 0 4813.16174332 0 389.61960911 0 914.55631430 0 16407
0.12450000 0.12449800 13590.72509865 0 381.47259251 0 4640.84315216 0 294.39207951 0 837.88821556 0 16306
0.12550000 0.12549900 13199.65058605 0 55.97580595 0 4345.80998504 0 440.55894667 0 819.82261038 0 17523
0.12650000 0.12650100 13055.48891691 0 75.81685841 0 4171.24371195 0 371.25394394 0 731.78212682 0 17154
0.12750000 0.12750600 13118.26899864 0 57.17383150 0 4037.80005324 0 627.11986924 0 904.25905222 0 18007
0.12850000 0.12850300 12985.73327056 0 69.65477748 0 3876.96346292 0 200.79771782 0 682.90999230 0 17496
0.12950000 0.12949900 13062.68592805 0 50.08665783 0 3520.36816981 0 277.27315811 0 741.50362801 0 18405
0.13050000 0.13049000 12846.00053135 0 136.13755534 0 3422.80991584 0 257.70060953 0 890.67109520 0 18100
0.13150000 0.13148800 12734.28077393 0 184.03311081 0 3414.28422573 0 0.57544311 0 785.59141098 0 19059
0.13250000 0.13249300 12475.52054291 0 312.47872210 0 3451.21042900 0 -119.00091822 0 1165.12966834 0 18957
0.13350000 0.13349100 12375.98034279 0 333.97453350 0 3555.22384834 0 -50.65145712 0 967.29933357 0 19468
0.13450000 0.13450700 12196.05506449 0 214.03800384 0 3759.69647077 0 -327.56587190 0 847.20889859 0 19953
0.13550000 0.13551000 12075.80961696 0 56.99634213 0 3978.09807782 0 78.19774042 0 1002.79167078 0 19956
0.13650000 0.13649900 11990.88488560 0 147.26302732 0 3547.75002909 0 206.07146613 0 931.13712072 0 19723
0.13750000 0.13749600 11873.07534953 0 44.02489216 0 3673.84166413 0 650.21784605 0 1141.63419508 0 20946
0.13850000 0.13851100 11882.92971862 0 4.09248627 0 3139.64628093 0 635.86146969 0 755.34292680 0 20955
0.13950000 0.13949800 11759.36257364 0 60.30929244 0 3089.42221555 0 590.46383070 0 837.32795592 0 20506
0.14050000 0.14048300 11704.00094955 0 196.57694760 0 2618.48302404 0 3.21632213 0 535.48752351 0 21447
0.14150000 0.14148400 11511.56394420 0 92.09561180 0 2769.86384896 0 -278.17001642 0 614.12317437 0 21771
0.14250000 0.14249400 11404.93745620 0 366.09645504 0 2664.03456834 0 -405.74645021 0 221.94585822 0 22470
0.14350000 0.14350900 11055.50595725 0 432.48168572 0 2940.64338696 0 -201.73443650 0 545.29760330 0 22519
0.14450000 0.14449900 10762.26650675 0 363.49224424 0 3159.67611652 0 229.65330353 0 477.32238677 0 22218
0.14550000 0.14550500 10514.39037103 0 97.37998955 0 2658.33232106 0 292.53746510 0 231.20785793 0 23559
0.14650000 0.14650700 10371.72346575 0 114.35386349 0 2577.32719269 0 523.94794658 0 359.39991299 0 23044
0.14750000 0.14750500 10424.08448981 0 103.32427785 0 2752.66852851 0 166.37496719 0 -7.41196925 0 23649
0.14850000 0.14849900 10152.65751921 0 131.36538335 0 2670.86619275 0 -66.34880273 0 454.88210606 0 23640
0.14950000 0.14949500 10049.95063419 0 403.64935189 0 2894.78181756 0 -189.01012082 0 752.34121954 0 24457
0.15050000 0.15050000 9838.19242204 0 206.67822953 0 2964.68140414 0 -254.78969533 0 773.07636223 0 24591
0.15150000 0.15149900 9794.85534270 0 9.57252306 0 3121.05584756 0 300.55936443 0 868.24410128 0 25020
0.15250000 0.15250500 9843.13067890 0 -69.61823881 0 3144.29665735 0 222.75192347 0 1125.00356320 0 25297
0.15350000 0.15350100 9899.30058271 0 -18.00160714 0 2989.68271358 0 398.25602247 0 1131.30371602 0 25452
0.15450000 0.15450400 9925.28732906 0 59.12200705 0 2611.45209778 0 157.26133663 0 709.90542744 0 26061
0.15550000 0.15549900 9832.08049874 0 132.36853597 0 2833.23076389 0 -173.39371389 0 1080.43302687 0 26128
0.15650000 0.15649500 9668.56440581 0 232.15897063 0 2695.86750219 0 -62.92667930 0 788.89096377 0 26331
0.15750000 0.15749700 9477.33428387 0 111.75186716 0 2628.93529867 0 21.49448272 0 819.98094463 0 27345
0.15850000 0.15849900 9389.89613478 0 85.66546989 0 2468.46409507 0 176.03778506 0 275.78614489 0 26980
0.15950000 0.15949700 9400.41484336 0 196.92129690 0 2513.79419288 0 -59.80373009 0 52.20512573 0 27777
0.16050000 0.16050000 9119.49889038 0 188.06343704 0 2591.73228728 0 -130.72761744 0 137.05545107 0 28224
0.16150000 0.16150500 9024.25475229 0 144.68096117 0 2630.44113484 0 -145.73172480 0 64.84429524 0 28075
0.16250000 0.16249700 8854.26134935 0 191.84795767 0 2663.69132627 0 47.55275629 0 68.14838769 0 28590
0.16350000 0.16349900 8869.88439967 0 77.09161517 0 2682.53642311 0 19.76919307 0 -405.90589169 0 29163
0.16450000 0.16449100 8576.67816615 0 240.50086015 0 2493.28824731 0 151.90233142 0 -254.90484751 0 28996
0.16550000 0.16550500 8521.91444759 0 168.82970160 0 2549.74603156 0 -0.51263867 0 -96.29002989 0 30777
0.16650000 0.16650700 8435.92677305 0 31.75686698 0 2575.09058307 0 343.68496237 0 190.05534828 0 29211
0.16750000 0.16749900 8400.78321408 0 22.35280934 0 2493.77542960 0 210.90564315 0 190.33990703 0 30922
0.16850000 0.16850800 8446.63371115 0 40.42195766 0 2481.64016160 0 261.43309022 0 666.61042294 0 30867
0.16950000 0.16949900 8491.56520527 0 37.70425554 0 2338.77395447 0 198.32083876 0 539.96184997 0 30852
0.17050000 0.17049200 8383.78719548 0 39.42677711 0 2238.61370416 0 106.03943334 0 1080.53489226 0 31257
0.17150000 0.17149500 8445.98044399 0 -2.10846960 0 2242.69939202 0 221.78198781 0 653.38342371 0 32608
0.17250000 0.17250900 8472.65367448 0 -35.79073636 0 2314.33733359 0 60.20953079 0 623.40510426 0 32361
0.17350000 0.17350400 8369.02778650 0 195.52618397 0 2121.08097621 0 -65.25983959 0 320.99001819 0 32508
0.17450000 0.17449800 8232.30671964 0 210.18372757 0 2240.62886728 0 -33.54438310 0 289.33202707 0 32791
0.17550000 0.17549800 8087.62465123 0 94.87952643 0 2210.98825374 0 -74.66766182 0 191.72394763 0 33633
0.17650000 0.17650100 7936.27704329 0 272.07691607 0 2157.14353814 0 72.43669909 0 -149.27265428 0 33984
0.17750000 0.17750300 7797.69582586 0 151.57680507 0 2035.22616957 0 85.23807815 0 186.40480279 0 34069
0.17850000 0.17849800 7733.25489541 0 7.62883180 0 1997.29238474 0 271.46129481 0 15.95333777 0 34536
