### header ###
fiducial parameters:
Omega_m = 0.31
Omega_nu = 0
Omega_de = 0.69
Omega_k = 0
H_0 = 100
w_de = -1
zeff = 0
beta = 0
fgrowth = 0
b_1 = 2
gamma = 0.55
Lx = 3500 Ly = 3500 Lz = 3500
nx = 700 ny = 700 nz = 700
xoffset = -685.467585 yoffset = -31.7331281 zoffset = 572.489161
bins = 400 dk = 0.001
kx_ny = 0.628318531 ky_ny = 0.628318531 kz_ny = 0.628318531
############################
A(data) = 8.03070574 (not used)
A(ran) = 8.031896 (used)
Ngal = 477059
weighted Ngal = 0
Nran = 23820508
weighted Nran = 0
SN(data) = 3481.77053
SN(ran) = 69.9607271
SN(data+ran) = 3551.73126
############################
13 columns: k_central k_mean P_0(k) sigma^{lin}_{P_0(k)} P^img_1(k) sigma^{lin}_{P_1(k)} P_2(k) sigma^{lin}_{P_2(k)} P^img_3(k) sigma^{lin}_{P_3(k)} P_4(k) sigma^{lin}_{P_4(k)} N_modes
### header ###
0.00050000 0 0 0 0 0 0 0 0 0 0 0 0
0.00150000 0.00179520 20231.01973889 0 -1095.07617645 0 30947.81220761 0 -321.40523037 0 -31382.51167999 0 3
0.00250000 0.00253879 40049.92754802 0 1862.66398727 0 24995.33038510 0 -28047.85961435 0 -13568.13755602 0 6
0.00350000 0.00331552 36037.31703374 0 1469.43037133 0 2706.50800635 0 -5483.17026274 0 58724.39986390 0 7
0.00450000 0.00420575 32468.48529820 0 2459.28513779 0 14600.41039886 0 -12871.57760168 0 22319.03875319 0 24
0.00550000 0.00557378 38954.65317696 0 -2777.18265566 0 31684.45397779 0 3245.40912759 0 -14735.38203840 0 45
0.00650000 0.00659388 45716.18977396 0 -13311.14889698 0 17279.13794223 0 18315.95043825 0 -16182.42416895 0 40
0.00750000 0.00754703 49617.96631681 0 -7991.01861719 0 -4914.17456264 0 27554.25537394 0 -1118.81413362 0 57
0.00850000 0.00846663 59955.42093724 0 -16448.60285759 0 -14308.76536314 0 -1168.56208904 0 -35221.39741786 0 75
0.00950000 0.00948925 59613.72899334 0 -7999.24535453 0 -17644.63538450 0 7052.76088438 0 -32520.63594809 0 112
0.01050000 0.01054430 75017.10438804 0 -9953.07886435 0 -44979.32655728 0 -19823.11529257 0 -36287.99446764 0 105
0.01150000 0.01145670 74959.30685249 0 -5741.66475796 0 -44732.63516032 0 -31992.26460775 0 -28890.79570280 0 144
0.01250000 0.01249090 78349.32054222 0 -3275.37083855 0 -29496.78404012 0 -36913.47009664 0 -18332.55892548 0 169
0.01350000 0.01339930 86073.81722870 0 -4256.03557542 0 -23500.45581134 0 -14663.74409682 0 -14378.74245599 0 180
0.01450000 0.01448870 90287.50116168 0 -1969.09117342 0 -14326.25963635 0 -19652.04787412 0 -7670.56339229 0 267
0.01550000 0.01550050 85964.20121299 0 5844.95847619 0 -2056.07535720 0 -12565.75999019 0 -10238.09157751 0 238
0.01650000 0.01653350 87319.56449404 0 7204.40744510 0 18928.25000072 0 -6010.73332338 0 -2956.68718562 0 315
0.01750000 0.01747870 77533.51164958 0 12206.24160332 0 16988.71086224 0 -533.42585663 0 -1495.81572138 0 297
0.01850000 0.01844180 72253.89500630 0 4979.55664069 0 20533.29420644 0 6158.18347299 0 11457.19882934 0 388
0.01950000 0.01947590 70146.16725383 0 944.83358652 0 22120.40124594 0 13966.63052624 0 9405.81813787 0 399
0.02050000 0.02045430 64872.41894270 0 1281.82089961 0 14468.31756377 0 4543.72779118 0 1421.23254140 0 462
0.02150000 0.02154770 67801.15958048 0 -1139.43080244 0 5971.76981234 0 15782.93468949 0 -5150.07044290 0 571
0.02250000 0.02255340 63411.97929912 0 1820.52271901 0 -3823.25161523 0 -4148.49008445 0 3125.65086235 0 510
0.02350000 0.02348930 64378.03963955 0 -2535.83919159 0 -3570.31542707 0 1098.34472673 0 -6150.02316959 0 555
0.02450000 0.02439640 60675.78638994 0 2319.89564065 0 1884.85292620 0 -2837.00642666 0 -23.32639887 0 592
0.02550000 0.02547300 65642.38841059 0 -1627.04491513 0 1819.98017509 0 -12677.70119410 0 -18291.70204690 0 837
0.02650000 0.02652900 63815.23336902 0 661.26913345 0 10583.86920927 0 -9669.11802205 0 -4469.60964884 0 723
0.02750000 0.02749970 66960.77012675 0 7449.70372913 0 17543.98795190 0 -8065.60179717 0 -4669.68655832 0 826
0.02850000 0.02848090 65636.18790869 0 1632.02746129 0 25734.96168299 0 -3201.04232205 0 6108.90055522 0 831
0.02950000 0.02946900 63599.87665130 0 -1683.32554218 0 23822.88191005 0 9427.39809894 0 6329.10695121 0 996
0.03050000 0.03053250 65284.53087245 0 414.04847936 0 30869.64159439 0 8920.04203110 0 5155.68411158 0 1041
0.03150000 0.03150510 64814.95357690 0 5110.87441304 0 29101.50204410 0 6533.87852641 0 6425.94550407 0 1036
0.03250000 0.03246190 60240.42257807 0 1861.93321383 0 25024.22915288 0 1116.28964357 0 11775.63889113 0 1059
0.03350000 0.03345080 58824.05078727 0 1236.45758482 0 27596.44093150 0 -1321.14979736 0 11096.35176350 0 1302
0.03450000 0.03451200 57607.20228970 0 2715.41015550 0 27718.01505801 0 -1571.87152055 0 3099.68626066 0 1339
0.03550000 0.03553350 54061.06882003 0 4111.50851956 0 30728.02655996 0 -1130.73902745 0 2889.88784999 0 1365
0.03650000 0.03647120 52199.36812503 0 6188.72094483 0 30644.54123082 0 -3088.92396093 0 3794.59643860 0 1308
0.03750000 0.03744890 48482.94229965 0 1237.24371989 0 29125.41826570 0 5078.15569320 0 3736.66603515 0 1579
0.03850000 0.03847530 47180.61545448 0 -27.54274016 0 28506.69675484 0 4395.73509765 0 1648.42557435 0 1662
0.03950000 0.03950240 48859.29062023 0 1006.17537324 0 28030.80823413 0 3852.17252766 0 -1381.63790785 0 1683
0.04050000 0.04050350 46467.55773616 0 -422.86426438 0 24865.78418472 0 4470.50650715 0 -96.52841705 0 1822
0.04150000 0.04152450 46475.19764028 0 -62.57756890 0 21632.44389118 0 94.01699233 0 540.61068820 0 1887
0.04250000 0.04250150 46367.35319655 0 -146.39384982 0 17760.78407185 0 3724.17645275 0 -782.73032224 0 1920
0.04350000 0.04349210 45132.01391653 0 72.43116293 0 17471.68567083 0 4961.79663168 0 -5842.11288871 0 2005
0.04450000 0.04448520 44477.30735001 0 3536.47840243 0 13767.21795626 0 2954.22912951 0 -4023.58318817 0 2151
0.04550000 0.04548030 40803.28852868 0 1871.35576225 0 10854.65398504 0 1828.32870800 0 -6398.34219830 0 2274
0.04650000 0.04648670 40613.50888129 0 380.21699088 0 9526.45111677 0 2452.90747870 0 -899.41048118 0 2311
0.04750000 0.04749250 41558.53180456 0 -1899.20265917 0 10286.49978162 0 1365.22872246 0 -2419.30297287 0 2568
0.04850000 0.04851840 42324.18306577 0 -415.63292904 0 12620.01438180 0 270.19904978 0 -2607.27783132 0 2493
0.04950000 0.04949480 42923.08511521 0 692.94926922 0 11726.92066192 0 -3451.87476849 0 137.75522200 0 2644
0.05050000 0.05050630 42328.27982595 0 1978.02653955 0 16448.93502733 0 -2893.94032088 0 682.80480522 0 2829
0.05150000 0.05149060 41628.84106716 0 2065.85222001 0 18979.51486463 0 -2820.74118150 0 5388.59046414 0 2784
0.05250000 0.05249300 40241.03587439 0 1376.12389009 0 20899.56671144 0 1372.31501035 0 3380.65757525 0 3055
0.05350000 0.05348950 39028.28413701 0 904.61115215 0 20458.66673716 0 4768.25239385 0 5614.41052882 0 3009
0.05450000 0.05448610 38832.19326447 0 240.80756355 0 20198.35638067 0 1080.20050805 0 2401.17757715 0 3336
0.05550000 0.05550870 38830.53241574 0 24.70512475 0 19130.54137516 0 201.83851635 0 3355.46803629 0 3349
0.05650000 0.05647670 37232.79594441 0 2461.68783228 0 20286.93497922 0 -397.99139391 0 3866.06829530 0 3324
0.05750000 0.05747970 36095.22529255 0 1344.32417321 0 19117.47603187 0 -196.38982531 0 4490.64706600 0 3639
0.05850000 0.05849280 35458.89878522 0 300.52061130 0 19014.39268781 0 2087.45432573 0 706.94579502 0 3846
0.05950000 0.05951020 35354.59748543 0 447.48468585 0 17599.57102249 0 2878.45013845 0 -610.04412991 0 3787
0.06050000 0.06049470 34144.83527574 0 564.76939372 0 16005.70986484 0 2947.40857742 0 -2791.99742627 0 3930
0.06150000 0.06148310 34913.58678790 0 -793.70299614 0 15019.94078624 0 2599.49398697 0 -1180.66414006 0 4083
0.06250000 0.06249100 34001.00577635 0 -276.99967169 0 14656.10419270 0 933.71254347 0 -5742.14086792 0 4303
0.06350000 0.06350600 34653.16570817 0 1591.19272736 0 14372.76340059 0 -899.38944376 0 -3900.65823804 0 4470
0.06450000 0.06451750 32556.39955726 0 953.97600512 0 13839.07734433 0 -348.65422175 0 -1065.98807192 0 4479
0.06550000 0.06550280 32408.80546743 0 78.74759207 0 13515.76545963 0 3185.88430937 0 -145.72951033 0 4636
0.06650000 0.06648880 32203.19239554 0 -339.54834182 0 13021.60760297 0 3264.14350119 0 3669.95527811 0 4653
0.06750000 0.06749660 32459.51671510 0 915.13539689 0 11662.14756174 0 2737.53266049 0 1633.52222514 0 5220
0.06850000 0.06852730 31409.08525955 0 1194.11701472 0 10368.26890040 0 1438.23963232 0 5679.49365410 0 5029
0.06950000 0.06949320 30269.63231246 0 1178.51610905 0 11240.95632563 0 616.47161446 0 7445.77305382 0 5040
0.07050000 0.07048030 29518.59652001 0 897.71309379 0 9811.07629855 0 -576.88251707 0 3125.42941586 0 5475
0.07150000 0.07148790 28662.92725803 0 700.73643526 0 10857.70994669 0 995.77070961 0 5729.03123534 0 5509
0.07250000 0.07249820 28083.73394677 0 725.71006389 0 10274.91812986 0 1269.43096813 0 1616.40441097 0 5916
0.07350000 0.07351270 27598.98756621 0 -129.28378628 0 8938.63246447 0 500.38825383 0 2541.80717467 0 5721
0.07450000 0.07449140 27101.72945860 0 741.60770787 0 9982.50910372 0 63.80593262 0 293.90600445 0 6028
0.07550000 0.07549160 26585.75912205 0 585.46356881 0 8562.78239850 0 222.01450664 0 1109.66839332 0 6183
0.07650000 0.07648840 26131.01874175 0 -5.54607214 0 9623.56647775 0 791.92367354 0 1231.46396633 0 6330
0.07750000 0.07749960 26366.08419765 0 -138.42509765 0 8479.20849077 0 1233.68950362 0 2484.95078672 0 6583
0.07850000 0.07848650 26208.41429223 0 63.51583771 0 8415.15509169 0 2454.24723000 0 2482.29342877 0 6549
0.07950000 0.07947320 26262.44723735 0 83.75936917 0 7257.65425515 0 1164.42103955 0 843.46756003 0 6828
0.08050000 0.08048110 25830.29439968 0 707.32889746 0 7477.77207255 0 -326.95357234 0 1949.02812085 0 7147
0.08150000 0.08149960 25600.65438294 0 1080.40423883 0 7019.22281251 0 -1578.04987780 0 1080.65668783 0 7386
0.08250000 0.08250610 24129.58530753 0 623.22905430 0 8205.40097033 0 -564.56677018 0 3009.32501781 0 7227
0.08350000 0.08350160 24063.81569811 0 396.70811146 0 7968.90718453 0 -162.78089055 0 1160.88896794 0 7798
0.08450000 0.08449610 24529.73912648 0 -110.01783037 0 7239.26312363 0 385.39662443 0 -745.07334553 0 7371
0.08550000 0.08548940 23933.27298850 0 424.25494838 0 8019.71808312 0 -510.60690241 0 -961.24166467 0 8256
0.08650000 0.08650700 23627.45537701 0 614.46641644 0 7394.06529692 0 -1187.36289658 0 -2330.08217949 0 8037
0.08750000 0.08749060 22678.33569355 0 767.68303281 0 9361.27417512 0 -900.78677116 0 -2242.90976619 0 8155
0.08850000 0.08849210 22280.72850931 0 1154.62203209 0 9235.83580725 0 -618.91749102 0 -3490.86042417 0 8718
0.08950000 0.08949900 21604.76307914 0 792.15176343 0 9989.44037906 0 -276.82805065 0 -2643.75006927 0 8571
0.09050000 0.09049190 20746.54718244 0 643.60213197 0 9039.19131847 0 908.02253542 0 -1482.29641277 0 8932
0.09150000 0.09150830 20773.56365500 0 682.99635644 0 9860.50315654 0 856.44211026 0 -1386.93047911 0 9285
0.09250000 0.09250820 19767.20005223 0 404.75104821 0 8861.03761214 0 2036.31125740 0 -114.29960910 0 9204
0.09350000 0.09350330 19471.79042607 0 424.82185141 0 7853.66642781 0 1171.83949718 0 58.92104435 0 9349
0.09450000 0.09448040 19230.74591477 0 195.72770028 0 8810.66960654 0 591.55113299 0 1255.71235768 0 9564
0.09550000 0.09549270 19251.67260868 0 160.32615614 0 8074.44858470 0 920.63280616 0 311.00056674 0 10155
0.09650000 0.09649430 18672.81146716 0 -12.30799627 0 8076.38624154 0 180.61840584 0 1677.22469120 0 9913
0.09750000 0.09749140 18937.55075357 0 226.31942653 0 7364.00393503 0 -228.33237518 0 81.30109162 0 10476
0.09850000 0.09850240 19033.43708650 0 -111.79615646 0 7211.11727394 0 12.64426277 0 102.25801297 0 10575
0.09950000 0.09950330 19124.89448950 0 179.09263948 0 7257.11171124 0 128.29945660 0 151.65984751 0 10882
0.10050000 0.10051200 18837.67838371 0 331.27842241 0 7465.40428572 0 76.73054665 0 -318.67811677 0 10875
0.10150000 0.10150300 18425.67717721 0 567.94161478 0 7608.12655264 0 397.30933870 0 -166.88540136 0 11118
0.10250000 0.10250800 17405.91606141 0 879.82021688 0 7624.54681034 0 373.52930669 0 -211.92651149 0 11575
0.10350000 0.10349800 16884.18811595 0 763.30614281 0 7618.42381472 0 525.23012179 0 41.44105444 0 11364
0.10450000 0.10450100 16205.01171158 0 717.95611482 0 7407.66211179 0 722.22006711 0 602.80947287 0 12093
0.10550000 0.10551000 15724.47281445 0 476.95367835 0 6858.06512477 0 584.11053072 0 705.27719567 0 12067
0.10650000 0.10649700 15300.84566689 0 -113.64080578 0 6246.61813131 0 753.50934981 0 952.33397935 0 12054
0.10750000 0.10749900 15895.87240264 0 -173.59523020 0 6192.64054782 0 658.48444375 0 1309.75637512 0 12807
0.10850000 0.10850100 15711.62891766 0 -140.86765251 0 5381.83634600 0 154.00939483 0 507.72034733 0 12736
0.10950000 0.10950300 15679.29772919 0 225.92746623 0 5511.77007775 0 726.76414921 0 1344.15808833 0 12933
0.11050000 0.11050200 15601.68073221 0 73.29015389 0 4901.37495515 0 142.91271090 0 1298.07507244 0 13428
0.11150000 0.11150900 15570.01388323 0 -0.74850798 0 4917.83950215 0 813.46045254 0 943.77950119 0 13453
0.11250000 0.11250000 15507.56597125 0 -102.42985545 0 5024.43277318 0 426.55909917 0 1065.24290445 0 13668
0.11350000 0.11349100 15411.12602208 0 -39.41459755 0 4669.16615905 0 753.75183373 0 1167.10054216 0 13791
0.11450000 0.11448600 15700.66731609 0 -56.31428692 0 4475.63299354 0 -137.91466348 0 935.13422998 0 14205
0.11550000 0.11549300 15280.69403572 0 609.77728688 0 4836.21432359 0 -662.12059523 0 463.27271381 0 14776
0.11650000 0.11649800 14930.36567846 0 490.54052814 0 4554.23542743 0 -358.11220161 0 877.45406107 0 14553
0.11750000 0.11747300 14626.98397842 0 195.87053327 0 4630.22479266 0 -195.98568545 0 185.42490204 0 14568
0.11850000 0.11849100 14437.86867052 0 129.20517277 0 4806.93909677 0 40.08746273 0 -523.34007595 0 16015
0.11950000 0.11950300 14354.16189489 0 189.50505374 0 4619.71715641 0 621.53055967 0 -989.31665148 0 15270
0.12050000 0.12050700 13953.34373646 0 509.36348033 0 4200.62966202 0 45.91205920 0 -712.78644636 0 15999
0.12150000 0.12150000 13640.66128358 0 448.70817774 0 3703.55978394 0 274.12529616 0 -451.75085260 0 15670
0.12250000 0.12250700 13204.85457872 0 23.77338862 0 3961.88819428 0 487.04610243 0 -1075.15042070 0 16887
0.12350000 0.12352200 13166.21216510 0 -48.23569729 0 3312.27489717 0 506.13589764 0 -611.81791634 0 16407
0.12450000 0.12449800 13248.14736876 0 154.90625314 0 3210.16591770 0 676.68623852 0 -718.48869364 0 16306
0.12550000 0.12549900 13145.28547119 0 105.37575819 0 3151.23900501 0 168.63593592 0 -139.09275884 0 17523
0.12650000 0.12650100 13044.52731534 0 219.51437569 0 2963.33058051 0 324.40915209 0 -196.31674796 0 17154
0.12750000 0.12750600 12843.56461989 0 228.94799644 0 3187.60051972 0 53.95300293 0 -63.10084697 0 18007
0.12850000 0.12850300 12695.74908356 0 225.85217442 0 3171.98854172 0 71.94143400 0 -10.12972673 0 17496
0.12950000 0.12949900 12409.52948699 0 152.23117947 0 3494.73573786 0 -98.84076136 0 429.79664695 0 18405
0.13050000 0.13049000 12648.69170308 0 -16.92238764 0 3226.14328241 0 -218.61641015 0 441.63296218 0 18100
0.13150000 0.13148800 12557.23430007 0 64.81063537 0 3520.22422959 0 -36.79366754 0 438.82391338 0 19059
0.13250000 0.13249300 12445.73598915 0 263.35524581 0 3891.30212356 0 -573.40027092 0 534.63716896 0 18957
0.13350000 0.13349100 12426.47014397 0 369.03172835 0 4335.26913182 0 -161.02149814 0 714.90458210 0 19468
0.13450000 0.13450700 12147.22611204 0 17.57089370 0 4522.12568546 0 302.83694165 0 766.15726645 0 19953
0.13550000 0.13551000 12289.61620921 0 -40.14858196 0 4297.35749164 0 434.99621069 0 321.81158469 0 19956
0.13650000 0.13649900 12187.30792788 0 51.65449902 0 4157.79083730 0 685.85965964 0 735.07503622 0 19723
0.13750000 0.13749600 12104.37621499 0 161.78438132 0 3711.27719434 0 557.23799838 0 912.96854292 0 20946
0.13850000 0.13851100 11854.58456708 0 186.16342611 0 3601.37329819 0 467.64074595 0 894.31056837 0 20955
0.13950000 0.13949800 11653.95404137 0 366.89476966 0 3405.85818654 0 311.78005841 0 1130.35149609 0 20506
0.14050000 0.14048300 11276.27704181 0 295.27232933 0 3161.85736451 0 251.30855641 0 1022.30996497 0 21447
0.14150000 0.14148400 11184.04457607 0 77.40573702 0 3032.46617668 0 -0.75811654 0 817.37341213 0 21771
0.14250000 0.14249400 11164.55728439 0 34.25533708 0 3173.32829302 0 99.51661607 0 652.28615632 0 22470
0.14350000 0.14350900 11050.21338598 0 91.59713574 0 3044.00353914 0 -24.40340390 0 854.55095718 0 22519
0.14450000 0.14449900 11143.74131373 0 128.69030967 0 3017.19744076 0 -166.15794962 0 137.25143122 0 22218
0.14550000 0.14550500 10886.09938752 0 179.02399106 0 3231.49121530 0 -100.12437598 0 413.77942187 0 23559
0.14650000 0.14650700 10669.44720780 0 297.64845024 0 3119.32856488 0 85.88902013 0 216.97438438 0 23044
0.14750000 0.14750500 10455.57418160 0 186.78790523 0 3085.95657788 0 -32.07940380 0 -23.77405296 0 23649
0.14850000 0.14849900 10420.78493702 0 156.65789493 0 3081.20655053 0 155.50305145 0 159.89544271 0 23640
0.14950000 0.14949500 10267.44431060 0 112.55571794 0 3106.87219946 0 222.34335468 0 169.98786678 0 24457
0.15050000 0.15050000 10175.82082273 0 325.64925247 0 3174.72340595 0 -313.26596440 0 322.49031820 0 24591
0.15150000 0.15149900 9899.34487201 0 359.88488081 0 3283.78580541 0 -179.72044029 0 497.10752399 0 25020
0.15250000 0.15250500 9830.57466256 0 109.46775728 0 3474.65054064 0 -97.20881141 0 510.81727658 0 25297
0.15350000 0.15350100 9689.57967832 0 49.43693381 0 3592.46007671 0 171.96981292 0 728.45821491 0 25452
0.15450000 0.15450400 9761.08475200 0 -13.15558273 0 3451.47616479 0 98.60857471 0 396.13456504 0 26061
0.15550000 0.15549900 9693.43284736 0 125.22467200 0 3513.48118378 0 220.55295976 0 751.35578264 0 26128
0.15650000 0.15649500 9664.96590025 0 69.43100579 0 3090.88376242 0 142.89831688 0 689.50356173 0 26331
0.15750000 0.15749700 9558.43906317 0 -26.67932027 0 3199.14895450 0 396.82437087 0 678.93945662 0 27345
0.15850000 0.15849900 9512.62178307 0 144.58906088 0 2972.88599683 0 240.55068562 0 373.00890742 0 26980
0.15950000 0.15949700 9352.92564221 0 221.26823194 0 2814.73998145 0 29.03274291 0 546.23432198 0 27777
0.16050000 0.16050000 9062.65357476 0 188.55504827 0 2584.51313149 0 187.06803504 0 384.11666368 0 28224
0.16150000 0.16150500 8993.77264207 0 100.43085793 0 2358.32768010 0 242.29236231 0 229.98104434 0 28075
0.16250000 0.16249700 8822.02981180 0 174.16324047 0 2359.55670815 0 -2.89411748 0 437.37343882 0 28590
0.16350000 0.16349900 8859.91930733 0 133.43922978 0 2225.24940810 0 188.14426502 0 -158.18033959 0 29163
0.16450000 0.16449100 8586.84256033 0 32.12601829 0 2257.07126963 0 31.50430725 0 553.29514351 0 28996
0.16550000 0.16550500 8690.53488226 0 104.59493785 0 2266.82598780 0 12.81222994 0 -82.08157979 0 30777
0.16650000 0.16650700 8591.64794930 0 84.95462664 0 2347.70932060 0 -135.94600412 0 204.76382457 0 29211
0.16750000 0.16749900 8505.69349174 0 237.81914308 0 2645.24483312 0 -18.32281528 0 75.18429649 0 30922
0.16850000 0.16850800 8296.26046779 0 280.38448138 0 2487.85173583 0 -58.77455750 0 371.93378468 0 30867
0.16950000 0.16949900 8182.82450002 0 23.06896731 0 2425.20452200 0 347.66657038 0 579.01836853 0 30852
0.17050000 0.17049200 8205.95458657 0 -3.12250632 0 2479.79108336 0 9.45935283 0 703.65067115 0 31257
0.17150000 0.17149500 8288.06694742 0 -29.74513629 0 2395.59712544 0 261.05773841 0 257.00083860 0 32608
0.17250000 0.17250900 8222.50771217 0 69.28119724 0 2583.12909089 0 -205.62414421 0 408.62968359 0 32361
0.17350000 0.17350400 8048.27360883 0 300.99229234 0 2533.25933991 0 -290.70610258 0 306.62478397 0 32508
0.17450000 0.17449800 8028.63130460 0 159.82457983 0 2690.96246230 0 34.06622177 0 455.14119846 0 32791
0.17550000 0.17549800 7737.42916187 0 38.77760670 0 2421.56172714 0 427.55339394 0 808.24428032 0 33633
0.17650000 0.17650100 8016.35209638 0 -112.85909964 0 2262.16453905 0 556.23484575 0 512.02083829 0 33984
0.17750000 0.17750300 7924.23035388 0 -108.50413285 0 2192.49747129 0 397.98253605 0 572.32625541 0 34069
0.17850000 0.17849800 7949.16522938 0 146.65847839 0 1916.71907703 0 228.34676920 0 412.28687248 0 34536
