### header ###
fiducial parameters:
Omega_m = 0.31
Omega_nu = 0
Omega_de = 0.69
Omega_k = 0
H_0 = 100
w_de = -1
zeff = 0
beta = 0
fgrowth = 0
b_1 = 2
gamma = 0.55
Lx = 3500 Ly = 3500 Lz = 3500
nx = 700 ny = 700 nz = 700
xoffset = -685.467585 yoffset = -31.7331281 zoffset = 572.489161
bins = 400 dk = 0.001
kx_ny = 0.628318531 ky_ny = 0.628318531 kz_ny = 0.628318531
############################
A(data) = 7.98112463 (not used)
A(ran) = 7.97587731 (used)
Ngal = 474979
weighted Ngal = 0
Nran = 23820508
weighted Nran = 0
SN(data) = 3489.8828
SN(ran) = 69.472784
SN(data+ran) = 3559.35558
############################
13 columns: k_central k_mean P_0(k) sigma^{lin}_{P_0(k)} P^img_1(k) sigma^{lin}_{P_1(k)} P_2(k) sigma^{lin}_{P_2(k)} P^img_3(k) sigma^{lin}_{P_3(k)} P_4(k) sigma^{lin}_{P_4(k)} N_modes
### header ###
0.00050000 0 0 0 0 0 0 0 0 0 0 0 0
0.00150000 0.00179520 36959.75241439 0 -43559.41162254 0 -24169.00278389 0 74206.83165782 0 -56664.72600114 0 3
0.00250000 0.00253879 52991.59296580 0 -25809.14625927 0 5081.38881205 0 -18069.81265753 0 40904.26813103 0 6
0.00350000 0.00331552 61811.58546984 0 -10613.38802724 0 -1786.36459694 0 -94426.88979513 0 -18286.60877748 0 7
0.00450000 0.00420575 53513.76380425 0 5528.35642033 0 -21034.20618123 0 -24750.52128336 0 30170.31355884 0 24
0.00550000 0.00557378 46086.44831590 0 1733.36137803 0 -13555.07221273 0 -38215.02187908 0 -2127.13753788 0 45
0.00650000 0.00659388 39743.11342730 0 441.56099207 0 -21400.14651649 0 -11608.44678637 0 14072.70339800 0 40
0.00750000 0.00754703 67461.23920855 0 -26063.58828360 0 -5612.89362032 0 -22376.61484224 0 -31910.10795759 0 57
0.00850000 0.00846663 51682.84417224 0 -9347.88773442 0 -11451.99483668 0 -13047.07395005 0 -13854.24642933 0 75
0.00950000 0.00948925 91015.06362551 0 -1801.44510334 0 -1167.75380932 0 -19095.88499848 0 -25774.15771284 0 112
0.01050000 0.01054430 72563.03431524 0 -10319.21850146 0 -31265.80937640 0 -4150.41666897 0 -18282.73346380 0 105
0.01150000 0.01145670 85514.00048587 0 -3562.33228088 0 2975.78694593 0 -12985.06893107 0 -32967.73642427 0 144
0.01250000 0.01249090 80555.37053908 0 5239.68983998 0 -9269.41816843 0 -22168.23368916 0 -29982.08403692 0 169
0.01350000 0.01339930 77659.95759901 0 10938.70400273 0 18730.83044921 0 -12208.23462179 0 -25638.85390356 0 180
0.01450000 0.01448870 64768.11764291 0 7196.35786496 0 616.24463180 0 -3521.89615064 0 -5513.45307112 0 267
0.01550000 0.01550050 67216.54083006 0 -227.97473909 0 11195.00617764 0 4389.06955811 0 -9744.28803525 0 238
0.01650000 0.01653350 69824.40549460 0 -2489.77832034 0 11321.00923407 0 1486.71427037 0 -13825.01549181 0 315
0.01750000 0.01747870 79572.48026493 0 5359.47024987 0 19944.57869583 0 -6827.51658060 0 -4329.50045059 0 297
0.01850000 0.01844180 68745.85033401 0 -543.97113878 0 19482.53058115 0 -9458.86564607 0 -5118.69147436 0 388
0.01950000 0.01947590 73682.77852415 0 5539.18515400 0 29951.19225068 0 -5505.27062308 0 8379.17003603 0 399
0.02050000 0.02045430 68891.22995888 0 4567.88760393 0 40157.43982201 0 3321.16597400 0 9933.18189665 0 462
0.02150000 0.02154770 69888.18208555 0 610.02973588 0 38111.93853501 0 14778.23193545 0 5010.81381365 0 571
0.02250000 0.02255340 70568.24427591 0 -2025.01748608 0 29822.31038979 0 14935.90184086 0 7153.80692068 0 510
0.02350000 0.02348930 69379.96237638 0 -4257.14280790 0 29510.62444615 0 2718.58791272 0 2355.86962399 0 555
0.02450000 0.02439640 75113.10144422 0 2188.95432735 0 35191.83431059 0 9020.16906443 0 13366.51052107 0 592
0.02550000 0.02547300 71745.01095764 0 5811.38718734 0 27284.09064836 0 7014.19597704 0 10672.63603734 0 837
0.02650000 0.02652900 63649.14849674 0 5331.54584667 0 21698.98856334 0 9351.60803555 0 12561.99539975 0 723
0.02750000 0.02749970 63401.23914405 0 -321.40855207 0 26845.84803204 0 8095.62994208 0 11581.31959056 0 826
0.02850000 0.02848090 59419.63113927 0 -555.82516973 0 21348.77092933 0 7864.41765521 0 15316.56836813 0 831
0.02950000 0.02946900 61393.82665443 0 3139.81236580 0 24520.32765038 0 6121.52300551 0 13347.13395264 0 996
0.03050000 0.03053250 57546.63667294 0 1292.06280006 0 19585.39247871 0 3024.99235743 0 17255.11099738 0 1041
0.03150000 0.03150510 57893.53260951 0 2708.06920414 0 20773.01003876 0 -3822.65370969 0 23633.87732540 0 1036
0.03250000 0.03246190 55312.68441753 0 4101.62093349 0 20057.29496248 0 3034.94637744 0 15931.41456531 0 1059
0.03350000 0.03345080 52128.50524619 0 1622.84850402 0 21447.53606671 0 941.24061711 0 13513.99388765 0 1302
0.03450000 0.03451200 50394.02556335 0 1563.44548137 0 19494.15652221 0 4374.04441333 0 12689.77002815 0 1339
0.03550000 0.03553350 47898.21282597 0 1148.06721580 0 20241.75989396 0 4609.27595410 0 3538.89216924 0 1365
0.03650000 0.03647120 47969.74004430 0 1065.84191723 0 15391.19583741 0 2486.16874245 0 6084.20927087 0 1308
0.03750000 0.03744890 46265.81997796 0 -355.84348225 0 13748.28428082 0 1952.69306037 0 513.15464435 0 1579
0.03850000 0.03847530 48717.45413931 0 -1270.57141759 0 12925.61054679 0 -59.91799648 0 -1778.56968027 0 1662
0.03950000 0.03950240 48351.51380405 0 843.63032321 0 12399.56439466 0 -1614.43353716 0 -5835.85702519 0 1683
0.04050000 0.04050350 47996.20290062 0 2322.13225027 0 14570.73656835 0 -2525.19868744 0 -3992.81319750 0 1822
0.04150000 0.04152450 46280.43544672 0 2865.01940845 0 14381.84270694 0 -2498.94620529 0 -1691.86230461 0 1887
0.04250000 0.04250150 44892.29808421 0 3185.58535660 0 18595.96953292 0 -1036.99076045 0 1264.31555407 0 1920
0.04350000 0.04349210 42623.35728237 0 2149.48148937 0 18227.59328620 0 3073.92096080 0 601.87718312 0 2005
0.04450000 0.04448520 40549.73229034 0 1638.10616762 0 19543.20692115 0 2238.41440231 0 3384.46645499 0 2151
0.04550000 0.04548030 39915.50952472 0 1151.68786601 0 18504.95502291 0 3904.00208013 0 4279.64177193 0 2274
0.04650000 0.04648670 38607.09290090 0 -1468.14598165 0 15770.42296245 0 3681.37084500 0 5493.98792409 0 2311
0.04750000 0.04749250 40746.59822561 0 -2429.82168145 0 16995.79715013 0 4360.69118960 0 1593.49577093 0 2568
0.04850000 0.04851840 42862.29805196 0 -460.53342065 0 15021.71235821 0 1840.56362693 0 749.27972173 0 2493
0.04950000 0.04949480 40454.06740390 0 1359.81435563 0 13690.92963826 0 466.26556321 0 3195.70546148 0 2644
0.05050000 0.05050630 40236.49622122 0 1558.10862080 0 10753.72974431 0 515.89947367 0 3159.23322353 0 2829
0.05150000 0.05149060 39998.99485386 0 647.35675731 0 16142.78524610 0 1527.59329360 0 2830.36303177 0 2784
0.05250000 0.05249300 37793.71991973 0 1965.27122136 0 13447.89210849 0 -802.66382861 0 -2490.55338308 0 3055
0.05350000 0.05348950 35726.07398309 0 3015.83554480 0 13213.93388507 0 -8.82506363 0 3311.73235326 0 3009
0.05450000 0.05448610 33817.53735410 0 959.63064140 0 12690.43436764 0 1906.20036845 0 -49.01673908 0 3336
0.05550000 0.05550870 34587.17465225 0 -1204.68001259 0 11791.91520861 0 2181.79053319 0 80.45206575 0 3349
0.05650000 0.05647670 34017.61426358 0 -398.60922963 0 9679.89139410 0 2739.20458153 0 -1411.69926973 0 3324
0.05750000 0.05747970 34646.63303652 0 -201.03466557 0 9033.17904610 0 511.99537194 0 1362.71530473 0 3639
0.05850000 0.05849280 35141.78740241 0 354.19038416 0 9217.87649640 0 1432.17199832 0 1844.30607272 0 3846
0.05950000 0.05951020 34539.23148578 0 497.93462665 0 8329.00133228 0 2006.90316268 0 3469.08116125 0 3787
0.06050000 0.06049470 32764.00564761 0 1824.28730944 0 9814.63051482 0 2314.60306939 0 5817.39945972 0 3930
0.06150000 0.06148310 33298.90965960 0 1189.82095269 0 10999.46892134 0 1452.94367968 0 7695.65328033 0 4083
0.06250000 0.06249100 32268.07621898 0 371.78873723 0 11892.45191796 0 615.35995305 0 8262.84419149 0 4303
0.06350000 0.06350600 31221.07718413 0 530.82164583 0 10722.15147393 0 -587.42779923 0 9358.20714115 0 4470
0.06450000 0.06451750 32408.36257443 0 -75.06349743 0 13597.03632379 0 -1445.89060877 0 6708.45587182 0 4479
0.06550000 0.06550280 31352.83784947 0 1495.69392580 0 13062.46448155 0 -2147.27809673 0 5515.03641357 0 4636
0.06650000 0.06648880 30559.06288322 0 1703.85363239 0 13609.54805084 0 -2041.51525006 0 5534.44619898 0 4653
0.06750000 0.06749660 28856.47149586 0 1638.73729013 0 13605.89418365 0 -617.99073743 0 2675.57193080 0 5220
0.06850000 0.06852730 28367.96052486 0 84.02953390 0 12007.05047984 0 2070.50259644 0 1609.05238730 0 5029
0.06950000 0.06949320 28102.55689896 0 -426.90566294 0 12091.86448795 0 2647.93540805 0 735.83459771 0 5040
0.07050000 0.07048030 28432.62290180 0 -753.97660192 0 9798.88566893 0 1674.50089930 0 -298.15445548 0 5475
0.07150000 0.07148790 29326.15951467 0 -901.69691626 0 10580.60287345 0 2859.58289696 0 -82.27567765 0 5509
0.07250000 0.07249820 28902.20019736 0 -211.59102005 0 8285.25457692 0 -175.01691671 0 -89.97670100 0 5916
0.07350000 0.07351270 29221.74749163 0 1097.64606304 0 7629.49613954 0 1275.12214309 0 -111.87144827 0 5721
0.07450000 0.07449140 27771.16221714 0 761.02192220 0 7165.51036801 0 299.13767793 0 315.34756146 0 6028
0.07550000 0.07549160 27926.61765759 0 552.23995096 0 6647.22591558 0 929.34008240 0 583.98984237 0 6183
0.07650000 0.07648840 27207.24871412 0 223.99645278 0 5967.48482263 0 881.58957439 0 1728.81065253 0 6330
0.07750000 0.07749960 26951.69945731 0 750.54307399 0 6034.52774941 0 990.62540027 0 606.55413312 0 6583
0.07850000 0.07848650 25969.36279940 0 886.03068387 0 6040.00855020 0 -405.72209110 0 865.80929705 0 6549
0.07950000 0.07947320 25075.16184704 0 1645.62427617 0 6695.34623924 0 -924.58341166 0 257.72164694 0 6828
0.08050000 0.08048110 23498.90568586 0 1521.27099613 0 7554.09360752 0 -743.94396840 0 2828.85719559 0 7147
0.08150000 0.08149960 23033.75732023 0 672.90836130 0 8254.16348883 0 990.49363960 0 1956.85625450 0 7386
0.08250000 0.08250610 22194.14292923 0 317.29407617 0 7802.55657645 0 587.84411864 0 1464.94607978 0 7227
0.08350000 0.08350160 22174.76636080 0 552.09933243 0 8329.72103339 0 850.56602748 0 2353.02403651 0 7798
0.08450000 0.08449610 21477.09917398 0 -252.55197849 0 7661.96019590 0 702.21569786 0 2248.68951974 0 7371
0.08550000 0.08548940 22090.72741543 0 41.47349635 0 7884.32569524 0 636.58892143 0 2326.12935953 0 8256
0.08650000 0.08650700 21651.82045961 0 214.75659772 0 7618.43488704 0 1016.61879001 0 3175.78634913 0 8037
0.08750000 0.08749060 21732.53770754 0 696.70278733 0 7918.24022616 0 281.58250693 0 3236.96094376 0 8155
0.08850000 0.08849210 20264.90105283 0 857.06105321 0 6910.85796951 0 481.97054873 0 3463.73322837 0 8718
0.08950000 0.08949900 20342.40732656 0 526.89872114 0 7891.60021264 0 1525.65563676 0 4233.13800769 0 8571
0.09050000 0.09049190 19847.25296067 0 88.96236533 0 6877.25346368 0 1009.85027785 0 4016.56333424 0 8932
0.09150000 0.09150830 19335.37938431 0 253.23624816 0 6596.10499189 0 436.16434095 0 3182.04221266 0 9285
0.09250000 0.09250820 19446.98841848 0 280.03127422 0 6221.00784401 0 -114.61184866 0 2937.06702604 0 9204
0.09350000 0.09350330 19146.70696940 0 57.67895095 0 6892.14574056 0 -1016.63872020 0 1818.54077286 0 9349
0.09450000 0.09448040 19165.30847509 0 470.54390952 0 6801.46340030 0 -1534.20347152 0 1146.14063128 0 9564
0.09550000 0.09549270 18639.26232296 0 904.07857332 0 7245.78472295 0 -1613.37059397 0 415.69825576 0 10155
0.09650000 0.09649430 18327.90854906 0 443.85185608 0 7495.12240554 0 59.20449587 0 818.19497864 0 9913
0.09750000 0.09749140 17851.24496561 0 -9.48236112 0 7377.76683478 0 645.91071169 0 -98.88759729 0 10476
0.09850000 0.09850240 18349.83175220 0 -70.69302938 0 7241.74332439 0 1299.96843998 0 -568.41329582 0 10575
0.09950000 0.09950330 17736.53568049 0 221.52621711 0 6645.45434360 0 626.01374399 0 -1223.17079504 0 10882
0.10050000 0.10051200 17183.69450230 0 635.29678112 0 5842.78830053 0 675.95325062 0 -210.44060550 0 10875
0.10150000 0.10150300 16941.09986552 0 435.85763756 0 5361.43005136 0 614.84066102 0 -411.45755535 0 11118
0.10250000 0.10250800 16673.26032816 0 -102.43450583 0 4774.05429206 0 1041.44958565 0 -438.31790813 0 11575
0.10350000 0.10349800 16681.34312528 0 108.42928393 0 4253.52215768 0 470.72328118 0 -361.78710622 0 11364
0.10450000 0.10450100 16306.21276042 0 375.91207099 0 4096.33943456 0 510.79070300 0 -145.44384435 0 12093
0.10550000 0.10551000 16067.71488383 0 243.95985443 0 3979.90286676 0 528.16650234 0 482.49537692 0 12067
0.10650000 0.10649700 15979.57917827 0 136.69781498 0 3429.51974468 0 443.13104773 0 326.00024517 0 12054
0.10750000 0.10749900 15871.73473454 0 21.46525179 0 4205.28003845 0 325.43777107 0 721.93550836 0 12807
0.10850000 0.10850100 15631.24383948 0 367.46720885 0 3749.33277474 0 -3.00088791 0 819.73071009 0 12736
0.10950000 0.10950300 15442.23925482 0 349.68062626 0 4449.42480070 0 -197.72404045 0 543.46181184 0 12933
0.11050000 0.11050200 15172.62814549 0 283.81358038 0 4080.41743147 0 -557.65542503 0 449.97817340 0 13428
0.11150000 0.11150900 14940.44149404 0 543.00120313 0 4779.41329727 0 -756.81222431 0 -73.75397357 0 13453
0.11250000 0.11250000 14756.41945555 0 158.94322277 0 4961.37588334 0 -516.35454622 0 485.81153821 0 13668
0.11350000 0.11349100 14580.81238393 0 -4.15992780 0 5151.94166579 0 -239.73465528 0 -623.39846087 0 13791
0.11450000 0.11448600 14688.87827416 0 123.97792823 0 4877.15978077 0 51.39562807 0 -590.28778073 0 14205
0.11550000 0.11549300 14601.40690809 0 221.53950390 0 5181.99195535 0 705.52964468 0 -666.68017859 0 14776
0.11650000 0.11649800 14425.13549698 0 -65.69520340 0 4697.58881686 0 1669.28583431 0 365.01579613 0 14553
0.11750000 0.11747300 14437.20433103 0 -72.37724070 0 4193.68731436 0 1438.45000649 0 -405.07325286 0 14568
0.11850000 0.11849100 14274.10898645 0 253.19638779 0 3703.21654187 0 828.52656492 0 497.55263145 0 16015
0.11950000 0.11950300 14161.83561279 0 479.24454236 0 3534.89505998 0 -312.32813848 0 863.76645312 0 15270
0.12050000 0.12050700 13695.46929143 0 224.98742585 0 3799.26895967 0 -131.66655058 0 2083.77831389 0 15999
0.12150000 0.12150000 13732.67230282 0 76.24723968 0 3929.49057186 0 -53.72889908 0 1957.42094306 0 15670
0.12250000 0.12250700 13487.08813834 0 69.45337189 0 4016.98408258 0 -179.50785166 0 903.08760025 0 16887
0.12350000 0.12352200 13660.81291475 0 153.60414774 0 4176.45877694 0 -88.29005376 0 1011.48898193 0 16407
0.12450000 0.12449800 13450.32801995 0 158.77824513 0 4305.30742086 0 51.67232546 0 1289.05112771 0 16306
0.12550000 0.12549900 13355.77036600 0 17.29109605 0 4374.43194470 0 241.23606252 0 1472.94029830 0 17523
0.12650000 0.12650100 13316.02071990 0 350.96944487 0 4181.43025079 0 323.38385482 0 1110.47667304 0 17154
0.12750000 0.12750600 13182.93137558 0 234.14977464 0 4246.71267792 0 195.75427386 0 1868.62089802 0 18007
0.12850000 0.12850300 12858.40153514 0 215.65345603 0 4390.01070572 0 111.63782222 0 1978.49157719 0 17496
0.12950000 0.12949900 12692.09521637 0 207.22188068 0 4466.07757723 0 325.69575624 0 2058.36732844 0 18405
0.13050000 0.13049000 12802.59701806 0 94.93632746 0 4705.58303538 0 -262.53478654 0 1580.23112579 0 18100
0.13150000 0.13148800 12348.63170049 0 261.03670099 0 4722.11401633 0 -340.66886109 0 1753.35799666 0 19059
0.13250000 0.13249300 12382.18084469 0 429.43901086 0 4937.24928756 0 -105.51870191 0 2089.82380325 0 18957
0.13350000 0.13349100 12195.83361799 0 20.26744769 0 4998.34637591 0 265.08142125 0 1952.63769874 0 19468
0.13450000 0.13450700 12170.92088715 0 -211.36846632 0 4616.57261616 0 452.85919232 0 1135.54441643 0 19953
0.13550000 0.13551000 12344.53494031 0 17.33317089 0 4166.11722556 0 428.80678111 0 701.19704398 0 19956
0.13650000 0.13649900 12253.29898380 0 97.76220620 0 4134.99292050 0 151.34760795 0 299.01145342 0 19723
0.13750000 0.13749600 12158.74132985 0 39.03304524 0 3957.75821713 0 -49.28612874 0 541.83971626 0 20946
0.13850000 0.13851100 12175.12837058 0 107.31230780 0 3966.43891978 0 -52.48569844 0 77.81065194 0 20955
0.13950000 0.13949800 12120.98470222 0 192.40711007 0 3676.28864791 0 62.19280561 0 93.80706105 0 20506
0.14050000 0.14048300 11760.13763638 0 402.75692251 0 3779.10625618 0 293.23391433 0 -137.46623432 0 21447
0.14150000 0.14148400 11305.84014907 0 532.55335743 0 3639.63925276 0 73.68189274 0 251.49789316 0 21771
0.14250000 0.14249400 10959.42032247 0 482.37136689 0 3806.46597080 0 475.83537355 0 58.60249357 0 22470
0.14350000 0.14350900 10469.64710644 0 290.69835195 0 3362.82005997 0 699.04236957 0 505.54131380 0 22519
0.14450000 0.14449900 10370.27299120 0 -37.71643509 0 3292.25613390 0 609.90572585 0 939.29188795 0 22218
0.14550000 0.14550500 10408.84897086 0 -154.67816325 0 2607.59892874 0 374.36748168 0 663.92206247 0 23559
0.14650000 0.14650700 10506.79475621 0 44.55868894 0 2964.79212739 0 144.44622789 0 773.25684113 0 23044
0.14750000 0.14750500 10485.73519440 0 172.37948894 0 2878.46121078 0 -535.88612720 0 625.87866163 0 23649
0.14850000 0.14849900 10211.15261123 0 285.37588541 0 2792.22994509 0 -237.17362655 0 918.26665035 0 23640
0.14950000 0.14949500 10156.01243363 0 96.63714728 0 2958.55840852 0 -117.40318175 0 634.63576333 0 24457
0.15050000 0.15050000 10081.59533852 0 -92.68521310 0 3165.15691731 0 42.53212133 0 459.91558492 0 24591
0.15150000 0.15149900 10033.79611228 0 176.85270817 0 2957.37366976 0 463.19188584 0 217.31762645 0 25020
0.15250000 0.15250500 10022.32518377 0 -90.04291351 0 2766.08818619 0 294.80396999 0 686.95471256 0 25297
0.15350000 0.15350100 10102.64382800 0 -21.75844695 0 2413.14676028 0 324.26189017 0 220.95488515 0 25452
0.15450000 0.15450400 10029.58862885 0 136.43540088 0 2597.20201574 0 138.28337189 0 547.65047232 0 26061
0.15550000 0.15549900 9826.20109426 0 398.24273568 0 2589.80570276 0 -74.10441265 0 664.20883569 0 26128
0.15650000 0.15649500 9614.70861790 0 320.20941929 0 2597.66705338 0 -306.09441961 0 934.65369108 0 26331
0.15750000 0.15749700 9356.02589316 0 213.63497121 0 2760.17556474 0 171.41176775 0 990.85349016 0 27345
0.15850000 0.15849900 9333.23904868 0 89.60267787 0 2836.91784806 0 222.23816760 0 1089.94636836 0 26980
0.15950000 0.15949700 9240.07650766 0 130.96124349 0 2764.60449467 0 70.82523293 0 806.30330178 0 27777
0.16050000 0.16050000 9098.27324370 0 232.91078149 0 2947.87361507 0 37.84664563 0 847.28419040 0 28224
0.16150000 0.16150500 8912.75644137 0 166.52555081 0 2753.11142151 0 -20.77378510 0 1277.77950105 0 28075
0.16250000 0.16249700 8827.05664727 0 81.35113852 0 2772.47691761 0 284.82780533 0 1137.72566442 0 28590
0.16350000 0.16349900 8792.37812594 0 -18.87521356 0 2527.46851403 0 344.38805500 0 924.93329712 0 29163
0.16450000 0.16449100 8752.10808057 0 82.94942861 0 2514.01563937 0 197.45166126 0 1056.61092003 0 28996
0.16550000 0.16550500 8624.99779166 0 150.55040056 0 2236.31066060 0 126.58988965 0 1234.51992798 0 30777
0.16650000 0.16650700 8573.13502221 0 80.67207284 0 2234.45051003 0 276.14820991 0 1013.84074372 0 29211
0.16750000 0.16749900 8458.97935333 0 -7.73131724 0 2120.98132529 0 -17.67818453 0 1072.35465869 0 30922
0.16850000 0.16850800 8411.64516473 0 173.54319028 0 2301.57094308 0 57.89153959 0 660.41324274 0 30867
0.16950000 0.16949900 8396.57573065 0 109.58180222 0 2086.64604602 0 -142.55175311 0 501.34600993 0 30852
0.17050000 0.17049200 8281.02494884 0 149.54614070 0 2120.41663672 0 -167.27403997 0 406.97990720 0 31257
0.17150000 0.17149500 8183.73243066 0 209.15289413 0 2198.85298573 0 -385.46527284 0 335.08619492 0 32608
0.17250000 0.17250900 8077.83671609 0 126.51902677 0 2113.16426396 0 -167.29507738 0 3.87896755 0 32361
0.17350000 0.17350400 8018.23439159 0 1.79115891 0 2263.75895382 0 143.04557880 0 -166.24763545 0 32508
0.17450000 0.17449800 7999.36715010 0 58.50915387 0 2105.84545726 0 18.84919360 0 -288.71529858 0 32791
0.17550000 0.17549800 7954.08134160 0 46.37001055 0 2026.29080344 0 115.75672705 0 -327.62787692 0 33633
0.17650000 0.17650100 7943.52941604 0 94.65763704 0 2084.07726666 0 -15.21492443 0 -555.12650604 0 33984
0.17750000 0.17750300 7846.84587573 0 72.79998207 0 2005.26445861 0 -5.21063606 0 -645.09578858 0 34069
0.17850000 0.17849800 7679.02264845 0 132.33199730 0 1901.48355808 0 77.19159826 0 -802.74687105 0 34536
