### header ###
fiducial parameters:
Omega_m = 0.31
Omega_nu = 0
Omega_de = 0.69
Omega_k = 0
H_0 = 100
w_de = -1
zeff = 0
beta = 0
fgrowth = 0
b_1 = 2
gamma = 0.55
Lx = 3500 Ly = 3500 Lz = 3500
nx = 700 ny = 700 nz = 700
xoffset = -685.467585 yoffset = -31.7331281 zoffset = 572.489161
bins = 400 dk = 0.001
kx_ny = 0.628318531 ky_ny = 0.628318531 kz_ny = 0.628318531
############################
A(data) = 8.06783918 (not used)
A(ran) = 8.06636766 (used)
Ngal = 479612
weighted Ngal = 0
Nran = 23820508
weighted Nran = 0
SN(data) = 3484.5847
SN(ran) = 70.2609877
SN(data+ran) = 3554.84569
############################
13 columns: k_central k_mean P_0(k) sigma^{lin}_{P_0(k)} P^img_1(k) sigma^{lin}_{P_1(k)} P_2(k) sigma^{lin}_{P_2(k)} P^img_3(k) sigma^{lin}_{P_3(k)} P_4(k) sigma^{lin}_{P_4(k)} N_modes
### header ###
0.00050000 0 0 0 0 0 0 0 0 0 0 0 0
0.00150000 0.00179520 8820.75649445 0 -18371.53350884 0 8428.51938775 0 -16803.13869828 0 -3216.52143214 0 3
0.00250000 0.00253879 17646.51767972 0 -17119.36429510 0 9225.98143816 0 -25834.61260635 0 5201.16922194 0 6
0.00350000 0.00331552 24440.16401869 0 697.75355096 0 34179.60237567 0 -52475.84407575 0 -40956.97239717 0 7
0.00450000 0.00420575 33211.10612379 0 4961.90735493 0 21889.98616646 0 -4048.92773968 0 36379.56259389 0 24
0.00550000 0.00557378 43766.24265015 0 -18135.69299021 0 20237.44168728 0 5601.68842760 0 9790.22711092 0 45
0.00650000 0.00659388 67640.05725437 0 -16681.56457177 0 27425.48423630 0 -3693.22930488 0 6859.64846722 0 40
0.00750000 0.00754703 93925.53492734 0 -14466.21382206 0 28172.31254532 0 5841.50391085 0 -37420.47185009 0 57
0.00850000 0.00846663 78353.63874890 0 2219.76860732 0 19837.39859158 0 3525.19570344 0 1827.84152571 0 75
0.00950000 0.00948925 81576.01744087 0 12563.65624847 0 9235.88009655 0 -11284.80273192 0 -16158.61867059 0 112
0.01050000 0.01054430 65950.53121030 0 9057.22813560 0 26345.71111998 0 -1735.85265112 0 -12819.75912153 0 105
0.01150000 0.01145670 57846.47522903 0 11662.47973148 0 6717.25837005 0 12526.34251383 0 12451.27215156 0 144
0.01250000 0.01249090 59917.55358636 0 -5328.91063337 0 9888.74865716 0 -3175.88600006 0 -4057.29841725 0 169
0.01350000 0.01339930 59130.64346150 0 -3204.30865787 0 3600.76432032 0 -1539.24137931 0 -3796.23514267 0 180
0.01450000 0.01448870 63840.81043935 0 -1982.71013295 0 8297.64450839 0 -1647.80552416 0 -11704.22239605 0 267
0.01550000 0.01550050 60344.05953837 0 -3898.79808747 0 -1163.00378198 0 4207.28412924 0 5379.95405078 0 238
0.01650000 0.01653350 71763.39101684 0 -8200.17483301 0 861.68042713 0 675.19479637 0 -18085.53535878 0 315
0.01750000 0.01747870 73135.80567811 0 -4963.16959996 0 1210.76979124 0 -5153.81288869 0 -13351.78432906 0 297
0.01850000 0.01844180 82357.28068007 0 -1253.65290527 0 6901.55721666 0 -6090.58692997 0 -31387.05133316 0 388
0.01950000 0.01947590 78964.05601615 0 -65.93037958 0 13202.41866726 0 -21648.83093191 0 -7071.17416056 0 399
0.02050000 0.02045430 81370.84726198 0 5509.54454046 0 9775.32376171 0 -8302.18416157 0 -32927.98677817 0 462
0.02150000 0.02154770 79820.83251061 0 3561.92260486 0 25487.71666979 0 -10213.37814852 0 -21467.79842113 0 571
0.02250000 0.02255340 77308.74345576 0 2618.72661518 0 21727.88733112 0 -10899.72941937 0 -18141.78276886 0 510
0.02350000 0.02348930 79469.28619762 0 1994.42465261 0 27065.63367969 0 5188.45819304 0 -13972.94175139 0 555
0.02450000 0.02439640 69756.86431320 0 3791.35224743 0 24256.47414995 0 2264.62259516 0 -12065.62307813 0 592
0.02550000 0.02547300 72041.41709303 0 1439.62367292 0 15680.73713142 0 10179.62970247 0 -15326.86563021 0 837
0.02650000 0.02652900 69016.12578283 0 -639.64709754 0 15650.17751492 0 9878.00850208 0 -15321.88308404 0 723
0.02750000 0.02749970 66391.20973808 0 2711.39090159 0 16359.24919630 0 2621.48362406 0 -20132.91894099 0 826
0.02850000 0.02848090 63241.13332717 0 3071.59577259 0 10813.77496181 0 -1365.26193944 0 -16330.57187502 0 831
0.02950000 0.02946900 62119.61754629 0 4613.99276448 0 13592.49667062 0 -4631.22130190 0 -17216.02569077 0 996
0.03050000 0.03053250 59960.51420666 0 468.48888603 0 13719.93912928 0 -8448.56029567 0 -14298.91099405 0 1041
0.03150000 0.03150510 56782.97843020 0 1574.93855453 0 20442.39041967 0 -49.39319812 0 -15061.57272756 0 1036
0.03250000 0.03246190 58779.98293449 0 3866.82121339 0 20974.85852020 0 -3087.25203988 0 -14258.05411547 0 1059
0.03350000 0.03345080 55540.33141580 0 2814.67354750 0 21927.29990110 0 1121.56007018 0 -4427.75626103 0 1302
0.03450000 0.03451200 55083.59801704 0 -228.42316824 0 25594.12171129 0 9749.96813788 0 -6059.44048025 0 1339
0.03550000 0.03553350 53252.01404553 0 2323.08447020 0 18874.32777886 0 7390.96504597 0 -3332.72548111 0 1365
0.03650000 0.03647120 52688.87560526 0 2257.55845192 0 14363.90554073 0 7898.69757285 0 -3253.66908191 0 1308
0.03750000 0.03744890 49205.19004757 0 66.06202952 0 13078.96224553 0 2725.06522274 0 -2963.57417166 0 1579
0.03850000 0.03847530 47425.97817246 0 3351.21626356 0 12846.66487083 0 -954.46650911 0 -6976.17361361 0 1662
0.03950000 0.03950240 43778.64365395 0 5004.52473316 0 11024.01626546 0 -6122.66345497 0 -6916.95882048 0 1683
0.04050000 0.04050350 40392.83744766 0 4566.90216702 0 12637.28720851 0 -4946.29537693 0 -7415.68954729 0 1822
0.04150000 0.04152450 38740.62513822 0 1579.07960401 0 11486.09759712 0 -2174.22813534 0 -8064.90424070 0 1887
0.04250000 0.04250150 36333.83389239 0 -1051.21537614 0 13017.40011954 0 2254.40283935 0 -6605.17322591 0 1920
0.04350000 0.04349210 39575.58915279 0 -1321.86949847 0 16505.40388391 0 4160.97966685 0 -12728.52316502 0 2005
0.04450000 0.04448520 39567.61707892 0 -811.43643157 0 10096.95265305 0 2476.80155566 0 -9336.79326495 0 2151
0.04550000 0.04548030 39291.69474444 0 1194.94743908 0 14250.08204160 0 3022.78896479 0 -6654.13504626 0 2274
0.04650000 0.04648670 39122.84179096 0 884.38090747 0 10585.23110522 0 1693.91068471 0 -2802.29468835 0 2311
0.04750000 0.04749250 38465.58858972 0 -474.83443538 0 11050.50126643 0 2519.55180178 0 -2655.07705756 0 2568
0.04850000 0.04851840 38956.53547218 0 -48.71324666 0 8377.05522199 0 3099.97414110 0 1207.44809380 0 2493
0.04950000 0.04949480 38821.89600239 0 -378.25608215 0 7885.82045909 0 3057.93252376 0 1100.88471805 0 2644
0.05050000 0.05050630 37945.85366273 0 583.12287934 0 7019.15637856 0 90.16614848 0 -1295.46200378 0 2829
0.05150000 0.05149060 37945.07860000 0 2341.32058918 0 7683.20798723 0 -776.37037887 0 646.87843288 0 2784
0.05250000 0.05249300 35155.73853168 0 2550.67610685 0 9526.06358540 0 -3567.24839310 0 -693.50288546 0 3055
0.05350000 0.05348950 33639.60509427 0 1886.76843840 0 11401.39431226 0 -1931.17953324 0 4142.69925857 0 3009
0.05450000 0.05448610 33363.90420628 0 560.82653885 0 13843.94916725 0 -777.21741171 0 3789.56960313 0 3336
0.05550000 0.05550870 34412.12119686 0 -963.78165598 0 12946.53724070 0 3203.75504163 0 182.09877566 0 3349
0.05650000 0.05647670 34137.63826461 0 -1865.52064707 0 13001.34524855 0 2709.94042704 0 1156.50432731 0 3324
0.05750000 0.05747970 35711.34779108 0 -187.85417011 0 11974.94073786 0 277.09600091 0 -12.98451531 0 3639
0.05850000 0.05849280 35412.94863722 0 636.43944504 0 12656.33160720 0 -1132.16735736 0 269.58785745 0 3846
0.05950000 0.05951020 34806.29596041 0 1443.49898661 0 11600.03181950 0 -1183.12219617 0 47.15891370 0 3787
0.06050000 0.06049470 33803.58622483 0 364.01596520 0 12522.02430715 0 -736.26420391 0 -927.25959256 0 3930
0.06150000 0.06148310 34649.40111773 0 169.23494869 0 15438.25321789 0 118.71303778 0 -1955.60508179 0 4083
0.06250000 0.06249100 34897.19974717 0 56.10380203 0 13498.27118641 0 1417.09149191 0 357.41796684 0 4303
0.06350000 0.06350600 35238.78096782 0 -0.76877587 0 13600.35802124 0 -81.59683341 0 -242.10302555 0 4470
0.06450000 0.06451750 34490.62397983 0 838.78728833 0 15198.09449257 0 727.81159114 0 1371.26313949 0 4479
0.06550000 0.06550280 34216.91611031 0 1428.87244552 0 14697.95758051 0 1546.42731812 0 3269.08175806 0 4636
0.06650000 0.06648880 31764.06399324 0 1134.29324372 0 14527.44377830 0 2344.71979290 0 3184.16809902 0 4653
0.06750000 0.06749660 31694.97268637 0 158.76052941 0 14212.10396747 0 1301.25282966 0 1736.22911016 0 5220
0.06850000 0.06852730 31226.72406979 0 240.29823661 0 13178.17027590 0 2098.22769778 0 -613.84525902 0 5029
0.06950000 0.06949320 30863.88398548 0 807.20901795 0 13987.22505040 0 -2509.56456480 0 -1228.17548586 0 5040
0.07050000 0.07048030 29541.40550914 0 1481.21132494 0 13514.87967364 0 -1294.13332480 0 -2059.09810187 0 5475
0.07150000 0.07148790 29243.78141802 0 730.96831095 0 13667.12413990 0 132.20134387 0 -1105.30589735 0 5509
0.07250000 0.07249820 28379.47574267 0 588.13974972 0 11531.60485212 0 1571.50613384 0 -2575.71063326 0 5916
0.07350000 0.07351270 27739.05247516 0 -51.89554353 0 10759.70879972 0 2144.14462881 0 -1578.13845640 0 5721
0.07450000 0.07449140 28388.11215603 0 -176.37106204 0 10589.68217980 0 2433.30946377 0 -1934.51230301 0 6028
0.07550000 0.07549160 27205.36641890 0 278.02386173 0 9691.35125029 0 1759.41455833 0 -2440.69470442 0 6183
0.07650000 0.07648840 27532.44289405 0 1059.33803363 0 8573.55577055 0 642.58679978 0 -1292.64963328 0 6330
0.07750000 0.07749960 26637.13470921 0 525.22237117 0 8665.93217651 0 241.56048164 0 114.71260682 0 6583
0.07850000 0.07848650 25851.22109358 0 653.10772282 0 8676.51731904 0 151.74731887 0 -446.32873514 0 6549
0.07950000 0.07947320 25594.45388104 0 427.06399719 0 8970.47647065 0 -416.38916883 0 -284.53549596 0 6828
0.08050000 0.08048110 24849.17569750 0 767.05191030 0 9828.06124483 0 352.98128629 0 -240.08121904 0 7147
0.08150000 0.08149960 24108.88006012 0 1096.31627683 0 10416.95391263 0 -159.54998617 0 390.44560454 0 7386
0.08250000 0.08250610 23353.41533774 0 1092.63915775 0 9983.91528897 0 383.45232419 0 2132.99479771 0 7227
0.08350000 0.08350160 22734.25093389 0 118.22917718 0 9546.68025421 0 1554.76477871 0 1900.19916840 0 7798
0.08450000 0.08449610 22325.23925508 0 106.04452661 0 9401.90960721 0 930.60454189 0 2111.04944992 0 7371
0.08550000 0.08548940 22838.66295693 0 17.74904741 0 9097.30995145 0 1290.95556758 0 2232.77858898 0 8256
0.08650000 0.08650700 22236.77137978 0 -57.47942766 0 8840.73096842 0 723.94513531 0 1244.19713987 0 8037
0.08750000 0.08749060 22913.73331920 0 373.37097244 0 8002.61134128 0 221.69230198 0 2191.41238346 0 8155
0.08850000 0.08849210 21967.71388669 0 344.71025965 0 7536.17858596 0 467.68946418 0 938.73605724 0 8718
0.08950000 0.08949900 21558.37003815 0 629.13171066 0 7491.66784019 0 127.59747121 0 1796.04180883 0 8571
0.09050000 0.09049190 21346.44574112 0 337.05042534 0 6601.43078013 0 387.36749825 0 452.63331689 0 8932
0.09150000 0.09150830 20620.54412601 0 767.30989547 0 7125.25139497 0 537.74184884 0 578.55333089 0 9285
0.09250000 0.09250820 20407.29115000 0 397.88177789 0 6525.68500604 0 287.80626071 0 298.69035601 0 9204
0.09350000 0.09350330 19819.12925563 0 72.96905647 0 5908.60219925 0 541.49647419 0 -3.91641416 0 9349
0.09450000 0.09448040 19602.11168919 0 629.27122195 0 6430.76196537 0 742.07495997 0 800.58666048 0 9564
0.09550000 0.09549270 18909.64849503 0 712.97467588 0 6217.49791704 0 925.25439454 0 1452.33470181 0 10155
0.09650000 0.09649430 18597.18748865 0 668.54143639 0 5617.34469489 0 819.06858506 0 1124.25064511 0 9913
0.09750000 0.09749140 17784.14667721 0 420.35970451 0 6094.60618388 0 558.39505632 0 1984.43741562 0 10476
0.09850000 0.09850240 17730.88879484 0 219.38593672 0 6605.50539566 0 -207.91611544 0 1321.80306453 0 10575
0.09950000 0.09950330 17466.14950842 0 89.15247714 0 6060.02731347 0 199.28080932 0 1331.41384247 0 10882
0.10050000 0.10051200 17345.79333764 0 354.70414003 0 6441.75678392 0 -468.62507562 0 1656.55266077 0 10875
0.10150000 0.10150300 17210.15735861 0 356.20776174 0 6365.68991241 0 74.69412467 0 1378.28299343 0 11118
0.10250000 0.10250800 16840.12026318 0 507.20216253 0 7016.04505528 0 -320.24152903 0 1357.53345671 0 11575
0.10350000 0.10349800 16474.51209766 0 374.61550175 0 6292.96688300 0 408.92531467 0 1533.61663831 0 11364
0.10450000 0.10450100 16297.68707031 0 -9.24489297 0 6431.61453438 0 608.77967041 0 1436.13589060 0 12093
0.10550000 0.10551000 16152.97178493 0 97.51584697 0 5576.38816539 0 974.36679851 0 1797.22654759 0 12067
0.10650000 0.10649700 16181.53838296 0 97.90991101 0 5581.85789385 0 342.28209882 0 889.94696516 0 12054
0.10750000 0.10749900 15867.97014410 0 289.27666544 0 5471.55539401 0 -62.30729345 0 984.97187122 0 12807
0.10850000 0.10850100 15841.50728778 0 359.13749889 0 6163.95215422 0 -562.20504329 0 390.84199377 0 12736
0.10950000 0.10950300 15357.42524671 0 384.83968649 0 5709.93147503 0 -141.26404173 0 751.95700987 0 12933
0.11050000 0.11050200 15139.07900129 0 87.03356634 0 6100.49666068 0 -11.92887987 0 1039.34695117 0 13428
0.11150000 0.11150900 15112.39469847 0 -153.97285616 0 5890.80897326 0 568.92815892 0 504.67435077 0 13453
0.11250000 0.11250000 15650.50968466 0 -77.95891037 0 6000.11496387 0 710.16341261 0 626.35477160 0 13668
0.11350000 0.11349100 15496.27219994 0 -51.51310543 0 5570.61948416 0 733.38982839 0 1255.01480122 0 13791
0.11450000 0.11448600 15411.45819183 0 112.30548340 0 5532.63033771 0 794.14810360 0 1376.91002515 0 14205
0.11550000 0.11549300 15542.00090144 0 94.58921008 0 5288.99490240 0 549.35339588 0 1766.46762924 0 14776
0.11650000 0.11649800 15457.85123282 0 216.85812497 0 5366.34616358 0 267.08772651 0 1739.25185484 0 14553
0.11750000 0.11747300 15058.02958361 0 200.91508446 0 5226.03766348 0 317.08148753 0 1767.50842777 0 14568
0.11850000 0.11849100 15156.46255125 0 -89.48575412 0 5019.88204768 0 -28.19390358 0 1559.43729978 0 16015
0.11950000 0.11950300 14961.25746470 0 168.48313784 0 4756.68181442 0 149.23833007 0 1217.59034333 0 15270
0.12050000 0.12050700 14850.09132352 0 415.91084440 0 4322.80169407 0 174.41901117 0 988.56816232 0 15999
0.12150000 0.12150000 14303.22920073 0 440.90440321 0 3849.36015715 0 258.68383197 0 964.82799067 0 15670
0.12250000 0.12250700 13970.28439343 0 327.57251529 0 3714.20028809 0 501.74239916 0 507.81224762 0 16887
0.12350000 0.12352200 13633.57499570 0 362.38058283 0 3293.10870291 0 616.05529505 0 668.49050369 0 16407
0.12450000 0.12449800 13398.62026304 0 176.37991990 0 3033.75056636 0 51.55484810 0 112.95099994 0 16306
0.12550000 0.12549900 13168.53735331 0 202.09428705 0 3198.89429103 0 -263.72838316 0 239.10353276 0 17523
0.12650000 0.12650100 13187.36030550 0 128.93168635 0 4021.76732690 0 -406.47833088 0 239.01163247 0 17154
0.12750000 0.12750600 13098.33881396 0 29.83039319 0 4001.63784038 0 -631.76803120 0 782.61406283 0 18007
0.12850000 0.12850300 13042.75574337 0 490.51174009 0 4590.39764029 0 -324.30617947 0 754.58115086 0 17496
0.12950000 0.12949900 12824.74166769 0 481.97940659 0 4801.28113878 0 1.18024339 0 1127.51698093 0 18405
0.13050000 0.13049000 12527.78191606 0 153.40706036 0 5022.81621376 0 318.80766297 0 1240.90865940 0 18100
0.13150000 0.13148800 12412.62973794 0 90.77778370 0 4756.58216349 0 273.22954508 0 1538.25594240 0 19059
0.13250000 0.13249300 12446.73249838 0 -81.09625361 0 4691.14472381 0 514.96164776 0 1041.95226920 0 18957
0.13350000 0.13349100 12562.54901599 0 -169.39992633 0 4683.78162781 0 499.33749021 0 1929.43010592 0 19468
0.13450000 0.13450700 12579.04677997 0 26.28647418 0 4436.18230021 0 448.28078600 0 1057.47123966 0 19953
0.13550000 0.13551000 12374.76238706 0 252.78781900 0 4293.65933515 0 -57.57265664 0 1093.76853489 0 19956
0.13650000 0.13649900 12370.33345714 0 339.40550883 0 4060.37652355 0 -48.67050748 0 915.90713793 0 19723
0.13750000 0.13749600 11800.99451496 0 436.79767793 0 4010.04173492 0 311.30948460 0 1396.20908731 0 20946
0.13850000 0.13851100 11604.12857969 0 301.62230762 0 3549.41087781 0 558.34190916 0 947.20527849 0 20955
0.13950000 0.13949800 11342.82171397 0 19.85467142 0 3345.34793141 0 362.82015412 0 623.44607187 0 20506
0.14050000 0.14048300 11240.84560239 0 -83.44724034 0 2927.55589902 0 496.77424701 0 -92.22903332 0 21447
0.14150000 0.14148400 11188.69495249 0 57.03742045 0 2696.53184168 0 -33.38128776 0 -117.14519658 0 21771
0.14250000 0.14249400 11204.97126997 0 220.14771267 0 2729.16198292 0 -342.91986473 0 -515.05686975 0 22470
0.14350000 0.14350900 11075.31434635 0 318.84530887 0 2740.89864723 0 -409.23976869 0 -628.18502689 0 22519
0.14450000 0.14449900 10737.74130728 0 307.94349786 0 3134.24298641 0 -215.76639374 0 -460.45480714 0 22218
0.14550000 0.14550500 10470.80970055 0 369.51669617 0 3096.06561044 0 -124.94122049 0 -670.63742748 0 23559
0.14650000 0.14650700 10342.89113192 0 160.88198685 0 3346.53267016 0 130.39876939 0 -504.36764737 0 23044
0.14750000 0.14750500 10184.65653794 0 123.35566357 0 3287.26251541 0 103.83670504 0 -456.94155848 0 23649
0.14850000 0.14849900 10035.15800823 0 194.65479201 0 3290.22989846 0 131.70198202 0 -191.13268548 0 23640
0.14950000 0.14949500 9936.93541477 0 -15.03754578 0 3184.65528131 0 166.33510682 0 -21.79664647 0 24457
0.15050000 0.15050000 9916.31874596 0 54.49853637 0 2913.04008119 0 236.93114263 0 -47.24140252 0 24591
0.15150000 0.15149900 10054.67851689 0 -49.54920718 0 2992.52830106 0 381.69071731 0 -401.10160995 0 25020
0.15250000 0.15250500 9882.32670876 0 8.99038451 0 3030.53959216 0 -13.37747212 0 -384.94487357 0 25297
0.15350000 0.15350100 9910.12931638 0 245.41365068 0 2969.17676802 0 187.73348177 0 91.14073451 0 25452
0.15450000 0.15450400 9611.91839204 0 174.40461715 0 2839.71914624 0 137.18278281 0 184.23794882 0 26061
0.15550000 0.15549900 9673.90126638 0 -3.19154227 0 2605.37339145 0 454.92528813 0 520.47123659 0 26128
0.15650000 0.15649500 9725.31007051 0 -10.80824987 0 2613.73299669 0 209.54374719 0 456.83083523 0 26331
0.15750000 0.15749700 9669.01837113 0 156.48959559 0 2617.53080410 0 21.19552995 0 577.60996881 0 27345
0.15850000 0.15849900 9440.29735735 0 314.56474810 0 2961.92439526 0 -278.38481952 0 636.63985412 0 26980
0.15950000 0.15949700 9131.92203883 0 487.10146405 0 2915.83030704 0 -272.12452707 0 666.14427806 0 27777
0.16050000 0.16050000 8821.17724279 0 273.18082686 0 3019.66656919 0 -95.56169237 0 637.58764512 0 28224
0.16150000 0.16150500 8547.54687955 0 184.71184432 0 2884.91637615 0 152.81026205 0 704.91955958 0 28075
0.16250000 0.16249700 8563.07027895 0 58.59673596 0 2898.40246778 0 272.15995851 0 508.47547988 0 28590
0.16350000 0.16349900 8391.20565311 0 -73.78254017 0 2719.98302565 0 413.76392061 0 287.67007111 0 29163
0.16450000 0.16449100 8492.18525546 0 145.84355528 0 2545.92607950 0 164.97653257 0 170.58023616 0 28996
0.16550000 0.16550500 8351.07954797 0 74.52803980 0 2404.17817717 0 236.15940159 0 250.21239625 0 30777
0.16650000 0.16650700 8265.12509040 0 46.66630597 0 2588.26664961 0 -228.51174684 0 135.79209881 0 29211
0.16750000 0.16749900 8241.36388134 0 207.12555145 0 2359.34633398 0 53.36783056 0 527.48444713 0 30922
0.16850000 0.16850800 8204.94700501 0 71.85418408 0 2406.71373956 0 69.53453203 0 636.83472704 0 30867
0.16950000 0.16949900 8104.99712887 0 -37.97430954 0 2263.73680917 0 416.01713871 0 452.15167076 0 30852
0.17050000 0.17049200 8205.33453638 0 -63.71270364 0 2136.88118373 0 509.02134549 0 490.96238371 0 31257
0.17150000 0.17149500 8175.00743870 0 -36.15446223 0 1877.58948112 0 348.89781290 0 467.41487052 0 32608
0.17250000 0.17250900 8240.74383115 0 93.32785083 0 1747.17963941 0 -29.27290163 0 371.20633294 0 32361
0.17350000 0.17350400 8136.75255645 0 148.37468873 0 1834.55135455 0 -21.07262715 0 525.44824659 0 32508
0.17450000 0.17449800 8084.88978700 0 115.11674667 0 2011.04421216 0 -133.94080610 0 607.20518582 0 32791
0.17550000 0.17549800 8017.43718421 0 121.06479957 0 2059.92852624 0 -120.90425086 0 800.44604195 0 33633
0.17650000 0.17650100 7891.06874105 0 165.54454283 0 2227.19813727 0 90.62133175 0 652.58289463 0 33984
0.17750000 0.17750300 7817.14990056 0 248.08318819 0 2242.98727246 0 58.00868479 0 721.12058525 0 34069
0.17850000 0.17849800 7637.78931083 0 117.49065312 0 2310.42880293 0 -59.72899189 0 681.69425104 0 34536
