### header ###
fiducial parameters:
Omega_m = 0.31
Omega_nu = 0
Omega_de = 0.69
Omega_k = 0
H_0 = 100
w_de = -1
zeff = 0
beta = 0
fgrowth = 0
b_1 = 2
gamma = 0.55
Lx = 3500 Ly = 3500 Lz = 3500
nx = 700 ny = 700 nz = 700
xoffset = -685.467585 yoffset = -31.7331281 zoffset = 572.489161
bins = 400 dk = 0.001
kx_ny = 0.628318531 ky_ny = 0.628318531 kz_ny = 0.628318531
############################
A(data) = 7.98575064 (not used)
A(ran) = 7.98280764 (used)
Ngal = 474863
weighted Ngal = 0
Nran = 23820508
weighted Nran = 0
SN(data) = 3489.63216
SN(ran) = 69.5331497
SN(data+ran) = 3559.1653
############################
13 columns: k_central k_mean P_0(k) sigma^{lin}_{P_0(k)} P^img_1(k) sigma^{lin}_{P_1(k)} P_2(k) sigma^{lin}_{P_2(k)} P^img_3(k) sigma^{lin}_{P_3(k)} P_4(k) sigma^{lin}_{P_4(k)} N_modes
### header ###
0.00050000 0 0 0 0 0 0 0 0 0 0 0 0
0.00150000 0.00179520 25763.86045076 0 -19838.06293107 0 -21111.71245496 0 45457.98315919 0 21757.45043838 0 3
0.00250000 0.00253879 53897.75202896 0 -24776.20907694 0 15496.93653943 0 -39459.44046544 0 16005.15624860 0 6
0.00350000 0.00331552 59024.01697350 0 -14092.41213618 0 -2235.40272996 0 -23516.95357532 0 28140.64569633 0 7
0.00450000 0.00420575 65528.23274171 0 -146.14472251 0 16464.32555883 0 -5547.78835038 0 37784.52989013 0 24
0.00550000 0.00557378 65286.74533742 0 1665.62089479 0 11252.91443644 0 25532.33813881 0 6484.11949867 0 45
0.00650000 0.00659388 63511.96239224 0 4669.76406459 0 48165.72019359 0 44902.26317655 0 -4934.24868753 0 40
0.00750000 0.00754703 62393.76830880 0 6218.20654583 0 -8966.77831416 0 14417.38486961 0 -13476.45870652 0 57
0.00850000 0.00846663 53813.93453008 0 -3336.65615642 0 9913.25171198 0 -13292.54739128 0 1090.81443862 0 75
0.00950000 0.00948925 65645.59938479 0 -15203.07703874 0 10926.12584174 0 -22395.21634794 0 5886.38004334 0 112
0.01050000 0.01054430 70606.00090354 0 -1670.84703211 0 35305.43636323 0 -14975.31931722 0 12345.86361929 0 105
0.01150000 0.01145670 82800.61656581 0 4202.40123399 0 32786.48246699 0 -19783.47636972 0 -2029.98895993 0 144
0.01250000 0.01249090 73908.54322720 0 8873.61577313 0 36238.27972920 0 -11921.35068574 0 15953.22704520 0 169
0.01350000 0.01339930 75796.37460878 0 5182.44592067 0 47699.57531873 0 -2494.50620304 0 7886.94983622 0 180
0.01450000 0.01448870 78839.27091544 0 -2896.45373861 0 46861.40032996 0 14455.69511348 0 -12530.99289025 0 267
0.01550000 0.01550050 79111.98227572 0 -1257.12961526 0 51620.61770676 0 17250.23917446 0 -120.11700856 0 238
0.01650000 0.01653350 79516.45430135 0 3704.75559502 0 35209.99292330 0 11018.86763442 0 -6765.64442951 0 315
0.01750000 0.01747870 74008.63704356 0 1817.07922599 0 30588.51526724 0 7864.11870244 0 -28797.45600458 0 297
0.01850000 0.01844180 74494.93354960 0 -6452.74053014 0 25911.34381735 0 14179.99422550 0 -13164.44059313 0 388
0.01950000 0.01947590 81779.96966403 0 -314.13735636 0 20212.75040294 0 1799.02026421 0 -18003.60015512 0 399
0.02050000 0.02045430 80799.07240834 0 -263.72506146 0 10669.28112292 0 7376.53780673 0 -17391.18986940 0 462
0.02150000 0.02154770 77413.81981829 0 6821.55966984 0 19745.94118858 0 250.53460090 0 19.34844473 0 571
0.02250000 0.02255340 73164.37227614 0 13703.10919556 0 25706.17363846 0 7805.31358533 0 6752.15833788 0 510
0.02350000 0.02348930 62121.38911826 0 5845.34600756 0 22487.55953693 0 1348.37664409 0 21980.44706023 0 555
0.02450000 0.02439640 56663.17587566 0 4228.10009990 0 24737.89883307 0 14099.05553107 0 18015.22609618 0 592
0.02550000 0.02547300 58470.73290231 0 -304.54318690 0 27930.93586427 0 228.71104869 0 10321.75406384 0 837
0.02650000 0.02652900 59171.05744709 0 -656.58775451 0 26387.56450780 0 3410.36462274 0 11001.08548076 0 723
0.02750000 0.02749970 57099.42547352 0 875.71681330 0 25419.17897916 0 -3466.44594795 0 7744.28293093 0 826
0.02850000 0.02848090 59383.42463711 0 -1363.05854680 0 22349.15547669 0 1475.92982600 0 4634.62050561 0 831
0.02950000 0.02946900 57451.52540275 0 -308.90789735 0 21985.65105290 0 2223.37818521 0 -9915.63226182 0 996
0.03050000 0.03053250 60247.50886596 0 2282.93622041 0 18905.88390459 0 -4763.07054584 0 -19806.61752859 0 1041
0.03150000 0.03150510 56675.13398647 0 3491.08187067 0 18307.31402489 0 -4642.92474923 0 -14791.96161822 0 1036
0.03250000 0.03246190 55320.87793790 0 4520.58663231 0 24459.09769413 0 -10093.59773863 0 -16701.93764944 0 1059
0.03350000 0.03345080 52526.33387692 0 1322.71099516 0 23744.15768059 0 -305.20309746 0 -6218.06260560 0 1302
0.03450000 0.03451200 52334.22904132 0 -1835.32641729 0 24861.13380830 0 6215.36095835 0 -16063.72884689 0 1339
0.03550000 0.03553350 54865.91611110 0 121.52097935 0 26540.25186705 0 8020.29384401 0 -17410.56643783 0 1365
0.03650000 0.03647120 51483.98521849 0 3061.80783745 0 25907.68995016 0 3486.46471122 0 -12547.82282398 0 1308
0.03750000 0.03744890 49327.09634382 0 5355.62815316 0 20915.95375217 0 3150.79611202 0 -3295.48925275 0 1579
0.03850000 0.03847530 44919.64672651 0 2863.52464460 0 22007.02063980 0 -320.42643686 0 -5915.82135503 0 1662
0.03950000 0.03950240 43280.38903711 0 2683.26719655 0 19942.80712386 0 1412.12001807 0 -3903.53704249 0 1683
0.04050000 0.04050350 40885.55590209 0 2803.00331714 0 18903.55871638 0 534.85086483 0 -6557.71724174 0 1822
0.04150000 0.04152450 38152.46324385 0 636.73175442 0 17647.40346570 0 2608.97189702 0 -2714.07040420 0 1887
0.04250000 0.04250150 40264.06631001 0 -3085.93443323 0 16263.47358662 0 1766.48977389 0 -9404.01334892 0 1920
0.04350000 0.04349210 40888.65615303 0 -2213.25808032 0 18188.17580985 0 2668.61851082 0 -5583.18657283 0 2005
0.04450000 0.04448520 42706.06754877 0 460.25107636 0 15210.38477312 0 1388.30344739 0 -12415.84071214 0 2151
0.04550000 0.04548030 41245.84935168 0 1568.23979801 0 12875.89580836 0 157.81052394 0 -7944.26018948 0 2274
0.04650000 0.04648670 40176.92711369 0 1624.99653503 0 14135.59420297 0 752.21720951 0 -4661.31588075 0 2311
0.04750000 0.04749250 38696.44656219 0 312.32370955 0 12103.82259875 0 2823.19923761 0 -5752.21668351 0 2568
0.04850000 0.04851840 37552.45396193 0 934.18311727 0 13100.88544867 0 3165.31192986 0 -5214.66638589 0 2493
0.04950000 0.04949480 37588.66046409 0 357.29506404 0 9763.99677343 0 3361.01527102 0 -2268.47576419 0 2644
0.05050000 0.05050630 35370.09874017 0 993.10892273 0 9721.75585424 0 3739.13516358 0 -3131.70742403 0 2829
0.05150000 0.05149060 35871.12143822 0 -5.49534982 0 9782.31039868 0 117.41203961 0 -2083.68973530 0 2784
0.05250000 0.05249300 35624.43004126 0 129.92930282 0 11343.37533021 0 -1558.18612708 0 -2159.00368871 0 3055
0.05350000 0.05348950 35549.91329523 0 1025.53422596 0 11279.15584626 0 -757.21193523 0 1987.39372635 0 3009
0.05450000 0.05448610 35720.53782068 0 -35.80335881 0 12517.37393073 0 -2343.86722388 0 -1914.86999879 0 3336
0.05550000 0.05550870 35405.97307259 0 857.67667447 0 12173.79969161 0 -1295.37342518 0 326.29476901 0 3349
0.05650000 0.05647670 36031.55942484 0 1556.75779718 0 15795.77858628 0 -144.69314073 0 -375.11929253 0 3324
0.05750000 0.05747970 34790.46253592 0 866.61204060 0 16325.36788236 0 -1660.10687703 0 -204.90555033 0 3639
0.05850000 0.05849280 34028.46514190 0 550.78172578 0 16080.66950386 0 2198.27722484 0 759.72756743 0 3846
0.05950000 0.05951020 33827.28099994 0 469.67805371 0 15709.19300620 0 2114.48187062 0 -722.37729412 0 3787
0.06050000 0.06049470 33060.63322950 0 -171.74725919 0 13272.83865310 0 3139.65735325 0 1227.01289175 0 3930
0.06150000 0.06148310 33809.45455698 0 64.12359762 0 15891.77564246 0 1051.29066795 0 -1942.39579829 0 4083
0.06250000 0.06249100 31685.11831728 0 965.99169201 0 11371.72048174 0 1565.16169171 0 -208.40772667 0 4303
0.06350000 0.06350600 32328.53111249 0 890.86043196 0 11797.89426401 0 696.49352039 0 345.73666416 0 4470
0.06450000 0.06451750 31386.94060991 0 -969.51047684 0 8222.45235055 0 931.41171437 0 -1629.60262216 0 4479
0.06550000 0.06550280 32010.09105071 0 -57.26993928 0 9972.40007116 0 716.59421887 0 -3817.49400632 0 4636
0.06650000 0.06648880 31212.55149402 0 1935.55310155 0 8169.63736116 0 -1228.23084748 0 -4725.35820750 0 4653
0.06750000 0.06749660 29978.09799999 0 1831.32930803 0 7223.07538474 0 -1535.21105308 0 -3878.32535888 0 5220
0.06850000 0.06852730 28648.53323577 0 805.47177019 0 8808.97554084 0 -463.32918266 0 -5782.63235979 0 5029
0.06950000 0.06949320 28347.80889369 0 122.53298984 0 9550.24554280 0 266.23847919 0 -5948.25219442 0 5040
0.07050000 0.07048030 27907.01964266 0 1078.12112545 0 9054.43790975 0 1028.62672628 0 -5075.91908359 0 5475
0.07150000 0.07148790 27200.16242624 0 426.05309393 0 8437.26652436 0 1047.34892032 0 -2467.57830908 0 5509
0.07250000 0.07249820 27124.20627798 0 -361.32206857 0 8990.48416159 0 1411.65498043 0 -2151.40807389 0 5916
0.07350000 0.07351270 27211.23475106 0 391.44986441 0 9966.74211318 0 1418.17657975 0 -1240.64292360 0 5721
0.07450000 0.07449140 27166.83472853 0 665.56962441 0 8259.83251914 0 31.39269822 0 -649.83031468 0 6028
0.07550000 0.07549160 26254.58588673 0 317.27303875 0 8477.81337784 0 1056.32636128 0 -170.95890966 0 6183
0.07650000 0.07648840 25640.40402904 0 476.08450085 0 7472.22483781 0 1402.19921503 0 244.07279214 0 6330
0.07750000 0.07749960 25819.88641435 0 23.86108143 0 6730.20191777 0 1469.70717945 0 -2116.06521307 0 6583
0.07850000 0.07848650 25192.30704363 0 576.83158438 0 6618.06141200 0 696.81240335 0 -437.30700487 0 6549
0.07950000 0.07947320 24766.57615435 0 834.94519162 0 4541.64619411 0 -30.80121463 0 -2633.54138579 0 6828
0.08050000 0.08048110 24525.19947330 0 58.48424114 0 5865.49763873 0 5.94838506 0 433.52469872 0 7147
0.08150000 0.08149960 24392.55302197 0 294.26031885 0 6349.13678681 0 -584.23896968 0 -319.42106976 0 7386
0.08250000 0.08250610 24299.87766324 0 855.60504250 0 8359.18448973 0 -519.95415902 0 1257.72752080 0 7227
0.08350000 0.08350160 23839.60112053 0 607.23951003 0 9125.42258416 0 -590.73731712 0 1355.13076223 0 7798
0.08450000 0.08449610 22906.53630806 0 718.14102265 0 9838.93426780 0 -303.04510136 0 1889.50330263 0 7371
0.08550000 0.08548940 22505.16453339 0 1075.44494454 0 10418.65905065 0 302.10948991 0 2386.70604861 0 8256
0.08650000 0.08650700 21876.14576044 0 389.99828262 0 9820.79779975 0 1358.80677407 0 2771.90115672 0 8037
0.08750000 0.08749060 21660.45687297 0 202.51946433 0 9248.67970404 0 1868.24443898 0 2954.93775830 0 8155
0.08850000 0.08849210 21311.23574819 0 -392.99223925 0 7781.85132904 0 1900.85243557 0 2559.68897925 0 8718
0.08950000 0.08949900 21281.45119443 0 89.50701299 0 6737.44321820 0 1654.69251020 0 1870.74678438 0 8571
0.09050000 0.09049190 21172.94241121 0 427.32198235 0 6683.34383913 0 680.45968682 0 1796.26325533 0 8932
0.09150000 0.09150830 20339.86069185 0 990.30319562 0 5921.32430046 0 -370.62392865 0 990.84573953 0 9285
0.09250000 0.09250820 19529.03434538 0 1119.35667754 0 6101.10563854 0 -1482.35177440 0 1001.63572007 0 9204
0.09350000 0.09350330 19190.22120593 0 405.93246527 0 6768.82218673 0 -1056.52344866 0 826.36413989 0 9349
0.09450000 0.09448040 18555.66627058 0 272.02930507 0 7097.41557038 0 -310.05499020 0 578.17797908 0 9564
0.09550000 0.09549270 18982.17222259 0 164.00659691 0 7482.46673827 0 -298.28621615 0 -1261.23744777 0 10155
0.09650000 0.09649430 18311.52150833 0 -9.35067796 0 6846.43918371 0 445.76515380 0 -236.38749148 0 9913
0.09750000 0.09749140 18633.39399080 0 311.45342482 0 6470.05764615 0 1198.01447305 0 -1049.64864218 0 10476
0.09850000 0.09850240 17874.60757098 0 98.96665369 0 5709.12319532 0 993.27611483 0 -388.38947383 0 10575
0.09950000 0.09950330 17816.81003543 0 271.22213260 0 5496.74493297 0 1429.90217173 0 -666.69900154 0 10882
0.10050000 0.10051200 17581.63385628 0 333.44859808 0 5029.29352378 0 340.97002833 0 -1367.22174093 0 10875
0.10150000 0.10150300 17127.33636897 0 367.56907424 0 4904.33126587 0 -156.93913198 0 -1040.67784461 0 11118
0.10250000 0.10250800 16903.45396114 0 257.01744709 0 4656.22261134 0 60.63891555 0 -625.58303056 0 11575
0.10350000 0.10349800 16642.25781867 0 -147.86093286 0 4507.78702482 0 233.37249744 0 404.39894828 0 11364
0.10450000 0.10450100 17033.33233126 0 69.66906078 0 4546.73946353 0 560.13451855 0 -1341.14641598 0 12093
0.10550000 0.10551000 16516.36548548 0 529.56493696 0 4943.29477691 0 -148.86187102 0 -427.05403209 0 12067
0.10650000 0.10649700 16202.90796986 0 783.54303088 0 4861.44815185 0 -361.53133551 0 -940.69696596 0 12054
0.10750000 0.10749900 15599.90916024 0 272.79108102 0 5113.00029940 0 -27.49712218 0 144.42519047 0 12807
0.10850000 0.10850100 15636.33710889 0 26.06436335 0 5408.76423996 0 37.00293448 0 -502.02695790 0 12736
0.10950000 0.10950300 15705.42841576 0 5.72377188 0 5705.67970230 0 -152.31532914 0 58.13856316 0 12933
0.11050000 0.11050200 15706.42492499 0 248.85382200 0 5707.36269567 0 -67.18321313 0 -659.17092789 0 13428
0.11150000 0.11150900 15417.65869372 0 225.17897707 0 5323.67342373 0 -297.18230536 0 -807.63087353 0 13453
0.11250000 0.11250000 15394.51753485 0 401.15254264 0 5833.97472997 0 -99.38009430 0 -444.32353711 0 13668
0.11350000 0.11349100 15232.30797626 0 -9.64641976 0 5574.80482294 0 168.79094847 0 -1658.04742462 0 13791
0.11450000 0.11448600 14735.49276165 0 100.80587757 0 5151.78665324 0 187.69694309 0 -1395.25686737 0 14205
0.11550000 0.11549300 14879.76515403 0 395.44365197 0 5156.20451085 0 20.81862802 0 -2004.60011912 0 14776
0.11650000 0.11649800 14535.08368243 0 276.16814009 0 5212.44084860 0 116.77095200 0 -1431.38586326 0 14553
0.11750000 0.11747300 14206.56780506 0 281.97778892 0 5125.06913346 0 140.73699907 0 -1100.34328136 0 14568
0.11850000 0.11849100 13967.29486573 0 342.87446819 0 4718.92518678 0 504.33885933 0 -349.72823726 0 16015
0.11950000 0.11950300 14050.22657862 0 55.15291077 0 5101.85046831 0 847.82341262 0 -646.33810343 0 15270
0.12050000 0.12050700 13649.62986668 0 103.66519473 0 5039.19218216 0 566.65058171 0 51.51886304 0 15999
0.12150000 0.12150000 13830.77310072 0 232.24865647 0 4916.27830435 0 381.77375975 0 522.21512775 0 15670
0.12250000 0.12250700 13485.64873612 0 201.71561355 0 4576.50187264 0 101.53598667 0 510.67665805 0 16887
0.12350000 0.12352200 13628.03883329 0 4.68614003 0 4882.14232694 0 367.94442605 0 1513.37642854 0 16407
0.12450000 0.12449800 13518.64426408 0 -108.37691183 0 4504.66462922 0 646.11222800 0 991.92529120 0 16306
0.12550000 0.12549900 13554.40787324 0 41.03292855 0 4493.32656860 0 235.78626425 0 678.08578038 0 17523
0.12650000 0.12650100 13482.21631542 0 240.25394731 0 4341.75751416 0 -52.70902724 0 349.22333925 0 17154
0.12750000 0.12750600 13202.30794401 0 474.45133294 0 4557.88929462 0 -85.00832741 0 1015.36761731 0 18007
0.12850000 0.12850300 12682.01940078 0 520.91191512 0 4372.51643251 0 68.87617160 0 603.36087465 0 17496
0.12950000 0.12949900 12459.02277893 0 209.67329339 0 4421.27895101 0 281.51275128 0 942.30245306 0 18405
0.13050000 0.13049000 12290.94488819 0 -106.09346629 0 3972.21867334 0 664.00289044 0 1053.68450458 0 18100
0.13150000 0.13148800 12469.76293401 0 -138.11064363 0 3356.22095438 0 941.90495660 0 682.49920905 0 19059
0.13250000 0.13249300 12629.53658114 0 -219.99491459 0 3339.87820295 0 297.86325334 0 306.22618028 0 18957
0.13350000 0.13349100 12576.83231500 0 121.30506902 0 2950.22094793 0 -210.80156329 0 164.05310068 0 19468
0.13450000 0.13450700 12392.58883002 0 325.56067388 0 3236.39625519 0 -664.99497075 0 443.19858891 0 19953
0.13550000 0.13551000 12342.98481483 0 347.02548277 0 3754.07172976 0 -596.46503075 0 658.12902213 0 19956
0.13650000 0.13649900 12073.92732174 0 277.74262468 0 4328.98005132 0 -374.20693297 0 178.77597099 0 19723
0.13750000 0.13749600 11902.08484056 0 354.84475856 0 4470.46221785 0 -35.43631124 0 796.26956103 0 20946
0.13850000 0.13851100 11684.95655086 0 270.35184786 0 4624.66648560 0 401.56886206 0 845.33878293 0 20955
0.13950000 0.13949800 11557.73553870 0 134.02274130 0 4541.53547086 0 92.51381351 0 628.66778025 0 20506
0.14050000 0.14048300 11440.81178861 0 76.15157479 0 4528.87980360 0 276.07181087 0 527.69039237 0 21447
0.14150000 0.14148400 11187.47699676 0 74.94867742 0 4116.69036757 0 -6.83904287 0 379.57922497 0 21771
0.14250000 0.14249400 11175.07599296 0 88.72187443 0 4035.58558828 0 460.45037821 0 366.54709866 0 22470
0.14350000 0.14350900 11072.87843489 0 113.05286533 0 3642.79486533 0 452.66099770 0 -105.97100637 0 22519
0.14450000 0.14449900 10908.39904971 0 113.38060614 0 3237.73600649 0 238.75696899 0 -330.07153901 0 22218
0.14550000 0.14550500 10787.16816527 0 111.76626118 0 2847.68014778 0 306.03020013 0 -278.38924845 0 23559
0.14650000 0.14650700 10580.91289855 0 201.53734912 0 2798.48580861 0 58.80090963 0 -352.92481743 0 23044
0.14750000 0.14750500 10620.06463910 0 146.13475742 0 2862.80494349 0 62.88150422 0 -496.43432664 0 23649
0.14850000 0.14849900 10293.36462300 0 274.77302716 0 3063.86728987 0 -169.63687408 0 -410.19531032 0 23640
0.14950000 0.14949500 10190.89025681 0 315.09732692 0 3475.18201223 0 17.23772745 0 -443.26613009 0 24457
0.15050000 0.15050000 9886.74456636 0 261.58367384 0 3340.46503616 0 57.04052071 0 865.85690805 0 24591
0.15150000 0.15149900 9910.89330679 0 134.44791858 0 3395.99274513 0 288.60457533 0 412.01338606 0 25020
0.15250000 0.15250500 9871.45368579 0 -227.39676373 0 3386.62555833 0 542.89601604 0 586.13233723 0 25297
0.15350000 0.15350100 9966.60924528 0 -50.55933537 0 3400.66526620 0 274.39656812 0 247.36902324 0 25452
0.15450000 0.15450400 9973.20835087 0 55.76587467 0 3087.25203988 0 -12.33224466 0 547.79662701 0 26061
0.15550000 0.15549900 9931.43246933 0 108.49970392 0 3051.38877980 0 -224.68625861 0 264.89319173 0 26128
0.15650000 0.15649500 9811.81814432 0 17.42739637 0 3153.14344488 0 116.43435333 0 375.02517777 0 26331
0.15750000 0.15749700 9859.46235801 0 112.67640628 0 3056.88065291 0 170.22702899 0 271.05604772 0 27345
0.15850000 0.15849900 9715.42248445 0 223.90676695 0 3010.70905841 0 121.23974230 0 117.03447333 0 26980
0.15950000 0.15949700 9367.56325562 0 405.53718327 0 2988.61977040 0 -73.52389066 0 425.63123835 0 27777
0.16050000 0.16050000 9299.03663732 0 219.17556255 0 3051.49950304 0 80.54872714 0 725.26717090 0 28224
0.16150000 0.16150500 8990.40665532 0 109.26380505 0 2857.53451687 0 424.60704831 0 798.86712843 0 28075
0.16250000 0.16249700 8944.44543500 0 99.28764039 0 2810.79823381 0 573.10685431 0 752.98341438 0 28590
0.16350000 0.16349900 8898.25169586 0 120.96957757 0 2443.03096496 0 344.93392061 0 628.13187973 0 29163
0.16450000 0.16449100 8746.98159418 0 253.79318610 0 2447.29381002 0 284.15682245 0 981.78193444 0 28996
0.16550000 0.16550500 8444.98393475 0 248.73866982 0 2127.07110394 0 112.02203189 0 1060.28361017 0 30777
0.16650000 0.16650700 8333.59634708 0 125.00765443 0 2158.41685550 0 -1.99959543 0 1348.40986106 0 29211
0.16750000 0.16749900 8237.52178463 0 -37.35924189 0 1900.89672487 0 169.96793659 0 775.80458307 0 30922
0.16850000 0.16850800 8298.58565600 0 -1.25013191 0 2077.28993155 0 69.42668759 0 905.30095798 0 30867
0.16950000 0.16949900 8371.85122933 0 -20.76127337 0 2053.28513134 0 -216.02880784 0 641.32455475 0 30852
0.17050000 0.17049200 8297.77737629 0 84.70129184 0 2095.23817008 0 -182.66014253 0 784.67572971 0 31257
0.17150000 0.17149500 8304.01109516 0 57.49924712 0 2162.28109686 0 -185.50573001 0 285.53532689 0 32608
0.17250000 0.17250900 8273.91651631 0 115.07245738 0 2340.95520246 0 -22.08807006 0 -5.17960033 0 32361
0.17350000 0.17350400 8110.96511195 0 152.46148382 0 2416.33558982 0 -394.09725727 0 -210.55022152 0 32508
0.17450000 0.17449800 7962.65132100 0 393.26794014 0 2459.45122267 0 -239.13010634 0 -171.65314443 0 32791
0.17550000 0.17549800 7767.41301748 0 130.78297906 0 2421.80531828 0 -146.40713661 0 -133.05834181 0 33633
0.17650000 0.17650100 7718.15224436 0 -20.31040831 0 2497.54002004 0 175.89827377 0 -345.18526238 0 33984
0.17750000 0.17750300 7810.06361268 0 13.05283156 0 2510.19568731 0 421.74595957 0 -285.83649412 0 34069
0.17850000 0.17849800 7822.56426740 0 -66.80919000 0 2194.18046466 0 232.20104547 0 -346.52058476 0 34536
