### header ###
fiducial parameters:
Omega_m = 0.31
Omega_nu = 0
Omega_de = 0.69
Omega_k = 0
H_0 = 100
w_de = -1
zeff = 0
beta = 0
fgrowth = 0
b_1 = 2
gamma = 0.55
Lx = 3500 Ly = 3500 Lz = 3500
nx = 700 ny = 700 nz = 700
xoffset = -685.467585 yoffset = -31.7331281 zoffset = 572.489161
bins = 400 dk = 0.001
kx_ny = 0.628318531 ky_ny = 0.628318531 kz_ny = 0.628318531
############################
A(data) = 8.05221529 (not used)
A(ran) = 8.05067091 (used)
Ngal = 478323
weighted Ngal = 0
Nran = 23820508
weighted Nran = 0
SN(data) = 3490.48687
SN(ran) = 70.1242633
SN(data+ran) = 3560.61114
############################
13 columns: k_central k_mean P_0(k) sigma^{lin}_{P_0(k)} P^img_1(k) sigma^{lin}_{P_1(k)} P_2(k) sigma^{lin}_{P_2(k)} P^img_3(k) sigma^{lin}_{P_3(k)} P_4(k) sigma^{lin}_{P_4(k)} N_modes
### header ###
0.00050000 0 0 0 0 0 0 0 0 0 0 0 0
0.00150000 0.00179520 30684.18015367 0 -22549.12166292 0 22117.19027174 0 -13897.98211236 0 -109882.85873273 0 3
0.00250000 0.00253879 45633.36878432 0 -8037.73275560 0 11481.11505095 0 34365.72815587 0 81210.51999860 0 6
0.00350000 0.00331552 41689.18523742 0 5664.60137722 0 25214.78386301 0 -46879.78038916 0 13335.61873483 0 7
0.00450000 0.00420575 32661.14375004 0 15537.12907852 0 5292.80378213 0 6084.18712622 0 26496.95907701 0 24
0.00550000 0.00557378 42269.37505792 0 -19800.85991968 0 7888.06814103 0 15497.93304866 0 -17518.96449781 0 45
0.00650000 0.00659388 43728.26457602 0 -7970.37980373 0 -3497.49274674 0 -7463.42233958 0 -19314.56341365 0 40
0.00750000 0.00754703 62496.96237611 0 1478.25501421 0 14313.30501631 0 -16471.41184671 0 -50978.42286727 0 57
0.00850000 0.00846663 50665.74041440 0 43.88748461 0 5253.04306371 0 -2116.57454001 0 -5771.30537150 0 75
0.00950000 0.00948925 51138.19651441 0 1403.41717076 0 9469.73866905 0 -3726.52378561 0 -12936.90431811 0 112
0.01050000 0.01054430 60825.37349824 0 -7384.49880827 0 4679.47449345 0 -3200.40012721 0 -14893.93772980 0 105
0.01150000 0.01145670 62676.77693117 0 -6667.69864416 0 -12.31674341 0 16120.08698022 0 -14148.54882301 0 144
0.01250000 0.01249090 66373.27257187 0 -7159.46487866 0 -7615.94361396 0 3616.02198392 0 -2703.60705724 0 169
0.01350000 0.01339930 79422.89315663 0 -7627.50312107 0 -5086.96926376 0 -11472.14646785 0 -19213.58381130 0 180
0.01450000 0.01448870 82218.32300360 0 -6918.07712529 0 10124.41201860 0 -18779.99157140 0 -15525.17096771 0 267
0.01550000 0.01550050 88638.83199618 0 -1219.59443412 0 16215.75186665 0 -26815.28841554 0 -21091.78227029 0 238
0.01650000 0.01653350 88218.08365308 0 7158.10298271 0 28412.13910089 0 -18617.33911982 0 -24171.99231159 0 315
0.01750000 0.01747870 82021.89996131 0 11655.28272035 0 44449.29436821 0 -10145.16155531 0 -13520.30511280 0 297
0.01850000 0.01844180 78881.78864274 0 7126.70186952 0 34161.11159322 0 7058.79530141 0 -20210.09304498 0 388
0.01950000 0.01947590 75904.55122226 0 -400.71186412 0 36797.43213254 0 13241.28252737 0 -14083.00066008 0 399
0.02050000 0.02045430 77419.46670395 0 -7375.45271890 0 36336.04835735 0 12873.12772715 0 -21825.32378952 0 462
0.02150000 0.02154770 79769.78909320 0 2431.11714346 0 28146.40330524 0 -359.65125476 0 -18143.00072459 0 571
0.02250000 0.02255340 77264.78632623 0 3672.13652610 0 20744.99705697 0 10786.42631950 0 -2580.39422666 0 510
0.02350000 0.02348930 72148.26502753 0 1460.62787310 0 20374.62779178 0 7275.71321693 0 -8621.46572004 0 555
0.02450000 0.02439640 81298.87715066 0 1117.52974395 0 17619.39048391 0 -4011.23754600 0 -23804.39112761 0 592
0.02550000 0.02547300 76114.37177757 0 -636.24900105 0 23233.50205996 0 -8682.78425488 0 -24843.75025833 0 837
0.02650000 0.02652900 71885.40803634 0 8510.45459141 0 26350.58294290 0 -13786.48380144 0 -19413.21782778 0 723
0.02750000 0.02749970 70209.83312153 0 5182.86666901 0 25150.67510231 0 -4319.77894940 0 -25671.40653853 0 826
0.02850000 0.02848090 66444.02472746 0 360.94671676 0 28468.16506447 0 -1995.67582531 0 -19071.63660713 0 831
0.02950000 0.02946900 68780.17454095 0 4378.22975211 0 30991.43716739 0 4756.88111626 0 -28906.07551105 0 996
0.03050000 0.03053250 61900.38551488 0 5069.72965401 0 31588.89981461 0 2163.90872861 0 -21163.75238161 0 1041
0.03150000 0.03150510 57859.20840257 0 6130.14834654 0 33963.58131846 0 7046.03998322 0 -10434.51461979 0 1036
0.03250000 0.03246190 56635.71651011 0 3098.98870419 0 33210.99540054 0 632.62170744 0 -3947.81526944 0 1059
0.03350000 0.03345080 51912.37346573 0 2556.31192018 0 34599.46493280 0 11694.25730371 0 -4313.15769915 0 1302
0.03450000 0.03451200 48962.26324105 0 507.13683581 0 30196.66569191 0 7675.30234731 0 -986.98924880 0 1339
0.03550000 0.03553350 47809.52350418 0 125.99752027 0 25376.10763561 0 12280.42617961 0 6179.67485546 0 1365
0.03650000 0.03647120 50363.02305385 0 -1911.49293972 0 22232.45317310 0 11720.05582054 0 5051.41602876 0 1308
0.03750000 0.03744890 49238.51774527 0 -1132.48845478 0 14571.29018459 0 6795.79436999 0 6240.19618292 0 1579
0.03850000 0.03847530 50203.69229971 0 3353.15392040 0 16683.11469725 0 -1906.20036845 0 3552.87651548 0 1662
0.03950000 0.03950240 45381.03050170 0 3179.79453072 0 14340.43221212 0 -96.23854358 0 6437.60466211 0 1683
0.04050000 0.04050350 45145.63287606 0 2294.39607660 0 17480.87570043 0 -979.70808800 0 8183.07916349 0 1822
0.04150000 0.04152450 43068.57546333 0 1012.66043389 0 17004.54428673 0 2599.06216630 0 6070.06991208 0 1887
0.04250000 0.04250150 43229.45634294 0 -439.51704091 0 19959.85850408 0 559.54879257 0 4195.68033283 0 1920
0.04350000 0.04349210 41556.31733960 0 2448.93251409 0 19289.09706656 0 2890.44146623 0 4693.21524855 0 2005
0.04450000 0.04448520 39612.57071769 0 1441.52811279 0 19469.68668436 0 -1769.57895252 0 6143.26905145 0 2151
0.04550000 0.04548030 39377.06236879 0 684.49665645 0 18301.99930898 0 1826.10317072 0 3769.00829594 0 2274
0.04650000 0.04648670 39584.22556615 0 -89.87561068 0 17471.90711733 0 -1434.94007952 0 -980.90500631 0 2311
0.04750000 0.04749250 38524.38263451 0 1135.10152343 0 17171.29349850 0 1246.09050742 0 11.83133268 0 2568
0.04850000 0.04851840 39300.88477404 0 -335.16480842 0 14433.21829410 0 1873.41521467 0 -2047.06248480 0 2493
0.04950000 0.04949480 38119.13554615 0 130.26036533 0 13348.46263162 0 3235.87585592 0 658.74132169 0 2644
0.05050000 0.05050630 38596.79563882 0 334.78170598 0 9753.45592020 0 3297.59299446 0 -4297.09175584 0 2829
0.05150000 0.05149060 37722.41414789 0 681.48276964 0 11499.60583340 0 4043.63516842 0 1263.61799760 0 2784
0.05250000 0.05249300 36924.32097497 0 114.62513545 0 7033.98222149 0 1159.47171036 0 -2926.84727024 0 3055
0.05350000 0.05348950 35550.35618822 0 2229.64512106 0 11288.89949210 0 -222.37546443 0 895.73225488 0 3009
0.05450000 0.05448610 34726.79666821 0 1146.82711542 0 8935.69829839 0 -3394.94087427 0 -19.92697370 0 3336
0.05550000 0.05550870 34203.18642754 0 1814.63224220 0 12762.18303247 0 -2205.79533340 0 1404.30295675 0 3349
0.05650000 0.05647670 32924.00074124 0 1675.51955318 0 12315.63617253 0 -1500.41073617 0 861.08030712 0 3324
0.05750000 0.05747970 31857.95730770 0 191.79038158 0 12731.73413922 0 1452.66687156 0 -2133.69235418 0 3639
0.05850000 0.05849280 31694.64051662 0 -695.94544031 0 12127.29592737 0 3153.44239765 0 11.31979128 0 3846
0.05950000 0.05951020 32500.92720992 0 -189.23046008 0 13056.37470290 0 1685.05282485 0 -2524.49005865 0 3787
0.06050000 0.06049470 31755.87047287 0 456.20192718 0 10586.59300118 0 438.64564895 0 -625.25750421 0 3930
0.06150000 0.06148310 32779.61762560 0 -455.80332348 0 11981.69485600 0 1283.89142435 0 -105.82374445 0 4083
0.06250000 0.06249100 33104.36891253 0 -1269.24273861 0 9742.98150092 0 1135.31189760 0 2491.99278531 0 4303
0.06350000 0.06350600 33855.51542823 0 -450.61704654 0 9867.41228723 0 1780.40768619 0 -1705.45911949 0 4470
0.06450000 0.06451750 34195.43580016 0 1341.72217687 0 9664.48979028 0 -645.14672128 0 1681.96364623 0 4479
0.06550000 0.06550280 32829.11091754 0 1902.05931897 0 10210.96438170 0 -271.19888071 0 2057.39296385 0 4636
0.06650000 0.06648880 30856.46552785 0 1131.01583558 0 9429.16967091 0 -632.49105401 0 567.81871198 0 4653
0.06750000 0.06749660 30598.03746658 0 720.54260990 0 12168.04208270 0 -126.18464256 0 1301.14210641 0 5220
0.06850000 0.06852730 30219.69612753 0 693.34676568 0 12459.46567193 0 -1270.72643014 0 -791.86609745 0 5029
0.06950000 0.06949320 29787.43256661 0 193.29068159 0 12974.88239223 0 -484.13075930 0 1488.31975747 0 5040
0.07050000 0.07048030 30219.91757403 0 832.81155463 0 14132.60467527 0 -1547.14701923 0 1030.10598888 0 5475
0.07150000 0.07148790 29568.08981195 0 296.06289333 0 14620.22986029 0 -818.83163731 0 -945.78248475 0 5509
0.07250000 0.07249820 28955.45807974 0 630.69955185 0 13930.53474733 0 1690.71078283 0 -1523.72905224 0 5916
0.07350000 0.07351270 27883.54631405 0 365.06672883 0 12940.77963179 0 3180.64709973 0 -1710.71847378 0 5721
0.07450000 0.07449140 28236.08913627 0 -645.54200327 0 8987.50570622 0 4214.97939499 0 -3462.80315308 0 6028
0.07550000 0.07549160 28282.26073076 0 -648.63339636 0 7684.80240201 0 2817.82916007 0 -5341.53308366 0 6183
0.07650000 0.07648840 28247.60435408 0 488.68812820 0 5875.76168384 0 1128.54670714 0 -6809.43547417 0 6330
0.07750000 0.07749960 27434.78498915 0 856.59380111 0 6144.47593486 0 -1087.12071106 0 -4975.12771076 0 6583
0.07850000 0.07848650 26967.64360505 0 1035.65100914 0 5689.34802319 0 -2362.50194655 0 -3800.94088072 0 6549
0.07950000 0.07947320 25932.71340425 0 1350.48038581 0 7620.79329223 0 227.43994580 0 -3879.01184302 0 6828
0.08050000 0.08048110 25599.99004345 0 743.77566907 0 7826.47279806 0 405.95571715 0 -2043.43076226 0 7147
0.08150000 0.08149960 24918.04555787 0 925.24664391 0 8416.17374558 0 277.70387154 0 -3153.02164931 0 7386
0.08250000 0.08250610 24196.90504243 0 923.05210913 0 9223.85555180 0 -273.94703173 0 -1743.90223126 0 7227
0.08350000 0.08350160 22951.04705383 0 757.22854372 0 8648.22752913 0 -6.65468866 0 -2103.26560558 0 7798
0.08450000 0.08449610 22623.19551595 0 369.75585839 0 9008.01165178 0 -475.22085952 0 -1004.69057449 0 7371
0.08550000 0.08548940 22546.57502821 0 -202.49953414 0 8497.14565698 0 909.68559861 0 -2124.51339690 0 8256
0.08650000 0.08650700 22587.09973705 0 74.30293944 0 9126.75126314 0 -185.32303665 0 -3469.46869262 0 8037
0.08750000 0.08749060 22149.85362996 0 960.21415292 0 9090.98765397 0 -379.26144925 0 -3447.73371900 0 8155
0.08850000 0.08849210 21441.55701131 0 1154.40058559 0 9540.75656043 0 155.01144023 0 -1314.26281132 0 8718
0.08950000 0.08949900 20369.42379912 0 431.15411397 0 9284.05578184 0 1407.83502837 0 -802.81773393 0 8571
0.09050000 0.09049190 20833.79710201 0 -209.90138328 0 9274.10176182 0 1761.96119304 0 499.58551028 0 8932
0.09150000 0.09150830 20698.93618572 0 180.06921853 0 9128.14637607 0 1614.01278881 0 1534.18132687 0 9285
0.09250000 0.09250820 20729.16363248 0 594.10441110 0 8869.37507273 0 734.42398352 0 1746.76996339 0 9204
0.09350000 0.09350330 19551.40044152 0 716.93081754 0 8328.39235441 0 739.03228511 0 3247.34678444 0 9349
0.09450000 0.09448040 19398.71308227 0 451.28802942 0 8483.90315649 0 381.77486698 0 3458.96105637 0 9564
0.09550000 0.09549270 19117.69747837 0 -39.94108660 0 8279.68519754 0 733.11966366 0 3081.12904426 0 10155
0.09650000 0.09649430 19131.53788439 0 138.15714739 0 7740.09759215 0 257.38283380 0 2430.72961209 0 9913
0.09750000 0.09749140 18850.07938750 0 149.81187649 0 7567.23645708 0 321.19042727 0 1423.13698127 0 10476
0.09850000 0.09850240 18795.71427264 0 750.62058027 0 7674.87052664 0 -20.18163717 0 1689.29352526 0 10575
0.09950000 0.09950330 18003.15726213 0 364.47214499 0 7795.60315647 0 86.27201184 0 1442.81250247 0 10882
0.10050000 0.10051200 17542.21637993 0 614.92370345 0 7373.64792995 0 519.24442300 0 1256.46527577 0 10875
0.10150000 0.10150300 17203.73541022 0 666.65803394 0 7146.05629330 0 -51.85081134 0 889.25162316 0 11118
0.10250000 0.10250800 16508.39341161 0 554.84526899 0 7074.81695542 0 433.60331222 0 929.92248668 0 11575
0.10350000 0.10349800 16253.50849428 0 223.24574916 0 6706.35213011 0 63.95064790 0 2001.37807259 0 11364
0.10450000 0.10450100 16093.29195416 0 147.50218954 0 6980.18179520 0 498.38416304 0 1246.74377458 0 12093
0.10550000 0.10551000 15994.96970977 0 -148.26396548 0 6783.94698244 0 621.31243487 0 695.59666208 0 12067
0.10650000 0.10649700 16264.47009585 0 -25.78412281 0 5930.80221051 0 292.00156458 0 737.90290798 0 12054
0.10750000 0.10749900 16255.61223600 0 -82.18953496 0 5785.46687494 0 331.43122049 0 -5.38350827 0 12807
0.10850000 0.10850100 16376.07913003 0 -273.36905638 0 6185.26637949 0 113.17023197 0 -131.57797198 0 12736
0.10950000 0.10950300 16432.99087959 0 -147.49665337 0 5185.15864025 0 212.92523519 0 -364.66148174 0 12933
0.11050000 0.11050200 16479.60536708 0 218.61641015 0 5646.97423611 0 62.05916265 0 -845.86139666 0 13428
0.11150000 0.11150900 16256.60874523 0 534.46222623 0 5157.12351381 0 -150.03110853 0 -762.82228222 0 13453
0.11250000 0.11250000 15837.29980435 0 601.00246946 0 5033.08025886 0 -516.30472076 0 -528.55071201 0 13668
0.11350000 0.11349100 15092.46451380 0 699.62366662 0 5368.46097762 0 278.17887428 0 -433.24899783 0 13791
0.11450000 0.11448600 14820.30676976 0 244.09825849 0 5203.94837546 0 892.78369478 0 140.68717361 0 14205
0.11550000 0.11549300 14548.03830247 0 37.54082802 0 4984.69419941 0 806.70190547 0 -415.61189163 0 14776
0.11650000 0.11649800 14453.81281826 0 291.89527026 0 5037.49811647 0 832.10735477 0 248.20719823 0 14553
0.11750000 0.11747300 14426.02128297 0 266.22740687 0 5218.87386932 0 -58.30509092 0 993.07681298 0 14568
0.11850000 0.11849100 14077.57522092 0 295.74290314 0 5657.81404211 0 302.91444792 0 1803.30525391 0 16015
0.11950000 0.11950300 14041.59016526 0 35.41040200 0 5433.16764386 0 -103.80548109 0 1805.77438235 0 15270
0.12050000 0.12050700 13994.20061504 0 121.31171241 0 5480.57933873 0 468.44459673 0 1388.91242525 0 15999
0.12150000 0.12150000 13846.49580196 0 14.01977769 0 5215.20892981 0 352.03128082 0 1094.64657024 0 15670
0.12250000 0.12250700 13713.62790413 0 272.67260715 0 4404.15006451 0 154.74016827 0 597.21462714 0 16887
0.12350000 0.12352200 13718.49972705 0 311.64165435 0 4538.28020737 0 -17.42916794 0 307.40981180 0 16407
0.12450000 0.12449800 13141.85305050 0 157.82823966 0 3817.37221075 0 234.70671258 0 -194.02145503 0 16306
0.12550000 0.12549900 12823.63443521 0 326.99675440 0 3794.07603933 0 108.74606314 0 -18.50672659 0 17523
0.12650000 0.12650100 12681.79795428 0 192.98397819 0 3677.67268851 0 497.18060133 0 -23.33127069 0 17154
0.12750000 0.12750600 12634.74057381 0 -31.70925599 0 3817.71545282 0 828.23093385 0 432.65109229 0 18007
0.12850000 0.12850300 12560.99889051 0 -16.82107586 0 3543.50932869 0 578.92978993 0 267.62584149 0 17496
0.12950000 0.12949900 12662.53210910 0 131.23030098 0 3542.01456484 0 138.85359662 0 483.55832011 0 18405
0.13050000 0.13049000 12649.79893556 0 139.80803102 0 3860.53213289 0 -304.54650860 0 122.38351345 0 18100
0.13150000 0.13148800 12383.95241666 0 252.39253701 0 4136.80878177 0 -943.39529152 0 427.17582767 0 19059
0.13250000 0.13249300 12364.79729473 0 277.21447479 0 4647.12116033 0 -512.34193571 0 527.73246720 0 18957
0.13350000 0.13349100 12392.14593703 0 92.97121125 0 4623.92463984 0 -331.65709592 0 392.28582493 0 19468
0.13450000 0.13450700 12107.58718919 0 -16.23335686 0 5021.58718570 0 -23.40667322 0 327.93125862 0 19953
0.13550000 0.13551000 12224.28949278 0 272.27511069 0 5228.14140519 0 195.66458803 0 5.66589684 0 19956
0.13650000 0.13649900 12068.05898959 0 134.35601828 0 4875.18890695 0 118.90680346 0 554.51642094 0 19723
0.13750000 0.13749600 12030.74525495 0 227.42001561 0 4799.47634984 0 474.11030534 0 723.24868608 0 20946
0.13850000 0.13851100 11822.80699485 0 -21.27414346 0 4643.71088429 0 549.47076252 0 427.58550368 0 20955
0.13950000 0.13949800 11763.90222682 0 116.67240831 0 4326.44448894 0 474.93851524 0 338.31599207 0 20506
0.14050000 0.14048300 11697.80044765 0 84.90136875 0 3810.37450146 0 523.95126828 0 82.71779558 0 21447
0.14150000 0.14148400 11614.42584177 0 -68.49694447 0 3511.32208044 0 601.39775145 0 -44.17005034 0 21771
0.14250000 0.14249400 11455.42725737 0 223.05641240 0 3579.81548177 0 -50.99170966 0 -265.75240413 0 22470
0.14350000 0.14350900 11338.17133754 0 532.90213566 0 3322.51679763 0 -430.53406378 0 -456.22960799 0 22519
0.14450000 0.14449900 10775.57544118 0 633.80644620 0 3574.85508025 0 -423.41345169 0 180.35377727 0 22218
0.14550000 0.14550500 10419.99880196 0 233.78549515 0 3842.92713643 0 -5.96016602 0 62.56583224 0 23559
0.14650000 0.14650700 10241.54614285 0 76.12057228 0 3761.13587300 0 419.05870634 0 89.78592485 0 23044
0.14750000 0.14750500 10281.30686128 0 44.08966526 0 3512.79469964 0 708.55238935 0 -332.18192412 0 23649
0.14850000 0.14849900 10139.02748736 0 -124.36878129 0 3248.09970252 0 582.74088414 0 79.38646521 0 23640
0.14950000 0.14949500 10321.52154502 0 -0.30534482 0 2996.21538522 0 277.32519804 0 -327.38096408 0 24457
0.15050000 0.15050000 10319.41780330 0 -2.06006139 0 2822.55704277 0 186.42694744 0 -367.11953785 0 24591
0.15150000 0.15149900 10192.97185387 0 225.25537611 0 2897.77134526 0 -109.32902105 0 76.51629717 0 25020
0.15250000 0.15250500 10022.79022141 0 316.75153225 0 2711.52376949 0 -140.75914372 0 171.90005727 0 25297
0.15350000 0.15350100 9830.04319097 0 93.99362972 0 2877.80794361 0 226.19541649 0 545.13484012 0 25452
0.15450000 0.15450400 9845.69945826 0 -54.16514867 0 2724.86592089 0 551.89227996 0 77.99965652 0 26061
0.15550000 0.15549900 9859.21876687 0 53.57067555 0 2815.84721393 0 317.91966252 0 192.86328985 0 26128
0.15650000 0.15649500 9707.84901427 0 152.63199763 0 2541.56358352 0 -65.02565992 0 58.37097126 0 26331
0.15750000 0.15749700 9605.45215435 0 193.08916528 0 2744.76288859 0 -211.36071570 0 452.36647386 0 27345
0.15850000 0.15849900 9458.75492282 0 233.71241781 0 2739.75819778 0 -39.87841724 0 564.28110420 0 26980
0.15950000 0.15949700 9288.36291619 0 116.02689177 0 2577.57078383 0 86.47142441 0 167.35154624 0 27777
0.16050000 0.16050000 9194.11528733 0 110.78303874 0 2548.86024558 0 -63.94311872 0 205.29640339 0 28224
0.16150000 0.16150500 9077.33547747 0 118.48273342 0 2556.81017480 0 67.74934110 0 -222.76188856 0 28075
0.16250000 0.16249700 8987.50570622 0 144.94891143 0 2630.08682045 0 -296.68737245 0 -433.54019997 0 28590
0.16350000 0.16349900 8834.67440675 0 302.91555516 0 2667.56663996 0 26.52120747 0 -509.39005391 0 29163
0.16450000 0.16449100 8700.30067275 0 191.53239641 0 2756.70992707 0 -25.67838210 0 -345.37238467 0 28996
0.16550000 0.16550500 8511.97149991 0 151.25570765 0 2668.71816174 0 -53.84394053 0 -235.78183532 0 30777
0.16650000 0.16650700 8343.27355897 0 149.47527782 0 2576.24210485 0 486.91877069 0 52.15330725 0 29211
0.16750000 0.16749900 8316.67783476 0 9.51650817 0 2493.73114031 0 356.01288882 0 34.92100525 0 30922
0.16850000 0.16850800 8376.13621903 0 -96.10002880 0 2025.64860860 0 462.34374575 0 4.13281167 0 30867
0.16950000 0.16949900 8334.40462679 0 25.01503912 0 2275.77242625 0 201.69900506 0 18.09350743 0 30852
0.17050000 0.17049200 8413.22850717 0 92.33931367 0 1965.24907671 0 23.43391114 0 389.26308025 0 31257
0.17150000 0.17149500 8339.33181134 0 0.34159783 0 2217.47663608 0 47.10023038 0 552.11261922 0 32608
0.17250000 0.17250900 8212.56476449 0 76.35087664 0 1999.92759804 0 242.21596327 0 319.83185301 0 32361
0.17350000 0.17350400 8390.79597709 0 -21.20483071 0 1951.97335925 0 399.17502543 0 626.27726532 0 32508
0.17450000 0.17449800 8259.02423943 0 -62.06879558 0 1868.58768104 0 320.70213774 0 300.90924990 0 32791
0.17550000 0.17549800 8401.44755357 0 134.86202352 0 1818.71793006 0 38.58417319 0 375.90653483 0 33633
0.17650000 0.17650100 8199.27797470 0 334.47168089 0 1851.13769713 0 -366.08870441 0 350.51658678 0 33984
0.17750000 0.17750300 7822.18780836 0 393.74515734 0 1882.74918449 0 -332.33250773 0 780.16043565 0 34069
0.17850000 0.17849800 7751.04812140 0 216.67432438 0 2034.27394963 0 -104.57987948 0 583.18599159 0 34536
