### header ###
fiducial parameters:
Omega_m = 0.31
Omega_nu = 0
Omega_de = 0.69
Omega_k = 0
H_0 = 100
w_de = -1
zeff = 0
beta = 0
fgrowth = 0
b_1 = 2
gamma = 0.55
Lx = 3500 Ly = 3500 Lz = 3500
nx = 700 ny = 700 nz = 700
xoffset = -685.467585 yoffset = -31.7331281 zoffset = 572.489161
bins = 400 dk = 0.001
kx_ny = 0.628318531 ky_ny = 0.628318531 kz_ny = 0.628318531
############################
A(data) = 8.04112873 (not used)
A(ran) = 8.03895234 (used)
Ngal = 477867
weighted Ngal = 0
Nran = 23820508
weighted Nran = 0
SN(data) = 3489.85043
SN(ran) = 70.0221904
SN(data+ran) = 3559.87262
############################
13 columns: k_central k_mean P_0(k) sigma^{lin}_{P_0(k)} P^img_1(k) sigma^{lin}_{P_1(k)} P_2(k) sigma^{lin}_{P_2(k)} P^img_3(k) sigma^{lin}_{P_3(k)} P_4(k) sigma^{lin}_{P_4(k)} N_modes
### header ###
0.00050000 0 0 0 0 0 0 0 0 0 0 0 0
0.00150000 0.00179520 101254.52817130 0 -97001.42676196 0 33147.88314907 0 -171822.55100072 0 39226.25730476 0 3
0.00250000 0.00253879 125328.75185474 0 -12709.47876633 0 23596.34214427 0 16156.84709862 0 78463.25476460 0 6
0.00350000 0.00331552 156801.83515174 0 2931.64158688 0 73449.37391697 0 -46305.90179381 0 -45165.12016774 0 7
0.00450000 0.00420575 132109.44357368 0 25795.41657650 0 82052.23813132 0 -9237.88418734 0 72502.02580549 0 24
0.00550000 0.00557378 135425.60485686 0 9798.87459660 0 101840.25415421 0 63503.21525563 0 -1753.82303430 0 45
0.00650000 0.00659388 111305.65247192 0 11088.49041288 0 134195.46956951 0 27254.08464811 0 46978.21335679 0 40
0.00750000 0.00754703 121511.01425727 0 20785.07887281 0 49327.87140656 0 80031.64957516 0 -21039.52089714 0 57
0.00850000 0.00846663 95921.87509214 0 14122.41813644 0 58119.29731256 0 38290.31368784 0 22622.64189971 0 75
0.00950000 0.00948925 81281.71504719 0 13318.78880110 0 -7008.78161020 0 27800.83604765 0 -2682.12674709 0 112
0.01050000 0.01054430 81776.42652008 0 1889.90190632 0 20436.30064102 0 -3972.15223939 0 -25090.44165529 0 105
0.01150000 0.01145670 67542.84224247 0 14377.85667000 0 10560.59518250 0 -29817.43856687 0 -8443.46702625 0 144
0.01250000 0.01249090 61983.87084402 0 10950.35208844 0 25182.12050479 0 -22548.45732343 0 -17895.64498814 0 169
0.01350000 0.01339930 53385.32483635 0 -1241.59514354 0 12282.75136782 0 -4930.27372292 0 -12464.55894134 0 180
0.01450000 0.01448870 66415.01523644 0 -10660.05787635 0 39256.59547477 0 2436.21041287 0 -35579.80857224 0 267
0.01550000 0.01550050 77187.72294549 0 -11565.15399632 0 41257.25384625 0 7162.69799751 0 -16679.57155331 0 238
0.01650000 0.01653350 75163.81269189 0 1371.31850111 0 36210.37747066 0 12453.81878627 0 -28325.33207431 0 315
0.01750000 0.01747870 79958.90440110 0 2932.85954261 0 20018.98471861 0 14180.32639524 0 1231.13179659 0 297
0.01850000 0.01844180 72229.75733820 0 2231.29489745 0 27537.09327047 0 11251.58575746 0 -15686.93763331 0 388
0.01950000 0.01947590 74702.98253294 0 4418.76553328 0 21207.04517165 0 2412.23882964 0 -9218.58512518 0 399
0.02050000 0.02045430 67188.41712502 0 1818.02037360 0 22131.69501725 0 -3871.38301122 0 -4584.36322326 0 462
0.02150000 0.02154770 72243.37629773 0 2335.69584817 0 30536.25389410 0 -5790.50478273 0 -43.85714644 0 571
0.02250000 0.02255340 65249.21015628 0 4529.27840729 0 30062.46911511 0 -16138.35631617 0 5096.81256052 0 510
0.02350000 0.02348930 67457.03172512 0 7517.69887584 0 33274.55054500 0 10902.49750058 0 8762.08424524 0 555
0.02450000 0.02439640 63843.24635081 0 -1211.81058978 0 34068.54695774 0 1652.01300759 0 10246.13008533 0 592
0.02550000 0.02547300 62948.49178222 0 1508.85892001 0 27249.21282518 0 15347.12798463 0 5376.84272751 0 837
0.02650000 0.02652900 62762.80889501 0 1963.67680659 0 30453.10073471 0 10794.21016385 0 14800.15513859 0 723
0.02750000 0.02749970 60617.87813114 0 1741.89814047 0 24848.17918826 0 11893.44842720 0 19542.54258166 0 826
0.02850000 0.02848090 60239.97968508 0 2921.79829012 0 28816.72184976 0 5304.35221692 0 26831.78617952 0 831
0.02950000 0.02946900 57230.30035287 0 1762.71411113 0 30595.38010863 0 8928.11375589 0 30949.91594932 0 996
0.03050000 0.03053250 55423.85055871 0 1125.94471081 0 28923.12689127 0 7941.77998872 0 26822.70687317 0 1041
0.03150000 0.03150510 56713.33350709 0 -201.98134934 0 24148.85115272 0 10797.93046499 0 37737.91540264 0 1036
0.03250000 0.03246190 58110.99306895 0 -700.93241541 0 21160.76285391 0 7830.29275012 0 29512.17457162 0 1059
0.03350000 0.03345080 56097.26935418 0 -1667.93501068 0 19765.64992676 0 5844.98062084 0 33480.49578662 0 1302
0.03450000 0.03451200 54492.55731822 0 2802.31683300 0 18618.00345931 0 2012.60540996 0 21320.20433130 0 1339
0.03550000 0.03553350 52058.08526034 0 3612.09130861 0 10221.32807773 0 3360.36200386 0 20927.13680023 0 1365
0.03650000 0.03647120 48851.98288585 0 1660.62727630 0 6578.18997033 0 3214.40661810 0 13099.77821619 0 1308
0.03750000 0.03744890 47628.93388639 0 133.20006757 0 4948.86415629 0 1421.33219232 0 12624.99692797 0 1579
0.03850000 0.03847530 47179.50822200 0 -196.06319173 0 4550.54834327 0 3028.60193532 0 7244.31210375 0 1662
0.03950000 0.03950240 46643.71842402 0 1546.43839045 0 5317.09646279 0 -2249.35385923 0 8745.90757868 0 1683
0.04050000 0.04050350 44667.19772065 0 1712.11358671 0 4849.76684917 0 -2332.01983633 0 12508.51607087 0 1822
0.04150000 0.04152450 44140.70867552 0 1587.46135390 0 7762.15366319 0 1018.77567889 0 8976.68804487 0 1887
0.04250000 0.04250150 42564.34179109 0 423.05360114 0 5791.89989566 0 2022.33798348 0 10408.06283580 0 1920
0.04350000 0.04349210 42899.27961685 0 -273.09667719 0 9392.49813111 0 2334.48896476 0 7777.35596516 0 2005
0.04450000 0.04448520 42643.61963679 0 723.04606254 0 6826.89653041 0 -1270.80393641 0 5949.68052433 0 2151
0.04550000 0.04548030 42952.53749923 0 1643.16622006 0 7823.04037737 0 -29.97555137 0 1834.62886083 0 2274
0.04650000 0.04648670 40238.93213268 0 1897.86290786 0 7217.99318765 0 -2696.41004611 0 5937.99922164 0 2311
0.04750000 0.04749250 38286.65982065 0 1911.40436112 0 7983.77731676 0 -1253.47574807 0 3651.65272519 0 2568
0.04850000 0.04851840 38782.36780278 0 1111.56176087 0 11113.62459022 0 -2068.78638609 0 4157.23722106 0 2493
0.04950000 0.04949480 37840.44513046 0 -84.13283869 0 8180.28893764 0 1931.34561812 0 586.89189871 0 2644
0.05050000 0.05050630 37779.32589746 0 -537.11294079 0 9020.18013676 0 1300.28953740 0 2512.05583788 0 2829
0.05150000 0.05149060 37717.76377147 0 199.09590149 0 6738.41758278 0 -667.58589476 0 2242.22328205 0 2784
0.05250000 0.05249300 38661.56873901 0 1026.99909453 0 8928.11375589 0 1064.35268954 0 -783.14110549 0 3055
0.05350000 0.05348950 36124.01333707 0 1019.97038274 0 6809.01472583 0 -1311.72724894 0 -2495.46949530 0 3009
0.05450000 0.05448610 35215.75053220 0 1420.74535910 0 7169.45211565 0 -868.99259044 0 -1146.88247704 0 3336
0.05550000 0.05550870 33574.27837784 0 373.31339635 0 8032.78342641 0 -835.06809443 0 -1451.59285605 0 3349
0.05650000 0.05647670 34503.46787662 0 -39.51502354 0 9261.09178016 0 755.38832333 0 -4003.98517324 0 3324
0.05750000 0.05747970 33271.00740105 0 481.80224939 0 8031.48796440 0 -197.77165145 0 -2110.03079604 0 3639
0.05850000 0.05849280 33577.26790554 0 1253.63076062 0 9322.29959176 0 -439.05975389 0 -4550.21617352 0 3846
0.05950000 0.05951020 32593.04895241 0 390.72241267 0 8632.52697253 0 -1739.58402458 0 -4431.81980424 0 3787
0.06050000 0.06049470 33117.65570232 0 713.36774342 0 11423.76040839 0 -1140.02870798 0 -5960.61998125 0 3930
0.06150000 0.06148310 32316.68372493 0 1437.50885888 0 12238.57279179 0 -3564.66854141 0 -4812.53062080 0 4083
0.06250000 0.06249100 31015.90700524 0 1400.69337886 0 13416.22525951 0 -194.77769481 0 -4649.45742087 0 4303
0.06350000 0.06350600 30906.95532902 0 597.65419843 0 13675.20693701 0 1289.35008048 0 -3537.45276701 0 4470
0.06450000 0.06451750 30167.43475439 0 -207.51751175 0 13940.49983967 0 2216.19224640 0 -4151.54604610 0 4479
0.06550000 0.06550280 30855.91191161 0 53.93617300 0 13838.74517459 0 934.03364089 0 -4705.07370844 0 4636
0.06650000 0.06648880 29616.47587141 0 195.27152050 0 13133.43808364 0 1460.15176313 0 -2049.86378298 0 4653
0.06750000 0.06749660 30333.96251966 0 361.99415869 0 12980.41855464 0 592.62071957 0 -2703.71778049 0 5220
0.06850000 0.06852730 29663.97614488 0 1009.41070656 0 13141.07798776 0 -524.45838075 0 -2597.44560688 0 5029
0.06950000 0.06949320 29052.34092190 0 1487.45611614 0 12184.98273967 0 612.39478446 0 -719.79854967 0 5040
0.07050000 0.07048030 28245.72205886 0 293.83071264 0 12553.35898639 0 1087.50049181 0 -959.28518487 0 5475
0.07150000 0.07148790 28234.98190379 0 -883.70881736 0 11169.09693756 0 1409.85019148 0 -960.33927019 0 5509
0.07250000 0.07249820 28890.90642605 0 -362.05616371 0 10560.59518250 0 2528.40966164 0 -2893.76316368 0 5916
0.07350000 0.07351270 28135.55242692 0 506.62086547 0 9946.91157943 0 1372.61396312 0 -1879.12853427 0 5721
0.07450000 0.07449140 27814.12283743 0 1274.57959917 0 9914.82398211 0 -513.40709335 0 -160.73361769 0 6028
0.07550000 0.07549160 27244.89461851 0 248.07765203 0 9483.57907507 0 424.68898351 0 -1352.51769357 0 6183
0.07650000 0.07648840 27244.78389526 0 496.12319431 0 10395.05285414 0 -1151.98681878 0 -1603.09547654 0 6330
0.07750000 0.07749960 26216.16491961 0 779.45402133 0 10170.01892453 0 -952.59085729 0 -617.34411366 0 6583
0.07850000 0.07848650 26653.85391969 0 757.18314719 0 11900.53471508 0 407.76936396 0 1058.19536971 0 6549
0.07950000 0.07947320 25371.45725919 0 821.85216752 0 10655.09747483 0 518.57676181 0 -95.28244833 0 6828
0.08050000 0.08048110 24582.44339261 0 476.66690514 0 10514.61181753 0 2355.63710517 0 672.60276513 0 7147
0.08150000 0.08149960 23994.28149825 0 439.54804342 0 9460.30504830 0 1732.12127765 0 -1100.22370025 0 7386
0.08250000 0.08250610 23638.63842507 0 456.83747862 0 9429.20288788 0 262.11182373 0 -299.86512967 0 7227
0.08350000 0.08350160 23184.34093776 0 255.11522168 0 9415.00816747 0 20.50162736 0 477.60362382 0 7798
0.08450000 0.08449610 22977.73135665 0 611.08935737 0 8350.92453542 0 729.98176681 0 240.36688502 0 7371
0.08550000 0.08548940 22616.66284431 0 367.99868044 0 8634.26532753 0 794.90212892 0 1905.81283708 0 8256
0.08650000 0.08650700 22379.05075370 0 -12.26337480 0 7403.88644903 0 2062.55266722 0 1402.68639733 0 8037
0.08750000 0.08749060 22218.39132058 0 -6.64978362 0 6997.57641749 0 1888.28534690 0 937.55464018 0 8155
0.08850000 0.08849210 21990.19070607 0 318.25293949 0 5902.87780732 0 1200.11821477 0 687.49393478 0 8718
0.08950000 0.08949900 21796.86791474 0 570.71301768 0 6189.77281569 0 -529.42210397 0 1447.09749217 0 8571
0.09050000 0.09049190 20930.67994418 0 663.40277044 0 6954.39435069 0 -876.98238003 0 1345.90751566 0 8932
0.09150000 0.09150830 20758.06240025 0 409.25526995 0 6945.52541851 0 -450.51961008 0 1562.49326143 0 9285
0.09250000 0.09250820 20464.64579256 0 248.25370199 0 8043.32427963 0 -304.99825945 0 1819.85837952 0 9204
0.09350000 0.09350330 20645.12468710 0 127.37934641 0 7849.44787206 0 129.77871920 0 1373.26723028 0 9349
0.09450000 0.09448040 20308.52601262 0 253.72010875 0 8650.36448782 0 1467.33770194 0 2399.01847381 0 9564
0.09550000 0.09549270 20236.11300830 0 294.77961088 0 7192.91437194 0 661.98551286 0 1234.67494053 0 10155
0.09650000 0.09649430 19662.01296646 0 280.27486537 0 7331.57309564 0 378.71115470 0 2048.26936820 0 9913
0.09750000 0.09749140 19254.10852014 0 850.48519950 0 7207.52984070 0 -521.63936686 0 829.61165276 0 10476
0.09850000 0.09850240 18523.88869835 0 1093.72978175 0 7602.41323303 0 -454.70937779 0 624.41268582 0 10575
0.09950000 0.09950330 17844.71229397 0 580.97484833 0 6758.36991210 0 -913.20770514 0 292.01374414 0 10882
0.10050000 0.10051200 17104.19521010 0 303.94638860 0 7092.70983233 0 -260.81968343 0 -519.25992425 0 10875
0.10150000 0.10150300 17219.67955796 0 -124.82053215 0 7057.95380472 0 -235.90363089 0 -1100.62894734 0 11118
0.10250000 0.10250800 17203.40324048 0 -89.84017924 0 7113.21577789 0 470.59041328 0 -2888.90241308 0 11575
0.10350000 0.10349800 16934.12430089 0 484.63565731 0 7071.63919820 0 594.06787242 0 -1622.19523686 0 11364
0.10450000 0.10450100 16783.65140660 0 259.61612172 0 6687.73955209 0 458.08975856 0 -2028.63813630 0 12093
0.10550000 0.10551000 16309.31301137 0 499.61319109 0 6892.26753614 0 1165.36218716 0 -941.35909099 0 12067
0.10650000 0.10649700 16057.74979149 0 333.31905188 0 6383.54957234 0 765.53389457 0 -668.90793034 0 12054
0.10750000 0.10749900 15824.12373782 0 117.95347629 0 5802.17501309 0 610.80369139 0 -111.61899926 0 12807
0.10850000 0.10850100 15945.25497133 0 141.83980262 0 5958.39444396 0 601.42986120 0 -143.71434722 0 12736
0.10950000 0.10950300 15454.86170511 0 256.09069350 0 5641.09483163 0 511.95883327 0 722.43265574 0 12933
0.11050000 0.11050200 15478.77792672 0 127.91303247 0 5342.19742315 0 508.19645729 0 664.43471111 0 13428
0.11150000 0.11150900 15196.76581359 0 -103.51593979 0 4962.32810327 0 680.00018534 0 230.52801719 0 13453
0.11250000 0.11250000 15385.99184474 0 140.54655509 0 4553.96969164 0 648.60239385 0 -181.97033670 0 13668
0.11350000 0.11349100 15129.99969494 0 234.26603405 0 4366.30485828 0 -267.57380157 0 -844.92135628 0 13791
0.11450000 0.11448600 14865.26040852 0 485.84254072 0 4542.21088268 0 -397.31266040 0 -312.66362993 0 14205
0.11550000 0.11549300 14604.61788229 0 383.44457356 0 4361.65448186 0 -760.94995209 0 -0.10286500 0 14776
0.11650000 0.11649800 14743.24338902 0 57.60875242 0 4846.22370522 0 -111.76847565 0 -133.31854144 0 14553
0.11750000 0.11747300 14459.57042717 0 30.24948068 0 5168.89339509 0 125.83586433 0 -111.63339329 0 14568
0.11850000 0.11849100 14359.03371781 0 220.02813156 0 5054.19518229 0 369.29524968 0 -168.77544721 0 16015
0.11950000 0.11950300 14397.78685468 0 138.32101780 0 5586.57470422 0 232.60518533 0 690.78462972 0 15270
0.12050000 0.12050700 14134.37624724 0 167.40469340 0 5128.95551947 0 720.10968200 0 997.89438151 0 15999
0.12150000 0.12150000 14044.46896972 0 343.74475292 0 5590.94827253 0 -136.15305660 0 657.04504153 0 15670
0.12250000 0.12250700 13498.27118641 0 440.25002881 0 4811.30159275 0 239.01495416 0 592.70486924 0 16887
0.12350000 0.12352200 13356.43470548 0 103.87047563 0 4973.67723621 0 -45.08606377 0 584.55453094 0 16407
0.12450000 0.12449800 13277.71047602 0 -63.25198421 0 4601.61390533 0 363.77791022 0 693.80626716 0 16306
0.12550000 0.12549900 13370.93945100 0 -289.16151327 0 4169.69358648 0 635.54590843 0 -193.24639229 0 17523
0.12650000 0.12650100 13713.07428789 0 -127.46349608 0 3826.76154220 0 449.19978896 0 -308.63219646 0 17154
0.12750000 0.12750600 13792.13068710 0 81.74199159 0 3756.54085820 0 -62.00369031 0 -266.61825994 0 18007
0.12850000 0.12850300 13660.03785201 0 129.02801558 0 3905.55220561 0 -243.84027332 0 -81.69869880 0 17496
0.12950000 0.12949900 13398.50953980 0 340.50720515 0 4176.51413857 0 -46.25242246 0 -424.75541746 0 18405
0.13050000 0.13049000 13358.98134019 0 575.87272105 0 4391.50546957 0 -125.08958964 0 259.20866017 0 18100
0.13150000 0.13148800 12810.12619893 0 220.46438116 0 3899.92746460 0 345.62151198 0 -56.27066196 0 19059
0.13250000 0.13249300 12528.66770204 0 322.96421371 0 4214.17111528 0 548.78095668 0 232.07260650 0 18957
0.13350000 0.13349100 12457.14048371 0 166.18009427 0 3964.49019062 0 267.49075913 0 -198.25661927 0 19468
0.13450000 0.13450700 12061.85848769 0 289.47153836 0 4006.24392751 0 273.13875202 0 306.42105319 0 19953
0.13550000 0.13551000 11998.19261998 0 282.37307092 0 3360.15162969 0 -22.41824678 0 369.03947897 0 19956
0.13650000 0.13649900 11594.71710359 0 32.05869856 0 3914.66472893 0 260.16863073 0 769.04935770 0 19723
0.13750000 0.13749600 11867.09629413 0 -0.47341275 0 3952.28848867 0 -187.89624494 0 212.79236729 0 20946
0.13850000 0.13851100 11820.81397639 0 146.40935108 0 4307.68797069 0 -4.21845610 0 432.75185044 0 20955
0.13950000 0.13949800 11623.39442487 0 128.16326701 0 4181.68491426 0 -93.86906607 0 609.86143655 0 20506
0.14050000 0.14048300 11486.65121336 0 262.71858713 0 4115.28418232 0 121.63391706 0 266.59279359 0 21447
0.14150000 0.14148400 11627.93407805 0 57.41509745 0 4443.87756596 0 204.09948508 0 488.24302074 0 21771
0.14250000 0.14249400 11309.93690925 0 62.27407648 0 3840.15905523 0 174.19092128 0 861.76346957 0 22470
0.14350000 0.14350900 11273.73040710 0 169.93471962 0 3674.88246266 0 514.77120377 0 574.58833137 0 22519
0.14450000 0.14449900 11110.52433927 0 203.75624301 0 3297.42690959 0 297.22880913 0 446.44388732 0 22218
0.14550000 0.14550500 10900.67056698 0 374.65979105 0 3501.24626485 0 -47.81683124 0 50.86360286 0 23559
0.14650000 0.14650700 10555.73443191 0 434.78472928 0 3561.00360190 0 -406.22698911 0 543.68658003 0 23044
0.14750000 0.14750500 10284.88322219 0 244.53007915 0 3826.39615548 0 -316.03183114 0 565.47580805 0 23649
0.14850000 0.14849900 10159.19019085 0 -16.61933811 0 3829.99466104 0 55.44389147 0 374.67529231 0 23640
0.14950000 0.14949500 10195.41883766 0 -152.33747378 0 3500.51549142 0 441.61856816 0 81.35689613 0 24457
0.15050000 0.15050000 10376.10810637 0 -70.16244357 0 3586.06027296 0 669.98526754 0 -129.65913809 0 24591
0.15150000 0.15149900 10373.91578606 0 -44.54706300 0 3148.84738285 0 383.62615969 0 41.43728985 0 25020
0.15250000 0.15250500 10298.41360312 0 121.12237566 0 2622.30297610 0 544.42399687 0 -89.66534723 0 25297
0.15350000 0.15350100 10091.30576739 0 215.64791987 0 2491.66061556 0 136.96244354 0 2.58872061 0 25452
0.15450000 0.15450400 9982.39838047 0 145.85352037 0 2253.11844967 0 110.86940287 0 -179.78576701 0 26061
0.15550000 0.15549900 9816.63460561 0 330.43360403 0 2368.22633849 0 -65.41418780 0 -155.63149042 0 26128
0.15650000 0.15649500 9516.82926650 0 222.80174893 0 2313.90551293 0 -227.73225517 0 94.97629855 0 26331
0.15750000 0.15749700 9347.65521559 0 209.60132328 0 2506.22072270 0 -50.69209255 0 23.65037509 0 27345
0.15850000 0.15849900 9335.97391291 0 76.85533175 0 2484.08714539 0 253.38572454 0 275.07087270 0 26980
0.15950000 0.15949700 9334.43485976 0 30.76677970 0 2685.76954196 0 488.36370908 0 424.46975148 0 27777
0.16050000 0.16050000 9216.20457535 0 73.67026680 0 2398.45378524 0 344.67814991 0 135.04028795 0 28224
0.16150000 0.16150500 9185.81104372 0 194.92938566 0 2489.99976684 0 -55.76211008 0 366.77408132 0 28075
0.16250000 0.16249700 8974.52894153 0 231.44591292 0 2363.19950302 0 67.85264589 0 616.17044723 0 28590
0.16350000 0.16349900 8926.22038835 0 0.75917838 0 2214.79713347 0 114.02058652 0 830.92483048 0 29163
0.16450000 0.16449100 8850.37496334 0 -63.07825943 0 2096.81044021 0 248.91139809 0 502.77655430 0 28996
0.16550000 0.16550500 8994.76915130 0 70.15269993 0 2139.30602286 0 42.82321275 0 43.33010378 0 30777
0.16650000 0.16650700 8718.54786405 0 344.37919714 0 2212.56052386 0 -424.67016056 0 -104.57124307 0 29211
0.16750000 0.16749900 8424.90980986 0 391.39782448 0 2168.48159876 0 -442.73244404 0 135.45660737 0 30922
0.16850000 0.16850800 8213.72735859 0 143.58037209 0 2113.97254368 0 -56.85771662 0 258.50003138 0 30867
0.16950000 0.16949900 8235.18552409 0 -82.52391917 0 2286.37971343 0 382.08489207 0 43.18206679 0 30852
0.17050000 0.17049200 8305.31762949 0 -202.83613282 0 2241.71395511 0 287.24267938 0 -223.46498119 0 31257
0.17150000 0.17149500 8323.33230197 0 117.66227415 0 2069.79396765 0 245.36936138 0 -435.32062980 0 32608
0.17250000 0.17250900 8199.15617913 0 194.71790426 0 1879.44963169 0 112.32984252 0 -200.53641095 0 32361
0.17350000 0.17350400 8118.07354448 0 68.01895221 0 1841.84801661 0 -283.13263240 0 -23.12875787 0 32508
0.17450000 0.17449800 8125.44771281 0 -67.65744080 0 1797.56978966 0 96.11087968 0 -24.06038328 0 32791
0.17550000 0.17549800 8232.73854031 0 -9.07835413 0 1894.26440230 0 75.41227566 0 102.88692102 0 33633
0.17650000 0.17650100 8166.86927996 0 155.35136060 0 1976.56499268 0 68.27815533 0 -0.93999498 0 33984
0.17750000 0.17750300 8047.66463096 0 308.11954782 0 2011.63104538 0 -104.13720794 0 322.57668234 0 34069
0.17850000 0.17849800 7837.44547196 0 204.75275224 0 1933.71509563 0 74.39063225 0 137.32450856 0 34536
