### header ###
fiducial parameters:
Omega_m = 0.31
Omega_nu = 0
Omega_de = 0.69
Omega_k = 0
H_0 = 100
w_de = -1
zeff = 0
beta = 0
fgrowth = 0
b_1 = 2
gamma = 0.55
Lx = 3500 Ly = 3500 Lz = 3500
nx = 700 ny = 700 nz = 700
xoffset = -685.467585 yoffset = -31.7331281 zoffset = 572.489161
bins = 400 dk = 0.001
kx_ny = 0.628318531 ky_ny = 0.628318531 kz_ny = 0.628318531
############################
A(data) = 8.03918955 (not used)
A(ran) = 8.03225602 (used)
Ngal = 477936
weighted Ngal = 0
Nran = 23820508
weighted Nran = 0
SN(data) = 3494.83065
SN(ran) = 69.963863
SN(data+ran) = 3564.79451
############################
13 columns: k_central k_mean P_0(k) sigma^{lin}_{P_0(k)} P^img_1(k) sigma^{lin}_{P_1(k)} P_2(k) sigma^{lin}_{P_2(k)} P^img_3(k) sigma^{lin}_{P_3(k)} P_4(k) sigma^{lin}_{P_4(k)} N_modes
### header ###
0.00050000 0 0 0 0 0 0 0 0 0 0 0 0
0.00150000 0.00179520 42743.60272990 0 -13969.50933069 0 65892.06933525 0 -44079.03582628 0 5760.31055295 0 3
0.00250000 0.00253879 78469.23382000 0 -10155.70240853 0 93.72191487 0 45005.90013685 0 17103.19870087 0 6
0.00350000 0.00331552 72694.79498058 0 10042.27751309 0 65876.67880376 0 -21392.06371937 0 78866.39811125 0 7
0.00450000 0.00420575 85665.46988938 0 -6695.87771083 0 25851.66398658 0 -527.55420277 0 353.96340150 0 24
0.00550000 0.00557378 102411.80756135 0 -3914.85295845 0 53668.55490521 0 19403.91707493 0 -34365.28526288 0 45
0.00650000 0.00659388 130879.30828633 0 -5012.70718120 0 33777.67698476 0 13844.94567648 0 -36821.79124715 0 40
0.00750000 0.00754703 100722.06007077 0 4652.92305854 0 51469.03757999 0 17139.29447978 0 -6766.49699852 0 57
0.00850000 0.00846663 126057.31082781 0 7373.90259342 0 56354.03656673 0 4630.21372034 0 -6647.32556650 0 75
0.00950000 0.00948925 103239.24239504 0 7832.64008298 0 51472.13783094 0 31400.33812294 0 -22002.70243312 0 112
0.01050000 0.01054430 91547.53172604 0 7989.34669614 0 14556.34254608 0 23345.77543362 0 -26977.05508114 0 105
0.01150000 0.01145670 89917.46406624 0 6135.25268829 0 20506.49918037 0 15683.28376612 0 -9972.55508371 0 144
0.01250000 0.01249090 83786.16419792 0 6857.40078528 0 2826.45450111 0 16371.76092335 0 -5413.68035218 0 169
0.01350000 0.01339930 78906.70137359 0 -4732.03481937 0 -278.58633583 0 23284.54547737 0 9420.23430478 0 180
0.01450000 0.01448870 83738.77464769 0 -5284.98672081 0 -3570.79153704 0 9639.95351848 0 -1197.94803910 0 267
0.01550000 0.01550050 86156.63821834 0 -495.11339829 0 5268.42252288 0 -1539.16387304 0 11778.84986532 0 238
0.01650000 0.01653350 87686.83350828 0 4228.97481356 0 13731.12217735 0 -19726.12172716 0 -146.74705698 0 315
0.01750000 0.01747870 86784.66048205 0 9429.09216464 0 11921.90430198 0 -11381.68557408 0 18154.51594240 0 297
0.01850000 0.01844180 80115.02418105 0 7836.73684317 0 31511.17209438 0 -4889.56078456 0 18524.88520758 0 388
0.01950000 0.01947590 73133.25904340 0 -1670.55915166 0 32228.21584963 0 -2331.23370127 0 -7096.06474675 0 399
0.02050000 0.02045430 76829.64396086 0 1349.30671937 0 34175.17344574 0 4629.43865760 0 -13486.53452210 0 462
0.02150000 0.02154770 72932.84996418 0 3380.14824831 0 34131.32703946 0 -2518.74352207 0 -8352.85111994 0 571
0.02250000 0.02255340 73481.04076595 0 6630.21882465 0 33988.93694229 0 7678.26973036 0 -12745.46382199 0 510
0.02350000 0.02348930 64065.80007967 0 5005.20014497 0 30315.02884422 0 5592.47625335 0 -4860.87239096 0 555
0.02450000 0.02439640 65263.16128555 0 915.34577106 0 35322.26629696 0 7525.70416669 0 -4718.01725615 0 592
0.02550000 0.02547300 63263.38870006 0 -1245.06078121 0 32248.58892730 0 15305.71748981 0 4314.75211393 0 837
0.02650000 0.02652900 68047.29736120 0 -639.11784041 0 30167.76692413 0 11958.66442038 0 4564.65448509 0 723
0.02750000 0.02749970 67100.61358921 0 185.88440352 0 27188.86865492 0 4787.61788996 0 19809.93922603 0 826
0.02850000 0.02848090 67739.37600800 0 1769.88897761 0 27013.59375304 0 -357.76342338 0 13486.97741510 0 831
0.02950000 0.02946900 65477.74294054 0 4248.07457387 0 23407.89117585 0 -1729.92895734 0 10101.11584718 0 996
0.03050000 0.03053250 61428.26158462 0 641.07321298 0 22538.04933810 0 1697.27667145 0 5417.37850867 0 1041
0.03150000 0.03150510 58184.95619874 0 -1197.50514611 0 14077.68594417 0 402.10919151 0 -2383.88260578 0 1036
0.03250000 0.03246190 59717.69812338 0 1592.88679306 0 16293.92247987 0 4095.65295042 0 -12581.37196818 0 1059
0.03350000 0.03345080 57317.99316544 0 2975.80909058 0 9408.53085745 0 2443.30777308 0 -11851.26286964 0 1302
0.03450000 0.03451200 54394.78869007 0 3025.98886666 0 10440.15043313 0 -3520.55639934 0 -13511.89014594 0 1339
0.03550000 0.03553350 51875.94551707 0 3642.47376791 0 10360.27468188 0 1662.05560620 0 -7681.02673924 0 1365
0.03650000 0.03647120 49593.16430921 0 1695.36115926 0 13715.95309235 0 1031.14678741 0 -11023.31870900 0 1308
0.03750000 0.03744890 48301.57761912 0 1123.88525839 0 13776.74015560 0 2580.08420157 0 -4235.81751030 0 1579
0.03850000 0.03847530 48434.22407045 0 -67.03827640 0 13617.52012471 0 -483.96356720 0 -3576.87024336 0 1662
0.03950000 0.03950240 49106.97852643 0 -324.37593512 0 13012.63901987 0 1527.85902940 0 1642.01469828 0 1683
0.04050000 0.04050350 49042.31614949 0 -748.80804070 0 14569.96150561 0 -1363.96647743 0 -1754.36557822 0 1822
0.04150000 0.04152450 47888.02628714 0 1844.19534947 0 15761.78654909 0 -861.41358410 0 -7107.19243319 0 1887
0.04250000 0.04250150 47858.02028688 0 2833.70687386 0 14695.41094580 0 -480.07275225 0 396.04487921 0 1920
0.04350000 0.04349210 44646.93536623 0 1951.05435629 0 15343.03122445 0 -2459.65052451 0 -446.06964274 0 2005
0.04450000 0.04448520 44594.00965359 0 1178.31680720 0 17824.00704656 0 2338.19819358 0 2574.60340078 0 2151
0.04550000 0.04548030 42618.37473620 0 688.94330210 0 18581.24334091 0 4594.43903885 0 47.70245412 0 2274
0.04650000 0.04648670 43431.08337789 0 869.30150830 0 19431.37644048 0 1262.31146327 0 2737.35550329 0 2311
0.04750000 0.04749250 41983.15546136 0 842.55962940 0 18238.88705752 0 1317.96096781 0 1367.15530698 0 2568
0.04850000 0.04851840 41886.05117270 0 1396.12050871 0 21057.90095634 0 -583.30003654 0 3374.84460472 0 2493
0.04950000 0.04949480 40198.40742384 0 1867.23685742 0 18394.45322122 0 -912.71720115 0 4987.21868946 0 2644
0.05050000 0.05050630 39311.84637561 0 505.36858554 0 18637.71219748 0 403.69474842 0 1640.61958535 0 2829
0.05150000 0.05149060 38472.45343111 0 114.09144940 0 14836.36164075 0 2806.17000204 0 -142.22290506 0 2784
0.05250000 0.05249300 38258.86828536 0 872.33200360 0 16172.90196960 0 2379.85227955 0 -2397.71193948 0 3055
0.05350000 0.05348950 36915.13094537 0 1210.01687316 0 12302.01721301 0 2807.07793267 0 -2732.18472760 0 3009
0.05450000 0.05448610 36519.51677960 0 869.28268535 0 13119.37623112 0 810.65804713 0 229.97661541 0 3336
0.05550000 0.05550870 35046.34396248 0 1414.66665278 0 12204.58075460 0 250.90220209 0 -805.47509188 0 3349
0.05650000 0.05647670 35716.10889076 0 154.45671676 0 14548.37047221 0 1200.81577123 0 2241.30427909 0 3324
0.05750000 0.05747970 34256.77647966 0 -89.49893019 0 12987.50484253 0 1275.59825306 0 4663.53034572 0 3639
0.05850000 0.05849280 35479.82547913 0 992.95833911 0 14474.29661918 0 2277.22290080 0 3824.40313701 0 3846
0.05950000 0.05951020 35150.64526227 0 -1078.97258723 0 14726.41345530 0 2154.29795066 0 3605.29290117 0 3787
0.06050000 0.06049470 35791.62214602 0 462.98040443 0 15505.01933654 0 437.11988259 0 4399.63255599 0 3930
0.06150000 0.06148310 35042.24720229 0 1782.23461978 0 14974.10136149 0 621.88930300 0 4068.20465719 0 4083
0.06250000 0.06249100 34084.93399847 0 734.66536020 0 14584.68769762 0 225.65287257 0 3493.78351793 0 4303
0.06350000 0.06350600 33146.77591659 0 387.25123883 0 14557.67122506 0 1103.74580678 0 3365.55492420 0 4470
0.06450000 0.06451750 32468.15312845 0 856.53511779 0 12915.09183821 0 2770.28459730 0 1558.25256103 0 4479
0.06550000 0.06550280 30506.24789384 0 1140.73733677 0 10969.55149968 0 1287.51207456 0 1061.40634391 0 4636
0.06650000 0.06648880 29668.29435156 0 1696.28016222 0 10557.94889687 0 857.86047507 0 12.85419405 0 4653
0.06750000 0.06749660 28195.56442743 0 1063.38386112 0 8585.76854482 0 1280.44793133 0 2632.09091124 0 5220
0.06850000 0.06852730 27900.15480127 0 -362.02516120 0 7147.72821435 0 1983.07551967 0 1500.22250665 0 5029
0.06950000 0.06949320 28446.13113808 0 -1287.87746128 0 7192.93651659 0 1751.66393096 0 2667.07945767 0 5040
0.07050000 0.07048030 29246.99239221 0 -591.76593609 0 7181.39915413 0 -175.68014897 0 1947.79909280 0 5475
0.07150000 0.07148790 29966.13988918 0 237.84682389 0 6733.51254289 0 83.96620020 0 1290.18050484 0 5509
0.07250000 0.07249820 29917.53238323 0 137.15953092 0 8910.34267456 0 -3192.22875149 0 1043.46474877 0 5916
0.07350000 0.07351270 29630.09483094 0 1464.53640376 0 11246.04959505 0 -1976.64249895 0 -434.23222027 0 5721
0.07450000 0.07449140 28057.71398344 0 1658.49031761 0 10978.13255141 0 -2503.93982379 0 573.93506421 0 6028
0.07550000 0.07549160 27380.41987429 0 815.09251322 0 12366.34742020 0 -5.37616732 0 -336.06498843 0 6183
0.07650000 0.07648840 26996.65309607 0 42.75622518 0 11388.32896897 0 1885.52833802 0 709.85670922 0 6330
0.07750000 0.07749960 26658.94718910 0 -267.05561677 0 10189.63908410 0 3197.63204600 0 -2103.69742624 0 6583
0.07850000 0.07848650 26905.41713957 0 29.85497375 0 9782.27718170 0 1619.93648259 0 -1751.55320771 0 6549
0.07950000 0.07947320 26001.47254137 0 644.89427227 0 7820.91449100 0 1211.51163701 0 -2633.36422859 0 6828
0.08050000 0.08048110 25556.25436041 0 962.49615907 0 7636.49384882 0 -126.04070234 0 -881.03263645 0 7147
0.08150000 0.08149960 24762.59011741 0 107.68533443 0 6700.18484518 0 127.40038383 0 -1528.83339398 0 7386
0.08250000 0.08250610 24834.00661249 0 -229.17055017 0 6678.46094389 0 491.15282770 0 -1271.61221612 0 7227
0.08350000 0.08350160 24862.57321053 0 226.39361110 0 6592.93830699 0 -161.15215157 0 -3705.64138101 0 7798
0.08450000 0.08449610 24341.39888131 0 710.11580162 0 5830.26550116 0 -368.67077056 0 -4127.85127099 0 7371
0.08550000 0.08548940 23731.31378380 0 1080.62457809 0 7241.35579302 0 -742.52781806 0 -2326.57225252 0 8256
0.08650000 0.08650700 22895.68542974 0 972.65280262 0 6903.92669417 0 176.40317178 0 -3001.53010114 0 8037
0.08750000 0.08749060 22162.25463375 0 546.50005777 0 6667.20038955 0 1642.10327688 0 -1361.85166339 0 8155
0.08850000 0.08849210 21712.93969261 0 107.76306215 0 6111.36968365 0 942.05775469 0 -2760.45237286 0 8718
0.08950000 0.08949900 21621.92518260 0 408.88213260 0 5995.32064723 0 874.95835905 0 -930.93781887 0 8571
0.09050000 0.09049190 21194.20127486 0 668.80495772 0 6533.84530943 0 172.81130961 0 -475.21864505 0 8932
0.09150000 0.09150830 20657.30424440 0 820.21789238 0 6739.19264552 0 -682.10281983 0 1000.29596877 0 9285
0.09250000 0.09250820 20146.75934702 0 883.95794466 0 8241.10921787 0 399.24478108 0 2441.34797159 0 9204
0.09350000 0.09350330 19302.49457959 0 677.63956569 0 8778.18340552 0 189.01122805 0 1594.74694363 0 9349
0.09450000 0.09448040 19409.34251409 0 -68.89654467 0 8299.50465896 0 1759.97924690 0 3689.86331814 0 9564
0.09550000 0.09549270 19091.78823830 0 152.03298485 0 8638.40637701 0 1549.12896538 0 3496.65125005 0 10155
0.09650000 0.09649430 18893.04000780 0 439.46721545 0 7029.96296758 0 1701.83846928 0 4207.50557574 0 9913
0.09750000 0.09749140 18344.84920603 0 326.81627551 0 6719.91572801 0 697.80780535 0 3318.50861605 0 10476
0.09850000 0.09850240 18143.55434083 0 175.87834358 0 5543.76909647 0 824.53167013 0 3391.95134657 0 10575
0.09950000 0.09950330 18071.14133651 0 -191.73834165 0 5716.49736364 0 -414.35739722 0 3180.79103995 0 10882
0.10050000 0.10051200 17883.90832383 0 79.30165120 0 5621.82898645 0 528.91499149 0 2103.01094210 0 10875
0.10150000 0.10150300 18213.30998718 0 384.82750693 0 5353.71264096 0 -327.54372725 0 2372.27880937 0 11118
0.10250000 0.10250800 17572.77599643 0 -69.60373406 0 5069.34212264 0 -79.61599450 0 1955.56079249 0 11575
0.10350000 0.10349800 17781.15714951 0 196.09751593 0 5263.78321878 0 62.67323379 0 2223.11244941 0 11364
0.10450000 0.10450100 17818.91377714 0 212.98502575 0 5712.72170088 0 -558.51906636 0 1293.32504509 0 12093
0.10550000 0.10551000 17151.03114408 0 656.15039768 0 5349.22834941 0 -165.08836305 0 1083.07820527 0 12067
0.10650000 0.10649700 17159.22466445 0 214.59383454 0 5414.30040237 0 -227.45433982 0 581.15754169 0 12054
0.10750000 0.10749900 16662.40944984 0 124.29127502 0 5604.94369110 0 124.63673155 0 812.82379387 0 12807
0.10850000 0.10850100 16520.68369216 0 559.17786969 0 5028.77312451 0 604.57218698 0 -565.73822214 0 12736
0.10950000 0.10950300 16318.28159447 0 63.39703166 0 5033.99926182 0 511.05754603 0 110.21203895 0 12933
0.11050000 0.11050200 15909.71280866 0 149.85284410 0 4711.99391145 0 744.31156959 0 -175.05566985 0 13428
0.11150000 0.11150900 16061.84655167 0 177.67870360 0 5062.03438826 0 537.76288626 0 -369.91308540 0 13453
0.11250000 0.11250000 15412.89759405 0 447.98515493 0 4801.64652550 0 -182.26928947 0 275.45397514 0 13668
0.11350000 0.11349100 15423.30557938 0 353.69545124 0 5176.82117966 0 -297.33510345 0 657.41817887 0 13791
0.11450000 0.11448600 15016.28691905 0 241.75646179 0 5188.03744470 0 98.76325509 0 509.03463228 0 14205
0.11550000 0.11549300 15137.75032231 0 -5.00023974 0 5329.05457359 0 159.86444020 0 368.14483513 0 14776
0.11650000 0.11649800 14849.42698403 0 319.25830659 0 4756.38286165 0 -190.03431086 0 -101.41784496 0 14553
0.11750000 0.11747300 14853.30229772 0 291.96613314 0 5246.37752417 0 165.55450792 0 238.22106847 0 14568
0.11850000 0.11849100 14387.15742285 0 255.55036405 0 5032.53771495 0 -34.14195647 0 126.65521637 0 16015
0.11950000 0.11950300 14291.60325967 0 329.48249133 0 4960.88870105 0 209.87148801 0 -45.04509617 0 15270
0.12050000 0.12050700 14008.37319081 0 200.63495464 0 4811.96593223 0 -52.58833890 0 -44.12664682 0 15999
0.12150000 0.12150000 13932.85993554 0 308.73849078 0 5319.90883329 0 374.25011503 0 324.11462825 0 15670
0.12250000 0.12250700 13620.95254540 0 101.07249915 0 4562.11892270 0 387.48043596 0 428.67391321 0 16887
0.12350000 0.12352200 13546.65724587 0 131.39860032 0 4930.55053104 0 658.34493246 0 282.13833763 0 16407
0.12450000 0.12449800 13481.44125269 0 100.53726297 0 4255.79198427 0 300.77195307 0 670.89873434 0 16306
0.12550000 0.12549900 13329.08606318 0 58.36299918 0 3977.40052135 0 650.91318804 0 404.86287869 0 17523
0.12650000 0.12650100 13505.46819754 0 -23.78368588 0 3836.62698361 0 242.95891626 0 694.94893108 0 17154
0.12750000 0.12750600 13323.54990077 0 63.82807727 0 3902.18621886 0 -112.80927418 0 249.83593721 0 18007
0.12850000 0.12850300 13293.43317727 0 425.29242521 0 3772.73966941 0 35.50783846 0 836.66583090 0 17496
0.12950000 0.12949900 12904.13023664 0 384.95373143 0 4048.54020831 0 -76.76752822 0 1375.11630853 0 18405
0.13050000 0.13049000 12733.72715768 0 344.27843898 0 4462.34620376 0 149.27043981 0 1121.07288789 0 18100
0.13150000 0.13148800 12459.90856492 0 217.07182084 0 4397.83883937 0 456.31486489 0 1339.43020564 0 19059
0.13250000 0.13249300 12314.41821680 0 85.40615604 0 4228.29940174 0 255.31230906 0 1638.54906061 0 18957
0.13350000 0.13349100 12288.06608373 0 -184.40292646 0 3794.57429395 0 612.26855996 0 1685.13033112 0 19468
0.13450000 0.13450700 12642.71264767 0 -184.22798373 0 4108.47470256 0 287.71878934 0 1553.55789530 0 19953
0.13550000 0.13551000 12378.08408451 0 165.72945065 0 3760.62654605 0 336.46580659 0 1439.21399690 0 19956
0.13650000 0.13649900 12320.17582571 0 315.93550191 0 3541.72668439 0 85.89621714 0 1483.56973013 0 19723
0.13750000 0.13749600 12082.45301185 0 388.69064106 0 3755.11252829 0 243.08956970 0 1776.96419317 0 20946
0.13850000 0.13851100 11659.37948053 0 346.81178690 0 3645.30828307 0 89.48365038 0 1654.19425558 0 20955
0.13950000 0.13949800 11344.92545568 0 273.21404383 0 3722.37166381 0 279.53966300 0 1810.33618017 0 20506
0.14050000 0.14048300 11235.97377947 0 208.68674925 0 3613.50856619 0 -73.49465973 0 1581.90304684 0 21447
0.14150000 0.14148400 11180.94432512 0 61.10384247 0 3681.85802729 0 -206.92624961 0 1595.12340267 0 21771
0.14250000 0.14249400 10953.79558146 0 125.40736536 0 3568.73208462 0 -173.39039220 0 1171.49625511 0 22470
0.14350000 0.14350900 10833.74943578 0 266.63043949 0 3352.60030416 0 134.91406345 0 743.90300080 0 22519
0.14450000 0.14449900 10793.86692178 0 94.65121510 0 3528.62812413 0 -222.65448701 0 541.92940209 0 22218
0.14550000 0.14550500 10748.14929261 0 43.30474815 0 3418.09310547 0 223.38636768 0 47.14595908 0 23559
0.14650000 0.14650700 10633.00818682 0 123.94028232 0 3228.21380715 0 45.58166103 0 307.59693409 0 23044
0.14750000 0.14750500 10545.26001263 0 200.94608697 0 3233.41779981 0 28.07598332 0 69.25008401 0 23649
0.14850000 0.14849900 10520.36942644 0 95.94258034 0 3346.42194691 0 209.31455007 0 -76.75988831 0 23640
0.14950000 0.14949500 10119.66199125 0 255.50939645 0 3381.64301216 0 -4.03162170 0 102.81351151 0 24457
0.15050000 0.15050000 10222.75640764 0 173.56312046 0 3393.63433994 0 63.00385341 0 269.80708948 0 24591
0.15150000 0.15149900 10088.49339689 0 -79.01897475 0 3207.95145273 0 387.61884002 0 469.45992892 0 25020
0.15250000 0.15250500 10166.05503224 0 -77.24242023 0 3096.70780528 0 278.42246542 0 395.62634533 0 25297
0.15350000 0.15350100 10116.08563033 0 108.98367523 0 2820.19863758 0 437.78422207 0 493.12148705 0 25452
0.15450000 0.15450400 9987.66880709 0 324.01940626 0 2921.12287830 0 252.84318063 0 531.27893284 0 26061
0.15550000 0.15549900 9750.54389877 0 253.57616853 0 2471.25432092 0 260.57609228 0 984.98626524 0 26128
0.15650000 0.15649500 9474.63263661 0 144.05316036 0 2539.07231044 0 258.37602134 0 802.68154433 0 26331
0.15750000 0.15749700 9359.60225407 0 176.53493244 0 2320.89214989 0 -35.45336262 0 754.53353986 0 27345
0.15850000 0.15849900 9261.64539640 0 241.27924459 0 2366.35511559 0 114.68714047 0 355.64639487 0 26980
0.15950000 0.15949700 8995.77673286 0 158.72952690 0 2052.14468189 0 11.44103324 0 1039.09893109 0 27777
0.16050000 0.16050000 9024.25475229 0 -81.08783864 0 2012.22895092 0 284.03834857 0 307.86488435 0 28224
0.16150000 0.16150500 8999.16486425 0 -94.28283885 0 1870.52533789 0 263.02529053 0 317.59192170 0 28075
0.16250000 0.16249700 9057.98105369 0 78.66167083 0 1865.12204338 0 88.91630446 0 -23.32949912 0 28590
0.16350000 0.16349900 8890.95503380 0 296.74494853 0 1741.57704305 0 -140.47901390 0 122.44219677 0 29163
0.16450000 0.16449100 8779.82210960 0 145.93988450 0 1837.34158041 0 40.99760783 0 506.93421226 0 28996
0.16550000 0.16550500 8663.48519273 0 86.69143151 0 2086.63497370 0 92.69949640 0 695.41396872 0 30777
0.16650000 0.16650700 8658.02653659 0 118.67096294 0 2078.89541865 0 165.83353051 0 744.70906605 0 29211
0.16750000 0.16749900 8459.49975259 0 80.21899331 0 2054.59166567 0 165.27991427 0 707.20267296 0 30922
0.16850000 0.16850800 8463.74045300 0 72.93052478 0 2102.14730077 0 5.28586143 0 976.13615601 0 30867
0.16950000 0.16949900 8397.29543176 0 5.58527924 0 2022.33798348 0 154.06364922 0 759.69102876 0 30852
0.17050000 0.17049200 8416.24017953 0 55.73686518 0 2127.74651575 0 -60.51556985 0 551.94210542 0 31257
0.17150000 0.17149500 8453.49855254 0 131.12843559 0 1904.25163929 0 -23.95419968 0 413.35867352 0 32608
0.17250000 0.17250900 8196.84206324 0 162.14755357 0 1912.86590799 0 -264.95076782 0 323.98729652 0 32361
0.17350000 0.17350400 8119.10327069 0 191.87120955 0 1913.76276630 0 -148.85412040 0 531.65871358 0 32508
0.17450000 0.17449800 8078.93287625 0 89.34004233 0 1935.18771483 0 28.37858996 0 318.62054068 0 32791
0.17550000 0.17549800 8035.14183159 0 105.50663307 0 2030.87474591 0 75.53495702 0 421.01075721 0 33633
0.17650000 0.17650100 7893.57108646 0 181.10115920 0 2063.44952553 0 119.45931247 0 504.75517874 0 33984
0.17750000 0.17750300 7843.01485134 0 20.77544595 0 1843.38706976 0 312.81421354 0 725.67131075 0 34069
0.17850000 0.17849800 7872.19042724 0 -40.84137733 0 1962.89067152 0 129.35022023 0 593.80324386 0 34536
