### header ###
fiducial parameters:
Omega_m = 0.31
Omega_nu = 0
Omega_de = 0.69
Omega_k = 0
H_0 = 100
w_de = -1
zeff = 0
beta = 0
fgrowth = 0
b_1 = 2
gamma = 0.55
Lx = 3500 Ly = 3500 Lz = 3500
nx = 700 ny = 700 nz = 700
xoffset = -685.467585 yoffset = -31.7331281 zoffset = 572.489161
bins = 400 dk = 0.001
kx_ny = 0.628318531 ky_ny = 0.628318531 kz_ny = 0.628318531
############################
A(data) = 8.02621497 (not used)
A(ran) = 8.02122149 (used)
Ngal = 476903
weighted Ngal = 0
Nran = 23820508
weighted Nran = 0
SN(data) = 3493.66916
SN(ran) = 69.8677482
SN(data+ran) = 3563.53691
############################
13 columns: k_central k_mean P_0(k) sigma^{lin}_{P_0(k)} P^img_1(k) sigma^{lin}_{P_1(k)} P_2(k) sigma^{lin}_{P_2(k)} P^img_3(k) sigma^{lin}_{P_3(k)} P_4(k) sigma^{lin}_{P_4(k)} N_modes
### header ###
0.00050000 0 0 0 0 0 0 0 0 0 0 0 0
0.00150000 0.00179520 10046.90574487 0 -20606.48227349 0 -21248.12349673 0 33331.90518756 0 -11070.98506734 0 3
0.00250000 0.00253879 11159.02112198 0 -9448.40229912 0 4114.30981774 0 -5392.64293502 0 8964.09881155 0 6
0.00350000 0.00331552 25478.08374719 0 -5865.61943430 0 -7747.64891768 0 -8434.75310662 0 -27218.87465518 0 7
0.00450000 0.00420575 24869.99166815 0 4153.24011180 0 6320.90235852 0 -10847.40161228 0 12366.45814345 0 24
0.00550000 0.00557378 32830.66104302 0 -18615.45682460 0 -15919.23500801 0 12828.06336514 0 -3341.69406422 0 45
0.00650000 0.00659388 46988.06772588 0 -30378.80543518 0 -17071.42112864 0 34102.31754844 0 21125.22069124 0 40
0.00750000 0.00754703 78382.86968642 0 -15908.93774593 0 -14005.38366311 0 -14119.31788549 0 -67152.21062286 0 57
0.00850000 0.00846663 82545.06730899 0 -161.96375298 0 -9824.07520789 0 -6035.85642839 0 31663.30583739 0 75
0.00950000 0.00948925 76256.76187474 0 -1583.50853394 0 -19407.90311187 0 -8505.15094782 0 36553.61954004 0 112
0.01050000 0.01054430 83390.66075539 0 -10303.48472789 0 -12695.97053005 0 9103.46616404 0 38033.87864504 0 105
0.01150000 0.01145670 93088.68861755 0 -14368.33447066 0 2011.34316493 0 26686.18510816 0 8018.55548901 0 144
0.01250000 0.01249090 108675.31098801 0 -6279.92368437 0 7110.69128783 0 -1675.06558786 0 10978.29863629 0 169
0.01350000 0.01339930 101416.51628340 0 17507.78144974 0 2578.61158236 0 -16550.35752267 0 46722.11048374 0 180
0.01450000 0.01448870 91834.74783184 0 8061.85935138 0 23176.59031039 0 -5920.19492333 0 46124.53711328 0 267
0.01550000 0.01550050 90575.49233021 0 1816.60311602 0 18805.45791849 0 17548.08471208 0 46572.08048245 0 238
0.01650000 0.01653350 79760.82051010 0 11308.16533728 0 34482.76262921 0 9832.03620944 0 18801.47188155 0 315
0.01750000 0.01747870 76297.17586033 0 15622.16453312 0 28391.98746972 0 6707.23791609 0 32892.11244576 0 297
0.01850000 0.01844180 62740.66424537 0 5494.95121635 0 26925.23660099 0 10114.28084139 0 33106.91554724 0 388
0.01950000 0.01947590 58416.03561770 0 4600.15235845 0 12593.33007898 0 6754.80462351 0 12008.04698907 0 399
0.02050000 0.02045430 60373.73336889 0 -6354.86117874 0 16095.06352613 0 13488.08464758 0 11359.43020119 0 462
0.02150000 0.02154770 62072.67088906 0 -2263.16104828 0 10409.44687640 0 1001.66229365 0 -4312.78124011 0 571
0.02250000 0.02255340 61245.90039485 0 5747.43343919 0 3019.04651900 0 -937.35201664 0 -7763.39376357 0 510
0.02350000 0.02348930 57862.97299301 0 1280.95725827 0 6152.34835781 0 -6644.66820854 0 -5177.64053170 0 555
0.02450000 0.02439640 59625.68710414 0 -2125.98601610 0 8418.70930796 0 -4584.59574208 0 -3704.53414852 0 592
0.02550000 0.02547300 67689.55054631 0 -8724.37190690 0 8628.45235700 0 -4674.41444101 0 -19891.32081345 0 837
0.02650000 0.02652900 69390.14891521 0 -927.09572216 0 15783.48830573 0 -5240.90779571 0 -18052.42910757 0 723
0.02750000 0.02749970 68517.09610326 0 10716.18349085 0 15256.66709086 0 -15520.07769830 0 -15335.94493656 0 826
0.02850000 0.02848090 65993.93472358 0 1998.65428069 0 17790.67934886 0 -1896.22420379 0 -12472.30956872 0 831
0.02950000 0.02946900 60830.02387466 0 -2113.29713186 0 18226.48605372 0 -1255.13659679 0 -12520.03128868 0 996
0.03050000 0.03053250 64539.80630515 0 3110.14960761 0 20485.46176322 0 2248.82238764 0 -29359.59793562 0 1041
0.03150000 0.03150510 57346.89193321 0 5874.94233180 0 19921.21609046 0 -1993.40599872 0 -15338.38084802 0 1036
0.03250000 0.03246190 55730.88612593 0 3719.95789700 0 16684.88626922 0 4436.82449505 0 -18820.51628024 0 1059
0.03350000 0.03345080 50008.70865966 0 2275.82778787 0 17249.68555822 0 2941.08627995 0 -10550.35328205 0 1302
0.03450000 0.03451200 53222.78310801 0 11.97239410 0 15198.64810881 0 6585.45341541 0 -17636.10969439 0 1339
0.03550000 0.03553350 50887.18691077 0 390.34373916 0 15695.35260018 0 5256.74122020 0 -11639.78146560 0 1365
0.03650000 0.03647120 51246.81602088 0 1708.96904646 0 13605.89418365 0 -3268.60564809 0 -8652.54573580 0 1308
0.03750000 0.03744890 49613.09449389 0 1551.26592407 0 14636.50617777 0 1297.62110712 0 -4823.33720982 0 1579
0.03850000 0.03847530 48107.70121154 0 2278.72873698 0 14628.64482715 0 -2705.06860412 0 -4056.98839215 0 1662
0.03950000 0.03950240 45127.14209361 0 1365.15121619 0 16874.88736311 0 4225.47595892 0 -1836.81010881 0 1683
0.04050000 0.04050350 45447.57517386 0 1714.90381256 0 17047.61563028 0 225.60636881 0 -2822.03664350 0 1822
0.04150000 0.04152450 43045.98792070 0 1280.27077413 0 15549.75152881 0 3798.40531834 0 -4178.85039910 0 1887
0.04250000 0.04250150 42119.67722637 0 264.81679269 0 17213.58977931 0 2081.41990871 0 2162.65755590 0 1920
0.04350000 0.04349210 42425.05194487 0 -393.39748634 0 8563.20314684 0 4744.72370361 0 833.82135065 0 2005
0.04450000 0.04448520 43615.99120236 0 -2093.57732136 0 10661.45298928 0 4446.42420067 0 95.28156255 0 2151
0.04550000 0.04548030 43553.21112064 0 13.88735268 0 8953.83476645 0 1154.27879002 0 -4822.35177291 0 2274
0.04650000 0.04648670 42888.20729203 0 2115.76626030 0 9272.33018985 0 -2640.57231205 0 -806.76833942 0 2311
0.04750000 0.04749250 41016.87367443 0 2523.74821289 0 10025.53615797 0 -57.44776081 0 -0.71319280 0 2568
0.04850000 0.04851840 39223.26777706 0 1180.08837917 0 10213.12348504 0 264.47797955 0 2469.54918290 0 2493
0.04950000 0.04949480 38939.48409196 0 1571.66114638 0 12618.02136333 0 849.11776739 0 -27.41673710 0 2644
0.05050000 0.05050630 37117.20087331 0 1155.23100995 0 12191.07251832 0 755.86111160 0 1110.75348116 0 2829
0.05150000 0.05149060 36525.71728150 0 646.06129531 0 12624.33258848 0 65.69653208 0 -39.49697565 0 2784
0.05250000 0.05249300 36792.33886313 0 325.25839941 0 13273.72443909 0 -300.03342901 0 1381.15072555 0 3055
0.05350000 0.05348950 36426.17708138 0 -856.06897291 0 11885.14418358 0 160.16782190 0 -245.21102713 0 3009
0.05450000 0.05448610 37332.77903753 0 -225.69605464 0 11153.48495957 0 175.84180491 0 -2304.91478517 0 3336
0.05550000 0.05550870 37394.45188677 0 1771.42803076 0 11323.00225254 0 -984.08165630 0 -1687.33372376 0 3349
0.05650000 0.05647670 36631.90087651 0 1262.41111420 0 12551.25524467 0 -195.58597453 0 510.71319673 0 3324
0.05750000 0.05747970 34207.83680396 0 220.45109437 0 11060.42206947 0 592.06710333 0 -1633.75474397 0 3639
0.05850000 0.05849280 36242.81938238 0 278.32945790 0 13153.70043806 0 2250.46109171 0 -3554.74773838 0 3846
0.05950000 0.05951020 33242.44080302 0 769.73694907 0 11596.59939881 0 1496.71257969 0 -5021.50967943 0 3787
0.06050000 0.06049470 32471.80699564 0 1675.69671038 0 11266.09050297 0 855.80877328 0 -2112.99817909 0 3930
0.06150000 0.06148310 31325.48920717 0 676.02964966 0 9097.59783189 0 3196.22586075 0 102.04597795 0 4083
0.06250000 0.06249100 31342.76203389 0 35.11576744 0 7515.08580719 0 2394.73348410 0 -392.12084729 0 4303
0.06350000 0.06350600 31739.92632513 0 20.31339784 0 7790.68704425 0 1315.11538033 0 -722.47694504 0 4470
0.06450000 0.06451750 31327.48222564 0 368.92211233 0 7753.71655168 0 -2200.48061748 0 -1003.39179079 0 4479
0.06550000 0.06550280 31005.05612692 0 1513.83039385 0 9343.95705911 0 -2310.73882803 0 1043.66294338 0 4636
0.06650000 0.06648880 30752.49639780 0 505.75611690 0 10832.26574425 0 -1444.26297702 0 3725.74872288 0 4653
0.06750000 0.06749660 30624.38959965 0 -100.68563212 0 11873.96113552 0 808.83111354 0 4322.82383872 0 5220
0.06850000 0.06852730 31204.69014340 0 -444.23495851 0 11930.42999209 0 3312.69564552 0 3383.73568155 0 5029
0.06950000 0.06949320 31137.70257825 0 -45.75848605 0 10331.18768459 0 2743.26812474 0 4912.65765414 0 5040
0.07050000 0.07048030 30631.58661079 0 1217.29139056 0 11118.16424340 0 1130.81653373 0 4600.63954075 0 5475
0.07150000 0.07148790 29594.77411477 0 933.49995483 0 10180.50441613 0 1235.22855677 0 6596.54788488 0 5509
0.07250000 0.07249820 27947.65507475 0 1034.69103858 0 9673.03762504 0 295.53474343 0 3914.00038944 0 5916
0.07350000 0.07351270 27880.00317010 0 1444.66158071 0 11357.43718273 0 -1333.28506536 0 4996.72981648 0 5721
0.07450000 0.07449140 26426.09619817 0 1310.74181203 0 11151.27049460 0 -546.51223733 0 2649.05371286 0 6028
0.07550000 0.07549160 26184.16590088 0 589.63340633 0 11787.92917168 0 -1013.48421486 0 3515.42991295 0 6183
0.07650000 0.07648840 26172.42923657 0 -37.29845483 0 10846.34974142 0 -74.63223038 0 2505.23528579 0 6330
0.07750000 0.07749960 26238.08812275 0 -242.83822792 0 11749.17603481 0 402.06268774 0 2534.12298124 0 6583
0.07850000 0.07848650 25632.43195517 0 560.50654867 0 10754.51587938 0 1339.58521818 0 1135.32296993 0 6549
0.07950000 0.07947320 25718.35319576 0 224.63754039 0 10813.54244298 0 1679.25092665 0 1914.26102092 0 6828
0.08050000 0.08048110 25078.48354449 0 195.17629851 0 9414.15559846 0 1861.42388689 0 1511.02909568 0 7147
0.08150000 0.08149960 24616.87832280 0 842.08241220 0 8816.72616822 0 852.76166949 0 609.48719197 0 7386
0.08250000 0.08250610 23678.49879442 0 819.09958757 0 8533.13071264 0 -375.46917800 0 1230.88820544 0 7227
0.08350000 0.08350160 23465.91015790 0 651.73696901 0 8481.83263175 0 -280.43762854 0 1112.61363173 0 7798
0.08450000 0.08449610 22467.96152200 0 621.99449008 0 8926.59684739 0 -875.02922193 0 -660.31027012 0 7371
0.08550000 0.08548940 22488.00242992 0 413.83146179 0 9242.36847889 0 113.67180829 0 -391.23616854 0 8256
0.08650000 0.08650700 21770.73722817 0 351.92941543 0 9020.87769322 0 178.84461940 0 -894.86529184 0 8037
0.08750000 0.08749060 21398.70711426 0 465.85145826 0 7880.01856088 0 1279.37391582 0 -709.92314316 0 8155
0.08850000 0.08849210 21033.76328824 0 183.47285117 0 7766.78189496 0 1110.43238374 0 -1958.40637997 0 8718
0.08950000 0.08949900 21122.23116354 0 455.64831094 0 7498.39981368 0 885.07957117 0 -1233.77808222 0 8571
0.09050000 0.09049190 20530.08323224 0 332.91048309 0 6927.48860138 0 300.24158871 0 -782.50998298 0 8932
0.09150000 0.09150830 20355.14050010 0 227.00037450 0 6857.92118455 0 629.16603487 0 -202.99557430 0 9285
0.09250000 0.09250820 20372.52405007 0 97.23195256 0 6390.42548606 0 -449.34151472 0 -807.40831980 0 9204
0.09350000 0.09350330 19935.94228247 0 457.72215738 0 6647.38092812 0 486.00862559 0 -767.71071363 0 9349
0.09450000 0.09448040 19801.85642892 0 346.09097855 0 5797.30319017 0 921.94598388 0 -553.00283414 0 9564
0.09550000 0.09549270 19043.40217884 0 291.74911558 0 5380.47445005 0 438.87706053 0 -1429.37070014 0 10155
0.09650000 0.09649430 18996.23407511 0 310.27865116 0 5628.26200716 0 399.77403820 0 -1245.99085649 0 9913
0.09750000 0.09749140 18065.82662060 0 831.52052156 0 5459.79658505 0 -573.63943313 0 -1695.82619690 0 10476
0.09850000 0.09850240 17644.63538450 0 1035.21475955 0 4811.58947319 0 386.67215625 0 -869.34136867 0 10575
0.09950000 0.09950330 16633.84285180 0 221.87831704 0 4937.92469937 0 553.90412138 0 -278.44903900 0 10882
0.10050000 0.10051200 17049.05503250 0 -260.95144409 0 4861.60316440 0 507.67827249 0 -1131.48087322 0 10875
0.10150000 0.10150300 16709.13466057 0 21.33481980 0 4826.23815893 0 73.59364631 0 -382.38938101 0 11118
0.10250000 0.10250800 16942.20709800 0 500.71820911 0 4787.37429881 0 382.15686219 0 -752.34897017 0 11575
0.10350000 0.10349800 16180.20970398 0 446.13607669 0 5483.53564946 0 -70.65427624 0 837.89818065 0 11364
0.10450000 0.10450100 16151.97527570 0 508.12559441 0 5395.61031808 0 243.51474697 0 452.53698766 0 12093
0.10550000 0.10551000 15763.77956755 0 334.14504731 0 5932.70665038 0 -42.01105772 0 597.37628308 0 12067
0.10650000 0.10649700 15635.67276940 0 338.26284491 0 5474.71100658 0 -63.63309363 0 178.73832508 0 12054
0.10750000 0.10749900 15535.24678330 0 208.83622564 0 6613.53283115 0 -374.47488323 0 1142.59748734 0 12807
0.10850000 0.10850100 15439.80334336 0 -26.94084858 0 6374.84672504 0 -174.29943006 0 450.31698654 0 12736
0.10950000 0.10950300 15496.60436968 0 66.25535231 0 6312.49846398 0 81.67212522 0 283.55891691 0 12933
0.11050000 0.11050200 15476.56346176 0 -90.49809678 0 6029.73343276 0 609.10187506 0 -88.60650081 0 13428
0.11150000 0.11150900 15213.15285432 0 75.22493192 0 5760.37698690 0 856.68016524 0 -320.59584343 0 13453
0.11250000 0.11250000 15206.84162918 0 504.76071490 0 4978.12831079 0 740.47722350 0 -90.26867821 0 13668
0.11350000 0.11349100 14648.90718157 0 108.08183438 0 4358.55423091 0 958.65627682 0 -272.30057703 0 13791
0.11450000 0.11448600 14487.36196246 0 -74.33283471 0 3768.15572693 0 795.54985992 0 277.02624527 0 14205
0.11550000 0.11549300 14754.75860683 0 -41.67822364 0 3531.23012046 0 529.05893172 0 -103.64471093 0 14776
0.11650000 0.11649800 14774.02445202 0 34.49383495 0 3487.51658208 0 -75.58035355 0 -143.95461666 0 14553
0.11750000 0.11747300 14281.63816733 0 401.28873224 0 3789.33708431 0 -263.87564508 0 195.73212921 0 14568
0.11850000 0.11849100 14467.98539403 0 432.74409982 0 3751.62474598 0 -723.71372373 0 338.16762291 0 16015
0.11950000 0.11950300 14161.50344305 0 0.28003238 0 4347.82514816 0 64.41978230 0 756.64724667 0 15270
0.12050000 0.12050700 14177.55831404 0 -46.05168122 0 3997.04282558 0 300.81292067 0 -29.76163405 0 15999
0.12150000 0.12150000 14152.75630644 0 197.40958642 0 4428.15486472 0 526.61969856 0 -15.14826903 0 15670
0.12250000 0.12250700 13640.88273008 0 506.72605256 0 4166.40510601 0 311.15557929 0 -234.22506645 0 16887
0.12350000 0.12352200 13255.67654964 0 559.23766024 0 3996.66636654 0 49.90540387 0 437.95252141 0 16407
0.12450000 0.12449800 12984.73676132 0 168.52853437 0 3856.31357714 0 35.51680704 0 541.67363138 0 16306
0.12550000 0.12549900 12894.71876055 0 -157.42963597 0 4146.69636783 0 199.33949264 0 169.40435526 0 17523
0.12650000 0.12650100 13325.65364249 0 -194.04249245 0 3891.74501656 0 14.02298866 0 -185.82018404 0 17154
0.12750000 0.12750600 13206.95832043 0 135.25619829 0 4276.58581028 0 -380.31221287 0 291.34497572 0 18007
0.12850000 0.12850300 13059.25350735 0 386.20268967 0 3830.48184334 0 -91.55317861 0 301.41746961 0 17496
0.12950000 0.12949900 12943.87988274 0 20.06737078 0 4193.48801251 0 172.60204267 0 693.23493520 0 18405
0.13050000 0.13049000 12901.69432518 0 239.38034088 0 3725.02902176 0 259.13336836 0 165.25666238 0 18100
0.13150000 0.13148800 12804.47931328 0 167.55416978 0 3969.30665191 0 -31.58292076 0 -264.91644361 0 19059
0.13250000 0.13249300 12609.16350347 0 101.70340022 0 3836.32803084 0 388.21010216 0 413.00103743 0 18957
0.13350000 0.13349100 12598.20190190 0 86.56288182 0 3479.90989493 0 193.23642720 0 -166.43918667 0 19468
0.13450000 0.13450700 12241.34087300 0 132.98083554 0 3254.88703764 0 324.56084294 0 -256.29110258 0 19953
0.13550000 0.13551000 12314.52894005 0 367.02210139 0 3254.08983025 0 333.59696723 0 -679.17197545 0 19956
0.13650000 0.13649900 11894.88782942 0 178.05405541 0 3292.04575973 0 136.03458272 0 -165.49803906 0 19723
0.13750000 0.13749600 11652.51463914 0 134.96278168 0 2693.60874793 0 414.94201597 0 -177.22916721 0 20946
0.13850000 0.13851100 11651.40740666 0 17.87128587 0 2649.75126932 0 455.07476451 0 -37.01312102 0 20955
0.13950000 0.13949800 11661.04032925 0 4.76663583 0 2489.14719783 0 207.90947205 0 -283.63753041 0 20506
0.14050000 0.14048300 11369.94890977 0 204.96201918 0 2672.53811380 0 -92.78442113 0 -51.97437848 0 21447
0.14150000 0.14148400 11361.97683590 0 289.98418700 0 2735.38462947 0 71.47916444 0 229.59240574 0 21771
0.14250000 0.14249400 11034.09208105 0 250.77819205 0 2704.40426463 0 252.79446240 0 -39.13778943 0 22470
0.14350000 0.14350900 11059.68022370 0 220.35697961 0 2880.68674807 0 -114.29518017 0 266.79430990 0 22519
0.14450000 0.14449900 10877.05329814 0 32.13310458 0 2916.67180373 0 -162.28485040 0 384.00815490 0 22218
0.14550000 0.14550500 10958.00306489 0 114.61074143 0 3120.35829109 0 -228.99450020 0 371.25837287 0 23559
0.14650000 0.14650700 11062.45937723 0 -64.73977249 0 3076.96585013 0 -396.26300400 0 605.39928964 0 23044
0.14750000 0.14750500 11022.32219977 0 50.59210945 0 3093.12037204 0 -144.35543482 0 -245.69267326 0 23649
0.14850000 0.14849900 10854.07822415 0 281.06100043 0 3313.17175548 0 -76.46137844 0 23.64218157 0 23640
0.14950000 0.14949500 10501.60183587 0 278.32392173 0 3235.44403526 0 105.35383499 0 -349.65958884 0 24457
0.15050000 0.15050000 10337.21102929 0 278.77677982 0 2994.18914978 0 410.78214354 0 -86.39690767 0 24591
0.15150000 0.15149900 10152.87896571 0 127.39927660 0 2857.95526521 0 396.54202659 0 -610.86016024 0 25020
0.15250000 0.15250500 10020.71969667 0 91.15712155 0 2583.54983923 0 410.77882184 0 -173.01614762 0 25297
0.15350000 0.15350100 9964.68266076 0 -59.15356317 0 2420.25519281 0 358.27164309 0 103.09795953 0 25452
0.15450000 0.15450400 10178.30102349 0 -139.41496349 0 2301.82560655 0 283.99738097 0 -169.14858456 0 26061
0.15550000 0.15549900 10033.05426652 0 143.60030227 0 2471.46469509 0 -179.58646516 0 -376.77239063 0 26128
0.15650000 0.15649500 9985.46541445 0 515.93379788 0 2522.44167856 0 -426.47716397 0 -502.55510780 0 26331
0.15750000 0.15749700 9462.34235607 0 567.82424814 0 2905.14551359 0 -959.17335439 0 -98.19491265 0 27345
0.15850000 0.15849900 9198.07917962 0 352.30698171 0 3384.08999595 0 -391.12544529 0 -398.60258624 0 26980
0.15950000 0.15949700 8941.94308959 0 153.08042678 0 3383.25957159 0 -32.55296714 0 -182.83951420 0 27777
0.16050000 0.16050000 8934.80144008 0 -34.96308008 0 3320.23589872 0 358.94594767 0 -639.31714226 0 28224
0.16150000 0.16150500 8953.20364393 0 -53.02713513 0 3112.89554416 0 670.21778636 0 -162.84068111 0 28075
0.16250000 0.16249700 9014.09035811 0 20.76370929 0 2928.57455291 0 437.31807720 0 -229.81495947 0 28590
0.16350000 0.16349900 8799.97374077 0 174.88737051 0 2589.98285995 0 609.16166562 0 157.74076830 0 29163
0.16450000 0.16449100 8860.40648963 0 -25.13163070 0 2267.96643725 0 455.84982725 0 167.28732675 0 28996
0.16550000 0.16550500 8776.97652212 0 -135.51307622 0 1994.73467770 0 491.57136158 0 276.66750194 0 30777
0.16650000 0.16650700 8765.17342386 0 33.78454183 0 1844.52751921 0 47.14009075 0 -144.03323017 0 29211
0.16750000 0.16749900 8746.57191816 0 282.45722059 0 1914.27209325 0 -277.18679397 0 -391.85621873 0 30922
0.16850000 0.16850800 8447.70772666 0 261.32236697 0 1797.25976456 0 -327.32560245 0 -421.38832348 0 30867
0.16950000 0.16949900 8351.79924908 0 54.87787422 0 1692.69272898 0 -43.61831639 0 -658.87529682 0 30852
0.17050000 0.17049200 8367.94269867 0 -7.46005635 0 1709.43408410 0 14.39789758 0 -870.26812226 0 31257
0.17150000 0.17149500 8366.99047873 0 26.68917464 0 1817.49997433 0 9.27454465 0 -1088.46046237 0 32608
0.17250000 0.17250900 8256.33366449 0 162.89936443 0 1803.03951812 0 -96.07511607 0 -869.49638122 0 32361
0.17350000 0.17350400 8254.01954861 0 143.92472139 0 2000.87981798 0 -175.78976498 0 -449.42898609 0 32508
0.17450000 0.17449800 8255.66932501 0 86.00118278 0 2312.62112325 0 -15.54155801 0 -351.50534539 0 32791
0.17550000 0.17549800 8265.83371919 0 21.90526597 0 2551.46224191 0 66.68916600 0 -277.19011567 0 33633
0.17650000 0.17650100 8152.10987098 0 142.45099495 0 2514.27030284 0 77.13446506 0 58.73990112 0 33984
0.17750000 0.17750300 8160.92344153 0 252.29620778 0 2619.88920929 0 -10.15777293 0 180.97604193 0 34069
