### header ###
fiducial parameters:
Omega_m = 0.31
Omega_nu = 0
Omega_de = 0.69
Omega_k = 0
H_0 = 100
w_de = -1
zeff = 0
beta = 0
fgrowth = 0
b_1 = 2
gamma = 0.55
Lx = 3500 Ly = 3500 Lz = 3500
nx = 700 ny = 700 nz = 700
xoffset = -685.467585 yoffset = -31.7331281 zoffset = 572.489161
bins = 400 dk = 0.001
kx_ny = 0.628318531 ky_ny = 0.628318531 kz_ny = 0.628318531
############################
A(data) = 8.04188858 (not used)
A(ran) = 8.03751227 (used)
Ngal = 478000
weighted Ngal = 0
Nran = 23820508
weighted Nran = 0
SN(data) = 3491.70651
SN(ran) = 70.0096468
SN(data+ran) = 3561.71616
############################
13 columns: k_central k_mean P_0(k) sigma^{lin}_{P_0(k)} P^img_1(k) sigma^{lin}_{P_1(k)} P_2(k) sigma^{lin}_{P_2(k)} P^img_3(k) sigma^{lin}_{P_3(k)} P_4(k) sigma^{lin}_{P_4(k)} N_modes
### header ###
0.00050000 0 0 0 0 0 0 0 0 0 0 0 0
0.00150000 0.00179520 53281.46642955 0 -60531.07110456 0 31203.02929468 0 -145583.35564549 0 90648.56967402 0 3
0.00250000 0.00253879 73574.49118742 0 -23689.79256573 0 -5378.86896295 0 -10822.45566446 0 -8285.63103596 0 6
0.00350000 0.00331552 80943.01263098 0 6093.06713073 0 19034.21214924 0 -19484.74504611 0 19616.83788120 0 7
0.00450000 0.00420575 68350.34689149 0 22683.76113271 0 20175.99028454 0 -14994.80660890 0 66777.74459750 0 24
0.00550000 0.00557378 53633.45563554 0 10581.26721294 0 38363.28030840 0 37862.81122659 0 16554.89717585 0 45
0.00650000 0.00659388 51986.77948851 0 10302.84253305 0 66821.14811079 0 36423.74116992 0 16801.69929605 0 40
0.00750000 0.00754703 45963.98840341 0 10338.13003225 0 41019.97392538 0 33272.11463354 0 -6294.42842988 0 57
0.00850000 0.00846663 43091.60589895 0 9483.49049647 0 42409.77213662 0 33694.41310212 0 40346.88729966 0 75
0.00950000 0.00948925 38755.46205347 0 -4882.37484576 0 29754.76920840 0 28392.43036271 0 20748.09730792 0 112
0.01050000 0.01054430 54593.42619731 0 -19325.74646171 0 56677.23772818 0 13929.87040784 0 9216.13814140 0 105
0.01150000 0.01145670 60200.89437847 0 -3045.74189414 0 28807.75326666 0 16263.91647961 0 -10281.84940519 0 144
0.01250000 0.01249090 64582.10258596 0 2813.10127737 0 32290.77448486 0 504.93455040 0 17364.61628983 0 169
0.01350000 0.01339930 58389.35131489 0 5483.80138526 0 13467.04723042 0 -707.94119702 0 18061.06552093 0 180
0.01450000 0.01448870 59509.31697030 0 -3585.24092093 0 12665.74308330 0 15725.69077018 0 2314.28197197 0 267
0.01550000 0.01550050 66649.96996909 0 -8593.58560615 0 15602.12362520 0 11282.58826695 0 -3162.68778887 0 238
0.01650000 0.01653350 73677.68525473 0 -6126.71592585 0 5501.42852637 0 6264.72138239 0 -17541.66276368 0 315
0.01750000 0.01747870 77700.26086135 0 340.45959415 0 21793.21404755 0 -4974.50766057 0 -19296.84769394 0 297
0.01850000 0.01844180 75149.52939288 0 3841.57631280 0 26724.93824502 0 -9795.84077960 0 512.73500324 0 388
0.01950000 0.01947590 76932.06296543 0 5615.20773620 0 45349.47437597 0 -8903.56641177 0 16800.59206357 0 399
0.02050000 0.02045430 75737.35911750 0 3119.80467485 0 38875.48605451 0 11213.82912983 0 29091.86912150 0 462
0.02150000 0.02154770 74944.69138373 0 -842.79768438 0 41583.11236566 0 30405.48973799 0 24755.06093654 0 571
0.02250000 0.02255340 76637.09623226 0 533.54100880 0 38442.89032384 0 18606.82041124 0 22270.43124723 0 510
0.02350000 0.02348930 73065.60713876 0 4170.54615549 0 34259.21239112 0 15862.65542819 0 22839.99163590 0 555
0.02450000 0.02439640 66660.37795442 0 9197.89095010 0 30973.83217093 0 8413.72676179 0 31361.25281633 0 592
0.02550000 0.02547300 60564.62024876 0 3422.26737192 0 24305.41382565 0 5308.78114685 0 25632.98557141 0 837
0.02650000 0.02652900 60099.13971339 0 -4436.85771203 0 24290.57691039 0 9605.78432409 0 21703.97110951 0 723
0.02750000 0.02749970 60081.09182393 0 -5130.20669217 0 16137.02763719 0 9738.47506472 0 -386.51603647 0 826
0.02850000 0.02848090 68227.99770224 0 -2380.93736738 0 14922.17215809 0 -1510.74121523 0 1961.78343904 0 831
0.02950000 0.02946900 66058.81854702 0 3589.78057410 0 14433.66118709 0 -9849.84050774 0 -3255.96105315 0 996
0.03050000 0.03053250 61675.28515132 0 5395.94248782 0 10885.92223032 0 -8741.73331222 0 852.85467702 0 1041
0.03150000 0.03150510 59157.99210380 0 3378.70884609 0 15112.72686822 0 -5478.03270403 0 -7313.00480692 0 1036
0.03250000 0.03246190 57485.96033294 0 851.16282578 0 18731.93768169 0 787.38844929 0 -9232.59161608 0 1059
0.03350000 0.03345080 54586.56135593 0 1437.56422050 0 15487.08217034 0 4110.23520220 0 -13112.51138973 0 1302
0.03450000 0.03451200 54952.39096793 0 2358.64877752 0 16593.65031271 0 2077.99856034 0 -11310.82269524 0 1339
0.03550000 0.03553350 50930.36897756 0 2217.68701025 0 15827.22398877 0 2494.43976909 0 -3680.97224131 0 1365
0.03650000 0.03647120 51521.07750664 0 2948.95870290 0 17930.30136482 0 -1618.19812760 0 -972.85099724 0 1308
0.03750000 0.03744890 47760.14093549 0 2076.04983117 0 19041.18771387 0 -1369.44727822 0 411.61146067 0 1579
0.03850000 0.03847530 46487.70936733 0 2561.88129956 0 18920.94226634 0 1482.71716111 0 1040.49625849 0 1662
0.03950000 0.03950240 46055.99942265 0 -41.79271147 0 20679.33817079 0 2068.09990195 0 -336.91091405 0 1683
0.04050000 0.04050350 44862.73497694 0 -178.29653932 0 19197.41821707 0 3159.52110398 0 -25.16440479 0 1822
0.04150000 0.04152450 47088.16154224 0 1822.50466515 0 20436.85425726 0 -933.39144605 0 -2098.62630148 0 1887
0.04250000 0.04250150 44860.85268172 0 3104.18162453 0 19454.07470636 0 -379.53936460 0 4324.98294206 0 1920
0.04350000 0.04349210 44647.37825922 0 947.92055068 0 20266.89407130 0 -305.06912233 0 -1436.95524264 0 2005
0.04450000 0.04448520 43270.97756101 0 -549.91808444 0 21215.23869202 0 72.74904937 0 7830.53634127 0 2151
0.04550000 0.04548030 43270.53466802 0 341.63326058 0 20967.10789283 0 2436.70866749 0 -5618.24155320 0 2274
0.04650000 0.04648670 42768.95835374 0 -384.82750693 0 17351.32950005 0 2164.62842972 0 1710.98420958 0 2311
0.04750000 0.04749250 43611.56227244 0 743.02939437 0 17942.14875238 0 2934.65325923 0 -1439.81190244 0 2568
0.04850000 0.04851840 42343.78108070 0 698.57068853 0 15201.74835976 0 1424.72032371 0 -3820.88213772 0 2493
0.04950000 0.04949480 40611.84803257 0 2403.85707975 0 17115.48898142 0 -755.12148031 0 -5015.32024985 0 2644
0.05050000 0.05050630 38744.61117515 0 2417.66426880 0 14900.91329444 0 -2908.40077709 0 -5907.90464278 0 2829
0.05150000 0.05149060 36158.78043701 0 274.78299226 0 15322.87959328 0 1432.53738504 0 -5715.31262489 0 2784
0.05250000 0.05249300 36482.75666120 0 1279.46249442 0 14242.55286072 0 -629.78387059 0 -3424.45969224 0 3055
0.05350000 0.05348950 37298.78700033 0 -850.94359375 0 15385.99184474 0 3583.32540873 0 -4052.22729248 0 3009
0.05450000 0.05448610 36764.54732783 0 -726.27143076 0 12543.06172431 0 3915.83839536 0 -6922.24031942 0 3336
0.05550000 0.05550870 36705.08894356 0 1482.08603860 0 10892.79814404 0 923.01114153 0 -5794.38009642 0 3349
0.05650000 0.05647670 36169.29914558 0 1046.82741382 0 11256.67902688 0 845.99426456 0 -6302.22334655 0 3324
0.05750000 0.05747970 35516.36415103 0 254.25268758 0 10484.38437078 0 -204.97419874 0 71.07557820 0 3639
0.05850000 0.05849280 36059.01879039 0 -1231.78506375 0 9855.59811665 0 1116.47787309 0 -747.84364120 0 3846
0.05950000 0.05951020 36948.45864307 0 -1173.05745291 0 11689.05331104 0 2938.25176480 0 484.21712343 0 3787
0.06050000 0.06049470 37931.90253346 0 778.27924767 0 10659.60391103 0 1374.17516092 0 1320.57403647 0 3930
0.06150000 0.06148310 36685.93382162 0 1532.79728627 0 12433.11353886 0 -282.91118591 0 2920.36996022 0 4083
0.06250000 0.06249100 35966.01126191 0 1243.18955831 0 12760.07929075 0 468.70590360 0 6025.64774491 0 4303
0.06350000 0.06350600 35688.09590896 0 46.98773556 0 13405.92799742 0 -456.42780260 0 2180.17397377 0 4470
0.06450000 0.06451750 35488.35116924 0 1064.03159212 0 13544.11061116 0 -2165.83531313 0 2619.83384766 0 4479
0.06550000 0.06550280 33929.92145101 0 2149.26004287 0 15249.24863323 0 -1572.08189473 0 1905.67996919 0 4636
0.06650000 0.06648880 32458.29875937 0 1979.72060525 0 14665.29422230 0 -844.53825384 0 211.80914485 0 4653
0.06750000 0.06749660 30728.46945295 0 89.60478161 0 13971.39162591 0 2292.27019023 0 -802.88416788 0 5220
0.06850000 0.06852730 30733.56272236 0 -473.62090858 0 12847.43993357 0 4074.88126906 0 -4481.80027847 0 5029
0.06950000 0.06949320 30753.82507678 0 200.84422158 0 9327.17141468 0 1897.54181045 0 -5206.26249135 0 5040
0.07050000 0.07048030 30285.46573695 0 869.95034654 0 11898.76314311 0 1119.38989452 0 -2319.05414397 0 5475
0.07150000 0.07148790 30220.36046702 0 367.06417623 0 9844.64758740 0 675.91671195 0 -52.79439486 0 5509
0.07250000 0.07249820 29553.03145020 0 153.23765379 0 10367.32775279 0 874.66604968 0 1210.13866873 0 5916
0.07350000 0.07351270 29551.37060148 0 409.12572375 0 10936.94350309 0 -301.56916046 0 2309.11119628 0 5721
0.07450000 0.07449140 29277.55200871 0 1059.54730057 0 11838.19752635 0 1192.37865972 0 3000.69967678 0 6028
0.07550000 0.07549160 28228.89212514 0 1386.86404516 0 12389.04568608 0 1314.11887110 0 3785.90466362 0 6183
0.07650000 0.07648840 26888.47648259 0 1243.32242621 0 11111.96374150 0 1826.44641278 0 3258.38589228 0 6330
0.07750000 0.07749960 25537.98502446 0 846.30207519 0 10535.57172841 0 1907.15258839 0 3034.80243722 0 6583
0.07850000 0.07848650 24809.75822114 0 564.64649092 0 8640.08937038 0 2139.41674611 0 2174.10633977 0 6549
0.07950000 0.07947320 24540.92217454 0 -192.31742424 0 8207.56007367 0 647.59481230 0 833.93982453 0 6828
0.08050000 0.08048110 24524.31368732 0 -111.12628081 0 7910.67782831 0 -400.45498618 0 1052.66917239 0 7147
0.08150000 0.08149960 24298.77043076 0 732.27263081 0 7479.45506592 0 -767.24789045 0 527.95280647 0 7386
0.08250000 0.08250610 24113.64115979 0 311.09578873 0 7633.24965765 0 -644.76140437 0 1356.82482793 0 7227
0.08350000 0.08350160 24032.59174212 0 432.84153628 0 7380.87815806 0 797.50301802 0 374.78269386 0 7798
0.08450000 0.08449610 24107.55138114 0 -339.57602263 0 7226.28635894 0 816.29828939 0 -581.28155172 0 7371
0.08550000 0.08548940 23765.30582100 0 89.42430272 0 7138.39424453 0 517.36544948 0 -716.50010411 0 8256
0.08650000 0.08650700 23924.96874488 0 716.42813400 0 6852.45145609 0 -380.08080128 0 -1917.04017445 0 8037
0.08750000 0.08749060 22061.71792440 0 1036.93318436 0 6414.25312907 0 -95.71139020 0 418.55934449 0 8155
0.08850000 0.08849210 22062.71443363 0 617.74825351 0 6648.75389640 0 777.41560633 0 -75.63925832 0 8718
0.08950000 0.08949900 21896.85100785 0 113.85228718 0 6454.84427185 0 955.54273908 0 484.08093384 0 8571
0.09050000 0.09049190 21119.90597533 0 335.94983625 0 6497.60559030 0 1459.59814689 0 -84.47032315 0 8932
0.09150000 0.09150830 21136.29301606 0 413.99865390 0 6360.20911163 0 -544.42178240 0 1256.34348020 0 9285
0.09250000 0.09250820 20408.95199872 0 1003.50583573 0 6916.16161310 0 -777.28163120 0 362.90983995 0 9204
0.09350000 0.09350330 20176.54390078 0 858.07417094 0 7266.05814969 0 -645.14672128 0 1723.70631079 0 9349
0.09450000 0.09448040 18930.24301919 0 -1.83368771 0 7798.52625022 0 152.26771814 0 737.38140148 0 9564
0.09550000 0.09549270 19273.59581182 0 491.31891257 0 7329.29219673 0 -104.63468749 0 -545.98187297 0 10155
0.09650000 0.09649430 18879.53177152 0 294.57698734 0 7887.06055947 0 787.26665372 0 -730.66714371 0 9913
0.09750000 0.09749140 18075.23809670 0 862.48649238 0 7077.21964991 0 -9.84037367 0 -802.24861643 0 10476
0.09850000 0.09850240 17870.51081080 0 380.63109583 0 6881.10663272 0 447.13590762 0 -274.44971528 0 10575
0.09950000 0.09950330 17623.93013709 0 141.89516425 0 7040.88027985 0 531.53802524 0 -216.60346150 0 10882
0.10050000 0.10051200 17439.57592886 0 177.59566116 0 7026.78521036 0 642.29559764 0 400.34758463 0 10875
0.10150000 0.10150300 17404.03376619 0 37.77168599 0 6821.60395914 0 758.77756196 0 1069.63197401 0 11118
0.10250000 0.10250800 17284.23121165 0 -37.37983642 0 6465.48477600 0 576.49941464 0 1044.38485896 0 11575
0.10350000 0.10349800 17248.35687924 0 204.96312642 0 6417.08764422 0 718.38793549 0 1224.53269099 0 11364
0.10450000 0.10450100 17264.63319672 0 196.97333683 0 6247.84715937 0 239.33494435 0 2070.56903039 0 12093
0.10550000 0.10551000 16996.90438261 0 459.17927532 0 6639.70780702 0 -155.14984429 0 1568.01835152 0 12067
0.10650000 0.10649700 16688.87230615 0 536.28583813 0 6437.92575953 0 7.37927267 0 1324.89224315 0 12054
0.10750000 0.10749900 16139.35282540 0 461.40481261 0 6312.53168096 0 159.63524307 0 1317.98311246 0 12807
0.10850000 0.10850100 16022.09690557 0 247.29926759 0 6879.78902607 0 -185.47583473 0 394.02085823 0 12736
0.10950000 0.10950300 15778.72720606 0 307.47846021 0 6939.70137566 0 -24.21085617 0 749.65839524 0 12933
0.11050000 0.11050200 15410.12951285 0 239.66268516 0 6968.91016853 0 -145.78597919 0 1654.17211093 0 13428
0.11150000 0.11150900 15813.93719898 0 -73.40176292 0 6840.49334528 0 702.65969808 0 2320.02850855 0 13453
0.11250000 0.11250000 15865.75567913 0 -578.96965030 0 6460.48008518 0 1143.59399657 0 1767.06553478 0 13668
0.11350000 0.11349100 16298.12996330 0 -238.13802604 0 6172.26747015 0 737.88962119 0 1220.57987103 0 13791
0.11450000 0.11448600 16097.94233058 0 223.28782399 0 5564.29718669 0 480.21890694 0 1608.35483083 0 14205
0.11550000 0.11549300 16189.06756384 0 423.71794062 0 5546.79184115 0 288.64886463 0 2043.22038808 0 14776
0.11650000 0.11649800 15432.60633223 0 130.35780179 0 4773.12421677 0 453.30097808 0 2496.48814919 0 14553
0.11750000 0.11747300 15612.08871754 0 84.39514206 0 5061.64685690 0 1035.40852523 0 2097.98410664 0 14568
0.11850000 0.11849100 15432.49560898 0 15.22666109 0 5046.43348259 0 377.91616178 0 1360.56727372 0 16015
0.11950000 0.11950300 15227.54687659 0 325.83637476 0 5188.96751998 0 -242.11299065 0 2000.82445635 0 15270
0.12050000 0.12050700 15053.15776069 0 227.92934255 0 5213.50379178 0 -420.61547521 0 1270.53820061 0 15999
0.12150000 0.12150000 14954.28190006 0 298.48883969 0 5521.32549407 0 -639.90508271 0 1826.98895670 0 15670
0.12250000 0.12250700 14386.60380661 0 659.39015992 0 5534.61228385 0 -111.13735313 0 1064.63835552 0 16887
0.12350000 0.12352200 14271.67307499 0 389.76687103 0 5432.09362835 0 34.32365332 0 687.52161559 0 16407
0.12450000 0.12449800 13658.15555679 0 249.43844075 0 5433.75447708 0 -165.45928593 0 507.05157891 0 16306
0.12550000 0.12549900 13390.09457293 0 258.67275965 0 5489.17146279 0 70.04983803 0 196.35439387 0 17523
0.12650000 0.12650100 13418.32900122 0 441.23878742 0 5477.93305310 0 446.25787226 0 527.51655687 0 17154
0.12750000 0.12750600 13130.78072568 0 161.19754810 0 5280.93424993 0 396.54977722 0 325.83194583 0 18007
0.12850000 0.12850300 12956.39160979 0 55.87405129 0 5476.41614460 0 312.55733561 0 943.10962554 0 17496
0.12950000 0.12949900 13005.55273198 0 -108.62969301 0 4867.16147146 0 768.82791120 0 828.73915356 0 18405
0.13050000 0.13049000 12947.86591968 0 -72.22101020 0 4857.34031934 0 930.24690580 0 1213.05069016 0 18100
0.13150000 0.13148800 12996.47342563 0 79.29633648 0 4531.19391948 0 456.18864039 0 870.12750373 0 19059
0.13250000 0.13249300 12725.53363732 0 333.45745594 0 4180.66626037 0 536.69108521 0 988.53605258 0 18957
0.13350000 0.13349100 12352.50701418 0 334.17937151 0 3786.38077358 0 74.78491774 0 862.55403356 0 19468
0.13450000 0.13450700 12137.48246620 0 433.33536196 0 3866.31188645 0 -35.00216539 0 575.28256614 0 19953
0.13550000 0.13551000 11857.68481803 0 171.31876022 0 3713.73525045 0 -14.53264777 0 620.12326719 0 19956
0.13650000 0.13649900 11750.50471379 0 97.75301617 0 3591.19783168 0 -31.75465252 0 591.05952177 0 19723
0.13750000 0.13749600 11689.82837378 0 147.41803987 0 3951.42484733 0 -72.41411155 0 637.95635354 0 20946
0.13850000 0.13851100 11658.27224805 0 160.22318352 0 4220.98059504 0 -12.23547254 0 515.61159322 0 20955
0.13950000 0.13949800 11411.35940459 0 321.25907568 0 4640.34489755 0 -265.55863845 0 894.73463841 0 20506
0.14050000 0.14048300 11245.05308582 0 382.15464772 0 4503.04806979 0 23.31377641 0 1496.94509851 0 21447
0.14150000 0.14148400 11183.71240632 0 -1.35486503 0 4540.78255278 0 52.38748692 0 1192.94334829 0 21771
0.14250000 0.14249400 11162.78571241 0 -9.75221582 0 4570.09099657 0 -107.83912902 0 1309.82280907 0 22470
0.14350000 0.14350900 11358.54441521 0 36.55561256 0 4566.99074562 0 112.71626665 0 1553.39181043 0 22519
0.14450000 0.14449900 11243.94585334 0 -22.25182974 0 4473.78391530 0 527.26300063 0 1428.35204626 0 22218
0.14550000 0.14550500 11156.47448727 0 205.76365550 0 4175.75014816 0 593.00271478 0 1005.99600158 0 23559
0.14650000 0.14650700 10935.72554736 0 230.99416206 0 4044.34379721 0 516.38665596 0 1104.99587225 0 23044
0.14750000 0.14750500 10697.00622427 0 334.54697270 0 3776.86964656 0 166.40707693 0 864.03551062 0 23649
0.14850000 0.14849900 10500.11814434 0 140.29521331 0 3517.63330558 0 -86.92295382 0 952.68165035 0 23640
0.14950000 0.14949500 10370.29513584 0 104.31137561 0 3844.59905748 0 -10.62143761 0 690.50782160 0 24457
0.15050000 0.15050000 10411.96029414 0 110.63145861 0 3997.68502042 0 -264.55548582 0 573.32608634 0 24591
0.15150000 0.15149900 10211.68408282 0 83.52020696 0 3851.97322581 0 -181.29049595 0 689.28875863 0 25020
0.15250000 0.15250500 10374.93443994 0 151.73513931 0 4229.81631024 0 -246.52641932 0 647.11870233 0 25297
0.15350000 0.15350100 10143.23497079 0 -50.97521189 0 4161.66615099 0 423.63600542 0 1176.97705590 0 25452
0.15450000 0.15450400 10254.23502710 0 -6.35565839 0 4022.37630477 0 495.25623128 0 1230.05778108 0 26061
0.15550000 0.15549900 10171.45832675 0 62.76756999 0 3726.09196495 0 744.88622324 0 1114.94989226 0 26128
0.15650000 0.15649500 10015.42712541 0 167.80218986 0 3497.90242276 0 734.83476677 0 1422.94875174 0 26331
0.15750000 0.15749700 9689.51324437 0 325.26282834 0 3081.15118891 0 632.29618109 0 1378.46015062 0 27345
0.15850000 0.15849900 9492.00511426 0 192.04061612 0 2559.12429068 0 436.90729395 0 1288.19855870 0 26980
0.15950000 0.15949700 9175.46949234 0 193.52984381 0 2263.20533758 0 332.63810390 0 1297.58789015 0 27777
0.16050000 0.16050000 9108.13868512 0 63.05179657 0 2152.44887242 0 -42.88643572 0 743.05486072 0 28224
0.16150000 0.16150500 9087.54416096 0 91.87892641 0 2136.84796675 0 -148.35365132 0 948.70668574 0 28075
0.16250000 0.16249700 8999.26451518 0 206.82549145 0 2060.71466130 0 -297.73702884 0 603.08295929 0 28590
0.16350000 0.16349900 8857.48339587 0 185.21120617 0 2256.71695524 0 -236.66208514 0 1041.30453820 0 29163
0.16450000 0.16449100 8872.22066021 0 170.76182228 0 2388.41118663 0 -232.46788850 0 777.40342677 0 28996
0.16550000 0.16550500 8749.39536099 0 55.21480507 0 2331.77624518 0 185.09162506 0 836.54846426 0 30777
0.16650000 0.16650700 8797.62640790 0 9.09650167 0 2714.04825955 0 -37.68786849 0 404.72890356 0 29211
0.16750000 0.16749900 8606.15269481 0 71.10945951 0 2412.95853075 0 190.03431086 0 440.22456246 0 30922
0.16850000 0.16850800 8592.01333602 0 85.72913576 0 2576.04280301 0 50.09296905 0 397.89285022 0 30867
0.16950000 0.16949900 8492.92710122 0 114.35386349 0 2340.02512717 0 -58.07578308 0 187.43120730 0 30852
0.17050000 0.17049200 8440.54393250 0 39.43519207 0 2262.77351691 0 199.11583168 0 292.13000355 0 31257
0.17150000 0.17149500 8453.34353999 0 145.01755985 0 2339.88118695 0 8.08580879 0 124.78620794 0 32608
0.17250000 0.17250900 8251.09645486 0 170.71421129 0 2317.12755945 0 50.84156893 0 314.34883776 0 32361
0.17350000 0.17350400 8193.76395694 0 250.69957854 0 2525.73015903 0 9.07271832 0 536.11975325 0 32508
0.17450000 0.17449800 7950.54926998 0 191.21129899 0 2480.99796676 0 81.06757629 0 630.69401569 0 32791
0.17550000 0.17549800 7895.05477799 0 142.72005245 0 2569.75372251 0 -67.51283624 0 609.89133182 0 33633
0.17650000 0.17650100 7899.78266068 0 25.96570893 0 2559.60040065 0 121.23420614 0 440.77817871 0 33984
0.17750000 0.17750300 7833.32656712 0 -27.34897447 0 2528.11070887 0 -120.40931794 0 469.26284153 0 34069
0.17850000 0.17849800 7938.59115917 0 84.00639274 0 2603.26964974 0 -34.80319571 0 341.34095121 0 34536
