### header ###
fiducial parameters:
Omega_m = 0.31
Omega_nu = 0
Omega_de = 0.69
Omega_k = 0
H_0 = 100
w_de = -1
zeff = 0
beta = 0
fgrowth = 0
b_1 = 2
gamma = 0.55
Lx = 3500 Ly = 3500 Lz = 3500
nx = 700 ny = 700 nz = 700
xoffset = -685.467585 yoffset = -31.7331281 zoffset = 572.489161
bins = 400 dk = 0.001
kx_ny = 0.628318531 ky_ny = 0.628318531 kz_ny = 0.628318531
############################
A(data) = 8.05296796 (not used)
A(ran) = 8.05002287 (used)
Ngal = 478660
weighted Ngal = 0
Nran = 23820508
weighted Nran = 0
SN(data) = 3491.06745
SN(ran) = 70.1186187
SN(data+ran) = 3561.18607
############################
13 columns: k_central k_mean P_0(k) sigma^{lin}_{P_0(k)} P^img_1(k) sigma^{lin}_{P_1(k)} P_2(k) sigma^{lin}_{P_2(k)} P^img_3(k) sigma^{lin}_{P_3(k)} P_4(k) sigma^{lin}_{P_4(k)} N_modes
### header ###
0.00050000 0 0 0 0 0 0 0 0 0 0 0 0
0.00150000 0.00179520 3510.05983541 0 -7622.16626051 0 1537.58053059 0 -19755.46338793 0 -488.71248731 0 3
0.00250000 0.00253879 6936.68970331 0 -8039.93614824 0 -8885.24171419 0 9352.90349756 0 11995.64598527 0 6
0.00350000 0.00331552 11646.31413724 0 -9790.86930576 0 -16237.12145355 0 8443.07949489 0 8123.26646482 0 7
0.00450000 0.00420575 22724.17511830 0 -22098.14587305 0 -30563.71325965 0 7888.67711889 0 -11935.08036852 0 24
0.00550000 0.00557378 46208.24388890 0 -29336.67822324 0 -49419.55025606 0 -6702.23322527 0 -26376.04928999 0 45
0.00650000 0.00659388 67172.47297728 0 -21117.02717087 0 -51951.90166533 0 -26015.20222415 0 -7339.45659091 0 40
0.00750000 0.00754703 65685.34903089 0 -1940.76816654 0 -44848.89457092 0 -48722.43668547 0 1274.66817777 0 57
0.00850000 0.00846663 78105.95084270 0 -1479.14080020 0 -54281.96170017 0 -28190.91405101 0 17691.13914874 0 75
0.00950000 0.00948925 74564.24630296 0 -5010.50378856 0 -53233.74470958 0 -10790.72238153 0 15118.92737012 0 112
0.01050000 0.01054430 71933.68337255 0 -9960.36445408 0 -43026.50062902 0 -12835.81399251 0 -6597.20115204 0 105
0.01150000 0.01145670 81807.87192257 0 -290.66292051 0 -47428.74625366 0 -8243.74443118 0 -7775.65082714 0 144
0.01250000 0.01249090 81209.63421262 0 10741.76056119 0 -24787.83501800 0 -33823.29496301 0 -8470.31741394 0 169
0.01350000 0.01339930 71879.65042743 0 10053.36091024 0 -31609.93723176 0 -24681.76214624 0 14952.51032809 0 180
0.01450000 0.01448870 65148.45200043 0 1424.60960047 0 -2520.38222614 0 -11260.11144757 0 10874.73918226 0 267
0.01550000 0.01550050 73643.69321754 0 -3458.17492131 0 14684.00645124 0 -2332.17484888 0 17437.47218714 0 238
0.01650000 0.01653350 75561.19842963 0 -6894.17197601 0 13345.36238067 0 15064.67297851 0 1963.01246710 0 315
0.01750000 0.01747870 80527.13611080 0 -2828.02677123 0 9109.35664085 0 8364.57671192 0 7108.01178523 0 297
0.01850000 0.01844180 76396.93750694 0 -3462.72564681 0 15295.64167422 0 241.81071618 0 569.65228897 0 388
0.01950000 0.01947590 83595.72021104 0 8457.22992600 0 25373.22883116 0 -5951.99464021 0 3817.70438049 0 399
0.02050000 0.02045430 71728.62391691 0 13396.18435158 0 32217.36497131 0 -11650.30017418 0 -4496.30502398 0 462
0.02150000 0.02154770 63221.97820524 0 8480.16071070 0 30107.53347712 0 -13123.58371455 0 -1572.03760543 0 571
0.02250000 0.02255340 60211.19164055 0 -663.80248137 0 36010.07911469 0 -4417.01610595 0 5783.79495389 0 510
0.02350000 0.02348930 64038.34071412 0 -2763.43082824 0 35061.40232423 0 3908.45315471 0 -10380.59239793 0 555
0.02450000 0.02439640 65753.99744476 0 -3812.81041292 0 36147.59738894 0 17240.16335887 0 -2525.19868744 0 592
0.02550000 0.02547300 69181.54631563 0 -3504.43509440 0 24906.53034006 0 17003.87994724 0 -9245.81197191 0 837
0.02650000 0.02652900 70904.17861091 0 1223.59154338 0 22969.87000603 0 11122.81461982 0 4543.38454911 0 723
0.02750000 0.02749970 62587.86616287 0 5998.44304283 0 19224.87758262 0 4795.81141032 0 -6284.26403569 0 826
0.02850000 0.02848090 60906.09074617 0 7552.83136249 0 16836.02350299 0 8270.31801074 0 9414.67599772 0 831
0.02950000 0.02946900 55232.52078585 0 4104.88726932 0 16926.81656651 0 6162.46846269 0 8127.90576892 0 996
0.03050000 0.03053250 51429.50938039 0 -301.66770415 0 9741.67496659 0 3077.96235936 0 8636.81196224 0 1041
0.03150000 0.03150510 52676.91749445 0 -1801.58904357 0 8631.09864263 0 5119.90943009 0 5265.93124980 0 1036
0.03250000 0.03246190 55532.47006518 0 -3524.17704955 0 6799.76933460 0 -150.58583200 0 -4771.16441528 0 1059
0.03350000 0.03345080 56311.96173242 0 1212.74066506 0 10813.66423856 0 -5253.98421132 0 -655.51263177 0 1302
0.03450000 0.03451200 55755.24524053 0 4270.66211650 0 13406.70306016 0 -13070.32583217 0 -5422.81502015 0 1339
0.03550000 0.03553350 53785.58937855 0 4875.08925603 0 22707.56663107 0 -8087.35891544 0 76.12522266 0 1365
0.03650000 0.03647120 49629.14936487 0 2018.59553769 0 23726.88485388 0 -3791.39653673 0 -3773.02754985 0 1308
0.03750000 0.03744890 51200.20153339 0 141.74125893 0 30110.85517456 0 241.38886060 0 -3690.77124877 0 1579
0.03850000 0.03847530 49967.85178108 0 -770.48875992 0 26203.09957632 0 2883.88664994 0 -7802.30191298 0 1662
0.03950000 0.03950240 50773.47413488 0 591.46476886 0 27578.72521179 0 2438.71275828 0 -14934.57316189 0 1683
0.04050000 0.04050350 49955.78294702 0 2355.85855166 0 25555.14712793 0 -1574.72818036 0 -12330.80525753 0 1822
0.04150000 0.04152450 47333.96715322 0 1819.91374114 0 23522.48973772 0 -1737.77923564 0 -17821.12824211 0 1887
0.04250000 0.04250150 44615.60068699 0 3216.78716794 0 21714.37909484 0 1914.68176926 0 -11261.21868005 0 1920
0.04350000 0.04349210 44504.43454581 0 1103.73584169 0 25726.98960912 0 3576.89238801 0 -12849.87584503 0 2005
0.04450000 0.04448520 42436.67788593 0 1012.55746127 0 21031.99171627 0 7879.96319926 0 -9364.78410209 0 2151
0.04550000 0.04548030 42558.03056594 0 141.87744853 0 19329.51105215 0 5875.49594804 0 -6591.07815642 0 2274
0.04650000 0.04648670 41733.47453670 0 1676.09531407 0 17621.60494888 0 337.89192203 0 -5450.10830083 0 2311
0.04750000 0.04749250 39030.94149496 0 2410.42296837 0 19242.92547207 0 1845.23614800 0 1994.97826885 0 2568
0.04850000 0.04851840 37396.99852147 0 1133.49603633 0 18994.68394964 0 692.03801689 0 189.86047536 0 2493
0.04950000 0.04949480 37556.55072211 0 -446.16929366 0 17347.78635611 0 988.92247671 0 1442.09280135 0 2644
0.05050000 0.05050630 38727.55979493 0 -1210.45976615 0 17889.44448624 0 259.33267020 0 -1697.61991352 0 2829
0.05150000 0.05149060 38791.44710913 0 213.73905107 0 15388.20630971 0 979.79777383 0 -1699.54649804 0 2784
0.05250000 0.05249300 39971.64621155 0 7.88693876 0 15187.46506074 0 1006.36692446 0 -6141.14316509 0 3055
0.05350000 0.05348950 38187.45179028 0 342.63641321 0 14664.96205255 0 -1546.12836535 0 -1535.47678888 0 3009
0.05450000 0.05448610 38568.00759429 0 1005.44570704 0 14958.04649050 0 2834.75874472 0 -5241.26211010 0 3336
0.05550000 0.05550870 36818.69099620 0 303.35734092 0 14488.69064144 0 3630.36064456 0 -2843.77161712 0 3349
0.05650000 0.05647670 36695.78819071 0 2014.94167050 0 12787.31720981 0 2383.78295486 0 -4395.35863861 0 3324
0.05750000 0.05747970 35484.47585555 0 205.96738628 0 12807.69028747 0 1162.29515319 0 -2937.19989394 0 3639
0.05850000 0.05849280 33873.23114794 0 1101.98973606 0 11587.18792271 0 623.97090006 0 -1240.11145201 0 3846
0.05950000 0.05951020 33891.83265364 0 745.87387462 0 10820.28548880 0 1295.81631818 0 -3405.61459539 0 3787
0.06050000 0.06049470 33646.35921241 0 -474.46351250 0 12146.56177255 0 -353.53047360 0 -714.87247236 0 3930
0.06150000 0.06148310 33399.22492245 0 281.25144442 0 10634.90155436 0 1890.79876463 0 -3940.97257270 0 4083
0.06250000 0.06249100 33432.33117366 0 581.57496833 0 12213.88150745 0 -1358.83999104 0 -2604.05578480 0 4303
0.06350000 0.06350600 33135.37142203 0 1556.29275953 0 11815.05636748 0 -12.82939204 0 -2634.48253340 0 4470
0.06450000 0.06451750 31809.23907850 0 1192.13506857 0 13635.56801416 0 -2045.42378072 0 -1211.03552704 0 4479
0.06550000 0.06550280 30925.22466498 0 1799.60709742 0 13613.75553427 0 -492.19362623 0 -1840.72971180 0 4636
0.06650000 0.06648880 30205.08065877 0 1072.34026466 0 14280.75238135 0 694.34327491 0 205.07938583 0 4653
0.06750000 0.06749660 28925.00918649 0 262.81713083 0 13685.39347585 0 2137.99948853 0 988.76192800 0 5220
0.06850000 0.06852730 28956.89748196 0 -182.58595796 0 12620.90016778 0 3945.74474470 0 509.00473701 0 5029
0.06950000 0.06949320 29644.93174620 0 -538.81807881 0 9805.26332802 0 3812.14607344 0 265.04377535 0 5040
0.07050000 0.07048030 29044.59029453 0 65.12807892 0 10272.05039773 0 480.81681248 0 -28.42775108 0 5475
0.07150000 0.07148790 28621.95965620 0 556.76521011 0 8646.09057044 0 759.63013097 0 2006.51563131 0 5509
0.07250000 0.07249820 28053.39577676 0 516.27593271 0 9212.61714211 0 85.04010498 0 760.93112914 0 5916
0.07350000 0.07351270 27921.41366492 0 385.74097373 0 9081.52081625 0 -599.64832413 0 -99.03574500 0 5721
0.07450000 0.07449140 27568.31722646 0 529.49628855 0 10233.68479223 0 -553.90412138 0 -972.93514691 0 6028
0.07550000 0.07549160 27245.33751150 0 320.59030726 0 10723.87875660 0 -962.39982984 0 -842.04808799 0 6183
0.07650000 0.07648840 27360.37896636 0 436.88625653 0 10248.61028609 0 -357.77006677 0 -1037.39711477 0 6330
0.07750000 0.07749960 27379.53408830 0 532.25108296 0 11999.52129896 0 -5.07874253 0 -235.73976048 0 6583
0.07850000 0.07848650 26517.77504767 0 184.71848772 0 10094.37280136 0 897.91903903 0 -965.29413555 0 6549
0.07950000 0.07947320 26179.29407796 0 918.25225632 0 10955.62251506 0 1295.47307611 0 -1057.29408247 0 6828
0.08050000 0.08048110 25588.58554888 0 1008.97888589 0 10116.47316170 0 932.87104678 0 368.05514930 0 7147
0.08150000 0.08149960 24404.06823979 0 642.21366243 0 9608.70741784 0 1550.21405321 0 603.35644572 0 7386
0.08250000 0.08250610 23738.73224143 0 895.19303266 0 8790.32974585 0 779.14731793 0 1285.62977934 0 7227
0.08350000 0.08350160 23481.07924290 0 276.13270865 0 8836.08059200 0 165.22123094 0 720.04989144 0 7798
0.08450000 0.08449610 22493.09569934 0 347.29232580 0 8232.53923846 0 1818.72900239 0 1140.88127699 0 7371
0.08550000 0.08548940 22507.15755186 0 915.51628486 0 8788.02670229 0 -310.19117979 0 2298.21602866 0 8256
0.08650000 0.08650700 21745.93522057 0 684.65831239 0 8570.72125540 0 70.08859116 0 2205.13099391 0 8037
0.08750000 0.08749060 21440.89267182 0 787.24118737 0 8991.49174315 0 196.72420952 0 2221.46267301 0 8155
0.08850000 0.08849210 20542.15206629 0 591.56109809 0 9058.64539318 0 565.56106495 0 2836.49709972 0 8718
0.08950000 0.08949900 20236.77734779 0 548.65362495 0 9172.44674766 0 361.72953013 0 2666.91337279 0 8571
0.09050000 0.09049190 19784.69432545 0 160.83769755 0 8929.24313302 0 1003.96644444 0 2196.93747354 0 8932
0.09150000 0.09150830 19712.39204438 0 322.06514093 0 8099.25059229 0 612.78231583 0 2508.99987623 0 9285
0.09250000 0.09250820 19491.27771775 0 69.95251229 0 7189.90269959 0 730.01166208 0 2502.55578319 0 9204
0.09350000 0.09350330 19422.07568764 0 156.90148608 0 7975.24055432 0 496.06561822 0 2725.86243013 0 9349
0.09450000 0.09448040 19146.59624615 0 471.70207469 0 7158.42408013 0 1232.96980251 0 3425.32333357 0 9564
0.09550000 0.09549270 18614.34959212 0 563.79060021 0 7724.64062670 0 509.88387960 0 3076.50081248 0 10155
0.09650000 0.09649430 18177.10348503 0 681.36540299 0 7857.44209058 0 313.22721126 0 3563.41736871 0 9913
0.09750000 0.09749140 18044.12486396 0 143.30245673 0 7761.04643071 0 203.87914582 0 3256.64753728 0 10476
0.09850000 0.09850240 18110.89098261 0 -125.94548035 0 8366.60294736 0 -444.57709335 0 2892.84416072 0 10575
0.09950000 0.09950330 18038.14580855 0 426.95991733 0 8533.05320636 0 -785.84164552 0 1452.39006344 0 10882
0.10050000 0.10051200 17467.92108039 0 515.70460075 0 8118.18426773 0 -843.17192896 0 1422.12939971 0 10875
0.10150000 0.10150300 17077.17873754 0 405.50064460 0 7601.82639981 0 582.64676937 0 1006.74781244 0 11118
0.10250000 0.10250800 16964.01957790 0 -50.84356195 0 7066.95560480 0 790.43001692 0 -655.04205797 0 11575
0.10350000 0.10349800 16963.35523841 0 -106.53314831 0 6576.50697696 0 1678.68623808 0 -1029.98862223 0 11364
0.10450000 0.10450100 16748.10924393 0 10.95203508 0 5860.36008001 0 1555.40697355 0 -1398.03602090 0 12093
0.10550000 0.10551000 16562.64780322 0 178.63092353 0 5397.14937123 0 525.23012179 0 -531.69082333 0 12067
0.10650000 0.10649700 16191.28202880 0 387.45607684 0 5092.97046381 0 826.20137671 0 -392.18285231 0 12054
0.10750000 0.10749900 16254.28355702 0 271.67056175 0 5639.32325966 0 -99.77581919 0 905.38510765 0 12807
0.10850000 0.10850100 16076.12985069 0 200.61502446 0 5528.48928822 0 -412.82055854 0 890.32453143 0 12736
0.10950000 0.10950300 15708.41794346 0 473.67184128 0 5754.81867984 0 25.08258030 0 2200.74635328 0 12933
0.11050000 0.11050200 15585.84730772 0 253.09341517 0 6333.94555716 0 -409.72030759 0 2078.77362308 0 13428
0.11150000 0.11150900 15469.03428088 0 310.42923478 0 6518.00081262 0 -86.73029537 0 1644.15165697 0 13453
0.11250000 0.11250000 15245.59476604 0 248.20387653 0 6413.33412611 0 804.60702162 0 1873.08304492 0 13668
0.11350000 0.11349100 14996.91035062 0 -89.32066576 0 5788.73321076 0 583.99205684 0 1128.28097134 0 13791
0.11450000 0.11448600 14948.74573765 0 91.37668575 0 5545.15313708 0 658.10687748 0 1353.29275631 0 14205
0.11550000 0.11549300 14610.26476795 0 178.74386124 0 5158.82865183 0 236.61004521 0 192.27424217 0 14776
0.11650000 0.11649800 14667.39796401 0 336.42041006 0 4482.68606445 0 273.59603904 0 610.05741670 0 14553
0.11750000 0.11747300 14170.36130290 0 88.89128100 0 4264.67198877 0 -41.58875925 0 212.93852198 0 14568
0.11850000 0.11849100 14156.74234338 0 169.06554212 0 3965.84101424 0 107.63827705 0 -64.18881361 0 16015
0.11950000 0.11950300 14113.78172308 0 95.61428591 0 4028.70967456 0 186.38265814 0 -294.08316165 0 15270
0.12050000 0.12050700 13974.15970712 0 248.02782657 0 4069.16794945 0 -53.54078028 0 -357.75567275 0 15999
0.12150000 0.12150000 13912.26541138 0 190.42959286 0 3917.08956807 0 122.49866563 0 -133.43480085 0 15670
0.12250000 0.12250700 13663.02737971 0 163.48287595 0 4047.95337510 0 574.65255086 0 -75.83280256 0 16887
0.12350000 0.12352200 13407.47812290 0 412.06764045 0 3629.25341208 0 415.56428063 0 -30.91990995 0 16407
0.12450000 0.12449800 13245.60073405 0 268.01337286 0 3274.70649906 0 433.54795060 0 -125.31989399 0 16306
0.12550000 0.12549900 13020.16820074 0 100.50304949 0 3021.10597142 0 446.35087979 0 514.00389166 0 17523
0.12650000 0.12650100 12789.86384451 0 -22.62873168 0 2746.82234101 0 457.44313479 0 471.31122163 0 17154
0.12750000 0.12750600 12961.92777220 0 -165.95975501 0 2336.23839208 0 402.67609454 0 112.68637138 0 18007
0.12850000 0.12850300 13157.13285875 0 -114.29960910 0 2396.61577932 0 200.60727383 0 -12.53830062 0 17496
0.12950000 0.12949900 12999.68439983 0 181.59498489 0 2451.20234068 0 -309.46262082 0 369.89758415 0 18405
0.13050000 0.13049000 13107.97173655 0 301.60791359 0 2415.29479129 0 -32.96463617 0 496.99680074 0 18100
0.13150000 0.13148800 12579.71111946 0 274.64790989 0 2678.06320389 0 148.58395567 0 791.14639634 0 19059
0.13250000 0.13249300 12490.46818142 0 267.01132747 0 2753.12249383 0 176.55929156 0 756.69707213 0 18957
0.13350000 0.13349100 12221.18924183 0 296.34302314 0 3110.48177735 0 -121.72471013 0 701.00217106 0 19468
0.13450000 0.13450700 11814.94564423 0 327.77403161 0 2934.16607694 0 -65.18554429 0 863.77531098 0 19953
0.13550000 0.13551000 11686.39595309 0 203.55583393 0 3395.11803147 0 -387.12944326 0 731.78987745 0 19956
0.13650000 0.13649900 11659.71165028 0 225.06382489 0 3373.16161135 0 -303.31526608 0 430.34804873 0 19723
0.13750000 0.13749600 11511.34249771 0 316.26434996 0 3738.07222040 0 -428.54547425 0 577.14271671 0 20946
0.13850000 0.13851100 11353.56186904 0 258.99717876 0 3654.00005805 0 -394.49253927 0 866.58768149 0 20955
0.13950000 0.13949800 11230.43761706 0 -11.13189393 0 3749.90853563 0 352.79970016 0 543.27690402 0 20506
0.14050000 0.14048300 11076.75374857 0 27.52513516 0 3307.45843588 0 750.49878470 0 -73.53994553 0 21447
0.14150000 0.14148400 11127.35427299 0 -22.57957056 0 3422.10128705 0 426.88130383 0 -345.06346681 0 21771
0.14250000 0.14249400 10996.28009179 0 314.68765090 0 2891.60406034 0 149.05231501 0 -573.40580708 0 22470
0.14350000 0.14350900 10695.40073717 0 314.85373578 0 2897.89314084 0 -288.38202160 0 -199.11583168 0 22519
0.14450000 0.14449900 10421.46034883 0 249.13838074 0 2912.50860960 0 -67.91321151 0 350.13569881 0 22218
0.14550000 0.14550500 10486.23344902 0 -82.98607801 0 2998.95024946 0 173.72034747 0 111.47948797 0 23559
0.14650000 0.14650700 10480.48691244 0 -11.75404786 0 3184.58884736 0 354.25681811 0 98.12615352 0 23044
0.14750000 0.14750500 10498.57909119 0 108.88889613 0 3027.27325634 0 164.14942990 0 -86.68357016 0 23649
0.14850000 0.14849900 10411.19630372 0 177.55580079 0 3344.88289376 0 -14.08643308 0 368.01086000 0 23640
0.14950000 0.14949500 10217.70742752 0 240.85517455 0 3080.49792174 0 319.11658083 0 654.04333427 0 24457
0.15050000 0.15050000 10079.11513776 0 32.55263497 0 2722.20856294 0 368.15258576 0 154.28398849 0 24591
0.15150000 0.15149900 10043.05257583 0 -30.62073573 0 2521.15728888 0 321.41298100 0 -56.49122267 0 25020
0.15250000 0.15250500 9929.26229367 0 170.05319349 0 2503.45264150 0 9.63937776 0 -209.40202144 0 25297
0.15350000 0.15350100 9866.09468058 0 292.36362960 0 2312.22251955 0 -380.92672690 0 261.12195790 0 25452
0.15450000 0.15450400 9688.06276982 0 123.96242697 0 2516.83908220 0 -208.00469404 0 -8.75369142 0 26061
0.15550000 0.15549900 9686.16940228 0 25.21345518 0 2561.44947890 0 38.04373301 0 286.84075398 0 26128
0.15650000 0.15649500 9655.24439906 0 85.99254636 0 2907.67000365 0 -179.38162715 0 -183.83491620 0 26331
0.15750000 0.15749700 9531.50009688 0 280.86723474 0 3065.99317623 0 -3.71242872 0 -163.88258687 0 27345
0.15850000 0.15849900 9423.68887012 0 254.05560020 0 3162.92030769 0 -22.91063307 0 250.05406201 0 26980
0.15950000 0.15949700 9103.97549099 0 37.14311011 0 2993.44730402 0 308.60008672 0 333.98671306 0 27777
0.16050000 0.16050000 9114.57170584 0 41.19967776 0 2667.22339789 0 566.56753927 0 -99.62811438 0 28224
0.16150000 0.16150500 9007.46910787 0 53.59127008 0 2476.77941101 0 412.98775064 0 -176.54268307 0 28075
0.16250000 0.16249700 8927.64871825 0 190.13839072 0 2093.16764534 0 519.97630367 0 139.41164179 0 28590
0.16350000 0.16349900 8757.98748505 0 48.79396390 0 1918.80067410 0 265.93399026 0 221.36456117 0 29163
0.16450000 0.16449100 8919.63235508 0 0.56892594 0 1695.30579763 0 217.63540217 0 149.60260955 0 28996
0.16550000 0.16550500 8900.37758222 0 -73.08841613 0 2009.21727857 0 -157.53371582 0 33.50385839 0 30777
0.16650000 0.16650700 8823.65744355 0 222.71095587 0 2292.94560204 0 -400.09845732 0 613.37689968 0 29211
0.16750000 0.16749900 8840.60917285 0 274.57704702 0 2550.93077032 0 -423.30826461 0 586.83653709 0 30922
0.16850000 0.16850800 8564.23287305 0 109.84587717 0 2494.73872186 0 89.08571103 0 737.74568097 0 30867
0.16950000 0.16949900 8555.95077409 0 143.09651149 0 2659.16274542 0 323.71048840 0 659.04913232 0 30852
0.17050000 0.17049200 8449.72288978 0 86.09430103 0 2488.01782070 0 164.44395374 0 605.64952419 0 31257
0.17150000 0.17149500 8374.55287658 0 77.50250914 0 2701.09363951 0 90.82384458 0 623.85906958 0 32608
0.17250000 0.17250900 8388.76974165 0 139.76152726 0 2528.12178119 0 -93.24757648 0 236.66540684 0 32361
0.17350000 0.17350400 8141.59116240 0 182.52948910 0 2641.95635265 0 -330.38045687 0 424.47639487 0 32508
0.17450000 0.17449800 8058.48229231 0 257.03184111 0 2687.38610138 0 -36.88346410 0 638.15454816 0 32791
0.17550000 0.17549800 7974.93052923 0 76.89474923 0 2795.67343811 0 -93.04295992 0 617.33193410 0 33633
0.17650000 0.17650100 7925.48152659 0 -55.81348567 0 2583.22874181 0 439.11400829 0 377.47991218 0 33984
0.17750000 0.17750300 8003.59677818 0 -48.84301430 0 2701.75797900 0 332.11991910 0 224.74272747 0 34069
0.17850000 0.17849800 7913.29089696 0 136.31360531 0 2286.90011269 0 249.03762259 0 76.29950105 0 34536
