### header ###
fiducial parameters:
Omega_m = 0.31
Omega_nu = 0
Omega_de = 0.69
Omega_k = 0
H_0 = 100
w_de = -1
zeff = 0
beta = 0
fgrowth = 0
b_1 = 2
gamma = 0.55
Lx = 3500 Ly = 3500 Lz = 3500
nx = 700 ny = 700 nz = 700
xoffset = -685.467585 yoffset = -31.7331281 zoffset = 572.489161
bins = 400 dk = 0.001
kx_ny = 0.628318531 ky_ny = 0.628318531 kz_ny = 0.628318531
############################
A(data) = 7.98687384 (not used)
A(ran) = 7.98500375 (used)
Ngal = 474093
weighted Ngal = 0
Nran = 23820508
weighted Nran = 0
SN(data) = 3487.93605
SN(ran) = 69.5522786
SN(data+ran) = 3557.48833
############################
13 columns: k_central k_mean P_0(k) sigma^{lin}_{P_0(k)} P^img_1(k) sigma^{lin}_{P_1(k)} P_2(k) sigma^{lin}_{P_2(k)} P^img_3(k) sigma^{lin}_{P_3(k)} P_4(k) sigma^{lin}_{P_4(k)} N_modes
### header ###
0.00050000 0 0 0 0 0 0 0 0 0 0 0 0
0.00150000 0.00179520 34718.71387109 0 -33564.64545524 0 14639.16353573 0 -49683.29303324 0 9748.09691499 0 3
0.00250000 0.00253879 46273.90277508 0 -11926.66540165 0 12474.74548018 0 -36513.86989394 0 -8326.62078244 0 6
0.00350000 0.00331552 46496.78867368 0 11989.55620662 0 4326.43341661 0 29508.18853469 0 44734.40673229 0 7
0.00450000 0.00420575 37828.15484991 0 11971.72976366 0 12345.64217279 0 10993.39021501 0 15715.17206160 0 24
0.00550000 0.00557378 42831.18481922 0 -5197.61500567 0 11641.55303757 0 28694.92627676 0 -27553.48031120 0 45
0.00650000 0.00659388 54644.58033798 0 -18954.60213379 0 9581.04875045 0 780.63543839 0 -11227.00519636 0 40
0.00750000 0.00754703 56424.56727582 0 -7548.97819346 0 -18457.01185644 0 4917.28588591 0 6255.25454467 0 57
0.00850000 0.00846663 71034.27842753 0 -17568.67923624 0 -15921.11730323 0 399.45847695 0 3093.72934990 0 75
0.00950000 0.00948925 72652.72014627 0 -9071.24569882 0 -30426.97004814 0 12280.53690286 0 -14051.66598085 0 112
0.01050000 0.01054430 82024.44659602 0 -2842.01111748 0 -38572.76869397 0 -3592.24970254 0 -24443.26426964 0 105
0.01150000 0.01145670 69670.50017962 0 6741.13030236 0 -39340.30225039 0 -27649.92026037 0 -27146.24020437 0 144
0.01250000 0.01249090 64994.65740870 0 9815.04019084 0 -35773.35281007 0 -26636.35964647 0 -18594.19796095 0 169
0.01350000 0.01339930 61224.75225445 0 1413.95802399 0 -29907.34584440 0 -18016.33332866 0 -21034.75979747 0 180
0.01450000 0.01448870 60039.68132911 0 -6192.02049763 0 -13674.32115103 0 -26877.73632752 0 -15571.89617845 0 267
0.01550000 0.01550050 65686.56698662 0 -1723.78381707 0 -4931.62454655 0 -19693.67981544 0 -3365.68779210 0 238
0.01650000 0.01653350 69836.58505190 0 -629.96656395 0 10306.40782164 0 -16233.24613987 0 -2198.93049201 0 315
0.01750000 0.01747870 77257.25714535 0 645.24415774 0 16168.80520942 0 -7489.58624313 0 528.68690160 0 297
0.01850000 0.01844180 72998.17668061 0 -1388.92349758 0 22219.94144606 0 843.00141516 0 4991.45938987 0 388
0.01950000 0.01947590 80844.24749360 0 -1744.00188218 0 18017.99417738 0 8258.58134643 0 -13207.73338317 0 399
0.02050000 0.02045430 77651.21046240 0 3850.56704056 0 22413.37496064 0 -1998.62106371 0 -9051.65875622 0 462
0.02150000 0.02154770 75067.26201947 0 7340.70776362 0 26668.58011170 0 -106.15513914 0 -12388.38134659 0 571
0.02250000 0.02255340 66920.68831091 0 8278.99871340 0 24445.58945786 0 905.95311792 0 -12473.97041744 0 510
0.02350000 0.02348930 61017.92122684 0 3099.07728279 0 16248.74739461 0 11361.86611265 0 -10031.29376687 0 555
0.02450000 0.02439640 63252.42709849 0 -4897.57714773 0 13394.96639585 0 10784.04576967 0 -13249.91894073 0 592
0.02550000 0.02547300 64374.71794211 0 -2319.06521629 0 12366.12597371 0 1713.78550775 0 -17272.16237760 0 837
0.02650000 0.02652900 67195.50341290 0 4672.97503879 0 13928.76317536 0 -3273.93143633 0 -19954.32234167 0 723
0.02750000 0.02749970 57744.49911745 0 8240.85455440 0 14931.58363419 0 -5419.85870943 0 -3449.47207400 0 826
0.02850000 0.02848090 56762.60535253 0 1970.92917934 0 12367.78682243 0 1259.34408022 0 1788.32439843 0 831
0.02950000 0.02946900 56138.90129550 0 -5164.49768214 0 13334.51150234 0 8509.85668587 0 -1999.56221132 0 996
0.03050000 0.03053250 61437.78378396 0 -5492.14991817 0 4238.72953172 0 14036.60761909 0 -6856.91360299 0 1041
0.03150000 0.03150510 63287.19419842 0 -4289.89474471 0 9563.63198351 0 7469.92179425 0 -11737.55009375 0 1036
0.03250000 0.03246190 65467.33495521 0 3222.88801891 0 -978.86880578 0 -4013.49630026 0 -8624.55489866 0 1059
0.03350000 0.03345080 61664.87716599 0 2819.21320067 0 5483.18133507 0 -11135.87996311 0 -7461.94972038 0 1302
0.03450000 0.03451200 58406.40269511 0 4581.80551623 0 9508.97898820 0 -13792.01996385 0 -8258.57027411 0 1339
0.03550000 0.03553350 57158.33024155 0 5097.48797233 0 14159.95331757 0 -9591.89962877 0 1131.60266879 0 1365
0.03650000 0.03647120 52475.84407575 0 2798.88441231 0 13644.86876701 0 5754.61937800 0 -6759.78716968 0 1308
0.03750000 0.03744890 51888.23579762 0 1292.01851076 0 17677.96308220 0 1335.12307128 0 -3661.55138358 0 1579
0.03850000 0.03847530 49954.01137505 0 2335.93943931 0 13457.85720082 0 4584.08641514 0 -9463.49387785 0 1662
0.03950000 0.03950240 46915.32255182 0 4100.79050913 0 15405.25768993 0 1361.63021690 0 -8698.98306609 0 1683
0.04050000 0.04050350 42935.04322602 0 5314.57197273 0 15938.16868345 0 -410.67695645 0 -967.37794708 0 1822
0.04150000 0.04152450 38241.37401214 0 2372.98743816 0 13950.57565525 0 747.53250888 0 -40.65536227 0 1887
0.04250000 0.04250150 37781.76180892 0 832.31551448 0 14293.15338514 0 5573.22148049 0 2099.11348377 0 1920
0.04350000 0.04349210 39111.21584990 0 -1284.35646199 0 13485.64873612 0 2082.59357514 0 -685.53524052 0 2005
0.04450000 0.04448520 38015.05569285 0 143.78188840 0 14439.19734950 0 304.76241894 0 4747.64679736 0 2151
0.04550000 0.04548030 39641.24803897 0 1372.68039707 0 14514.48915827 0 274.82506709 0 5320.34065396 0 2274
0.04650000 0.04648670 38504.67389633 0 -86.68390233 0 14589.22735079 0 1042.13939149 0 3733.85366464 0 2311
0.04750000 0.04749250 38338.69974730 0 -297.88207629 0 14797.71922713 0 1672.07606016 0 1449.27874016 0 2568
0.04850000 0.04851840 38725.89894621 0 999.73681636 0 15219.35335622 0 1566.33535814 0 2704.27139673 0 2493
0.04950000 0.04949480 37609.80860449 0 1141.89993087 0 12342.54192184 0 2336.23839208 0 1442.28103088 0 2644
0.05050000 0.05050630 37779.99023695 0 -1363.14712540 0 12540.18291985 0 3001.91763251 0 -679.76434482 0 2829
0.05150000 0.05149060 37083.09811287 0 -356.65619090 0 9861.65467833 0 -499.44046283 0 -801.19231664 0 2784
0.05250000 0.05249300 37194.15353080 0 2316.60716018 0 12244.33040070 0 -1758.31839818 0 -5179.77749039 0 3055
0.05350000 0.05348950 35725.18819711 0 1571.91580985 0 12006.16469385 0 -2182.88669335 0 0.99273468 0 3009
0.05450000 0.05448610 34451.31722672 0 363.36491250 0 11198.77076808 0 1052.76771608 0 -2038.33749284 0 3336
0.05550000 0.05550870 35409.07332353 0 -1055.77717397 0 10929.94579380 0 615.35220242 0 -3715.37395452 0 3349
0.05650000 0.05647670 35574.49385633 0 150.87703414 0 12014.13676772 0 -238.91973217 0 -4969.68012695 0 3324
0.05750000 0.05747970 34400.38453256 0 1066.87053620 0 11885.80852307 0 -456.53409692 0 -3729.51331331 0 3639
0.05850000 0.05849280 34405.92069497 0 1506.50051483 0 11694.14658046 0 -933.14121151 0 -3163.98325088 0 3846
0.05950000 0.05951020 33916.30249148 0 72.17373137 0 14735.04986865 0 -1224.14515962 0 -7156.43106166 0 3787
0.06050000 0.06049470 32768.65602403 0 1624.28790625 0 13860.22548473 0 -947.89508433 0 -5020.93391854 0 3930
0.06150000 0.06148310 31828.72637018 0 956.46174204 0 14682.78849551 0 850.86498025 0 -5316.16638750 0 4083
0.06250000 0.06249100 31858.28947744 0 217.97089361 0 13826.12272429 0 2847.95695590 0 -1486.64783643 0 4303
0.06350000 0.06350600 31479.28379890 0 -1027.12089010 0 12160.51290182 0 3536.16837733 0 -3399.34765955 0 4470
0.06450000 0.06451750 31961.48354475 0 -484.53600639 0 9938.81770999 0 4143.46324898 0 -1483.56973013 0 4479
0.06550000 0.06550280 32342.15007202 0 317.89308894 0 9033.19011842 0 1527.42720873 0 -3075.77003905 0 4636
0.06650000 0.06648880 31213.10511026 0 1244.60681589 0 8101.27682773 0 -263.45711120 0 -1955.12897183 0 4653
0.06750000 0.06749660 30750.72482583 0 1559.90233743 0 10556.60914557 0 -3308.77604253 0 -2854.66678474 0 5220
0.06850000 0.06852730 29576.28333232 0 1270.42747737 0 10068.99503288 0 -1468.94318904 0 -886.40603568 0 5029
0.06950000 0.06949320 29653.90032930 0 -183.13182357 0 11481.00432770 0 -93.70597073 0 -579.86097245 0 5040
0.07050000 0.07048030 29644.37812995 0 -582.11972671 0 12121.98121145 0 1195.81108041 0 -3138.15151708 0 5475
0.07150000 0.07148790 30082.84219277 0 134.99932035 0 13026.47942589 0 964.64751178 0 -2610.63274574 0 5509
0.07250000 0.07249820 29554.47085243 0 682.73283511 0 10896.86168725 0 688.51369590 0 -2278.50729048 0 5916
0.07350000 0.07351270 28548.43941940 0 670.38165677 0 10807.36408574 0 966.97491446 0 -963.47827428 0 5721
0.07450000 0.07449140 28688.28288186 0 365.25052942 0 10975.24267464 0 555.35902486 0 -675.35202338 0 6028
0.07550000 0.07549160 28098.01724578 0 186.89862847 0 10420.23132078 0 1264.94667658 0 -1022.86358121 0 6183
0.07650000 0.07648840 27837.04254981 0 1218.83044371 0 10250.94654662 0 703.25538916 0 871.48718522 0 6330
0.07750000 0.07749960 27197.50506828 0 803.63819320 0 10673.86506540 0 286.36242955 0 966.97048553 0 6583
0.07850000 0.07848650 27078.25612999 0 -7.56707037 0 11175.18671621 0 1124.31707906 0 2683.03467773 0 6549
0.07950000 0.07947320 25776.04000806 0 904.93778573 0 11287.23864338 0 -674.69100559 0 2270.19197454 0 6828
0.08050000 0.08048110 26103.67009945 0 747.79824467 0 12562.99190898 0 1682.79407059 0 4371.30954910 0 7147
0.08150000 0.08149960 25150.34293256 0 254.70111673 0 12279.42967038 0 1162.83769710 0 3963.58225998 0 7386
0.08250000 0.08250610 24405.95053500 0 865.06966576 0 11067.86267174 0 902.33689663 0 4280.14002655 0 7227
0.08350000 0.08350160 24596.28379864 0 1013.55729220 0 11483.55096241 0 524.98431618 0 3330.61066707 0 7798
0.08450000 0.08449610 22758.16715549 0 373.68431923 0 9700.16482085 0 1198.08090700 0 2557.69596078 0 7371
0.08550000 0.08548940 22637.92170796 0 676.57440804 0 8539.36443151 0 1573.01197001 0 3326.20388180 0 8256
0.08650000 0.08650700 21658.24240801 0 377.33818642 0 7232.75259663 0 1492.43866231 0 597.40174943 0 8037
0.08750000 0.08749060 21370.80485572 0 157.19047375 0 6258.58731444 0 1932.45285060 0 -66.39397782 0 8155
0.08850000 0.08849210 21371.13702546 0 110.77860981 0 5468.48836003 0 425.09312337 0 -231.55885063 0 8718
0.08950000 0.08949900 20568.06130637 0 481.83878806 0 4850.50869493 0 -435.68490929 0 289.00317902 0 8571
0.09050000 0.09049190 20332.33151098 0 683.27095009 0 5367.56411931 0 -194.53742537 0 -568.94476741 0 8932
0.09150000 0.09150830 19889.65996473 0 340.89805821 0 5584.83634923 0 -860.20227177 0 22.01056378 0 9285
0.09250000 0.09250820 19681.38953489 0 583.61227610 0 5714.02823521 0 -719.80187137 0 -1829.97848440 0 9204
0.09350000 0.09350330 19029.11887982 0 827.12148691 0 6455.66362389 0 -1161.52009045 0 -1000.65581932 0 9349
0.09450000 0.09448040 18689.41995439 0 930.11293067 0 6898.21337456 0 -602.37543774 0 -620.60491332 0 9564
0.09550000 0.09549270 17939.93428741 0 195.06889696 0 7116.19423327 0 608.08211395 0 -796.85085808 0 10155
0.09650000 0.09649430 17703.87232228 0 92.35669722 0 6614.78400386 0 1338.97624032 0 -251.79573870 0 9913
0.09750000 0.09749140 17953.88541668 0 -80.73618160 0 6485.37067138 0 2146.50303399 0 -674.45959400 0 10476
0.09850000 0.09850240 17633.45233643 0 160.16671466 0 5949.82446455 0 232.47010296 0 -80.48517200 0 10575
0.09950000 0.09950330 17706.41895699 0 122.14878017 0 5567.40850996 0 722.69506984 0 684.73471143 0 10882
0.10050000 0.10051200 17458.95249729 0 155.77210894 0 5794.01470970 0 -569.26475760 0 1038.13674607 0 10875
0.10150000 0.10150300 17293.31051800 0 409.16779858 0 5951.62925349 0 -346.92693908 0 1103.22430028 0 11118
0.10250000 0.10250800 17132.31891514 0 30.68351581 0 5542.04181380 0 326.67676422 0 216.26907729 0 11575
0.10350000 0.10349800 16785.53370182 0 280.52177821 0 5527.70315316 0 507.30956408 0 -26.12747560 0 11364
0.10450000 0.10450100 16534.52409818 0 448.15013257 0 5367.71913186 0 649.70409017 0 -132.62541391 0 12093
0.10550000 0.10551000 16089.97025671 0 353.88257353 0 5475.02103167 0 128.51204524 0 812.08305534 0 12067
0.10650000 0.10649700 15974.26446236 0 334.38199506 0 5525.10115683 0 172.93864134 0 645.33273634 0 12054
0.10750000 0.10749900 15990.54077984 0 133.06498521 0 5327.47123114 0 299.12439114 0 1513.42071784 0 12807
0.10850000 0.10850100 15752.48579624 0 158.60330240 0 5735.34246049 0 303.19900667 0 1257.91575032 0 12736
0.10950000 0.10950300 15618.39994269 0 101.83250353 0 5393.55086566 0 303.14143058 0 1618.70745454 0 12933
0.11050000 0.11050200 15834.53172315 0 218.70498875 0 5545.68460867 0 87.55518357 0 1413.54834797 0 13428
0.11150000 0.11150900 15301.73145287 0 297.46907858 0 5398.87665390 0 465.34766748 0 1627.66496532 0 13453
0.11250000 0.11250000 15354.54644226 0 -7.42472456 0 5124.61516814 0 92.49532273 0 902.77425346 0 13668
0.11350000 0.11349100 14953.17466758 0 28.90995082 0 5400.16104358 0 476.35577281 0 1115.73602733 0 13791
0.11450000 0.11448600 15147.82613789 0 371.47871213 0 4921.05047635 0 342.24334568 0 522.76320783 0 14205
0.11550000 0.11549300 14670.83038471 0 409.90853711 0 4693.19310391 0 288.94671016 0 1101.98198544 0 14776
0.11650000 0.11649800 14831.26837133 0 -131.60565279 0 4770.02396582 0 207.89618526 0 1030.97848807 0 14553
0.11750000 0.11747300 14532.86921747 0 -156.71214932 0 4503.88956648 0 431.48739095 0 1421.88580856 0 14568
0.11850000 0.11849100 14797.16561089 0 212.89312545 0 4617.52483609 0 280.46420212 0 589.73527172 0 16015
0.11950000 0.11950300 14535.85874517 0 298.89740848 0 4120.99750193 0 -39.48966791 0 936.74746770 0 15270
0.12050000 0.12050700 14116.66052753 0 464.36444503 0 4172.93777765 0 62.82049571 0 879.78921437 0 15999
0.12150000 0.12150000 13738.42991173 0 367.11621615 0 4234.72135014 0 -706.14305147 0 197.78493824 0 15670
0.12250000 0.12250700 13494.17442623 0 228.55714337 0 4051.90619506 0 30.75094627 0 -155.94262275 0 16887
0.12350000 0.12352200 13166.10144185 0 145.82694679 0 3986.28052586 0 93.45352172 0 -214.07897144 0 16407
0.12450000 0.12449800 13363.07810038 0 -63.88919650 0 3683.92855204 0 350.87090118 0 -435.53432567 0 16306
0.12550000 0.12549900 13178.39172240 0 -48.15376208 0 3766.64989076 0 484.76631075 0 -406.28567243 0 17523
0.12650000 0.12650100 13295.42619573 0 32.72547396 0 3183.80271230 0 611.82234527 0 14.91918263 0 17154
0.12750000 0.12750600 13310.59528074 0 5.75690028 0 3431.67884802 0 421.41157537 0 -28.30008717 0 18007
0.12850000 0.12850300 13136.53833459 0 318.45667027 0 3087.08595501 0 -102.22080996 0 609.10851846 0 17496
0.12950000 0.12949900 12998.24499760 0 424.95139761 0 3624.60303566 0 95.06210907 0 947.59613156 0 18405
0.13050000 0.13049000 12577.71810099 0 322.87342064 0 3303.58312219 0 -149.51845989 0 1047.52164858 0 18100
0.13150000 0.13148800 12416.06215864 0 99.15432960 0 3791.47404300 0 -188.56390613 0 877.30790638 0 19059
0.13250000 0.13249300 12484.37840277 0 110.22266838 0 4055.13931391 0 -118.99648929 0 641.08428530 0 18957
0.13350000 0.13349100 12325.49054162 0 187.64822486 0 3879.73154413 0 159.46140757 0 471.20271284 0 19468
0.13450000 0.13450700 12253.29898380 0 63.18134277 0 4081.56895325 0 -44.89063724 0 263.56783445 0 19953
0.13550000 0.13551000 12224.73238577 0 67.60495798 0 4075.32416205 0 -29.21510410 0 860.29638653 0 19956
0.13650000 0.13649900 12341.87758235 0 177.14501754 0 4173.28101972 0 241.00243647 0 428.84221255 0 19723
0.13750000 0.13749600 11901.64194756 0 252.14230247 0 4238.05411991 0 274.56043853 0 1174.46363816 0 20946
0.13850000 0.13851100 11875.28981449 0 293.70559537 0 3974.04560693 0 514.67376731 0 869.58606705 0 20955
0.13950000 0.13949800 11516.65721362 0 246.19646404 0 3934.70563685 0 330.42585340 0 1059.26827798 0 20506
0.14050000 0.14048300 11601.47122173 0 60.27806848 0 3626.72892202 0 506.47138909 0 958.72492523 0 21447
0.14150000 0.14148400 11482.88662292 0 -74.41809162 0 3468.97043801 0 258.46017101 0 566.33723492 0 21771
0.14250000 0.14249400 11396.85465908 0 96.79758526 0 3010.14436985 0 26.99720671 0 226.75013996 0 22470
0.14350000 0.14350900 11212.50045085 0 203.17716042 0 2986.75961983 0 -215.24710171 0 343.46794480 0 22519
0.14450000 0.14449900 11140.64106278 0 145.28883181 0 2867.84285128 0 -200.21199184 0 473.96968681 0 22218
0.14550000 0.14550500 11034.73427589 0 66.92035614 0 2880.96355619 0 52.55700422 0 -213.41020302 0 23559
0.14650000 0.14650700 10835.29956125 0 246.71021991 0 3215.64671848 0 46.87036891 0 -78.95342658 0 23044
0.14750000 0.14750500 10756.16565577 0 413.00325190 0 3104.92347029 0 -133.95741459 0 -464.71986666 0 23649
0.14850000 0.14849900 10333.32464328 0 227.43440963 0 3086.84236387 0 -14.57461188 0 90.73116922 0 23640
0.14950000 0.14949500 10377.42571303 0 39.50716219 0 3076.29043831 0 289.26448589 0 60.05407535 0 24457
0.15050000 0.15050000 10227.44000103 0 -79.20521125 0 2904.95728407 0 383.15669312 0 362.26875235 0 24591
0.15150000 0.15149900 10290.45260158 0 143.99226257 0 2888.53702636 0 632.79332848 0 -379.79513530 0 25020
0.15250000 0.15250500 10163.74091635 0 113.71388312 0 2746.31301407 0 13.36540329 0 785.53826382 0 25297
0.15350000 0.15350100 10101.47016157 0 71.62399045 0 2751.64987463 0 299.10113926 0 620.37793066 0 25452
0.15450000 0.15450400 10026.95341554 0 137.73639905 0 2752.15920157 0 278.91850558 0 1377.46364139 0 26061
0.15550000 0.15549900 10171.75727952 0 2.67192914 0 3194.86396480 0 331.09130012 0 1559.41515513 0 26128
0.15650000 0.15649500 9993.84716434 0 143.58037209 0 2684.13083789 0 158.39514269 0 1593.58434952 0 26331
0.15750000 0.15749700 9936.42608783 0 335.24895809 0 2999.03882805 0 -128.34153144 0 1721.56935210 0 27345
0.15850000 0.15849900 9495.95793422 0 282.15162442 0 2775.94255528 0 -29.83127897 0 1459.91924431 0 26980
0.15950000 0.15949700 9310.10896213 0 305.17320219 0 2884.29632596 0 -185.56330610 0 1382.42404291 0 27777
0.16050000 0.16050000 8975.12684707 0 258.78126843 0 2554.59570983 0 -31.42812966 0 666.25721578 0 28224
0.16150000 0.16150500 8736.39645166 0 190.02102407 0 2689.84415749 0 102.43118413 0 634.58815233 0 28075
0.16250000 0.16249700 8926.38647322 0 -115.89291664 0 2457.54678280 0 167.66046410 0 624.81793291 0 28590
0.16350000 0.16349900 8845.92388876 0 -94.75595929 0 2439.22208522 0 117.33564057 0 653.04128887 0 29163
0.16450000 0.16449100 8974.65073710 0 152.35851120 0 2461.28922859 0 145.48038302 0 842.49208822 0 28996
0.16550000 0.16550500 8929.16562675 0 50.16671073 0 2738.63989297 0 -43.47946944 0 1024.95957230 0 30777
0.16650000 0.16650700 8845.30383857 0 248.11419070 0 3073.48914013 0 -238.87544287 0 1021.70984497 0 29211
0.16750000 0.16749900 8651.28349078 0 236.01324690 0 2941.39630505 0 -165.97082733 0 1103.60408102 0 30922
0.16850000 0.16850800 8551.43326556 0 -31.83703061 0 3327.42183753 0 -18.76194368 0 1099.10096652 0 30867
0.16950000 0.16949900 8606.13055017 0 -66.45897237 0 2949.16907707 0 242.69096600 0 515.49754828 0 30852
0.17050000 0.17049200 8683.09427998 0 -80.64062744 0 2734.14452909 0 389.35276609 0 176.26144602 0 31257
0.17150000 0.17149500 8562.73810920 0 140.21217088 0 2379.44260353 0 193.29732499 0 151.17045075 0 32608
0.17250000 0.17250900 8553.24912683 0 130.87487936 0 2275.73920928 0 203.91568449 0 141.42791214 0 32361
0.17350000 0.17350400 8338.58996557 0 94.26146926 0 2093.99806970 0 83.05893390 0 309.38622178 0 32508
0.17450000 0.17449800 8316.61140081 0 186.22100219 0 2141.38761993 0 38.43536114 0 -43.31028431 0 32791
0.17550000 0.17549800 8119.66795926 0 223.19481646 0 2379.97407512 0 -108.95743382 0 218.18680395 0 33633
0.17650000 0.17650100 7893.83682226 0 247.00695822 0 2270.23626384 0 -200.11898431 0 314.88695275 0 33984
0.17750000 0.17750300 7826.72746153 0 147.79449891 0 2465.38598877 0 113.82128467 0 513.08156700 0 34069
