### header ###
fiducial parameters:
Omega_m = 0.31
Omega_nu = 0
Omega_de = 0.69
Omega_k = 0
H_0 = 100
w_de = -1
zeff = 0
beta = 0
fgrowth = 0
b_1 = 2
gamma = 0.55
Lx = 3500 Ly = 3500 Lz = 3500
nx = 700 ny = 700 nz = 700
xoffset = -685.467585 yoffset = -31.7331281 zoffset = 572.489161
bins = 400 dk = 0.001
kx_ny = 0.628318531 ky_ny = 0.628318531 kz_ny = 0.628318531
############################
A(data) = 8.08384164 (not used)
A(ran) = 8.07994031 (used)
Ngal = 479515
weighted Ngal = 0
Nran = 23820508
weighted Nran = 0
SN(data) = 3492.39277
SN(ran) = 70.3792104
SN(data+ran) = 3562.77198
############################
13 columns: k_central k_mean P_0(k) sigma^{lin}_{P_0(k)} P^img_1(k) sigma^{lin}_{P_1(k)} P_2(k) sigma^{lin}_{P_2(k)} P^img_3(k) sigma^{lin}_{P_3(k)} P_4(k) sigma^{lin}_{P_4(k)} N_modes
### header ###
0.00050000 0 0 0 0 0 0 0 0 0 0 0 0
0.00150000 0.00179520 104008.76896994 0 -112745.05469835 0 -31123.75144897 0 60448.69300791 0 -34645.74725054 0 3
0.00250000 0.00253879 170352.14626480 0 -92896.03016571 0 2489.49043990 0 -62548.44868652 0 27716.13276279 0 6
0.00350000 0.00331552 180720.27122498 0 -11146.50939493 0 13391.42325191 0 -145871.23609077 0 88639.71778217 0 7
0.00450000 0.00420575 176791.81037933 0 49503.58920143 0 14453.70209501 0 -82459.58896139 0 97023.12851861 0 24
0.00550000 0.00557378 108266.96364869 0 38995.62077879 0 32918.79674857 0 -19382.43676478 0 44129.19345771 0 45
0.00650000 0.00659388 110317.22603536 0 35901.23816172 0 75933.33926679 0 32696.35374297 0 7095.69936003 0 40
0.00750000 0.00754703 68328.86658134 0 19918.89090225 0 62185.49787896 0 25756.33126989 0 -16171.90546037 0 57
0.00850000 0.00846663 58416.58923394 0 10092.84482054 0 57168.51678039 0 49569.91242709 0 -10415.45914878 0 75
0.00950000 0.00948925 53083.71470829 0 -1718.46910115 0 45484.99963175 0 17780.16064028 0 4723.78593738 0 112
0.01050000 0.01054430 62085.18261611 0 -6843.18392022 0 29718.45198299 0 32388.32166651 0 -12256.73140450 0 105
0.01150000 0.01145670 63288.41215415 0 -3512.25215572 0 35933.90151994 0 -2283.33482410 0 -4728.00449313 0 144
0.01250000 0.01249090 75025.40863166 0 -1660.41690213 0 23050.14436096 0 7417.56077018 0 -5376.64342566 0 169
0.01350000 0.01339930 69416.94394127 0 -5452.79887576 0 36715.60765213 0 -7651.06502828 0 885.55789560 0 180
0.01450000 0.01448870 80527.57900379 0 -705.51635789 0 22238.76439825 0 7977.07856024 0 -2450.41620561 0 267
0.01550000 0.01550050 80333.81331946 0 -702.30095476 0 37489.23098721 0 -877.02556210 0 9752.37083237 0 238
0.01650000 0.01653350 77930.78666407 0 8388.43757191 0 18512.59492703 0 21741.83846039 0 -10507.82448242 0 315
0.01750000 0.01747870 75183.96432306 0 -2416.93349536 0 12977.20758045 0 9010.82402229 0 3389.05039747 0 297
0.01850000 0.01844180 67919.07983980 0 1325.42371474 0 -338.45218166 0 12775.46982225 0 -13927.43449638 0 388
0.01950000 0.01947590 73908.65395045 0 -306.07338219 0 12925.83199329 0 10875.49210035 0 -13339.27260202 0 399
0.02050000 0.02045430 72207.39124206 0 -1013.95368143 0 -3514.83200741 0 3008.30636393 0 -5587.64871973 0 462
0.02150000 0.02154770 72047.39614844 0 2447.40453326 0 12126.18869489 0 5869.18472289 0 -3166.96170625 0 571
0.02250000 0.02255340 70594.59640898 0 1427.41089865 0 -5975.21330536 0 -11678.75604896 0 10517.83386405 0 510
0.02350000 0.02348930 74272.71199049 0 4534.13915789 0 18418.03727308 0 3949.48719049 0 -5221.54229960 0 555
0.02450000 0.02439640 67880.76959593 0 3666.50071277 0 12003.39661265 0 -19253.66562714 0 1016.37630610 0 592
0.02550000 0.02547300 65675.82683155 0 5882.39400640 0 23706.73322271 0 -7956.91585675 0 -4463.32056835 0 837
0.02650000 0.02652900 63907.79800450 0 926.18557706 0 19362.06368712 0 -798.49066939 0 -5164.67483933 0 723
0.02750000 0.02749970 64723.16400415 0 -5885.09565366 0 20256.59680922 0 11431.06814277 0 -8824.63180814 0 826
0.02850000 0.02848090 66886.25338072 0 -3272.84634849 0 17512.43182616 0 9924.87765304 0 -17827.55019050 0 831
0.02950000 0.02946900 64093.48089171 0 4844.18639746 0 9699.03544371 0 13175.51291795 0 -9286.27024680 0 996
0.03050000 0.03053250 63209.57720144 0 4792.94367820 0 8085.59841579 0 -1866.51715630 0 -1714.00695425 0 1041
0.03150000 0.03150510 59478.75735380 0 1223.07114412 0 8015.32237017 0 1456.19894317 0 1596.45208165 0 1036
0.03250000 0.03246190 56424.89944557 0 1767.28698128 0 13737.76557224 0 -1671.99855389 0 7720.73209604 0 1059
0.03350000 0.03345080 54128.38855493 0 4096.68267663 0 18012.67946147 0 1598.03542410 0 10808.00628058 0 1302
0.03450000 0.03451200 56171.23248397 0 685.93605868 0 17801.41950393 0 1245.04970888 0 12885.30728445 0 1339
0.03550000 0.03553350 54426.89843204 0 -2620.67534435 0 19102.63911662 0 6259.99349969 0 12183.76478394 0 1365
0.03650000 0.03647120 56491.77628747 0 659.86959159 0 17281.46313045 0 5409.78289384 0 12510.73053584 0 1308
0.03750000 0.03744890 54921.27773519 0 3354.21686359 0 15278.36884751 0 2317.61474174 0 16791.06986423 0 1579
0.03850000 0.03847530 51379.24102571 0 2101.63797383 0 13881.26290189 0 2928.75171010 0 13520.63728255 0 1662
0.03950000 0.03950240 48735.83419851 0 2442.72093987 0 15377.57687788 0 -2.21626975 0 9789.34132494 0 1683
0.04050000 0.04050350 46260.61598530 0 3520.53425469 0 14761.51272497 0 -1670.69201956 0 10316.45042025 0 1822
0.04150000 0.04152450 43450.12777658 0 2791.38844840 0 17405.58389166 0 -2209.82565963 0 8033.63599542 0 1887
0.04250000 0.04250150 42084.13506370 0 1119.86600448 0 16346.29457626 0 136.28481726 0 10652.15223643 0 1920
0.04350000 0.04349210 42321.19353807 0 -290.41268597 0 18246.52696164 0 2176.13257521 0 8574.35297794 0 2005
0.04450000 0.04448520 41917.49657518 0 628.80618431 0 16554.34355961 0 3355.80020604 0 9922.39745228 0 2151
0.04550000 0.04548030 42674.28997654 0 -34.21780190 0 15907.83051345 0 3476.04565357 0 5317.39541556 0 2274
0.04650000 0.04648670 41807.10549674 0 -170.85372258 0 14036.05400285 0 3859.53562366 0 6743.69908172 0 2311
0.04750000 0.04749250 40786.34787171 0 1834.71743942 0 11414.12748580 0 1215.68590346 0 3833.65960056 0 2568
0.04850000 0.04851840 39696.27749331 0 2193.29467868 0 9661.05736959 0 1260.17450458 0 87.51222295 0 2493
0.04950000 0.04949480 37922.38033412 0 1735.48726440 0 8718.83574449 0 -2185.53297898 0 3683.61852694 0 2644
0.05050000 0.05050630 36105.41183138 0 1135.81015222 0 7759.40772663 0 -412.81391514 0 -1313.28844674 0 2829
0.05150000 0.05149060 36084.48513747 0 -1188.83551578 0 8887.46725148 0 -890.52936944 0 568.55502158 0 2784
0.05250000 0.05249300 36063.77989006 0 385.87605609 0 8489.58325912 0 -1403.16250729 0 -4796.66397934 0 3055
0.05350000 0.05348950 37214.74805496 0 576.86037242 0 12061.30487145 0 -1144.40227628 0 141.17989207 0 3009
0.05450000 0.05448610 36420.97308871 0 791.22500984 0 12557.34502332 0 -422.59077796 0 445.95781226 0 3336
0.05550000 0.05550870 35338.65333769 0 678.55413972 0 14618.79045806 0 2264.32364239 0 1841.46048524 0 3349
0.05650000 0.05647670 36228.97897636 0 327.20823581 0 12727.08376279 0 2977.01597399 0 2927.15729533 0 3324
0.05750000 0.05747970 35330.68126382 0 508.75560970 0 13325.87508899 0 3009.34716246 0 4702.48278443 0 3639
0.05850000 0.05849280 34820.80070592 0 1682.04115250 0 14730.17804573 0 1417.64510816 0 5151.60949605 0 3846
0.05950000 0.05951020 33482.93169808 0 1454.39415423 0 12858.18008865 0 -1876.59297189 0 4411.10348450 0 3787
0.06050000 0.06049470 31818.09693835 0 475.22085952 0 12671.05779921 0 930.11403790 0 3701.59998245 0 3930
0.06150000 0.06148310 31852.42114529 0 82.71558111 0 11739.76455871 0 668.34213454 0 3953.14105768 0 4083
0.06250000 0.06249100 32492.95513605 0 -98.44381852 0 12848.32571956 0 1908.20445925 0 -138.19922222 0 4303
0.06350000 0.06350600 31875.11941117 0 -390.64601362 0 10161.00605212 0 827.70167673 0 -369.04280067 0 4470
0.06450000 0.06451750 32711.41210472 0 396.80997685 0 10793.94442806 0 -35.79173287 0 -3393.56790599 0 4479
0.06550000 0.06550280 31174.01980365 0 605.44136448 0 11942.83099589 0 -3077.69662357 0 -2436.77510144 0 4636
0.06650000 0.06648880 31435.43739262 0 1679.95955543 0 12099.28294558 0 -1100.21594963 0 -4065.65802248 0 4653
0.06750000 0.06749660 30203.08764030 0 595.80401296 0 13367.28558381 0 -2489.88904359 0 -2652.45291658 0 5220
0.06850000 0.06852730 29975.21919554 0 543.22818579 0 12507.29811514 0 407.13824144 0 -3423.33031510 0 5029
0.06950000 0.06949320 30057.70801543 0 -72.59614057 0 12994.48040716 0 1525.75528768 0 -1916.33154566 0 5040
0.07050000 0.07048030 29783.22508318 0 -71.59188071 0 12035.83852436 0 3118.75280399 0 -2962.20120338 0 5475
0.07150000 0.07148790 30623.83598341 0 -538.75828826 0 10772.81843230 0 2075.16404519 0 -2503.80695589 0 5509
0.07250000 0.07249820 30476.13117033 0 -204.76603903 0 9458.09058334 0 421.92311677 0 -1813.39214182 0 5916
0.07350000 0.07351270 30436.93514047 0 672.27723878 0 8529.23325430 0 2724.02442421 0 -1570.69785412 0 5721
0.07450000 0.07449140 29790.08992457 0 79.90786098 0 8581.37283187 0 479.30433291 0 237.84350220 0 6028
0.07550000 0.07549160 29418.05981066 0 604.63087030 0 9284.63154273 0 1123.92954769 0 -187.25072840 0 6183
0.07650000 0.07648840 28676.32477106 0 1475.33192046 0 9324.48083975 0 -279.57066551 0 -648.12074772 0 6330
0.07750000 0.07749960 27245.00534175 0 1459.33241110 0 8887.77727658 0 795.78348597 0 1397.59312791 0 6583
0.07850000 0.07848650 26809.08791364 0 570.61779569 0 9541.04444088 0 1300.24524810 0 2561.91451654 0 6549
0.07950000 0.07947320 25918.43010523 0 592.20550739 0 9614.83041347 0 176.83942138 0 2050.36203759 0 6828
0.08050000 0.08048110 25400.24530372 0 595.38658631 0 9139.49550900 0 1917.23947630 0 2688.07258552 0 7147
0.08150000 0.08149960 25317.97793032 0 73.76083841 0 7884.07103177 0 772.28579824 0 3564.28101005 0 7386
0.08250000 0.08250610 24971.08199375 0 246.96709785 0 7630.10511740 0 1287.27955574 0 2502.88795293 0 7227
0.08350000 0.08350160 24834.56022873 0 343.76246864 0 6532.17338838 0 542.01576622 0 1530.19528994 0 7798
0.08450000 0.08449610 23979.66602949 0 685.69578923 0 7119.64879861 0 -505.79376281 0 -21.79432128 0 7371
0.08550000 0.08548940 23185.78033999 0 1106.78183824 0 6873.94283856 0 -587.58613348 0 2149.76936981 0 8256
0.08650000 0.08650700 22540.92814255 0 602.58138298 0 6386.90448676 0 541.33149655 0 -88.65887290 0 8037
0.08750000 0.08749060 21917.88842501 0 415.48234542 0 6784.92134702 0 -442.45895761 0 954.19634438 0 8155
0.08850000 0.08849210 21919.43855048 0 271.78349946 0 7206.87657353 0 219.03605126 0 -733.24699540 0 8718
0.08950000 0.08949900 21153.89801252 0 463.59491846 0 7580.14678782 0 -245.08148093 0 835.24192993 0 8571
0.09050000 0.09049190 21070.19123689 0 484.50168218 0 7547.98168422 0 111.65443070 0 1102.76922773 0 8932
0.09150000 0.09150830 21009.95778988 0 -37.10922880 0 7998.01632648 0 349.98954412 0 1675.30917901 0 9285
0.09250000 0.09250820 20915.17868943 0 164.56685655 0 7497.17078563 0 857.54712827 0 3.82848882 0 9204
0.09350000 0.09350330 20756.62299803 0 570.38970580 0 7553.07495364 0 386.49057012 0 243.19918571 0 9349
0.09450000 0.09448040 19868.06893133 0 1134.42611162 0 6960.84951606 0 -333.85938133 0 924.43947143 0 9564
0.09550000 0.09549270 19277.58184875 0 549.78964547 0 6517.40290708 0 317.44687425 0 650.05840457 0 10155
0.09650000 0.09649430 18465.86971630 0 254.19400426 0 6939.73459263 0 506.81241669 0 528.87845282 0 9913
0.09750000 0.09749140 18614.23886887 0 262.36205828 0 5722.93038436 0 799.09189663 0 -604.60983288 0 10476
0.09850000 0.09850240 17733.43542954 0 505.29993712 0 5775.92253095 0 1052.97144686 0 163.13741941 0 10575
0.09950000 0.09950330 17684.05286085 0 565.47691528 0 5340.45906815 0 480.86331625 0 -279.65038625 0 10882
0.10050000 0.10051200 16943.75722348 0 322.95978478 0 5490.65515432 0 80.74116415 0 386.02996141 0 10875
0.10150000 0.10150300 16412.06418569 0 676.78588945 0 5018.03296943 0 557.86247750 0 786.53366582 0 11118
0.10250000 0.10250800 16082.10890609 0 359.47520479 0 5143.00629966 0 389.96285118 0 718.91940708 0 11575
0.10350000 0.10349800 15716.50074058 0 169.03343238 0 5392.63186270 0 966.54198656 0 1752.83759739 0 11364
0.10450000 0.10450100 15799.10028373 0 -50.88917993 0 4935.85417463 0 438.30129964 0 1013.49971611 0 12093
0.10550000 0.10551000 15949.79462451 0 -162.95472605 0 4792.30148336 0 259.14111899 0 1604.45737250 0 12067
0.10650000 0.10649700 15992.86596805 0 3.88802472 0 4663.03209110 0 -705.64036792 0 503.20283880 0 12054
0.10750000 0.10749900 15856.12275654 0 478.42186862 0 5240.33203482 0 -673.59041650 0 734.25679142 0 12807
0.10850000 0.10850100 15775.18406212 0 132.89890033 0 5286.75829278 0 -458.73416786 0 700.19167688 0 12736
0.10950000 0.10950300 15449.87915895 0 95.38984988 0 5263.61713391 0 104.82225267 0 772.19943411 0 12933
0.11050000 0.11050200 15689.37354477 0 33.47916711 0 5676.86951312 0 845.38860839 0 -19.06532538 0 13428
0.11150000 0.11150900 15330.40877415 0 279.29275016 0 5337.49168510 0 147.35492762 0 -62.50260926 0 13453
0.11250000 0.11250000 15362.40779288 0 511.29227931 0 5299.86792537 0 -104.72359826 0 326.21836997 0 13668
0.11350000 0.11349100 14654.66479047 0 319.32916947 0 5405.42039786 0 -216.71529198 0 388.11820187 0 13791
0.11450000 0.11448600 14671.82689394 0 70.83021548 0 5513.16519067 0 29.03329652 0 438.16732451 0 14205
0.11550000 0.11549300 14501.53453823 0 85.87174730 0 5199.25370974 0 6.48438523 0 -643.19134872 0 14776
0.11650000 0.11649800 14576.27273076 0 258.04052990 0 5721.84529653 0 -242.79947479 0 -788.61969181 0 14553
0.11750000 0.11747300 14105.25603297 0 448.32507530 0 5418.13142676 0 155.53183950 0 167.48662860 0 14568
0.11850000 0.11849100 13887.24195729 0 455.09580193 0 5399.14238969 0 255.18054840 0 111.97442089 0 16015
0.11950000 0.11950300 13730.79000760 0 -89.94492343 0 5347.16889699 0 662.73068032 0 627.03239787 0 15270
0.12050000 0.12050700 14040.70437928 0 -239.39252044 0 5614.95307273 0 766.85482292 0 669.45933211 0 15999
0.12150000 0.12150000 13895.43547766 0 114.63620778 0 4899.60338317 0 408.35176824 0 750.00828071 0 15670
0.12250000 0.12250700 13707.64884873 0 312.37796395 0 4671.66850446 0 372.75978011 0 1009.33984368 0 16887
0.12350000 0.12352200 13776.18653936 0 47.14031219 0 4837.89731696 0 271.27527975 0 1328.45753174 0 16407
0.12450000 0.12449800 13570.57346748 0 30.11306964 0 4303.77944003 0 602.04326799 0 977.21127875 0 16306
0.12550000 0.12549900 13449.55295721 0 37.72662163 0 3550.11950660 0 632.19431571 0 649.96428981 0 17523
0.12650000 0.12650100 13591.83233113 0 -86.14578734 0 3410.37569507 0 339.35789783 0 152.59103002 0 17154
0.12750000 0.12750600 13388.21227771 0 90.26103831 0 2862.57242466 0 216.65328696 0 290.07830176 0 18007
0.12850000 0.12850300 13360.53146567 0 192.64848675 0 2848.03446218 0 300.41320975 0 299.58057092 0 17496
0.12950000 0.12949900 13045.63454783 0 311.47003331 0 2201.07852302 0 288.70533348 0 211.78146404 0 18405
0.13050000 0.13049000 12904.90529938 0 222.96672657 0 2545.68248835 0 211.43932920 0 87.65007339 0 18100
0.13150000 0.13148800 12637.84082475 0 148.44333715 0 2204.86525811 0 129.42219034 0 381.74497170 0 19059
0.13250000 0.13249300 12692.64883261 0 82.32295647 0 2691.12854717 0 -404.41998570 0 -179.58314347 0 18957
0.13350000 0.13349100 12545.16546602 0 140.25756741 0 2929.88108724 0 -561.16203030 0 -162.66573838 0 19468
0.13450000 0.13450700 12582.47920066 0 180.32498923 0 3364.76878914 0 -268.21599641 0 -394.68741218 0 19953
0.13550000 0.13551000 12425.25218824 0 168.21408034 0 3543.32109916 0 -307.63790169 0 -336.49570187 0 19956
0.13650000 0.13649900 12172.58173588 0 349.83231711 0 3840.94519029 0 -5.32481387 0 -403.02376554 0 19723
0.13750000 0.13749600 12069.05549882 0 378.61482548 0 3789.27065036 0 55.62215590 0 2.12930771 0 20946
0.13850000 0.13851100 11695.25381294 0 161.75116435 0 3748.35841016 0 337.51657021 0 -320.67999310 0 20955
0.13950000 0.13949800 11459.85618730 0 36.83640672 0 3343.49885316 0 605.25092049 0 239.14228590 0 20506
0.14050000 0.14048300 11498.38787767 0 85.00378776 0 3210.14377305 0 650.32635483 0 -564.61105948 0 21447
0.14150000 0.14148400 11324.88454776 0 151.93887009 0 2755.62483924 0 454.47685897 0 -51.54831543 0 21771
0.14250000 0.14249400 11209.95381614 0 171.87459093 0 2303.46431062 0 79.59274262 0 -445.76958273 0 22470
0.14350000 0.14350900 10920.13571401 0 137.58802989 0 2311.11528707 0 154.60619314 0 -388.80357877 0 22519
0.14450000 0.14449900 11019.23302114 0 132.14376778 0 2242.03505253 0 66.76578649 0 -540.80666835 0 22218
0.14550000 0.14550500 10736.26868808 0 242.56695596 0 2344.40976780 0 -213.98153498 0 -304.00175022 0 23559
0.14650000 0.14650700 10693.62916520 0 252.36928513 0 2397.10296161 0 -244.92536115 0 221.66905010 0 23044
0.14750000 0.14750500 10446.83811732 0 176.70212455 0 2911.70032988 0 111.23589683 0 172.33409241 0 23649
0.14850000 0.14849900 10541.47327754 0 227.46984107 0 3111.54472054 0 -86.05720874 0 346.70659981 0 23640
0.14950000 0.14949500 10304.32622458 0 76.13950595 0 3104.07090128 0 -202.76416271 0 419.14507047 0 24457
0.15050000 0.15050000 10208.80527836 0 189.20610097 0 3220.15315468 0 170.84486472 0 461.84549114 0 24591
0.15150000 0.15149900 10111.05879487 0 113.69284570 0 3179.90525397 0 140.78128837 0 467.51452145 0 25020
0.15250000 0.15250500 10118.84263921 0 -43.16789422 0 2950.69705790 0 226.82986070 0 334.39196015 0 25297
0.15350000 0.15350100 10194.56626865 0 69.63473657 0 2934.83041643 0 267.31581640 0 101.80681573 0 25452
0.15450000 0.15450400 9997.73355035 0 186.41587511 0 2852.24194561 0 3.33242653 0 49.85690709 0 26061
0.15550000 0.15549900 9784.38092342 0 303.74044336 0 2793.83543219 0 31.84002014 0 306.73329275 0 26128
0.15650000 0.15649500 9626.21276338 0 97.21157949 0 2615.84781073 0 357.92840102 0 371.10225309 0 26331
0.15750000 0.15749700 9455.55502095 0 38.59801359 0 2592.39662676 0 337.74466011 0 541.86407537 0 27345
0.15850000 0.15849900 9603.76916097 0 104.40493675 0 2697.92695461 0 120.58093897 0 221.17079548 0 26980
0.15950000 0.15949700 9334.37949814 0 137.64560598 0 2426.38926076 0 -136.71663793 0 482.72125235 0 27777
0.16050000 0.16050000 9343.60274471 0 223.98427322 0 2596.05049395 0 -279.92830160 0 399.09087576 0 28224
0.16150000 0.16150500 9165.06150701 0 134.80887636 0 2581.10285545 0 -119.07842449 0 599.73025934 0 28075
0.16250000 0.16249700 9006.12935656 0 77.55554558 0 2616.20212512 0 128.91618510 0 255.48725180 0 28590
0.16350000 0.16349900 8997.90261922 0 50.31153674 0 2462.41860572 0 327.74635079 0 128.57958642 0 29163
0.16450000 0.16449100 8792.90959753 0 134.62064684 0 2359.14703213 0 236.99093319 0 -183.51492601 0 28996
0.16550000 0.16550500 8743.96992183 0 276.35304792 0 2312.73184649 0 -8.66565537 0 -205.44920147 0 30777
0.16650000 0.16650700 8401.20396242 0 251.57872113 0 2238.96801855 0 -72.26408155 0 -14.74213616 0 29211
0.16750000 0.16749900 8382.65781835 0 135.07682663 0 2216.62406707 0 -27.35273906 0 -198.64082894 0 30922
0.16850000 0.16850800 8315.09449231 0 38.43048932 0 2586.86046435 0 -189.65231566 0 -160.17667976 0 30867
0.16950000 0.16949900 8308.56182066 0 144.43847726 0 2427.41898697 0 -13.47147616 0 -22.77599360 0 30852
0.17050000 0.17049200 8197.35139019 0 92.31041491 0 2446.35266241 0 193.66492617 0 682.28440595 0 31257
0.17150000 0.17149500 8267.93746090 0 -14.26447606 0 2447.42667791 0 546.54102537 0 719.26375638 0 32608
0.17250000 0.17250900 8260.30862910 0 -45.17076705 0 2181.73517157 0 586.42132491 0 717.36817437 0 32361
0.17350000 0.17350400 8192.46849494 0 18.37706967 0 2063.44952553 0 414.65745723 0 627.13537050 0 32508
0.17450000 0.17449800 8230.93375136 0 55.73199336 0 1798.25627380 0 -92.58988038 0 699.04347680 0 32791
0.17550000 0.17549800 8053.41116754 0 212.22657150 0 2136.96976232 0 -292.41566953 0 434.91095378 0 33633
0.17650000 0.17650100 7899.38405699 0 287.53941768 0 1985.91003482 0 -272.37365438 0 250.56338895 0 33984
0.17750000 0.17750300 7672.97715910 0 140.05494386 0 2098.33842103 0 -227.21960653 0 430.12438776 0 34069
0.17850000 0.17849800 7684.42594296 0 -7.33097519 0 1978.95661484 0 37.42445789 0 -19.05558174 0 34536
