### header ###
fiducial parameters:
Omega_m = 0.31
Omega_nu = 0
Omega_de = 0.69
Omega_k = 0
H_0 = 100
w_de = -1
zeff = 0
beta = 0
fgrowth = 0
b_1 = 2
gamma = 0.55
Lx = 3500 Ly = 3500 Lz = 3500
nx = 700 ny = 700 nz = 700
xoffset = -685.467585 yoffset = -31.7331281 zoffset = 572.489161
bins = 400 dk = 0.001
kx_ny = 0.628318531 ky_ny = 0.628318531 kz_ny = 0.628318531
############################
A(data) = 8.03635764 (not used)
A(ran) = 8.03124797 (used)
Ngal = 477362
weighted Ngal = 0
Nran = 23820508
weighted Nran = 0
SN(data) = 3494.61148
SN(ran) = 69.9550825
SN(data+ran) = 3564.56656
############################
13 columns: k_central k_mean P_0(k) sigma^{lin}_{P_0(k)} P^img_1(k) sigma^{lin}_{P_1(k)} P_2(k) sigma^{lin}_{P_2(k)} P^img_3(k) sigma^{lin}_{P_3(k)} P_4(k) sigma^{lin}_{P_4(k)} N_modes
### header ###
0.00050000 0 0 0 0 0 0 0 0 0 0 0 0
0.00150000 0.00179520 13775.30075337 0 -23254.31803062 0 -20378.28165897 0 -15436.14947617 0 -56739.24274717 0 3
0.00250000 0.00253879 21531.35356559 0 -23910.02110638 0 -24714.97912069 0 14844.77660761 0 53389.08942679 0 6
0.00350000 0.00331552 31174.68414314 0 -12150.65853273 0 7304.84450353 0 -45095.58596788 0 -12003.83950564 0 7
0.00450000 0.00420575 46354.28785326 0 -17089.57974134 0 -18522.89218911 0 14496.66271531 0 33966.57084616 0 24
0.00550000 0.00557378 72367.16488920 0 -36559.15570245 0 -44261.28629279 0 25590.46784410 0 8312.09389228 0 45
0.00650000 0.00659388 94957.58632369 0 -23389.51111665 0 -51607.22019372 0 9232.48089283 0 7625.00077566 0 40
0.00750000 0.00754703 100831.45463998 0 -2326.63868647 0 -41261.23988318 0 5952.10536346 0 7271.74932465 0 57
0.00850000 0.00846663 79790.16217087 0 14521.35399965 0 -36193.76898343 0 -27092.87159875 0 -3314.54472376 0 75
0.00950000 0.00948925 72356.53545737 0 9990.89085361 0 -29414.40594347 0 -32845.83012802 0 26905.97075581 0 112
0.01050000 0.01054430 71178.55081992 0 -727.39084280 0 -17213.25760956 0 -34057.91752592 0 8219.69534167 0 105
0.01150000 0.01145670 76730.98954672 0 -13285.12893365 0 5870.49125722 0 -41821.38879576 0 7618.76705679 0 144
0.01250000 0.01249090 96919.49155831 0 -7521.76241905 0 8779.12455313 0 -39329.78354182 0 -11472.81080734 0 169
0.01350000 0.01339930 103402.44846287 0 -141.68368284 0 32237.73804898 0 -42252.98801719 0 -26183.28011489 0 180
0.01450000 0.01448870 99605.41611281 0 7603.09971717 0 30604.01652199 0 -27204.81280266 0 -43689.95433215 0 267
0.01550000 0.01550050 94361.45235545 0 16866.14022650 0 52037.82290592 0 -16079.89444113 0 -47376.26343402 0 238
0.01650000 0.01653350 81777.53375257 0 12253.63115355 0 44356.95117923 0 -613.93051592 0 -54020.98700419 0 315
0.01750000 0.01747870 70880.26238930 0 7537.73978376 0 37788.29448057 0 15400.49659026 0 -41720.18774691 0 297
0.01850000 0.01844180 66041.65644355 0 2356.26822768 0 23372.90262943 0 29249.64975017 0 -36435.25638773 0 388
0.01950000 0.01947590 66491.85717068 0 -6800.82120546 0 12290.83416494 0 33347.73861205 0 -33676.03304292 0 399
0.02050000 0.02045430 72055.58966880 0 -10416.56638126 0 -4712.38144282 0 26185.71602635 0 -18929.46795645 0 462
0.02150000 0.02154770 74038.42159732 0 -4619.20782947 0 -9230.13355997 0 10847.30196136 0 -12110.02310065 0 571
0.02250000 0.02255340 75614.34558876 0 -221.37341903 0 -10346.06888914 0 -2351.69535753 0 8991.93463615 0 510
0.02350000 0.02348930 77269.54742590 0 -3815.37919228 0 -13723.37154997 0 -994.28258916 0 8077.23881055 0 555
0.02450000 0.02439640 82977.88448615 0 999.16991333 0 -6944.53998161 0 -11022.76509276 0 10339.27048170 0 592
0.02550000 0.02547300 80735.18509414 0 9039.05845057 0 2159.72338983 0 -12963.92079066 0 5974.57111052 0 837
0.02650000 0.02652900 71128.61463498 0 6940.31035352 0 9037.66333765 0 -7956.81620583 0 16766.37857988 0 723
0.02750000 0.02749970 68075.75323599 0 8040.20188403 0 10872.17040290 0 -8524.63823950 0 3483.43089422 0 826
0.02850000 0.02848090 61885.32715313 0 5651.12635792 0 19521.94805750 0 12.10670140 0 13469.04024889 0 831
0.02950000 0.02946900 59992.29177889 0 2149.71400819 0 20578.80146144 0 2663.68025395 0 -5467.42541685 0 996
0.03050000 0.03053250 60151.95470277 0 -2297.51847219 0 15887.34671253 0 1196.28719038 0 4804.41460671 0 1041
0.03150000 0.03150510 59950.77056082 0 -1070.38489210 0 11816.16359996 0 7175.90728102 0 -5614.73162624 0 1036
0.03250000 0.03246190 60626.84671424 0 -2601.37628219 0 10177.24915263 0 7413.04326166 0 -7144.80512060 0 1059
0.03350000 0.03345080 60999.43044439 0 -532.44374141 0 7398.41672057 0 2484.09821771 0 -4453.45512693 0 1302
0.03450000 0.03451200 59147.58411847 0 1096.84331949 0 4371.79673139 0 1447.95006118 0 -6101.26065109 0 1339
0.03550000 0.03553350 57611.74194288 0 1883.64604280 0 3339.43530995 0 1177.46423819 0 1008.06431186 0 1365
0.03650000 0.03647120 58385.14383146 0 1056.93976807 0 4927.70494356 0 -2974.40290533 0 -3970.65747554 0 1308
0.03750000 0.03744890 56414.82362998 0 2830.36303177 0 9740.19127507 0 -5166.42426665 0 3216.34427494 0 1579
0.03850000 0.03847530 54659.41725323 0 6320.37088693 0 13905.95418623 0 -7963.69211954 0 1967.67391585 0 1662
0.03950000 0.03950240 49615.97329834 0 6153.44451796 0 18651.55260351 0 -3394.59763220 0 4907.86333749 0 1683
0.04050000 0.04050350 47001.68668541 0 1874.62209807 0 22341.95846556 0 1883.86748929 0 6819.89882112 0 1822
0.04150000 0.04152450 44932.26917680 0 -983.65205010 0 19418.75399019 0 5695.63710369 0 3953.57287834 0 1887
0.04250000 0.04250150 46062.42137104 0 472.02870827 0 17601.56404095 0 5078.74252642 0 1840.05429999 0 1920
0.04350000 0.04349210 44444.64399179 0 1146.09634198 0 17481.31859342 0 2415.21728502 0 471.78733159 0 2005
0.04450000 0.04448520 43124.71215016 0 2992.05219109 0 17081.05405123 0 490.34011906 0 410.89840295 0 2151
0.04550000 0.04548030 40313.33815546 0 1870.59177184 0 15713.40048963 0 402.41589491 0 1935.02162996 0 2274
0.04650000 0.04648670 39748.31741996 0 871.18823245 0 16014.56772470 0 -164.71854740 0 1319.54431026 0 2311
0.04750000 0.04749250 39100.80786457 0 -102.54589341 0 17485.52607685 0 2871.28634430 0 144.85590390 0 2568
0.04850000 0.04851840 39027.73052076 0 1084.70140809 0 18744.44940873 0 659.06241911 0 2497.67288794 0 2493
0.04950000 0.04949480 37857.49651068 0 2755.49197134 0 18917.39912240 0 1784.69267589 0 2638.97789728 0 2644
0.05050000 0.05050630 35691.41760641 0 1819.86945184 0 17580.63734705 0 267.12315795 0 5944.55403793 0 2829
0.05150000 0.05149060 35802.14085460 0 -211.78478574 0 18799.14669334 0 296.46038979 0 5730.49278222 0 2784
0.05250000 0.05249300 36585.50783552 0 -1931.20167789 0 18143.44361758 0 621.56599111 0 3229.91894517 0 3055
0.05350000 0.05348950 37824.72242922 0 -1619.79254237 0 18774.78757874 0 2263.08354201 0 805.75965063 0 3009
0.05450000 0.05448610 38157.11362027 0 317.24535794 0 17062.67399203 0 274.68223410 0 1375.13845318 0 3336
0.05550000 0.05550870 39521.88837742 0 783.18318033 0 16614.57700662 0 383.20208965 0 -1393.55172935 0 3349
0.05650000 0.05647670 37600.06495865 0 715.19024808 0 14857.84195089 0 1693.84425076 0 3505.25444644 0 3324
0.05750000 0.05747970 37364.44588651 0 1102.20786086 0 16135.69895821 0 1234.33169846 0 1144.54621650 0 3639
0.05850000 0.05849280 36300.17402494 0 1717.32865170 0 15861.65891895 0 -578.85339089 0 201.70675569 0 3846
0.05950000 0.05951020 33773.35877808 0 2508.92236996 0 17199.74937329 0 183.54149959 0 886.55551207 0 3787
0.06050000 0.06049470 33139.24673571 0 1021.74749087 0 16006.81709732 0 306.50409563 0 -157.90353147 0 3930
0.06150000 0.06148310 32656.38265037 0 -414.92651472 0 15290.99129780 0 1263.26368321 0 -571.66523762 0 4083
0.06250000 0.06249100 32030.02123538 0 -524.44398673 0 13847.27086470 0 2835.51166281 0 -1816.61418835 0 4303
0.06350000 0.06350600 32361.96953344 0 7.79326690 0 11201.53884928 0 2983.17218659 0 -4072.61144247 0 4470
0.06450000 0.06451750 31330.36103009 0 836.73669378 0 9640.27461590 0 851.93788852 0 -3767.28101327 0 4479
0.06550000 0.06550280 31129.17688814 0 1337.97973109 0 8977.66240945 0 -495.62715416 0 -7510.49079239 0 4636
0.06650000 0.06648880 30210.06320494 0 1612.35194009 0 11575.22981191 0 -3326.53605154 0 -6118.16809109 0 4653
0.06750000 0.06749660 28894.00667699 0 1335.98671262 0 13640.99345332 0 -4190.75314828 0 -4724.71601266 0 5220
0.06850000 0.06852730 29021.33841241 0 -149.48856461 0 15537.68269476 0 -1113.42191144 0 -3100.82671011 0 5029
0.06950000 0.06949320 29459.24885899 0 -864.55590988 0 15069.98769442 0 2579.84061042 0 -1366.94493281 0 5040
0.07050000 0.07048030 30592.83347392 0 -929.47959369 0 13925.99509416 0 4543.25168121 0 -1016.51138846 0 5475
0.07150000 0.07148790 31666.40608834 0 -993.30490288 0 12506.41232916 0 5430.54350288 0 -870.33012728 0 5509
0.07250000 0.07249820 30660.37465531 0 1097.15888074 0 11769.32766598 0 2024.38636357 0 -668.71527189 0 5916
0.07350000 0.07351270 29587.79855013 0 1921.43588740 0 9647.03980637 0 46.28453221 0 -524.81823131 0 5721
0.07450000 0.07449140 28024.60773223 0 1366.70134166 0 9229.48029281 0 -323.95850847 0 1041.67213938 0 6028
0.07550000 0.07549160 27068.73393064 0 730.68153773 0 9564.28525067 0 -667.28583475 0 -562.52281902 0 6183
0.07650000 0.07648840 26675.88784608 0 162.90268613 0 10196.89145686 0 -90.81144357 0 -2026.23544181 0 6330
0.07750000 0.07749960 26507.03489259 0 416.09575222 0 8599.14391320 0 175.39780468 0 -2809.50277181 0 6583
0.07850000 0.07848650 26299.09663250 0 689.97524277 0 8292.54016665 0 1729.37534110 0 -218.31302845 0 6549
0.07950000 0.07947320 25630.66038320 0 858.51595670 0 9225.93714886 0 1161.86333252 0 -840.22336886 0 6828
0.08050000 0.08048110 24870.43456115 0 620.79535730 0 9267.96769387 0 2336.50412788 0 1205.44400301 0 7147
0.08150000 0.08149960 24144.09005304 0 545.15034138 0 7992.54659802 0 531.10731181 0 -157.67987051 0 7386
0.08250000 0.08250610 23364.37693931 0 819.53030101 0 8815.67429736 0 397.35252077 0 2654.43486272 0 7227
0.08350000 0.08350160 22985.03909103 0 1207.65846797 0 8709.19174958 0 265.60403498 0 2139.26173356 0 7798
0.08450000 0.08449610 21741.28484415 0 318.19204171 0 8131.81429958 0 492.53133214 0 3169.91801698 0 7371
0.08550000 0.08548940 21723.34767794 0 336.10595603 0 7459.83490634 0 1095.90106465 0 1234.57528960 0 8256
0.08650000 0.08650700 21245.90903176 0 -223.05198347 0 7510.98904700 0 -37.70713434 0 890.76853166 0 8037
0.08750000 0.08749060 21672.19353728 0 -178.38622515 0 6974.23595677 0 675.80266700 0 425.53269466 0 8155
0.08850000 0.08849210 21386.97044995 0 44.60917874 0 6797.72095451 0 551.14489803 0 222.95897594 0 8718
0.08950000 0.08949900 21087.13189386 0 300.84392318 0 6721.45478116 0 738.33583588 0 238.04723297 0 8571
0.09050000 0.09049190 21082.70296394 0 765.42870748 0 6678.87061991 0 379.34670615 0 1027.61914472 0 8932
0.09150000 0.09150830 20195.36685297 0 695.65977433 0 6063.08327512 0 712.44209706 0 1146.63888589 0 9285
0.09250000 0.09250820 19707.63094471 0 408.35730440 0 5986.85031874 0 296.33527252 0 2106.33263955 0 9204
0.09350000 0.09350330 19418.42182045 0 193.69592868 0 5424.17691611 0 -365.89383149 0 1477.26957730 0 9349
0.09450000 0.09448040 19552.72912050 0 280.81740928 0 6329.92630325 0 -51.14738654 0 468.65829260 0 9564
0.09550000 0.09549270 18550.35155466 0 668.20483771 0 5937.05807403 0 -534.39800674 0 1090.08366519 0 10155
0.09650000 0.09649430 18471.29515546 0 614.67679061 0 5982.11136372 0 240.35249100 0 828.78565733 0 9913
0.09750000 0.09749140 18149.53339623 0 74.54409467 0 6583.29431207 0 -177.00329178 0 -125.57234300 0 10476
0.09850000 0.09850240 18070.03410403 0 227.74000580 0 6606.93372556 0 751.99133408 0 389.60410786 0 10575
0.09950000 0.09950330 17863.20307642 0 311.50546475 0 6365.39095964 0 153.54657166 0 162.78864118 0 10882
0.10050000 0.10051200 17682.17056563 0 466.92215207 0 6240.61693126 0 35.91319627 0 293.42657279 0 10875
0.10150000 0.10150300 17125.56479700 0 481.08476274 0 6045.93224397 0 66.42597684 0 722.41494003 0 11118
0.10250000 0.10250800 16764.71773116 0 479.60660738 0 6058.88686401 0 189.12416576 0 413.27563109 0 11575
0.10350000 0.10349800 16721.20349462 0 168.03692315 0 5753.22426507 0 466.95536904 0 1555.65056469 0 11364
0.10450000 0.10450100 16579.03484395 0 -2.33086831 0 6094.17436321 0 566.93956939 0 930.54807304 0 12093
0.10550000 0.10551000 16369.54645838 0 74.46835997 0 5860.29364606 0 569.84384019 0 1860.98099389 0 12067
0.10650000 0.10649700 16623.98848272 0 -102.55364404 0 5526.03123211 0 1104.97926376 0 1329.42082400 0 12054
0.10750000 0.10749900 16514.92608325 0 -63.43822071 0 5731.37856820 0 893.50561036 0 2458.74259388 0 12807
0.10850000 0.10850100 16387.26217809 0 379.43528475 0 5583.60732117 0 454.49014576 0 2224.72900884 0 12736
0.10950000 0.10950300 16136.91691394 0 518.07629273 0 5682.77106225 0 -465.52039575 0 2388.17866781 0 12933
0.11050000 0.11050200 15681.95508715 0 434.04066905 0 5803.28224557 0 -362.40937087 0 2767.52758842 0 13428
0.11150000 0.11150900 15223.00722341 0 430.63814364 0 5802.30788099 0 -650.76481889 0 1749.40517670 0 13453
0.11250000 0.11250000 15020.16223273 0 360.60568916 0 6104.80379503 0 -218.85225067 0 2205.58495922 0 13668
0.11350000 0.11349100 14912.98212849 0 174.27285648 0 6095.25945104 0 208.41104836 0 698.80985074 0 13791
0.11450000 0.11448600 14469.75696600 0 154.12786871 0 5733.36051434 0 395.92751256 0 1364.09934533 0 14205
0.11550000 0.11549300 14791.18655549 0 -117.57258832 0 5760.15554040 0 773.76948977 0 615.16729460 0 14776
0.11650000 0.11649800 14587.78794857 0 -50.67149802 0 5392.36612690 0 684.01279586 0 957.38738840 0 14553
0.11750000 0.11747300 14627.53759467 0 453.13046427 0 4860.31877472 0 600.62158148 0 901.26731005 0 14568
0.11850000 0.11849100 14259.38279445 0 239.70918893 0 4768.15274293 0 481.96944150 0 1572.28119657 0 16015
0.11950000 0.11950300 14116.10691129 0 54.71223224 0 4540.74933580 0 446.56679012 0 1590.30694138 0 15270
0.12050000 0.12050700 14153.08847619 0 45.39808188 0 4323.80927563 0 424.53397096 0 1099.54275228 0 15999
0.12150000 0.12150000 13809.18206732 0 250.20464562 0 3952.17776542 0 255.38760087 0 1203.60599709 0 15670
0.12250000 0.12250700 13802.53867243 0 312.00704106 0 4048.51806366 0 -430.39344526 0 804.45533077 0 16887
0.12350000 0.12352200 13180.71691061 0 454.40821056 0 4088.50022858 0 349.29752382 0 515.53519418 0 16407
0.12450000 0.12449800 13154.36477754 0 156.18178496 0 4165.00999308 0 -376.49447527 0 718.53076848 0 16306
0.12550000 0.12549900 12923.17463533 0 79.55011417 0 3722.06163871 0 579.35053828 0 629.80933694 0 17523
0.12650000 0.12650100 13002.67392753 0 33.81266553 0 4137.69456775 0 -35.57438313 0 647.16742056 0 17154
0.12750000 0.12750600 12927.16067227 0 -225.13468777 0 3789.33708431 0 491.62783044 0 798.07877891 0 18007
0.12850000 0.12850300 13148.16427565 0 -119.02306287 0 3722.21665126 0 333.30687232 0 568.92151553 0 17496
0.12950000 0.12949900 13325.43219599 0 15.28080476 0 3528.61705180 0 454.77359728 0 1337.88008016 0 18405
0.13050000 0.13049000 13576.22035313 0 -54.92714607 0 4014.96891946 0 116.04017856 0 1153.62552285 0 18100
0.13150000 0.13148800 13151.92886608 0 267.25491861 0 3838.14389211 0 8.34793501 0 1271.05859988 0 19059
0.13250000 0.13249300 13098.89243020 0 426.00216124 0 4186.21349511 0 -287.25818063 0 1271.37969730 0 18957
0.13350000 0.13349100 12711.47178480 0 395.74703367 0 4141.25985635 0 -573.64496930 0 1312.88984305 0 19468
0.13450000 0.13450700 12547.15848449 0 253.33922078 0 4384.18666287 0 -38.02070258 0 1405.28839366 0 19953
0.13550000 0.13551000 12279.31894713 0 33.01545814 0 4048.47377437 0 548.59383439 0 1335.52167498 0 19956
0.13650000 0.13649900 12350.95688870 0 23.44066526 0 3976.89119441 0 468.00281097 0 475.82762292 0 19723
0.13750000 0.13749600 12157.08048113 0 183.99435767 0 3619.18866882 0 249.59677499 0 959.41251661 0 20946
0.13850000 0.13851100 11972.83699615 0 304.32727657 0 3616.63096179 0 84.72122203 0 326.41435012 0 20955
0.13950000 0.13949800 11620.62634367 0 429.37036244 0 3755.16788992 0 -328.96430652 0 1165.58363366 0 20506
0.14050000 0.14048300 11417.00629025 0 300.20726451 0 3694.51369456 0 -143.12197784 0 932.73817889 0 21447
0.14150000 0.14148400 11362.41972889 0 146.85888746 0 4419.11984767 0 -165.10054260 0 914.14331658 0 21771
0.14250000 0.14249400 11348.80076937 0 80.60752119 0 4574.78566229 0 17.25311798 0 843.79862255 0 22470
0.14350000 0.14350900 11189.35929198 0 91.55805043 0 4458.94700004 0 -211.69399267 0 935.96908327 0 22519
0.14450000 0.14449900 11186.03759453 0 235.20718166 0 4520.05516072 0 132.87897015 0 959.66385838 0 22218
0.14550000 0.14550500 11014.08439010 0 58.90432514 0 4587.23095539 0 455.87972253 0 494.26415097 0 23559
0.14650000 0.14650700 10785.78412466 0 262.81491636 0 4338.73476949 0 502.69019016 0 898.78710929 0 23044
0.14750000 0.14750500 10645.27632272 0 223.28450229 0 3764.35791952 0 432.54590520 0 585.85331464 0 23649
0.14850000 0.14849900 10309.86238698 0 172.37506001 0 3585.22984860 0 609.39639890 0 742.79576832 0 23640
0.14950000 0.14949500 10375.12266947 0 80.52746828 0 3453.28095374 0 90.06505816 0 1030.77143560 0 24457
0.15050000 0.15050000 10257.46814594 0 -20.06205606 0 3450.69002973 0 282.61001867 0 827.87108330 0 24591
0.15150000 0.15149900 10363.61852398 0 20.63394164 0 3474.20764765 0 -275.10962584 0 448.75246704 0 25020
0.15250000 0.15250500 10395.14143274 0 174.42786903 0 3524.14383258 0 -462.57294288 0 780.43170761 0 25297
0.15350000 0.15350100 10224.95980028 0 178.33529246 0 3757.85846485 0 -359.61028716 0 524.94334858 0 25452
0.15450000 0.15450400 10141.56304974 0 152.67407246 0 3763.12889146 0 -189.78075462 0 339.32689532 0 26061
0.15550000 0.15549900 10149.84514871 0 -68.71385132 0 3805.17050880 0 59.97357955 0 -170.86479490 0 26128
0.15650000 0.15649500 10025.28149450 0 134.40584374 0 3590.68850474 0 300.03453624 0 -469.39460220 0 26331
0.15750000 0.15749700 10017.11011878 0 116.06010875 0 3567.83522631 0 172.07721447 0 -145.82362509 0 27345
0.15850000 0.15849900 9925.03266559 0 60.57082075 0 3462.34918777 0 332.52295172 0 -385.69446997 0 26980
0.15950000 0.15949700 9840.92728627 0 167.84426469 0 3281.15059211 0 74.07684256 0 -302.61328069 0 27777
0.16050000 0.16050000 9520.59385694 0 344.00384533 0 3187.17977137 0 231.70389808 0 -237.69070411 0 28224
0.16150000 0.16150500 9302.23653919 0 290.49683564 0 3387.94316498 0 103.67715284 0 59.11835318 0 28075
0.16250000 0.16249700 9013.76926069 0 167.21757111 0 3075.22749513 0 144.98545011 0 287.75200632 0 28590
0.16350000 0.16349900 9093.64501193 0 101.91731753 0 3245.44234457 0 36.95277685 0 6.12809997 0 29163
0.16450000 0.16449100 8876.45028829 0 78.36437890 0 2844.29201639 0 233.74784925 0 200.79661059 0 28996
0.16550000 0.16550500 8850.15351684 0 117.79403482 0 2886.88724997 0 282.54469195 0 369.92747942 0 30777
0.16650000 0.16650700 8762.27247476 0 8.73618608 0 2578.35691889 0 452.83151150 0 347.22257015 0 29211
0.16750000 0.16749900 8846.92039800 0 7.07066483 0 2436.80831841 0 246.89844943 0 53.80751258 0 30922
0.16850000 0.16850800 8817.58980955 0 43.66980270 0 2695.03707783 0 114.87758446 0 81.87452732 0 30867
0.16950000 0.16949900 8681.58844380 0 213.52867690 0 2554.35211869 0 -114.40147449 0 484.93682455 0 30852
0.17050000 0.17049200 8562.38379481 0 243.68083184 0 2712.44277245 0 -172.33187794 0 739.80181169 0 31257
0.17150000 0.17149500 8473.10763979 0 126.06506146 0 2967.30554512 0 -158.52358166 0 775.38715642 0 32608
0.17250000 0.17250900 8418.18890869 0 114.32950438 0 3148.76987658 0 108.60212292 0 669.15927211 0 32361
0.17350000 0.17350400 8289.11881828 0 114.86429767 0 3152.10264635 0 55.13043395 0 895.03691288 0 32508
0.17450000 0.17449800 8173.80055530 0 75.74566336 0 2962.11262478 0 288.54589201 0 572.32293371 0 32791
0.17550000 0.17549800 8261.01725789 0 -28.11916539 0 3092.19029675 0 99.69266603 0 541.37689308 0 33633
0.17650000 0.17650100 8069.72070200 0 58.70967367 0 2857.85561429 0 149.79194631 0 497.63013772 0 33984
0.17750000 0.17750300 8208.21334083 0 126.68178995 0 2843.86019572 0 313.15081222 0 692.08894958 0 34069
0.17850000 0.17849800 8078.72250208 0 -55.84249516 0 2521.81055605 0 157.25469324 0 681.80386706 0 34536
