### header ###
fiducial parameters:
Omega_m = 0.31
Omega_nu = 0
Omega_de = 0.69
Omega_k = 0
H_0 = 100
w_de = -1
zeff = 0
beta = 0
fgrowth = 0
b_1 = 2
gamma = 0.55
Lx = 3500 Ly = 3500 Lz = 3500
nx = 700 ny = 700 nz = 700
xoffset = -685.467585 yoffset = -31.7331281 zoffset = 572.489161
bins = 400 dk = 0.001
kx_ny = 0.628318531 ky_ny = 0.628318531 kz_ny = 0.628318531
############################
A(data) = 8.02989836 (not used)
A(ran) = 8.02701777 (used)
Ngal = 477171
weighted Ngal = 0
Nran = 23820508
weighted Nran = 0
SN(data) = 3490.8365
SN(ran) = 69.9182359
SN(data+ran) = 3560.75474
############################
13 columns: k_central k_mean P_0(k) sigma^{lin}_{P_0(k)} P^img_1(k) sigma^{lin}_{P_1(k)} P_2(k) sigma^{lin}_{P_2(k)} P^img_3(k) sigma^{lin}_{P_3(k)} P_4(k) sigma^{lin}_{P_4(k)} N_modes
### header ###
0.00050000 0 0 0 0 0 0 0 0 0 0 0 0
0.00150000 0.00179520 43879.29108655 0 -57438.57078271 0 -66072.88039954 0 84211.89508719 0 -20951.60663808 0 3
0.00250000 0.00253879 78577.63187998 0 -54455.79719982 0 -1652.61091313 0 -88215.31557187 0 39542.92579458 0 6
0.00350000 0.00331552 93505.34020048 0 -15314.24317992 0 -7736.70946076 0 -103798.17335189 0 -53191.44842878 0 7
0.00450000 0.00420575 93338.25881896 0 24200.22673987 0 1372.32608267 0 -37899.90351474 0 58699.37640981 0 24
0.00550000 0.00557378 54614.90650746 0 16647.35108808 0 -3845.03087815 0 -4559.42834777 0 43005.68465836 0 45
0.00650000 0.00659388 49087.15906500 0 -8051.87211439 0 1884.07786347 0 51474.90591214 0 29386.83585467 0 40
0.00750000 0.00754703 67919.19056305 0 -21251.88808717 0 991.49236330 0 39513.58413381 0 -18892.81856130 0 57
0.00850000 0.00846663 81229.45367404 0 -21880.13179738 0 -9916.60662640 0 21306.36392527 0 29861.83858939 0 75
0.00950000 0.00948925 98034.91756054 0 -14173.57227710 0 -14206.67852831 0 -3446.74828210 0 10688.21479836 0 112
0.01050000 0.01054430 94120.96146039 0 1829.79025488 0 -2795.15303884 0 -16024.53281703 0 29927.05458257 0 105
0.01150000 0.01145670 105591.00418652 0 6903.33986096 0 9102.48072714 0 -25320.63528827 0 14755.64439282 0 144
0.01250000 0.01249090 96215.29169984 0 5652.14501180 0 23011.16977760 0 -28188.36741630 0 5140.09427824 0 169
0.01350000 0.01339930 94267.66976424 0 13963.97316828 0 31790.85901930 0 -21264.84270720 0 -4084.86850604 0 180
0.01450000 0.01448870 81801.00708118 0 11631.03432900 0 46765.07110403 0 -7841.34293029 0 -1094.76725858 0 267
0.01550000 0.01550050 76579.96303620 0 3705.72995960 0 47177.07231054 0 -2483.99856679 0 -8183.28953767 0 238
0.01650000 0.01653350 71170.24657630 0 4732.80988211 0 39558.42704932 0 18394.89611421 0 -13951.12927149 0 315
0.01750000 0.01747870 72153.80118994 0 -4470.08575881 0 40809.93192357 0 21466.13757241 0 -15726.13366317 0 297
0.01850000 0.01844180 68826.67830519 0 -3375.77468001 0 21301.49210235 0 11120.04653861 0 -16828.38359887 0 388
0.01950000 0.01947590 75825.27337656 0 -329.36180299 0 15775.95912486 0 13796.22744728 0 -17582.85181201 0 399
0.02050000 0.02045430 72277.36833492 0 -15.34458135 0 10843.62594952 0 -1695.25043601 0 -3519.62632405 0 462
0.02150000 0.02154770 71205.67801572 0 2060.13890041 0 7396.18011096 0 286.20963147 0 -1885.16295130 0 571
0.02250000 0.02255340 69168.70241884 0 2458.24433926 0 13924.66641518 0 -8475.66534683 0 -10541.46220522 0 510
0.02350000 0.02348930 67974.66291039 0 6468.58502695 0 16438.19487226 0 -1105.45980266 0 10388.49803785 0 555
0.02450000 0.02439640 63997.04094254 0 5723.72759175 0 21425.72358682 0 -4957.52271430 0 2676.91168210 0 592
0.02550000 0.02547300 64163.67943106 0 -1833.85379809 0 24076.21670191 0 2540.51171266 0 947.38022123 0 837
0.02650000 0.02652900 67303.45857989 0 -1878.97352172 0 21669.42545608 0 12414.51203316 0 -1833.75414716 0 723
0.02750000 0.02749970 67847.33117498 0 2471.06609140 0 24252.26666652 0 -2660.64643695 0 -4170.04790087 0 826
0.02850000 0.02848090 64325.11392692 0 4774.76292084 0 24048.64661311 0 -449.71908100 0 6502.55491949 0 831
0.02950000 0.02946900 62739.33556639 0 4086.86152451 0 28100.89605024 0 1333.51758418 0 12528.77842529 0 996
0.03050000 0.03053250 56610.47160953 0 2339.00647329 0 26869.98570015 0 7491.32459812 0 11554.30311800 0 1041
0.03150000 0.03150510 57301.60612471 0 -218.32631524 0 28890.68497955 0 12012.47591900 0 6667.90901834 0 1036
0.03250000 0.03246190 57981.88976156 0 1080.62347086 0 29655.11828503 0 6002.45122441 0 4472.54381492 0 1059
0.03350000 0.03345080 56569.72545419 0 2220.92012910 0 26013.31992893 0 748.43047442 0 9256.14245097 0 1302
0.03450000 0.03451200 52782.54747322 0 5486.00477789 0 27696.64547111 0 -5710.41865732 0 8551.95366483 0 1339
0.03550000 0.03553350 50001.17947878 0 2495.54700158 0 27024.99824761 0 -2372.77706399 0 8712.43594075 0 1365
0.03650000 0.03647120 49544.33535676 0 -2386.16350469 0 28330.64679022 0 4010.45141094 0 1861.10278947 0 1308
0.03750000 0.03744890 52154.52520951 0 -2471.09930838 0 23446.53358947 0 4235.52962985 0 -2752.53566062 0 1579
0.03850000 0.03847530 53713.39782073 0 -1982.24509531 0 21021.47300769 0 5859.10890731 0 -5337.45846813 0 1662
0.03950000 0.03950240 54320.71483703 0 -1124.33922371 0 18587.77601255 0 539.73597454 0 -5607.11386676 0 1683
0.04050000 0.04050350 54390.69192988 0 2678.29572271 0 17371.92402422 0 3486.92974886 0 -2773.55093312 0 1822
0.04150000 0.04152450 49864.32554402 0 3535.53725482 0 17120.47152758 0 2582.53118535 0 -1474.46827912 0 1887
0.04250000 0.04250150 49278.93173086 0 1671.72174577 0 17527.15801817 0 3691.96705985 0 -1627.16671070 0 1920
0.04350000 0.04349210 47143.52316634 0 1096.37385291 0 19530.14157787 0 -179.31851490 0 -3533.23421125 0 2005
0.04450000 0.04448520 42924.52451744 0 4716.10174395 0 17154.35284153 0 699.65245466 0 651.66832060 0 2151
0.04550000 0.04548030 41121.83931372 0 4045.97142896 0 15157.90195348 0 324.29178545 0 3444.19057506 0 2274
0.04650000 0.04648670 38369.70225679 0 49.62173091 0 13686.83287807 0 1775.85696069 0 -926.35719809 0 2311
0.04750000 0.04749250 38472.67487761 0 -781.71831175 0 12102.71536627 0 4902.51540460 0 -1927.51459373 0 2568
0.04850000 0.04851840 38916.89654933 0 52.48304109 0 7973.25860818 0 2512.91947922 0 -4878.80955716 0 2493
0.04950000 0.04949480 38576.42256116 0 437.45869572 0 7656.00328515 0 56.17543997 0 -3826.10827503 0 2644
0.05050000 0.05050630 38482.86141644 0 1311.81582754 0 8493.81288720 0 -2575.34524654 0 -5246.39966882 0 2829
0.05150000 0.05149060 34928.53442641 0 387.01207662 0 9613.92248283 0 -2374.34933411 0 -4569.60381428 0 2784
0.05250000 0.05249300 37112.66122013 0 1411.46675091 0 12709.92165932 0 -2088.30689475 0 -4558.83044223 0 3055
0.05350000 0.05348950 35657.31484597 0 222.07540442 0 12281.86558184 0 -2263.65930290 0 -3236.19695334 0 3009
0.05450000 0.05448610 36628.80062556 0 1061.62668317 0 16959.25847822 0 -324.08030405 0 -4457.60724874 0 3336
0.05550000 0.05550870 34830.98724475 0 1748.18722097 0 14577.93357948 0 -692.04687474 0 92.19858443 0 3349
0.05650000 0.05647670 34615.63052703 0 -51.44456774 0 14539.51261236 0 4464.48316245 0 -1182.48000133 0 3324
0.05750000 0.05747970 34341.92265751 0 -281.92685623 0 13843.17410451 0 2184.04928745 0 -2904.53653573 0 3639
0.05850000 0.05849280 33682.67643781 0 1261.33709869 0 13708.64535797 0 863.96132604 0 -5878.61834364 0 3846
0.05950000 0.05951020 32233.19839580 0 1418.85199156 0 12672.94009443 0 -681.60567244 0 -3167.36030995 0 3787
0.06050000 0.06049470 31137.03823876 0 1353.28168398 0 12124.30639967 0 -1157.61155979 0 -2033.25529575 0 3930
0.06150000 0.06148310 31418.49673565 0 148.61606541 0 11969.51529870 0 -771.31364812 0 -2646.94997115 0 4083
0.06250000 0.06249100 31263.48418819 0 -102.98358241 0 12073.59515200 0 1367.48747673 0 -4170.52401084 0 4303
0.06350000 0.06350600 30599.36614556 0 -219.22870971 0 11484.32602515 0 1764.68498495 0 -2869.48155535 0 4470
0.06450000 0.06451750 31060.41775101 0 -549.62466784 0 11379.24966262 0 3171.76709522 0 -2066.68264437 0 4479
0.06550000 0.06550280 31157.07914668 0 -355.79919295 0 11493.95894774 0 3854.05482287 0 -2777.78056120 0 4636
0.06650000 0.06648880 31166.37989953 0 902.85729590 0 9845.75481989 0 1873.61451651 0 -930.31776868 0 4653
0.06750000 0.06749660 30151.93349964 0 1187.94972979 0 9999.54941162 0 -74.97657968 0 2077.47816107 0 5220
0.06850000 0.06852730 29828.84306143 0 1056.84454608 0 9401.84317326 0 64.91239004 0 1357.71061391 0 5029
0.06950000 0.06949320 29286.63131506 0 56.87177848 0 10605.61525522 0 -719.75204591 0 1892.49283033 0 5040
0.07050000 0.07048030 29350.85079901 0 -362.78029375 0 10098.71315269 0 -1509.70041670 0 -323.66730633 0 5475
0.07150000 0.07148790 29353.28671047 0 121.92290474 0 10193.73584429 0 633.45766797 0 -2042.56712092 0 5509
0.07250000 0.07249820 29003.73341595 0 1105.46090989 0 10285.68042958 0 -197.97648945 0 -163.10309521 0 5916
0.07350000 0.07351270 28690.94023982 0 283.27214370 0 10062.65059076 0 483.96024550 0 -1359.47111356 0 5721
0.07450000 0.07449140 27289.40536428 0 515.82639633 0 8077.32738915 0 1246.81020853 0 -2635.26866846 0 6028
0.07550000 0.07549160 27418.61939491 0 1242.61379742 0 8997.18291811 0 199.95400667 0 -3314.35649424 0 6183
0.07650000 0.07648840 26483.34011748 0 707.75407473 0 6507.14993429 0 -324.10355593 0 -2712.70850824 0 6330
0.07750000 0.07749960 26066.90998105 0 454.43256967 0 7861.84887586 0 466.24120409 0 -1348.73095848 0 6583
0.07850000 0.07848650 25632.32123192 0 -125.73178448 0 6921.34346111 0 298.38143814 0 -2050.52812246 0 6549
0.07950000 0.07947320 25480.29821216 0 482.76443442 0 7320.89937452 0 1251.26128311 0 -1496.01502322 0 6828
0.08050000 0.08048110 25048.80971398 0 622.34880448 0 7818.35678397 0 298.78225630 0 -593.61058541 0 7147
0.08150000 0.08149960 24952.48048805 0 -132.08729892 0 7620.20645901 0 933.38369542 0 -790.86294482 0 7386
0.08250000 0.08250610 24542.91519301 0 282.20366435 0 8642.28169070 0 226.97269369 0 640.92373659 0 7227
0.08350000 0.08350160 24624.96111992 0 823.83189920 0 9984.32496499 0 -1159.80388010 0 -33.85850496 0 7798
0.08450000 0.08449610 24034.25259084 0 1019.40901587 0 10440.10614383 0 -545.03851090 0 977.77928901 0 7371
0.08550000 0.08548940 22970.53434552 0 1264.38198802 0 10654.70994346 0 269.45277509 0 3147.30832970 0 8256
0.08650000 0.08650700 22529.30220149 0 172.32634178 0 10239.22095464 0 907.60953771 0 1373.07900076 0 8037
0.08750000 0.08749060 22025.51142224 0 -185.36178979 0 9959.68904227 0 2303.27608110 0 -142.19300979 0 8155
0.08850000 0.08849210 21584.72217121 0 458.20601797 0 7573.78020105 0 204.38404383 0 -2160.14413817 0 8718
0.08950000 0.08949900 21536.55755825 0 183.78176904 0 6862.27260820 0 538.39954493 0 -1817.47782968 0 8571
0.09050000 0.09049190 20749.86887989 0 306.04237968 0 5341.15662462 0 933.64278782 0 -1994.77896700 0 8932
0.09150000 0.09150830 20389.02181405 0 442.93396035 0 4824.89840762 0 1207.10485173 0 -2668.30848572 0 9285
0.09250000 0.09250820 20104.46306621 0 272.05809312 0 3945.50115355 0 679.76655929 0 -3599.98925759 0 9204
0.09350000 0.09350330 19560.81191761 0 708.71958146 0 3434.03725320 0 198.54007079 0 -2411.60770713 0 9349
0.09450000 0.09448040 18851.96168272 0 724.57625783 0 4534.53776158 0 -245.44354595 0 -1607.32510462 0 9564
0.09550000 0.09549270 18582.79346638 0 753.68761424 0 5112.84528686 0 -244.28205908 0 -699.80414551 0 10155
0.09650000 0.09649430 18466.97694878 0 387.40846585 0 5562.13808335 0 -687.01450311 0 187.29280324 0 9913
0.09750000 0.09749140 17811.82748926 0 370.30615293 0 6336.09358817 0 -89.61474671 0 197.74618510 0 10476
0.09850000 0.09850240 18115.76280553 0 -179.97510376 0 6690.04259565 0 -121.75460540 0 139.88775176 0 10575
0.09950000 0.09950330 17916.01806580 0 -42.90703024 0 6337.79872619 0 384.03362124 0 -1051.40803459 0 10882
0.10050000 0.10051200 17974.25849435 0 441.16792454 0 6177.92542814 0 -218.50679413 0 -1032.56847392 0 10875
0.10150000 0.10150300 17700.32917834 0 150.05657487 0 5457.47139684 0 398.07997251 0 -882.87285683 0 11118
0.10250000 0.10250800 17483.42233514 0 1.93351579 0 4889.35041039 0 781.81574821 0 -883.15409388 0 11575
0.10350000 0.10349800 17188.34487872 0 80.77969584 0 3935.23710844 0 875.81646422 0 -1713.68585683 0 11364
0.10450000 0.10450100 16922.49835983 0 469.67694648 0 4727.88269756 0 -378.67683050 0 -1754.39879519 0 12093
0.10550000 0.10551000 16493.22432661 0 544.69748329 0 4384.62955586 0 -135.24844766 0 -1426.93478868 0 12067
0.10650000 0.10649700 16251.62619906 0 620.41336210 0 5356.82396424 0 -657.55436847 0 -1485.68454417 0 12054
0.10750000 0.10749900 15735.32369277 0 502.24508270 0 5708.01596283 0 -313.12645310 0 -450.75323613 0 12807
0.10850000 0.10850100 15562.81687210 0 309.09280517 0 6247.14960290 0 31.08499831 0 305.45001031 0 12736
0.10950000 0.10950300 15554.84479823 0 388.51569833 0 6471.77385650 0 143.23159385 0 736.80342613 0 12933
0.11050000 0.11050200 15425.63076759 0 -58.61677687 0 6229.01313485 0 982.57803459 0 899.51898996 0 13428
0.11150000 0.11150900 15086.48545840 0 -62.88039698 0 6034.83777451 0 1143.52756262 0 658.76235911 0 13453
0.11250000 0.11250000 15384.55244252 0 139.55115308 0 5565.70337194 0 907.26408117 0 593.32713389 0 13668
0.11350000 0.11349100 15208.94537089 0 -326.52507337 0 4718.43800449 0 991.16794419 0 -42.11358745 0 13791
0.11450000 0.11448600 15006.21110346 0 361.60994902 0 4353.20629802 0 786.29782530 0 598.41486715 0 14205
0.11550000 0.11549300 14789.08281377 0 151.91451098 0 3582.73857552 0 512.35854419 0 120.68612606 0 14776
0.11650000 0.11649800 14848.76264454 0 -133.14802764 0 3434.71266502 0 564.86461572 0 493.40826027 0 14553
0.11750000 0.11747300 14488.80136469 0 290.99619749 0 3061.63068025 0 363.37377036 0 1043.94639490 0 14568
0.11850000 0.11849100 14570.29367535 0 256.76831978 0 3157.72738735 0 33.41981945 0 139.76042002 0 16015
0.11950000 0.11950300 14203.24610761 0 198.17025514 0 2757.61785771 0 -143.67891578 0 450.99682728 0 15270
0.12050000 0.12050700 14218.52591586 0 346.49068948 0 3846.62529292 0 -1018.51880095 0 409.13458161 0 15999
0.12150000 0.12150000 13928.98462186 0 356.52553746 0 3851.86250256 0 -472.85913264 0 916.62794627 0 15670
0.12250000 0.12250700 13807.74266509 0 224.05402887 0 4446.34669440 0 -268.60574224 0 665.36478640 0 16887
0.12350000 0.12352200 13622.83484062 0 136.48633357 0 4157.48081220 0 32.86133138 0 -110.82400634 0 16407
0.12450000 0.12449800 13510.56146696 0 238.39379674 0 4209.31036468 0 73.87643349 0 -343.64288754 0 16306
0.12550000 0.12549900 13300.18729541 0 213.27844235 0 4287.02701258 0 -49.06457152 0 104.34503547 0 17523
0.12650000 0.12650100 13368.83570928 0 24.88449641 0 4470.41792855 0 -399.54705555 0 -46.81190704 0 17154
0.12750000 0.12750600 13420.87563593 0 -70.93429533 0 4772.45987728 0 47.51234231 0 -210.04643074 0 18007
0.12850000 0.12850300 13340.37983450 0 133.34179333 0 4606.82897032 0 258.96174732 0 -253.90501658 0 17496
0.12950000 0.12949900 13419.10406396 0 180.93285986 0 4744.85657151 0 225.38602954 0 -90.17179537 0 18405
0.13050000 0.13049000 12949.30532190 0 311.34713051 0 4371.58635722 0 465.53146807 0 16.09284906 0 18100
0.13150000 0.13148800 12679.58348932 0 497.07319978 0 4436.13801092 0 591.41494340 0 308.34874494 0 19059
0.13250000 0.13249300 12447.83973087 0 347.73854049 0 3903.62562109 0 336.41930282 0 115.89180941 0 18957
0.13350000 0.13349100 11967.74372673 0 249.18488451 0 4045.61711456 0 196.57694760 0 100.03790112 0 19468
0.13450000 0.13450700 11778.29624908 0 170.64224118 0 3590.74386636 0 -153.92967409 0 -35.85827754 0 19953
0.13550000 0.13551000 11640.66725159 0 215.51283750 0 3882.22281721 0 104.27682995 0 45.02837696 0 19956
0.13650000 0.13649900 11700.34708236 0 133.13141915 0 3814.33839375 0 -268.53709383 0 -84.57551023 0 19723
0.13750000 0.13749600 11620.29417392 0 48.53088547 0 4124.97246654 0 -24.48279247 0 -297.23766699 0 20946
0.13850000 0.13851100 11519.53601807 0 196.63341645 0 4195.73569445 0 -190.18600171 0 -219.40475968 0 20955
0.13950000 0.13949800 11367.07010532 0 44.15488125 0 4354.23602423 0 390.83424315 0 -411.19181956 0 20506
0.14050000 0.14048300 11288.23515261 0 16.86647240 0 3758.85497408 0 504.82493439 0 149.76758719 0 21447
0.14150000 0.14148400 11395.19381036 0 -100.41723897 0 3847.82110400 0 418.93358907 0 -190.38087463 0 21771
0.14250000 0.14249400 11509.34947924 0 28.29421884 0 3404.18626549 0 372.56712166 0 173.76020784 0 22470
0.14350000 0.14350900 11273.17679086 0 135.38353002 0 3159.37716375 0 430.52077699 0 -31.40698152 0 22519
0.14450000 0.14449900 11066.04681047 0 266.57175617 0 3131.44168824 0 -136.18073741 0 227.63924764 0 22218
0.14550000 0.14550500 11138.20515132 0 260.03133390 0 3068.92734231 0 -62.43108204 0 235.20053826 0 23559
0.14650000 0.14650700 10749.66620111 0 277.85224070 0 3193.28062235 0 -2.85165511 0 371.41892158 0 23044
0.14750000 0.14750500 10694.79175930 0 71.02940660 0 3129.89156276 0 120.36170694 0 419.92899107 0 23649
0.14850000 0.14849900 10759.42091927 0 -177.09408485 0 3041.23545794 0 349.27095024 0 241.85500548 0 23640
0.14950000 0.14949500 10866.00311798 0 -206.49000001 0 2980.38196073 0 436.72681505 0 -465.25244548 0 24457
0.15050000 0.15050000 10780.59120432 0 100.04609464 0 2824.26218079 0 -34.40769227 0 -507.55315522 0 24591
0.15150000 0.15149900 10726.51396991 0 503.38221046 0 2901.14840433 0 -339.57048647 0 -450.60265252 0 25020
0.15250000 0.15250500 10357.04156304 0 429.03487100 0 2728.67480063 0 -474.27528298 0 -301.10633728 0 25297
0.15350000 0.15350100 9983.53882993 0 338.84524919 0 3034.42597817 0 293.98018903 0 -259.25959286 0 25452
0.15450000 0.15450400 9731.78738053 0 130.05995625 0 2768.61267625 0 215.63906201 0 -700.67775194 0 26061
0.15550000 0.15549900 9614.68647325 0 59.37678124 0 2654.36842877 0 393.73076332 0 -441.17678240 0 26128
0.15650000 0.15649500 9586.41882798 0 177.07858359 0 2779.08709553 0 324.79004007 0 -520.53324161 0 26331
0.15750000 0.15749700 9397.39209868 0 42.04261385 0 2389.25268332 0 -26.28138091 0 -377.49652067 0 27345
0.15850000 0.15849900 9343.43665984 0 181.92161847 0 2420.18875886 0 272.76893637 0 -326.70444503 0 26980
0.15950000 0.15949700 9330.64812467 0 78.71725390 0 2671.98449756 0 -265.21539638 0 -133.07384307 0 27777
0.16050000 0.16050000 9129.95116501 0 106.33462152 0 2471.33182720 0 72.86065841 0 -257.20678384 0 28224
0.16150000 0.16150500 9217.45574805 0 201.01362815 0 2835.42308421 0 -54.58656136 0 -201.44544882 0 28075
0.16250000 0.16249700 8993.46261697 0 65.54163025 0 2539.00587649 0 37.90809704 0 -196.86704251 0 28590
0.16350000 0.16349900 9021.55310504 0 139.66851973 0 2862.77172651 0 37.29003986 0 -389.94292100 0 29163
0.16450000 0.16449100 8927.82587545 0 157.36541649 0 2546.39111714 0 -114.37932984 0 -195.21837334 0 28996
0.16550000 0.16550500 8651.98104724 0 228.22165193 0 2621.72721521 0 96.14697546 0 -79.67412421 0 30777
0.16650000 0.16650700 8566.70200149 0 127.38931150 0 2529.87120851 0 255.30677290 0 76.52925179 0 29211
0.16750000 0.16749900 8426.61494788 0 67.16582958 0 2359.62314210 0 614.12428160 0 -282.24241749 0 30922
0.16850000 0.16850800 8376.20265298 0 22.95757973 0 2185.22295388 0 271.62405799 0 -108.83763127 0 30867
0.16950000 0.16949900 8245.37206292 0 24.88117472 0 2066.27296836 0 279.26285488 0 -431.03785456 0 30852
0.17050000 0.17049200 8270.36230004 0 131.82377759 0 1822.54895445 0 -67.59277843 0 -193.42576395 0 31257
0.17150000 0.17149500 8172.52723794 0 123.22501014 0 1950.40108913 0 -177.93779600 0 -240.11222155 0 32608
0.17250000 0.17250900 8076.97307476 0 95.06089111 0 1950.20178728 0 -177.27677821 0 -125.83697156 0 32361
0.17350000 0.17350400 8085.89736856 0 69.08687794 0 2063.30558531 0 54.12030576 0 -91.10297788 0 32508
0.17450000 0.17449800 8066.69795733 0 81.79115271 0 2216.63513939 0 -12.22318226 0 -26.73999661 0 32791
0.17550000 0.17549800 7973.43576538 0 26.47149273 0 2032.91205368 0 418.12641659 0 -8.85953178 0 33633
0.17650000 0.17650100 8023.41623961 0 -48.12519548 0 1983.02015805 0 129.63588621 0 -283.51019868 0 33984
0.17750000 0.17750300 7961.75446269 0 52.24775418 0 1839.22387563 0 217.58889841 0 -43.29998705 0 34069
