### header ###
fiducial parameters:
Omega_m = 0.31
Omega_nu = 0
Omega_de = 0.69
Omega_k = 0
H_0 = 100
w_de = -1
zeff = 0
beta = 0
fgrowth = 0
b_1 = 2
gamma = 0.55
Lx = 3500 Ly = 3500 Lz = 3500
nx = 700 ny = 700 nz = 700
xoffset = -685.467585 yoffset = -31.7331281 zoffset = 572.489161
bins = 400 dk = 0.001
kx_ny = 0.628318531 ky_ny = 0.628318531 kz_ny = 0.628318531
############################
A(data) = 7.96643008 (not used)
A(ran) = 7.95553633 (used)
Ngal = 473127
weighted Ngal = 0
Nran = 23820508
weighted Nran = 0
SN(data) = 3495.54531
SN(ran) = 69.2956067
SN(data+ran) = 3564.84092
############################
13 columns: k_central k_mean P_0(k) sigma^{lin}_{P_0(k)} P^img_1(k) sigma^{lin}_{P_1(k)} P_2(k) sigma^{lin}_{P_2(k)} P^img_3(k) sigma^{lin}_{P_3(k)} P_4(k) sigma^{lin}_{P_4(k)} N_modes
### header ###
0.00050000 0 0 0 0 0 0 0 0 0 0 0 0
0.00150000 0.00179520 41078.21435393 0 -70995.41456742 0 -44454.71980738 0 -33048.34294895 0 57936.38250656 0 3
0.00250000 0.00253879 72704.42790317 0 -74346.67512028 0 -29916.20370425 0 -77992.34879006 0 -54946.96552877 0 6
0.00350000 0.00331552 103472.09338598 0 -36863.31246522 0 -7393.04664303 0 -24116.07707125 0 4425.43107282 0 7
0.00450000 0.00420575 133501.23480338 0 293.89714659 0 4330.41945355 0 -45507.80862088 0 70227.32739475 0 24
0.00550000 0.00557378 97297.16855787 0 28322.45326986 0 4685.65285070 0 -219.89526367 0 51078.07379064 0 45
0.00650000 0.00659388 99972.35295730 0 23952.42811043 0 40619.70938319 0 26344.49316425 0 64496.73496161 0 40
0.00750000 0.00754703 79624.29874508 0 -6430.82839932 0 23079.48602173 0 71425.57438662 0 -23481.07924290 0 57
0.00850000 0.00846663 84139.70352938 0 -8392.21323467 0 17973.04053862 0 46330.03946191 0 -7010.95178587 0 75
0.00950000 0.00948925 69697.95954517 0 2165.69137290 0 -13373.70753220 0 10361.35976972 0 8590.33034265 0 112
0.01050000 0.01054430 77598.06330327 0 -7116.80321113 0 -3259.29382292 0 9224.15450457 0 30286.79441593 0 105
0.01150000 0.01145670 73065.05352252 0 -2903.49573719 0 -12891.28633985 0 -25122.55139727 0 4214.21540458 0 144
0.01250000 0.01249090 87672.88237901 0 2301.86989585 0 -6433.76256540 0 -40939.47812395 0 -601.58155205 0 169
0.01350000 0.01339930 79146.86009890 0 11360.20526393 0 20845.53376632 0 -54800.25722493 0 -1874.48923017 0 180
0.01450000 0.01448870 71313.96535245 0 16220.95585932 0 16586.01040859 0 -29819.32086209 0 -808.83554247 0 267
0.01550000 0.01550050 66322.33987771 0 8517.12013095 0 45180.17852949 0 -8182.81342770 0 -3466.08056123 0 238
0.01650000 0.01653350 63440.10300416 0 3364.77986146 0 49494.95278807 0 6684.83860298 0 -8282.34255549 0 315
0.01750000 0.01747870 64035.46190966 0 -2216.15902943 0 55139.84542711 0 20305.42576167 0 -4680.42671339 0 297
0.01850000 0.01844180 65939.90177847 0 -7572.77261949 0 44705.95085751 0 23317.09811234 0 -12635.84780629 0 388
0.01950000 0.01947590 71658.64682405 0 -1012.87191530 0 47851.93050823 0 14786.75762556 0 -2778.20130955 0 399
0.02050000 0.02045430 70081.28343039 0 3618.96722232 0 43901.32501294 0 8246.92218840 0 5910.59521772 0 462
0.02150000 0.02154770 67239.68198893 0 3256.14928267 0 36470.68782715 0 10940.19876659 0 12048.35025141 0 571
0.02250000 0.02255340 66012.86839902 0 1644.48382671 0 26944.94533917 0 3927.15431133 0 8020.82531560 0 510
0.02350000 0.02348930 67012.14571391 0 5445.41363511 0 32398.84037509 0 -1011.81672274 0 -4216.38558024 0 555
0.02450000 0.02439640 59527.58630625 0 3076.54510178 0 35410.84489551 0 -5217.44553942 0 5112.69027431 0 592
0.02550000 0.02547300 56935.11217321 0 2995.44032249 0 29320.51262901 0 1850.42906834 0 3275.86909317 0 837
0.02650000 0.02652900 55580.52395490 0 -1854.84692594 0 26136.88707390 0 10690.11923823 0 586.77563930 0 723
0.02750000 0.02749970 59207.92828873 0 -3603.70955872 0 22230.23870814 0 19103.19273286 0 -2878.38370450 0 826
0.02850000 0.02848090 59616.05418155 0 -1444.15225377 0 15564.14555107 0 16091.96327518 0 2224.60721326 0 831
0.02950000 0.02946900 59310.12584681 0 2356.52289115 0 8694.45448524 0 9016.23838912 0 5371.24013115 0 996
0.03050000 0.03053250 57811.15451286 0 3344.86074911 0 8079.76330061 0 801.19563834 0 12406.98285229 0 1041
0.03150000 0.03150510 57113.37660279 0 172.92756902 0 10184.42401911 0 -1951.71869578 0 17993.30289304 0 1036
0.03250000 0.03246190 55980.89922034 0 -914.58731681 0 9951.86090862 0 5922.54225619 0 16976.19913520 0 1059
0.03350000 0.03345080 55393.95528170 0 104.80553346 0 9944.95177794 0 1418.13229045 0 23714.04095709 0 1302
0.03450000 0.03451200 58824.93657326 0 -1701.36235931 0 12385.05964915 0 6505.96519554 0 14424.02826450 0 1339
0.03550000 0.03553350 55042.18752221 0 1118.68126573 0 11313.48005320 0 3641.07865499 0 19538.66726798 0 1365
0.03650000 0.03647120 55144.49580354 0 4662.42311323 0 10412.44747643 0 -2067.80094918 0 5530.30514949 0 1308
0.03750000 0.03744890 50123.52866803 0 6161.43873648 0 15822.57361234 0 -4720.29815506 0 11797.00847803 0 1579
0.03850000 0.03847530 45765.57234266 0 5227.16704061 0 17961.63604406 0 -6066.60427441 0 15313.57884043 0 1662
0.03950000 0.03950240 42372.45840198 0 2301.05054381 0 18434.42431381 0 -119.57667911 0 14283.07756956 0 1683
0.04050000 0.04050350 41929.34396274 0 -487.44581335 0 18660.52118661 0 1606.08500424 0 10801.92757425 0 1822
0.04150000 0.04152450 41045.44027247 0 -544.20033591 0 18156.95185386 0 3003.68920448 0 7105.07761915 0 1887
0.04250000 0.04250150 42417.52276399 0 1225.85029765 0 18529.97847700 0 148.08237936 0 828.70482935 0 1920
0.04350000 0.04349210 40884.89156260 0 931.81253253 0 19507.33258874 0 -3105.06741052 0 -982.31894219 0 2005
0.04450000 0.04448520 41077.88218419 0 741.42722897 0 19059.56777307 0 408.96074611 0 819.83036101 0 2151
0.04550000 0.04548030 40503.11780285 0 -504.01444021 0 19395.72355457 0 57.38730592 0 718.38350656 0 2274
0.04650000 0.04648670 42016.37243581 0 309.98744902 0 18761.94368195 0 2837.85899567 0 -4671.43598564 0 2311
0.04750000 0.04749250 40519.61556683 0 1496.32504832 0 16119.97625697 0 1984.17167983 0 -4664.82580772 0 2568
0.04850000 0.04851840 39083.64576110 0 2768.50195300 0 16340.09407437 0 3652.37242630 0 902.86947545 0 2493
0.04950000 0.04949480 37639.70388150 0 -670.22664422 0 11172.08646526 0 6442.70900385 0 2328.84207911 0 2644
0.05050000 0.05050630 37676.35327665 0 -1898.11757134 0 9587.11638445 0 4955.29717701 0 392.00680234 0 2829
0.05150000 0.05149060 38353.97955555 0 436.37582236 0 6988.19815837 0 3323.30293269 0 -4055.96973827 0 2784
0.05250000 0.05249300 38741.17875446 0 209.00563221 0 7084.16199757 0 -1497.75337822 0 119.63757690 0 3055
0.05350000 0.05348950 36237.72611296 0 1447.42966192 0 5344.93228738 0 -1359.82542795 0 4689.22921162 0 3009
0.05450000 0.05448610 37305.76256497 0 364.40460380 0 8788.35887203 0 -1069.30976936 0 611.90870941 0 3336
0.05550000 0.05550870 36415.76909605 0 681.48498410 0 9771.90241335 0 -277.81902372 0 923.71423416 0 3349
0.05650000 0.05647670 36653.27046341 0 1139.50830871 0 12946.42651745 0 -3060.84454519 0 -1728.65563999 0 3324
0.05750000 0.05747970 35540.94471212 0 1104.61719874 0 11787.81844843 0 -903.15957036 0 2441.12652509 0 3639
0.05850000 0.05849280 34624.82055663 0 929.85937443 0 13824.12970582 0 -139.57772666 0 3029.87525267 0 3846
0.05950000 0.05951020 34660.36271930 0 -442.62504249 0 12075.58817046 0 1033.25274359 0 774.71506631 0 3787
0.06050000 0.06049470 34062.78934884 0 -98.13689367 0 12619.12859581 0 2624.43993479 0 -3283.99617959 0 3930
0.06150000 0.06148310 34295.30817003 0 1087.10410258 0 10493.87335315 0 -707.15727642 0 -3127.62173617 0 4083
0.06250000 0.06249100 33126.95645516 0 1202.56519855 0 10521.03376593 0 65.96846838 0 -3287.16286448 0 4303
0.06350000 0.06350600 32637.33825168 0 440.05404866 0 8905.33798374 0 37.52233724 0 -3087.06381036 0 4470
0.06450000 0.06451750 31813.11439218 0 -23.36493056 0 10008.67300727 0 3022.12462530 0 -2605.87164607 0 4479
0.06550000 0.06550280 31688.55073797 0 715.57556498 0 8133.54158226 0 693.30358361 0 -3325.79420578 0 4636
0.06650000 0.06648880 31834.92687208 0 13.46605072 0 8485.17647385 0 2732.27330620 0 -2760.61845773 0 4653
0.06750000 0.06749660 31357.59894914 0 516.45087545 0 8167.96544012 0 -399.44076123 0 -957.00428596 0 5220
0.06850000 0.06852730 30848.71490048 0 1524.07229431 0 8044.46472909 0 -1178.91471274 0 575.66013241 0 5029
0.06950000 0.06949320 29789.86847807 0 889.00028139 0 10021.67191660 0 -621.86826558 0 1764.50782775 0 5040
0.07050000 0.07048030 29086.44368234 0 429.76342998 0 10851.99662708 0 30.82535230 0 2121.74531570 0 5475
0.07150000 0.07148790 29183.43724775 0 -246.99920759 0 11404.16239346 0 1266.47465741 0 1125.50181782 0 5509
0.07250000 0.07249820 29346.20042259 0 -150.29795155 0 10082.07144849 0 2104.31747643 0 -80.26472201 0 5916
0.07350000 0.07351270 29357.05130091 0 314.75076315 0 10410.78662771 0 -79.39078341 0 652.83755810 0 5721
0.07450000 0.07449140 29046.02969675 0 1481.42169911 0 9898.99055761 0 -819.77167769 0 -697.99271317 0 6028
0.07550000 0.07549160 27232.05072172 0 1604.29128762 0 10375.70950268 0 -876.23610534 0 -89.19433053 0 6183
0.07650000 0.07648840 26581.77308512 0 935.22945197 0 9216.71390229 0 1190.92818517 0 -930.61782868 0 6330
0.07750000 0.07749960 25929.72387655 0 180.91071521 0 9103.54367032 0 1304.41951456 0 -1897.33143627 0 6583
0.07850000 0.07848650 25765.29985299 0 123.36230697 0 8279.87342706 0 1884.60933506 0 -3298.87738414 0 6549
0.07950000 0.07947320 24957.24158773 0 404.52628002 0 7757.54757606 0 -120.88653514 0 -2868.73970959 0 6828
0.08050000 0.08048110 24778.75571165 0 981.86829857 0 7810.29613150 0 136.09658774 0 -1709.72196455 0 7147
0.08150000 0.08149960 24252.93100601 0 223.30775417 0 7570.55815453 0 239.94945838 0 -815.37928643 0 7386
0.08250000 0.08250610 23724.22749592 0 237.24781112 0 7261.54064116 0 1211.41198608 0 594.57609213 0 7227
0.08350000 0.08350160 23709.50130391 0 250.24339876 0 7023.37493431 0 1310.90789690 0 -29.65832926 0 7798
0.08450000 0.08449610 23386.07869596 0 371.15429301 0 7342.85579463 0 504.81386206 0 -292.67033300 0 7371
0.08550000 0.08548940 22414.59291637 0 1378.67052479 0 6760.47365382 0 -406.40857524 0 -468.90409821 0 8256
0.08650000 0.08650700 21304.59235330 0 1028.65108539 0 7233.08476638 0 -723.80894572 0 -980.05243730 0 8037
0.08750000 0.08749060 20259.58633692 0 306.59931762 0 6391.07875322 0 230.55680523 0 -907.86973734 0 8155
0.08850000 0.08849210 20219.06162808 0 104.79357535 0 6340.93219412 0 -381.51466735 0 -1837.13120623 0 8718
0.08950000 0.08949900 20544.80942425 0 181.33921418 0 6899.11023287 0 434.67289880 0 -2038.18248029 0 8571
0.09050000 0.09049190 20203.89254308 0 445.16724826 0 6879.26862680 0 -388.23778298 0 -1451.08352911 0 8932
0.09150000 0.09150830 19661.12718047 0 478.77286132 0 7058.55171026 0 365.37896839 0 -543.47066970 0 9285
0.09250000 0.09250820 19587.82839017 0 389.63289590 0 7970.08085096 0 189.82504392 0 -28.70356269 0 9204
0.09350000 0.09350330 19680.50374890 0 251.17679574 0 8070.11930569 0 490.75200954 0 149.59928786 0 9349
0.09450000 0.09448040 19385.53701573 0 -27.00883265 0 7961.92054757 0 499.46150024 0 889.64136899 0 9564
0.09550000 0.09549270 19192.43567090 0 327.53929832 0 7632.07599122 0 113.23112976 0 -439.54140002 0 10155
0.09650000 0.09649430 18917.17767591 0 526.29749391 0 7659.87859884 0 345.19412024 0 561.20521236 0 9913
0.09750000 0.09749140 18240.65862949 0 659.14103262 0 7234.32486676 0 679.88281870 0 -86.19184821 0 10476
0.09850000 0.09850240 17880.80807288 0 46.45559963 0 6087.28737717 0 1856.40812374 0 597.16923061 0 10575
0.09950000 0.09950330 17459.17394379 0 178.55673896 0 5932.88380758 0 1071.70139152 0 -107.26757561 0 10882
0.10050000 0.10051200 17458.50960430 0 405.37220563 0 5506.31142161 0 765.80959545 0 -41.53505848 0 10875
0.10150000 0.10150300 17085.26153466 0 435.59079453 0 5693.86553172 0 -281.09421740 0 140.69049531 0 11118
0.10250000 0.10250800 16669.16356798 0 34.57754173 0 5456.79598502 0 -568.16306128 0 1110.89742138 0 11575
0.10350000 0.10349800 16835.91277974 0 -446.82920422 0 5741.23293729 0 -44.23858803 0 1161.55330742 0 11364
0.10450000 0.10450100 17598.13162026 0 -177.25352632 0 5985.05660212 0 191.40506467 0 246.80433467 0 12093
0.10550000 0.10551000 17232.96634774 0 274.33456310 0 6373.17480399 0 48.13073165 0 67.61503380 0 12067
0.10650000 0.10649700 16666.83837976 0 1182.84538805 0 5478.92956234 0 180.49882473 0 411.60038834 0 12054
0.10750000 0.10749900 15999.06646995 0 777.23402020 0 5750.91014918 0 511.81489304 0 959.24311004 0 12807
0.10850000 0.10850100 15223.00722341 0 368.58108473 0 4960.37937410 0 801.12477546 0 672.57619155 0 12736
0.10950000 0.10950300 15044.63207058 0 187.66151165 0 5433.27836711 0 570.33212971 0 717.64941142 0 12933
0.11050000 0.11050200 14738.48228935 0 338.67805709 0 5251.18291314 0 318.03813639 0 661.78731825 0 13428
0.11150000 0.11150900 14644.25680514 0 86.90280219 0 4902.13894556 0 -257.01301816 0 868.88075996 0 13453
0.11250000 0.11250000 14743.79700526 0 20.44637646 0 5405.58648274 0 -485.89900957 0 1567.12149321 0 13668
0.11350000 0.11349100 14770.14913833 0 -139.49800593 0 5227.79816312 0 -320.83057671 0 184.02203849 0 13791
0.11450000 0.11448600 14930.36567846 0 15.54177945 0 5506.59930206 0 -204.39400892 0 -8.47410415 0 14205
0.11550000 0.11549300 14945.09187046 0 -17.02912485 0 5321.08249972 0 125.25678174 0 -314.17168057 0 14776
0.11650000 0.11649800 14897.25942725 0 169.83396146 0 5414.36683632 0 428.37385321 0 310.11920968 0 14553
0.11750000 0.11747300 14779.44989118 0 -72.89564695 0 4493.57015975 0 972.66055325 0 497.21271107 0 14568
0.11850000 0.11849100 14846.32673308 0 -123.68008269 0 4578.76062690 0 1302.83617211 0 125.69192411 0 16015
0.11950000 0.11950300 14683.12066526 0 163.80397337 0 3774.90984507 0 625.22871616 0 398.52397273 0 15270
0.12050000 0.12050700 14610.59693769 0 284.92634902 0 3500.96945673 0 -135.61604884 0 -337.55975228 0 15999
0.12150000 0.12150000 14340.10004237 0 515.54294481 0 4057.30948957 0 -742.18900492 0 194.02366949 0 15670
0.12250000 0.12250700 14126.07200363 0 343.78018436 0 4171.09977173 0 -929.44305502 0 294.08094718 0 16887
0.12350000 0.12352200 13862.43994970 0 30.83022412 0 4363.01637781 0 186.76797504 0 780.94214178 0 16407
0.12450000 0.12449800 13774.63641389 0 22.50317151 0 4373.42436314 0 509.79862270 0 80.40943730 0 16306
0.12550000 0.12549900 13976.81706507 0 93.81680470 0 4425.05461377 0 717.33163570 0 -159.92201629 0 17523
0.12650000 0.12650100 13694.91567519 0 326.41435012 0 4319.87860032 0 -188.06565151 0 -664.87981857 0 17154
0.12750000 0.12750600 13124.91239353 0 577.59446756 0 4531.52608923 0 133.19674587 0 2.90915370 0 18007
0.12850000 0.12850300 13077.41212005 0 349.47578825 0 3993.69898349 0 -191.63536903 0 52.05897105 0 17496
0.12950000 0.12949900 12602.29866209 0 111.80169262 0 4030.47017421 0 346.72763723 0 357.25409644 0 18405
0.13050000 0.13049000 12710.58599881 0 -92.80180468 0 3740.95102485 0 385.34790620 0 -286.11108778 0 18100
0.13150000 0.13148800 12648.69170308 0 150.83938824 0 3613.46427689 0 236.18818964 0 -664.28302026 0 19059
0.13250000 0.13249300 12406.87212904 0 205.83341115 0 3390.83304176 0 376.12244516 0 -420.79706134 0 18957
0.13350000 0.13349100 12124.86001591 0 169.10208079 0 3238.18997181 0 471.37654834 0 -323.21887718 0 19468
0.13450000 0.13450700 12080.45999338 0 97.84713093 0 3086.51019412 0 98.09027918 0 167.58738676 0 19953
0.13550000 0.13551000 12052.33628834 0 149.54503347 0 3159.74255047 0 197.89012532 0 -248.75306384 0 19956
0.13650000 0.13649900 11954.78910669 0 15.24083367 0 3248.15506415 0 -23.42881787 0 312.91829340 0 19723
0.13750000 0.13749600 11967.52228023 0 41.23621643 0 3667.51936665 0 -67.06673228 0 420.74612864 0 20946
0.13850000 0.13851100 12004.17167538 0 274.82949602 0 3712.65016262 0 -455.86422127 0 373.96444905 0 20955
0.13950000 0.13949800 11733.89622656 0 334.49604000 0 4231.88683499 0 -67.98374222 0 290.28203254 0 20506
0.14050000 0.14048300 11470.37489588 0 279.17316905 0 3883.04216925 0 -178.10609534 0 1011.77354067 0 21447
0.14150000 0.14148400 11335.73542608 0 300.05335919 0 4333.87401889 0 295.58346166 0 919.34730925 0 21771
0.14250000 0.14249400 11151.38121785 0 183.35769900 0 4193.54337414 0 407.48259074 0 956.53592662 0 22470
0.14350000 0.14350900 10992.12796998 0 50.29658910 0 4412.47645278 0 487.45467121 0 1154.19021142 0 22519
0.14450000 0.14449900 10811.90373891 0 267.32578149 0 4186.63424345 0 51.70111351 0 1270.81500874 0 22218
0.14550000 0.14550500 10758.05902332 0 187.12228944 0 4163.24949344 0 182.80186829 0 1491.13212798 0 23559
0.14650000 0.14650700 10610.99640508 0 86.96967903 0 3942.31232400 0 163.71650200 0 1849.55435468 0 23044
0.14750000 0.14750500 10644.25766883 0 -99.11978395 0 3850.51167893 0 421.12148045 0 1135.38940388 0 23649
0.14850000 0.14849900 10575.73105053 0 -49.56803013 0 3376.01827115 0 202.35227222 0 643.61984769 0 23640
0.14950000 0.14949500 10550.34220972 0 185.99069784 0 3257.98728859 0 -157.83266859 0 264.76475276 0 24457
0.15050000 0.15050000 10424.73775698 0 185.09162506 0 2940.21156629 0 -123.86056158 0 362.51898689 0 24591
0.15150000 0.15149900 10286.17868420 0 161.17872515 0 2815.96900950 0 116.30591436 0 -195.52396951 0 25020
0.15250000 0.15250500 10084.66237250 0 163.57256178 0 2661.44364433 0 16.04900265 0 -438.64122002 0 25297
0.15350000 0.15350100 10013.66662576 0 197.83919263 0 2812.49229951 0 167.23528683 0 -712.29926407 0 25452
0.15450000 0.15450400 9768.62500520 0 154.68369941 0 2728.39799251 0 -162.87057638 0 -278.82881975 0 26061
0.15550000 0.15549900 9740.00304554 0 188.71891867 0 2959.69885797 0 13.18470295 0 -323.79131637 0 26128
0.15650000 0.15649500 9639.48848084 0 107.17434664 0 2938.24069247 0 -80.75478311 0 -287.25707340 0 26331
0.15750000 0.15749700 9451.53576704 0 224.49581463 0 3089.01253953 0 279.02147820 0 79.09681319 0 27345
0.15850000 0.15849900 9395.48765881 0 211.89993791 0 3006.15833291 0 318.23633101 0 90.61435619 0 26980
0.15950000 0.15949700 9348.79566505 0 19.43514103 0 3159.41038073 0 267.79967699 0 386.52821602 0 27777
0.16050000 0.16050000 9168.22819191 0 39.13037097 0 3069.22629508 0 396.23975212 0 718.26613992 0 28224
0.16150000 0.16150500 9338.12194393 0 -2.60198526 0 2895.59009727 0 118.23139165 0 850.20617692 0 28075
0.16250000 0.16249700 9244.36149736 0 82.37865027 0 2861.42090288 0 153.69715527 0 724.84420809 0 28590
0.16350000 0.16349900 9159.32604275 0 267.04897337 0 3004.43105024 0 -113.04732917 0 676.76595926 0 29163
0.16450000 0.16449100 9051.30444182 0 149.64800609 0 2800.23523593 0 -82.72975369 0 915.77869896 0 28996
0.16550000 0.16550500 8785.90081592 0 23.44786227 0 2850.89112198 0 94.53883100 0 472.21472333 0 30777
0.16650000 0.16650700 8887.51154078 0 81.81052928 0 2781.16869260 0 63.64571608 0 321.69311082 0 29211
0.16750000 0.16749900 8804.24765815 0 108.86398340 0 2895.60116960 0 -146.03621373 0 179.58425070 0 30922
0.16850000 0.16850800 8735.75425682 0 251.80681103 0 3006.28012849 0 -208.60702851 0 310.23214740 0 30867
0.16950000 0.16949900 8574.18689306 0 119.62650457 0 3119.98183205 0 -135.46989416 0 492.25563125 0 30852
0.17050000 0.17049200 8591.67009395 0 89.21149264 0 3337.59730403 0 82.64405389 0 726.56041844 0 31257
0.17150000 0.17149500 8531.71345506 0 23.75810881 0 3481.43787575 0 192.55215753 0 460.49134581 0 32608
0.17250000 0.17250900 8461.60349431 0 52.78265820 0 3305.14431999 0 332.26939548 0 293.69009412 0 32361
0.17350000 0.17350400 8387.07567595 0 171.78933403 0 3204.10935602 0 118.97213018 0 304.70484285 0 32508
0.17450000 0.17449800 8240.50024000 0 79.91372932 0 2852.74020022 0 -1.83558108 0 184.80817355 0 32791
0.17550000 0.17549800 8200.45164113 0 76.88998813 0 2684.06440394 0 240.75773809 0 211.44707983 0 33633
0.17650000 0.17650100 8049.53585386 0 114.94069671 0 2629.30068538 0 -79.76536016 0 -218.78913842 0 33984
0.17750000 0.17750300 7994.99358180 0 221.02906973 0 2576.78464877 0 60.18738614 0 -399.84822278 0 34069
0.17850000 0.17849800 7751.85640111 0 235.81726676 0 2706.09833033 0 44.21046432 0 -310.73925987 0 34536
