### header ###
fiducial parameters:
Omega_m = 0.31
Omega_nu = 0
Omega_de = 0.69
Omega_k = 0
H_0 = 100
w_de = -1
zeff = 0
beta = 0
fgrowth = 0
b_1 = 2
gamma = 0.55
Lx = 3500 Ly = 3500 Lz = 3500
nx = 700 ny = 700 nz = 700
xoffset = -685.467585 yoffset = -31.7331281 zoffset = 572.489161
bins = 400 dk = 0.001
kx_ny = 0.628318531 ky_ny = 0.628318531 kz_ny = 0.628318531
############################
A(data) = 8.03043519 (not used)
A(ran) = 8.03342608 (used)
Ngal = 477561
weighted Ngal = 0
Nran = 23820508
weighted Nran = 0
SN(data) = 3483.85846
SN(ran) = 69.9740546
SN(data+ran) = 3553.83252
############################
13 columns: k_central k_mean P_0(k) sigma^{lin}_{P_0(k)} P^img_1(k) sigma^{lin}_{P_1(k)} P_2(k) sigma^{lin}_{P_2(k)} P^img_3(k) sigma^{lin}_{P_3(k)} P_4(k) sigma^{lin}_{P_4(k)} N_modes
### header ###
0.00050000 0 0 0 0 0 0 0 0 0 0 0 0
0.00150000 0.00179520 6610.34400160 0 -5879.29375545 0 16769.36810758 0 -55818.02532226 0 -2475.16285158 0 3
0.00250000 0.00253879 21509.65180894 0 -19836.95569859 0 -14949.07790740 0 -3893.71589037 0 -33350.17452351 0 6
0.00350000 0.00331552 31267.35950187 0 -20934.55525786 0 -1948.19769649 0 -3884.30441428 0 32619.29036223 0 7
0.00450000 0.00420575 57842.59991535 0 -28257.79089292 0 -1759.82423435 0 -12458.35843944 0 17443.34051930 0 24
0.00550000 0.00557378 85478.67976969 0 -19672.86384478 0 19950.44702798 0 -15795.22497004 0 8958.80624029 0 45
0.00650000 0.00659388 113325.24451885 0 -2304.59368775 0 23372.12756669 0 -29512.17457162 0 -10477.15414267 0 40
0.00750000 0.00754703 96183.18195787 0 17257.65763209 0 43931.33101320 0 -13010.09238516 0 19714.16361635 0 57
0.00850000 0.00846663 91779.93982399 0 26462.08125383 0 49843.17740362 0 -24842.31085611 0 -2488.37213509 0 75
0.00950000 0.00948925 68718.16952196 0 16770.69678656 0 59665.32602699 0 3780.27992261 0 15906.39111122 0 112
0.01050000 0.01054430 66888.13567594 0 17224.88355062 0 53188.79107082 0 36754.36078900 0 8707.30945436 0 105
0.01150000 0.01145670 55198.19657891 0 -2281.41931191 0 39724.17975186 0 50615.91495271 0 2112.09024846 0 144
0.01250000 0.01249090 64804.10269857 0 -14164.60369400 0 24999.53786853 0 48428.35573829 0 -8728.54617336 0 169
0.01350000 0.01339930 71443.06865983 0 -10641.06883928 0 10276.64541253 0 35927.47957154 0 -22021.52538531 0 180
0.01450000 0.01448870 76251.33643558 0 -4115.67171369 0 2587.07083853 0 11635.79542867 0 9353.83357284 0 267
0.01550000 0.01550050 78143.26457734 0 1285.56334539 0 -11945.15618410 0 -8311.87244578 0 29353.39743372 0 238
0.01650000 0.01653350 77850.84447888 0 525.21129884 0 7235.83070293 0 -11546.55249063 0 13497.16395393 0 315
0.01750000 0.01747870 78094.32490164 0 2856.11725929 0 23940.02710664 0 -16687.87579692 0 8706.12471560 0 297
0.01850000 0.01844180 75153.18326007 0 9050.81725953 0 30891.23262778 0 -7172.71845147 0 -1927.49244908 0 388
0.01950000 0.01947590 75697.49874815 0 2875.99208234 0 35098.49461237 0 -26637.68832545 0 7672.96608677 0 399
0.02050000 0.02045430 73713.89175689 0 -727.89795528 0 49873.73702012 0 -3722.01734941 0 11769.88128222 0 462
0.02150000 0.02154770 81591.74014211 0 -2970.47223002 0 44741.82518992 0 7097.20519620 0 -12556.12706759 0 571
0.02250000 0.02255340 81937.63956944 0 681.87251547 0 43725.16432508 0 16828.71576861 0 -17056.25204364 0 510
0.02350000 0.02348930 75894.80757642 0 6712.14295599 0 23796.64050023 0 1663.93790142 0 -25670.18858280 0 555
0.02450000 0.02439640 70833.20500882 0 9269.18564960 0 21891.97918493 0 4697.55559988 0 -25230.50656425 0 592
0.02550000 0.02547300 66866.54464254 0 2712.83030382 0 18465.86971630 0 -2492.98929454 0 -24465.74108903 0 837
0.02650000 0.02652900 62283.04506062 0 -1792.23292910 0 21807.71879306 0 4893.51360452 0 -16889.83500161 0 723
0.02750000 0.02749970 61420.17878750 0 2232.51285318 0 19756.90279015 0 7507.71163886 0 -14624.99095996 0 826
0.02850000 0.02848090 64194.68194055 0 -159.19235008 0 15240.16932688 0 10899.65191310 0 -10558.65752566 0 831
0.02950000 0.02946900 62682.31309358 0 121.46672496 0 17722.47382797 0 2049.40981766 0 -6654.43399903 0 996
0.03050000 0.03053250 61975.45587715 0 5349.82625495 0 21774.83398835 0 -1837.87305200 0 1032.23187524 0 1041
0.03150000 0.03150510 58644.01478572 0 4633.91187683 0 27886.75728824 0 -1358.40817038 0 4533.25337190 0 1036
0.03250000 0.03246190 54271.55371484 0 3548.41436858 0 25595.89328326 0 -227.54513288 0 2720.81345001 0 1059
0.03350000 0.03345080 53360.96572175 0 315.57122242 0 27949.98026296 0 2542.98084110 0 9932.75007599 0 1302
0.03450000 0.03451200 56018.10223173 0 -2493.52076613 0 28882.04856619 0 7731.26187694 0 1144.20297443 0 1339
0.03550000 0.03553350 55976.91318340 0 -461.87206472 0 24093.60025187 0 4114.74163840 0 -580.23300256 0 1365
0.03650000 0.03647120 54035.82391945 0 1633.95404581 0 18889.38614061 0 1468.41171745 0 -1822.95863047 0 1308
0.03750000 0.03744890 53231.30879812 0 3591.47463980 0 20026.62462273 0 3020.69629540 0 -31.90678626 0 1579
0.03850000 0.03847530 52567.52292525 0 -1162.53874433 0 18945.85499719 0 343.66281772 0 2527.73424982 0 1662
0.03950000 0.03950240 53153.35963140 0 -341.72626811 0 18683.77306873 0 2270.60165056 0 -4303.49155959 0 1683
0.04050000 0.04050350 52591.32842361 0 1644.11844000 0 21294.29509122 0 -1731.96626511 0 -1222.41787695 0 1822
0.04150000 0.04152450 50843.45122773 0 3657.86429941 0 18995.01611938 0 782.18002770 0 -4673.47329340 0 1887
0.04250000 0.04250150 48183.43591330 0 4485.65344750 0 24600.26983557 0 1252.13599677 0 4510.41116580 0 1920
0.04350000 0.04349210 45128.69221909 0 1007.62141887 0 19632.67130569 0 4322.90134500 0 3303.61633917 0 2005
0.04450000 0.04448520 44674.61617827 0 186.84326685 0 20839.44398767 0 8303.32461102 0 5463.21793342 0 2151
0.04550000 0.04548030 43713.20621427 0 256.31546169 0 20017.54531638 0 5255.75578329 0 6474.23191261 0 2274
0.04650000 0.04648670 44669.52290886 0 692.02030117 0 16851.08186475 0 3865.42610046 0 6938.43913063 0 2311
0.04750000 0.04749250 42735.85210253 0 1514.00755105 0 16270.44915126 0 482.38133198 0 7159.40951704 0 2568
0.04850000 0.04851840 40644.28994429 0 2170.41925560 0 17695.78952516 0 -438.22268614 0 9157.58768776 0 2493
0.04950000 0.04949480 39058.62230701 0 1920.60546304 0 16080.55878062 0 2641.55774896 0 8251.29575670 0 2644
0.05050000 0.05050630 38787.01817921 0 148.39240445 0 14987.49887452 0 1132.46631013 0 6324.15762202 0 2829
0.05150000 0.05149060 38366.49128259 0 -140.26642527 0 14822.18906498 0 1688.27487137 0 2870.00195462 0 2784
0.05250000 0.05249300 37888.83118992 0 1434.96222417 0 15916.24548031 0 -3073.86559918 0 998.07153871 0 3055
0.05350000 0.05348950 37844.54189064 0 3118.74173167 0 19584.94958572 0 -4129.37925181 0 1286.05052769 0 3009
0.05450000 0.05448610 34210.71560841 0 2925.29714476 0 20812.75968486 0 -2966.29796356 0 5495.49376026 0 3336
0.05550000 0.05550870 32907.50297726 0 1255.56841746 0 20834.12927176 0 2301.46021983 0 5107.61914954 0 3349
0.05650000 0.05647670 33871.12740622 0 -2256.59515966 0 20264.67960633 0 8365.94968020 0 6303.75132738 0 3324
0.05750000 0.05747970 35130.16146135 0 -1683.92344772 0 17194.87755036 0 6093.84219346 0 4020.87046859 0 3639
0.05850000 0.05849280 35664.40113385 0 405.80181184 0 16019.55027087 0 4908.40588141 0 5734.72241030 0 3846
0.05950000 0.05951020 33859.16929542 0 1338.53334733 0 13978.36719055 0 -190.22254038 0 6941.62796018 0 3787
0.06050000 0.06049470 33357.59298114 0 2592.72879651 0 15182.26106808 0 -408.25322455 0 7194.95167970 0 3930
0.06150000 0.06148310 31242.66821753 0 845.31331658 0 13365.40328859 0 -1464.48104214 0 4746.96031322 0 4083
0.06250000 0.06249100 30264.64976630 0 330.83220772 0 14747.67231895 0 -474.73256999 0 3876.53164226 0 4303
0.06350000 0.06350600 31231.59589271 0 -970.70185899 0 12539.96147336 0 440.10387412 0 1547.65634618 0 4470
0.06450000 0.06451750 31283.30364961 0 -1046.43877522 0 12960.15620023 0 815.40143108 0 -1192.65546784 0 4479
0.06550000 0.06550280 32811.06302809 0 -471.67550111 0 12331.02670403 0 265.67600509 0 -2336.30482603 0 4636
0.06650000 0.06648880 32340.15705355 0 837.61030021 0 11670.34108210 0 1226.21568437 0 -4044.73132858 0 4653
0.06750000 0.06749660 31502.42495777 0 1001.77301690 0 11026.43003227 0 1696.78948916 0 41.42621752 0 5220
0.06850000 0.06852730 30754.04652328 0 1502.14909117 0 9434.28508498 0 1824.27623712 0 -100.31459852 0 5029
0.06950000 0.06949320 29060.09154927 0 836.09007001 0 11021.29247356 0 1420.37997239 0 -370.93506098 0 5040
0.07050000 0.07048030 28737.44400406 0 1289.80404580 0 10754.57124100 0 1166.76837241 0 -247.88720804 0 5475
0.07150000 0.07148790 27131.95690536 0 975.52939261 0 10094.95963458 0 721.54354806 0 2598.37568217 0 5509
0.07250000 0.07249820 27114.13046240 0 -104.52540365 0 9853.87083398 0 817.13646438 0 1246.77699155 0 5916
0.07350000 0.07351270 27137.16089802 0 -479.12606848 0 9517.74826946 0 222.85711055 0 1823.41259578 0 5721
0.07450000 0.07449140 27344.76698837 0 691.87414648 0 9481.35353778 0 319.08225662 0 -678.27179544 0 6028
0.07550000 0.07549160 26823.70338240 0 640.12210028 0 8947.53461362 0 -2465.75137549 0 -319.52182792 0 6183
0.07650000 0.07648840 26490.42640536 0 456.16871020 0 9626.58922243 0 -1181.94852974 0 -1048.97655206 0 6330
0.07750000 0.07749960 26429.86078861 0 -246.84530227 0 9831.31650832 0 338.67252093 0 -2143.25884282 0 6583
0.07850000 0.07848650 27024.77680111 0 -620.68684852 0 10907.03715375 0 711.62717395 0 -1538.76526935 0 6549
0.07950000 0.07947320 27152.44070627 0 261.91030742 0 9334.45700441 0 1055.05858009 0 -2987.54575489 0 6828
0.08050000 0.08048110 26699.36117469 0 1286.61521625 0 10547.50769457 0 173.76685124 0 -2401.31044504 0 7147
0.08150000 0.08149960 25897.50341132 0 665.05697577 0 9792.88446888 0 -175.35351539 0 -970.56013323 0 7386
0.08250000 0.08250610 24965.98872433 0 808.45465449 0 10380.92456767 0 839.56788723 0 -521.45113733 0 7227
0.08350000 0.08350160 24162.13794250 0 732.77088543 0 9467.62385500 0 1766.36797832 0 -35.99380280 0 7798
0.08450000 0.08449610 23491.93012123 0 546.28525467 0 10469.04920090 0 682.84023666 0 -1468.58887465 0 7371
0.08550000 0.08548940 22948.38969588 0 326.23719292 0 8571.92813880 0 1341.71110455 0 528.69797393 0 8256
0.08650000 0.08650700 22747.86989341 0 699.70781629 0 9003.39449233 0 48.25440952 0 250.48809714 0 8037
0.08750000 0.08749060 22237.32499602 0 757.82644926 0 9174.55048938 0 48.44418916 0 1739.39579506 0 8155
0.08850000 0.08849210 22096.70647083 0 86.51117406 0 8926.19824370 0 134.71919053 0 81.75461404 0 8718
0.08950000 0.08949900 21367.59388152 0 294.51941125 0 8684.03542759 0 471.14956568 0 1190.36349660 0 8571
0.09050000 0.09049190 21542.53661365 0 288.87031112 0 8982.27956890 0 101.18421891 0 60.18351083 0 8932
0.09150000 0.09150830 21115.91993839 0 227.49752189 0 8028.84167877 0 885.86459900 0 336.59313832 0 9285
0.09250000 0.09250820 20369.86669211 0 864.73860324 0 7832.81724018 0 19.07960868 0 -72.74749925 0 9204
0.09350000 0.09350330 19686.70425080 0 1244.82826239 0 7251.29874071 0 157.38756113 0 -1614.11243974 0 9349
0.09450000 0.09448040 18891.48988233 0 843.23614845 0 7569.59486227 0 370.71472172 0 -806.73290798 0 9564
0.09550000 0.09549270 18015.00464968 0 676.80360517 0 7120.83353737 0 141.93834632 0 -128.61058893 0 10155
0.09650000 0.09649430 17659.91519275 0 419.11517520 0 7235.88606456 0 398.26488033 0 -777.14322714 0 9913
0.09750000 0.09749140 17521.62185576 0 233.56958482 0 7693.32809212 0 231.84783831 0 -1078.96372937 0 10476
0.09850000 0.09850240 17619.16903742 0 -48.02565528 0 7339.66696508 0 -3.92210533 0 -19.46260040 0 10575
0.09950000 0.09950330 17297.73944793 0 50.89161584 0 7641.95250496 0 755.83453803 0 402.68716686 0 10882
0.10050000 0.10051200 17873.27889200 0 -546.49895054 0 7577.54479149 0 156.94909707 0 594.49415693 0 10875
0.10150000 0.10150300 17970.93679690 0 90.53673919 0 7512.64989573 0 1001.26701165 0 22.67601051 0 11118
0.10250000 0.10250800 17559.71065314 0 523.11309329 0 7458.89375873 0 166.95072808 0 559.77023907 0 11575
0.10350000 0.10349800 17059.46301783 0 645.08250179 0 6575.56582935 0 471.77847373 0 1403.27323054 0 11364
0.10450000 0.10450100 16820.30080175 0 225.83999486 0 6456.46083127 0 1097.05590812 0 929.44637672 0 12093
0.10550000 0.10551000 16518.91212019 0 151.91783267 0 6176.85141263 0 963.23357590 0 1092.38338705 0 12067
0.10650000 0.10649700 16489.79190591 0 162.78421225 0 5866.87060701 0 46.16284736 0 298.31278973 0 12054
0.10750000 0.10749900 16045.01661795 0 259.40353308 0 5928.60989020 0 495.22633600 0 920.33606786 0 12807
0.10850000 0.10850100 16043.90938547 0 252.06036726 0 5646.85244054 0 380.37975405 0 614.85726950 0 12736
0.10950000 0.10950300 15837.52125085 0 210.99200728 0 5492.02812260 0 418.40876087 0 76.59380344 0 12933
0.11050000 0.11050200 15581.97199403 0 186.10252832 0 4784.07474602 0 -836.92603053 0 -602.55813110 0 13428
0.11150000 0.11150900 15453.09013314 0 362.05616371 0 5231.68454914 0 -167.39140661 0 -766.93232919 0 13453
0.11250000 0.11250000 14998.23902959 0 446.04639085 0 5066.37473959 0 -441.51781000 0 -964.52460897 0 13668
0.11350000 0.11349100 14697.95758051 0 156.76972541 0 4518.54932454 0 597.23012839 0 -1186.83142499 0 13791
0.11450000 0.11448600 14714.78751424 0 -74.09046152 0 4277.16157117 0 512.56781113 0 -1895.84774475 0 14205
0.11550000 0.11549300 14632.74158733 0 100.06657844 0 3869.15747393 0 1001.88484738 0 -1828.81589030 0 14776
0.11650000 0.11649800 14334.45315672 0 56.20766043 0 3876.00017066 0 758.64358683 0 -927.84531855 0 14553
0.11750000 0.11747300 14340.76438186 0 96.41403993 0 3228.26916877 0 1072.02138171 0 -403.26957115 0 14568
0.11850000 0.11849100 14414.94895815 0 59.84347973 0 3486.37613262 0 780.32652052 0 413.59229958 0 16015
0.11950000 0.11950300 14156.74234338 0 5.64716247 0 2856.11725929 0 539.22111144 0 1206.46265689 0 15270
0.12050000 0.12050700 14092.63358268 0 255.62897755 0 3463.89931324 0 11.52108614 0 1338.12367131 0 15999
0.12150000 0.12150000 14248.53191612 0 325.69907794 0 3774.25657791 0 -472.07853374 0 2012.69398856 0 15670
0.12250000 0.12250700 13974.82404661 0 259.69362799 0 4006.01140869 0 -490.72765043 0 1934.95519601 0 16887
0.12350000 0.12352200 13717.28177132 0 247.75655461 0 4093.15060501 0 -321.20149959 0 2123.45045372 0 16407
0.12450000 0.12449800 13624.49568934 0 348.58335887 0 4744.60190804 0 -355.30536727 0 1503.80993989 0 16306
0.12550000 0.12549900 13498.82480265 0 216.61121212 0 4237.97661364 0 55.55904364 0 1698.78250763 0 17523
0.12650000 0.12650100 13226.55633536 0 58.67734248 0 4748.00111176 0 59.78213905 0 1100.11629870 0 17154
0.12750000 0.12750600 13223.12391467 0 175.44652291 0 4031.62169599 0 298.91290973 0 985.11470421 0 18007
0.12850000 0.12850300 13030.13329308 0 69.78476657 0 4273.68486118 0 481.77567581 0 937.30883457 0 17496
0.12950000 0.12949900 12986.39761005 0 168.77987614 0 3435.13341336 0 630.96085872 0 1114.19697418 0 18405
0.13050000 0.13049000 12621.23233753 0 102.72792243 0 3308.32207721 0 357.17216123 0 1007.95912477 0 18100
0.13150000 0.13148800 12589.89765829 0 141.99149347 0 3163.90574460 0 317.91855529 0 70.48154797 0 19059
0.13250000 0.13249300 12258.28152997 0 249.48494451 0 3015.29300089 0 230.84690014 0 1006.73120395 0 18957
0.13350000 0.13349100 12253.74187680 0 339.84840182 0 3158.39172684 0 -438.92467153 0 701.17932826 0 19468
0.13450000 0.13450700 12014.91183046 0 157.07532157 0 3337.90732913 0 -251.65179848 0 1156.73684613 0 19953
0.13550000 0.13551000 12022.21956484 0 89.72569140 0 3710.59071020 0 -43.04986323 0 930.44067149 0 19956
0.13650000 0.13649900 11821.47831588 0 45.68540871 0 3669.32415560 0 185.72274758 0 1160.44607494 0 19723
0.13750000 0.13749600 12037.16720334 0 112.69633647 0 3481.34929715 0 3.57165518 0 934.00485284 0 20946
0.13850000 0.13851100 11890.90179249 0 28.80421012 0 3969.18485634 0 142.26830159 0 221.19294013 0 20955
0.13950000 0.13949800 11823.80350409 0 292.50978429 0 3623.52902015 0 -533.41810600 0 -23.37378842 0 20506
0.14050000 0.14048300 11547.65972311 0 401.89549564 0 3815.66707273 0 -358.46873047 0 -94.45302048 0 21447
0.14150000 0.14148400 11283.91694593 0 314.02663311 0 3551.84678927 0 -309.50469566 0 13.83641999 0 21771
0.14250000 0.14249400 11170.86850953 0 217.76162667 0 3713.82382905 0 506.35180798 0 -236.84588573 0 22470
0.14350000 0.14350900 10893.30747098 0 85.27262380 0 3444.12414111 0 441.87876779 0 -634.14747380 0 22519
0.14450000 0.14449900 10826.43062907 0 261.36112011 0 3169.90694466 0 460.42712633 0 -616.44614812 0 22218
0.14550000 0.14550500 10442.03272834 0 36.70364954 0 2999.51493802 0 374.86462906 0 -288.22147289 0 23559
0.14650000 0.14650700 10587.70023366 0 -30.90773039 0 2565.54623908 0 493.80464949 0 -28.17795943 0 23044
0.14750000 0.14750500 10605.90313566 0 -60.65519187 0 2751.41735581 0 462.27177564 0 -359.83394812 0 23649
0.14850000 0.14849900 10412.84608012 0 127.28633888 0 2320.95858384 0 173.98386881 0 -114.75800335 0 23640
0.14950000 0.14949500 10352.81193496 0 210.37860048 0 2309.26620883 0 132.61101989 0 58.63083872 0 24457
0.15050000 0.15050000 10135.94938106 0 255.45846375 0 2460.71346770 0 -55.06366783 0 41.77499575 0 24591
0.15150000 0.15149900 9945.64933440 0 192.79907037 0 2505.10241789 0 44.27656610 0 58.72517493 0 25020
0.15250000 0.15250500 9855.06664506 0 114.95619796 0 2460.11556216 0 177.38860869 0 221.99236199 0 25297
0.15350000 0.15350100 9736.06129791 0 100.42355019 0 2546.67899759 0 56.09970527 0 439.28009316 0 25452
0.15450000 0.15450400 9814.34263438 0 12.96779610 0 2588.00091381 0 59.57885117 0 174.20199360 0 26061
0.15550000 0.15549900 9673.94555568 0 1.01170268 0 2715.95269942 0 97.32230274 0 886.89432521 0 26128
0.15650000 0.15649500 9717.34906896 0 230.13605689 0 2621.74935986 0 134.04931488 0 822.50543469 0 26331
0.15750000 0.15749700 9722.09909631 0 107.06672364 0 2619.22486980 0 386.02885417 0 1128.02630787 0 27345
0.15850000 0.15849900 9546.40344609 0 -13.43228013 0 2244.90278466 0 333.11642833 0 1029.60884149 0 26980
0.15950000 0.15949700 9513.88402810 0 120.28420067 0 2417.80820902 0 167.37369089 0 1305.46031309 0 27777
0.16050000 0.16050000 9436.93137061 0 124.69873657 0 2291.87158654 0 59.04771175 0 1059.63477193 0 28224
0.16150000 0.16150500 9335.03276530 0 242.11409788 0 2409.80291818 0 -122.65478541 0 1073.91364202 0 28075
0.16250000 0.16249700 9145.89531275 0 208.31914807 0 2295.53652605 0 -316.14033992 0 1083.61742749 0 28590
0.16350000 0.16349900 8986.22131654 0 123.15193280 0 2419.56870867 0 -258.28190658 0 771.67792761 0 29163
0.16450000 0.16449100 8841.46174186 0 239.89963292 0 2462.27466550 0 -119.61764671 0 459.91337046 0 28996
0.16550000 0.16550500 8866.76200407 0 71.78265686 0 2673.76714186 0 -1.25127236 0 282.61334037 0 30777
0.16650000 0.16650700 8704.49708385 0 59.81435952 0 2482.54809224 0 74.32674494 0 270.52568336 0 29211
0.16750000 0.16749900 8626.89115920 0 35.91076036 0 2525.96267785 0 101.33391674 0 1.11586890 0 30922
0.16850000 0.16850800 8707.05479089 0 83.11363119 0 2580.57138386 0 55.98311369 0 178.16256419 0 30867
0.16950000 0.16949900 8513.83165048 0 207.78656924 0 2679.70190796 0 -45.23365786 0 273.66468745 0 30852
0.17050000 0.17049200 8470.25097999 0 99.44674970 0 2701.20436276 0 -68.55319188 0 557.94330547 0 31257
0.17150000 0.17149500 8373.83317547 0 62.68696347 0 3005.71543992 0 70.36163469 0 732.18405221 0 32608
0.17250000 0.17250900 8491.84201339 0 47.36795919 0 2927.95450272 0 188.45429011 0 522.43103808 0 32361
0.17350000 0.17350400 8406.77334181 0 -0.93374908 0 2863.38070438 0 116.26716122 0 580.74897290 0 32508
0.17450000 0.17449800 8425.89524677 0 47.94383080 0 2747.63062072 0 79.68552870 0 369.28528458 0 32791
0.17550000 0.17549800 8359.87097387 0 51.30959610 0 2517.61414494 0 105.83703124 0 190.73629626 0 33633
0.17650000 0.17650100 8305.11832765 0 170.75850059 0 2380.48340206 0 -13.32864317 0 188.73995609 0 33984
0.17750000 0.17750300 8184.02031110 0 88.42657553 0 2273.69082918 0 154.65048244 0 351.50313093 0 34069
0.17850000 0.17849800 8073.18633967 0 47.54655579 0 2194.57906835 0 480.10707646 0 463.36793580 0 34536
