### header ###
fiducial parameters:
Omega_m = 0.31
Omega_nu = 0
Omega_de = 0.69
Omega_k = 0
H_0 = 100
w_de = -1
zeff = 0
beta = 0
fgrowth = 0
b_1 = 2
gamma = 0.55
Lx = 3500 Ly = 3500 Lz = 3500
nx = 700 ny = 700 nz = 700
xoffset = -685.467585 yoffset = -31.7331281 zoffset = 572.489161
bins = 400 dk = 0.001
kx_ny = 0.628318531 ky_ny = 0.628318531 kz_ny = 0.628318531
############################
A(data) = 7.98809168 (not used)
A(ran) = 7.98241162 (used)
Ngal = 474676
weighted Ngal = 0
Nran = 23820508
weighted Nran = 0
SN(data) = 3492.26706
SN(ran) = 69.5297002
SN(data+ran) = 3561.79676
############################
13 columns: k_central k_mean P_0(k) sigma^{lin}_{P_0(k)} P^img_1(k) sigma^{lin}_{P_1(k)} P_2(k) sigma^{lin}_{P_2(k)} P^img_3(k) sigma^{lin}_{P_3(k)} P_4(k) sigma^{lin}_{P_4(k)} N_modes
### header ###
0.00050000 0 0 0 0 0 0 0 0 0 0 0 0
0.00150000 0.00179520 21546.07975760 0 -18337.43074840 0 7481.73596483 0 25503.32864778 0 -53307.04349988 0 3
0.00250000 0.00253879 48212.55612758 0 -35648.56770936 0 -11540.13054223 0 -20027.73185522 0 79904.87145599 0 6
0.00350000 0.00331552 59996.60998557 0 -28021.28603479 0 8840.32129240 0 -59074.06388168 0 -51818.92304426 0 7
0.00450000 0.00420575 80248.66714161 0 -11925.89033892 0 17699.33266910 0 -31810.56775747 0 47891.34798459 0 24
0.00550000 0.00557378 99480.63101211 0 -6006.29332112 0 59993.84190436 0 -22756.39558352 0 24453.22936198 0 45
0.00650000 0.00659388 103485.04800602 0 18922.04949883 0 35828.60371091 0 27340.67022819 0 46228.61696657 0 40
0.00750000 0.00754703 87954.11942940 0 17233.07707099 0 67693.97947624 0 29477.18602519 0 -6230.95079169 0 57
0.00850000 0.00846663 88999.78978527 0 23552.60646123 0 38483.19358618 0 4443.84434899 0 -14741.91471004 0 75
0.00950000 0.00948925 80009.17275578 0 -11180.05853913 0 45695.37380331 0 8119.46865741 0 -15679.51917569 0 112
0.01050000 0.01054430 75569.72411974 0 154.75677676 0 71695.96055869 0 1681.44324696 0 30854.47250938 0 105
0.01150000 0.01145670 90427.56607064 0 -4580.56541585 0 59639.30606367 0 27807.25799604 0 13233.31045350 0 144
0.01250000 0.01249090 91523.72622768 0 -4261.41672528 0 59518.17483015 0 27894.84008536 0 17857.00257452 0 169
0.01350000 0.01339930 90428.56257987 0 2581.24679567 0 31796.17373521 0 1223.51403711 0 5139.06455203 0 180
0.01450000 0.01448870 89959.31745406 0 7437.22521906 0 46939.34949668 0 5157.95393817 0 19115.04012041 0 267
0.01550000 0.01550050 99654.79868150 0 1095.38509431 0 44537.09790403 0 12368.00826892 0 29110.69207370 0 238
0.01650000 0.01653350 92459.22695161 0 -10991.93974046 0 40275.58152783 0 24903.98370535 0 10547.08694622 0 315
0.01750000 0.01747870 97960.17936801 0 -6365.22487477 0 34495.71724924 0 19656.80897379 0 615.98332494 0 297
0.01850000 0.01844180 95900.06261225 0 11231.76629603 0 39512.58762457 0 -264.06276737 0 989.11624240 0 388
0.01950000 0.01947590 82940.57075152 0 20704.69379463 0 33071.92700081 0 -4650.38749616 0 5916.89537054 0 399
0.02050000 0.02045430 71243.65608985 0 11799.22294299 0 36954.43769847 0 3379.64999369 0 21385.86321747 0 462
0.02150000 0.02154770 71364.01226063 0 -2589.98285995 0 33740.25252687 0 12517.37393073 0 11755.26581346 0 571
0.02250000 0.02255340 77153.62018505 0 -8939.23037001 0 35882.85810252 0 7025.09114466 0 -3832.31984926 0 510
0.02350000 0.02348930 80375.99887702 0 993.66696790 0 32466.93517272 0 -12.28729102 0 1635.72561778 0 555
0.02450000 0.02439640 79485.67323835 0 5519.45427117 0 37809.77479071 0 -6744.72880793 0 1592.78714214 0 592
0.02550000 0.02547300 72828.99155738 0 5086.51529844 0 33656.65647449 0 2447.43775024 0 -1167.37735028 0 837
0.02650000 0.02652900 71440.63274837 0 4083.07478942 0 36139.07169883 0 1881.46479481 0 -1168.30742556 0 723
0.02750000 0.02749970 68707.65081339 0 2587.64659942 0 35377.62792105 0 8600.08506081 0 -7413.72974580 0 826
0.02850000 0.02848090 64281.37824388 0 2196.11812150 0 34477.44791329 0 6100.31950348 0 -7601.10669870 0 831
0.02950000 0.02946900 60330.99419509 0 2941.40737737 0 27956.84510434 0 9699.60013228 0 -4337.00748681 0 996
0.03050000 0.03053250 59389.95730875 0 867.19333766 0 26105.33094817 0 4276.85154607 0 -1220.00411014 0 1041
0.03150000 0.03150510 57009.85036574 0 3641.12294429 0 19499.24979162 0 6845.92985677 0 -5189.75365505 0 1036
0.03250000 0.03246190 58520.44764074 0 -830.66130915 0 19718.37109978 0 -362.51898689 0 -800.36853568 0 1059
0.03350000 0.03345080 51708.08907282 0 2993.98984794 0 20742.45042226 0 -2087.38789179 0 -7301.56709538 0 1302
0.03450000 0.03451200 52145.88879615 0 5792.59745212 0 19498.14255914 0 -4579.56890662 0 -7808.38061931 0 1339
0.03550000 0.03553350 47306.39706442 0 1468.16812630 0 18384.15595914 0 1291.29880965 0 -2510.71608658 0 1365
0.03650000 0.03647120 45072.44480901 0 1321.10550806 0 17965.17918800 0 2100.58610297 0 -1171.28588094 0 1308
0.03750000 0.03744890 45517.88443646 0 -1321.91378777 0 17507.11711025 0 8519.93250145 0 -5460.06232084 0 1579
0.03850000 0.03847530 46169.26930554 0 -1104.88293454 0 11485.98687387 0 14473.85372618 0 -8639.32537997 0 1662
0.03950000 0.03950240 44475.53577803 0 561.55731229 0 6127.12560187 0 2964.68140414 0 -7597.60784406 0 1683
0.04050000 0.04050350 44082.24680048 0 1969.74444059 0 6046.31977534 0 1332.29962845 0 -4366.20520736 0 1822
0.04150000 0.04152450 41687.85655844 0 1555.96058979 0 3257.78798674 0 -877.38873435 0 4578.79384388 0 1887
0.04250000 0.04250150 40765.97479404 0 1562.63720166 0 4068.59218856 0 -2244.81420606 0 2878.29512591 0 1920
0.04350000 0.04349210 41730.37428575 0 -61.71968517 0 5208.05620797 0 -286.84075398 0 -1518.65792748 0 2005
0.04450000 0.04448520 40539.10285851 0 58.04422695 0 5530.38265577 0 -2237.89400305 0 291.09695564 0 2151
0.04550000 0.04548030 38572.43652422 0 2537.93186098 0 8488.57567757 0 -3139.50234070 0 -956.92013629 0 2274
0.04650000 0.04648670 36902.39777183 0 2409.98007538 0 10594.74223224 0 -1510.78550453 0 -1811.96381192 0 2311
0.04750000 0.04749250 36709.85004323 0 282.84032303 0 12013.91532122 0 -256.57898302 0 337.74908904 0 2568
0.04850000 0.04851840 37461.99306816 0 -776.67929673 0 13897.98211236 0 -2355.22742915 0 -3595.18386861 0 2493
0.04950000 0.04949480 37642.80413245 0 1026.46540848 0 13575.77746014 0 -1485.06449398 0 -1111.10779555 0 2644
0.05050000 0.05050630 37210.31912503 0 1676.82608751 0 16770.91823306 0 -2382.24390171 0 -1090.85208453 0 2829
0.05150000 0.05149060 36686.04454487 0 1020.90267249 0 18451.91858703 0 -889.25826655 0 -1084.26515849 0 2784
0.05250000 0.05249300 35490.89780394 0 1569.19201795 0 18326.91203982 0 1708.89154019 0 486.48805725 0 3055
0.05350000 0.05348950 34850.03164344 0 142.58939901 0 20112.76730982 0 2045.00303238 0 3579.95942199 0 3009
0.05450000 0.05448610 33170.35996845 0 641.87817099 0 17784.47884696 0 4452.69113652 0 918.52906445 0 3336
0.05550000 0.05550870 33607.71679879 0 160.76019127 0 14913.53574473 0 5172.62476855 0 3311.11230307 0 3349
0.05650000 0.05647670 33498.32222958 0 -255.89249888 0 12980.64000114 0 4475.13473893 0 3031.23714863 0 3324
0.05750000 0.05747970 33135.14997553 0 -180.90850075 0 11340.05363276 0 2320.34960597 0 3646.70339600 0 3639
0.05850000 0.05849280 32802.09444498 0 241.42982821 0 10919.32743430 0 1551.60916614 0 2779.07602321 0 3846
0.05950000 0.05951020 32470.47831667 0 632.85201180 0 8669.46424813 0 375.65740752 0 1675.94030152 0 3787
0.06050000 0.06049470 31791.96625178 0 665.89515076 0 10130.93361792 0 580.18760603 0 907.42352265 0 3930
0.06150000 0.06148310 32178.83328094 0 105.67747904 0 9422.98024134 0 -1549.25076095 0 182.37004762 0 4083
0.06250000 0.06249100 32365.18050764 0 -98.55797418 0 11172.30791176 0 -3623.66188805 0 -1466.98338755 0 4303
0.06350000 0.06350600 31608.49782953 0 532.84898850 0 10951.58111650 0 -1065.01370733 0 -1720.10780523 0 4470
0.06450000 0.06451750 31511.83643387 0 72.42064422 0 11492.85171526 0 163.89587366 0 -2459.05261897 0 4479
0.06550000 0.06550280 31993.81473322 0 -213.64493631 0 11216.26504129 0 1657.85919510 0 -2998.96132178 0 4636
0.06650000 0.06648880 31619.23798461 0 757.97149672 0 11986.67740217 0 64.76092063 0 -4827.11287259 0 4653
0.06750000 0.06749660 31339.66178294 0 991.93304183 0 10465.38426139 0 -437.58381300 0 -4266.05602938 0 5220
0.06850000 0.06852730 29903.80270046 0 1325.81124611 0 9989.69504253 0 966.57852523 0 -1619.36072170 0 5029
0.06950000 0.06949320 28871.19768787 0 633.09228125 0 8699.63633326 0 1142.23210062 0 -1215.46445697 0 5040
0.07050000 0.07048030 28924.12340050 0 -810.75769806 0 8389.50051509 0 2390.84709809 0 -3087.93852402 0 5475
0.07150000 0.07148790 29732.07094252 0 35.05475893 0 9484.68630755 0 1167.84238792 0 -2306.58670622 0 5509
0.07250000 0.07249820 29056.54840533 0 640.30036471 0 8724.56013643 0 -308.42514399 0 -2465.86209874 0 5916
0.07350000 0.07351270 28037.00873603 0 1994.02604891 0 9239.36787887 0 -11.28092742 0 1612.81697773 0 5721
0.07450000 0.07449140 27344.87771162 0 1475.76374113 0 10480.08830875 0 -509.93370506 0 1233.75593757 0 6028
0.07550000 0.07549160 26382.69268488 0 28.50171421 0 10780.84586780 0 524.91234607 0 1841.27225572 0 6183
0.07650000 0.07648840 25656.34817677 0 524.74847567 0 10518.07745520 0 924.46272332 0 2620.91893550 0 6330
0.07750000 0.07749960 25382.86175375 0 469.16983401 0 10245.85327721 0 230.43611689 0 1431.91733485 0 6583
0.07850000 0.07848650 25318.64226981 0 258.57532319 0 9807.57744391 0 1049.52020321 0 1185.67990320 0 6549
0.07950000 0.07947320 24926.12835498 0 728.53239949 0 9762.72345607 0 587.78322086 0 1236.38007855 0 6828
0.08050000 0.08048110 23868.72133480 0 312.00814830 0 8547.02648028 0 632.84093947 0 582.29356221 0 7147
0.08150000 0.08149960 23954.86402189 0 590.25788545 0 9017.84387622 0 879.38396728 0 70.09634179 0 7386
0.08250000 0.08250610 23370.35599472 0 526.75588815 0 8895.05179398 0 -150.83606654 0 -218.07275900 0 7227
0.08350000 0.08350160 22766.47139911 0 944.46819980 0 9828.69236734 0 -133.54109517 0 993.19307239 0 7798
0.08450000 0.08449610 21937.92933293 0 928.73553346 0 10206.77904292 0 -438.74862157 0 1094.23910869 0 7371
0.08550000 0.08548940 21685.59105031 0 135.11557976 0 9913.09669943 0 217.42281353 0 1415.43064319 0 8256
0.08650000 0.08650700 21221.77136366 0 411.29257771 0 9979.36456347 0 1340.32706395 0 664.20772845 0 8037
0.08750000 0.08749060 21004.86452046 0 311.27405316 0 8230.51300302 0 1733.87070498 0 725.89829341 0 8155
0.08850000 0.08849210 20700.26486470 0 71.86492424 0 7427.84695994 0 2112.82102189 0 466.90997251 0 8718
0.08950000 0.08949900 20261.57935539 0 125.39518580 0 6022.48106001 0 1708.84725089 0 248.12415579 0 8571
0.09050000 0.09049190 19921.88042995 0 560.47001000 0 5612.83825869 0 866.50906798 0 -26.59517060 0 8932
0.09150000 0.09150830 19284.11452040 0 473.11047441 0 4166.98086690 0 953.46114202 0 7.43669375 0 9285
0.09250000 0.09250820 19351.21280880 0 37.38891572 0 3937.30763319 0 126.16249791 0 752.71989305 0 9204
0.09350000 0.09350330 18838.45344644 0 366.73643541 0 4094.75609211 0 -220.17317902 0 119.32201564 0 9349
0.09450000 0.09448040 18853.17963845 0 326.45531772 0 4798.32482806 0 -841.94068644 0 841.44132459 0 9564
0.09550000 0.09549270 18447.04676411 0 873.75479734 0 5578.29260526 0 -605.95733482 0 784.76763001 0 10155
0.09650000 0.09649430 17892.54473719 0 549.16295189 0 5558.47314383 0 -714.38086114 0 1002.54475794 0 9913
0.09750000 0.09749140 17561.15005537 0 188.15976627 0 6208.14180257 0 548.56726082 0 441.10481229 0 10476
0.09850000 0.09850240 17071.19968214 0 320.55044689 0 6060.52556808 0 1052.46101268 0 797.15756148 0 10575
0.09950000 0.09950330 17287.77435559 0 -33.92128504 0 5717.02883524 0 1129.68715660 0 -35.13769064 0 10882
0.10050000 0.10051200 16779.88681616 0 181.99801751 0 5235.33841633 0 1225.21917513 0 489.30707115 0 10875
0.10150000 0.10150300 16639.15756772 0 253.31264720 0 4707.85286197 0 195.60590471 0 945.10042955 0 11118
0.10250000 0.10250800 16275.32097418 0 381.71507643 0 4573.13588590 0 677.96619927 0 1598.93228241 0 11575
0.10350000 0.10349800 16084.65554080 0 436.64266539 0 4715.06094542 0 69.33301572 0 1861.42388689 0 11364
0.10450000 0.10450100 15928.42503761 0 58.52321572 0 4937.88041007 0 271.76910544 0 1787.67113127 0 12093
0.10550000 0.10551000 15967.95323721 0 19.33593300 0 4162.40799675 0 336.47798615 0 2652.48613355 0 12067
0.10650000 0.10649700 15919.45645451 0 -283.04405380 0 4105.35230696 0 358.89058604 0 1704.90550325 0 12054
0.10750000 0.10749900 15894.98661666 0 189.77743293 0 3715.05285710 0 268.11191655 0 746.55260813 0 12807
0.10850000 0.10850100 15781.27384077 0 485.17045060 0 3693.89364437 0 -77.74709680 0 1582.00269776 0 12736
0.10950000 0.10950300 15147.16179840 0 463.25831978 0 3214.05230371 0 305.56737695 0 843.07781420 0 12933
0.11050000 0.11050200 15060.79766482 0 90.23645774 0 3077.30909220 0 -59.60675343 0 1091.90838432 0 13428
0.11150000 0.11150900 14841.67635666 0 -75.29402323 0 3072.97981319 0 192.40821730 0 566.78344961 0 13453
0.11250000 0.11250000 14843.78009837 0 212.93962921 0 3626.98358549 0 -213.21975903 0 361.11833780 0 13668
0.11350000 0.11349100 14986.50236529 0 123.43316985 0 3889.38661137 0 -590.31878324 0 556.48729476 0 13791
0.11450000 0.11448600 14725.97056230 0 311.33605818 0 4472.62132119 0 -801.49237665 0 864.30899704 0 14205
0.11550000 0.11549300 14725.74911581 0 345.89721287 0 4980.64172852 0 -468.76237245 0 933.56638878 0 14776
0.11650000 0.11649800 14456.35945297 0 271.98612301 0 5215.09820656 0 17.66102243 0 906.59309829 0 14553
0.11750000 0.11747300 14525.34003659 0 30.21349563 0 5247.28545480 0 586.78560439 0 749.65396631 0 14568
0.11850000 0.11849100 14233.58427762 0 133.59756403 0 4774.12072600 0 745.73768502 0 627.20623337 0 16015
0.11950000 0.11950300 14165.26803349 0 292.02481646 0 4447.65322873 0 732.01243118 0 1290.64554249 0 15270
0.12050000 0.12050700 13979.58514628 0 55.46393237 0 3972.86086818 0 486.25443120 0 1150.40347633 0 15999
0.12150000 0.12150000 13930.86691708 0 -8.70209439 0 4137.03022826 0 363.61293258 0 1466.44084363 0 15670
0.12250000 0.12250700 13910.27239291 0 176.32898720 0 3954.17078388 0 168.93821039 0 1658.55675156 0 16887
0.12350000 0.12352200 13799.65986798 0 197.39519240 0 4126.99870198 0 -345.01696305 0 1243.25599226 0 16407
0.12450000 0.12449800 13472.25122309 0 430.20410850 0 4364.40041842 0 -261.90366403 0 751.89057592 0 16306
0.12550000 0.12549900 13286.23616613 0 278.76127856 0 4586.92093030 0 -400.22800352 0 1049.36851236 0 17523
0.12650000 0.12650100 12961.70632570 0 195.64355062 0 4154.55771845 0 163.38211779 0 586.73135000 0 17154
0.12750000 0.12750600 12833.59952755 0 211.45925939 0 4440.75517036 0 39.93322524 0 245.36161075 0 18007
0.12850000 0.12850300 12784.77057510 0 106.87218289 0 3915.04118798 0 154.34156458 0 86.74834326 0 17496
0.12950000 0.12949900 12552.14103066 0 -17.32619532 0 3808.89080994 0 571.98412057 0 448.50444696 0 18405
0.13050000 0.13049000 12692.53810936 0 -69.03638814 0 3195.06326664 0 344.61171596 0 229.90353807 0 18100
0.13150000 0.13148800 12793.84988145 0 -11.32875986 0 3210.05519445 0 540.02274775 0 -550.26354098 0 19059
0.13250000 0.13249300 12590.22982803 0 186.61517696 0 3352.68888276 0 196.97333683 0 349.60311999 0 18957
0.13350000 0.13349100 12325.04764863 0 530.69985026 0 3213.54297677 0 165.51464755 0 278.20101893 0 19468
0.13450000 0.13450700 11996.97466425 0 255.05653836 0 2992.39543316 0 92.26601488 0 601.77088880 0 19953
0.13550000 0.13551000 11824.80001332 0 -20.02961415 0 3042.44234134 0 231.23221705 0 485.80046588 0 19956
0.13650000 0.13649900 11843.18007252 0 84.23913301 0 3303.71599009 0 -56.98239100 0 412.78180540 0 19723
0.13750000 0.13749600 11900.31326858 0 117.71874301 0 3211.71604317 0 -36.42440551 0 782.61959899 0 20946
0.13850000 0.13851100 11723.15607149 0 173.62180378 0 3288.55797741 0 -135.67583940 0 997.48249103 0 20955
0.13950000 0.13949800 11628.37697104 0 176.88481791 0 3298.89952879 0 -231.45366354 0 574.19194214 0 20506
0.14050000 0.14048300 11563.82531735 0 278.25970225 0 3831.26797840 0 -68.65383931 0 935.93254460 0 21447
0.14150000 0.14148400 11458.30606182 0 217.24344187 0 3778.69658016 0 -112.50035632 0 363.57860837 0 21771
0.14250000 0.14249400 11229.44110782 0 5.92748051 0 3866.37832040 0 -0.60569049 0 -39.31981845 0 22470
0.14350000 0.14350900 11177.29045793 0 206.52100252 0 3721.10941878 0 -114.13573870 0 -225.08707677 0 22519
0.14450000 0.14449900 11055.88241629 0 219.91076492 0 3727.57565647 0 -52.91973358 0 -238.29636028 0 22218
0.14550000 0.14550500 10656.28221359 0 343.39708193 0 3467.40924021 0 -40.19674658 0 -459.72071201 0 23559
0.14650000 0.14650700 10657.40051839 0 267.36674909 0 3209.49050588 0 124.13626247 0 -411.20067742 0 23044
0.14750000 0.14750500 10341.94998431 0 129.33139728 0 3381.56550589 0 123.03235169 0 -534.60395199 0 23649
0.14850000 0.14849900 10141.54090509 0 217.76494837 0 3595.39424279 0 207.09454894 0 -224.80916142 0 23640
0.14950000 0.14949500 10052.04330358 0 84.73163001 0 3636.79366528 0 426.09627600 0 -54.35769640 0 24457
0.15050000 0.15050000 10040.81596622 0 46.95983330 0 3336.72259037 0 540.71587529 0 247.23061918 0 24591
0.15150000 0.15149900 10000.37983598 0 218.88878934 0 3407.43045666 0 317.80672480 0 335.56894828 0 25020
0.15250000 0.15250500 9755.24963682 0 218.20562690 0 3320.44627289 0 111.55588701 0 485.50704928 0 25297
0.15350000 0.15350100 9577.85992090 0 103.71103416 0 3114.19100617 0 80.87879315 0 759.80507371 0 25452
0.15450000 0.15450400 9562.97871634 0 -27.73462355 0 3126.03839372 0 -79.08252989 0 476.23176277 0 26061
0.15550000 0.15549900 9509.33330260 0 109.26258710 0 3061.37601678 0 -90.95228354 0 243.67972461 0 26128
0.15650000 0.15649500 9460.32719295 0 216.63003508 0 3079.62320808 0 -161.70687505 0 67.89405639 0 26331
0.15750000 0.15749700 9313.02098356 0 230.13716412 0 3137.43181596 0 38.00785868 0 228.12753717 0 27345
0.15850000 0.15849900 9058.50145296 0 113.51347404 0 2969.63073334 0 -30.21172405 0 -53.80884126 0 26980
0.15950000 0.15949700 9072.28649735 0 32.72159864 0 3021.20562234 0 420.38074192 0 168.18418507 0 27777
0.16050000 0.16050000 9075.09886786 0 -88.65245096 0 3002.37159782 0 308.11401166 0 11.27184811 0 28224
0.16150000 0.16150500 9147.43436590 0 -122.88398253 0 2735.09674903 0 514.10243535 0 192.24766859 0 28075
0.16250000 0.16249700 9096.54596103 0 112.08292967 0 2745.49366203 0 117.13412426 0 -39.32336159 0 28590
0.16350000 0.16349900 8902.86885530 0 299.90831174 0 2482.89133431 0 15.37580531 0 -43.44592029 0 29163
0.16450000 0.16449100 8830.68836981 0 202.12528956 0 2439.39924242 0 -46.38207939 0 -193.07698572 0 28996
0.16550000 0.16550500 8581.30639792 0 220.48763304 0 2465.85102641 0 -261.36333458 0 31.36856055 0 30777
0.16650000 0.16650700 8468.32439547 0 165.92764527 0 2600.22476041 0 78.22298532 0 -166.55987501 0 29211
0.16750000 0.16749900 8366.11576507 0 90.37098649 0 2412.23882964 0 -140.12469951 0 -51.86919140 0 30922
0.16850000 0.16850800 8488.32101409 0 -19.31699933 0 2577.52649453 0 58.23101707 0 22.21108359 0 30867
0.16950000 0.16949900 8393.58620295 0 48.86294449 0 2469.99207589 0 167.75568609 0 -164.20036260 0 30852
0.17050000 0.17049200 8395.41313654 0 99.44287438 0 2593.95782456 0 132.50694003 0 367.00106397 0 31257
0.17150000 0.17149500 8339.42038993 0 66.23409345 0 2734.10023979 0 293.79085227 0 395.89983175 0 32608
0.17250000 0.17250900 8266.23232288 0 130.53385175 0 2651.92144499 0 193.97827296 0 696.24771478 0 32361
0.17350000 0.17350400 8072.47771088 0 165.31423847 0 2843.48373668 0 102.10776152 0 298.14670486 0 32508
0.17450000 0.17449800 8087.64679588 0 85.02870049 0 2585.37677283 0 150.16065473 0 556.10751402 0 32791
0.17550000 0.17549800 7968.13212179 0 -51.05681493 0 2615.58207493 0 83.75914773 0 607.45431313 0 33633
0.17650000 0.17650100 8131.75893796 0 -46.17436257 0 2282.59297834 0 186.24314684 0 361.19916577 0 33984
0.17750000 0.17750300 8091.53318189 0 51.66169603 0 2229.11364946 0 8.75692454 0 194.80205393 0 34069
0.17850000 0.17849800 7961.76553502 0 244.94196964 0 2239.03445250 0 6.15703195 0 -1.61572900 0 34536
