### header ###
fiducial parameters:
Omega_m = 0.31
Omega_nu = 0
Omega_de = 0.69
Omega_k = 0
H_0 = 100
w_de = -1
zeff = 0
beta = 0
fgrowth = 0
b_1 = 2
gamma = 0.55
Lx = 3500 Ly = 3500 Lz = 3500
nx = 700 ny = 700 nz = 700
xoffset = -685.467585 yoffset = -31.7331281 zoffset = 572.489161
bins = 400 dk = 0.001
kx_ny = 0.628318531 ky_ny = 0.628318531 kz_ny = 0.628318531
############################
A(data) = 8.04975375 (not used)
A(ran) = 8.05396506 (used)
Ngal = 478528
weighted Ngal = 0
Nran = 23820508
weighted Nran = 0
SN(data) = 3480.78739
SN(ran) = 70.1529566
SN(data+ran) = 3550.94035
############################
13 columns: k_central k_mean P_0(k) sigma^{lin}_{P_0(k)} P^img_1(k) sigma^{lin}_{P_1(k)} P_2(k) sigma^{lin}_{P_2(k)} P^img_3(k) sigma^{lin}_{P_3(k)} P_4(k) sigma^{lin}_{P_4(k)} N_modes
### header ###
0.00050000 0 0 0 0 0 0 0 0 0 0 0 0
0.00150000 0.00179520 79941.74229763 0 -78635.87230852 0 -52036.82639669 0 114235.38961894 0 -118539.20227595 0 3
0.00250000 0.00253879 125305.49997262 0 -57272.81808018 0 10952.42261319 0 -89860.77376317 0 99860.41175339 0 6
0.00350000 0.00331552 133002.98018654 0 -6166.26627010 0 -22571.70920555 0 -75849.07887492 0 -6444.89025184 0 7
0.00450000 0.00420575 119144.85844353 0 29724.65248489 0 3727.08847418 0 -56173.11477919 0 62103.56267531 0 24
0.00550000 0.00557378 98834.11796595 0 4660.92834938 0 20201.45663162 0 -15814.93370822 0 2086.81213090 0 45
0.00650000 0.00659388 84285.63677048 0 -7183.77970396 0 17490.84079277 0 58760.60636606 0 27626.22548526 0 40
0.00750000 0.00754703 104226.11870613 0 -8707.33159901 0 52509.28249670 0 -13895.54620090 0 -16905.33625636 0 57
0.00850000 0.00846663 99066.96895688 0 12778.57007320 0 51831.76694105 0 14038.26846782 0 45097.02537011 0 75
0.00950000 0.00948925 108048.17451028 0 3623.97191314 0 41569.93629913 0 47585.97326609 0 17577.86926584 0 112
0.01050000 0.01054430 79049.42364050 0 11005.84658044 0 27321.73655275 0 23040.95433136 0 35906.99577063 0 105
0.01150000 0.01145670 94459.66387659 0 4155.85318046 0 23524.92564919 0 28402.06328530 0 24029.60221442 0 144
0.01250000 0.01249090 74008.41559707 0 1395.60010944 0 -9872.04051901 0 19399.70959150 0 29921.96131316 0 169
0.01350000 0.01339930 77670.91920058 0 3406.98756367 0 -3977.54446158 0 10442.85208038 0 17803.96613864 0 180
0.01450000 0.01448870 77175.21121845 0 -4420.81391337 0 -31277.54604070 0 6197.22449030 0 15547.42634060 0 267
0.01550000 0.01550050 78215.12396541 0 -7751.88961808 0 -18907.54475331 0 826.44275339 0 8867.93567050 0 238
0.01650000 0.01653350 74956.76021778 0 60.56583820 0 -31499.65687657 0 -11812.06683978 0 8999.59668492 0 315
0.01750000 0.01747870 80896.73031324 0 5009.40762840 0 -24791.48888519 0 -4976.98786133 0 11045.81767303 0 297
0.01850000 0.01844180 80485.28272298 0 -5814.95247593 0 -13417.22176874 0 -19206.38680017 0 6021.48455077 0 388
0.01950000 0.01947590 78848.68239154 0 8388.52615050 0 3557.42724098 0 -21945.01562081 0 9503.61998299 0 399
0.02050000 0.02045430 80073.83513272 0 7502.54086317 0 14753.76209760 0 -14474.85023542 0 10240.05137900 0 462
0.02150000 0.02154770 69675.59344903 0 -21.86529488 0 26682.19907122 0 -6238.30281537 0 -3702.78472120 0 571
0.02250000 0.02255340 76768.63545111 0 -790.43001692 0 31052.88857013 0 1805.39792330 0 -5824.93971292 0 510
0.02350000 0.02348930 69825.40200383 0 -145.83469742 0 36481.31725897 0 6701.02634187 0 -14924.60806955 0 555
0.02450000 0.02439640 68493.06915840 0 3800.12152868 0 15199.64461804 0 14772.58504979 0 -14825.40003917 0 592
0.02550000 0.02547300 67732.28972011 0 397.03363781 0 11044.12360733 0 2990.03702798 0 -15972.16072064 0 837
0.02650000 0.02652900 67797.61643654 0 2276.31497017 0 3588.44082280 0 -728.47703786 0 -12169.48148493 0 723
0.02750000 0.02749970 61009.83842972 0 3830.49291566 0 1009.13722013 0 5451.09373774 0 -11192.23809643 0 826
0.02850000 0.02848090 59245.35274662 0 1572.72408957 0 462.40132184 0 -2816.21260065 0 -13577.32758562 0 831
0.02950000 0.02946900 58539.93493242 0 361.84357507 0 4318.04059440 0 -3736.64389050 0 -16537.62434913 0 996
0.03050000 0.03053250 58407.28848110 0 2515.05643791 0 7219.22221571 0 -6731.57488604 0 -12987.17267278 0 1041
0.03150000 0.03150510 58092.61300975 0 2360.61965134 0 5406.45012407 0 -9752.28225377 0 -8216.83868187 0 1036
0.03250000 0.03246190 57959.63438868 0 1985.05746581 0 12482.60683080 0 -8897.99703238 0 -2522.23130439 0 1059
0.03350000 0.03345080 56537.39426572 0 1163.07021593 0 17750.59753301 0 -957.31763275 0 -4918.21596119 0 1302
0.03450000 0.03451200 56502.51644254 0 542.34018534 0 19612.40895127 0 1775.69087582 0 -5849.32097217 0 1339
0.03550000 0.03553350 55566.24065588 0 2290.93043893 0 17744.61847761 0 4558.36540459 0 -5470.81354824 0 1365
0.03650000 0.03647120 51729.68010622 0 2723.57045889 0 17161.88202241 0 1068.86909083 0 -6214.08764099 0 1308
0.03750000 0.03744890 53324.53777310 0 -455.79557286 0 14213.65409294 0 2645.67665379 0 -6050.62690970 0 1579
0.03850000 0.03847530 51819.47666050 0 278.91296941 0 17199.19575704 0 -1509.83328460 0 -4422.57441301 0 1662
0.03950000 0.03950240 51710.19281454 0 3432.63106795 0 12501.76195273 0 -637.09714113 0 -9621.83919508 0 1683
0.04050000 0.04050350 48250.75564820 0 2507.68226958 0 16181.87055271 0 -778.31025017 0 -1795.55462654 0 1822
0.04150000 0.04152450 47994.65277515 0 241.13862606 0 14588.78445780 0 1493.39088224 0 -8101.07752589 0 1887
0.04250000 0.04250150 46988.84278862 0 439.97322069 0 13865.31875415 0 6992.31706320 0 -3954.01577134 0 1920
0.04350000 0.04349210 47050.62636111 0 -501.11349111 0 11136.65502584 0 3699.36337283 0 -7828.88656487 0 2005
0.04450000 0.04448520 45709.54637907 0 509.92927613 0 7720.56601117 0 2778.46704534 0 -3905.24218051 0 2151
0.04550000 0.04548030 45014.09365721 0 2036.12302788 0 8973.64315555 0 401.85784974 0 -4465.13642962 0 2274
0.04650000 0.04648670 43541.91734933 0 2502.15717949 0 8437.26652436 0 -2645.48842427 0 -195.23498183 0 2311
0.04750000 0.04749250 42156.76951451 0 1531.70112611 0 10344.23088322 0 -1454.16163541 0 -4101.77594604 0 2568
0.04850000 0.04851840 39645.67696889 0 1219.77159132 0 12092.19665769 0 -1250.47514804 0 -2613.85479226 0 2493
0.04950000 0.04949480 39970.87114882 0 730.96277479 0 12504.53003394 0 603.08295929 0 -1762.19371186 0 2644
0.05050000 0.05050630 38263.51866178 0 -202.32680588 0 13024.37568417 0 846.35632958 0 -4111.24278376 0 2829
0.05150000 0.05149060 39350.71023572 0 176.60911702 0 12022.77318108 0 2063.07306648 0 -893.81231375 0 2784
0.05250000 0.05249300 38041.51854917 0 1101.66863864 0 11666.68721491 0 1602.82974075 0 -1800.02784577 0 3055
0.05350000 0.05348950 38118.58192991 0 798.41648481 0 12277.65809840 0 -145.82916126 0 -461.04496205 0 3009
0.05450000 0.05448610 37007.25268786 0 1656.51944379 0 11303.29351436 0 -264.10262774 0 565.44702000 0 3336
0.05550000 0.05550870 37234.01390014 0 312.89061259 0 14821.63544874 0 -2186.18624614 0 141.54638602 0 3349
0.05650000 0.05647670 37435.64093509 0 -66.79745334 0 15525.39241421 0 -1660.79336117 0 -3027.37290726 0 3324
0.05750000 0.05747970 36484.97112616 0 2207.06865075 0 18298.45616504 0 -1925.51050294 0 -242.49941478 0 3639
0.05850000 0.05849280 35146.21633234 0 2114.75867874 0 18122.29547717 0 1453.65230847 0 242.74189870 0 3846
0.05950000 0.05951020 32874.61817255 0 875.96261891 0 16523.34105011 0 2569.03402140 0 -563.47725342 0 3787
0.06050000 0.06049470 33055.31851359 0 -52.31684549 0 18079.55630337 0 5792.32064400 0 1163.91171261 0 3930
0.06150000 0.06148310 32900.85958237 0 -591.78918798 0 14601.29618485 0 3010.52082889 0 -1784.30514452 0 4083
0.06250000 0.06249100 33373.20495913 0 -73.21906956 0 15028.79864609 0 3543.36538846 0 1780.65127733 0 4303
0.06350000 0.06350600 33301.67774080 0 4.59221350 0 13058.58916786 0 -107.77036988 0 3166.95063393 0 4470
0.06450000 0.06451750 34246.03632458 0 -728.11165114 0 12494.56494160 0 292.20418813 0 312.60162491 0 4479
0.06550000 0.06550280 32580.53722536 0 741.16370764 0 11528.50460117 0 972.25973509 0 1779.96479320 0 4636
0.06650000 0.06648880 32874.95034229 0 1053.54388605 0 12746.12816148 0 -855.54525195 0 1205.62116020 0 4653
0.06750000 0.06749660 31649.02253837 0 684.46122501 0 11518.31806234 0 -412.43524163 0 991.15687186 0 5220
0.06850000 0.06852730 31198.04674851 0 730.79226098 0 11863.88531993 0 425.76299902 0 -1969.04688412 0 5029
0.06950000 0.06949320 30827.78820657 0 589.84378051 0 10564.07189250 0 1045.59174237 0 59.13761903 0 5040
0.07050000 0.07048030 30069.55540299 0 504.59352280 0 9324.68014160 0 1771.85985143 0 -2367.84987944 0 5475
0.07150000 0.07148790 29993.26708499 0 989.75733000 0 9566.40006471 0 -462.74677838 0 -1695.60475040 0 5509
0.07250000 0.07249820 28825.91187936 0 995.96115360 0 9684.68571075 0 747.42178563 0 -236.40520720 0 5916
0.07350000 0.07351270 27437.99596334 0 1179.29117178 0 9911.55764628 0 -87.30140588 0 2045.27984050 0 5721
0.07450000 0.07449140 28052.84216052 0 89.33694208 0 10318.76453614 0 2514.11529030 0 2805.07384188 0 6028
0.07550000 0.07549160 27034.18827721 0 -248.58697897 0 9685.02895282 0 2355.94713026 0 2306.86351434 0 6183
0.07650000 0.07648840 27424.15555732 0 649.88899800 0 9462.63023651 0 1672.24214504 0 1570.76428807 0 6330
0.07750000 0.07749960 26798.67992831 0 310.15131943 0 8896.63513643 0 550.22257338 0 2553.07880133 0 6583
0.07850000 0.07848650 26514.01045723 0 334.32331174 0 9404.62232679 0 69.17434930 0 2885.72465586 0 6549
0.07950000 0.07947320 26179.51552446 0 930.24136964 0 8700.37817902 0 -66.57035995 0 3330.38922058 0 6828
0.08050000 0.08048110 25432.46576894 0 1055.98422644 0 9541.52055084 0 -83.56936808 0 3247.71217116 0 7147
0.08150000 0.08149960 24697.04195449 0 11.79047581 0 8406.16436394 0 909.83507500 0 4121.77256466 0 7386
0.08250000 0.08250610 24977.06104915 0 217.85684867 0 9041.26184321 0 220.49316921 0 2806.02606182 0 7227
0.08350000 0.08350160 24624.40750368 0 482.73121744 0 9157.56554311 0 -531.67310761 0 2734.31061396 0 7798
0.08450000 0.08449610 23841.70486225 0 1285.68514097 0 9373.70839589 0 -68.61065725 0 2868.06429777 0 7371
0.08550000 0.08548940 22912.18319372 0 1090.65278268 0 9025.63879289 0 517.30676615 0 5190.42906686 0 8256
0.08650000 0.08650700 22356.57393432 0 299.26390243 0 9552.41571847 0 872.23788884 0 4108.64078743 0 8037
0.08750000 0.08749060 21804.83998861 0 542.11984607 0 9803.36996048 0 803.51861209 0 4431.95267213 0 8155
0.08850000 0.08849210 21103.74038109 0 729.21556193 0 10079.02655917 0 254.81073275 0 4001.91464850 0 8718
0.08950000 0.08949900 20368.64873638 0 982.34662300 0 10284.45140153 0 651.89308879 0 4383.32302153 0 8571
0.09050000 0.09049190 19613.18401401 0 647.45308654 0 9720.01749925 0 -82.28807865 0 3278.59288507 0 8932
0.09150000 0.09150830 19438.79489811 0 363.12796475 0 9940.76643916 0 441.49012919 0 3704.11340018 0 9285
0.09250000 0.09250820 18910.31283452 0 275.25799499 0 8929.46457952 0 654.20277575 0 3113.10591834 0 9204
0.09350000 0.09350330 19032.32985402 0 -67.57628066 0 8276.27492149 0 765.59589959 0 2937.23311092 0 9349
0.09450000 0.09448040 19085.14484340 0 -594.78978800 0 7429.02062637 0 1231.81828072 0 1045.08352266 0 9564
0.09550000 0.09549270 18874.99211835 0 424.21176631 0 6728.46356277 0 723.64396808 0 584.08284990 0 10155
0.09650000 0.09649430 18775.67336472 0 476.07453576 0 5627.74160790 0 427.55560841 0 890.12855129 0 9913
0.09750000 0.09749140 18475.39191564 0 271.28303038 0 6046.84017461 0 228.71437038 0 878.21694425 0 10476
0.09850000 0.09850240 18035.59917384 0 178.86787128 0 5788.99894656 0 113.69616740 0 1399.26504896 0 10575
0.09950000 0.09950330 17940.70935015 0 486.45373305 0 7035.55449161 0 -276.15042437 0 1601.88859314 0 10882
0.10050000 0.10051200 17656.15060231 0 507.47675618 0 7043.54871013 0 290.62970354 0 2992.94904940 0 10875
0.10150000 0.10150300 17182.25510007 0 268.07980681 0 7687.12759022 0 269.19257546 0 3811.78068672 0 11118
0.10250000 0.10250800 17354.54047425 0 180.23862510 0 7332.66925580 0 436.84971786 0 2649.50767818 0 11575
0.10350000 0.10349800 17129.55083393 0 84.46312614 0 8123.80900874 0 73.51802233 0 2841.93361120 0 11364
0.10450000 0.10450100 16811.11077215 0 446.14382731 0 6854.73235500 0 -65.19384853 0 2095.73642470 0 12093
0.10550000 0.10551000 16303.44467922 0 375.27762678 0 6856.04996165 0 301.75185382 0 1554.85335731 0 12067
0.10650000 0.10649700 16091.29893569 0 192.09929944 0 6227.93911934 0 494.90745305 0 885.17147146 0 12054
0.10750000 0.10749900 15829.65990023 0 150.60133325 0 5587.07295884 0 708.67529216 0 740.45840055 0 12807
0.10850000 0.10850100 15797.88232800 0 14.32670253 0 5018.76374287 0 952.10478223 0 -50.40996971 0 12736
0.10950000 0.10950300 15924.77117042 0 -18.43398142 0 4778.26177549 0 181.02254569 0 801.40933421 0 12933
0.11050000 0.11050200 15795.55713978 0 256.51697800 0 5199.60802414 0 -486.45594751 0 977.25335359 0 13428
0.11150000 0.11150900 15348.01377061 0 486.38508463 0 5340.87981650 0 -222.42307542 0 1505.76974139 0 13453
0.11250000 0.11250000 15502.91559483 0 74.17228600 0 5535.69737168 0 296.40945709 0 1688.11985883 0 13668
0.11350000 0.11349100 15453.31157964 0 -302.74614859 0 5830.21013953 0 216.61453382 0 1077.49443187 0 13791
0.11450000 0.11448600 15802.86487416 0 -10.28497180 0 5883.12477984 0 560.75013981 0 949.48507017 0 14205
0.11550000 0.11549300 15496.16147669 0 278.19548277 0 5395.24493136 0 -299.08342354 0 337.88306417 0 14776
0.11650000 0.11649800 15338.38084802 0 467.14913473 0 5607.36853023 0 229.67987711 0 1411.12350884 0 14553
0.11750000 0.11747300 14993.69937642 0 219.68378226 0 5898.79211946 0 192.01625700 0 1627.50995277 0 14568
0.11850000 0.11849100 14952.84249784 0 62.62174748 0 5615.91636499 0 531.68750163 0 1431.00940421 0 16015
0.11950000 0.11950300 14925.05096254 0 68.49262627 0 5795.18837613 0 606.07248699 0 1727.67020308 0 15270
0.12050000 0.12050700 14938.55919882 0 99.49624299 0 5742.57268859 0 751.33031629 0 1553.43609973 0 15999
0.12150000 0.12150000 14674.04135890 0 294.05880253 0 5606.51596122 0 -257.09938229 0 1929.29723803 0 15670
0.12250000 0.12250700 14180.54784174 0 626.43781403 0 5262.19987634 0 164.66429301 0 1733.80427103 0 16887
0.12350000 0.12352200 13712.29922516 0 483.29147708 0 5559.79075049 0 251.07050143 0 1986.88439941 0 16407
0.12450000 0.12449800 13304.28405559 0 274.09540089 0 5085.98382685 0 327.56144297 0 1190.46314753 0 16306
0.12550000 0.12549900 13028.91533735 0 112.11393218 0 4959.67074532 0 193.67821296 0 902.00472689 0 17523
0.12650000 0.12650100 12926.49633278 0 205.19896693 0 4463.36485764 0 376.16562723 0 1137.76995371 0 17154
0.12750000 0.12750600 12901.25143219 0 -22.36620686 0 4611.41291279 0 559.17122629 0 1092.92814543 0 18007
0.12850000 0.12850300 12911.32724778 0 -138.97982112 0 4484.16975598 0 89.30516450 0 881.54749955 0 17496
0.12950000 0.12949900 12901.69432518 0 233.86078696 0 4718.80339121 0 -427.37845121 0 793.99862721 0 18405
0.13050000 0.13049000 12811.12270817 0 367.03317372 0 4939.44160787 0 -144.10409305 0 698.66812499 0 18100
0.13150000 0.13148800 12381.07361221 0 496.91597277 0 4751.71034057 0 -162.38450133 0 1102.21339702 0 19059
0.13250000 0.13249300 12179.66802376 0 180.36042067 0 4591.39414952 0 385.51177661 0 1215.03263630 0 18957
0.13350000 0.13349100 12025.65198553 0 -74.28123768 0 4441.02090616 0 643.33307447 0 905.59216013 0 19468
0.13450000 0.13450700 12258.83514621 0 -118.84922737 0 3901.75439819 0 793.64209835 0 452.02544626 0 19953
0.13550000 0.13551000 12099.17222233 0 36.67607945 0 3408.28302568 0 287.41983657 0 65.48482923 0 19956
0.13650000 0.13649900 12048.46097466 0 303.03624350 0 3480.26420932 0 -42.23128626 0 302.59556497 0 19723
0.13750000 0.13749600 11978.37315856 0 165.67851796 0 3415.38038588 0 -295.02652372 0 726.04223364 0 20946
0.13850000 0.13851100 11798.89077325 0 112.94657101 0 3921.55171497 0 -214.90385964 0 286.05572615 0 20955
0.13950000 0.13949800 11760.35908288 0 76.18479176 0 3770.15981772 0 -7.99300056 0 519.46254780 0 20506
0.14050000 0.14048300 11613.42933253 0 230.53687505 0 4220.86987179 0 306.35129755 0 339.02794255 0 21447
0.14150000 0.14148400 11442.02974434 0 211.58105496 0 3744.23950532 0 292.55075189 0 677.84108200 0 21771
0.14250000 0.14249400 11365.29853335 0 169.29473924 0 3933.76448924 0 747.05307721 0 677.41369026 0 22470
0.14350000 0.14350900 10949.42201316 0 241.80960895 0 3356.22095438 0 315.04860869 0 767.86129724 0 22519
0.14450000 0.14449900 10750.00944318 0 266.41452916 0 3178.60979196 0 301.11630237 0 449.91506115 0 22218
0.14550000 0.14550500 10637.54783999 0 137.52491764 0 3079.72285901 0 181.14434127 0 1020.99789448 0 23559
0.14650000 0.14650700 10433.17486849 0 123.52285568 0 2961.73616574 0 186.01616419 0 1295.10768939 0 23044
0.14750000 0.14750500 10411.99351111 0 116.62811901 0 2845.85321419 0 342.93868768 0 963.44173561 0 23649
0.14850000 0.14849900 10359.20066638 0 90.49300351 0 3001.77369228 0 -184.66091163 0 1468.40064512 0 23640
0.14950000 0.14949500 10261.26595336 0 204.75496671 0 3174.88949082 0 -5.15840790 0 1437.30955703 0 24457
0.15050000 0.15050000 10247.82415103 0 125.25456728 0 3291.14890142 0 -263.48036308 0 1182.55750761 0 24591
0.15150000 0.15149900 10181.84416743 0 99.72388999 0 3407.60761386 0 -137.68214465 0 1369.50263984 0 25020
0.15250000 0.15250500 9965.00375818 0 164.95770961 0 3487.11797838 0 72.13010641 0 1269.79635485 0 25297
0.15350000 0.15350100 9997.97714149 0 227.02584085 0 3253.43656309 0 296.45374639 0 1320.52974717 0 25452
0.15450000 0.15450400 9768.17103988 0 118.65878338 0 3235.49939688 0 362.76368527 0 1359.50433053 0 26061
0.15550000 0.15549900 9525.98607912 0 160.12021090 0 2941.08627995 0 341.91892656 0 1261.31495404 0 26128
0.15650000 0.15649500 9617.83101349 0 61.23648892 0 3039.88463431 0 116.65137089 0 1013.56393560 0 26331
0.15750000 0.15749700 9307.41838720 0 126.63639342 0 2839.56413369 0 -36.13364626 0 1397.34953676 0 27345
0.15850000 0.15849900 9358.01891162 0 86.02343815 0 2836.38637647 0 276.47927242 0 1206.89447756 0 26980
0.15950000 0.15949700 9254.54803619 0 83.31404027 0 2825.32512397 0 -57.70607815 0 1101.50587547 0 27777
0.16050000 0.16050000 9177.92754845 0 173.30513529 0 2897.17343972 0 138.87020511 0 965.21552204 0 28224
0.16150000 0.16150500 9147.26828103 0 146.13586465 0 2919.19629379 0 42.52669589 0 940.82540493 0 28075
0.16250000 0.16249700 8931.20293452 0 118.20592530 0 2932.84847029 0 -177.99980102 0 1197.26155497 0 28590
0.16350000 0.16349900 8915.59095652 0 119.24450937 0 2969.01068315 0 180.73687971 0 772.73533463 0 29163
0.16450000 0.16449100 8887.62226403 0 9.93246220 0 2987.99972021 0 65.46368109 0 881.38695084 0 28996
0.16550000 0.16550500 8682.27492794 0 147.94951146 0 2862.07417005 0 111.93898945 0 542.80743744 0 30777
0.16650000 0.16650700 8634.85216074 0 168.71233496 0 2621.62756429 0 184.03200358 0 563.36985187 0 29211
0.16750000 0.16749900 8538.24612670 0 78.07395182 0 2427.13110652 0 69.44307463 0 395.51230038 0 30922
0.16850000 0.16850800 8369.48175182 0 32.90617430 0 2269.61621365 0 197.74286340 0 430.23178932 0 30867
0.16950000 0.16949900 8452.16987356 0 -14.46034549 0 1995.38794487 0 353.91911220 0 129.76875411 0 30852
0.17050000 0.17049200 8490.39153884 0 -112.85134902 0 1695.58260575 0 399.95562433 0 -56.37994581 0 31257
0.17150000 0.17149500 8410.42720900 0 59.51762121 0 1626.91204723 0 95.93316886 0 -91.04252299 0 32608
0.17250000 0.17250900 8370.54469500 0 183.71865679 0 1695.99228177 0 -190.87137862 0 -561.83965658 0 32361
0.17350000 0.17350400 8270.43980631 0 215.86050850 0 1572.81266816 0 -366.06877422 0 -213.43234767 0 32508
0.17450000 0.17449800 8166.10528955 0 211.01525916 0 1990.95901494 0 -394.66305307 0 32.16610011 0 32791
0.17550000 0.17549800 8014.13763141 0 113.42046651 0 2126.32925817 0 -20.82781805 0 172.91760393 0 33633
0.17650000 0.17650100 8089.35193390 0 36.60211632 0 2372.38953262 0 68.04021107 0 56.51203864 0 33984
0.17750000 0.17750300 7894.41258315 0 90.64369785 0 2170.18673678 0 213.26737003 0 350.92404834 0 34069
0.17850000 0.17849800 8041.74093718 0 142.57611222 0 2383.98225670 0 137.59799499 0 -36.79743213 0 34536
