### header ###
fiducial parameters:
Omega_m = 0.31
Omega_nu = 0
Omega_de = 0.69
Omega_k = 0
H_0 = 100
w_de = -1
zeff = 0
beta = 0
fgrowth = 0
b_1 = 2
gamma = 0.55
Lx = 3500 Ly = 3500 Lz = 3500
nx = 700 ny = 700 nz = 700
xoffset = -685.467585 yoffset = -31.7331281 zoffset = 572.489161
bins = 400 dk = 0.001
kx_ny = 0.628318531 ky_ny = 0.628318531 kz_ny = 0.628318531
############################
A(data) = 8.06657697 (not used)
A(ran) = 8.06967982 (used)
Ngal = 479250
weighted Ngal = 0
Nran = 23820508
weighted Nran = 0
SN(data) = 3486.19882
SN(ran) = 70.2898378
SN(data+ran) = 3556.48866
############################
13 columns: k_central k_mean P_0(k) sigma^{lin}_{P_0(k)} P^img_1(k) sigma^{lin}_{P_1(k)} P_2(k) sigma^{lin}_{P_2(k)} P^img_3(k) sigma^{lin}_{P_3(k)} P_4(k) sigma^{lin}_{P_4(k)} N_modes
### header ###
0.00050000 0 0 0 0 0 0 0 0 0 0 0 0
0.00150000 0.00179520 30669.56468491 0 -28350.90914464 0 -10317.30298926 0 14624.10517397 0 -75302.54892187 0 3
0.00250000 0.00253879 49499.82461099 0 -20481.14355654 0 -17854.45593981 0 14031.07145668 0 74407.90507652 0 6
0.00350000 0.00331552 55276.25646888 0 -11911.71776315 0 -1398.29068437 0 -52483.92687287 0 -1947.79909280 0 7
0.00450000 0.00420575 55683.05368272 0 -2827.11884059 0 -14335.11749621 0 -4227.02608439 0 10351.14001391 0 24
0.00550000 0.00557378 63596.55495385 0 -4342.99761454 0 -11177.40118118 0 1814.76511010 0 -6329.15124051 0 45
0.00650000 0.00659388 57092.67135538 0 8768.36225341 0 6515.88599858 0 4332.37925504 0 12387.93845360 0 40
0.00750000 0.00754703 58431.86904219 0 4703.11390694 0 7356.57440508 0 -5849.56456331 0 23807.49137856 0 57
0.00850000 0.00846663 54065.71919646 0 -827.66956698 0 26982.48052030 0 13122.14431232 0 27677.15817943 0 75
0.00950000 0.00948925 63273.13234590 0 -11032.64160650 0 33608.38113828 0 18960.13829620 0 24323.24026861 0 112
0.01050000 0.01054430 78628.34312765 0 -8676.97128435 0 35688.98169495 0 24227.46465893 0 17091.46203656 0 105
0.01150000 0.01145670 87935.73937020 0 -5790.99196502 0 43319.14217398 0 12223.18226030 0 23485.28672633 0 144
0.01250000 0.01249090 92215.63580560 0 2550.53216662 0 31464.22543715 0 7200.11138307 0 31299.91213684 0 169
0.01350000 0.01339930 97952.42874064 0 -8794.95797762 0 19023.13982442 0 11735.66779853 0 15096.45055074 0 180
0.01450000 0.01448870 103730.85361699 0 -4514.51899831 0 24872.75974936 0 9261.81148128 0 -3701.47818687 0 267
0.01550000 0.01550050 99055.34301582 0 9087.30056981 0 30683.73726068 0 -19127.88401720 0 -9802.58382542 0 238
0.01650000 0.01653350 84723.10432407 0 22802.45645477 0 29871.02861899 0 -26297.43578377 0 -27123.65266174 0 315
0.01750000 0.01747870 75845.97862397 0 17581.96602602 0 37028.62227476 0 -16679.46083006 0 -20119.18925822 0 297
0.01850000 0.01844180 67220.30542050 0 -4196.78756531 0 47027.26375574 0 561.59606543 0 -12486.59286773 0 388
0.01950000 0.01947590 76178.36981502 0 -10089.25738730 0 48150.21893885 0 9883.92112354 0 -43007.45623033 0 399
0.02050000 0.02045430 83683.52374685 0 -3952.74245398 0 46588.57824643 0 11198.32787508 0 -37452.91376181 0 462
0.02150000 0.02154770 83856.91635351 0 4141.66953236 0 47845.06566685 0 3207.99574203 0 -18518.90615218 0 571
0.02250000 0.02255340 75185.73589503 0 8075.89905925 0 37010.13149231 0 5653.72835425 0 -11745.30072112 0 510
0.02350000 0.02348930 73434.09410872 0 4416.06388602 0 33471.08431053 0 17381.77839330 0 -14489.35498093 0 555
0.02450000 0.02439640 71800.81547472 0 -1172.94672966 0 23716.80903829 0 15214.03864031 0 -361.05854724 0 592
0.02550000 0.02547300 72192.88649655 0 -514.35266989 0 16819.74718551 0 11480.00781847 0 -17237.28455442 0 837
0.02650000 0.02652900 67192.40316196 0 4317.23231469 0 7699.76111284 0 5870.63519744 0 -14517.47868597 0 723
0.02750000 0.02749970 61160.08987751 0 3184.89887246 0 2762.10214926 0 -758.95250469 0 -18756.07534979 0 826
0.02850000 0.02848090 59985.86983049 0 3468.31717084 0 -1785.15771354 0 -564.53466044 0 -10016.26862209 0 831
0.02950000 0.02946900 58348.49443631 0 -798.26590120 0 1755.93784834 0 877.73529812 0 -9384.93573326 0 996
0.03050000 0.03053250 57363.83259019 0 1544.83290335 0 2784.63433027 0 -1999.88330874 0 -11856.02396931 0 1041
0.03150000 0.03150510 57119.57710469 0 82.49579546 0 5462.40965371 0 -898.32207165 0 16.84654221 0 1036
0.03250000 0.03246190 58232.67791871 0 524.64993197 0 9073.21657264 0 -287.97898898 0 -4768.69528684 0 1059
0.03350000 0.03345080 58548.90351553 0 -585.24433678 0 14123.19319918 0 -2457.48034885 0 2976.32948985 0 1302
0.03450000 0.03451200 58931.23089151 0 780.67197706 0 20431.09664836 0 -3013.11175290 0 472.96210526 0 1339
0.03550000 0.03553350 56820.84578108 0 5653.03079778 0 20668.81946222 0 -7317.43373685 0 7282.42304577 0 1365
0.03650000 0.03647120 55177.15916175 0 4109.16118670 0 30818.70890022 0 -1330.81593693 0 10137.13411981 0 1308
0.03750000 0.03744890 51699.78482921 0 2237.21859123 0 27987.62616734 0 3248.69760806 0 10366.33124356 0 1579
0.03850000 0.03847530 52652.11548686 0 635.22813271 0 33891.83265364 0 8180.32215461 0 8252.23690431 0 1662
0.03950000 0.03950240 49781.72600087 0 2612.27144981 0 27248.99137869 0 6873.42243930 0 4336.52030452 0 1683
0.04050000 0.04050350 50233.47685348 0 3023.63046148 0 29480.28627614 0 1845.67904099 0 7030.46122220 0 1822
0.04150000 0.04152450 45685.74088071 0 1800.16071367 0 23022.46354891 0 2926.85834256 0 7782.95856152 0 1887
0.04250000 0.04250150 45463.07642861 0 419.50824273 0 21929.84653581 0 4021.70089295 0 2659.21810704 0 1920
0.04350000 0.04349210 44706.28302726 0 -316.49465431 0 19725.34666442 0 575.84282577 0 1407.27033980 0 2005
0.04450000 0.04448520 43920.03724188 0 2443.49600260 0 19319.98885281 0 139.78256467 0 -1247.03165502 0 2151
0.04550000 0.04548030 41830.13593236 0 745.06891660 0 16284.28955728 0 888.73786729 0 -2257.10448661 0 2274
0.04650000 0.04648670 42399.91776753 0 400.68196884 0 16854.73573194 0 661.53929817 0 -936.12409581 0 2311
0.04750000 0.04749250 41277.84837041 0 472.80044931 0 15840.06788556 0 2932.06233523 0 -3394.29867943 0 2568
0.04850000 0.04851840 41482.57565631 0 373.31007466 0 15246.14838228 0 1207.04949010 0 -2672.58240310 0 2493
0.04950000 0.04949480 39325.35461189 0 367.01767246 0 13492.84574725 0 1531.90042796 0 -1983.19731524 0 2644
0.05050000 0.05050630 39417.91924737 0 1320.07578185 0 12782.66683338 0 1663.52822540 0 -2340.23550134 0 2829
0.05150000 0.05149060 37764.71042870 0 814.42263757 0 11866.87484763 0 1154.84347858 0 -1799.37457860 0 2784
0.05250000 0.05249300 36734.31988108 0 1671.03526163 0 13121.47997283 0 -203.05757931 0 -3423.59605090 0 3055
0.05350000 0.05348950 35911.42470056 0 696.33075722 0 10002.49465002 0 402.10808428 0 -2057.64762732 0 3009
0.05450000 0.05448610 35126.61831741 0 -60.77388719 0 10455.69597717 0 -671.79891435 0 -6717.07014053 0 3336
0.05550000 0.05550870 35892.71247161 0 -360.68873159 0 9927.34678147 0 -1609.36241239 0 -8154.64543336 0 3349
0.05650000 0.05647670 36297.51666698 0 264.31078744 0 10843.43772000 0 -801.17792262 0 -5797.42498574 0 3324
0.05750000 0.05747970 35292.59246644 0 500.98394491 0 11081.40412500 0 -559.02396437 0 -7705.17547967 0 3639
0.05850000 0.05849280 35203.34952840 0 834.98505199 0 10729.95746293 0 754.87788916 0 -7299.09796695 0 3846
0.05950000 0.05951020 35140.45872343 0 493.11816536 0 12911.54869427 0 768.59096345 0 -6210.66629263 0 3787
0.06050000 0.06049470 33599.19110868 0 773.35538482 0 12290.50199519 0 2851.96513749 0 -2871.00953618 0 3930
0.06150000 0.06148310 33741.91337559 0 273.13985925 0 11963.20407355 0 1769.65645879 0 -3918.44039169 0 4083
0.06250000 0.06249100 33752.76425391 0 830.81078553 0 12193.95132278 0 694.15504539 0 245.41254344 0 4303
0.06350000 0.06350600 32640.10633289 0 1000.58052751 0 11553.08516227 0 1482.31855742 0 -1484.45551611 0 4470
0.06450000 0.06451750 31693.42256089 0 931.23566441 0 11951.46740925 0 1169.40358572 0 1574.18563644 0 4479
0.06550000 0.06550280 31607.27987380 0 -370.48441736 0 11256.12541064 0 1142.46461944 0 76.45927470 0 4636
0.06650000 0.06648880 31498.43892084 0 598.86108184 0 11923.89732045 0 688.33653870 0 -514.29398657 0 4653
0.06750000 0.06749660 31617.24496614 0 980.52301111 0 12053.44352083 0 -1234.17668591 0 975.64897372 0 5220
0.06850000 0.06852730 29635.63099335 0 1317.75059364 0 11963.20407355 0 -516.38111980 0 1099.29362497 0 5029
0.06950000 0.06949320 29934.25159371 0 280.82848161 0 10992.13904231 0 1482.73930576 0 1959.58004640 0 5040
0.07050000 0.07048030 29453.71269658 0 -653.93703995 0 11188.36278275 0 10.84564111 0 -2608.30755753 0 5475
0.07150000 0.07148790 28931.98475112 0 376.09697881 0 10358.11557854 0 618.15017891 0 -2799.82555992 0 5509
0.07250000 0.07249820 28582.87434959 0 841.78899559 0 9314.96971273 0 -467.20228189 0 -3264.19886281 0 5916
0.07350000 0.07351270 28011.09949596 0 479.80590923 0 8890.13568176 0 325.94156185 0 -2052.22218816 0 5721
0.07450000 0.07449140 27348.53157881 0 445.04102376 0 8503.66725629 0 1219.45049390 0 -1848.43604987 0 6028
0.07550000 0.07549160 27660.21752245 0 986.61832592 0 9669.71592759 0 1243.53280038 0 -2229.34616829 0 6183
0.07650000 0.07648840 26381.25328265 0 701.51149800 0 9394.65723445 0 1019.53634760 0 -1544.24607013 0 6330
0.07750000 0.07749960 25995.71493247 0 1216.26166435 0 10316.33969700 0 606.36258190 0 -281.26473121 0 6583
0.07850000 0.07848650 25279.77840969 0 961.97686703 0 10531.30888336 0 -96.86224764 0 1758.17445795 0 6549
0.07950000 0.07947320 24953.80916703 0 353.03443345 0 11360.31598718 0 -208.80190143 0 2405.59543475 0 6828
0.08050000 0.08048110 24502.16903768 0 391.18966477 0 11318.79476911 0 90.82650193 0 2458.20004996 0 7147
0.08150000 0.08149960 23757.33374713 0 648.74633408 0 11603.68568669 0 529.77198944 0 2518.00167631 0 7386
0.08250000 0.08250610 23709.61202716 0 432.14619428 0 10888.26956319 0 491.15836386 0 1277.12623388 0 7227
0.08350000 0.08350160 22642.12919139 0 335.00315248 0 11057.85329011 0 909.53722946 0 1381.38324437 0 7798
0.08450000 0.08449610 23234.83073894 0 394.43274871 0 10994.63031539 0 653.39006711 0 2021.16431705 0 7371
0.08550000 0.08548940 21758.11477787 0 724.66594366 0 10138.29671392 0 1045.89401683 0 1715.92246644 0 8256
0.08650000 0.08650700 22103.68203546 0 319.99018726 0 9444.92558913 0 370.33383374 0 2394.23522948 0 8037
0.08750000 0.08749060 21350.21033155 0 117.07544093 0 8742.20942219 0 1312.93413235 0 1812.97139348 0 8155
0.08850000 0.08849210 21612.07081352 0 81.44082435 0 8660.08598901 0 515.19859551 0 2277.88724029 0 8718
0.08950000 0.08949900 21110.38377598 0 280.25161348 0 7943.19724630 0 1791.44679403 0 319.95254135 0 8571
0.09050000 0.09049190 20568.28275286 0 943.86807979 0 6453.60417147 0 168.09117754 0 -395.74592644 0 8932
0.09150000 0.09150830 19503.01438206 0 491.41302733 0 6251.76676235 0 -309.14373787 0 -1370.53236605 0 9285
0.09250000 0.09250820 19382.43676478 0 617.14591904 0 6195.20932718 0 34.75536327 0 -771.96580805 0 9204
0.09350000 0.09350330 18837.56766046 0 327.50386688 0 5875.54023734 0 318.95492489 0 -763.09355418 0 9349
0.09450000 0.09448040 18492.66474236 0 162.58048147 0 5727.43682057 0 417.47425666 0 -827.94637510 0 9564
0.09550000 0.09549270 18728.28381450 0 80.89097270 0 5843.16475957 0 1146.05205268 0 -611.45142239 0 10155
0.09650000 0.09649430 18514.80939200 0 81.07665559 0 5997.05900222 0 854.43248330 0 678.37808976 0 9913
0.09750000 0.09749140 18250.51299857 0 485.70081496 0 5923.53876543 0 567.15547972 0 887.10912831 0 10476
0.09850000 0.09850240 18085.20318903 0 505.81812192 0 6727.34525796 0 213.02377888 0 1971.81496533 0 10575
0.09950000 0.09950330 17601.56404095 0 691.51761762 0 6362.98826516 0 681.96220130 0 2314.86880518 0 10882
0.10050000 0.10051200 16999.34029407 0 372.00354033 0 6629.02301357 0 -238.75032560 0 2309.55408927 0 10875
0.10150000 0.10150300 16874.88736311 0 288.06092418 0 6149.74636147 0 184.55572454 0 2054.63595497 0 11118
0.10250000 0.10250800 16460.22879865 0 178.23453430 0 6134.79872297 0 -250.52795751 0 942.80845831 0 11575
0.10350000 0.10349800 16100.82113503 0 343.88094252 0 5893.35560797 0 -308.63330369 0 1421.66436206 0 11364
0.10450000 0.10450100 16083.54830832 0 136.63248826 0 5524.11571992 0 354.62884822 0 669.69517263 0 12093
0.10550000 0.10551000 16048.00614565 0 -211.62091533 0 5090.83350512 0 964.11493296 0 -220.78437135 0 12067
0.10650000 0.10649700 15896.64746538 0 115.96931569 0 4737.03951019 0 387.30660046 0 -322.69958514 0 12054
0.10750000 0.10749900 15634.89770667 0 564.16705925 0 4725.90075142 0 946.33056483 0 273.29044287 0 12807
0.10850000 0.10850100 15386.87763073 0 203.68095120 0 4106.51490106 0 328.89565811 0 662.17595685 0 12736
0.10950000 0.10950300 15179.38226363 0 -284.37605448 0 4101.21125748 0 482.47544674 0 1208.52210931 0 12933
0.11050000 0.11050200 15805.41150887 0 -301.94783397 0 4143.31930876 0 455.61177227 0 1005.31726807 0 13428
0.11150000 0.11150900 15701.33165558 0 -69.96247739 0 3766.36201031 0 35.56807191 0 806.30883794 0 13453
0.11250000 0.11250000 15718.93665204 0 426.81044095 0 4063.06709848 0 -452.73075335 0 1515.05942191 0 13668
0.11350000 0.11349100 15492.17543975 0 395.14802090 0 4169.09568094 0 -196.35328664 0 693.08435158 0 13791
0.11450000 0.11448600 15064.45153201 0 442.85866854 0 3903.28237902 0 48.81920880 0 636.36858216 0 14205
0.11550000 0.11549300 14491.56944589 0 699.93479895 0 3932.36937632 0 161.77773793 0 112.12168281 0 14776
0.11650000 0.11649800 14311.86561409 0 150.77627599 0 3495.95369359 0 385.55717314 0 552.40825029 0 14553
0.11750000 0.11747300 13891.44944072 0 -41.93100481 0 3719.14961728 0 802.59075127 0 525.06735862 0 14568
0.11850000 0.11849100 14132.71539852 0 4.25378789 0 3460.28973535 0 475.33822616 0 -136.01908147 0 16015
0.11950000 0.11950300 14117.87848326 0 149.14310807 0 3494.50321904 0 219.75021621 0 370.96717072 0 15270
0.12050000 0.12050700 14013.24501373 0 271.97394345 0 3731.61705503 0 -371.77323597 0 774.27328055 0 15999
0.12150000 0.12150000 13712.85284140 0 72.91989534 0 3757.31592093 0 -357.31388699 0 1365.99271288 0 15670
0.12250000 0.12250700 13720.27129903 0 256.24570605 0 4202.09120890 0 -112.67308459 0 971.77144557 0 16887
0.12350000 0.12352200 13627.04232405 0 170.11076958 0 3903.97993548 0 280.45202256 0 983.57343659 0 16407
0.12450000 0.12449800 13355.43819625 0 104.63070146 0 4049.02739061 0 649.50035940 0 1391.24868579 0 16306
0.12550000 0.12549900 13401.16689775 0 -70.52140834 0 3312.67350087 0 524.82708917 0 549.37554053 0 17523
0.12650000 0.12650100 13283.46808493 0 -64.25956576 0 3056.27167504 0 510.53936123 0 484.47621583 0 17154
0.12750000 0.12750600 13472.47266958 0 133.04726949 0 2771.23681723 0 170.98659048 0 243.13939516 0 18007
0.12850000 0.12850300 13106.42161108 0 152.72832685 0 2285.99218206 0 243.39184416 0 555.60372324 0 17496
0.12950000 0.12949900 12977.09685720 0 214.99686717 0 2546.22503227 0 -77.87896818 0 602.42526320 0 18405
0.13050000 0.13049000 12985.40110081 0 276.67193087 0 2393.75911952 0 69.05521109 0 177.26902758 0 18100
0.13150000 0.13148800 12536.19688292 0 378.98242666 0 2653.18369002 0 -231.71829211 0 460.92316648 0 19059
0.13250000 0.13249300 12325.26909512 0 347.57356285 0 2502.04645624 0 69.97875370 0 815.39257322 0 18957
0.13350000 0.13349100 12121.64904171 0 -6.91271812 0 2550.54323895 0 387.51808186 0 616.39189372 0 19468
0.13450000 0.13450700 12208.23462179 0 -51.16953119 0 2530.61305428 0 300.72877100 0 225.54768549 0 19953
0.13550000 0.13551000 12214.43512369 0 153.41591822 0 2538.49654955 0 -136.99012435 0 -21.03110593 0 19956
0.13650000 0.13649900 11922.56864147 0 468.08917510 0 2207.95443674 0 -152.48252124 0 392.50505696 0 19723
0.13750000 0.13749600 11592.50263863 0 354.25903257 0 2347.34393388 0 -271.55208787 0 1090.75243360 0 20946
0.13850000 0.13851100 11459.63474080 0 66.73367674 0 2318.79948050 0 72.10596875 0 576.88473154 0 20955
0.13950000 0.13949800 11324.99527101 0 100.81373892 0 2816.73299991 0 300.24823211 0 914.93498781 0 20506
0.14050000 0.14048300 11356.55139674 0 142.55507481 0 2440.06358191 0 221.48857121 0 397.26837110 0 21447
0.14150000 0.14148400 11187.69844326 0 86.64204894 0 2622.53549492 0 -5.71506903 0 781.37064075 0 21771
0.14250000 0.14249400 11170.20417004 0 137.46512709 0 2749.55720524 0 -77.69616410 0 638.55647355 0 22470
0.14350000 0.14350900 11199.65655406 0 103.43001855 0 3013.76502006 0 -234.57716638 0 547.32383874 0 22519
0.14450000 0.14449900 10812.84488652 0 173.49336482 0 2807.22187290 0 -59.82786776 0 776.95721208 0 22218
0.14550000 0.14550500 10921.88514134 0 188.50079388 0 3240.17191795 0 14.46798539 0 785.31571009 0 23559
0.14650000 0.14650700 10667.75314210 0 253.09120070 0 3321.37634817 0 186.31511696 0 828.86648530 0 23044
0.14750000 0.14750500 10540.47676831 0 259.37142334 0 3253.64693726 0 25.09332046 0 500.87100719 0 23649
0.14850000 0.14849900 10256.39413044 0 131.29341323 0 3202.94676191 0 -177.63441430 0 908.02364266 0 23640
0.14950000 0.14949500 10371.26950043 0 65.03385344 0 3288.80156856 0 -134.21207806 0 624.67509992 0 24457
0.15050000 0.15050000 10313.97021949 0 24.33198741 0 3557.20579449 0 177.57019481 0 1054.17611580 0 24591
0.15150000 0.15149900 10409.85655242 0 -7.59846041 0 3279.83298545 0 343.49008945 0 574.30598709 0 25020
0.15250000 0.15250500 10323.91316718 0 14.54803830 0 3177.19253439 0 233.28724053 0 873.38387446 0 25297
0.15350000 0.15350100 10337.43247578 0 250.25447109 0 2939.94583050 0 127.87870826 0 312.89614875 0 25452
0.15450000 0.15450400 10166.92974590 0 249.59013160 0 3029.13340691 0 -269.19921885 0 241.65348917 0 26061
0.15550000 0.15549900 9828.59271642 0 102.97317443 0 2872.18320261 0 -74.98488392 0 433.44719244 0 26128
0.15650000 0.15649500 9934.41092471 0 47.51057073 0 3004.69678604 0 21.46746625 0 -139.44707323 0 26331
0.15750000 0.15749700 9727.77919894 0 164.29558459 0 3151.40508988 0 290.76257144 0 -182.32465109 0 27345
0.15850000 0.15849900 9635.32528671 0 268.28353759 0 2960.55142698 0 137.95009492 0 -128.30942170 0 26980
0.15950000 0.15949700 9284.16650508 0 281.97668169 0 2775.97577226 0 380.33989368 0 121.85868526 0 27777
0.16050000 0.16050000 9167.16524873 0 116.58936588 0 2813.90955709 0 184.05525546 0 163.99220289 0 28224
0.16150000 0.16150500 9053.87322118 0 182.32132939 0 2906.04237190 0 86.92129297 0 275.15391514 0 28075
0.16250000 0.16249700 8910.26516828 0 242.06427242 0 2991.44321323 0 -162.74324465 0 450.00142528 0 28590
0.16350000 0.16349900 8751.77591083 0 41.21097153 0 2718.39968320 0 -37.55765795 0 356.88760248 0 29163
0.16450000 0.16449100 8785.59079083 0 33.05642575 0 2879.63487721 0 101.25984289 0 616.69638266 0 28996
0.16550000 0.16550500 8802.67538802 0 -31.19096046 0 2584.74565031 0 175.34908646 0 212.18892559 0 30777
0.16650000 0.16650700 8716.54377326 0 35.15562781 0 2427.65150579 0 326.35013063 0 168.83413053 0 29211
0.16750000 0.16749900 8688.36470659 0 155.32367979 0 1963.69895124 0 221.81077586 0 210.90453591 0 30922
0.16850000 0.16850800 8561.48693650 0 45.67012890 0 1926.68416937 0 403.05808975 0 92.17787918 0 30867
0.16950000 0.16949900 8537.39355769 0 47.96010712 0 1892.34889011 0 263.79149541 0 170.07090921 0 30852
0.17050000 0.17049200 8467.78185156 0 54.92094557 0 1693.14669429 0 218.03068417 0 -120.17901358 0 31257
0.17150000 0.17149500 8377.02200502 0 112.27115920 0 1780.61806036 0 4.57736551 0 356.99278957 0 32608
0.17250000 0.17250900 8398.59089376 0 108.79555644 0 1939.48377686 0 -191.62097501 0 451.52054824 0 32361
0.17350000 0.17350400 8295.39682645 0 164.48381411 0 2230.86307679 0 -213.16329018 0 386.92460525 0 32508
0.17450000 0.17449800 8217.22621323 0 170.87697446 0 2486.75557567 0 -138.52364134 0 732.08218682 0 32791
0.17550000 0.17549800 8197.47318576 0 27.03297032 0 2499.12336249 0 10.08961170 0 858.03320333 0 33633
0.17650000 0.17650100 8121.64990540 0 78.59446181 0 2626.35544698 0 197.56902790 0 706.26041811 0 33984
0.17750000 0.17750300 8103.65737757 0 223.15384886 0 2550.51002198 0 111.56363764 0 631.23655961 0 34069
0.17850000 0.17849800 7874.99172542 0 234.86836852 0 2587.17048945 0 65.73318147 0 631.97508367 0 34536
