### header ###
fiducial parameters:
Omega_m = 0.31
Omega_nu = 0
Omega_de = 0.69
Omega_k = 0
H_0 = 100
w_de = -1
zeff = 0
beta = 0
fgrowth = 0
b_1 = 2
gamma = 0.55
Lx = 3500 Ly = 3500 Lz = 3500
nx = 700 ny = 700 nz = 700
xoffset = -685.467585 yoffset = -31.7331281 zoffset = 572.489161
bins = 400 dk = 0.001
kx_ny = 0.628318531 ky_ny = 0.628318531 kz_ny = 0.628318531
############################
A(data) = 8.0799871 (not used)
A(ran) = 8.07405403 (used)
Ngal = 478900
weighted Ngal = 0
Nran = 23820508
weighted Nran = 0
SN(data) = 3497.30338
SN(ran) = 70.3279388
SN(data+ran) = 3567.63132
############################
13 columns: k_central k_mean P_0(k) sigma^{lin}_{P_0(k)} P^img_1(k) sigma^{lin}_{P_1(k)} P_2(k) sigma^{lin}_{P_2(k)} P^img_3(k) sigma^{lin}_{P_3(k)} P_4(k) sigma^{lin}_{P_4(k)} N_modes
### header ###
0.00050000 0 0 0 0 0 0 0 0 0 0 0 0
0.00150000 0.00179520 4672.05603583 0 -6513.67153361 0 -817.29479863 0 -21754.90380368 0 -9696.20092856 0 3
0.00250000 0.00253879 14032.28941242 0 -14657.21142518 0 -9102.82396920 0 7455.87101406 0 184.09400860 0 6
0.00350000 0.00331552 21581.51119702 0 -18795.71427264 0 694.47171388 0 -34529.15567020 0 -53190.56264279 0 7
0.00450000 0.00420575 36527.93174646 0 -15463.05522548 0 -7276.16718225 0 8026.08466989 0 -10772.01015259 0 24
0.00550000 0.00557378 56826.93555973 0 -8024.39060419 0 1620.46795418 0 -31089.75941178 0 -27912.77725157 0 45
0.00650000 0.00659388 67884.64490962 0 2870.58878783 0 13153.03609857 0 -38986.65219569 0 6800.82120546 0 40
0.00750000 0.00754703 69714.01441615 0 884.01773522 0 20571.27228056 0 -15879.59608516 0 -9410.31350174 0 57
0.00850000 0.00846663 79495.08471445 0 -15169.97078753 0 22665.71324326 0 -3663.40046182 0 -20067.14933157 0 75
0.00950000 0.00948925 91291.65029948 0 -16654.54809922 0 29783.33580643 0 6714.19133608 0 -34873.39424881 0 112
0.01050000 0.01054430 97458.27088398 0 -4927.89317309 0 4820.65770722 0 -14942.87740550 0 -41677.89146611 0 105
0.01150000 0.01145670 94998.33247902 0 19467.80438914 0 14952.95322109 0 -18174.44612707 0 -33777.23409176 0 144
0.01250000 0.01249090 84623.34267745 0 7460.08956981 0 11480.67215796 0 -10491.58138191 0 -13101.43906491 0 169
0.01350000 0.01339930 75235.67207996 0 4089.60746107 0 3958.46684591 0 7247.72237979 0 -27661.21403169 0 180
0.01450000 0.01448870 66615.86720865 0 5484.93076239 0 10513.70388690 0 12859.17659788 0 -29589.90229185 0 267
0.01550000 0.01550050 62178.19014458 0 404.12878356 0 4330.31980262 0 7164.30348461 0 -11990.99560885 0 238
0.01650000 0.01653350 65403.89053400 0 269.49595716 0 12884.31077522 0 -1974.00728564 0 -23613.39352449 0 315
0.01750000 0.01747870 61657.56943161 0 4817.03705700 0 7989.85602308 0 2455.32124551 0 6847.61285014 0 297
0.01850000 0.01844180 59830.41439004 0 2130.72497113 0 6386.51695540 0 3238.69929875 0 8722.42317774 0 388
0.01950000 0.01947590 62070.45642410 0 -4669.17723137 0 16292.70452414 0 -6432.86570709 0 2589.11921862 0 399
0.02050000 0.02045430 64760.14556904 0 -4881.68836162 0 24926.79269447 0 -2242.43365622 0 -8871.75562256 0 462
0.02150000 0.02154770 70372.59629637 0 1636.55604214 0 22669.03494070 0 -6885.45805637 0 1746.32707040 0 571
0.02250000 0.02255340 68956.99956830 0 -2704.32675836 0 26936.19820256 0 -6367.49470136 0 6286.62244088 0 510
0.02350000 0.02348930 76548.29618721 0 1256.23275695 0 30708.42854503 0 -5630.17751936 0 -7871.82504052 0 555
0.02450000 0.02439640 74089.57573799 0 360.57800835 0 30762.90438313 0 1684.29990676 0 5493.55610342 0 592
0.02550000 0.02547300 74014.17320597 0 4137.03022826 0 33217.97096517 0 4337.45037981 0 987.17083493 0 837
0.02650000 0.02652900 78502.00790147 0 968.01682022 0 43540.36722385 0 5132.89726710 0 12912.10231051 0 723
0.02750000 0.02749970 70674.42787092 0 2596.83662902 0 40086.02332693 0 13609.99094383 0 9696.71025550 0 826
0.02850000 0.02848090 69761.62541287 0 7582.40554208 0 46117.00793240 0 3105.95319650 0 18194.15486525 0 831
0.02950000 0.02946900 64907.96110537 0 4269.14520800 0 44834.83271840 0 11058.20760450 0 19914.46197232 0 996
0.03050000 0.03053250 63989.06886867 0 437.92041167 0 47015.52709143 0 5098.97166386 0 20762.71277668 0 1041
0.03150000 0.03150510 63057.88635142 0 2556.11261833 0 43513.46147454 0 9059.03292455 0 23147.91298911 0 1036
0.03250000 0.03246190 62289.13483927 0 -2268.13252213 0 37237.99993708 0 3880.44017292 0 12788.42444229 0 1059
0.03350000 0.03345080 61509.86461853 0 -1140.56017957 0 33433.65985264 0 12781.78104740 0 20596.07428816 0 1302
0.03450000 0.03451200 64404.61321912 0 289.47928899 0 27172.03872120 0 5121.33775999 0 7170.02787654 0 1339
0.03550000 0.03553350 61359.05955450 0 2890.59647878 0 27908.01615189 0 4788.70297779 0 7310.55782314 0 1365
0.03650000 0.03647120 57946.90121514 0 2777.47053611 0 22788.17315575 0 3308.88676578 0 5401.40114396 0 1308
0.03750000 0.03744890 56716.21231154 0 4083.04157245 0 24316.70759697 0 -1919.09962687 0 2658.81950335 0 1579
0.03850000 0.03847530 51759.02176699 0 4517.79640645 0 20278.85218210 0 -1503.46669782 0 696.29200408 0 1662
0.03950000 0.03950240 50928.48668234 0 1974.50554026 0 24248.72352258 0 -1873.59237186 0 412.72422931 0 1683
0.04050000 0.04050350 46301.47286388 0 1709.04655273 0 19082.81965519 0 383.32388522 0 -160.51992183 0 1822
0.04150000 0.04152450 46621.68449763 0 3135.36129122 0 23416.19541947 0 3379.73857229 0 -6952.74457430 0 1887
0.04250000 0.04250150 44289.18855134 0 -383.74906249 0 20490.00141639 0 2141.94123617 0 -3616.54238319 0 1920
0.04350000 0.04349210 45847.28609982 0 199.20441028 0 20101.58426176 0 1261.94607656 0 -7324.92970075 0 2005
0.04450000 0.04448520 45673.89349316 0 42.64782712 0 24042.77828095 0 -386.12407617 0 -3151.17257106 0 2151
0.04550000 0.04548030 43975.17741948 0 3381.72051844 0 25405.22784989 0 -237.99851474 0 -1521.66959983 0 2274
0.04650000 0.04648670 43573.25202856 0 2058.00194172 0 26241.18837370 0 1310.66430576 0 3310.72477170 0 2311
0.04750000 0.04749250 42646.71988774 0 -1135.45583783 0 25378.10065408 0 5114.72758208 0 2045.24662353 0 2568
0.04850000 0.04851840 42750.13540155 0 -522.90714805 0 23001.53685501 0 6413.23447518 0 1093.70431540 0 2493
0.04950000 0.04949480 42428.70581206 0 244.54225871 0 20823.83200968 0 5186.02228158 0 2431.95864014 0 2644
0.05050000 0.05050630 41808.76634546 0 1220.53558173 0 16029.07247021 0 2988.90765084 0 -257.48469919 0 2829
0.05150000 0.05149060 40855.32845533 0 1728.16845769 0 16087.42362200 0 123.38002269 0 754.53464709 0 2784
0.05250000 0.05249300 39179.08920104 0 1869.36274378 0 16027.63306798 0 -1746.96926524 0 1292.09601704 0 3055
0.05350000 0.05348950 38960.85367886 0 1677.33541445 0 18788.51726151 0 -1730.31648871 0 -275.26353115 0 3009
0.05450000 0.05448610 37000.27712322 0 294.81393509 0 18629.85084686 0 -644.35062112 0 179.43588155 0 3336
0.05550000 0.05550870 38001.99034957 0 16.06538970 0 19548.85380681 0 1613.06056888 0 -1286.82559042 0 3349
0.05650000 0.05647670 37374.30025560 0 -348.94874559 0 17028.01761535 0 4081.12606026 0 136.47636848 0 3324
0.05750000 0.05747970 36855.89400759 0 -453.05627970 0 15379.56989635 0 5159.99124593 0 -3006.50157498 0 3639
0.05850000 0.05849280 37000.16639997 0 756.02830371 0 12702.28175520 0 2633.81819391 0 -2905.75449146 0 3846
0.05950000 0.05951020 36477.33122204 0 1509.62291042 0 11067.01010273 0 258.60521846 0 -6535.63902605 0 3787
0.06050000 0.06049470 33868.91294126 0 2503.79588357 0 10387.16935887 0 -1694.98470021 0 -4643.61123337 0 3930
0.06150000 0.06148310 32893.21967824 0 1342.25364847 0 11497.50209168 0 -2947.43072207 0 -4694.51071056 0 4083
0.06250000 0.06249100 31727.41459809 0 -227.06459399 0 12286.95885125 0 -632.31500405 0 -3947.89277571 0 4303
0.06350000 0.06350600 32285.12759920 0 -697.63175538 0 13800.76710046 0 419.20486103 0 -6117.84699367 0 4470
0.06450000 0.06451750 31974.77033454 0 414.87115309 0 12219.74983960 0 1956.03690246 0 -3938.87990331 0 4479
0.06550000 0.06550280 32750.94030432 0 462.33931682 0 12936.46142511 0 2792.59533181 0 -3316.89205662 0 4636
0.06650000 0.06648880 31781.11537346 0 274.31684738 0 11018.28080121 0 2373.70713927 0 -1757.00079152 0 4653
0.06750000 0.06749660 31778.23656900 0 1200.14035942 0 11968.40806622 0 -171.69743373 0 -2386.19672167 0 5220
0.06850000 0.06852730 29851.31988082 0 963.92338174 0 9724.97790076 0 282.51258221 0 -1111.43996530 0 5029
0.06950000 0.06949320 29725.87044062 0 356.85438551 0 9976.06501068 0 637.59096682 0 -1093.70099370 0 5040
0.07050000 0.07048030 29541.29478589 0 -33.89980473 0 8866.67342547 0 -374.60442943 0 -2003.04999364 0 5475
0.07150000 0.07148790 29606.28933258 0 296.18801060 0 9201.75519146 0 1672.48573618 0 -2244.94707395 0 5509
0.07250000 0.07249820 29394.14358905 0 671.00170696 0 8894.42067147 0 703.91308525 0 -1786.81856226 0 5916
0.07350000 0.07351270 27718.23650450 0 1328.82291846 0 9073.60410401 0 -87.21526319 0 -810.62925909 0 5721
0.07450000 0.07449140 27402.23235418 0 1258.98976583 0 9246.48738373 0 266.76662909 0 -2184.29287860 0 6028
0.07550000 0.07549160 26754.05845930 0 269.81705458 0 10382.40825920 0 1008.69100544 0 65.77891018 0 6183
0.07650000 0.07648840 26564.16808866 0 475.98817163 0 9996.49344997 0 137.38983528 0 -1288.10998010 0 6330
0.07750000 0.07749960 26406.94107623 0 -11.08051834 0 10277.86336826 0 -302.67085678 0 -374.77605046 0 6583
0.07850000 0.07848650 25728.42901134 0 391.25388426 0 10131.60902973 0 186.49448862 0 26.31061185 0 6549
0.07950000 0.07947320 25548.94662603 0 599.15449845 0 9166.25731809 0 991.68391452 0 718.46654899 0 6828
0.08050000 0.08048110 25525.47329742 0 368.42053602 0 8607.60316937 0 2182.74275312 0 59.06022348 0 7147
0.08150000 0.08149960 24682.09431598 0 -40.49968538 0 7009.36844342 0 1198.40200442 0 -1596.48529863 0 7386
0.08250000 0.08250610 24445.03584161 0 1035.42402649 0 6760.60652172 0 539.47577491 0 -1263.75086550 0 7227
0.08350000 0.08350160 23370.13454822 0 693.71990303 0 6832.31089724 0 428.67834214 0 -81.71364644 0 7798
0.08450000 0.08449610 22766.36067586 0 987.30148836 0 6128.39891922 0 823.41447256 0 -794.05952500 0 7371
0.08550000 0.08548940 22358.89912253 0 607.58385933 0 6044.06102108 0 651.72811115 0 -527.14341952 0 8256
0.08650000 0.08650700 21695.00252641 0 157.35877309 0 6092.26992334 0 387.93329404 0 -1321.11658039 0 8037
0.08750000 0.08749060 21729.43745659 0 203.13840729 0 5837.91647761 0 -209.01781176 0 -968.52282547 0 8155
0.08850000 0.08849210 21781.58810649 0 2.04557879 0 6849.12975864 0 -1107.43178371 0 -1559.60338466 0 8718
0.08950000 0.08949900 21442.77496704 0 464.57481921 0 7237.34761143 0 -314.38537644 0 -257.32747218 0 8571
0.09050000 0.09049190 21152.68005679 0 395.86661478 0 7435.21005594 0 -24.15571599 0 -540.56529167 0 8932
0.09150000 0.09150830 21114.36981292 0 180.87085484 0 7300.12769316 0 1691.08724188 0 821.72705025 0 9285
0.09250000 0.09250820 20645.45685685 0 285.76341678 0 6194.26817957 0 1745.82881578 0 44.30225389 0 9204
0.09350000 0.09350330 20393.00785098 0 308.10183210 0 5645.30231506 0 1038.82433744 0 -170.92237099 0 9349
0.09450000 0.09448040 19990.86101357 0 548.25502126 0 5936.54874709 0 -69.38450203 0 389.21546926 0 9564
0.09550000 0.09549270 19739.62996343 0 470.02461748 0 5508.21586148 0 -360.37206310 0 201.66246639 0 10155
0.09650000 0.09649430 19161.98677765 0 212.65396323 0 5928.45487765 0 -736.50558059 0 16.00404902 0 9913
0.09750000 0.09749140 19252.11550167 0 117.25813429 0 6253.36117713 0 -544.66426632 0 846.65971128 0 10476
0.09850000 0.09850240 19225.76336860 0 107.57859721 0 6271.38692193 0 2.80052312 0 625.55756421 0 10575
0.09950000 0.09950330 19168.85161903 0 36.30404934 0 6770.99236240 0 401.92317645 0 779.06981166 0 10882
0.10050000 0.10051200 18991.69442193 0 870.50839171 0 6841.40127592 0 434.36176647 0 700.33893880 0 10875
0.10150000 0.10150300 17976.14078957 0 1191.78075418 0 6862.41654843 0 -31.31242386 0 1967.59640957 0 11118
0.10250000 0.10250800 17352.76890228 0 603.57567775 0 6336.60291511 0 405.45524807 0 1691.14260350 0 11575
0.10350000 0.10349800 16716.55311820 0 60.25326647 0 6923.80151722 0 457.68783317 0 1606.11822122 0 11364
0.10450000 0.10450100 16856.72875040 0 271.71042212 0 6768.55645094 0 725.02357975 0 1696.35766849 0 12093
0.10550000 0.10551000 16686.21494820 0 -9.25564420 0 6627.60575600 0 115.17210830 0 1223.93478545 0 12067
0.10650000 0.10649700 16371.76092335 0 355.80583635 0 7106.15163466 0 -388.81908003 0 1052.36800516 0 12054
0.10750000 0.10749900 16594.09320571 0 -32.06301676 0 6771.63455724 0 -158.23459398 0 667.94906701 0 12807
0.10850000 0.10850100 16331.23621451 0 -14.22649799 0 6933.19084867 0 260.37568320 0 239.31501417 0 12736
0.10950000 0.10950300 16493.66721960 0 215.37664791 0 7007.19826775 0 481.55090762 0 274.87267809 0 12933
0.11050000 0.11050200 16180.76332023 0 116.78091709 0 6649.57324844 0 639.22413473 0 758.27377118 0 13428
0.11150000 0.11150900 16007.25999032 0 344.79108762 0 5897.38593421 0 543.29019081 0 198.97853485 0 13453
0.11250000 0.11250000 15714.72916861 0 396.10024083 0 5467.63579102 0 135.93271733 0 537.48718537 0 13668
0.11350000 0.11349100 15377.79832438 0 315.33316744 0 5483.34741994 0 207.69909788 0 -618.46574016 0 13791
0.11450000 0.11448600 15225.77530462 0 115.29168941 0 5037.38739322 0 -96.23588622 0 246.98924250 0 14205
0.11550000 0.11549300 15132.32488315 0 -91.61020108 0 5495.12837355 0 421.41268260 0 -299.13878516 0 14776
0.11650000 0.11649800 15203.07703874 0 -47.42298864 0 4912.35870137 0 178.74829017 0 -721.34756791 0 14553
0.11750000 0.11747300 15259.21372557 0 166.66506210 0 5239.40195953 0 106.06434607 0 -886.82124786 0 14568
0.11850000 0.11849100 15184.58625629 0 270.52900506 0 5240.55348131 0 -19.72213569 0 -267.99233545 0 16015
0.11950000 0.11950300 14852.97012797 0 342.81024871 0 4968.19643543 0 135.24623319 0 157.80941671 0 15270
0.12050000 0.12050700 14568.18993364 0 29.68025246 0 5010.95775388 0 294.80729169 0 -135.02921563 0 15999
0.12150000 0.12150000 14442.96193994 0 218.14030018 0 5108.93675620 0 926.21657957 0 588.97238854 0 15670
0.12250000 0.12250700 14385.05368114 0 243.14050239 0 5024.78708757 0 276.29436459 0 90.43974563 0 16887
0.12350000 0.12352200 13999.62605420 0 408.67175843 0 5133.83841471 0 101.29217408 0 832.63771913 0 16407
0.12450000 0.12449800 13754.81695246 0 453.84795092 0 5286.63649721 0 -67.87146884 0 758.36456425 0 16306
0.12550000 0.12549900 13451.32452918 0 142.05792742 0 5221.85232470 0 -327.45847035 0 1252.67854068 0 17523
0.12650000 0.12650100 13590.50365215 0 82.16329355 0 5798.36613335 0 -416.44010152 0 427.72944391 0 17154
0.12750000 0.12750600 13436.93050692 0 48.52623509 0 5495.43839864 0 119.67300834 0 746.24147580 0 18007
0.12850000 0.12850300 13537.13504653 0 285.30945146 0 5970.30826546 0 -500.19338091 0 714.87357959 0 17496
0.12950000 0.12949900 13075.41910159 0 370.50545478 0 5455.83269276 0 660.76755713 0 1053.22721756 0 18405
0.13050000 0.13049000 13011.19961764 0 130.62575205 0 5417.45601494 0 1108.22899110 0 1153.52587193 0 18100
0.13150000 0.13148800 12720.32964465 0 50.92959391 0 4680.91389568 0 983.98864877 0 1163.98921889 0 19059
0.13250000 0.13249300 12625.21837446 0 138.83809537 0 4605.61101459 0 1347.30262858 0 1251.00661963 0 18957
0.13350000 0.13349100 12489.69311868 0 89.17838638 0 4008.87914081 0 217.97421531 0 1583.05456862 0 19468
0.13450000 0.13450700 12347.96736100 0 320.66117014 0 4303.81265701 0 323.16019385 0 1845.20293103 0 19953
0.13550000 0.13551000 12234.36530836 0 196.18609453 0 4075.53453622 0 -256.69302797 0 1874.51137482 0 19956
0.13650000 0.13649900 12153.20516744 0 163.24703543 0 3965.92959284 0 63.76031464 0 1640.15454771 0 19723
0.13750000 0.13749600 11871.96811705 0 152.03852101 0 4017.33839697 0 -269.09846069 0 1439.92262569 0 20946
0.13850000 0.13851100 11821.36759263 0 372.87714676 0 4214.74687617 0 -42.76142917 0 1222.46216625 0 20955
0.13950000 0.13949800 11479.78637197 0 180.32056030 0 4027.67994836 0 221.16525932 0 987.73884519 0 20506
0.14050000 0.14048300 11254.35383866 0 271.11583828 0 4035.60773293 0 41.58665551 0 673.78750389 0 21447
0.14150000 0.14148400 11308.71895352 0 -2.55335561 0 3723.77784906 0 378.88056127 0 753.07863638 0 21771
0.14250000 0.14249400 11130.45452394 0 24.51191268 0 3801.20661652 0 291.79119041 0 494.08145761 0 22470
0.14350000 0.14350900 11002.19271325 0 56.85948819 0 3361.85676771 0 61.23903555 0 514.30948783 0 22519
0.14450000 0.14449900 11002.49166602 0 43.47891582 0 3358.64579351 0 444.53944745 0 451.01343577 0 22218
0.14550000 0.14550500 11040.42545084 0 25.78556221 0 2929.65964074 0 275.67652887 0 357.57076493 0 23559
0.14650000 0.14650700 10815.31401496 0 91.98599579 0 3008.57209972 0 186.35829902 0 569.66668299 0 23044
0.14750000 0.14750500 10690.42926333 0 335.39179108 0 2744.28677863 0 239.29397675 0 564.66752833 0 23649
0.14850000 0.14849900 10510.32682783 0 212.16788817 0 2736.94582727 0 61.53245216 0 346.63905863 0 23640
0.14950000 0.14949500 10344.20873857 0 97.03276144 0 2711.16945509 0 43.90774696 0 532.39945211 0 24457
0.15050000 0.15050000 10290.26437206 0 46.87634797 0 2859.90399438 0 63.35418176 0 63.74182386 0 24591
0.15150000 0.15149900 10247.14873921 0 102.92235246 0 2899.93044860 0 -192.34399782 0 182.97348933 0 25020
0.15250000 0.15250500 10179.86222129 0 195.38667268 0 2780.57078706 0 -71.99092729 0 -79.31792752 0 25297
0.15350000 0.15350100 10072.63782775 0 205.96295735 0 3044.73431258 0 -228.62136286 0 -22.11829750 0 25452
0.15450000 0.15450400 9863.79163702 0 179.13028538 0 2934.37645111 0 -262.39416802 0 -182.17517471 0 26061
0.15550000 0.15549900 9887.19853168 0 47.71230849 0 3109.76207624 0 62.72937047 0 16.01146747 0 26128
0.15650000 0.15649500 9851.55671809 0 0.25086566 0 3067.44365078 0 -13.61585928 0 -267.35346230 0 26331
0.15750000 0.15749700 9825.81356289 0 78.16341621 0 3057.95466841 0 262.54696610 0 -95.83063914 0 27345
0.15850000 0.15849900 9734.89870380 0 151.89015186 0 3048.91965136 0 470.67013402 0 144.19267165 0 26980
0.15950000 0.15949700 9617.69814560 0 88.85197425 0 2750.26583403 0 456.99359840 0 609.69535167 0 27777
0.16050000 0.16050000 9658.14534816 0 99.61892435 0 2750.56478680 0 397.43556320 0 675.96210848 0 28224
0.16150000 0.16150500 9499.36821026 0 143.25152404 0 2733.07051359 0 243.69744033 0 875.12887285 0 28075
0.16250000 0.16249700 9217.65504990 0 344.24522201 0 2865.25192727 0 127.03721157 0 1234.51992798 0 28590
0.16350000 0.16349900 9020.46801720 0 302.23017825 0 2670.55616766 0 81.18007111 0 1063.80571669 0 29163
0.16450000 0.16449100 8866.39661735 0 21.22896837 0 2572.23392327 0 135.83970981 0 1302.80295514 0 28996
0.16550000 0.16550500 8852.70015155 0 34.75536327 0 2601.76381356 0 -59.35906552 0 1115.76924430 0 30777
0.16650000 0.16650700 8887.64440868 0 127.77905734 0 2454.13650675 0 -29.80680914 0 1095.67629645 0 29211
0.16750000 0.16749900 8759.18329613 0 114.66167412 0 2539.53734808 0 -24.49397552 0 941.98578457 0 30922
0.16850000 0.16850800 8687.57857153 0 148.41565633 0 2396.73757489 0 -96.46131876 0 995.72199138 0 30867
0.16950000 0.16949900 8532.04562480 0 27.12199181 0 2355.39351402 0 272.95384420 0 800.40728882 0 30852
0.17050000 0.17049200 8541.63425810 0 61.09697763 0 2235.69061041 0 229.20930330 0 618.90198976 0 31257
0.17150000 0.17149500 8487.54595136 0 14.29536785 0 2349.90164091 0 225.93300239 0 637.92977996 0 32608
0.17250000 0.17250900 8482.89557493 0 58.05629578 0 2417.89678762 0 27.56997808 0 462.65819978 0 32361
0.17350000 0.17350400 8424.47798919 0 203.28345474 0 2375.44549427 0 -157.14950615 0 816.38908246 0 32508
0.17450000 0.17449800 8225.53045685 0 142.16090004 0 2389.44091284 0 -242.59574401 0 620.79757177 0 32791
0.17550000 0.17549800 8188.26101151 0 76.54785329 0 2461.38887951 0 51.71373596 0 507.26638201 0 33633
0.17650000 0.17650100 8126.78746412 0 88.18619536 0 2174.98105343 0 -6.75683086 0 391.51962005 0 33984
0.17750000 0.17750300 8205.03558361 0 28.88736328 0 2389.68450398 0 -86.07038481 0 12.26514637 0 34069
0.17850000 0.17849800 8036.29335337 0 -5.41169841 0 2296.02370834 0 -71.54604128 0 -57.03288080 0 34536
