### header ###
fiducial parameters:
Omega_m = 0.31
Omega_nu = 0
Omega_de = 0.69
Omega_k = 0
H_0 = 100
w_de = -1
zeff = 0
beta = 0
fgrowth = 0
b_1 = 2
gamma = 0.55
Lx = 3500 Ly = 3500 Lz = 3500
nx = 700 ny = 700 nz = 700
xoffset = -685.467585 yoffset = -31.7331281 zoffset = 572.489161
bins = 400 dk = 0.001
kx_ny = 0.628318531 ky_ny = 0.628318531 kz_ny = 0.628318531
############################
A(data) = 8.02129672 (not used)
A(ran) = 8.01166303 (used)
Ngal = 476103
weighted Ngal = 0
Nran = 23820508
weighted Nran = 0
SN(data) = 3501.03443
SN(ran) = 69.7844906
SN(data+ran) = 3570.81892
############################
13 columns: k_central k_mean P_0(k) sigma^{lin}_{P_0(k)} P^img_1(k) sigma^{lin}_{P_1(k)} P_2(k) sigma^{lin}_{P_2(k)} P^img_3(k) sigma^{lin}_{P_3(k)} P_4(k) sigma^{lin}_{P_4(k)} N_modes
### header ###
0.00050000 0 0 0 0 0 0 0 0 0 0 0 0
0.00150000 0.00179520 6217.77472516 0 -2608.41828078 0 18957.37021500 0 -32975.70849814 0 -29940.67354210 0 3
0.00250000 0.00253879 14263.70100112 0 -5553.61239324 0 -2245.44532857 0 6301.65865799 0 -7015.31428185 0 6
0.00350000 0.00331552 18120.74535170 0 -9144.78808027 0 -3310.09364918 0 8774.11986231 0 5900.75192095 0 7
0.00450000 0.00420575 21400.25723974 0 -6136.64780121 0 -8126.23384788 0 -7083.68588760 0 -16766.15713339 0 24
0.00550000 0.00557378 38216.57200455 0 -4948.91951792 0 8428.39759218 0 -27048.02868323 0 -33249.63781415 0 45
0.00650000 0.00659388 36457.40103736 0 -10939.35726990 0 -6515.42096093 0 -24539.81494206 0 3086.12266275 0 40
0.00750000 0.00754703 45031.69865368 0 -1307.54191016 0 3450.28035371 0 -15637.00144838 0 1491.39786377 0 57
0.00850000 0.00846663 58673.57789299 0 -20493.65528358 0 7718.13009971 0 -18423.57343549 0 -12693.09172560 0 75
0.00950000 0.00948925 73348.17286813 0 -22449.13856981 0 7773.84603820 0 19114.70795067 0 -30153.70507161 0 112
0.01050000 0.01054430 85677.53872344 0 -5267.49244760 0 3102.44326954 0 -21313.67165965 0 -18287.27311697 0 105
0.01150000 0.01145670 95533.45793751 0 1440.26586776 0 -4451.21851732 0 -4479.63010280 0 -12949.85893814 0 144
0.01250000 0.01249090 96896.01822969 0 -4328.48179670 0 7298.92080975 0 -16684.11120648 0 -6090.73087019 0 169
0.01350000 0.01339930 103865.27164029 0 -10215.21615443 0 -13975.15621635 0 2547.97445959 0 -5209.46239322 0 180
0.01450000 0.01448870 102007.66770547 0 -2905.68805751 0 14331.90652201 0 -3160.94943388 0 -31394.80196053 0 267
0.01550000 0.01550050 100111.97497327 0 12356.93594411 0 12794.84639068 0 -12715.78999148 0 -22774.00057998 0 238
0.01650000 0.01653350 89502.47333204 0 16203.79375585 0 21422.51261262 0 -9966.29922019 0 -19810.27139578 0 315
0.01750000 0.01747870 78991.84755144 0 14599.63533612 0 12888.96115164 0 -8264.64898043 0 -1497.19976198 0 297
0.01850000 0.01844180 76210.25811050 0 1096.20666081 0 21011.17574561 0 -3809.43335386 0 -12892.83646533 0 388
0.01950000 0.01947590 72993.08341120 0 166.79128660 0 20571.38300381 0 2173.22055378 0 -12532.54301573 0 399
0.02050000 0.02045430 75614.23486551 0 -1624.90795644 0 20452.35551201 0 3242.34209362 0 -18301.66713924 0 462
0.02150000 0.02154770 77001.37571879 0 2482.26021179 0 18114.10195681 0 9763.99677343 0 -13681.29671566 0 571
0.02250000 0.02255340 70591.60688128 0 1937.77863884 0 27297.15599165 0 -1155.30851623 0 -12416.50505163 0 510
0.02350000 0.02348930 74890.43699212 0 3933.80877854 0 21558.92365439 0 10205.28427907 0 -4438.07566776 0 555
0.02450000 0.02439640 67135.49141239 0 3064.60913563 0 23566.22542076 0 -1958.35101835 0 -1853.61789789 0 592
0.02550000 0.02547300 66932.86786821 0 5285.46283078 0 26180.95492668 0 986.82980732 0 6552.52432140 0 837
0.02650000 0.02652900 63444.08904110 0 4842.85771848 0 30121.37388314 0 2864.91975753 0 5390.24024054 0 723
0.02750000 0.02749970 59179.69386045 0 2712.18810898 0 31896.37827482 0 1684.74279976 0 12701.83886221 0 826
0.02850000 0.02848090 57809.93655713 0 2136.27220586 0 29850.10192508 0 5780.69470294 0 7648.23051313 0 831
0.02950000 0.02946900 55210.04396646 0 690.20997606 0 23359.61583964 0 6810.11088598 0 -336.18899847 0 996
0.03050000 0.03053250 57583.28606809 0 -926.52771189 0 21338.03077425 0 2895.34650613 0 -320.54601796 0 1041
0.03150000 0.03150510 55246.91480811 0 -2941.04199065 0 11291.88901980 0 3952.39921191 0 -5094.44308301 0 1036
0.03250000 0.03246190 57368.59368986 0 -54.76560085 0 17295.08208997 0 4252.94639679 0 -9191.09254266 0 1059
0.03350000 0.03345080 56163.59257985 0 1040.46857767 0 9215.90562258 0 -7184.31117555 0 -13446.67415276 0 1302
0.03450000 0.03451200 57169.62401287 0 3535.96907548 0 15019.05500025 0 -2667.93202668 0 -15383.55593328 0 1339
0.03550000 0.03553350 53844.82631633 0 1875.29750988 0 14399.00481041 0 -6087.76348714 0 -14351.94742993 0 1365
0.03650000 0.03647120 52743.57288986 0 -603.61000195 0 17634.11667592 0 -2356.64468673 0 -16191.50347530 0 1308
0.03750000 0.03744890 54920.50267246 0 742.79576832 0 22408.61386097 0 -2582.98515067 0 -11657.71863181 0 1579
0.03850000 0.03847530 54115.43393489 0 2816.23474530 0 21710.83595090 0 1727.24945473 0 -11333.52096112 0 1662
0.03950000 0.03950240 53998.28873831 0 -1092.32691819 0 23067.41718768 0 3646.78090227 0 -4496.42681955 0 1683
0.04050000 0.04050350 52196.93221357 0 240.64037145 0 18880.52828076 0 7984.65203042 0 -6138.53009643 0 1822
0.04150000 0.04152450 52072.92217560 0 1842.41270517 0 17165.86805934 0 8259.65536194 0 -6298.29267124 0 1887
0.04250000 0.04250150 46632.75682245 0 5148.25458163 0 15106.85853606 0 2412.30526359 0 -2582.42046210 0 1920
0.04350000 0.04349210 46108.92513528 0 4338.87870971 0 16913.52977672 0 2740.20109077 0 -2585.65358095 0 2005
0.04450000 0.04448520 40736.41168678 0 1317.30770065 0 14367.33796143 0 -1319.53323794 0 6641.18042622 0 2151
0.04550000 0.04548030 40823.99377609 0 -6.34211693 0 15427.73450931 0 4122.43690415 0 5319.75382074 0 2274
0.04650000 0.04648670 42266.71769996 0 -2078.51895961 0 14224.06207827 0 5821.07547156 0 6523.85807245 0 2311
0.04750000 0.04749250 41690.62463965 0 -25.00142016 0 13346.02672016 0 5525.55512215 0 5654.63628488 0 2568
0.04850000 0.04851840 41738.56780611 0 1951.71869578 0 9548.46289851 0 912.90100174 0 2871.77352659 0 2493
0.04950000 0.04949480 40360.83842893 0 127.63400988 0 9848.26823762 0 -1152.47400107 0 11542.23428395 0 2644
0.05050000 0.05050630 40783.35834401 0 -265.09692251 0 11580.43380457 0 -668.84260362 0 9319.34328103 0 2829
0.05150000 0.05149060 40965.38736403 0 77.47737496 0 9595.53135131 0 23.05379823 0 7473.64209539 0 2784
0.05250000 0.05249300 41850.17684029 0 149.23611560 0 14063.84553815 0 -2210.20211867 0 6109.17736334 0 3055
0.05350000 0.05348950 42210.13812014 0 933.70922177 0 14495.11258983 0 -3835.87406552 0 3317.45674519 0 3009
0.05450000 0.05448610 41224.36904154 0 1805.36470633 0 17521.51113252 0 -3030.27385637 0 3645.31935539 0 3336
0.05550000 0.05550870 40316.77057615 0 2107.27378716 0 18105.13337371 0 -2211.26506186 0 3774.72161555 0 3349
0.05650000 0.05647670 38369.59153354 0 -340.21489577 0 18264.46412785 0 1029.06076141 0 4050.65502235 0 3324
0.05750000 0.05747970 38781.59274005 0 162.33578310 0 18961.90986817 0 4653.53203640 0 2056.69540739 0 3639
0.05850000 0.05849280 39223.93211655 0 -301.34549950 0 19609.19797707 0 3583.19254084 0 63.98652223 0 3846
0.05950000 0.05951020 38861.97781823 0 1487.67756263 0 15913.25595261 0 1595.95382703 0 289.94654110 0 3787
0.06050000 0.06049470 37060.17840049 0 1663.48393610 0 16554.12211311 0 167.10020447 0 2297.30809802 0 3930
0.06150000 0.06148310 35697.72883156 0 530.64116693 0 14948.41356791 0 3.57889648 0 3664.07587364 0 4083
0.06250000 0.06249100 35886.95486271 0 386.57693425 0 16343.85866480 0 391.22509621 0 1803.36061554 0 4303
0.06350000 0.06350600 34611.86593659 0 1211.42305841 0 15189.01518622 0 -66.48687462 0 -3553.20868523 0 4470
0.06450000 0.06451750 33015.45814424 0 1827.69758549 0 14913.31429823 0 -1320.08685418 0 -3120.91190733 0 4479
0.06550000 0.06550280 31978.75637147 0 1692.69272898 0 15587.39743319 0 -2384.40300505 0 -4341.91252671 0 4636
0.06650000 0.06648880 31053.22073988 0 -146.84781514 0 14820.74966275 0 975.46849483 0 -3419.10068702 0 4653
0.06750000 0.06749660 30686.50534189 0 242.65332010 0 14699.17553624 0 1512.81173997 0 -4537.83731437 0 5220
0.06850000 0.06852730 31218.30910293 0 522.87725277 0 13139.86003203 0 3551.43711326 0 -4568.59623272 0 5029
0.06950000 0.06949320 29686.67441076 0 1341.50073038 0 14313.85863255 0 1160.85575096 0 -3221.86936503 0 5040
0.07050000 0.07048030 29328.04180989 0 797.74550193 0 12539.96147336 0 692.60491992 0 -1438.66038066 0 5475
0.07150000 0.07148790 28324.55701157 0 684.16337947 0 13562.93356335 0 2021.57399306 0 -650.75706826 0 5509
0.07250000 0.07249820 28332.30763894 0 -79.26168011 0 12260.93888793 0 1134.50361789 0 312.26502623 0 5916
0.07350000 0.07351270 28381.13659140 0 -313.99341614 0 11816.38504646 0 1579.89895605 0 486.58770818 0 5721
0.07450000 0.07449140 28274.95299638 0 341.69305114 0 10912.82797963 0 877.44852490 0 -36.87737432 0 6028
0.07550000 0.07549160 27915.98822576 0 1065.32594689 0 11319.12693885 0 345.05018002 0 -816.92498298 0 6183
0.07650000 0.07648840 26845.62658555 0 1245.32651700 0 11161.34631019 0 176.71873304 0 -624.96519483 0 6330
0.07750000 0.07749960 25767.29287146 0 1516.13343742 0 11271.84811188 0 -296.01417510 0 365.24388603 0 6583
0.07850000 0.07848650 24907.19467954 0 567.78217331 0 11350.35089484 0 -330.56425746 0 138.20918732 0 6549
0.07950000 0.07947320 24923.13882728 0 -508.43894121 0 11261.10795680 0 1616.74765304 0 -95.16231361 0 6828
0.08050000 0.08048110 25091.10599478 0 -13.44678488 0 11492.63026876 0 93.89785412 0 -1359.90293423 0 7147
0.08150000 0.08149960 25289.74350203 0 818.27137768 0 10785.30801470 0 395.44918813 0 -2559.58932833 0 7386
0.08250000 0.08250610 24187.38284308 0 693.65346908 0 10603.58901977 0 -1001.37109151 0 -1057.45463118 0 7227
0.08350000 0.08350160 23568.77205547 0 952.56317647 0 9900.91714213 0 772.28690547 0 -1557.93146361 0 7798
0.08450000 0.08449610 23391.50413512 0 -512.07952161 0 9389.86291780 0 1226.02745484 0 -1864.94488618 0 7371
0.08550000 0.08548940 23477.20392922 0 -37.42490078 0 8591.07218841 0 1911.11648067 0 -2802.36112230 0 8256
0.08650000 0.08650700 23480.85779641 0 40.70618424 0 7482.53317222 0 1001.65897195 0 -2509.92995151 0 8037
0.08750000 0.08749060 23272.58736657 0 133.22331945 0 8279.71841451 0 877.51163715 0 266.36802539 0 8155
0.08850000 0.08849210 22951.15777708 0 393.47609985 0 7807.32874845 0 824.12088688 0 423.56071361 0 8718
0.08950000 0.08949900 22410.49615619 0 520.87537644 0 8735.06777268 0 979.92953449 0 437.47641144 0 8571
0.09050000 0.09049190 22221.82374128 0 1034.00012551 0 8093.01687342 0 -62.12869685 0 2091.41821802 0 8932
0.09150000 0.09150830 21427.05226580 0 556.34889070 0 8639.82363459 0 -98.62640115 0 991.41596426 0 9285
0.09250000 0.09250820 21002.65005550 0 268.28021589 0 9104.23015446 0 -118.21256869 0 2357.04329042 0 9204
0.09350000 0.09350330 20731.26737419 0 142.62040152 0 8235.09694549 0 -13.85734668 0 -381.50913118 0 9349
0.09450000 0.09448040 20589.09872352 0 502.41227481 0 8559.33890548 0 -69.47308063 0 949.86595815 0 9564
0.09550000 0.09549270 19736.19754274 0 857.17952709 0 7656.18044235 0 1335.89813402 0 -803.05689614 0 10155
0.09650000 0.09649430 19254.66213638 0 319.40446128 0 7624.62431662 0 1295.45093146 0 -163.93573403 0 9913
0.09750000 0.09749140 18534.62885342 0 407.59220676 0 6763.70677267 0 628.07983980 0 -539.36062273 0 10476
0.09850000 0.09850240 18405.52554604 0 424.62033510 0 6951.63734181 0 308.61780244 0 126.31197430 0 10575
0.09950000 0.09950330 18097.49346958 0 449.23079147 0 6870.25575440 0 270.54007739 0 1857.58179017 0 10882
0.10050000 0.10051200 17799.53720871 0 183.90135015 0 6380.81470811 0 589.69319689 0 2088.29582242 0 10875
0.10150000 0.10150300 17779.71774729 0 270.91100027 0 6845.11050473 0 848.38145779 0 2901.79059917 0 11118
0.10250000 0.10250800 17573.77250566 0 210.20476498 0 6392.05311780 0 139.21787611 0 923.19604936 0 11575
0.10350000 0.10349800 17515.19990737 0 272.78111593 0 6189.46279060 0 767.78711267 0 2097.23118855 0 11364
0.10450000 0.10450100 16983.06397658 0 -8.48885249 0 5654.12695794 0 336.55327796 0 1254.29510011 0 12093
0.10550000 0.10551000 17149.37029536 0 81.32268265 0 5175.53678998 0 811.88596795 0 1711.83677859 0 12067
0.10650000 0.10649700 16765.71424039 0 134.76680153 0 5401.75545835 0 545.93426197 0 957.64758803 0 12054
0.10750000 0.10749900 16511.27221606 0 567.28724039 0 4968.53967750 0 219.15231067 0 1566.97755298 0 12807
0.10850000 0.10850100 15832.76015118 0 708.08845894 0 5237.57502594 0 32.62925545 0 1679.82668754 0 12736
0.10950000 0.10950300 15365.84021357 0 567.26509574 0 5413.49212266 0 150.60797665 0 1933.67080633 0 12933
0.11050000 0.11050200 14953.72828382 0 330.85435237 0 5870.62412512 0 179.85773712 0 2397.92231365 0 13428
0.11150000 0.11150900 15168.42066206 0 293.76981486 0 5739.87104134 0 111.39201661 0 2005.28660326 0 13453
0.11250000 0.11250000 14852.97012797 0 -57.61163122 0 5522.32200330 0 232.63397337 0 1944.07879166 0 13668
0.11350000 0.11349100 14942.43451251 0 -68.66380441 0 4963.41319110 0 7.35881101 0 1707.56286121 0 13791
0.11450000 0.11448600 14730.28876898 0 158.78156683 0 4624.77720885 0 174.76336047 0 1126.86371377 0 14205
0.11550000 0.11549300 14774.79951475 0 137.03441365 0 4789.85449957 0 -422.33722172 0 250.01863057 0 14776
0.11650000 0.11649800 14759.85187625 0 152.53013224 0 4468.31418684 0 74.26130750 0 411.34683211 0 14553
0.11750000 0.11747300 14494.55897359 0 231.12592273 0 4477.34920389 0 -224.48695677 0 -389.68161413 0 14568
0.11850000 0.11849100 14358.81227132 0 306.60596102 0 4902.43789833 0 475.13117369 0 -144.25689113 0 16015
0.11950000 0.11950300 14263.70100112 0 82.77681107 0 5036.22479911 0 185.73603437 0 292.13996864 0 15270
0.12050000 0.12050700 14124.85404790 0 92.10070507 0 4805.10109085 0 779.64114362 0 770.39243070 0 15999
0.12150000 0.12150000 14231.70198240 0 -117.70767068 0 4918.00558702 0 702.64862576 0 1159.28348084 0 15670
0.12250000 0.12250700 14141.24108863 0 102.06889766 0 4365.27513208 0 485.07965754 0 851.02774342 0 16887
0.12350000 0.12352200 13908.05792795 0 372.75092225 0 4323.38852729 0 197.80376119 0 948.19957326 0 16407
0.12450000 0.12449800 13630.80691449 0 195.92921660 0 3792.71414338 0 -54.43188098 0 519.25106639 0 16306
0.12550000 0.12549900 13471.47616035 0 15.17650346 0 3795.39364599 0 -81.69659506 0 113.96190320 0 17523
0.12650000 0.12650100 13437.15195341 0 81.33685522 0 3912.11809422 0 -198.17689853 0 -546.20553393 0 17154
0.12750000 0.12750600 13487.08813834 0 167.96938196 0 3672.74550397 0 -198.31419536 0 -1062.77599049 0 18007
0.12850000 0.12850300 13105.64654834 0 176.11086240 0 3597.18795941 0 -343.39376023 0 -759.55483916 0 17496
0.12950000 0.12949900 13217.69847551 0 135.70794914 0 3673.74201320 0 50.68555988 0 -738.61707293 0 18405
0.13050000 0.13049000 13183.92788481 0 -30.86299820 0 3909.82612299 0 439.61226290 0 -649.27005504 0 18100
0.13150000 0.13148800 12949.30532190 0 211.87668603 0 3586.50316596 0 489.09226805 0 -293.48525611 0 19059
0.13250000 0.13249300 12941.66541778 0 270.57218713 0 3491.40296809 0 527.21981856 0 2.92694692 0 18957
0.13350000 0.13349100 12699.07078100 0 147.14233898 0 3376.99263574 0 340.80505069 0 -317.55316857 0 19468
0.13450000 0.13450700 12645.81289862 0 220.35365791 0 3373.51592575 0 -274.97232901 0 121.73024629 0 19953
0.13550000 0.13551000 12243.33389147 0 556.33006775 0 3852.82579482 0 -551.69076365 0 -16.84676366 0 19956
0.13650000 0.13649900 11981.25196301 0 421.50126120 0 4011.14896740 0 -509.24832815 0 311.79223796 0 19723
0.13750000 0.13749600 11754.15858098 0 46.53986002 0 4195.48103098 0 219.31285938 0 654.50062128 0 20946
0.13850000 0.13851100 11666.35504517 0 -8.54740294 0 4115.28418232 0 440.89554535 0 315.47378597 0 20955
0.13950000 0.13949800 11743.52914915 0 -33.58867240 0 4101.93095859 0 865.60445904 0 264.39604434 0 20506
0.14050000 0.14048300 11751.83339277 0 77.50239842 0 4120.11171594 0 303.19679221 0 407.81033156 0 21447
0.14150000 0.14148400 11521.86120628 0 336.77583168 0 3837.32454007 0 -98.93111153 0 908.30377248 0 21771
0.14250000 0.14249400 11164.22511464 0 382.02953045 0 3802.77888664 0 -192.91865148 0 813.45048745 0 22470
0.14350000 0.14350900 11087.93679664 0 201.12878033 0 3945.99940817 0 -199.67830578 0 944.63871360 0 22519
0.14450000 0.14449900 10958.53453649 0 34.46814716 0 3501.35698810 0 -90.05420728 0 196.04769047 0 22218
0.14550000 0.14550500 10915.16424017 0 158.88343222 0 3600.00032991 0 181.68245625 0 12.22085707 0 23559
0.14650000 0.14650700 10683.52013264 0 86.80968394 0 3172.79682143 0 -30.56614917 0 -335.09726724 0 23044
0.14750000 0.14750500 10570.25024974 0 148.31711264 0 3140.91959828 0 280.91484574 0 -596.44067163 0 23649
0.14850000 0.14849900 10422.20219459 0 312.86846794 0 3052.85032667 0 351.82755004 0 -293.22616371 0 23640
0.14950000 0.14949500 10206.32507761 0 60.03170926 0 2693.34301214 0 512.48587593 0 -455.97937345 0 24457
0.15050000 0.15050000 10180.44905450 0 -57.56191648 0 2757.16389239 0 491.89910239 0 146.69944599 0 24591
0.15150000 0.15149900 10202.32796835 0 -23.09841970 0 2642.14458217 0 370.77340504 0 -358.89944390 0 25020
0.15250000 0.15250500 10106.91774538 0 178.83022538 0 2564.15112615 0 75.57758547 0 146.23108665 0 25297
0.15350000 0.15350100 9965.44665118 0 235.38323162 0 2573.58474690 0 -122.39901471 0 293.48747057 0 25452
0.15450000 0.15450400 9926.82638221 0 218.68727303 0 2689.76665122 0 -3.26796345 0 362.48134098 0 26061
0.15550000 0.15549900 9727.96742847 0 257.80690384 0 2736.72438078 0 -318.18872001 0 155.41336562 0 26128
0.15650000 0.15649500 9543.73501581 0 267.60369684 0 2948.79261803 0 -134.06149444 0 -99.98375745 0 26331
0.15750000 0.15749700 9454.74674124 0 184.71959495 0 3135.81525654 0 -168.08010521 0 119.42055933 0 27345
0.15850000 0.15849900 9284.34366228 0 95.37744888 0 3127.07919226 0 -208.30364681 0 -279.02369266 0 26980
0.15950000 0.15949700 9256.40818676 0 129.13763159 0 3369.86205856 0 -161.32487984 0 -273.95146066 0 27777
0.16050000 0.16050000 9083.61348564 0 327.50275965 0 3397.35464108 0 27.06607657 0 -367.52257047 0 28224
0.16150000 0.16150500 8963.85522041 0 115.73126070 0 3436.06348865 0 327.44850526 0 -81.92335627 0 28075
0.16250000 0.16249700 8773.40016120 0 10.32990329 0 3175.25487754 0 163.20496059 0 79.00469145 0 28590
0.16350000 0.16349900 8813.18302427 0 35.00858733 0 3076.89941618 0 399.86261680 0 -241.88047183 0 29163
0.16450000 0.16449100 8703.88810599 0 52.23147787 0 3105.52137583 0 341.54578922 0 68.81671321 0 28996
0.16550000 0.16550500 8684.92121357 0 202.38438197 0 3020.84023562 0 102.54965801 0 175.46091694 0 30777
0.16650000 0.16650700 8285.16599832 0 234.39668748 0 2934.03320904 0 205.16242826 0 442.52428433 0 29211
0.16750000 0.16749900 8393.98480664 0 102.90873350 0 2931.91839500 0 -30.20530211 0 471.00451823 0 30922
0.16850000 0.16850800 8231.50951225 0 -23.28177740 0 2837.92542962 0 329.02409708 0 597.89003895 0 30867
0.16950000 0.16949900 8408.38990123 0 -147.77789042 0 2807.94157401 0 71.44838338 0 436.61387734 0 30852
0.17050000 0.17049200 8369.73641529 0 61.39626257 0 2817.22018221 0 41.35557609 0 600.84413521 0 31257
0.17150000 0.17149500 8470.78245158 0 116.53732595 0 2706.22012590 0 50.85496645 0 524.97324386 0 32608
0.17250000 0.17250900 8270.34015539 0 113.81464128 0 2547.46513265 0 199.06489898 0 775.75254314 0 32361
0.17350000 0.17350400 8293.62525448 0 29.92871543 0 2441.91266015 0 206.53096761 0 877.19718313 0 32508
0.17450000 0.17449800 8246.09176404 0 1.12131648 0 2435.16961434 0 402.04165033 0 906.94519822 0 32791
0.17550000 0.17549800 8168.98409400 0 148.97148704 0 2227.96212768 0 278.62066004 0 997.44484513 0 33633
0.17650000 0.17650100 8101.21039379 0 -14.52434353 0 1868.88663381 0 443.69130737 0 770.55740834 0 33984
0.17750000 0.17750300 8010.91558489 0 69.02575871 0 1844.01819227 0 48.42436970 0 733.25917495 0 34069
0.17850000 0.17849800 7926.24551700 0 116.53621872 0 1486.71427037 0 259.31274002 0 291.80779890 0 34536
