### header ###
fiducial parameters:
Omega_m = 0.31
Omega_nu = 0
Omega_de = 0.69
Omega_k = 0
H_0 = 100
w_de = -1
zeff = 0
beta = 0
fgrowth = 0
b_1 = 2
gamma = 0.55
Lx = 3500 Ly = 3500 Lz = 3500
nx = 700 ny = 700 nz = 700
xoffset = -685.467585 yoffset = -31.7331281 zoffset = 572.489161
bins = 400 dk = 0.001
kx_ny = 0.628318531 ky_ny = 0.628318531 kz_ny = 0.628318531
############################
A(data) = 8.04567847 (not used)
A(ran) = 8.03857432 (used)
Ngal = 478116
weighted Ngal = 0
Nran = 23820508
weighted Nran = 0
SN(data) = 3494.79689
SN(ran) = 70.0188977
SN(data+ran) = 3564.81579
############################
13 columns: k_central k_mean P_0(k) sigma^{lin}_{P_0(k)} P^img_1(k) sigma^{lin}_{P_1(k)} P_2(k) sigma^{lin}_{P_2(k)} P^img_3(k) sigma^{lin}_{P_3(k)} P_4(k) sigma^{lin}_{P_4(k)} N_modes
### header ###
0.00050000 0 0 0 0 0 0 0 0 0 0 0 0
0.00150000 0.00179520 90176.55646700 0 -74586.83384559 0 16647.79398108 0 12882.42848000 0 -190878.02201361 0 3
0.00250000 0.00253879 150457.39303066 0 -66665.13905409 0 -25376.55052861 0 -10704.91186419 0 182033.44894847 0 6
0.00350000 0.00331552 146304.16399118 0 -17141.61966799 0 -21203.50202771 0 -107793.84320919 0 18357.13948658 0 7
0.00450000 0.00420575 129715.60694789 0 25744.59460558 0 -46333.25043611 0 -68078.96421018 0 42666.20717942 0 24
0.00550000 0.00557378 92529.86838395 0 5304.82832689 0 -37076.01182498 0 -11490.85869679 0 13875.17312324 0 45
0.00650000 0.00659388 70968.06592511 0 6142.07324037 0 -34764.33184934 0 -26895.00915424 0 28593.72522791 0 40
0.00750000 0.00754703 78106.50445894 0 -10022.05944797 0 -39240.09771079 0 -8316.68890708 0 3269.13711968 0 57
0.00850000 0.00846663 74389.74646382 0 3377.83413242 0 -16547.14654847 0 -2784.98864466 0 32118.26766418 0 75
0.00950000 0.00948925 73877.54071771 0 673.78528942 0 -2998.37448856 0 -34200.08617659 0 28796.23804885 0 112
0.01050000 0.01054430 74048.71885941 0 10311.21321061 0 12891.61850960 0 -10324.24533692 0 56124.39654999 0 105
0.01150000 0.01145670 77546.35554637 0 -2689.39019218 0 43195.35358250 0 -23255.31453985 0 33810.45106622 0 144
0.01250000 0.01249090 85166.32948656 0 -6819.63308533 0 55861.65028204 0 776.72690773 0 48867.04124761 0 169
0.01350000 0.01339930 88426.46480616 0 3614.44971380 0 70267.74138033 0 8120.65339617 0 11239.62764666 0 180
0.01450000 0.01448870 94859.37480255 0 7160.93749786 0 79228.90602581 0 10925.50579155 0 35501.19506603 0 267
0.01550000 0.01550050 89923.77529139 0 8574.33083329 0 59322.19468086 0 32547.20952766 0 35601.51032888 0 238
0.01650000 0.01653350 81494.63585345 0 4086.14182340 0 42499.90086064 0 37678.45701836 0 15230.86857403 0 315
0.01750000 0.01747870 75730.60499936 0 -699.84732758 0 21719.69381075 0 12493.45770912 0 -4894.15579936 0 297
0.01850000 0.01844180 75856.05443955 0 3736.92069862 0 22036.03013082 0 9610.71150864 0 -6.57441431 0 388
0.01950000 0.01947590 71289.27406810 0 575.23938407 0 14639.60642872 0 -7080.37526248 0 1549.48327977 0 399
0.02050000 0.02045430 72421.19783431 0 -3220.66248162 0 12831.82795558 0 4112.39430554 0 -11040.66904199 0 462
0.02150000 0.02154770 75092.06402707 0 2173.23162610 0 18126.28151411 0 -2937.05595372 0 -6581.63346335 0 571
0.02250000 0.02255340 72411.67563497 0 6307.30554364 0 24109.87656935 0 -624.33960848 0 -5293.43490465 0 510
0.02350000 0.02348930 67667.84878967 0 5501.33994777 0 23275.57689427 0 -5603.51536119 0 -5569.53439633 0 555
0.02450000 0.02439640 66775.97302553 0 7805.38001928 0 25222.64521363 0 3396.57957834 0 22237.76788902 0 592
0.02550000 0.02547300 61680.93203698 0 556.00343416 0 25615.38057495 0 5878.36368017 0 8449.13605656 0 837
0.02650000 0.02652900 63222.31037498 0 -2094.85063871 0 22634.82145701 0 12587.01885384 0 8049.71301105 0 723
0.02750000 0.02749970 64154.15723172 0 -1002.99429432 0 16729.50773824 0 5486.52517716 0 -282.43950487 0 826
0.02850000 0.02848090 63326.27950503 0 2126.26282422 0 16800.81351007 0 -521.64158132 0 4247.54310228 0 831
0.02950000 0.02946900 63338.12689258 0 -163.74196835 0 14931.36218769 0 1377.58543696 0 2655.38708266 0 996
0.03050000 0.03053250 60111.20854744 0 1312.14799728 0 19216.35189251 0 3092.86570857 0 1112.31467896 0 1041
0.03150000 0.03150510 61998.81848252 0 1516.78670458 0 24489.43586414 0 -1975.88958086 0 8380.45442571 0 1036
0.03250000 0.03246190 60474.04863175 0 4234.20095087 0 23738.06790194 0 2598.22066962 0 892.62868223 0 1059
0.03350000 0.03345080 56561.42121058 0 3974.65458480 0 27525.02443642 0 -3226.65260935 0 14024.42806179 0 1302
0.03450000 0.03451200 55515.52940821 0 3421.24871804 0 28751.72730308 0 2261.51127188 0 4719.00269306 0 1339
0.03550000 0.03553350 53936.72661232 0 433.11723716 0 27996.04113420 0 2409.50396541 0 7954.46887296 0 1365
0.03650000 0.03647120 51868.85922919 0 -90.39700645 0 24698.59207996 0 7313.84630361 0 1599.85128537 0 1308
0.03750000 0.03744890 52890.05974721 0 610.89226999 0 23719.02350326 0 3661.75068542 0 -555.78198767 0 1579
0.03850000 0.03847530 49821.69709347 0 3058.91796067 0 21713.16113911 0 4053.27916334 0 -100.08684080 0 1662
0.03950000 0.03950240 46465.34327119 0 4381.35214771 0 19148.14637162 0 -293.77756548 0 828.50774197 0 1683
0.04050000 0.04050350 43610.45503995 0 2490.03298382 0 17747.71872856 0 3340.31002361 0 1553.29215951 0 1822
0.04150000 0.04152450 41837.88655974 0 2376.54165442 0 20779.32126391 0 1686.48115475 0 -2282.91407576 0 1887
0.04250000 0.04250150 41515.12829127 0 1734.71220166 0 19355.42029223 0 -1131.21513742 0 -1547.74492477 0 1920
0.04350000 0.04349210 38240.04533317 0 477.94243696 0 19183.13491805 0 -48.18432170 0 2565.23621398 0 2005
0.04450000 0.04448520 38261.08275032 0 1367.15530698 0 20182.41223293 0 3354.10614034 0 6123.03991401 0 2151
0.04550000 0.04548030 38825.32842308 0 -996.34979220 0 18665.17156303 0 5087.86612207 0 4899.93555292 0 2274
0.04650000 0.04648670 39559.20211206 0 -1387.87162672 0 17228.42669457 0 3146.69935184 0 3844.03436891 0 2311
0.04750000 0.04749250 39236.55456684 0 -239.07585195 0 15368.49757153 0 5168.46157442 0 4747.58036341 0 2568
0.04850000 0.04851840 39711.22513182 0 391.79642817 0 14351.28309044 0 1120.23139120 0 335.53905300 0 2493
0.04950000 0.04949480 38322.31270657 0 1131.96805551 0 12328.48006932 0 340.22707533 0 5763.28900833 0 2644
0.05050000 0.05050630 38276.58400507 0 2108.64675544 0 12971.89286453 0 57.12821352 0 1898.49403038 0 2829
0.05150000 0.05149060 36431.93469028 0 538.68742538 0 11854.69529033 0 1095.20461541 0 5326.68509608 0 2784
0.05250000 0.05249300 35986.38433958 0 245.89086788 0 7950.73749950 0 3412.55694306 0 -99.95474796 0 3055
0.05350000 0.05348950 36064.22278305 0 -810.66911946 0 8907.22027896 0 1636.48960820 0 1913.30880099 0 3009
0.05450000 0.05448610 35382.94263696 0 207.84082364 0 8775.01672062 0 -848.72469986 0 -3512.85006126 0 3336
0.05550000 0.05550870 35408.40898405 0 1861.86677988 0 9234.95002127 0 -2508.06980095 0 -2831.53669820 0 3349
0.05650000 0.05647670 33724.52982563 0 2012.53897601 0 10439.05427297 0 -2959.00130151 0 -2139.69355423 0 3324
0.05750000 0.05747970 32724.58817125 0 799.28012615 0 11508.68513975 0 -1205.66544950 0 -2366.90873183 0 3639
0.05850000 0.05849280 31651.01555684 0 1670.74738118 0 11402.61226799 0 953.74237907 0 2129.17484565 0 3846
0.05950000 0.05951020 31835.14831857 0 80.02013436 0 10878.22696458 0 3034.40383352 0 343.60967056 0 3787
0.06050000 0.06049470 30390.09920649 0 -29.26027918 0 11002.33665347 0 3950.06295138 0 1411.25637674 0 3930
0.06150000 0.06148310 31578.38110603 0 573.18436058 0 10011.77325822 0 3472.98969192 0 -210.00546314 0 4083
0.06250000 0.06249100 30792.68893690 0 -588.56492699 0 8973.44385370 0 1010.47143527 0 1376.09067311 0 4303
0.06350000 0.06350600 31371.66080166 0 -702.67298487 0 8423.60327553 0 37.16901935 0 1019.06909550 0 4470
0.06450000 0.06451750 32113.94945751 0 -499.48143043 0 8763.30220097 0 1097.36593322 0 2106.03368678 0 4479
0.06550000 0.06550280 32049.28708056 0 345.55618527 0 9658.96470020 0 -369.74478606 0 1781.24918287 0 4636
0.06650000 0.06648880 31546.04991756 0 542.24053441 0 8690.08091694 0 -534.52755294 0 571.53347695 0 4653
0.06750000 0.06749660 31088.98434904 0 2004.46725122 0 9758.20594755 0 -937.56239081 0 1229.22735672 0 5220
0.06850000 0.06852730 29595.10628451 0 1231.41967703 0 8311.67314394 0 -320.48401295 0 2242.12363113 0 5029
0.06950000 0.06949320 29419.05631990 0 -139.80692379 0 10588.20956060 0 746.69322665 0 2023.40092666 0 5040
0.07050000 0.07048030 29591.23097083 0 -723.90638218 0 8716.77629208 0 1290.76733806 0 613.77771783 0 5475
0.07150000 0.07148790 29172.03275319 0 815.56419426 0 9707.08502386 0 -776.24969053 0 -877.03884888 0 5509
0.07250000 0.07249820 28835.98769495 0 1657.46059140 0 9183.75159130 0 -1419.02914876 0 -3004.14316980 0 5916
0.07350000 0.07351270 26548.11321767 0 1282.46309444 0 8397.87119265 0 -161.38245593 0 -59.54973096 0 5721
0.07450000 0.07449140 26069.45661576 0 715.30207856 0 8335.76652274 0 1747.74432797 0 -1561.47460755 0 6028
0.07550000 0.07549160 25942.67849658 0 -530.30899719 0 7526.14705968 0 1922.78671103 0 -2653.21690699 0 6183
0.07650000 0.07648840 25821.54726307 0 -325.27500789 0 6791.07755962 0 1526.88466482 0 -3553.98374796 0 6330
0.07750000 0.07749960 25698.97662733 0 763.66377890 0 6009.73681414 0 -998.35720469 0 -2592.87273673 0 6583
0.07850000 0.07848650 25255.41929509 0 947.16541812 0 6400.47915699 0 -535.13874527 0 -2014.65379005 0 6549
0.07950000 0.07947320 24539.48277232 0 531.81926229 0 7362.14378447 0 -349.95964885 0 -1472.61920088 0 6828
0.08050000 0.08048110 24195.68708670 0 866.65632990 0 6652.62921009 0 564.41175763 0 -924.59448398 0 7147
0.08150000 0.08149960 23293.84623022 0 276.91995095 0 6990.86658865 0 -390.89181924 0 -2793.93508311 0 7386
0.08250000 0.08250610 23475.98597349 0 424.27155687 0 8344.75725050 0 493.67067436 0 -1616.18296448 0 7227
0.08350000 0.08350160 23377.44228260 0 384.36689822 0 8473.16300142 0 -1409.13049037 0 -1817.73249315 0 7798
0.08450000 0.08449610 23219.10803769 0 -411.11652775 0 9589.75159775 0 -9.21220747 0 -899.32190258 0 7371
0.08550000 0.08548940 23299.38239263 0 -8.06607791 0 9565.75786987 0 -784.57386432 0 -160.64061017 0 8256
0.08650000 0.08650700 23982.21266420 0 557.28671661 0 10441.04729144 0 609.99984061 0 -1385.65716175 0 8037
0.08750000 0.08749060 22832.01956203 0 763.35153934 0 10935.12764182 0 322.20797392 0 158.27777605 0 8155
0.08850000 0.08849210 22124.16583638 0 1465.64363624 0 10353.73093792 0 1473.82608429 0 1117.26400815 0 8718
0.08950000 0.08949900 21286.65518710 0 138.09514237 0 9487.18865296 0 2878.31727056 0 1274.55745452 0 8571
0.09050000 0.09049190 20744.00054773 0 -37.99080730 0 8050.99740073 0 2357.14294134 0 1064.74797154 0 8932
0.09150000 0.09150830 20632.72368331 0 229.03657504 0 6406.15925962 0 2169.68848216 0 989.24800306 0 9285
0.09250000 0.09250820 20357.79785806 0 319.64915965 0 6207.44424610 0 629.23468328 0 2050.82707523 0 9204
0.09350000 0.09350330 19894.75323414 0 687.96893751 0 5383.47505007 0 -866.70615536 0 1070.81117661 0 9349
0.09450000 0.09448040 19616.39498820 0 533.20773183 0 5911.66923322 0 -935.04675861 0 1078.91501114 0 9564
0.09550000 0.09549270 18848.08636904 0 856.29817003 0 6229.16814740 0 -1013.58829471 0 1614.18994601 0 10155
0.09650000 0.09649430 18518.02036619 0 586.49440225 0 8162.01960169 0 -1331.96745871 0 1574.36279364 0 9913
0.09750000 0.09749140 18225.82171423 0 610.65864393 0 8221.22332249 0 181.70570813 0 239.17661011 0 10476
0.09850000 0.09850240 17518.41088157 0 476.82856108 0 8526.54267937 0 399.20159901 0 740.28567228 0 10575
0.09950000 0.09950330 17035.43607298 0 352.17522104 0 7657.60877225 0 607.05681667 0 29.60163896 0 10882
0.10050000 0.10051200 16956.49039702 0 151.43507931 0 7732.31374780 0 1094.04091408 0 -475.17324852 0 10875
0.10150000 0.10150300 16719.54264590 0 85.47657603 0 6838.24566335 0 899.72936414 0 -454.77138281 0 11118
0.10250000 0.10250800 16675.91768612 0 86.79850089 0 6274.97435517 0 670.05502319 0 -387.98090504 0 11575
0.10350000 0.10349800 16500.19989124 0 -241.85832718 0 5664.42422002 0 -197.13277830 0 -1106.17396761 0 11364
0.10450000 0.10450100 16941.32131202 0 -344.51538673 0 5549.58206700 0 151.79603710 0 -1215.47552929 0 12093
0.10550000 0.10551000 16753.64540634 0 427.76044642 0 5686.84567778 0 159.33739754 0 -589.52046862 0 12067
0.10650000 0.10649700 16804.24593076 0 643.12270030 0 5874.77624693 0 -139.29759685 0 -1057.51663620 0 12054
0.10750000 0.10749900 15790.57459362 0 701.83370265 0 5696.15750295 0 -132.11497974 0 457.01352859 0 12807
0.10850000 0.10850100 15880.59259439 0 120.96847034 0 6270.49006362 0 569.41312675 0 -612.05375686 0 12736
0.10950000 0.10950300 15472.68814807 0 -260.13541375 0 5768.39335007 0 654.48954896 0 -52.84123079 0 12933
0.11050000 0.11050200 15675.42241550 0 295.66982579 0 6232.43448322 0 547.81323549 0 -460.66961024 0 13428
0.11150000 0.11150900 15613.74956626 0 239.92620650 0 5564.85080293 0 63.66852507 0 -154.34820797 0 13453
0.11250000 0.11250000 15073.30939186 0 185.97408935 0 5273.70402182 0 388.14034652 0 623.10615149 0 13668
0.11350000 0.11349100 15129.99969494 0 183.31340970 0 5442.82271110 0 -17.06034880 0 535.24614683 0 13791
0.11450000 0.11448600 14966.46145736 0 288.66768758 0 5414.10110052 0 261.61356912 0 159.97959237 0 14205
0.11550000 0.11549300 14704.37952891 0 324.48112221 0 5753.23533739 0 279.72346359 0 -143.17733946 0 14776
0.11650000 0.11649800 14274.55187945 0 436.26067018 0 5307.69605902 0 -29.07216038 0 -360.20154930 0 14553
0.11750000 0.11747300 14008.37319081 0 227.46541214 0 5370.33220051 0 -19.56081192 0 259.31163279 0 14568
0.11850000 0.11849100 13908.27937445 0 234.54062770 0 5301.35161689 0 148.90505309 0 27.08744616 0 16015
0.11950000 0.11950300 14035.83255636 0 53.52771493 0 5424.49801353 0 452.20260345 0 1195.29068115 0 15270
0.12050000 0.12050700 13863.54718218 0 -286.29488837 0 5197.47106545 0 830.63252111 0 685.18314059 0 15999
0.12150000 0.12150000 14186.74834364 0 -55.72833949 0 5160.74416402 0 666.18192397 0 1388.49167691 0 15670
0.12250000 0.12250700 14189.73787134 0 -63.11391232 0 4538.53487084 0 649.38963615 0 1094.10624079 0 16887
0.12350000 0.12352200 14078.46100691 0 166.48015428 0 4582.04910738 0 416.90735363 0 1763.76598199 0 16407
0.12450000 0.12449800 14079.45751614 0 285.36481309 0 4427.04763224 0 48.84799685 0 1395.89906221 0 16306
0.12550000 0.12549900 13767.66084925 0 367.54139343 0 4037.67825767 0 -235.85269819 0 1420.59034656 0 17523
0.12650000 0.12650100 13343.25863895 0 259.57626135 0 4123.82094476 0 -295.01323693 0 571.22013016 0 17154
0.12750000 0.12750600 13188.24609149 0 252.89743502 0 4530.85067741 0 -328.60113427 0 393.38087785 0 18007
0.12850000 0.12850300 13000.79163231 0 320.52830225 0 4325.97945129 0 -28.60878359 0 454.84999632 0 17496
0.12950000 0.12949900 12929.48586048 0 137.34776045 0 4375.27344139 0 582.35003107 0 339.75428706 0 18405
0.13050000 0.13049000 12809.79402919 0 -82.52580146 0 4581.81658855 0 259.32934851 0 175.92374011 0 18100
0.13150000 0.13148800 12808.79751995 0 135.81202899 0 4021.72303760 0 -17.81802799 0 285.74016490 0 19059
0.13250000 0.13249300 12664.63585082 0 272.78554486 0 4283.04097565 0 14.90146691 0 264.09598434 0 18957
0.13350000 0.13349100 12448.28262386 0 186.64396500 0 3920.96488175 0 12.75210722 0 496.62477063 0 19468
0.13450000 0.13450700 12219.08550011 0 112.10396709 0 3706.32786514 0 253.98030839 0 236.43288801 0 19953
0.13550000 0.13551000 12279.54039362 0 -198.01856429 0 3523.90024143 0 555.26601733 0 -361.63652260 0 19956
0.13650000 0.13649900 12398.90005517 0 29.78256074 0 3220.97250672 0 52.14234565 0 -1060.45190951 0 19723
0.13750000 0.13749600 12227.38974373 0 230.16705940 0 3434.30298900 0 -142.99575334 0 -618.88427404 0 20946
0.13850000 0.13851100 12089.76074623 0 188.29041970 0 3352.16848349 0 -497.48951919 0 -597.38956987 0 20955
0.13950000 0.13949800 11869.75365209 0 356.86767230 0 3971.20001946 0 -425.79067983 0 142.14207709 0 20506
0.14050000 0.14048300 11869.75365209 0 280.71222220 0 4291.35629159 0 274.67891240 0 -161.79323918 0 21447
0.14150000 0.14148400 11404.82673295 0 293.71002430 0 4055.75936410 0 528.00041746 0 459.03090617 0 21771
0.14250000 0.14249400 11425.31053386 0 43.35601302 0 4048.66200389 0 640.18964146 0 510.69326654 0 22470
0.14350000 0.14350900 11254.79673166 0 148.95377132 0 3805.90128224 0 348.68522426 0 312.65255760 0 22519
0.14450000 0.14449900 11288.78876885 0 91.13575197 0 3616.76382969 0 345.88171161 0 378.31476547 0 22218
0.14550000 0.14550500 11122.70389657 0 -75.36920432 0 3392.10635912 0 126.56774500 0 786.87690789 0 23559
0.14650000 0.14650700 11197.77425884 0 -24.07843117 0 3026.02208364 0 197.14385063 0 170.06648028 0 23044
0.14750000 0.14750500 11179.28347639 0 128.15662361 0 3387.40062107 0 106.83785868 0 17.41709911 0 23649
0.14850000 0.14849900 11068.50486658 0 294.17174025 0 3150.14284485 0 -48.79008859 0 440.40061243 0 23640
0.14950000 0.14949500 10720.56813148 0 439.09075640 0 3550.93885864 0 271.32731968 0 397.88399236 0 24457
0.15050000 0.15050000 10558.41393451 0 177.94886832 0 3558.56769044 0 278.47782705 0 810.62593739 0 24591
0.15150000 0.15149900 10382.57434407 0 162.32138907 0 3508.02252764 0 240.81199248 0 754.21354967 0 25020
0.15250000 0.15250500 10258.81896957 0 186.35165563 0 3357.92609240 0 211.44043643 0 932.05501644 0 25297
0.15350000 0.15350100 10077.77538646 0 133.70828728 0 3255.67317270 0 136.66127631 0 963.40741140 0 25452
0.15450000 0.15450400 10031.33805617 0 67.97665593 0 3233.56174004 0 142.07453591 0 964.85788595 0 26061
0.15550000 0.15549900 9881.16411466 0 28.31226673 0 2932.27270940 0 98.50504847 0 679.12436445 0 26128
0.15650000 0.15649500 9845.13476970 0 274.09650812 0 3018.85828948 0 77.55620992 0 599.77897757 0 26331
0.15750000 0.15749700 9485.59423819 0 321.69975421 0 2685.86919288 0 173.60962423 0 925.38726244 0 27345
0.15850000 0.15849900 9258.99911077 0 121.31281964 0 2658.23267014 0 335.84022024 0 737.03373048 0 26980
0.15950000 0.15949700 9212.86073325 0 -71.78011023 0 2449.41969638 0 291.55092096 0 377.62495964 0 27777
0.16050000 0.16050000 9289.20441288 0 145.88895181 0 2540.84388241 0 175.36348048 0 204.61877711 0 28224
0.16150000 0.16150500 9163.55567084 0 217.87899332 0 2507.81513747 0 -499.62647788 0 529.32134582 0 28075
0.16250000 0.16249700 8961.45252592 0 98.82370998 0 2463.10508986 0 -293.09772474 0 651.32175683 0 28590
0.16350000 0.16349900 9011.31120458 0 133.36615244 0 2795.78416136 0 -57.14105741 0 496.07779778 0 29163
0.16450000 0.16449100 8992.62112028 0 131.03432083 0 2935.58333452 0 46.89450658 0 -97.91245765 0 28996
0.16550000 0.16550500 8800.64915258 0 180.43792694 0 3155.75651354 0 -6.00393492 0 115.30276173 0 30777
0.16650000 0.16650700 8727.22856671 0 211.66188293 0 2869.82479742 0 -177.94776109 0 301.46175891 0 29211
0.16750000 0.16749900 8593.62989544 0 40.83528755 0 2912.84077934 0 111.27575719 0 491.70644394 0 30922
0.16850000 0.16850800 8602.74241877 0 -65.79463288 0 2817.16482058 0 247.48749711 0 -13.10830391 0 30867
0.16950000 0.16949900 8430.32417669 0 175.02356011 0 2496.76495731 0 344.92174105 0 -173.23537965 0 30852
0.17050000 0.17049200 8387.93931729 0 217.65090343 0 2508.30231977 0 217.05189065 0 -78.78933473 0 31257
0.17150000 0.17149500 8151.11336174 0 133.14692041 0 2128.67659103 0 163.66556931 0 -89.97559377 0 32608
0.17250000 0.17250900 8098.54196350 0 -41.49364798 0 1991.78943930 0 97.62623805 0 -236.68533702 0 32361
0.17350000 0.17350400 8108.18595842 0 70.91303647 0 2128.85374823 0 141.12674491 0 11.25789698 0 32508
0.17450000 0.17449800 8119.94476738 0 59.28953132 0 2179.03352431 0 -44.20038851 0 -21.88112831 0 32791
0.17550000 0.17549800 8077.95851167 0 18.88506793 0 2104.02959599 0 238.03837511 0 335.77710799 0 33633
0.17650000 0.17650100 8014.51409046 0 104.62538674 0 2031.77160422 0 150.89364263 0 -8.91938876 0 33984
0.17750000 0.17750300 7897.35782155 0 173.81778393 0 2056.49610554 0 139.52679397 0 300.72434207 0 34069
0.17850000 0.17849800 7882.58734024 0 84.51084786 0 2075.82838467 0 237.38510795 0 322.20465222 0 34536
