### header ###
fiducial parameters:
Omega_m = 0.31
Omega_nu = 0
Omega_de = 0.69
Omega_k = 0
H_0 = 100
w_de = -1
zeff = 0
beta = 0
fgrowth = 0
b_1 = 2
gamma = 0.55
Lx = 3500 Ly = 3500 Lz = 3500
nx = 700 ny = 700 nz = 700
xoffset = -685.467585 yoffset = -31.7331281 zoffset = 572.489161
bins = 400 dk = 0.001
kx_ny = 0.628318531 ky_ny = 0.628318531 kz_ny = 0.628318531
############################
A(data) = 7.97571004 (not used)
A(ran) = 7.9756253 (used)
Ngal = 474360
weighted Ngal = 0
Nran = 23820508
weighted Nran = 0
SN(data) = 3482.58445
SN(ran) = 69.4705888
SN(data+ran) = 3552.05504
############################
13 columns: k_central k_mean P_0(k) sigma^{lin}_{P_0(k)} P^img_1(k) sigma^{lin}_{P_1(k)} P_2(k) sigma^{lin}_{P_2(k)} P^img_3(k) sigma^{lin}_{P_3(k)} P_4(k) sigma^{lin}_{P_4(k)} N_modes
### header ###
0.00050000 0 0 0 0 0 0 0 0 0 0 0 0
0.00150000 0.00179520 53134.42595596 0 -66010.32176432 0 -5337.51382975 0 -12892.83646533 0 29262.82581670 0 3
0.00250000 0.00253879 71479.49660849 0 -28057.71398344 0 21146.03666190 0 -59185.23002285 0 18700.71372570 0 6
0.00350000 0.00331552 91143.72403991 0 4155.34385351 0 6704.41447326 0 -20687.86386090 0 5689.70233758 0 7
0.00450000 0.00420575 78448.08567960 0 32773.19567721 0 37108.89662969 0 -40210.58698114 0 64045.42700200 0 24
0.00550000 0.00557378 54099.93268015 0 27631.76164767 0 50436.21112090 0 15987.77269864 0 47962.76447967 0 45
0.00650000 0.00659388 61098.19558177 0 -18341.41678534 0 108418.98666845 0 52923.83033791 0 22345.50160950 0 40
0.00750000 0.00754703 59402.46903580 0 -14823.51774396 0 62337.52089872 0 84393.92410721 0 6974.73421139 0 57
0.00850000 0.00846663 76073.95779198 0 -9205.40905865 0 70302.95137326 0 81749.96366377 0 6333.00440955 0 75
0.00950000 0.00948925 80729.31676198 0 -11939.28785195 0 32448.44439028 0 28491.30622334 0 -6047.82561152 0 112
0.01050000 0.01054430 87972.61021185 0 11399.62274029 0 44985.41633593 0 2938.07460760 0 13627.59594029 0 105
0.01150000 0.01145670 85398.51613801 0 7240.60287493 0 36306.26380359 0 -25393.82335532 0 14596.64580842 0 144
0.01250000 0.01249090 74853.67687372 0 2799.68161969 0 40105.17844887 0 -11623.72659461 0 -1575.60289402 0 169
0.01350000 0.01339930 73557.21836071 0 -5821.23048410 0 50640.71696031 0 -15727.13017241 0 -17532.02984109 0 180
0.01450000 0.01448870 89154.58088624 0 -8767.13322535 0 35171.90412592 0 20633.60946929 0 -33146.99736309 0 267
0.01550000 0.01550050 88146.99932774 0 -4600.65061307 0 24165.23819345 0 2892.16874890 0 -18495.32210031 0 238
0.01650000 0.01653350 88455.25285069 0 3426.09839631 0 5162.07284300 0 9227.08867064 0 -24884.16424392 0 315
0.01750000 0.01747870 84360.37496301 0 3077.89592541 0 7723.27873075 0 1408.89797155 0 -30596.15517137 0 297
0.01850000 0.01844180 80696.65340377 0 4130.58613522 0 9571.53762343 0 -1903.18869610 0 -20441.06174070 0 388
0.01950000 0.01947590 77194.25561713 0 6913.54854444 0 4324.30753025 0 -13341.70851348 0 -9191.65723122 0 399
0.02050000 0.02045430 76063.99269965 0 2555.32648327 0 11544.44874891 0 -12133.49642927 0 -11431.73248226 0 462
0.02150000 0.02154770 73207.00072669 0 3405.07205148 0 16487.46671770 0 -11899.64892910 0 -7188.13112762 0 571
0.02250000 0.02255340 72421.41928081 0 4935.32270304 0 19476.55152574 0 5641.85882204 0 -12007.60409608 0 510
0.02350000 0.02348930 69385.71998528 0 2510.89324377 0 30031.46660561 0 913.31289222 0 -14185.53038791 0 555
0.02450000 0.02439640 66434.39180487 0 3368.81018770 0 20617.11170531 0 4731.91302380 0 -11635.46325892 0 592
0.02550000 0.02547300 63498.67560245 0 4277.64875346 0 26336.85326013 0 6833.41812973 0 -23345.99688012 0 837
0.02650000 0.02652900 62681.87020058 0 4756.84789929 0 19551.06827177 0 -4595.52412668 0 -11777.52118635 0 723
0.02750000 0.02749970 59105.06639117 0 -1972.23571367 0 29846.55878114 0 2004.32331100 0 -7129.72461420 0 826
0.02850000 0.02848090 61949.21446733 0 -3647.92135173 0 22891.14577657 0 9836.49835634 0 6522.75083996 0 831
0.02950000 0.02946900 65608.06420366 0 -4578.33987856 0 26067.68504379 0 10667.09987493 0 -244.61312159 0 996
0.03050000 0.03053250 70155.46800667 0 -144.79611335 0 20432.53605059 0 5883.25764774 0 -3335.57106859 0 1041
0.03150000 0.03150510 67444.96289107 0 4908.41695373 0 28338.28669435 0 -365.61923784 0 3879.45473601 0 1036
0.03250000 0.03246190 63316.97875218 0 8748.63137058 0 19995.40066675 0 -6257.64616683 0 8348.38897304 0 1059
0.03350000 0.03345080 58296.23306317 0 4240.89970739 0 30836.42461993 0 -47.43483603 0 12746.12816148 0 1302
0.03450000 0.03451200 56615.78632544 0 3209.15833614 0 27794.19265276 0 2466.80324635 0 -1745.98382833 0 1339
0.03550000 0.03553350 51451.65403002 0 817.91484882 0 25713.14920309 0 2149.90223771 0 716.60086226 0 1365
0.03650000 0.03647120 49246.15764940 0 3839.00753345 0 18489.67521466 0 5570.07694024 0 -9281.21019436 0 1308
0.03750000 0.03744890 46768.72497122 0 846.88780117 0 16564.08720545 0 8569.75796314 0 -8500.23483560 0 1579
0.03850000 0.03847530 44214.89325180 0 106.59338175 0 8082.47602019 0 10961.53513651 0 -8085.32160767 0 1662
0.03950000 0.03950240 45115.95904555 0 -1429.00531342 0 5131.38035860 0 3060.10269943 0 -13319.01024760 0 1683
0.04050000 0.04050350 44273.68729659 0 1807.66774989 0 4197.82836384 0 -1422.45049713 0 -7809.32176692 0 1822
0.04150000 0.04152450 43698.81219201 0 2605.46197005 0 2689.47877077 0 -5732.20899256 0 -7968.59715943 0 1887
0.04250000 0.04250150 41611.23607070 0 990.21793872 0 6476.16956945 0 -4621.25620956 0 1044.15234014 0 1920
0.04350000 0.04349210 42443.54272732 0 2125.43239986 0 11984.13076746 0 -2664.63247388 0 -6246.75099921 0 2005
0.04450000 0.04448520 40682.71091141 0 383.09468810 0 13943.60009062 0 -1489.85881062 0 -4768.01987503 0 2151
0.04550000 0.04548030 41453.78761178 0 779.30786664 0 15937.28289746 0 -330.01728461 0 -7505.86256061 0 2274
0.04650000 0.04648670 41615.11138439 0 254.45088219 0 17043.96176309 0 -2413.61179792 0 -3117.63449919 0 2311
0.04750000 0.04749250 40355.30226652 0 1904.69453228 0 21964.06001950 0 -528.31930042 0 -2944.02044603 0 2568
0.04850000 0.04851840 39108.55849194 0 1090.11577493 0 20412.49514266 0 2001.59951909 0 -1407.96789626 0 2493
0.04950000 0.04949480 38263.07576879 0 -64.61598390 0 19034.54431898 0 6408.35157994 0 1615.04251502 0 2644
0.05050000 0.05050630 38295.96057350 0 790.55956312 0 16242.76833921 0 3756.43013495 0 1343.98093114 0 2829
0.05150000 0.05149060 37453.46737805 0 -671.71919361 0 15157.79123023 0 4666.55309039 0 1240.29968154 0 2784
0.05250000 0.05249300 38068.42429848 0 604.04735878 0 10936.68883962 0 2307.00745456 0 5511.42683568 0 3055
0.05350000 0.05348950 37469.63297228 0 1499.84604761 0 12718.89024243 0 1385.85646360 0 2445.42258712 0 3009
0.05450000 0.05448610 35464.10277788 0 1121.94760155 0 10593.38033629 0 -484.57475953 0 4053.07986149 0 3336
0.05550000 0.05550870 35013.68060426 0 1040.08879693 0 11492.63026876 0 -29.18388014 0 3949.39861189 0 3349
0.05650000 0.05647670 35537.06939844 0 -79.25271152 0 13991.65398033 0 -547.50321040 0 3246.83745750 0 3324
0.05750000 0.05747970 35358.80496886 0 -244.68952063 0 13326.09653548 0 -1022.45944136 0 2462.16394225 0 3639
0.05850000 0.05849280 35943.97733552 0 435.99604162 0 16043.68793897 0 -812.61784863 0 2460.82419094 0 3846
0.05950000 0.05951020 35543.38062358 0 1014.09983612 0 15804.19355314 0 -48.04757849 0 2114.55937689 0 3787
0.06050000 0.06049470 35443.06536073 0 639.91172610 0 16176.99872979 0 1861.76712896 0 3299.01025204 0 3930
0.06150000 0.06148310 34254.11912170 0 -386.20047521 0 13926.77015689 0 3046.45052293 0 1909.14560686 0 4083
0.06250000 0.06249100 35395.01147101 0 44.90768862 0 13883.58809010 0 2804.80810609 0 -184.52029310 0 4303
0.06350000 0.06350600 34638.21806966 0 390.41017311 0 11530.94051263 0 1980.31851079 0 -1573.15591023 0 4470
0.06450000 0.06451750 34154.80036808 0 65.19251985 0 11597.70663129 0 -1124.26171744 0 -853.00083170 0 4479
0.06550000 0.06550280 33688.32332347 0 1225.36311535 0 11550.75997406 0 -815.37707197 0 -1772.55740789 0 4636
0.06650000 0.06648880 32621.72627369 0 1368.88258965 0 12983.74025209 0 -923.16283238 0 475.49213148 0 4653
0.06750000 0.06749660 30971.94987571 0 2036.05659393 0 13172.08049725 0 1044.72810103 0 -300.84170872 0 5220
0.06850000 0.06852730 29861.94931264 0 1249.22397534 0 12221.63213482 0 1558.24148870 0 -581.01803039 0 5029
0.06950000 0.06949320 29202.37092319 0 166.64291745 0 12636.40142253 0 1853.65111486 0 491.68208483 0 5040
0.07050000 0.07048030 28702.56618088 0 361.02754473 0 12038.60660557 0 1221.41029539 0 -111.55256532 0 5475
0.07150000 0.07148790 28657.39109562 0 20.43331111 0 10567.79219364 0 411.21507144 0 -713.60579840 0 5509
0.07250000 0.07249820 28291.34003712 0 662.96541361 0 10988.65125999 0 22.16601922 0 -2259.03107112 0 5916
0.07350000 0.07351270 27415.62986721 0 818.48285908 0 10786.02771581 0 -1076.40491510 0 -1504.52964101 0 5721
0.07450000 0.07449140 27243.12304653 0 229.73856043 0 9965.45772350 0 248.98558266 0 -3657.96395034 0 6028
0.07550000 0.07549160 26550.32768263 0 1033.59155673 0 9921.41201537 0 393.03652855 0 -1984.72529607 0 6183
0.07650000 0.07648840 25639.85041279 0 635.98105079 0 8825.66153434 0 1613.07164120 0 -998.20329938 0 6330
0.07750000 0.07749960 25205.70455666 0 -382.20115148 0 7924.31893248 0 3644.92075170 0 -1703.53253497 0 6583
0.07850000 0.07848650 25221.87015089 0 76.94058866 0 7376.68174695 0 3134.04368457 0 -2418.60541641 0 6549
0.07950000 0.07947320 24986.02963225 0 332.18746028 0 5942.01847555 0 1460.09640151 0 -2240.57350565 0 6828
0.08050000 0.08048110 24298.43826102 0 692.23953320 0 5626.46829054 0 -314.72972574 0 -602.64449523 0 7147
0.08150000 0.08149960 23733.08535578 0 414.14923752 0 4908.46124303 0 -227.99799097 0 1585.31332288 0 7386
0.08250000 0.08250610 23693.22498643 0 239.13674974 0 5041.78310617 0 1435.43833414 0 1838.42666824 0 7227
0.08350000 0.08350160 23538.21243897 0 186.42916190 0 4738.08030872 0 505.42173269 0 679.55618512 0 7798
0.08450000 0.08449610 23260.07563952 0 336.71161220 0 4623.45960220 0 51.31790035 0 -625.65832236 0 7371
0.08550000 0.08548940 23197.18483455 0 621.66453480 0 5892.72448546 0 -909.30913957 0 612.45789672 0 8256
0.08650000 0.08650700 22593.85385519 0 679.28934209 0 6202.24025344 0 -1544.40108268 0 624.38279055 0 8037
0.08750000 0.08749060 22199.12547540 0 733.18831207 0 6474.91839675 0 -1173.92109425 0 65.72997050 0 8155
0.08850000 0.08849210 21519.50617803 0 413.14054873 0 7127.48800458 0 16.48624876 0 457.00467073 0 8718
0.08950000 0.08949900 21454.40090810 0 519.26988934 0 7491.03671768 0 24.88947896 0 141.20092948 0 8571
0.09050000 0.09049190 21301.49210235 0 558.35741042 0 7594.35258056 0 737.58513226 0 -393.76065860 0 8932
0.09150000 0.09150830 20646.89625907 0 182.36118976 0 6912.91742192 0 281.62790346 0 -811.86603777 0 9285
0.09250000 0.09250820 20171.45063136 0 499.16476194 0 6967.49291095 0 459.42286647 0 -281.55371888 0 9204
0.09350000 0.09350330 19811.37862826 0 241.23274082 0 6426.22231219 0 144.43515556 0 -631.53329791 0 9349
0.09450000 0.09448040 19571.21990294 0 267.52619057 0 5647.70500955 0 468.85870168 0 -557.37972414 0 9564
0.09550000 0.09549270 19454.62832260 0 83.27982678 0 5829.47936609 0 -179.92195661 0 -1712.29074390 0 10155
0.09650000 0.09649430 19089.57377333 0 441.54216912 0 5200.40523152 0 73.83081551 0 -1984.95781489 0 9913
0.09750000 0.09749140 18881.85695973 0 694.87585374 0 5283.02691932 0 -658.88194022 0 -2345.63879586 0 10476
0.09850000 0.09850240 17932.29438329 0 704.54310054 0 5933.44849614 0 -601.73656459 0 -1859.98448466 0 10575
0.09950000 0.09950330 17824.89283255 0 365.51405075 0 5689.93485640 0 491.01442364 0 -1718.70161997 0 10882
0.10050000 0.10051200 17413.11307254 0 -218.04286372 0 6063.98013343 0 722.01522910 0 -1342.44187799 0 10875
0.10150000 0.10150300 17636.66331063 0 165.66744563 0 5709.51072668 0 1165.51719971 0 -1104.79546317 0 11118
0.10250000 0.10250800 17485.52607685 0 79.27441328 0 5269.04257307 0 659.09563608 0 -1300.67706877 0 11575
0.10350000 0.10349800 17333.94595009 0 437.41329919 0 5415.21940533 0 255.69319704 0 -363.69708225 0 11364
0.10450000 0.10450100 16742.13018853 0 518.24680653 0 5139.79532547 0 -49.07509023 0 -809.07913361 0 12093
0.10550000 0.10551000 16460.67169164 0 706.67673753 0 5232.57033512 0 -157.95889310 0 120.88432067 0 12067
0.10650000 0.10649700 15878.04595968 0 351.75115100 0 5311.06204576 0 18.39068863 0 60.66261032 0 12054
0.10750000 0.10749900 15798.65739073 0 77.75130428 0 5362.96910451 0 483.91595620 0 -312.41118092 0 12807
0.10850000 0.10850100 15588.06177268 0 -13.15303610 0 5345.79592872 0 779.37651505 0 -290.14916464 0 12736
0.10950000 0.10950300 15843.50030625 0 193.48001835 0 5556.62406559 0 60.05451824 0 256.75724745 0 12933
0.11050000 0.11050200 15584.62935199 0 272.40244242 0 5043.04535120 0 -120.49457484 0 843.13649752 0 13428
0.11150000 0.11150900 15236.07256670 0 532.13482355 0 5837.48465694 0 -458.23591325 0 401.43931586 0 13453
0.11250000 0.11250000 14882.86540498 0 478.46615792 0 5763.76511830 0 -0.18476942 0 1362.91460658 0 13668
0.11350000 0.11349100 14620.67275328 0 166.25206438 0 5993.84802803 0 601.44646968 0 461.97393011 0 13791
0.11450000 0.11448600 14426.02128297 0 253.73118108 0 5895.61436224 0 207.73674378 0 1334.08227275 0 14205
0.11550000 0.11549300 14327.14542234 0 291.57638731 0 5505.04917658 0 313.88933628 0 273.47424346 0 14776
0.11650000 0.11649800 14250.52493459 0 -41.82183169 0 5301.67271431 0 349.38167349 0 860.84446661 0 14553
0.11750000 0.11747300 14305.99728193 0 -87.60046937 0 5539.48410677 0 -204.02308604 0 108.48896376 0 14568
0.11850000 0.11849100 14408.63773300 0 -1.52584387 0 5535.43163589 0 163.87040732 0 137.14624413 0 16015
0.11950000 0.11950300 14285.29203452 0 13.88912425 0 5491.08697499 0 442.14007466 0 -24.42554855 0 15270
0.12050000 0.12050700 14375.86365154 0 62.97882995 0 4729.78713743 0 413.23577072 0 93.97834992 0 15999
0.12150000 0.12150000 14229.48751744 0 171.63542871 0 5008.85401216 0 574.82527912 0 151.55244596 0 15670
0.12250000 0.12250700 14219.52242510 0 203.43182389 0 4905.91460832 0 -281.22597807 0 -633.09560295 0 16887
0.12350000 0.12352200 13773.52918140 0 563.10190160 0 4947.03722270 0 -277.47799612 0 481.68266828 0 16407
0.12450000 0.12449800 13429.29060279 0 374.88123755 0 4662.74421065 0 45.17552815 0 220.38576766 0 16306
0.12550000 0.12549900 13278.26409227 0 52.30599461 0 4847.82919232 0 306.72554213 0 329.25329420 0 17523
0.12650000 0.12650100 12918.19208916 0 71.26768303 0 4128.39381491 0 865.05416450 0 48.41418316 0 17154
0.12750000 0.12750600 12982.41157311 0 255.08643364 0 4178.67324191 0 1003.21906252 0 383.44014463 0 18007
0.12850000 0.12850300 12521.24924441 0 278.83435591 0 3678.30381103 0 840.12482517 0 344.04149123 0 17496
0.12950000 0.12949900 12407.86863827 0 121.47115389 0 3565.32180858 0 391.31146035 0 663.40277044 0 18405
0.13050000 0.13049000 12005.38963111 0 293.66794947 0 3042.34269042 0 74.96484301 0 560.13784025 0 18100
0.13150000 0.13148800 12062.85499692 0 120.36059971 0 3410.97360061 0 -233.50204364 0 526.38275081 0 19059
0.13250000 0.13249300 11758.91968065 0 -35.74733285 0 3268.88245621 0 7.50228620 0 496.35349867 0 18957
0.13350000 0.13349100 11866.32123139 0 242.74189870 0 3111.94332423 0 -231.71164871 0 306.85398109 0 19468
0.13450000 0.13450700 11676.20941426 0 157.97882328 0 3362.47681790 0 0.85505364 0 87.55230476 0 19953
0.13550000 0.13551000 11530.94051263 0 229.04211120 0 3481.64824992 0 88.11754694 0 -117.47072293 0 19956
0.13650000 0.13649900 11599.03531027 0 56.33333132 0 3357.37247616 0 -50.01900592 0 -31.19882181 0 19723
0.13750000 0.13749600 11440.03672587 0 -121.90518902 0 3530.82044444 0 -146.08161026 0 -126.96745593 0 20946
0.13850000 0.13851100 11588.73804819 0 58.24541109 0 3286.03348735 0 111.34551284 0 -436.94936878 0 20955
0.13950000 0.13949800 11592.50263863 0 19.27370654 0 3599.30277345 0 -380.83814830 0 -460.57217378 0 20506
0.14050000 0.14048300 11515.32853464 0 282.47825801 0 3380.10395901 0 -27.60031625 0 -1341.61145363 0 21447
0.14150000 0.14148400 11402.50154474 0 120.18565698 0 3242.33102129 0 -155.03469211 0 -1047.16401249 0 21771
0.14250000 0.14249400 11212.94334384 0 229.85039091 0 3368.00190799 0 68.28236282 0 -1387.32908280 0 22470
0.14350000 0.14350900 11002.27021952 0 301.12516023 0 3165.54444868 0 74.44732255 0 -1414.50056791 0 22519
0.14450000 0.14449900 10896.48522820 0 181.72674555 0 3388.64072145 0 85.23752454 0 -1369.95660516 0 22218
0.14550000 0.14550500 10674.13080119 0 118.52480825 0 3690.78232110 0 -163.69435735 0 -1209.55183551 0 23559
0.14650000 0.14650700 10635.18943481 0 138.67643942 0 3988.07424248 0 -228.28144248 0 -580.34040411 0 23044
0.14750000 0.14750500 10687.49509725 0 172.27983802 0 3905.82901373 0 407.42944358 0 -729.85886400 0 23649
0.14850000 0.14849900 10491.42636936 0 71.77523840 0 4136.94164967 0 123.98457162 0 -414.46147708 0 23640
0.14950000 0.14949500 10459.80380968 0 128.04257867 0 3803.23285196 0 394.70734237 0 -887.22870942 0 24457
0.15050000 0.15050000 10209.01565254 0 352.00581447 0 3900.49215316 0 84.68468336 0 -929.09427679 0 24591
0.15150000 0.15149900 9951.31836471 0 312.06904608 0 3475.23737385 0 44.58304805 0 -969.96554939 0 25020
0.15250000 0.15250500 9752.32654307 0 103.81799281 0 3551.96858485 0 274.16626376 0 -521.88406523 0 25297
0.15350000 0.15350100 9598.78661481 0 124.66662683 0 3344.67251959 0 207.62602053 0 -338.06797199 0 25452
0.15450000 0.15450400 9688.04062517 0 -18.35370707 0 3209.61230145 0 612.64723347 0 -503.57486891 0 26061
0.15550000 0.15549900 9531.41151828 0 -38.72102712 0 3073.98739475 0 543.63121841 0 -302.12388393 0 26128
0.15650000 0.15649500 9591.74461622 0 86.94908451 0 2873.41223066 0 398.48854129 0 -219.18663488 0 26331
0.15750000 0.15749700 9524.87884664 0 25.04737031 0 2625.58038425 0 208.14420534 0 309.00311934 0 27345
0.15850000 0.15849900 9402.85075482 0 144.12291600 0 2572.67681626 0 85.04442319 0 80.53975856 0 26980
0.15950000 0.15949700 9320.37300724 0 138.19479329 0 2683.10111168 0 -212.82115534 0 290.45808250 0 27777
0.16050000 0.16050000 9364.50729397 0 95.59734525 0 2626.35544698 0 44.73230299 0 -81.62783592 0 28224
0.16150000 0.16150500 9046.86443957 0 80.43113905 0 2314.70272031 0 -123.94581848 0 135.75556014 0 28075
0.16250000 0.16249700 9261.90005987 0 119.15703800 0 2516.37404456 0 185.98737614 0 -20.19547758 0 28590
0.16350000 0.16349900 9177.37393221 0 51.49705056 0 2666.58120305 0 -187.06582058 0 30.19146170 0 29163
0.16450000 0.16449100 9093.11354034 0 168.30930234 0 2531.14452587 0 -33.69563106 0 229.74741829 0 28996
0.16550000 0.16550500 8932.90807254 0 358.06569785 0 2810.22247292 0 -38.31600148 0 446.88678031 0 30777
0.16650000 0.16650700 8649.12438744 0 235.30129642 0 2866.68025717 0 17.14283762 0 493.57988130 0 29211
0.16750000 0.16749900 8340.54976707 0 252.91625797 0 2793.92401079 0 435.19551253 0 600.39459883 0 30922
0.16850000 0.16850800 8274.47013255 0 23.32307717 0 2490.81911888 0 515.87290009 0 518.37967443 0 30867
0.16950000 0.16949900 8216.08576378 0 -46.53775628 0 2462.06429132 0 400.14496109 0 372.26373996 0 30852
0.17050000 0.17049200 8230.21405025 0 -4.92129407 0 2133.75878813 0 132.95315472 0 351.03587882 0 31257
0.17150000 0.17149500 8156.81560902 0 101.70771843 0 2193.29467868 0 -143.14190802 0 210.63658565 0 32608
0.17250000 0.17250900 8245.84817289 0 72.10054331 0 2398.29877269 0 -339.65242167 0 258.12578680 0 32361
0.17350000 0.17350400 8105.10785212 0 96.34915611 0 2241.47036396 0 -206.97275337 0 201.89387798 0 32508
0.17450000 0.17449800 8167.43396853 0 64.71607772 0 2481.26370256 0 -93.82101218 0 3.03051745 0 32791
0.17550000 0.17549800 8085.76450066 0 79.70977709 0 2517.31519217 0 113.53229699 0 -25.10118181 0 33633
0.17650000 0.17650100 7937.49499902 0 342.24777461 0 2568.20359704 0 -78.46048668 0 -410.58616339 0 33984
0.17750000 0.17750300 7659.66822467 0 309.51355352 0 2468.22050392 0 -169.40767696 0 -341.00656700 0 34069
0.17850000 0.17849800 7398.64923939 0 260.47754859 0 2520.20506895 0 -146.49017905 0 -187.77002044 0 34536
