### header ###
fiducial parameters:
Omega_m = 0.31
Omega_nu = 0
Omega_de = 0.69
Omega_k = 0
H_0 = 100
w_de = -1
zeff = 0
beta = 0
fgrowth = 0
b_1 = 2
gamma = 0.55
Lx = 3500 Ly = 3500 Lz = 3500
nx = 700 ny = 700 nz = 700
xoffset = -685.467585 yoffset = -31.7331281 zoffset = 572.489161
bins = 400 dk = 0.001
kx_ny = 0.628318531 ky_ny = 0.628318531 kz_ny = 0.628318531
############################
A(data) = 8.00090789 (not used)
A(ran) = 7.99693832 (used)
Ngal = 476084
weighted Ngal = 0
Nran = 23820508
weighted Nran = 0
SN(data) = 3486.61148
SN(ran) = 69.656233
SN(data+ran) = 3556.26772
############################
13 columns: k_central k_mean P_0(k) sigma^{lin}_{P_0(k)} P^img_1(k) sigma^{lin}_{P_1(k)} P_2(k) sigma^{lin}_{P_2(k)} P^img_3(k) sigma^{lin}_{P_3(k)} P_4(k) sigma^{lin}_{P_4(k)} N_modes
### header ###
0.00050000 0 0 0 0 0 0 0 0 0 0 0 0
0.00150000 0.00179520 52006.37750344 0 -79406.28466940 0 -10885.08073364 0 44177.46879392 0 42806.71498137 0 3
0.00250000 0.00253879 81041.11342888 0 -57602.77335977 0 15283.57284017 0 3283.87438401 0 41884.39032398 0 6
0.00350000 0.00331552 104126.79995251 0 -33948.52295671 0 21100.64013014 0 -81543.13263615 0 11866.76412438 0 7
0.00450000 0.00420575 108047.28872429 0 -6777.74648054 0 -4408.82258559 0 -35595.30982698 0 55092.45587689 0 24
0.00550000 0.00557378 100387.23296826 0 20394.77942295 0 -25669.85641305 0 -33577.15718229 0 26762.36270291 0 45
0.00650000 0.00659388 92693.18517503 0 4331.39381813 0 -30666.68588046 0 -8334.37140982 0 12778.34862670 0 40
0.00750000 0.00754703 79913.61859259 0 4084.48097468 0 -35831.92540836 0 -31055.21375835 0 -25815.23603792 0 57
0.00850000 0.00846663 86670.94770617 0 6958.11465183 0 -20172.77931034 0 -45085.95304529 0 -18206.11297605 0 75
0.00950000 0.00948925 77085.19321767 0 9493.16770836 0 -2745.87012108 0 -25364.48169455 0 -36175.05675449 0 112
0.01050000 0.01054430 62858.36305819 0 11903.96713577 0 -6096.62134699 0 -15075.96674982 0 3856.78968710 0 105
0.01150000 0.01145670 56378.06351158 0 12125.96724839 0 7327.46526313 0 8176.04823723 0 -21574.20346264 0 144
0.01250000 0.01249090 51589.17230427 0 -1438.64930834 0 -5309.05795497 0 11914.37512110 0 9394.62401748 0 169
0.01350000 0.01339930 57216.01705386 0 -5975.65619835 0 726.65453320 0 27045.59277177 0 -7399.06998774 0 180
0.01450000 0.01448870 58841.98795348 0 -8037.07948844 0 -2202.51792525 0 -6705.03452345 0 1423.21448754 0 267
0.01550000 0.01550050 73269.44863867 0 -7081.30533777 0 -885.29769597 0 -3299.53065131 0 3934.58384128 0 238
0.01650000 0.01653350 73405.74895719 0 -2337.01345482 0 18072.69146199 0 -23577.62991532 0 16201.57929088 0 315
0.01750000 0.01747870 81231.22524601 0 -1004.78690371 0 1963.02353942 0 -7032.26601114 0 10041.40279943 0 297
0.01850000 0.01844180 87181.49260355 0 -6884.05187112 0 34360.41343996 0 -11486.76193661 0 13411.57488308 0 388
0.01950000 0.01947590 85052.17381768 0 7157.37220927 0 30052.94691576 0 2885.24854589 0 3303.84885799 0 399
0.02050000 0.02045430 84291.39437939 0 7380.99995363 0 38142.38742827 0 -5737.11403246 0 9121.21510073 0 462
0.02150000 0.02154770 77444.93305103 0 6442.81972710 0 40696.21914769 0 -2652.56363983 0 1036.76709949 0 571
0.02250000 0.02255340 78524.92761384 0 2491.04056537 0 45786.60975981 0 -2666.21581633 0 25755.99910014 0 510
0.02350000 0.02348930 72180.04259976 0 370.66157456 0 48805.92201461 0 9972.31149256 0 -371.75109132 0 555
0.02450000 0.02439640 74836.84694000 0 2629.62178280 0 50515.82113635 0 10948.87946924 0 8159.34009908 0 592
0.02550000 0.02547300 69967.79210100 0 2596.07263860 0 39018.65121441 0 10659.58176638 0 -5003.65001950 0 837
0.02650000 0.02652900 65399.46160407 0 3133.53435763 0 31804.03508583 0 11365.85214959 0 3355.83342301 0 723
0.02750000 0.02749970 66322.56132420 0 1720.45104730 0 30722.04750455 0 11003.05635458 0 -2660.31426720 0 826
0.02850000 0.02848090 60274.41461526 0 1047.08539898 0 27705.61405421 0 3309.41823737 0 646.94154513 0 831
0.02950000 0.02946900 57856.88321436 0 6071.37644641 0 22958.68695796 0 7491.60140625 0 -3251.67606344 0 996
0.03050000 0.03053250 53146.60551326 0 2963.08698937 0 18868.01655371 0 490.98231390 0 -760.18596168 0 1041
0.03150000 0.03150510 51533.03561744 0 2027.38696359 0 18885.40010368 0 1626.67952841 0 2947.06533535 0 1036
0.03250000 0.03246190 52288.61106306 0 -1395.68868804 0 16070.37224178 0 1837.69589480 0 -291.36047698 0 1059
0.03350000 0.03345080 53864.42433125 0 -244.24552041 0 17566.79694102 0 -1317.78381062 0 3784.53169534 0 1302
0.03450000 0.03451200 53831.53952654 0 2135.58572172 0 19316.66715536 0 -608.09540074 0 263.78817371 0 1339
0.03550000 0.03553350 52358.69887917 0 3425.60014169 0 22551.11468139 0 4562.93827474 0 7968.88503988 0 1365
0.03650000 0.03647120 48298.92026116 0 1876.15007890 0 17841.72276627 0 1900.09951748 0 3547.05247263 0 1308
0.03750000 0.03744890 46454.71383937 0 2139.02921474 0 19584.61741597 0 6099.63301934 0 5521.40300034 0 1579
0.03850000 0.03847530 47428.85697691 0 1779.24509208 0 20110.55284486 0 1771.53875401 0 858.91013146 0 1662
0.03950000 0.03950240 46358.27389020 0 452.51041408 0 17426.73203207 0 3227.32802116 0 9219.26053700 0 1683
0.04050000 0.04050350 44442.42952683 0 -594.73553361 0 15981.79364323 0 1371.79461108 0 7897.09208575 0 1822
0.04150000 0.04152450 47257.78955846 0 -1168.41814881 0 10713.60363917 0 5657.80296978 0 4470.46221785 0 1887
0.04250000 0.04250150 48171.58852575 0 -2695.10351178 0 13228.32790733 0 4901.78463116 0 2342.64926815 0 1920
0.04350000 0.04349210 46823.31153258 0 1508.36066539 0 8908.50466864 0 3914.21076361 0 1781.97995631 0 2005
0.04450000 0.04448520 45047.75352466 0 4057.24305562 0 10035.57875658 0 -1420.18067054 0 5691.76179000 0 2151
0.04550000 0.04548030 43505.04650768 0 2165.15990131 0 12107.14429620 0 -1112.02679851 0 10043.47332417 0 2274
0.04650000 0.04648670 42130.30665820 0 885.00538659 0 13642.76502530 0 -1279.00852910 0 10707.43635425 0 2311
0.04750000 0.04749250 41701.91841096 0 487.45688568 0 17015.94878130 0 1261.87964261 0 8299.20570619 0 2568
0.04850000 0.04851840 40715.04209988 0 1792.67582209 0 17406.91257064 0 -1248.61499747 0 8332.72163342 0 2493
0.04950000 0.04949480 40788.00872043 0 1390.42933375 0 19529.47723838 0 -1254.78228240 0 7548.04811817 0 2644
0.05050000 0.05050630 39127.38144413 0 79.78263299 0 19831.97315242 0 -177.16494773 0 5265.89803282 0 2829
0.05150000 0.05149060 39553.99811939 0 896.47963680 0 18580.13610843 0 229.44514382 0 5864.04716418 0 2784
0.05250000 0.05249300 39270.21443429 0 -308.89239609 0 16027.07945174 0 4990.56253156 0 3610.37509827 0 3055
0.05350000 0.05348950 37889.49552941 0 512.81693844 0 14742.24687979 0 3276.78809613 0 570.54693281 0 3009
0.05450000 0.05448610 39691.73784014 0 1010.47807867 0 14974.65497773 0 1627.05598745 0 1764.15351335 0 3336
0.05550000 0.05550870 36946.24417811 0 967.03470501 0 13673.32464179 0 417.25059570 0 4771.92840569 0 3349
0.05650000 0.05647670 37234.01390014 0 -74.06521662 0 13365.40328859 0 3311.40018351 0 6855.60706866 0 3324
0.05750000 0.05747970 36268.95006895 0 158.67637974 0 11600.36398925 0 2642.55425819 0 7485.07980693 0 3639
0.05850000 0.05849280 37073.79736002 0 1010.31863719 0 14011.03054876 0 2541.35320935 0 7644.22233155 0 3846
0.05950000 0.05951020 34354.87727755 0 1581.26085200 0 13153.92188455 0 311.99707597 0 6889.72090143 0 3787
0.06050000 0.06049470 35300.34309382 0 914.67589541 0 14477.72903987 0 -1572.96768071 0 7843.47988898 0 3930
0.06150000 0.06148310 33209.44527506 0 436.90840118 0 15078.84555427 0 -1387.82733742 0 6138.18685436 0 4083
0.06250000 0.06249100 34597.80408407 0 -270.40610226 0 15920.12079399 0 939.44911496 0 7095.30075634 0 4303
0.06350000 0.06350600 34518.19406863 0 -727.38862833 0 16546.92510198 0 889.76095010 0 6935.20601178 0 4470
0.06450000 0.06451750 35102.36992606 0 982.69872293 0 14495.22331308 0 1990.48290497 0 4183.94366852 0 4479
0.06550000 0.06550280 34379.79000839 0 1675.99566315 0 15111.84108223 0 -169.40656973 0 4345.24529648 0 4636
0.06650000 0.06648880 31776.35427378 0 2130.96856227 0 12909.22350606 0 -813.79594399 0 3463.31248002 0 4653
0.06750000 0.06749660 30268.85724973 0 1573.17805488 0 13423.31154739 0 -139.82242504 0 2775.01248000 0 5220
0.06850000 0.06852730 29092.75490749 0 738.09556643 0 12643.15554067 0 595.55377842 0 1376.13496241 0 5029
0.06950000 0.06949320 28476.24786159 0 220.93274050 0 12099.17222233 0 1055.22466496 0 253.61824337 0 5040
0.07050000 0.07048030 28728.25397446 0 -915.66686848 0 11830.33617573 0 1977.87152700 0 -329.46145391 0 5475
0.07150000 0.07148790 29162.17838410 0 -307.34891401 0 12030.08091546 0 1682.27367132 0 -323.76806449 0 5509
0.07250000 0.07249820 30300.08120571 0 -273.64697173 0 12937.34721110 0 -1242.44771255 0 -1335.67668752 0 5916
0.07350000 0.07351270 29593.77760553 0 552.14030003 0 14771.92071030 0 19.18368853 0 1071.11566554 0 5721
0.07450000 0.07449140 29818.76724585 0 873.79576495 0 14518.03230221 0 -333.01013401 0 2501.79179277 0 6028
0.07550000 0.07549160 29364.24831204 0 772.21272090 0 14753.20848136 0 102.75571397 0 2681.32953971 0 6183
0.07650000 0.07648840 27956.95582759 0 1006.53079487 0 14293.37483164 0 2657.21401625 0 2836.36423182 0 6330
0.07750000 0.07749960 26603.80701151 0 1598.67761894 0 12443.63224744 0 2534.18941519 0 56.60803570 0 6583
0.07850000 0.07848650 25240.02876359 0 1173.06852524 0 10315.33211545 0 1549.73794324 0 419.27018775 0 6549
0.07950000 0.07947320 24384.02733186 0 529.22833829 0 10111.26916904 0 250.37073050 0 -1816.61418835 0 6828
0.08050000 0.08048110 23428.81786976 0 938.91764337 0 8468.39082942 0 186.93295268 0 -867.41478415 0 7147
0.08150000 0.08149960 22773.88985674 0 576.59352940 0 7977.87576763 0 256.65316760 0 -807.75488356 0 7386
0.08250000 0.08250610 22951.04705383 0 151.75506950 0 8720.40801462 0 933.68154096 0 998.26087546 0 7227
0.08350000 0.08350160 23304.25421555 0 -502.38791569 0 7998.84675084 0 1156.17215756 0 1344.74492155 0 7798
0.08450000 0.08449610 22921.92683956 0 8.96151896 0 9030.01236120 0 2138.08806713 0 1093.20827525 0 7371
0.08550000 0.08548940 23206.37486415 0 2.50412805 0 7459.13734988 0 674.20493053 0 1994.19213379 0 8256
0.08650000 0.08650700 22795.37016688 0 109.09860597 0 7850.27829642 0 793.28335503 0 1937.42432444 0 8037
0.08750000 0.08749060 22689.74018811 0 561.46984093 0 7455.66063988 0 -216.35654865 0 2714.82332228 0 8155
0.08850000 0.08849210 22418.57895331 0 154.44010827 0 7321.39762913 0 461.04274759 0 1806.78196391 0 8718
0.08950000 0.08949900 22196.02522445 0 72.27293940 0 6283.35610506 0 379.73645198 0 569.99774550 0 8571
0.09050000 0.09049190 21770.73722817 0 570.43399510 0 6418.85921619 0 -269.63436122 0 -906.70382154 0 8932
0.09150000 0.09150830 21460.60141000 0 639.99919747 0 6455.49753902 0 -623.64758818 0 -48.25551675 0 9285
0.09250000 0.09250820 20655.08977944 0 840.60979300 0 6856.99110926 0 -262.83706101 0 130.97674474 0 9204
0.09350000 0.09350330 20078.55382613 0 915.49856914 0 6441.77892857 0 420.93989433 0 985.69378680 0 9349
0.09450000 0.09448040 19563.46927557 0 625.11356398 0 6504.85796306 0 738.56614024 0 388.01633648 0 9564
0.09550000 0.09549270 19204.50450495 0 164.28894119 0 6395.81770824 0 1450.71814239 0 516.28146888 0 10155
0.09650000 0.09649430 18982.50439234 0 -187.12007497 0 5359.39274359 0 794.62974972 0 1238.63883281 0 9913
0.09750000 0.09749140 18783.09182235 0 190.98542356 0 5264.08217155 0 202.01345908 0 126.68732611 0 10476
0.09850000 0.09850240 18669.48976971 0 737.75896776 0 5549.16131866 0 -178.87230021 0 1832.70227631 0 10575
0.09950000 0.09950330 18150.75135196 0 334.86364119 0 4637.34429752 0 1187.71721097 0 1199.87462362 0 10882
0.10050000 0.10051200 17636.22041764 0 182.71439692 0 4549.46325543 0 668.31777543 0 1438.51644044 0 10875
0.10150000 0.10150300 17614.74010749 0 236.62222477 0 4590.61908679 0 832.47717042 0 447.68952386 0 11118
0.10250000 0.10250800 17257.21473909 0 288.30119363 0 4099.62791503 0 831.35222222 0 998.39595783 0 11575
0.10350000 0.10349800 17058.24506210 0 391.65802411 0 4292.27529455 0 -670.04948703 0 1402.03313016 0 11364
0.10450000 0.10450100 16826.39058040 0 148.63821006 0 4538.53487084 0 -465.53811146 0 935.28924252 0 12093
0.10550000 0.10551000 16767.92870536 0 151.81928898 0 4513.91002044 0 -800.53462055 0 205.11260280 0 12067
0.10650000 0.10649700 16372.97887908 0 365.38450455 0 5010.07196789 0 -532.46588606 0 -183.42524018 0 12054
0.10750000 0.10749900 16495.66023807 0 405.41206600 0 5320.60638975 0 -670.68393124 0 -78.38331258 0 12807
0.10850000 0.10850100 16030.40114919 0 255.06761068 0 5583.69589977 0 -291.88530517 0 -843.48749022 0 12736
0.10950000 0.10950300 15839.51426931 0 344.17989529 0 5249.47777512 0 343.40593979 0 -142.12546860 0 12933
0.11050000 0.11050200 15773.08032040 0 -54.66273895 0 5446.48765062 0 648.27133134 0 -415.82226580 0 13428
0.11150000 0.11150900 15635.45132291 0 139.46589618 0 5195.35625141 0 347.15502897 0 -813.49809845 0 13453
0.11250000 0.11250000 15561.37746987 0 322.64975968 0 5030.60005810 0 62.62628713 0 -759.63788160 0 13668
0.11350000 0.11349100 15283.35139367 0 224.22011374 0 5442.06979301 0 -79.68663593 0 -457.74098033 0 13791
0.11450000 0.11448600 15137.19670607 0 206.14454347 0 5224.76434612 0 -468.12903547 0 -742.34955363 0 14205
0.11550000 0.11549300 14903.45992915 0 469.95043291 0 5548.50805150 0 -562.63354226 0 -1201.08150703 0 14776
0.11650000 0.11649800 14720.43439989 0 425.03886898 0 5743.72421037 0 -66.09269986 0 -481.96279810 0 14553
0.11750000 0.11747300 14227.49449897 0 237.41389599 0 5616.02708824 0 19.20583318 0 -651.47234045 0 14568
0.11850000 0.11849100 14145.89146505 0 -21.07495234 0 5561.31873131 0 956.56803636 0 -755.06168975 0 16015
0.11950000 0.11950300 14333.56737073 0 144.58795364 0 5423.01432200 0 988.18505988 0 -954.68906284 0 15270
0.12050000 0.12050700 13731.34362384 0 440.55341051 0 4885.63010925 0 503.31577651 0 -1200.36180591 0 15999
0.12150000 0.12150000 13700.78400734 0 107.15629875 0 4491.84287708 0 375.60647482 0 -184.99197414 0 15670
0.12250000 0.12250700 13385.55491976 0 -0.89020606 0 4122.78014622 0 272.04480633 0 -756.81997493 0 16887
0.12350000 0.12352200 13622.83484062 0 -16.12805905 0 4390.76362381 0 81.85182905 0 -248.34892398 0 16407
0.12450000 0.12449800 13347.68756888 0 223.51591388 0 3872.78919647 0 643.31203706 0 -254.05670743 0 16306
0.12550000 0.12549900 13338.82970902 0 278.81442572 0 3884.54800542 0 175.62146565 0 -184.89453768 0 17523
0.12650000 0.12650100 13234.63913248 0 -80.18954093 0 3171.74495057 0 612.80999665 0 227.62374639 0 17154
0.12750000 0.12750600 13177.17376667 0 -193.27185864 0 3299.13204761 0 540.45124672 0 -475.19539317 0 18007
0.12850000 0.12850300 13251.46906620 0 162.66352391 0 3197.43274415 0 89.53092921 0 -409.78895600 0 17496
0.12950000 0.12949900 13041.98068064 0 363.05820911 0 3178.96410636 0 -294.89808475 0 -401.95085726 0 18405
0.13050000 0.13049000 12814.33368236 0 262.85145503 0 3228.37989202 0 -142.17418683 0 410.53190900 0 18100
0.13150000 0.13148800 12799.38604386 0 144.75403852 0 3445.06528872 0 253.59056255 0 299.09671033 0 19059
0.13250000 0.13249300 12540.07219661 0 324.22535150 0 3619.85300831 0 85.87064007 0 -6.13155453 0 18957
0.13350000 0.13349100 12304.45312447 0 229.06979201 0 3506.46132984 0 202.22272602 0 512.04630463 0 19468
0.13450000 0.13450700 12195.83361799 0 67.75620594 0 3628.44513237 0 397.59832638 0 702.60544369 0 19953
0.13550000 0.13551000 12092.19665769 0 33.64569487 0 3508.86402433 0 154.39028281 0 422.76239899 0 19956
0.13650000 0.13649900 11910.38908417 0 235.18946594 0 3347.75062589 0 398.00135900 0 462.18319704 0 19723
0.13750000 0.13749600 11954.12476720 0 9.41818592 0 2773.39592057 0 298.50434095 0 1027.39659099 0 20946
0.13850000 0.13851100 11699.23984988 0 -40.99317890 0 2637.81530317 0 110.20783147 0 561.92491348 0 20955
0.13950000 0.13949800 11837.42246361 0 160.75576234 0 2528.44287861 0 178.92323291 0 49.19666436 0 20506
0.14050000 0.14048300 11570.46871224 0 207.49647433 0 2581.57896542 0 -123.43316985 0 -350.67602826 0 21447
0.14150000 0.14148400 11319.01621561 0 293.10326090 0 2476.81262798 0 39.45866540 0 102.57390640 0 21771
0.14250000 0.14249400 11095.24453102 0 209.72976225 0 2542.62652670 0 -33.90445510 0 -193.72582396 0 22470
0.14350000 0.14350900 11053.87832550 0 145.11942524 0 2547.18832453 0 146.18126119 0 -111.55035085 0 22519
0.14450000 0.14449900 10869.05907963 0 328.66756822 0 2660.14818233 0 178.08062899 0 219.40143798 0 22218
0.14550000 0.14550500 10738.78210581 0 167.41022956 0 2550.55431127 0 354.41404512 0 669.08065861 0 23559
0.14650000 0.14650700 10514.47894963 0 139.90768194 0 2697.03009630 0 -44.45715572 0 754.53575432 0 23044
0.14750000 0.14750500 10451.14525167 0 251.15354386 0 2912.11000590 0 155.42886687 0 685.89398384 0 23649
0.14850000 0.14849900 10281.24042733 0 250.65418201 0 2993.18156822 0 -292.82202385 0 1048.96215804 0 23640
0.14950000 0.14949500 10209.97894480 0 112.49592739 0 3100.68276989 0 -111.66439580 0 908.49753816 0 24457
0.15050000 0.15050000 10196.61464874 0 -15.57599294 0 3080.33183687 0 -2.06425781 0 724.77223798 0 24591
0.15150000 0.15149900 10044.75771385 0 177.94111770 0 3254.72095277 0 -236.72076846 0 233.17541005 0 25020
0.15250000 0.15250500 9998.63040866 0 254.38666271 0 3135.43879749 0 -183.41748955 0 47.29178160 0 25297
0.15350000 0.15350100 9854.96699414 0 150.47953768 0 3076.67796968 0 67.92749481 0 -50.37575623 0 25452
0.15450000 0.15450400 9749.12664119 0 -26.72161655 0 2790.44730080 0 -58.83755902 0 -14.18342665 0 26061
0.15550000 0.15549900 9775.39019566 0 14.99325648 0 2973.60569795 0 81.99222613 0 -345.77431006 0 26128
0.15650000 0.15649500 9657.87961236 0 284.41591485 0 2975.07831715 0 266.12775595 0 -144.00776382 0 26331
0.15750000 0.15749700 9529.48493377 0 213.39138007 0 3150.58573785 0 113.72716991 0 -32.77806750 0 27345
0.15850000 0.15849900 9308.65848758 0 189.66006628 0 3119.37285418 0 14.15962115 0 590.42618479 0 26980
0.15950000 0.15949700 9317.81530021 0 -38.83230399 0 3183.61448278 0 448.83218778 0 750.29062499 0 27777
0.16050000 0.16050000 9163.94320220 0 10.82951981 0 3147.26404040 0 446.67751337 0 819.36975230 0 28224
0.16150000 0.16150500 9319.08861756 0 23.83661159 0 2763.25367104 0 353.30016924 0 439.80049242 0 28075
0.16250000 0.16249700 9100.48770867 0 207.82310792 0 2579.16519861 0 240.54293499 0 446.79488001 0 28590
0.16350000 0.16349900 8917.87185543 0 128.50872354 0 2294.11926847 0 -116.86838846 0 162.91597292 0 29163
0.16450000 0.16449100 8807.59150024 0 173.29738467 0 2092.13791913 0 64.81871817 0 53.20794619 0 28996
0.16550000 0.16550500 8674.84539799 0 27.60950627 0 1944.64348022 0 2.24734977 0 -433.36415001 0 30777
0.16650000 0.16650700 8617.98901005 0 111.33776221 0 1777.17456734 0 85.46207128 0 -440.89333088 0 29211
0.16750000 0.16749900 8536.66278425 0 175.54395937 0 1675.71885503 0 191.57114955 0 -597.52686670 0 30922
0.16850000 0.16850800 8452.75670678 0 2.22241489 0 1660.30617888 0 65.95518159 0 -485.72849577 0 30867
0.16950000 0.16949900 8461.80279615 0 38.19387374 0 1853.51824697 0 47.08605780 0 -590.07519210 0 30852
0.17050000 0.17049200 8455.71301750 0 -15.28434790 0 1876.55975491 0 96.06094349 0 -404.47202563 0 31257
0.17150000 0.17149500 8423.61434785 0 201.48752365 0 2139.48318006 0 -347.18713871 0 -282.36753476 0 32608
0.17250000 0.17250900 8415.86372048 0 228.43645503 0 2244.65919351 0 -189.27474938 0 -13.66900644 0 32361
0.17350000 0.17350400 8248.62732642 0 160.07038544 0 2431.83684457 0 -216.31336659 0 42.11546974 0 32508
0.17450000 0.17449800 8218.87598963 0 148.14659884 0 2437.39515163 0 -12.64359843 0 310.80458659 0 32791
0.17550000 0.17549800 8070.92758541 0 170.65220627 0 2561.99202281 0 41.70490794 0 156.28032865 0 33633
0.17650000 0.17650100 8007.31707932 0 90.01811150 0 2241.74717208 0 230.66863571 0 237.78038995 0 33984
0.17750000 0.17750300 7866.28887811 0 5.06603150 0 2332.75060977 0 308.95329388 0 66.94704044 0 34069
0.17850000 0.17849800 7866.25566113 0 76.36914597 0 2007.57857449 0 200.78885996 0 -141.13892446 0 34536
