### header ###
fiducial parameters:
Omega_m = 0.31
Omega_nu = 0
Omega_de = 0.69
Omega_k = 0
H_0 = 100
w_de = -1
zeff = 0
beta = 0
fgrowth = 0
b_1 = 2
gamma = 0.55
Lx = 3500 Ly = 3500 Lz = 3500
nx = 700 ny = 700 nz = 700
xoffset = -685.467585 yoffset = -31.7331281 zoffset = 572.489161
bins = 400 dk = 0.001
kx_ny = 0.628318531 ky_ny = 0.628318531 kz_ny = 0.628318531
############################
A(data) = 8.09484224 (not used)
A(ran) = 8.10071331 (used)
Ngal = 480785
weighted Ngal = 0
Nran = 23820508
weighted Nran = 0
SN(data) = 3473.01011
SN(ran) = 70.5601508
SN(data+ran) = 3543.57026
############################
13 columns: k_central k_mean P_0(k) sigma^{lin}_{P_0(k)} P^img_1(k) sigma^{lin}_{P_1(k)} P_2(k) sigma^{lin}_{P_2(k)} P^img_3(k) sigma^{lin}_{P_3(k)} P_4(k) sigma^{lin}_{P_4(k)} N_modes
### header ###
0.00050000 0 0 0 0 0 0 0 0 0 0 0 0
0.00150000 0.00179520 8025.58641527 0 -28008.66358450 0 -26372.17397630 0 -39329.11920233 0 -10139.32644013 0 3
0.00250000 0.00253879 22846.08141455 0 -39926.69257279 0 -32364.18399841 0 -23136.50849455 0 -4734.45965850 0 6
0.00350000 0.00331552 38226.86926663 0 -25980.87801721 0 -25874.91586869 0 -27816.22657915 0 -53411.89841592 0 7
0.00450000 0.00420575 59721.13054408 0 -13446.67415276 0 -18022.31238406 0 -45414.80109240 0 13071.43306465 0 24
0.00550000 0.00557378 57357.52136504 0 -1753.45764758 0 -18248.07708711 0 -41813.85961488 0 -6331.34356082 0 45
0.00650000 0.00659388 59023.02046426 0 7622.91917859 0 -25847.01361015 0 -27057.21871283 0 8176.01502026 0 40
0.00750000 0.00754703 63715.80389215 0 -7930.03225209 0 -6245.09015049 0 -31654.55870078 0 -22660.50925059 0 57
0.00850000 0.00846663 56875.76451218 0 -9921.51166630 0 -12508.51607087 0 -3447.92194853 0 -8832.79211153 0 75
0.00950000 0.00948925 65948.09529884 0 -6567.93699755 0 -10891.67983923 0 -7189.52624054 0 -32637.55969818 0 112
0.01050000 0.01054430 63002.63545058 0 -4178.32999984 0 -2390.28240952 0 -16232.02818414 0 -22645.22944234 0 105
0.01150000 0.01145670 66875.73467214 0 2029.25818649 0 -4397.46238032 0 -31957.05461483 0 -37286.71816628 0 144
0.01250000 0.01249090 67902.24990608 0 -2299.48934601 0 6710.94714491 0 -34610.20508787 0 -10533.54549297 0 169
0.01350000 0.01339930 71848.20502495 0 -1809.16251374 0 15203.51993173 0 -27787.77070436 0 -18138.79324115 0 180
0.01450000 0.01448870 84531.22093496 0 -2675.07367618 0 23523.26480046 0 -25130.30202464 0 -13767.55012600 0 267
0.01550000 0.01550050 81601.59451120 0 12429.57039492 0 39104.35100851 0 -14363.90554073 0 -24212.62774367 0 238
0.01650000 0.01653350 79766.91028875 0 4116.47999340 0 38589.93079744 0 -6477.26572961 0 -16223.61321727 0 315
0.01750000 0.01747870 77486.34354585 0 6398.56364480 0 40155.33608030 0 3599.11454393 0 -32903.73838682 0 297
0.01850000 0.01844180 80632.32319657 0 -90.90312242 0 46684.24313286 0 -8284.98884113 0 -30000.57481937 0 388
0.01950000 0.01947590 74813.15216488 0 3708.29873896 0 47347.36466625 0 7620.30610994 0 -26165.67511843 0 399
0.02050000 0.02045430 75396.99585257 0 -214.98468761 0 44356.72973273 0 -3919.89086625 0 -19981.33881423 0 462
0.02150000 0.02154770 78090.56031120 0 -2651.19067155 0 45209.96308326 0 16559.99044526 0 -18887.17167565 0 571
0.02250000 0.02255340 78541.42537782 0 1955.10682718 0 45776.42322098 0 16057.30689850 0 -22608.91221694 0 510
0.02350000 0.02348930 82018.35681737 0 4367.45638007 0 49964.64080688 0 11742.64336317 0 -8294.66605302 0 555
0.02450000 0.02439640 69819.42294843 0 12010.92579352 0 40546.52131614 0 14549.14553495 0 993.96924236 0 592
0.02550000 0.02547300 65328.48800198 0 8625.67320347 0 34816.26105274 0 16529.54155201 0 12643.37698716 0 837
0.02650000 0.02652900 60972.96758807 0 -1302.36006214 0 28472.59399440 0 14447.83376286 0 11419.33147846 0 723
0.02750000 0.02749970 64249.48994841 0 -2676.11447472 0 22986.14632351 0 14020.22057836 0 5464.77913122 0 826
0.02850000 0.02848090 59634.98785699 0 -1984.76958537 0 13732.78302607 0 10376.96067539 0 4047.80943488 0 831
0.02950000 0.02946900 62773.54905008 0 1866.56144560 0 9548.64005570 0 -2088.68335379 0 -8837.25425843 0 996
0.03050000 0.03053250 57258.42405791 0 4978.03973219 0 10201.32038679 0 -7823.62721058 0 -6289.05835234 0 1041
0.03150000 0.03150510 53634.89503776 0 4754.84380850 0 13995.08640102 0 -3434.20333808 0 -4108.67400440 0 1036
0.03250000 0.03246190 51748.06016542 0 2980.88021535 0 15827.11326552 0 -3206.74456933 0 -7473.32099797 0 1059
0.03350000 0.03345080 52623.77033532 0 -2576.96180597 0 20391.67917200 0 4577.96341952 0 -2061.00254174 0 1302
0.03450000 0.03451200 53087.59002198 0 -110.01738748 0 23513.85332437 0 538.72728575 0 -5490.26762295 0 1339
0.03550000 0.03553350 53447.21913209 0 5018.66409195 0 24464.30168680 0 -913.83329149 0 5004.28114201 0 1365
0.03650000 0.03647120 50182.87632905 0 4492.02003428 0 29900.14883327 0 -981.80518632 0 6026.11278255 0 1308
0.03750000 0.03744890 49158.35411358 0 952.18228850 0 29735.28191672 0 1917.68236929 0 13334.40077910 0 1579
0.03850000 0.03847530 48944.43679809 0 -425.36439533 0 29719.66993872 0 6146.46895333 0 14378.18883975 0 1662
0.03950000 0.03950240 49960.65476994 0 -1281.64374241 0 27698.19559658 0 8575.68165691 0 14427.57140844 0 1683
0.04050000 0.04050350 49662.14489283 0 1554.77585103 0 28628.71377434 0 6740.56561380 0 18206.99876204 0 1822
0.04150000 0.04152450 49400.28441087 0 949.67551416 0 23541.20196667 0 5956.93289708 0 18081.43859859 0 1887
0.04250000 0.04250150 47278.60552912 0 2042.74427812 0 23156.88157221 0 6586.37241837 0 19471.67970282 0 1920
0.04350000 0.04349210 44822.43171460 0 3475.22630153 0 22156.71847134 0 935.19623499 0 20018.76327211 0 2005
0.04450000 0.04448520 43240.75011426 0 1925.83160036 0 24213.18135991 0 374.52138699 0 18497.42584203 0 2151
0.04550000 0.04548030 39025.73750230 0 2645.36662870 0 21077.16680153 0 3095.51199420 0 14196.60271272 0 2274
0.04650000 0.04648670 38226.31565039 0 1788.16938589 0 20174.77232881 0 1605.48709870 0 14438.53301001 0 2311
0.04750000 0.04749250 36745.50292915 0 -81.01420768 0 17129.99372693 0 2291.87158654 0 9189.02201792 0 2568
0.04850000 0.04851840 36843.60372704 0 210.74398720 0 15238.84064790 0 2350.61026970 0 4770.50007579 0 2493
0.04950000 0.04949480 35428.67133846 0 -56.06914565 0 11820.03891365 0 925.96302333 0 2514.94571466 0 2644
0.05050000 0.05050630 35615.35073491 0 669.20356141 0 11856.24541581 0 165.26219855 0 194.90059762 0 2829
0.05150000 0.05149060 34705.20563481 0 -47.79136489 0 9285.18515897 0 -2258.79855230 0 -1346.04038355 0 2784
0.05250000 0.05249300 36136.96795711 0 258.51331817 0 12706.82140837 0 70.82323992 0 -2228.28322510 0 3055
0.05350000 0.05348950 34927.87008692 0 936.82829567 0 10286.49978162 0 -457.26487036 0 -2104.81573105 0 3009
0.05450000 0.05448610 35518.57861599 0 43.64533286 0 13633.35354920 0 791.63690033 0 -1473.72643336 0 3336
0.05550000 0.05550870 34676.52831353 0 29.45648078 0 12937.67938084 0 294.48287257 0 -5019.06269564 0 3349
0.05650000 0.05647670 35287.27775053 0 606.67482146 0 15337.05216904 0 458.61790845 0 -821.61300531 0 3324
0.05750000 0.05747970 35140.90161643 0 -125.97316116 0 14840.67984742 0 -430.01366452 0 432.12737132 0 3639
0.05850000 0.05849280 34779.72238084 0 876.86612062 0 16152.75033843 0 3491.01543672 0 2776.18614643 0 3846
0.05950000 0.05951020 34716.05651314 0 462.84310760 0 15270.95038988 0 3044.05890077 0 4738.88858843 0 3787
0.06050000 0.06049470 33616.13176565 0 484.25366211 0 14020.33130161 0 2989.09588037 0 5257.70451246 0 3930
0.06150000 0.06148310 33784.65254939 0 -357.88521895 0 13150.71091035 0 3414.58317850 0 5560.23364348 0 4083
0.06250000 0.06249100 33282.96551186 0 276.13270865 0 11776.63540036 0 2137.87769296 0 3602.29230115 0 4303
0.06350000 0.06350600 33304.11365226 0 690.47792632 0 10446.20699480 0 -1025.79664006 0 4896.77994035 0 4470
0.06450000 0.06451750 32993.09204811 0 875.78546172 0 9997.03599388 0 -1070.24980974 0 3051.03446540 0 4479
0.06550000 0.06550280 32124.35744283 0 243.58782431 0 10988.13086073 0 -1403.45038774 0 1598.72190824 0 4636
0.06650000 0.06648880 32187.02680131 0 1322.53383796 0 12427.13448346 0 -1853.44074069 0 -772.45631204 0 4653
0.06750000 0.06749660 31221.18790738 0 669.51469374 0 12531.10361350 0 496.21952354 0 -776.10242861 0 5220
0.06850000 0.06852730 31166.26917628 0 -449.55078166 0 13048.07045929 0 302.18478172 0 -50.05842340 0 5029
0.06950000 0.06949320 30717.95074437 0 420.67748023 0 11492.51954551 0 3267.60913885 0 -1327.50531181 0 5040
0.07050000 0.07048030 30320.67572988 0 647.93694713 0 12423.25916977 0 2847.81301568 0 -202.95903562 0 5475
0.07150000 0.07148790 28983.47106153 0 1175.08368835 0 10099.44392613 0 2251.19186515 0 1266.92862272 0 5509
0.07250000 0.07249820 28458.53214188 0 1132.59917802 0 9083.41418380 0 2100.97363434 0 548.97804407 0 5916
0.07350000 0.07351270 26764.35572138 0 757.41345154 0 8193.89682484 0 1461.17041702 0 1247.37489709 0 5721
0.07450000 0.07449140 26505.59549036 0 567.94382925 0 7734.97110576 0 -361.52579935 0 -271.57423252 0 6028
0.07550000 0.07549160 26085.95437974 0 639.23077813 0 9172.98929158 0 -1496.07038485 0 -553.74578713 0 6183
0.07650000 0.07648840 25451.39944438 0 420.30655735 0 8319.30197574 0 -1687.00155402 0 -247.27158678 0 6330
0.07750000 0.07749960 25452.83884661 0 611.33294851 0 11140.19816978 0 -1660.99266302 0 -1043.23001548 0 6583
0.07850000 0.07848650 25122.21922752 0 1099.86717140 0 10931.60664253 0 -265.93841919 0 313.57820396 0 6549
0.07950000 0.07947320 24790.60309920 0 634.77306016 0 12081.67794911 0 953.23083766 0 1266.84004413 0 6828
0.08050000 0.08048110 24701.80305416 0 191.17918925 0 12685.00892848 0 1068.27229253 0 3059.64873411 0 7147
0.08150000 0.08149960 24622.85737820 0 -283.38508141 0 12154.75529292 0 2280.38958570 0 3658.09681823 0 7386
0.08250000 0.08250610 24700.80654493 0 -27.68645893 0 11708.42987948 0 1493.60125641 0 4213.31854627 0 7227
0.08350000 0.08350160 24423.22336172 0 2.90273175 0 10537.12185389 0 1117.91727531 0 3946.29836094 0 7798
0.08450000 0.08449610 24784.51332055 0 380.83150490 0 10028.71391519 0 -175.39337575 0 3089.14540743 0 7371
0.08550000 0.08548940 23939.58421364 0 455.36264496 0 9280.64550579 0 -94.44526985 0 1677.56793327 0 8256
0.08650000 0.08650700 23003.75131997 0 889.83624191 0 8338.08063863 0 484.02446498 0 132.88007738 0 8037
0.08750000 0.08749060 22892.25300905 0 503.28255954 0 7433.23918213 0 1081.94439921 0 -1005.59407619 0 8155
0.08850000 0.08849210 21838.16768631 0 557.86137027 0 6921.60919691 0 424.18297827 0 -1950.17964263 0 8718
0.08950000 0.08949900 21265.39632344 0 889.09328892 0 6226.79866989 0 846.91105305 0 -2301.90311282 0 8571
0.09050000 0.09049190 20219.72596757 0 829.09236072 0 6056.42880790 0 830.47197240 0 -1683.27018055 0 8932
0.09150000 0.09150830 19759.22797836 0 314.20379031 0 5908.92329667 0 726.79515172 0 -1227.76580984 0 9285
0.09250000 0.09250820 19836.51280560 0 -133.55770366 0 5773.61948738 0 680.36446483 0 -1592.84250376 0 9204
0.09350000 0.09350330 19951.99715346 0 17.86231729 0 6203.81252356 0 124.33999325 0 -854.93073792 0 9349
0.09450000 0.09448040 19850.46393487 0 -365.07780115 0 5236.72245693 0 -177.73517245 0 -643.76157344 0 9564
0.09550000 0.09549270 20246.74244013 0 -226.51097774 0 5996.30608414 0 -330.40481598 0 -762.15683550 0 10155
0.09650000 0.09649430 20464.64579256 0 261.94684609 0 6527.61159056 0 -336.05834504 0 -8.55431207 0 9913
0.09750000 0.09749140 20089.51542770 0 733.27799790 0 5967.93878795 0 225.86546121 0 -1238.35095237 0 10476
0.09850000 0.09850240 19486.84878782 0 730.45566231 0 6795.82758697 0 55.78137593 0 362.29311146 0 10575
0.09950000 0.09950330 18920.61009660 0 683.57654626 0 6735.12910231 0 640.97577652 0 -283.27214370 0 10882
0.10050000 0.10051200 18561.75604923 0 372.45086225 0 6833.73922715 0 851.79837723 0 240.87067580 0 10875
0.10150000 0.10150300 17769.64193170 0 552.20230505 0 5626.01432523 0 1304.27557434 0 309.85679558 0 11118
0.10250000 0.10250800 17415.21681426 0 440.63756018 0 5403.81491077 0 1320.93942319 0 462.14555114 0 11575
0.10350000 0.10349800 16928.25596873 0 181.84964836 0 4391.48332492 0 487.41259638 0 534.68699442 0 11364
0.10450000 0.10450100 16769.70027733 0 495.93939372 0 4419.14199232 0 395.58759219 0 -161.93496494 0 12093
0.10550000 0.10551000 16305.65914418 0 425.41532802 0 3756.15332683 0 13.88358809 0 -26.29666072 0 12067
0.10650000 0.10649700 15865.64495589 0 367.81045092 0 3461.97272872 0 -324.17774051 0 261.76415274 0 12054
0.10750000 0.10749900 15919.12428476 0 -114.58638232 0 3747.40619022 0 -529.53947061 0 -360.27462665 0 12807
0.10850000 0.10850100 15845.27187822 0 59.44941569 0 4270.91677997 0 448.39040202 0 -409.09915017 0 12736
0.10950000 0.10950300 15895.76167939 0 140.91083457 0 4133.84139872 0 -56.73702828 0 -1166.49156429 0 12933
0.11050000 0.11050200 15671.76854831 0 138.42066872 0 3759.10963755 0 118.55470353 0 -321.74957967 0 13428
0.11150000 0.11150900 15812.16562701 0 32.44711571 0 4211.59126359 0 8.09763403 0 -1071.97487794 0 13453
0.11250000 0.11250000 15630.02588375 0 159.95080433 0 3858.39517420 0 93.01981876 0 -921.07459192 0 13668
0.11350000 0.11349100 15577.76451060 0 255.21597984 0 4015.82148847 0 383.75016973 0 -1187.59541540 0 13791
0.11450000 0.11448600 15011.96871237 0 429.73685640 0 4233.04942909 0 -422.40033397 0 -721.53690467 0 14205
0.11550000 0.11549300 14941.65944977 0 354.00104740 0 4148.92190512 0 238.05609083 0 -914.44116212 0 14776
0.11650000 0.11649800 14470.53202874 0 192.73485089 0 4494.34522249 0 206.17554598 0 75.94784401 0 14553
0.11750000 0.11747300 14624.76951346 0 210.74620167 0 4858.32575625 0 75.38946667 0 -374.14935688 0 14568
0.11850000 0.11849100 14542.39141681 0 167.56745657 0 4763.53558348 0 322.43495658 0 882.16644251 0 16015
0.11950000 0.11950300 14286.06709726 0 292.98921596 0 5018.99626169 0 245.44797488 0 1155.35280553 0 15270
0.12050000 0.12050700 14106.69543520 0 202.63350927 0 5028.20843594 0 352.94585485 0 1516.35488391 0 15999
0.12150000 0.12150000 14183.75881593 0 -15.18967953 0 5100.65465723 0 445.06759734 0 1612.39622939 0 15670
0.12250000 0.12250700 14068.05302158 0 175.78201436 0 4738.99931168 0 156.06774002 0 1199.50923690 0 16887
0.12350000 0.12352200 13806.30326287 0 302.15267198 0 5164.05478914 0 -181.98694518 0 1321.80306453 0 16407
0.12450000 0.12449800 13540.45674397 0 421.93972526 0 4915.86862833 0 -611.00742216 0 646.16980409 0 16306
0.12550000 0.12549900 13399.39532578 0 279.17095458 0 5345.98415824 0 -240.49864569 0 795.50667785 0 17523
0.12650000 0.12650100 13006.65996446 0 143.01014736 0 5071.08047764 0 -355.36294336 0 115.47216830 0 17154
0.12750000 0.12750600 13056.70687264 0 182.11316969 0 5283.91270530 0 358.04244596 0 94.59507841 0 18007
0.12850000 0.12850300 12893.16863507 0 231.92645181 0 5009.39655608 0 86.92804709 0 -9.51513520 0 17496
0.12950000 0.12949900 12567.42083891 0 432.86368093 0 5063.10840377 0 597.84464242 0 -328.68417671 0 18405
0.13050000 0.13049000 12394.13895550 0 186.58195998 0 5090.50133537 0 -60.69460934 0 500.28306675 0 18100
0.13150000 0.13148800 12174.57475434 0 71.33522422 0 4718.93625911 0 490.91034379 0 8.92007525 0 19059
0.13250000 0.13249300 12268.35734556 0 83.83432881 0 4884.36786422 0 87.27018193 0 427.90881557 0 18957
0.13350000 0.13349100 12017.45846517 0 72.75403192 0 4998.71176263 0 -150.03221576 0 222.13076605 0 19468
0.13450000 0.13450700 12169.26003843 0 117.53162072 0 4930.40659082 0 212.38158404 0 351.02702096 0 19953
0.13550000 0.13551000 12073.37370550 0 -15.05348993 0 4819.83835518 0 176.47071296 0 493.42819045 0 19956
0.13650000 0.13649900 11976.71230983 0 72.68405483 0 4501.08826830 0 558.70065249 0 710.84657505 0 19723
0.13750000 0.13749600 12052.11484185 0 110.56535683 0 4585.86905944 0 534.07580209 0 517.13735958 0 20946
0.13850000 0.13851100 11799.44438949 0 220.55960315 0 3992.85748680 0 719.03345203 0 650.45590103 0 20955
0.13950000 0.13949800 11416.45267401 0 290.48022715 0 3785.70536177 0 393.10517697 0 1194.98065605 0 20506
0.14050000 0.14048300 11333.85313086 0 154.16662184 0 3602.18157790 0 256.22799033 0 994.78416547 0 21447
0.14150000 0.14148400 11105.43106985 0 -21.08104212 0 3607.89489751 0 320.40982837 0 1609.90495631 0 21771
0.14250000 0.14249400 11253.13588293 0 -94.15960387 0 3408.23873638 0 181.53187263 0 1024.13800580 0 22470
0.14350000 0.14350900 11312.92643696 0 0.61738508 0 3532.11590645 0 -199.18558733 0 917.85586710 0 22519
0.14450000 0.14449900 11279.15584626 0 290.45033188 0 3496.08656149 0 -77.95359565 0 532.62311308 0 22218
0.14550000 0.14550500 10945.38061460 0 338.85853598 0 3452.37302310 0 -165.87228364 0 606.70360951 0 23559
0.14650000 0.14650700 10654.51064161 0 168.11221495 0 3123.56926529 0 156.65678770 0 140.87429590 0 23044
0.14750000 0.14750500 10623.97316976 0 151.61777267 0 3285.40236484 0 250.19468053 0 -51.19699056 0 23649
0.14850000 0.14849900 10336.22559238 0 176.31016425 0 2708.96606245 0 294.04773021 0 -186.12688743 0 23640
0.14950000 0.14949500 10202.48298089 0 331.43675666 0 2861.06658849 0 224.60764511 0 -397.16539848 0 24457
0.15050000 0.15050000 10007.33325596 0 150.21601635 0 2936.34732493 0 -236.40409997 0 -5.03512864 0 24591
0.15150000 0.15149900 9893.75334798 0 104.56969295 0 2879.73452813 0 110.38266348 0 89.40581194 0 25020
0.15250000 0.15250500 9910.80472820 0 15.20927754 0 3072.32654603 0 76.74029030 0 110.37037319 0 25297
0.15350000 0.15350100 9866.13896988 0 -2.30689673 0 3072.07188256 0 115.89402388 0 62.40550497 0 25452
0.15450000 0.15450400 9993.85823666 0 53.36229440 0 3048.86428974 0 299.23511439 0 214.05904125 0 26061
0.15550000 0.15549900 9796.62691467 0 205.69168539 0 3032.73191248 0 -62.75472610 0 417.17751835 0 26128
0.15650000 0.15649500 9670.08131431 0 364.48875347 0 2771.35861281 0 243.54132055 0 623.73284508 0 26331
0.15750000 0.15749700 9502.86706490 0 124.96557960 0 2903.71718369 0 300.25155380 0 968.10318436 0 27345
0.15850000 0.15849900 9326.99425748 0 95.71792287 0 2523.52676639 0 504.24363733 0 762.36499520 0 26980
0.15950000 0.15949700 9325.42198736 0 131.88246091 0 2535.05305653 0 337.01277944 0 824.89484238 0 27777
0.16050000 0.16050000 9091.50805324 0 67.32748552 0 2405.34077128 0 68.15403457 0 476.29044610 0 28224
0.16150000 0.16150500 9016.40447400 0 80.88754028 0 2460.62488910 0 -0.78893747 0 940.25296574 0 28075
0.16250000 0.16249700 9063.65008400 0 56.37341314 0 2481.75088485 0 -219.19770720 0 613.74339363 0 28590
0.16350000 0.16349900 8948.87436493 0 24.98813337 0 2527.04776568 0 44.70152193 0 565.27872066 0 29163
0.16450000 0.16449100 9043.64239305 0 116.65801429 0 2627.13050972 0 22.38768717 0 687.74749102 0 28996
0.16550000 0.16550500 8775.41532432 0 253.21188905 0 2470.82250026 0 207.43889824 0 744.54298118 0 30777
0.16650000 0.16650700 8701.35254361 0 144.90351490 0 2565.87840882 0 200.26735346 0 1164.03350818 0 29211
0.16750000 0.16749900 8498.14216621 0 128.61612509 0 2354.89525940 0 476.01142351 0 1015.99984706 0 30922
0.16850000 0.16850800 8512.65798405 0 -11.41357387 0 2223.37818521 0 344.15442894 0 1069.35848759 0 30867
0.16950000 0.16949900 8313.92082588 0 164.92338541 0 2136.77046048 0 319.07229153 0 951.55448768 0 30852
0.17050000 0.17049200 8360.21421594 0 154.46114569 0 2210.72251794 0 -273.68683210 0 1062.83356657 0 31257
0.17150000 0.17149500 8167.97651244 0 112.37966798 0 2067.10339272 0 -245.04715672 0 943.16830886 0 32608
0.17250000 0.17250900 8086.72779292 0 111.81830111 0 2048.74547817 0 -267.95026061 0 677.34393462 0 32361
0.17350000 0.17350400 8003.24246379 0 52.98539246 0 2135.95110844 0 250.12603212 0 648.67325673 0 32508
0.17450000 0.17449800 7940.38487579 0 58.73525074 0 1964.88368999 0 140.67277959 0 505.95652598 0 32791
0.17550000 0.17549800 7976.09312333 0 43.07112210 0 1774.89366843 0 307.54710863 0 254.69890227 0 33633
0.17650000 0.17650100 7842.07370373 0 88.05222023 0 1733.77105405 0 -78.44576049 0 320.94240719 0 33984
0.17750000 0.17750300 7888.58854029 0 201.29707967 0 1909.76565704 0 42.85853346 0 652.65597197 0 34069
