### header ###
fiducial parameters:
Omega_m = 0.31
Omega_nu = 0
Omega_de = 0.69
Omega_k = 0
H_0 = 100
w_de = -1
zeff = 0
beta = 0
fgrowth = 0
b_1 = 2
gamma = 0.55
Lx = 3500 Ly = 3500 Lz = 3500
nx = 700 ny = 700 nz = 700
xoffset = -685.467585 yoffset = -31.7331281 zoffset = 572.489161
bins = 400 dk = 0.001
kx_ny = 0.628318531 ky_ny = 0.628318531 kz_ny = 0.628318531
############################
A(data) = 8.06024302 (not used)
A(ran) = 8.05756524 (used)
Ngal = 478674
weighted Ngal = 0
Nran = 23820508
weighted Nran = 0
SN(data) = 3487.77364
SN(ran) = 70.1843154
SN(data+ran) = 3557.95796
############################
13 columns: k_central k_mean P_0(k) sigma^{lin}_{P_0(k)} P^img_1(k) sigma^{lin}_{P_1(k)} P_2(k) sigma^{lin}_{P_2(k)} P^img_3(k) sigma^{lin}_{P_3(k)} P_4(k) sigma^{lin}_{P_4(k)} N_modes
### header ###
0.00050000 0 0 0 0 0 0 0 0 0 0 0 0
0.00150000 0.00179520 26399.19044886 0 -32883.58675565 0 -36536.78960631 0 50127.62542821 0 -73213.09050534 0 3
0.00250000 0.00253879 42880.34594141 0 -25376.10763561 0 19246.46861601 0 21641.52319753 0 87838.85652804 0 6
0.00350000 0.00331552 63117.89835194 0 -9938.80663766 0 32773.63857020 0 -61168.17267463 0 -67647.91860499 0 7
0.00450000 0.00420575 80348.87168122 0 -1704.80585233 0 42874.58833251 0 -26089.16535394 0 -1057.78347922 0 24
0.00550000 0.00557378 84747.68488517 0 7939.53230678 0 61176.25547174 0 -31730.40412579 0 -15246.25910553 0 45
0.00650000 0.00659388 82108.37481815 0 15293.53793251 0 79381.03976882 0 36967.17087201 0 65337.23513859 0 40
0.00750000 0.00754703 71045.46147560 0 1517.55069499 0 70492.95246715 0 22543.14260752 0 -52842.11658075 0 57
0.00850000 0.00846663 72775.62295176 0 1248.64821445 0 44178.68674965 0 53310.80809032 0 18004.04304811 0 75
0.00950000 0.00948925 82825.19712691 0 -3198.83892941 0 23913.56425032 0 36229.08969960 0 -32465.82794024 0 112
0.01050000 0.01054430 67868.92220837 0 -2901.77952685 0 -1734.69005701 0 12264.70347837 0 -2865.76125421 0 105
0.01150000 0.01145670 80443.54005841 0 2358.56019892 0 -11335.62470283 0 16699.28029148 0 -4526.68748328 0 144
0.01250000 0.01249090 65864.94213945 0 1331.07060040 0 -4726.28828279 0 -15530.37496038 0 -2281.47467353 0 169
0.01350000 0.01339930 73322.59579780 0 9044.62782996 0 6650.42581745 0 -6311.87841379 0 -7884.90145613 0 180
0.01450000 0.01448870 62828.35705793 0 11050.50126643 0 9401.57743746 0 -15660.36405375 0 4742.38744307 0 267
0.01550000 0.01550050 59832.96102475 0 4993.29739579 0 9104.31873306 0 420.98196916 0 25040.06257737 0 238
0.01650000 0.01653350 63548.16889439 0 -11825.35362956 0 20365.65920868 0 2252.53161646 0 11367.18082857 0 315
0.01750000 0.01747870 69014.13276437 0 -4046.59147915 0 25491.59198347 0 10741.18480030 0 -9417.84268262 0 297
0.01850000 0.01844180 73766.59602303 0 301.86811323 0 16468.75448876 0 -6327.09178809 0 -19314.89558339 0 388
0.01950000 0.01947590 74836.40404700 0 6995.51696507 0 22069.24710528 0 -7358.50098960 0 8749.49501192 0 399
0.02050000 0.02045430 67283.30694872 0 6388.94179453 0 22354.69163910 0 -14637.83485675 0 4953.63632829 0 462
0.02150000 0.02154770 71285.50947766 0 -2597.45667921 0 22779.09384940 0 3974.88710362 0 -3202.40421800 0 571
0.02250000 0.02255340 74115.70642456 0 -5326.09826286 0 26017.19524261 0 10495.62278047 0 -13585.18893624 0 510
0.02350000 0.02348930 75838.33871984 0 -1180.90773121 0 21735.08434225 0 5844.13912415 0 -10119.58448498 0 555
0.02450000 0.02439640 75827.48784152 0 248.50282930 0 24541.58651403 0 -390.87521075 0 -17134.75482660 0 592
0.02550000 0.02547300 72763.44339446 0 1592.25567055 0 23145.47707765 0 -1941.76467577 0 -21341.46319495 0 837
0.02650000 0.02652900 71974.09735814 0 3942.83272327 0 20217.40077936 0 2727.51220653 0 -20288.92799769 0 723
0.02750000 0.02749970 67588.68166721 0 1204.83502514 0 8175.35068077 0 -3211.88212804 0 -28177.07364499 0 826
0.02850000 0.02848090 65296.82115300 0 2130.72497113 0 14146.00218830 0 3458.61781430 0 -22807.99261718 0 831
0.02950000 0.02946900 62550.99532123 0 2658.81950335 0 14007.93029781 0 -6144.98526180 0 -30995.09103458 0 996
0.03050000 0.03053250 59363.71589893 0 1457.92622585 0 11554.08167151 0 -382.65511680 0 -32147.60932495 0 1041
0.03150000 0.03150510 59591.58434370 0 3200.20082536 0 15468.70211114 0 -1550.22512553 0 -25165.84418731 0 1036
0.03250000 0.03246190 59193.09137348 0 830.08776272 0 18045.01064994 0 -5156.18236620 0 -27880.44606310 0 1059
0.03350000 0.03345080 56616.67211143 0 3539.77795522 0 19224.65613612 0 -3254.70988044 0 -13539.01734174 0 1302
0.03450000 0.03451200 57588.26861426 0 2054.35914685 0 23488.38697728 0 -1415.50814947 0 -16712.23491152 0 1339
0.03550000 0.03553350 55551.40374062 0 982.39201953 0 25456.38199055 0 2812.80232460 0 -8821.58691881 0 1365
0.03650000 0.03647120 55231.96716961 0 2303.85184199 0 26607.68232519 0 4216.65131604 0 -9928.35436303 0 1308
0.03750000 0.03744890 51050.61442509 0 2709.91828239 0 23536.99448324 0 5771.80362611 0 -10451.57707234 0 1579
0.03850000 0.03847530 50814.44173671 0 744.09565925 0 21997.27699396 0 5996.39466274 0 -5770.70746596 0 1662
0.03950000 0.03950240 48232.04341926 0 -933.47338125 0 13781.50125527 0 7365.57620516 0 -4774.66326992 0 1683
0.04050000 0.04050350 49980.91712436 0 -1313.85313531 0 13346.13744340 0 7536.00142877 0 -6874.40787620 0 1822
0.04150000 0.04152450 49621.95235374 0 -1152.55150735 0 10430.87182493 0 2431.11714346 0 -7823.80436778 0 1887
0.04250000 0.04250150 49596.26456016 0 2495.43627833 0 7840.72288010 0 2972.88599683 0 -3288.54690509 0 1920
0.04350000 0.04349210 45898.21879398 0 3431.41311222 0 8222.03160221 0 -2113.09783001 0 -2263.05032503 0 2005
0.04450000 0.04448520 44648.59621495 0 3119.25105861 0 11172.75080475 0 -2198.12221230 0 1458.85630113 0 2151
0.04550000 0.04548030 43900.43922695 0 -114.67496091 0 17426.51058557 0 -1622.28381545 0 3244.95516228 0 2274
0.04650000 0.04648670 43141.09919089 0 1817.47782968 0 18359.46467479 0 -3117.47948664 0 1984.99103186 0 2311
0.04750000 0.04749250 42885.66065733 0 3431.29131665 0 21087.79623335 0 -1663.74967190 0 5617.85402184 0 2568
0.04850000 0.04851840 40933.38834530 0 2368.38135103 0 24181.73595743 0 -1422.76052222 0 9034.81775017 0 2493
0.04950000 0.04949480 39159.38046286 0 1561.52996917 0 20745.77211970 0 -120.21333779 0 8433.93375459 0 2644
0.05050000 0.05050630 38068.97791472 0 623.19473009 0 21305.03524629 0 2610.43344389 0 1323.43069627 0 2829
0.05150000 0.05149060 37492.22051491 0 388.42711973 0 20052.75530931 0 3189.93678025 0 -1361.36448110 0 2784
0.05250000 0.05249300 36854.12243562 0 -489.95701662 0 17758.68033013 0 3818.67874508 0 -1131.70231971 0 3055
0.05350000 0.05348950 36529.70331843 0 -446.73176776 0 14650.45730704 0 3931.04069734 0 1153.69195680 0 3009
0.05450000 0.05448610 37243.86826923 0 397.53078520 0 12658.98896516 0 2147.74313437 0 -2866.20414720 0 3336
0.05550000 0.05550870 35955.38183009 0 959.35826221 0 12042.48191926 0 1888.21891295 0 1432.23843227 0 3349
0.05650000 0.05647670 35773.57425656 0 1128.84565991 0 11318.24115287 0 2823.70856455 0 1739.31828879 0 3324
0.05750000 0.05747970 34401.49176504 0 444.18956198 0 11666.02287542 0 -537.89464692 0 2978.90934153 0 3639
0.05850000 0.05849280 33939.33292711 0 1216.06236251 0 14325.92746661 0 -477.63573356 0 4047.69871163 0 3846
0.05950000 0.05951020 33736.70938293 0 1079.51513115 0 15443.23576406 0 -1001.49177985 0 3266.83407612 0 3787
0.06050000 0.06049470 33012.80078628 0 567.28170422 0 15297.08107645 0 -1816.45917580 0 5128.37975858 0 3930
0.06150000 0.06148310 32974.37981916 0 -284.37937618 0 16602.39744932 0 -1335.00127571 0 2309.41014905 0 4083
0.06250000 0.06249100 33407.97205906 0 546.01619718 0 18096.93985334 0 1164.37675025 0 1912.12406223 0 4303
0.06350000 0.06350600 33176.33902385 0 358.29600220 0 14903.68137564 0 2756.08987688 0 -191.90110483 0 4470
0.06450000 0.06451750 32023.93145673 0 -153.25869121 0 14606.16800777 0 2402.98236609 0 -194.98364006 0 4479
0.06550000 0.06550280 32506.24192583 0 273.95810406 0 13594.15751934 0 981.11316602 0 -2982.36390688 0 4636
0.06650000 0.06648880 31401.22390893 0 1232.96980251 0 13369.05715578 0 415.05495369 0 -2630.59614739 0 4653
0.06750000 0.06749660 30235.64027527 0 1827.95224896 0 11754.26930423 0 1193.85127892 0 218.81792646 0 5220
0.06850000 0.06852730 29119.77138005 0 550.14063817 0 11241.39921863 0 689.43602055 0 645.61286615 0 5029
0.06950000 0.06949320 28633.14270427 0 -560.53976564 0 10374.33653440 0 2322.33155211 0 -567.15215802 0 5040
0.07050000 0.07048030 29505.97406972 0 -486.50466574 0 10650.55782165 0 2192.64141151 0 -1568.06264082 0 5475
0.07150000 0.07148790 29583.59106670 0 -505.87569801 0 10183.62681173 0 1621.98486268 0 -319.27491508 0 5509
0.07250000 0.07249820 29736.94276544 0 585.10925441 0 8847.31900169 0 -690.04167672 0 -1787.84828847 0 5916
0.07350000 0.07351270 28989.67156343 0 696.86112158 0 10696.39724640 0 -987.92153855 0 204.99191446 0 5721
0.07450000 0.07449140 27669.29682880 0 1675.07666019 0 9314.30537324 0 234.51183966 0 -640.32361659 0 6028
0.07550000 0.07549160 26970.74385600 0 1739.52866296 0 10310.83675157 0 720.28019580 0 322.14043274 0 6183
0.07650000 0.07648840 25232.83175246 0 575.41986297 0 7979.66948425 0 2633.12063745 0 -1011.04830340 0 6330
0.07750000 0.07749960 25054.01370664 0 146.20783477 0 8638.78283606 0 748.64306306 0 -1364.69725087 0 6583
0.07850000 0.07848650 24322.68665237 0 409.25526995 0 7265.85884784 0 497.45076606 0 -1037.33178805 0 6549
0.07950000 0.07947320 25323.95698572 0 -252.97604853 0 8016.24137313 0 412.13185993 0 -891.89680156 0 6828
0.08050000 0.08048110 24705.67836785 0 -367.32105416 0 6745.03883302 0 -230.08623143 0 634.55161366 0 7147
0.08150000 0.08149960 25132.29504311 0 330.93518034 0 7144.04113019 0 814.74705669 0 141.55967281 0 7386
0.08250000 0.08250610 24844.08242808 0 161.04253556 0 7611.43717776 0 345.80088364 0 3225.11355620 0 7227
0.08350000 0.08350160 25369.79641047 0 -196.35882280 0 6047.92526244 0 1389.84250054 0 2434.06238186 0 7798
0.08450000 0.08449610 24691.06289908 0 429.25521027 0 8170.95496782 0 617.76596923 0 1802.90665022 0 7371
0.08550000 0.08548940 24754.61804354 0 978.76251146 0 8189.49003956 0 -571.99740736 0 2591.77657657 0 8256
0.08650000 0.08650700 23753.56915669 0 761.86341889 0 8964.45312595 0 -851.39866630 0 2443.13061588 0 8037
0.08750000 0.08749060 22548.56804668 0 1263.57370830 0 8755.54050127 0 -304.33613443 0 3911.58662263 0 8155
0.08850000 0.08849210 22700.48034319 0 57.25886695 0 8436.76826974 0 1128.18132042 0 2595.41937144 0 8718
0.08950000 0.08949900 22228.57785942 0 103.06164230 0 8331.41509909 0 1186.65426779 0 1812.80530861 0 8571
0.09050000 0.09049190 21955.97722238 0 307.51167719 0 7267.78543236 0 390.01821281 0 1437.74137770 0 8932
0.09150000 0.09150830 21528.03186814 0 1018.21431202 0 7189.14978150 0 276.53795574 0 1186.87571429 0 9285
0.09250000 0.09250820 20856.82753764 0 723.36826719 0 6665.30702200 0 -70.59061037 0 621.16295849 0 9204
0.09350000 0.09350330 19997.28296196 0 371.94374977 0 7364.43575570 0 -53.93894108 0 1075.27885967 0 9349
0.09450000 0.09448040 19899.18216407 0 298.36150796 0 6561.51504915 0 181.17534378 0 -99.71946106 0 9564
0.09550000 0.09549270 19441.78442581 0 777.93489836 0 7698.72031430 0 -362.59206423 0 -820.59545866 0 10155
0.09650000 0.09649430 18910.20211127 0 703.99834215 0 7577.99875680 0 -440.87672240 0 54.73382328 0 9913
0.09750000 0.09749140 18356.69659359 0 -105.59908698 0 7855.06154074 0 -327.99437087 0 -484.49171709 0 10476
0.09850000 0.09850240 18427.78091892 0 407.05519901 0 8591.21612863 0 47.89101581 0 207.98033493 0 10575
0.09950000 0.09950330 18523.11363561 0 326.73544754 0 8163.73581204 0 612.28406122 0 618.28083234 0 10882
0.10050000 0.10051200 18070.03410403 0 19.51087573 0 7185.98309660 0 1241.80551771 0 1244.75075611 0 10875
0.10150000 0.10150300 18067.37674607 0 41.30331472 0 7227.83648442 0 1202.94165760 0 802.90077636 0 11118
0.10250000 0.10250800 18042.46401523 0 533.17008592 0 7534.60631584 0 621.52502351 0 634.65237182 0 11575
0.10350000 0.10349800 17457.29164857 0 766.43739627 0 6390.30369048 0 355.15589088 0 1165.35111484 0 11364
0.10450000 0.10450100 16530.87023099 0 224.94756548 0 6470.41196055 0 21.24037287 0 771.38561823 0 12093
0.10550000 0.10551000 16450.26370631 0 246.82094316 0 6110.79392276 0 18.42235548 0 682.33976758 0 12067
0.10650000 0.10649700 16302.22672349 0 339.04455104 0 6449.31918177 0 222.51940465 0 -318.69140356 0 12054
0.10750000 0.10749900 15898.52976060 0 429.03708547 0 5969.67714295 0 -24.86921661 0 358.20188744 0 12807
0.10850000 0.10850100 15599.02337425 0 257.99845506 0 6221.80505139 0 38.78103912 0 -286.35246446 0 12736
0.10950000 0.10950300 15646.74509422 0 102.53991436 0 6454.04706446 0 338.11890468 0 157.79723715 0 12933
0.11050000 0.11050200 15431.83126949 0 74.64695657 0 6873.55530719 0 321.63664196 0 477.40985814 0 13428
0.11150000 0.11150900 15350.67112857 0 320.44193811 0 6416.86619772 0 625.32061646 0 259.25184223 0 13453
0.11250000 0.11250000 15205.73439670 0 61.46900774 0 6001.55436610 0 493.06723266 0 986.51203160 0 13668
0.11350000 0.11349100 15038.87446168 0 157.38313220 0 5890.36608027 0 487.57757402 0 855.24740641 0 13791
0.11450000 0.11448600 14944.09536123 0 140.88315376 0 5588.06946807 0 742.66511489 0 1541.35619335 0 14205
0.11550000 0.11549300 14685.11368372 0 -86.40000792 0 5244.86061567 0 538.13934530 0 526.75256646 0 14776
0.11650000 0.11649800 14736.59999413 0 258.68051027 0 4782.24781242 0 45.31913621 0 4.98139465 0 14553
0.11750000 0.11747300 14472.19287746 0 490.41430364 0 5012.93970002 0 -363.51217442 0 -99.97977141 0 14568
0.11850000 0.11849100 13850.26039240 0 522.00032465 0 4898.98333298 0 -353.29352585 0 190.17271492 0 16015
0.11950000 0.11950300 13916.58361806 0 -21.19254043 0 4577.49838188 0 46.30700903 0 27.52734962 0 15270
0.12050000 0.12050700 13935.62801675 0 -252.54533509 0 4742.89677002 0 525.23233626 0 -818.62015591 0 15999
0.12150000 0.12150000 13986.56071091 0 -18.14920123 0 4675.66561372 0 97.37733219 0 -1108.01861693 0 15670
0.12250000 0.12250700 13986.78215741 0 167.67264366 0 4558.75293596 0 185.45258285 0 -894.94944151 0 16887
0.12350000 0.12352200 13796.55961703 0 436.45222140 0 4600.39594960 0 -13.62183833 0 -404.04241942 0 16407
0.12450000 0.12449800 13463.39336323 0 220.68361319 0 4439.42649139 0 95.62480462 0 -443.33367127 0 16306
0.12550000 0.12549900 13360.42074242 0 235.46073790 0 4773.03563817 0 59.65303575 0 -2.71073763 0 17523
0.12650000 0.12650100 13011.31034089 0 360.23255181 0 4393.12202900 0 230.97533911 0 -173.76463677 0 17154
0.12750000 0.12750600 13145.50691769 0 -120.29859469 0 4589.55614360 0 460.49577474 0 719.32465417 0 18007
0.12850000 0.12850300 13087.59865889 0 -76.82975468 0 4325.31511181 0 444.25045977 0 497.41754908 0 17496
0.12950000 0.12949900 13120.37274035 0 -24.62551474 0 4553.82575141 0 412.84048872 0 538.22349497 0 18405
0.13050000 0.13049000 13149.82512437 0 43.24484687 0 4063.36605125 0 199.85878467 0 637.75262276 0 18100
0.13150000 0.13148800 12899.03696723 0 407.55898978 0 4197.51833875 0 269.61443103 0 1212.41956764 0 19059
0.13250000 0.13249300 12543.94751029 0 449.26290121 0 4115.58313509 0 508.02151456 0 1581.34943060 0 18957
0.13350000 0.13349100 12433.22426211 0 15.36041477 0 3849.22728925 0 393.08746125 0 1852.45530378 0 19468
0.13450000 0.13450700 12282.75136782 0 -83.27362628 0 3771.15632696 0 305.32267857 0 1382.72299568 0 19953
0.13550000 0.13551000 12384.50603290 0 215.77082267 0 3968.84161427 0 -69.87688831 0 1128.03738020 0 19956
0.13650000 0.13649900 12197.49446672 0 327.10526319 0 3638.83097305 0 -145.96756532 0 870.50507001 0 19723
0.13750000 0.13749600 11888.35515778 0 148.35918748 0 3723.95500626 0 20.50151663 0 1625.08511363 0 20946
0.13850000 0.13851100 11874.51475176 0 231.82680089 0 3661.55138358 0 184.33981421 0 826.51361627 0 20955
0.13950000 0.13949800 11707.98698648 0 -18.32635842 0 3578.27642862 0 340.21157408 0 1023.46259398 0 20506
0.14050000 0.14048300 11678.31315597 0 -9.82588000 0 3056.94708686 0 461.15347084 0 481.18330643 0 21447
0.14150000 0.14148400 11529.61183366 0 311.31834246 0 3112.58551907 0 299.38016184 0 454.82563720 0 21771
0.14250000 0.14249400 11296.87156597 0 323.00296684 0 3138.93765214 0 -64.64676496 0 293.71002430 0 22470
0.14350000 0.14350900 10991.91759581 0 293.36567500 0 3256.63646496 0 -172.25658613 0 331.49876168 0 22519
0.14450000 0.14449900 10721.04424145 0 340.88477142 0 3098.75618537 0 -208.27153707 0 278.61512388 0 22218
0.14550000 0.14550500 10512.20912305 0 51.96784581 0 2968.42384993 0 13.84140253 0 10.35895708 0 23559
0.14650000 0.14650700 10459.47163993 0 118.04205489 0 2757.46284516 0 302.02312578 0 -117.96122692 0 23044
0.14750000 0.14750500 10577.66870737 0 115.18539509 0 2746.78912404 0 -75.67889724 0 -524.70307913 0 23649
0.14850000 0.14849900 10388.14372345 0 -26.47116056 0 2753.00069826 0 -79.53084832 0 -212.46130478 0 23640
0.14950000 0.14949500 10237.95870961 0 190.39859035 0 2829.30008858 0 -17.01882759 0 -74.98167295 0 24457
0.15050000 0.15050000 10306.36353234 0 220.83419681 0 3104.97883192 0 26.69050331 0 21.37955199 0 24591
0.15150000 0.15149900 9981.98870445 0 230.81146870 0 3050.60264473 0 249.53919890 0 264.15798936 0 25020
0.15250000 0.15250500 9942.81481925 0 148.28057397 0 3078.41632468 0 373.01665805 0 554.19643075 0 25297
0.15350000 0.15350100 9813.50113769 0 96.09393902 0 3059.67087876 0 257.80801108 0 582.17730280 0 25452
0.15450000 0.15450400 9688.05169749 0 37.10380336 0 2902.02311799 0 448.72146453 0 561.15538690 0 26061
0.15550000 0.15549900 9662.60749506 0 -4.10692458 0 2626.06756654 0 519.38282706 0 908.34474008 0 26128
0.15650000 0.15649500 9675.18565606 0 135.92718117 0 2383.36220651 0 52.46089644 0 743.39588832 0 26331
0.15750000 0.15749700 9587.17174607 0 103.67981020 0 2314.68057566 0 352.79527123 0 722.04401714 0 27345
0.15850000 0.15849900 9378.33662767 0 188.30592096 0 2145.75011590 0 -81.72095417 0 623.83138877 0 26980
0.15950000 0.15949700 9309.69928612 0 238.01290877 0 2294.32964265 0 -199.39485426 0 633.54513933 0 27777
0.16050000 0.16050000 9109.48950875 0 65.31497977 0 2269.56085203 0 -272.75232789 0 564.20027623 0 28224
0.16150000 0.16150500 9127.16093916 0 156.96016940 0 2491.97064066 0 66.50503324 0 486.58881541 0 28075
0.16250000 0.16249700 9050.35222189 0 71.56497496 0 2398.92989521 0 -65.27644808 0 283.84901182 0 28590
0.16350000 0.16349900 8926.68542599 0 140.00179670 0 2466.50429358 0 -61.55105367 0 124.89693119 0 29163
0.16450000 0.16449100 8815.29783831 0 195.06557526 0 2476.43616894 0 -58.84198795 0 -2.96470355 0 28996
0.16550000 0.16550500 8645.35979700 0 214.47757513 0 2452.23206688 0 -2.37887791 0 79.62850623 0 30777
0.16650000 0.16650700 8624.17843962 0 39.79626059 0 2545.77106695 0 26.19800631 0 163.58252687 0 29211
0.16750000 0.16749900 8485.26505244 0 88.87799421 0 2276.59177829 0 264.57763047 0 -182.88158903 0 30922
0.16850000 0.16850800 8497.65498392 0 49.75172000 0 2207.01328913 0 153.91195837 0 -72.04540313 0 30867
0.16950000 0.16949900 8365.38499163 0 76.22310201 0 2176.05506893 0 90.97321024 0 -196.09862317 0 30852
0.17050000 0.17049200 8297.54485747 0 214.09668716 0 2190.10584913 0 273.22290169 0 -38.33105984 0 31257
0.17150000 0.17149500 8085.93058554 0 200.99148350 0 2268.15466677 0 -139.23891352 0 183.83491620 0 32608
0.17250000 0.17250900 7949.13201240 0 238.77247025 0 2237.59505028 0 159.16356204 0 458.31341952 0 32361
0.17350000 0.17350400 7905.23024450 0 54.99535159 0 2304.15079476 0 57.83363133 0 327.90468504 0 32508
0.17450000 0.17449800 7895.30944146 0 -91.71815625 0 2318.23479193 0 83.92656128 0 515.59387751 0 32791
0.17550000 0.17549800 7990.94111092 0 -39.36654366 0 2291.20724705 0 93.11149761 0 410.55848258 0 33633
0.17650000 0.17650100 7961.33371435 0 41.94816691 0 2048.86727374 0 82.66619854 0 560.17216446 0 33984
0.17750000 0.17750300 8056.79929894 0 45.14485781 0 2044.32762057 0 34.17495200 0 560.32606977 0 34069
0.17850000 0.17849800 7916.55723278 0 36.58949387 0 2002.16420766 0 174.68142527 0 374.54131718 0 34536
