### header ###
fiducial parameters:
Omega_m = 0.31
Omega_nu = 0
Omega_de = 0.69
Omega_k = 0
H_0 = 100
w_de = -1
zeff = 0
beta = 0
fgrowth = 0
b_1 = 2
gamma = 0.55
Lx = 3500 Ly = 3500 Lz = 3500
nx = 700 ny = 700 nz = 700
xoffset = -685.467585 yoffset = -31.7331281 zoffset = 572.489161
bins = 400 dk = 0.001
kx_ny = 0.628318531 ky_ny = 0.628318531 kz_ny = 0.628318531
############################
A(data) = 8.03382344 (not used)
A(ran) = 8.03425412 (used)
Ngal = 477788
weighted Ngal = 0
Nran = 23820508
weighted Nran = 0
SN(data) = 3486.81748
SN(ran) = 69.9812671
SN(data+ran) = 3556.79875
############################
13 columns: k_central k_mean P_0(k) sigma^{lin}_{P_0(k)} P^img_1(k) sigma^{lin}_{P_1(k)} P_2(k) sigma^{lin}_{P_2(k)} P^img_3(k) sigma^{lin}_{P_3(k)} P_4(k) sigma^{lin}_{P_4(k)} N_modes
### header ###
0.00050000 0 0 0 0 0 0 0 0 0 0 0 0
0.00150000 0.00179520 13228.77080033 0 -20120.62866044 0 218.96851008 0 -20755.62648879 0 -62920.70024692 0 3
0.00250000 0.00253879 26228.78736990 0 -20633.94163904 0 -12132.38919678 0 22344.72654677 0 49397.29488317 0 6
0.00350000 0.00331552 36180.59291690 0 -17554.06376748 0 5701.30613399 0 -67953.07187700 0 -47846.28362258 0 7
0.00450000 0.00420575 42312.77857121 0 -3520.81106281 0 -6916.80380793 0 -14085.87946454 0 14587.01288583 0 24
0.00550000 0.00557378 50330.13824914 0 -5296.88946999 0 105.66042766 0 -21936.71137720 0 11394.64019412 0 45
0.00650000 0.00659388 51891.44677182 0 6765.29011512 0 6440.85992561 0 -25051.90996492 0 -1067.25696034 0 40
0.00750000 0.00754703 53928.64381520 0 5624.40883813 0 23493.25880020 0 -5680.86662238 0 -8922.24542374 0 57
0.00850000 0.00846663 53803.96943774 0 4822.39606221 0 28961.88002813 0 -7626.62840741 0 8832.74782223 0 75
0.00950000 0.00948925 45408.93276025 0 5436.58899223 0 26979.60171585 0 4889.54971224 0 15990.76222634 0 112
0.01050000 0.01054430 45929.88564296 0 -5046.01273425 0 28998.41870003 0 21183.12895004 0 -13836.19853988 0 105
0.01150000 0.01145670 58798.14154719 0 -8000.20864679 0 37248.85081540 0 13346.58033640 0 -7075.35949934 0 144
0.01250000 0.01249090 60620.53548910 0 -8058.07261629 0 25170.49456373 0 2427.72901206 0 -6949.97649309 0 169
0.01350000 0.01339930 69979.30731881 0 -6370.16313164 0 26701.46491641 0 -9140.22628244 0 -7567.54648218 0 180
0.01450000 0.01448870 77567.39296352 0 -2567.22923245 0 33525.56014863 0 1383.64199864 0 -19275.36738379 0 267
0.01550000 0.01550050 71320.60874734 0 4251.13053552 0 32068.11003276 0 -9501.99235124 0 -14230.26258017 0 238
0.01650000 0.01653350 71719.43388731 0 8302.48311434 0 19439.34851435 0 7950.47176370 0 -27808.03305878 0 315
0.01750000 0.01747870 66348.35984103 0 3525.77146433 0 28183.05270039 0 4263.66440722 0 -24541.91868378 0 297
0.01850000 0.01844180 67500.21379191 0 2067.35805619 0 18109.11941064 0 -2026.08042926 0 -28480.56606827 0 388
0.01950000 0.01947590 63745.14555292 0 914.02927164 0 23239.37039211 0 -7798.99128786 0 -28128.57686228 0 399
0.02050000 0.02045430 68688.27424495 0 1484.25621426 0 29096.63022118 0 -9257.28290042 0 -11317.79825988 0 462
0.02150000 0.02154770 66593.05821952 0 2151.38592924 0 34401.04887205 0 -1793.34016158 0 -12674.49021990 0 571
0.02250000 0.02255340 65834.71469269 0 1421.11074582 0 35397.77955222 0 10278.97060074 0 5582.46687171 0 510
0.02350000 0.02348930 64627.83128746 0 2487.85173583 0 34860.77179852 0 22446.14904210 0 776.91735171 0 555
0.02450000 0.02439640 67935.46688053 0 -6761.27086121 0 24309.84275558 0 21041.73536211 0 6838.58890542 0 592
0.02550000 0.02547300 69035.94524426 0 -7235.32137599 0 10450.82415425 0 18511.15552481 0 2518.64387115 0 837
0.02650000 0.02652900 75880.63500065 0 -3199.85758329 0 5976.43126109 0 5108.72638202 0 641.51610597 0 723
0.02750000 0.02749970 71568.07520704 0 3178.62086429 0 4300.35809166 0 -5314.14015206 0 5672.69524666 0 826
0.02850000 0.02848090 72520.51658794 0 7621.35798079 0 4622.45202064 0 -11611.98993031 0 1040.12090667 0 831
0.02950000 0.02946900 61959.73317591 0 7003.64405149 0 4439.75866113 0 -8280.03951193 0 -1561.47460755 0 996
0.03050000 0.03053250 62172.32181243 0 4884.85504652 0 14754.75860683 0 -3775.09807459 0 -8278.38973553 0 1041
0.03150000 0.03150510 56315.61559961 0 1104.58730347 0 9339.06309154 0 526.54329952 0 -4779.35793564 0 1036
0.03250000 0.03246190 57279.35075182 0 409.89857202 0 15161.99871366 0 4762.72730377 0 -6347.95204805 0 1059
0.03350000 0.03345080 58205.66144615 0 -1585.44619078 0 6736.21419014 0 7224.21583420 0 3444.87705920 0 1302
0.03450000 0.03451200 61613.39085558 0 -5145.34256020 0 7521.44132163 0 9522.32113961 0 -6640.23927861 0 1339
0.03550000 0.03553350 58203.77915093 0 4119.09306206 0 5573.01110632 0 -1504.95038935 0 -307.11860966 0 1365
0.03650000 0.03647120 58664.05569364 0 5076.99309909 0 3694.15938017 0 -2057.45939780 0 -8241.81784666 0 1308
0.03750000 0.03744890 50541.84109967 0 3393.65648459 0 8089.27442763 0 -6215.19487348 0 -1805.45328493 0 1579
0.03850000 0.03847530 48900.92256155 0 3346.75411666 0 7837.20188081 0 -1451.48213280 0 -3462.29382614 0 1662
0.03950000 0.03950240 47957.56048700 0 -1345.40926104 0 7067.13276200 0 302.38519080 0 -6247.88037634 0 1683
0.04050000 0.04050350 47520.53582641 0 -763.70474651 0 8850.61855449 0 2534.93126096 0 -7486.13167778 0 1822
0.04150000 0.04152450 48443.30337680 0 1890.37801629 0 6583.02857628 0 -2057.16044503 0 -10245.74255396 0 1887
0.04250000 0.04250150 46531.66649686 0 4537.84838670 0 9509.70976164 0 -1974.95950558 0 -5319.01197498 0 1920
0.04350000 0.04349210 42341.89878548 0 3955.11193149 0 10262.74964488 0 -3496.76197330 0 -2072.78349535 0 2005
0.04450000 0.04448520 38266.28674299 0 3676.20006931 0 13960.31930109 0 1033.44318758 0 -945.07385597 0 2151
0.04550000 0.04548030 38794.54736008 0 -458.81388860 0 15952.00908947 0 1262.10108910 0 -5986.16383460 0 2274
0.04650000 0.04648670 37311.18800413 0 58.67922478 0 15424.74498161 0 1805.80759932 0 -3541.81526299 0 2311
0.04750000 0.04749250 39041.68165004 0 1444.99375046 0 18321.81877041 0 -788.72820060 0 -5533.18395395 0 2568
0.04850000 0.04851840 37886.28455521 0 -164.26568931 0 18059.73684195 0 -2753.97506284 0 -1583.76319741 0 2493
0.04950000 0.04949480 39293.13414667 0 -637.39498667 0 15722.25834949 0 3214.47305205 0 -516.44091035 0 2644
0.05050000 0.05050630 39483.46741030 0 -1161.50901813 0 17461.16696225 0 2143.84567604 0 -2434.51634718 0 2829
0.05150000 0.05149060 40339.80101177 0 -699.52290846 0 14914.53225396 0 891.20478126 0 -2426.27853751 0 2784
0.05250000 0.05249300 40870.16537059 0 673.09105466 0 16094.84207963 0 -294.78625427 0 -4544.51392624 0 3055
0.05350000 0.05348950 38960.74295561 0 1330.07409116 0 14023.76372230 0 -1329.49833027 0 628.76743117 0 3009
0.05450000 0.05448610 39149.19392403 0 1420.57927423 0 16188.40322435 0 -1803.05059044 0 -2225.58157785 0 3336
0.05550000 0.05550870 37296.90470511 0 1483.12683713 0 15488.74301906 0 -824.41762518 0 -3509.40656824 0 3349
0.05650000 0.05647670 36276.14708008 0 2851.13471313 0 17862.09584394 0 227.76768661 0 -3813.82906681 0 3324
0.05750000 0.05747970 35170.57544694 0 511.15055356 0 17277.25564702 0 1275.03356449 0 -3020.89559725 0 3639
0.05850000 0.05849280 34455.74615665 0 -77.64766732 0 16563.86575895 0 3198.25209619 0 -3496.49623751 0 3846
0.05950000 0.05951020 34390.41944022 0 -470.66681232 0 15835.63895563 0 2979.04220943 0 -5320.59531743 0 3787
0.06050000 0.06049470 34359.08476098 0 378.10882023 0 16687.87579692 0 1138.03568951 0 -3753.06414820 0 3930
0.06150000 0.06148310 34166.31558589 0 1243.45529411 0 14193.61318502 0 674.05877584 0 -4156.11891625 0 4083
0.06250000 0.06249100 33043.36040278 0 1198.33557047 0 14744.01845176 0 -80.76463748 0 -23.56877206 0 4303
0.06350000 0.06350600 31989.38580330 0 1131.33693299 0 12584.25077263 0 1991.82265628 0 -532.49467411 0 4470
0.06450000 0.06451750 31397.90221148 0 -65.97599756 0 13075.41910159 0 2896.42052163 0 -1012.81987537 0 4479
0.06550000 0.06550280 31082.00878441 0 254.78748087 0 11071.98157658 0 2474.87497114 0 -1240.10037969 0 4636
0.06650000 0.06648880 30168.65271012 0 -37.56485497 0 10524.63227149 0 1196.70793872 0 -2169.90992866 0 4653
0.06750000 0.06749660 30357.43584828 0 136.84064797 0 8829.95759637 0 1554.60976616 0 -1736.33983341 0 5220
0.06850000 0.06852730 30617.30331177 0 537.41189356 0 8933.83814782 0 -134.42134500 0 -2636.51984117 0 5029
0.06950000 0.06949320 29367.34856299 0 994.83841986 0 8677.30345410 0 -320.89368896 0 -1411.18994279 0 5040
0.07050000 0.07048030 28683.07888920 0 1153.18262986 0 9239.73326559 0 188.98244000 0 -1504.82859378 0 5475
0.07150000 0.07148790 27641.83746325 0 868.66263516 0 7591.50699308 0 189.83279455 0 -1202.55412623 0 5509
0.07250000 0.07249820 27467.78051711 0 -79.01399220 0 7357.06158737 0 882.46982421 0 -1077.39810264 0 5916
0.07350000 0.07351270 27095.97184969 0 -57.38387350 0 7538.04980886 0 2377.74853783 0 1026.24949814 0 5721
0.07450000 0.07449140 27417.73360892 0 83.94959171 0 7378.76334402 0 1200.05178082 0 -159.05837495 0 6028
0.07550000 0.07549160 27179.78934857 0 26.90165255 0 6383.82638046 0 451.16734108 0 -419.88248731 0 6183
0.07650000 0.07648840 26315.70511972 0 1146.19599290 0 6975.36533390 0 -143.74977866 0 1610.27034303 0 6330
0.07750000 0.07749960 26481.67926876 0 746.07428370 0 7494.69058487 0 -1271.50149287 0 1239.07065348 0 6583
0.07850000 0.07848650 25605.85837560 0 111.23921852 0 7938.70188242 0 143.21498537 0 683.20340891 0 6549
0.07950000 0.07947320 25850.66747734 0 317.69378709 0 7712.76002217 0 -814.69944569 0 -1701.63916743 0 6828
0.08050000 0.08048110 25199.28260826 0 874.31394975 0 8615.39808604 0 -804.76203417 0 -2147.13415651 0 7147
0.08150000 0.08149960 24257.13848944 0 735.50685689 0 8496.39273889 0 145.91441816 0 -2275.55097975 0 7386
0.08250000 0.08250610 23790.10782859 0 915.73219520 0 7984.49701787 0 -5.70261267 0 -3630.00633017 0 7227
0.08350000 0.08350160 22977.06701716 0 386.28905381 0 7033.41753292 0 1183.60937846 0 -3590.12381617 0 7798
0.08450000 0.08449610 22574.14511701 0 379.07986312 0 6275.42832049 0 1263.25261088 0 -4073.71867495 0 7371
0.08550000 0.08548940 22343.84076078 0 149.28372660 0 6312.89706768 0 -78.78457363 0 -2968.60100713 0 8256
0.08650000 0.08650700 22316.93501147 0 108.25101950 0 6272.66023929 0 1100.86921679 0 -1559.59231233 0 8037
0.08750000 0.08749060 22046.54883940 0 546.01508994 0 6926.77997260 0 -365.14977126 0 -1729.61893225 0 8155
0.08850000 0.08849210 21514.19146212 0 417.56283526 0 6554.18517012 0 840.66072569 0 -1394.24928581 0 8718
0.08950000 0.08949900 21588.04386866 0 267.13976643 0 6714.50136117 0 799.35541796 0 -414.29760667 0 8571
0.09050000 0.09049190 21042.17825510 0 304.53432904 0 5841.09423483 0 491.51046379 0 601.20841470 0 8932
0.09150000 0.09150830 21192.31897964 0 7.94503525 0 5378.41499763 0 1421.78615764 0 -53.96894708 0 9285
0.09250000 0.09250820 20617.99749130 0 383.98158132 0 5544.57737619 0 760.55467010 0 439.87356977 0 9204
0.09350000 0.09350330 20469.29616898 0 761.55892996 0 4812.51954848 0 347.06977207 0 -360.86367433 0 9349
0.09450000 0.09448040 19449.75649968 0 457.58928948 0 5609.81551402 0 -414.51351700 0 48.21809229 0 9564
0.09550000 0.09549270 19310.02376047 0 618.62850334 0 5540.72420715 0 -760.69085969 0 -416.55303923 0 10155
0.09650000 0.09649430 18708.79652282 0 689.94091856 0 5898.55960064 0 -613.51862543 0 53.47844309 0 9913
0.09750000 0.09749140 18460.33355389 0 538.03415822 0 6378.79954500 0 -659.10560118 0 246.16878323 0 10476
0.09850000 0.09850240 18130.04610455 0 -90.20645174 0 6199.26179806 0 547.41795350 0 -338.11890468 0 10575
0.09950000 0.09950330 17792.67236732 0 228.00574160 0 5672.40736622 0 852.00542970 0 -1280.61401620 0 10882
0.10050000 0.10051200 17694.46084618 0 439.60672674 0 5129.91881173 0 405.85495899 0 -1763.88777756 0 10875
0.10150000 0.10150300 17080.27898849 0 329.31529922 0 4939.79592227 0 468.29512034 0 -1512.67887207 0 11118
0.10250000 0.10250800 16943.31433049 0 491.09414438 0 4498.55270592 0 0.56437743 0 -1305.89213376 0 11575
0.10350000 0.10349800 16416.49311561 0 379.72870135 0 4591.56023439 0 196.58912716 0 -683.84560375 0 11364
0.10450000 0.10450100 16329.46464254 0 254.21061274 0 5163.36830500 0 -195.01242810 0 -757.89066874 0 12093
0.10550000 0.10551000 16158.61867059 0 -11.97505146 0 4830.57851025 0 352.41881219 0 -963.07191996 0 12067
0.10650000 0.10649700 16125.84458912 0 124.06207790 0 5231.72883843 0 -337.22536807 0 -610.56342194 0 12054
0.10750000 0.10749900 16196.04312847 0 542.11873884 0 5698.88129486 0 -274.66119668 0 -1098.94484674 0 12807
0.10850000 0.10850100 15388.31703295 0 370.85976917 0 5239.93343113 0 233.60280179 0 -346.40100365 0 12736
0.10950000 0.10950300 15217.91395400 0 172.50682067 0 4770.19005069 0 690.87985171 0 -521.65486811 0 12933
0.11050000 0.11050200 15118.70592362 0 -378.45427677 0 3947.60489527 0 1350.21465001 0 -944.00426939 0 13428
0.11150000 0.11150900 15600.79494622 0 -89.69092430 0 3569.41856876 0 1167.34413331 0 -1576.98693462 0 13453
0.11250000 0.11250000 14957.71432076 0 350.51437232 0 3479.84346098 0 593.50096939 0 -220.18535858 0 13668
0.11350000 0.11349100 14903.90282214 0 592.91192171 0 2695.46889850 0 282.82482177 0 204.14155991 0 13791
0.11450000 0.11448600 14473.85372618 0 298.38918877 0 3229.06637616 0 -281.13186331 0 1139.97334635 0 14205
0.11550000 0.11549300 14396.34745245 0 214.75549049 0 3634.33560917 0 115.76669214 0 931.79813851 0 14776
0.11650000 0.11649800 14427.34996194 0 -56.00714063 0 4168.26525658 0 -73.77645039 0 1139.07648804 0 14553
0.11750000 0.11747300 14206.78925156 0 191.39177789 0 4272.51119475 0 -18.99977722 0 1292.48354841 0 14568
0.11850000 0.11849100 14263.70100112 0 304.31509701 0 4740.09547184 0 -322.28990912 0 1376.93216980 0 16015
0.11950000 0.11950300 14115.55329505 0 69.93822899 0 4889.35041039 0 -237.29320765 0 1511.69343516 0 15270
0.12050000 0.12050700 13949.68986927 0 422.83769080 0 4956.62585599 0 -192.04061612 0 1505.83617534 0 15999
0.12150000 0.12150000 13965.41257051 0 169.80517342 0 4731.25975663 0 -151.58012677 0 1514.46151637 0 15670
0.12250000 0.12250700 13669.44932811 0 -121.19766746 0 5090.54562467 0 238.06937762 0 1107.26569884 0 16887
0.12350000 0.12352200 13887.79557353 0 21.60343440 0 4659.12356044 0 107.43388193 0 782.08037678 0 16407
0.12450000 0.12449800 14017.34177391 0 -27.98375085 0 5015.08773103 0 153.93188856 0 136.62916656 0 16306
0.12550000 0.12549900 13873.29082802 0 252.64387878 0 4894.11151006 0 -108.67143567 0 1.48643746 0 17523
0.12650000 0.12650100 13753.70971998 0 275.43293772 0 4646.86649686 0 -340.51938471 0 586.86975406 0 17154
0.12750000 0.12750600 13531.70960736 0 147.29070813 0 4824.92055227 0 176.77409466 0 147.25970562 0 18007
0.12850000 0.12850300 13410.13548086 0 89.14483724 0 4634.68693956 0 211.00307960 0 310.73483094 0 17496
0.12950000 0.12949900 13285.79327314 0 244.97075768 0 4870.01813126 0 307.81948782 0 -23.63166286 0 18405
0.13050000 0.13049000 13033.45499052 0 275.25578053 0 4401.12731984 0 -58.63161378 0 -159.20785133 0 18100
0.13150000 0.13148800 12735.60945290 0 355.26329243 0 4701.92916819 0 -244.72052314 0 74.08946501 0 19059
0.13250000 0.13249300 12495.67217408 0 248.74088428 0 4775.06187361 0 -99.63907598 0 292.14993373 0 18957
0.13350000 0.13349100 12402.22175261 0 88.75730587 0 4353.26165965 0 686.08996399 0 474.52994645 0 19468
0.13450000 0.13450700 12124.52784616 0 26.73556768 0 3798.79284970 0 569.91138137 0 173.54208305 0 19953
0.13550000 0.13551000 12190.85107183 0 176.28248344 0 3759.22036080 0 933.37262310 0 -334.13508221 0 19956
0.13650000 0.13649900 11758.36606441 0 159.10709318 0 3522.43869456 0 325.87844960 0 21.24513397 0 19723
0.13750000 0.13749600 11602.57845421 0 439.48160947 0 3298.16875535 0 552.65959207 0 165.91878741 0 20946
0.13850000 0.13851100 11360.53743368 0 116.57275739 0 2873.54509856 0 161.17097453 0 86.23480883 0 20955
0.13950000 0.13949800 11349.68655535 0 40.08425175 0 2591.45547915 0 80.75589034 0 -63.45294690 0 20506
0.14050000 0.14048300 11292.88552903 0 176.35998971 0 2894.23927365 0 -103.66807354 0 36.27227177 0 21447
0.14150000 0.14148400 11098.45550522 0 333.11421387 0 3111.67758843 0 -359.67007771 0 394.43496318 0 21771
0.14250000 0.14249400 10863.15753050 0 255.10857829 0 3088.37034469 0 -315.31766619 0 78.82731280 0 22470
0.14350000 0.14350900 10796.22532697 0 117.14630381 0 3452.17372126 0 16.84598860 0 418.73096553 0 22519
0.14450000 0.14449900 10677.79574071 0 46.24710775 0 3478.53692665 0 -103.93591307 0 45.26311024 0 22218
0.14550000 0.14550500 10791.56387822 0 -64.16002556 0 3790.94257141 0 169.92586176 0 272.97155992 0 23559
0.14650000 0.14650700 10771.03578801 0 92.33676704 0 3764.57936601 0 181.88729426 0 358.58720434 0 23044
0.14750000 0.14750500 10719.88164734 0 185.59098691 0 3607.98347610 0 325.92495336 0 408.11371326 0 23649
0.14850000 0.14849900 10570.52705787 0 114.82997346 0 3337.28727894 0 314.59685784 0 910.85815781 0 23640
0.14950000 0.14949500 10259.23971791 0 260.24392254 0 3198.34067479 0 664.13465111 0 809.97377746 0 24457
0.15050000 0.15050000 10259.38365814 0 94.83866956 0 3012.89030640 0 723.10917479 0 872.50362464 0 24591
0.15150000 0.15149900 10028.20458825 0 100.19546030 0 2622.46906097 0 307.14850493 0 1109.03727081 0 25020
0.15250000 0.15250500 9917.14917032 0 178.01751674 0 2442.98667566 0 153.84109550 0 1071.16106207 0 25297
0.15350000 0.15350100 9837.91561391 0 -0.97488277 0 2413.55643629 0 52.37984702 0 1048.66984867 0 25452
0.15450000 0.15450400 9813.89974138 0 70.68948623 0 2653.70408928 0 -389.94845716 0 974.97688360 0 26061
0.15550000 0.15549900 9804.27789112 0 219.48448042 0 2492.86749897 0 -31.93967106 0 892.48252754 0 26128
0.15650000 0.15649500 9650.74903518 0 265.76679816 0 2633.87355553 0 -175.87391465 0 608.19283720 0 26331
0.15750000 0.15749700 9362.06031018 0 224.49802909 0 2650.29381324 0 100.46440707 0 899.68618207 0 27345
0.15850000 0.15849900 9156.32544273 0 223.23246237 0 2566.78633946 0 430.62485685 0 594.17305951 0 26980
0.15950000 0.15949700 9030.77635161 0 86.52745038 0 2415.83733521 0 60.25935625 0 547.79551978 0 27777
0.16050000 0.16050000 9048.20419087 0 -35.16935749 0 2483.31208265 0 268.70096423 0 432.82935672 0 28224
0.16150000 0.16150500 9032.68079148 0 98.37561300 0 2545.43889721 0 -59.68857791 0 520.91745128 0 28075
0.16250000 0.16249700 8823.03739336 0 212.01066116 0 2553.42204340 0 -103.25496510 0 776.39805968 0 28590
0.16350000 0.16349900 8833.68896984 0 70.04972730 0 2836.36423182 0 65.38539975 0 822.75234753 0 29163
0.16450000 0.16449100 8774.51846601 0 68.29421020 0 2712.73065289 0 143.81178367 0 789.83654031 0 28996
0.16550000 0.16550500 8774.30809184 0 -13.28070000 0 2627.19694367 0 259.84642608 0 623.43278508 0 30777
0.16650000 0.16650700 8889.73707807 0 -56.20998562 0 2814.47424565 0 -147.91518725 0 401.80913151 0 29211
0.16750000 0.16749900 8657.16289525 0 257.35515299 0 2706.87339306 0 -172.06724938 0 483.00248940 0 30922
0.16850000 0.16850800 8644.91690400 0 206.19990510 0 2697.77194206 0 -324.00833394 0 192.40821730 0 30867
0.16950000 0.16949900 8286.31752010 0 171.28443601 0 2578.70016096 0 -142.24172802 0 81.77487639 0 30852
0.17050000 0.17049200 8290.20390611 0 207.78324755 0 2593.53707622 0 140.55762741 0 113.60426710 0 31257
0.17150000 0.17149500 8147.07196318 0 50.20944991 0 2499.11229017 0 401.26769482 0 -163.52052185 0 32608
0.17250000 0.17250900 8049.08188854 0 144.17827763 0 2281.85113258 0 432.11297730 0 -22.32690010 0 32361
0.17350000 0.17350400 7996.22260985 0 66.37371546 0 2141.36547528 0 267.66459463 0 280.69782817 0 32508
0.17450000 0.17449800 7928.95823658 0 -37.74566603 0 2168.01656112 0 80.87635724 0 326.66347743 0 32791
0.17550000 0.17549800 8033.96816516 0 -2.34900478 0 2158.95939941 0 -91.69401858 0 373.86701259 0 33633
0.17650000 0.17650100 8099.88171481 0 47.10421641 0 2241.63644883 0 -58.88428423 0 409.47782368 0 33984
0.17750000 0.17750300 8044.15470399 0 118.54363121 0 2214.57568698 0 -205.70940111 0 495.61608183 0 34069
0.17850000 0.17849800 8054.07550703 0 -55.86131811 0 2177.07372282 0 -31.37210369 0 230.89118944 0 34536
