### header ###
fiducial parameters:
Omega_m = 0.31
Omega_nu = 0
Omega_de = 0.69
Omega_k = 0
H_0 = 100
w_de = -1
zeff = 0
beta = 0
fgrowth = 0
b_1 = 2
gamma = 0.55
Lx = 3500 Ly = 3500 Lz = 3500
nx = 700 ny = 700 nz = 700
xoffset = -685.467585 yoffset = -31.7331281 zoffset = 572.489161
bins = 400 dk = 0.001
kx_ny = 0.628318531 ky_ny = 0.628318531 kz_ny = 0.628318531
############################
A(data) = 7.99889391 (not used)
A(ran) = 7.99558826 (used)
Ngal = 475414
weighted Ngal = 0
Nran = 23820508
weighted Nran = 0
SN(data) = 3490.01196
SN(ran) = 69.6444735
SN(data+ran) = 3559.65643
############################
13 columns: k_central k_mean P_0(k) sigma^{lin}_{P_0(k)} P^img_1(k) sigma^{lin}_{P_1(k)} P_2(k) sigma^{lin}_{P_2(k)} P^img_3(k) sigma^{lin}_{P_3(k)} P_4(k) sigma^{lin}_{P_4(k)} N_modes
### header ###
0.00050000 0 0 0 0 0 0 0 0 0 0 0 0
0.00150000 0.00179520 20676.01647335 0 -15274.93642681 0 17319.99482082 0 -14474.85023542 0 -62885.37953075 0 3
0.00250000 0.00253879 46273.45988209 0 -17829.98610196 0 12971.11780180 0 -12520.14201193 0 4567.05717957 0 6
0.00350000 0.00331552 48196.72270309 0 -7711.87423619 0 20687.08879817 0 -33308.87475193 0 49687.05762368 0 7
0.00450000 0.00420575 45320.68633144 0 14658.09721116 0 14946.64199594 0 -8411.72267100 0 35755.85853685 0 24
0.00550000 0.00557378 40264.61992626 0 631.03615053 0 21254.21327538 0 -5970.46327801 0 2781.65587489 0 45
0.00650000 0.00659388 49550.97875165 0 -12760.63290699 0 18313.62525004 0 -934.43888798 0 -1122.06939712 0 40
0.00750000 0.00754703 51278.37214661 0 -6668.52906853 0 18108.78724090 0 871.72634744 0 -16196.92891446 0 57
0.00850000 0.00846663 55755.46668703 0 -2407.48880229 0 18095.27900462 0 -5368.51633924 0 -980.25506084 0 75
0.00950000 0.00948925 56538.28005171 0 -6828.78989795 0 17606.98948012 0 -8690.15842321 0 -13178.17027590 0 112
0.01050000 0.01054430 62338.18523821 0 -2423.37758841 0 6489.81067363 0 -949.04882058 0 -6331.47642872 0 105
0.01150000 0.01145670 70712.73811480 0 -6153.34486704 0 15812.82996650 0 10211.08617728 0 -10243.12948530 0 144
0.01250000 0.01249090 66744.63834629 0 3868.91388278 0 3790.98686071 0 2681.65063713 0 -9896.79823730 0 169
0.01350000 0.01339930 66283.36529434 0 8757.10169907 0 10045.18953452 0 5669.06352412 0 -18714.33268523 0 180
0.01450000 0.01448870 64349.47304152 0 -493.42376152 0 13928.65245211 0 -116.64804920 0 -6492.47910391 0 267
0.01550000 0.01550050 69277.21120206 0 -6102.02464150 0 13892.44594996 0 -15455.96893760 0 -706.95243842 0 238
0.01650000 0.01653350 68518.20333574 0 5139.07562435 0 16094.06701690 0 -11329.86709393 0 -14655.10768346 0 315
0.01750000 0.01747870 77135.35084910 0 604.97743407 0 29622.01203382 0 -14238.23465404 0 -2576.82893807 0 297
0.01850000 0.01844180 78559.25182078 0 194.47652758 0 38296.73563624 0 -24345.38491825 0 -26026.16382572 0 388
0.01950000 0.01947590 78650.15560754 0 3852.40504648 0 49715.18132871 0 -12116.55577229 0 -27337.56997724 0 399
0.02050000 0.02045430 80909.46348678 0 144.30339490 0 53660.36138485 0 -7787.87467374 0 -16395.34497521 0 462
0.02150000 0.02154770 77720.74466226 0 -2442.85380776 0 54934.89669472 0 12215.43163292 0 -18460.44427714 0 571
0.02250000 0.02255340 84064.07955086 0 22.88494527 0 53390.63955226 0 27553.25886470 0 -16405.19934430 0 510
0.02350000 0.02348930 80074.05657922 0 1479.87157364 0 40448.08834850 0 21390.40287065 0 -22669.36711045 0 555
0.02450000 0.02439640 75193.81869215 0 4755.70744983 0 34374.47529248 0 17282.12746994 0 -13829.77659148 0 592
0.02550000 0.02547300 68387.88207262 0 6273.68996549 0 22135.79177744 0 9594.05873211 0 -6480.50992078 0 837
0.02650000 0.02652900 65755.10467725 0 2594.25677733 0 18933.34327014 0 -457.23940401 0 -9696.41130273 0 723
0.02750000 0.02749970 64859.13215292 0 -488.57297602 0 16555.89368508 0 -2789.07433252 0 -3961.13527620 0 826
0.02850000 0.02848090 62621.52603032 0 -1112.81293357 0 19478.98743720 0 5493.61146505 0 -13746.62343209 0 831
0.02950000 0.02946900 63218.32433805 0 2494.07438237 0 15961.86345856 0 -1268.21301240 0 -4988.73559796 0 996
0.03050000 0.03053250 64099.01705412 0 938.41938875 0 14234.13789386 0 3591.93967744 0 -10787.44497339 0 1041
0.03150000 0.03150510 61548.28558565 0 -1686.84654147 0 12729.07678126 0 -3087.31847383 0 -4238.40843430 0 1036
0.03250000 0.03246190 63562.23074691 0 1904.26271161 0 16760.95314072 0 4959.43822649 0 -12380.96288896 0 1059
0.03350000 0.03345080 60238.42955960 0 2695.38031990 0 16393.46267999 0 291.84323034 0 1902.55757359 0 1302
0.03450000 0.03451200 56609.80727004 0 4352.64160946 0 11996.64249451 0 6109.01127847 0 -3603.42167828 0 1339
0.03550000 0.03553350 54553.56582797 0 2799.68161969 0 9108.78087996 0 5310.81845461 0 2931.97375663 0 1365
0.03650000 0.03647120 48924.50661342 0 3057.79965587 0 8001.40445787 0 2863.71287412 0 -3238.94288990 0 1308
0.03750000 0.03744890 47406.60160403 0 3345.85725835 0 5016.48284396 0 700.03002094 0 40.73408650 0 1579
0.03850000 0.03847530 45320.35416170 0 327.33003138 0 4997.99206151 0 -259.93389744 0 -1578.20489035 0 1662
0.03950000 0.03950240 44829.62872574 0 -273.56060760 0 4468.79029681 0 -4155.08919004 0 -2453.41680564 0 1683
0.04050000 0.04050350 46162.51518740 0 -295.81044432 0 7598.88116141 0 -2477.00085750 0 -1541.44477195 0 1822
0.04150000 0.04152450 45900.76542869 0 483.95692380 0 10258.69717400 0 -3164.33756527 0 1169.92398499 0 1887
0.04250000 0.04250150 46530.44854113 0 881.37920021 0 8478.53307896 0 -99.49203551 0 752.56598774 0 1920
0.04350000 0.04349210 47727.69902377 0 -478.86476162 0 16447.71707160 0 443.07347164 0 2435.75644755 0 2005
0.04450000 0.04448520 46478.51933773 0 2619.00342330 0 21346.11357137 0 -5784.92433102 0 -1223.28151829 0 2151
0.04550000 0.04548030 44954.41382644 0 4986.43255440 0 24109.76584611 0 -2098.29413173 0 3524.58672557 0 2274
0.04650000 0.04648670 40843.48106777 0 1828.05189988 0 25659.55915097 0 -7381.90788427 0 3814.34946607 0 2311
0.04750000 0.04749250 41302.53965476 0 146.13697189 0 28355.89169081 0 1792.10006120 0 3725.91480775 0 2568
0.04850000 0.04851840 41195.80244350 0 -346.32128291 0 29864.16377760 0 2283.83307872 0 -1837.14227856 0 2493
0.04950000 0.04949480 41482.24348656 0 1576.68798185 0 25105.72146354 0 3336.61186712 0 -3226.54188610 0 2644
0.05050000 0.05050630 39745.10644576 0 397.66143863 0 19779.04743979 0 4387.45299869 0 -4458.99128934 0 2829
0.05150000 0.05149060 38844.48354502 0 -869.25943347 0 18592.20494248 0 6210.83237750 0 -3614.84831749 0 2784
0.05250000 0.05249300 38530.91530615 0 575.27260105 0 14978.53029142 0 3370.00599878 0 -9098.62755810 0 3055
0.05350000 0.05348950 37043.23774352 0 1316.77622906 0 13060.13929334 0 3892.29863280 0 -7569.30698182 0 3009
0.05450000 0.05448610 36176.38543347 0 1187.01965451 0 10362.77702729 0 397.51639117 0 -6600.89930853 0 3336
0.05550000 0.05550870 35039.81129083 0 1078.16873645 0 12124.19567642 0 246.43341179 0 -5546.18286328 0 3349
0.05650000 0.05647670 34628.47442382 0 896.95131784 0 9857.31432700 0 164.67204363 0 -4314.24278699 0 3324
0.05750000 0.05747970 34645.85797379 0 -415.59306867 0 12175.12837058 0 405.95793162 0 1514.83797541 0 3639
0.05850000 0.05849280 35538.73024716 0 -2125.33274894 0 11707.76553999 0 3398.37329496 0 2743.29026939 0 3846
0.05950000 0.05951020 36377.56957542 0 -156.86605464 0 12864.93420679 0 3205.29409478 0 629.75286808 0 3787
0.06050000 0.06049470 37273.09920675 0 1187.88329584 0 14070.93182603 0 1504.52964101 0 3198.03064969 0 3930
0.06150000 0.06148310 35895.48055282 0 2797.46715473 0 14640.93510770 0 -404.22289832 0 9509.54367677 0 4083
0.06250000 0.06249100 34119.14748216 0 1631.51813435 0 14881.75817250 0 1729.99539129 0 9889.50157524 0 4303
0.06350000 0.06350600 32447.33715779 0 1087.11185320 0 15633.90119743 0 554.13774743 0 10997.57555380 0 4470
0.06450000 0.06451750 32354.99396881 0 1209.13108717 0 14815.43494684 0 889.67347874 0 8666.98404737 0 4479
0.06550000 0.06550280 31646.47590366 0 141.04480970 0 15128.22812296 0 2002.79533017 0 9234.91680429 0 4636
0.06650000 0.06648880 31424.25434455 0 -1240.82008080 0 11635.79542867 0 1803.50455576 0 10026.32229303 0 4653
0.06750000 0.06749660 33082.99932563 0 -1359.59290913 0 9940.86609008 0 2841.49071821 0 4813.71535956 0 5220
0.06850000 0.06852730 33595.75868798 0 -259.22748312 0 9160.18968409 0 813.76161978 0 3196.49159654 0 5029
0.06950000 0.06949320 32893.99474098 0 1084.94057031 0 7398.29492500 0 340.64450198 0 1344.70063225 0 5040
0.07050000 0.07048030 31525.67683989 0 2447.09450817 0 7310.69069103 0 -2832.52213511 0 -17.90262055 0 5475
0.07150000 0.07148790 29108.92050172 0 1850.75016576 0 8966.91118206 0 -1830.90855969 0 113.67512998 0 5509
0.07250000 0.07249820 27851.87946506 0 1416.10605501 0 10259.39473046 0 -690.90199636 0 -1520.27448690 0 5916
0.07350000 0.07351270 26990.23114768 0 646.90500646 0 9381.13792585 0 -837.70330773 0 -2242.25649902 0 5721
0.07450000 0.07449140 26442.70468539 0 325.30047424 0 10309.57450654 0 324.33828922 0 -2747.11022146 0 6028
0.07550000 0.07549160 26147.18433599 0 505.38740849 0 9287.45498556 0 2085.01841427 0 -3612.47883998 0 6183
0.07650000 0.07648840 25905.91837819 0 297.47793644 0 8824.47679559 0 1354.85395411 0 -1771.87092375 0 6330
0.07750000 0.07749960 25875.35876169 0 400.88459238 0 8508.52800689 0 1697.92993861 0 -1839.69998559 0 6583
0.07850000 0.07848650 25013.93189080 0 673.53616211 0 7684.72489573 0 1174.44149351 0 239.41466509 0 6549
0.07950000 0.07947320 24455.66527344 0 1069.77702147 0 8248.91520687 0 461.79677291 0 1906.86470794 0 6828
0.08050000 0.08048110 24026.83413321 0 278.67602166 0 7680.56170160 0 428.24762871 0 2570.01945831 0 7147
0.08150000 0.08149960 23604.20349489 0 154.64273181 0 8584.58380607 0 458.92461185 0 3237.37061978 0 7386
0.08250000 0.08250610 23497.68773013 0 253.09452240 0 7609.10091722 0 998.38488550 0 3221.47076134 0 7227
0.08350000 0.08350160 23040.84360811 0 92.78840717 0 7818.04675887 0 526.83782336 0 2039.73260577 0 7798
0.08450000 0.08449610 22903.76822686 0 295.61667864 0 6733.86685728 0 1198.95562066 0 614.43209223 0 7371
0.08550000 0.08548940 22836.66993846 0 79.95015726 0 7046.87040758 0 445.11520834 0 562.02677886 0 8256
0.08650000 0.08650700 22017.76079487 0 637.08053265 0 6846.12915862 0 -324.27406973 0 -785.32567518 0 8037
0.08750000 0.08749060 22344.50510027 0 226.81546668 0 6722.00839740 0 -557.04201823 0 -996.70410659 0 8155
0.08850000 0.08849210 21497.36152839 0 831.62903034 0 6759.63215713 0 -1098.38237264 0 -1297.93113222 0 8718
0.08950000 0.08949900 21313.78238290 0 646.42336033 0 7154.49340482 0 -562.40434514 0 -338.74670550 0 8571
0.09050000 0.09049190 20793.71528617 0 158.63762661 0 7780.99876003 0 526.21555870 0 -1166.05974363 0 8932
0.09150000 0.09150830 20549.57052392 0 325.71900812 0 6614.86151013 0 1025.77228094 0 -614.09327909 0 9285
0.09250000 0.09250820 20209.53942874 0 55.20185045 0 6560.67355247 0 1742.17494859 0 -1306.45682233 0 9204
0.09350000 0.09350330 20229.35889016 0 154.17326524 0 6189.10847620 0 128.97265395 0 -529.49739578 0 9349
0.09450000 0.09448040 19728.66836186 0 334.95443425 0 5744.25568196 0 1575.18214568 0 -253.09009347 0 9564
0.09550000 0.09549270 19217.34840174 0 763.92397854 0 5382.32352829 0 -296.17029488 0 -64.30440868 0 10155
0.09650000 0.09649430 18794.60704016 0 739.20390615 0 5605.04334202 0 -143.03672094 0 316.54115808 0 9913
0.09750000 0.09749140 18518.57398243 0 521.67036937 0 6337.01259113 0 -768.96410080 0 725.35796396 0 10476
0.09850000 0.09850240 18241.98730846 0 413.97429478 0 6069.93704418 0 14.34209306 0 1716.56466128 0 10575
0.09950000 0.09950330 17855.89534204 0 350.61623771 0 7058.69565049 0 -177.27567097 0 670.81126298 0 10882
0.10050000 0.10051200 17745.50426360 0 195.17186958 0 7006.29033712 0 43.50504651 0 955.22164166 0 10875
0.10150000 0.10150300 17447.43727948 0 442.02713695 0 7305.88530206 0 337.87642077 0 793.44611820 0 11118
0.10250000 0.10250800 17021.37422046 0 415.48013096 0 6814.91627495 0 448.62402807 0 963.10845863 0 11575
0.10350000 0.10349800 16539.72809085 0 376.63730826 0 6239.79757922 0 623.78599224 0 879.23781259 0 11364
0.10450000 0.10450100 16431.66220062 0 129.69678400 0 6622.09173824 0 472.25790540 0 217.73837479 0 12093
0.10550000 0.10551000 16440.96295346 0 196.77182051 0 6099.01296915 0 538.23899622 0 705.94707132 0 12067
0.10650000 0.10649700 15974.59663210 0 299.88948878 0 6263.12696762 0 -179.29304856 0 863.37006390 0 12054
0.10750000 0.10749900 16017.77869889 0 622.73079968 0 6319.83941534 0 543.60243037 0 727.63997011 0 12807
0.10850000 0.10850100 15280.25114272 0 194.04027798 0 6054.73474220 0 678.02709706 0 1497.86410147 0 12736
0.10950000 0.10950300 15133.43211563 0 26.81163455 0 5722.83073344 0 1286.86987972 0 1293.11467092 0 12933
0.11050000 0.11050200 15437.81032489 0 -203.83374928 0 5068.88815733 0 697.44906202 0 802.92513548 0 13428
0.11150000 0.11150900 15295.30950448 0 234.12098659 0 5441.31687493 0 19.41786820 0 691.90072006 0 13453
0.11250000 0.11250000 14858.28484389 0 573.45563254 0 4736.27551977 0 -65.93347983 0 1472.76314110 0 13668
0.11350000 0.11349100 14672.15906368 0 385.18071409 0 4863.79548471 0 -521.36698767 0 1779.34474301 0 13791
0.11450000 0.11448600 14381.95343019 0 169.72988161 0 5134.87921325 0 285.31388039 0 1722.22261927 0 14205
0.11550000 0.11549300 14337.77485416 0 -63.70628169 0 5385.97739548 0 379.41424733 0 1328.16965130 0 14776
0.11650000 0.11649800 14522.01833914 0 18.08952140 0 5213.18269436 0 254.95799467 0 678.46002496 0 14553
0.11750000 0.11747300 14420.92801355 0 46.94256047 0 5150.25867242 0 -34.74307299 0 1312.66839655 0 14568
0.11850000 0.11849100 14371.21327511 0 253.32039783 0 4953.85777479 0 -1.11643358 0 695.41618319 0 16015
0.11950000 0.11950300 14108.02411417 0 315.92332235 0 5194.68083959 0 -65.81799548 0 804.72881719 0 15270
0.12050000 0.12050700 13802.53867243 0 354.08187538 0 5129.73058221 0 184.67641288 0 797.70010540 0 15999
0.12150000 0.12150000 13523.40536375 0 311.33495095 0 4696.09405301 0 314.45402485 0 327.03329308 0 15670
0.12250000 0.12250700 13277.04613654 0 357.86196707 0 4681.67788609 0 453.74387107 0 865.55684805 0 16887
0.12350000 0.12352200 12978.86842917 0 35.84676232 0 4211.02657503 0 326.60590134 0 381.90994934 0 16407
0.12450000 0.12449800 13009.98166191 0 -78.86418365 0 4482.89643862 0 410.42893638 0 478.03655172 0 16306
0.12550000 0.12549900 13201.42215802 0 -136.60812915 0 4162.90625137 0 495.98589748 0 928.36793228 0 17523
0.12650000 0.12650100 13176.39870393 0 -192.41486070 0 3690.92626132 0 563.69869991 0 507.24202289 0 17154
0.12750000 0.12750600 13363.74243987 0 -90.65908838 0 3570.28221010 0 548.96254281 0 1240.89758708 0 18007
0.12850000 0.12850300 13358.87061694 0 237.57001577 0 3458.85033312 0 584.01863042 0 594.92487037 0 17496
0.12950000 0.12949900 12972.11431103 0 272.81986907 0 3179.67273515 0 180.36706406 0 659.66253912 0 18405
0.13050000 0.13049000 12873.34917365 0 494.00395134 0 3099.71947763 0 -788.30080886 0 587.44108602 0 18100
0.13150000 0.13148800 12536.30760617 0 323.03064765 0 3337.04368779 0 -429.81325544 0 608.86492731 0 19059
0.13250000 0.13249300 12257.17429749 0 76.99927198 0 3566.24081154 0 -404.72336740 0 478.57466671 0 18957
0.13350000 0.13349100 12303.23516874 0 -14.29348555 0 3527.68697652 0 175.77537096 0 253.03362462 0 19468
0.13450000 0.13450700 12392.81027652 0 -169.38885401 0 3484.26131858 0 215.53166045 0 -185.39722123 0 19953
0.13550000 0.13551000 12325.82271137 0 208.10877390 0 3270.24435216 0 486.34854596 0 -639.39464853 0 19956
0.13650000 0.13649900 12097.06848061 0 451.75638876 0 3376.94834644 0 -105.52479168 0 -806.80709256 0 19723
0.13750000 0.13749600 11569.91509600 0 418.89151424 0 3304.79000560 0 48.63009350 0 -178.86122789 0 20946
0.13850000 0.13851100 11536.25522855 0 290.79468118 0 3284.17333678 0 137.05434384 0 -60.94672618 0 20955
0.13950000 0.13949800 11113.29242048 0 138.52142688 0 3276.06839502 0 158.69077377 0 81.12171995 0 20506
0.14050000 0.14048300 11157.02810351 0 280.14089024 0 3343.39920224 0 172.95303536 0 -178.54455940 0 21447
0.14150000 0.14148400 10871.51713574 0 193.73689628 0 3318.91829206 0 88.27444179 0 293.39999921 0 21771
0.14250000 0.14249400 10752.25712511 0 31.58424944 0 2813.72132756 0 185.43929606 0 149.20289863 0 22470
0.14350000 0.14350900 10833.40619371 0 13.82490477 0 2941.72847479 0 333.93245867 0 453.45266893 0 22519
0.14450000 0.14449900 10782.89424789 0 -83.34969315 0 2768.94484600 0 412.04771027 0 -314.15285761 0 22218
0.14550000 0.14550500 10769.69603670 0 304.71037901 0 2825.10367748 0 -254.10542566 0 243.31876682 0 23559
0.14650000 0.14650700 10599.91300793 0 389.32397804 0 2811.93868327 0 -452.97877342 0 311.46006822 0 23044
0.14750000 0.14750500 10276.19144721 0 153.99278635 0 3175.44310706 0 -110.87272457 0 626.60500614 0 23649
0.14850000 0.14849900 10280.44321994 0 42.70695333 0 3103.67229759 0 114.35829242 0 755.78139087 0 23640
0.14950000 0.14949500 10397.44447630 0 -55.33848293 0 3646.86948087 0 414.24445951 0 582.31017070 0 24457
0.15050000 0.15050000 10385.63030572 0 -99.60729841 0 3137.95221523 0 546.71043194 0 858.41298408 0 24591
0.15150000 0.15149900 10391.83080762 0 39.28195110 0 3093.27538459 0 265.09802974 0 575.10762341 0 25020
0.15250000 0.15250500 10248.49956284 0 311.02935478 0 3140.32169274 0 -54.86082284 0 177.74735201 0 25297
0.15350000 0.15350100 9944.09920893 0 475.88187731 0 3191.67513525 0 -330.33948927 0 597.63426825 0 25452
0.15450000 0.15450400 9501.93698962 0 406.58905413 0 2961.62544249 0 -316.94086900 0 315.58783091 0 26061
0.15550000 0.15549900 9283.07034493 0 190.17160769 0 2799.69269202 0 105.18907880 0 111.57803166 0 26128
0.15650000 0.15649500 9243.76359182 0 8.10165329 0 2907.57035273 0 358.52630656 0 -343.00844332 0 26331
0.15750000 0.15749700 9113.55305195 0 -92.55046291 0 2575.21237865 0 529.24494677 0 248.56372709 0 27345
0.15850000 0.15849900 9210.62412364 0 4.25041083 0 2480.64365237 0 512.99188117 0 -97.07085024 0 26980
0.15950000 0.15949700 9220.83280712 0 -26.37704580 0 2041.19415264 0 373.45180041 0 48.87656345 0 27777
0.16050000 0.16050000 9236.62194231 0 81.45388970 0 2175.10284900 0 243.00984896 0 119.07621003 0 28224
0.16150000 0.16150500 9160.49970919 0 102.36729682 0 2069.25142373 0 -204.75718117 0 477.92139954 0 28075
0.16250000 0.16249700 9093.27962521 0 204.33311113 0 2228.09499558 0 -364.87185591 0 467.37722462 0 28590
0.16350000 0.16349900 9049.53286985 0 154.56411831 0 2477.66519699 0 -205.98510200 0 322.49806883 0 29163
0.16450000 0.16449100 8992.72077121 0 54.98029323 0 2451.71166762 0 -91.28445329 0 311.39363427 0 28996
0.16550000 0.16550500 8915.98956021 0 114.89862188 0 2583.74914108 0 -84.90380467 0 182.87273117 0 30777
0.16650000 0.16650700 8835.92557945 0 120.21444502 0 2586.97118760 0 11.58187321 0 -36.01472949 0 29211
0.16750000 0.16749900 8731.44712246 0 179.45249003 0 2595.35293749 0 305.74231968 0 100.45643500 0 30922
0.16850000 0.16850800 8568.82788785 0 67.54937491 0 2207.52261607 0 292.21193875 0 82.57972369 0 30867
0.16950000 0.16949900 8551.77650763 0 89.13575793 0 2387.81328109 0 224.35298164 0 -27.79452482 0 30852
0.17050000 0.17049200 8458.23750756 0 69.66806427 0 2012.71613321 0 237.21680861 0 57.96140596 0 31257
0.17150000 0.17149500 8400.61712921 0 59.29905352 0 2026.30187576 0 108.43758817 0 -17.42972156 0 32608
0.17250000 0.17250900 8397.74939708 0 11.23530944 0 1943.86841749 0 -65.74757550 0 -34.82589398 0 32361
0.17350000 0.17350400 8423.94651760 0 -47.75615490 0 1904.21842231 0 166.81010956 0 138.97539219 0 32508
0.17450000 0.17449800 8322.26935879 0 205.22000435 0 1895.67058755 0 123.15746896 0 76.89563502 0 32791
0.17550000 0.17549800 8169.68165046 0 252.58740993 0 1858.89939683 0 46.27357061 0 404.65914791 0 33633
0.17650000 0.17650100 8121.89349655 0 117.41979024 0 1862.25431125 0 235.55485266 0 367.71855062 0 33984
0.17750000 0.17750300 7914.98496266 0 45.68939475 0 1742.47390136 0 168.72008559 0 566.03717491 0 34069
0.17850000 0.17849800 8008.71219225 0 14.39092201 0 1832.44761284 0 47.00246175 0 473.04957662 0 34536
