### header ###
fiducial parameters:
Omega_m = 0.31
Omega_nu = 0
Omega_de = 0.69
Omega_k = 0
H_0 = 100
w_de = -1
zeff = 0
beta = 0
fgrowth = 0
b_1 = 2
gamma = 0.55
Lx = 3500 Ly = 3500 Lz = 3500
nx = 700 ny = 700 nz = 700
xoffset = -685.467585 yoffset = -31.7331281 zoffset = 572.489161
bins = 400 dk = 0.001
kx_ny = 0.628318531 ky_ny = 0.628318531 kz_ny = 0.628318531
############################
A(data) = 8.0255579 (not used)
A(ran) = 8.01866537 (used)
Ngal = 476610
weighted Ngal = 0
Nran = 23820508
weighted Nran = 0
SN(data) = 3494.27603
SN(ran) = 69.8454835
SN(data+ran) = 3564.12151
############################
13 columns: k_central k_mean P_0(k) sigma^{lin}_{P_0(k)} P^img_1(k) sigma^{lin}_{P_1(k)} P_2(k) sigma^{lin}_{P_2(k)} P^img_3(k) sigma^{lin}_{P_3(k)} P_4(k) sigma^{lin}_{P_4(k)} N_modes
### header ###
0.00050000 0 0 0 0 0 0 0 0 0 0 0 0
0.00150000 0.00179520 30389.65631350 0 -34477.33719005 0 -3968.27692570 0 4749.09727191 0 53017.39148263 0 3
0.00250000 0.00253879 33653.00260730 0 -5433.18978851 0 8127.76182870 0 -11516.32504387 0 -6454.48995746 0 6
0.00350000 0.00331552 43998.98291784 0 -1483.59187478 0 -12546.49414500 0 6112.22225266 0 44773.82420865 0 7
0.00450000 0.00420575 34153.47168910 0 2156.20239053 0 2901.77952685 0 -30737.21658955 0 6355.62516915 0 24
0.00550000 0.00557378 40038.41233021 0 -10514.23535849 0 -28872.19419710 0 4917.18623499 0 16332.23272374 0 45
0.00650000 0.00659388 43407.61004928 0 -18649.67030829 0 3791.29688580 0 11799.88728248 0 8997.08326719 0 40
0.00750000 0.00754703 80268.37587978 0 -24822.49139468 0 -42104.95103436 0 -10162.76655177 0 -10862.47104636 0 57
0.00850000 0.00846663 80580.72616292 0 -6097.38533741 0 -6877.02094486 0 -20940.97720626 0 -8435.93784538 0 75
0.00950000 0.00948925 76390.62628180 0 25227.18486680 0 -21451.52210365 0 -26461.85980733 0 15760.23642361 0 112
0.01050000 0.01054430 57405.57525475 0 10758.90052000 0 7020.76186566 0 -4018.77779920 0 19223.88107338 0 105
0.01150000 0.01145670 54454.02562785 0 4694.41105964 0 15890.44696348 0 -5147.83383328 0 -9163.83247896 0 144
0.01250000 0.01249090 51659.81373661 0 1575.45895380 0 19576.97751185 0 3579.71583084 0 -6142.91473706 0 169
0.01350000 0.01339930 53599.79576809 0 -3298.22411698 0 31063.51800196 0 -9215.77275468 0 1564.35341200 0 180
0.01450000 0.01448870 63698.86323518 0 -7014.01881984 0 32086.60081520 0 -3784.38775512 0 2022.91374437 0 267
0.01550000 0.01550050 69511.50159522 0 -12676.15106863 0 39555.21607512 0 14029.52133121 0 25925.62711636 0 238
0.01650000 0.01653350 80069.29547954 0 -4605.62208691 0 41739.23214560 0 11409.14493963 0 -3595.18386861 0 315
0.01750000 0.01747870 90469.19801195 0 -1198.08090700 0 42765.52593304 0 13411.68560633 0 18194.15486525 0 297
0.01850000 0.01844180 83005.34385170 0 3939.90962952 0 38456.84145312 0 15203.85210148 0 -5182.95524761 0 388
0.01950000 0.01947590 74641.42040695 0 11746.18650711 0 42961.39535909 0 -6762.53310624 0 6210.00195314 0 399
0.02050000 0.02045430 72369.82224715 0 6497.59451798 0 39478.59558738 0 3231.67944482 0 5979.12183602 0 462
0.02150000 0.02154770 66349.02418052 0 -2256.32942387 0 35812.21667018 0 -2017.95334285 0 2469.34988105 0 571
0.02250000 0.02255340 70303.50498950 0 -1514.28435917 0 32781.83209057 0 5025.28534219 0 -13346.58033640 0 510
0.02350000 0.02348930 71207.67103419 0 3116.44976043 0 33069.38036611 0 8326.17788945 0 -7830.40347337 0 555
0.02450000 0.02439640 67514.49709093 0 3329.16019252 0 29213.22180152 0 -5213.33770691 0 -6691.88060157 0 592
0.02550000 0.02547300 63540.52899027 0 5781.84622472 0 32429.17854509 0 2480.72115864 0 -8271.35880927 0 837
0.02650000 0.02652900 60909.52316686 0 2083.91118179 0 40660.56626177 0 -3662.48145886 0 -17789.46139313 0 723
0.02750000 0.02749970 62040.78259358 0 661.13848001 0 41581.78368668 0 3708.43160686 0 -11927.44046439 0 826
0.02850000 0.02848090 64064.58212394 0 -1948.47450461 0 49858.45721187 0 -9481.80750310 0 -5071.35728576 0 831
0.02950000 0.02946900 65245.66701234 0 -531.06745144 0 48795.73547577 0 766.92347133 0 -12241.00870325 0 996
0.03050000 0.03053250 65265.37575052 0 5669.62821269 0 52896.14952586 0 5384.54906558 0 -5188.26996352 0 1041
0.03150000 0.03150510 59479.97530953 0 6179.96273590 0 39706.90692514 0 8544.32483303 0 -6237.15129359 0 1036
0.03250000 0.03246190 57124.11675786 0 484.87371230 0 38756.79073245 0 11707.87626324 0 -4376.48032479 0 1059
0.03350000 0.03345080 53948.24183013 0 18.77013720 0 34856.78576158 0 16573.72012804 0 -3770.20410702 0 1302
0.03450000 0.03451200 53773.18837475 0 -132.95647642 0 19238.60726539 0 16546.92510198 0 -1130.60615956 0 1339
0.03550000 0.03553350 52543.93887338 0 459.90340536 0 16431.55147737 0 5539.07443075 0 859.15372261 0 1365
0.03650000 0.03647120 52057.64236735 0 2634.75934152 0 10960.78221842 0 2060.71466130 0 135.14326057 0 1308
0.03750000 0.03744890 49503.47847818 0 2610.10127415 0 14623.99445072 0 -6985.33042624 0 404.19964643 0 1579
0.03850000 0.03847530 47103.44135049 0 3711.78652128 0 15625.70767707 0 -8744.05850043 0 3719.17176193 0 1662
0.03950000 0.03950240 44916.54647556 0 1498.84953838 0 20533.95854592 0 -2621.87115543 0 2043.78507665 0 1683
0.04050000 0.04050350 47097.13012535 0 40.10362832 0 25571.20199892 0 -824.04780954 0 3791.96122529 0 1822
0.04150000 0.04152450 46090.54507608 0 1008.96006294 0 25448.29919343 0 3004.54177349 0 -1869.98279397 0 1887
0.04250000 0.04250150 45564.72037045 0 1155.72926457 0 22411.49266542 0 3126.78023949 0 249.08634082 0 1920
0.04350000 0.04349210 45709.10348608 0 1215.16550420 0 26351.46872889 0 5139.50744502 0 1702.75747224 0 2005
0.04450000 0.04448520 43815.07160260 0 456.02919891 0 22824.04748816 0 4940.67063593 0 1350.22572233 0 2151
0.04550000 0.04548030 43364.31725924 0 784.59711621 0 20769.68834131 0 6321.13487734 0 3620.19625038 0 2274
0.04650000 0.04648670 42173.59944824 0 634.67008753 0 17723.35961396 0 3382.36271328 0 4935.78774068 0 2311
0.04750000 0.04749250 40928.95941537 0 2029.92252598 0 16832.25891255 0 2968.62315178 0 6214.07656867 0 2568
0.04850000 0.04851840 38733.53885033 0 1513.87468315 0 16664.40246830 0 2242.15684810 0 9424.84039191 0 2493
0.04950000 0.04949480 37670.26349800 0 1487.56683939 0 16310.19879736 0 2396.48291142 0 11047.52281105 0 2644
0.05050000 0.05050630 36903.94789730 0 1000.27382412 0 18393.45671198 0 1116.94291073 0 7004.75128397 0 2829
0.05150000 0.05149060 35491.34069694 0 651.82997654 0 14501.31309173 0 379.92468150 0 7456.87859561 0 2784
0.05250000 0.05249300 35906.55287764 0 656.63204381 0 16622.65980374 0 2138.43130920 0 7243.09414802 0 3055
0.05350000 0.05348950 35930.57982249 0 -1680.60175027 0 12569.08168763 0 681.56581207 0 6518.12260819 0 3009
0.05450000 0.05448610 36795.99273032 0 -1693.60065961 0 12555.90562110 0 3326.73535339 0 3439.79486211 0 3336
0.05550000 0.05550870 36722.80466327 0 1090.80004460 0 10218.44927328 0 -641.31680412 0 -192.55769369 0 3349
0.05650000 0.05647670 37051.65271038 0 1471.37910050 0 9935.32992767 0 -1985.74394995 0 -1549.35041187 0 3324
0.05750000 0.05747970 35198.36698224 0 878.21805148 0 10297.91534851 0 -1748.70762023 0 417.68573806 0 3639
0.05850000 0.05849280 35201.57795643 0 715.28768454 0 13175.84508769 0 -1083.99720823 0 1311.19577735 0 3846
0.05950000 0.05951020 34384.99400106 0 688.07855353 0 15395.95693708 0 -381.60324594 0 -441.53995465 0 3787
0.06050000 0.06049470 34980.68507630 0 251.20115486 0 14904.23499188 0 2939.92368585 0 -1669.00902619 0 3930
0.06150000 0.06148310 33608.93475452 0 257.08941720 0 14894.38062279 0 2451.81131854 0 453.29433468 0 4083
0.06250000 0.06249100 33654.66345602 0 1510.11009272 0 14741.47181705 0 1820.63344225 0 55.91535106 0 4303
0.06350000 0.06350600 33403.76457563 0 607.10774936 0 10877.89479483 0 816.45330194 0 -1408.99762247 0 4470
0.06450000 0.06451750 31686.88988925 0 309.01972783 0 10951.50361023 0 -1274.01491061 0 1561.30852268 0 4479
0.06550000 0.06550280 32043.41874841 0 971.40605885 0 9383.37453546 0 -282.72074192 0 -428.83556916 0 4636
0.06650000 0.06648880 31587.79258212 0 327.16726821 0 11522.85771552 0 856.26716753 0 -1037.51005248 0 4653
0.06750000 0.06749660 30459.07979011 0 329.86559376 0 10008.08617405 0 1692.78130757 0 -2390.76959182 0 5220
0.06850000 0.06852730 31274.22434326 0 153.55321505 0 10790.22412692 0 -234.49966010 0 -3730.89735392 0 5029
0.06950000 0.06949320 29944.77030228 0 929.47737923 0 11980.80907002 0 -100.35490178 0 -1729.23140088 0 5040
0.07050000 0.07048030 29523.46834293 0 1866.61680723 0 13341.04417399 0 -2209.90316590 0 -116.75655798 0 5475
0.07150000 0.07148790 28900.09645565 0 1669.46299151 0 13924.44496868 0 525.42831641 0 2176.83013167 0 5509
0.07250000 0.07249820 26908.62811376 0 746.54596473 0 14529.99041301 0 873.49016878 0 2589.68390718 0 5916
0.07350000 0.07351270 26780.74276211 0 97.77206057 0 13468.70807915 0 3479.65523146 0 3394.50905360 0 5721
0.07450000 0.07449140 26309.83678757 0 -33.29968472 0 11982.24847224 0 2996.16002360 0 1988.82205625 0 6028
0.07550000 0.07549160 25958.17975133 0 223.55577425 0 10120.79136838 0 3963.03971606 0 1493.34659294 0 6183
0.07650000 0.07648840 25811.13927774 0 -282.78606864 0 8421.62132939 0 1419.50525872 0 2459.66159684 0 6330
0.07750000 0.07749960 25647.04742393 0 -271.06047665 0 6148.32910390 0 1256.50956507 0 1987.51552192 0 6583
0.07850000 0.07848650 26682.97413396 0 -679.62372630 0 5894.91680577 0 -160.40919858 0 2596.96949691 0 6549
0.07950000 0.07947320 26378.37447820 0 114.37268645 0 6205.17441952 0 -1416.75932217 0 -29.33878196 0 6828
0.08050000 0.08048110 26207.86067599 0 1517.91608171 0 7081.49356729 0 -2664.78748643 0 -184.49482676 0 7147
0.08150000 0.08149960 24895.56873849 0 1430.46686030 0 9552.49322474 0 -1989.65248061 0 1158.30911625 0 7386
0.08250000 0.08250610 23974.35131357 0 1288.23177568 0 10300.98238248 0 140.44579693 0 838.22259977 0 7227
0.08350000 0.08350160 23223.53696762 0 503.61583652 0 10993.43450431 0 976.99315395 0 263.01975437 0 7798
0.08450000 0.08449610 22889.48492784 0 -0.44594231 0 10486.72063131 0 1568.33944894 0 777.79538707 0 7371
0.08550000 0.08548940 22757.39209276 0 246.35036936 0 10709.01969670 0 1903.98590349 0 534.98151826 0 8256
0.08650000 0.08650700 22449.02784656 0 142.01253089 0 9079.07383247 0 1023.82798070 0 521.92281837 0 8037
0.08750000 0.08749060 22280.17489307 0 748.10605530 0 9204.85544241 0 102.50160412 0 1489.69272575 0 8155
0.08850000 0.08849210 21319.20782206 0 1090.38926135 0 8384.00864198 0 -797.71117772 0 453.91217041 0 8718
0.08950000 0.08949900 20651.87880524 0 932.88322634 0 8413.21743485 0 67.10127793 0 1837.17549553 0 8571
0.09050000 0.09049190 20151.52044669 0 380.02876136 0 8434.90811917 0 282.65320074 0 578.55111642 0 8932
0.09150000 0.09150830 20361.56244850 0 -269.25015154 0 7949.43096517 0 1691.38619465 0 243.33094638 0 9285
0.09250000 0.09250820 20086.96879300 0 -222.62680620 0 7632.62960746 0 912.02960978 0 -134.72029777 0 9204
0.09350000 0.09350330 20156.61371610 0 658.96055372 0 8056.94323916 0 379.43417751 0 -446.40402695 0 9349
0.09450000 0.09448040 19322.75693401 0 497.31789816 0 6874.62932270 0 841.94400814 0 -128.44671852 0 9564
0.09550000 0.09549270 19122.45857804 0 550.57356607 0 7714.59802809 0 -71.23778776 0 396.15006629 0 10155
0.09650000 0.09649430 18453.13654276 0 562.33791119 0 6516.68320596 0 -147.39921692 0 1840.85150737 0 9913
0.09750000 0.09749140 18575.37500875 0 -228.16850477 0 7416.32066980 0 636.89230313 0 695.44275677 0 10476
0.09850000 0.09850240 18469.08069049 0 21.95021961 0 7376.48244511 0 841.78124496 0 1191.48180141 0 10575
0.09950000 0.09950330 18093.95032564 0 282.22691623 0 6048.56745728 0 1126.96336469 0 414.10162652 0 10882
0.10050000 0.10051200 17790.34717911 0 466.82028668 0 6346.39085025 0 1360.22403165 0 684.11133955 0 10875
0.10150000 0.10150300 17194.76682712 0 679.58608039 0 5060.56176906 0 384.21852907 0 207.53412024 0 11118
0.10250000 0.10250800 16744.67682324 0 491.73523199 0 5080.43659211 0 310.52667124 0 475.63496447 0 11575
0.10350000 0.10349800 16424.46518948 0 281.24701549 0 4468.97852633 0 -516.06223684 0 667.17400427 0 11364
0.10450000 0.10450100 16240.33242775 0 391.54730086 0 5234.89552333 0 -524.06088429 0 81.92003457 0 12093
0.10550000 0.10551000 15778.50575956 0 252.31392350 0 4809.31964660 0 -36.03798137 0 -157.07642881 0 12067
0.10650000 0.10649700 15709.63589919 0 490.23936090 0 5472.36367372 0 -119.23897320 0 -1124.53852556 0 12054
0.10750000 0.10749900 15264.63916473 0 482.25842917 0 5158.46326511 0 -265.87419971 0 -876.24164150 0 12807
0.10850000 0.10850100 14863.37811330 0 136.54723136 0 5699.54563435 0 -15.62581840 0 -699.07558654 0 12736
0.10950000 0.10950300 14782.10724913 0 314.42080788 0 5921.53467464 0 121.55862525 0 -640.30368640 0 12933
0.11050000 0.11050200 14760.07332274 0 60.01510077 0 5773.81878923 0 428.24430701 0 -452.59788545 0 13428
0.11150000 0.11150900 14847.76613531 0 -282.28559955 0 5760.23304668 0 590.74396051 0 -129.65692363 0 13453
0.11250000 0.11250000 15115.93784242 0 -268.01005117 0 5406.78229382 0 967.47649077 0 795.90528154 0 13668
0.11350000 0.11349100 15167.09198308 0 64.36763165 0 4867.05074821 0 1216.21737505 0 870.19504491 0 13791
0.11450000 0.11448600 15088.69992336 0 45.20697356 0 4361.03443167 0 677.48123145 0 804.45422354 0 14205
0.11550000 0.11549300 15042.86049861 0 131.41631604 0 4142.84319879 0 361.13383905 0 897.40860485 0 14776
0.11650000 0.11649800 14716.11619321 0 463.36239964 0 4362.16380880 0 -172.71940931 0 1046.47309942 0 14553
0.11750000 0.11747300 14418.27065559 0 487.10589298 0 4528.06045156 0 -631.79460478 0 1028.69316023 0 14568
0.11850000 0.11849100 14169.80768666 0 115.70579435 0 4493.60337672 0 -335.50251433 0 832.95438762 0 16015
0.11950000 0.11950300 14095.95528012 0 4.05995578 0 4686.37255182 0 -165.72391449 0 817.68786616 0 15270
0.12050000 0.12050700 14018.00611340 0 297.54879932 0 4680.10561597 0 470.73435350 0 143.47850670 0 15999
0.12150000 0.12150000 13829.11225199 0 187.42567114 0 4456.32285906 0 729.65624046 0 1189.74344641 0 15670
0.12250000 0.12250700 13553.85425700 0 30.84406452 0 3879.15578324 0 715.42276690 0 446.30991218 0 16887
0.12350000 0.12352200 13734.55459804 0 -26.05384464 0 4210.77191156 0 644.52113493 0 1031.11689213 0 16407
0.12450000 0.12449800 13625.16002883 0 -129.34800576 0 4094.77823676 0 -101.21034960 0 343.29521654 0 16306
0.12550000 0.12549900 13756.25635469 0 176.73423429 0 4332.95501593 0 -344.64050400 0 520.55760072 0 17523
0.12650000 0.12650100 13551.19689904 0 227.60603067 0 4472.84276769 0 -795.25976501 0 351.62160480 0 17154
0.12750000 0.12750600 13472.36194634 0 249.44286968 0 4864.23837770 0 -569.75636882 0 292.59282673 0 18007
0.12850000 0.12850300 13243.93988533 0 517.61125509 0 4885.69654320 0 -613.25953303 0 77.12660371 0 17496
0.12950000 0.12949900 12897.92973474 0 598.28974988 0 5371.64980717 0 249.46722879 0 301.89690127 0 18405
0.13050000 0.13049000 12727.96954878 0 90.74700264 0 5009.10867563 0 657.69609423 0 476.83188278 0 18100
0.13150000 0.13148800 12433.77787835 0 -108.05481791 0 4516.53416142 0 1238.67204979 0 494.06484913 0 19059
0.13250000 0.13249300 12742.58501754 0 -226.97158646 0 4372.69358970 0 1029.57230282 0 700.90252013 0 18957
0.13350000 0.13349100 12811.45487791 0 -202.35116499 0 3852.92544574 0 786.98873837 0 594.98023199 0 19468
0.13450000 0.13450700 12740.92416882 0 110.73210605 0 3216.75395096 0 -1.41807693 0 360.82381396 0 19953
0.13550000 0.13551000 12442.85718470 0 436.74895970 0 3216.77609561 0 235.69990011 0 807.93314799 0 19956
0.13650000 0.13649900 12222.07502781 0 319.25609212 0 3219.13450080 0 -184.13719066 0 550.66325190 0 19723
0.13750000 0.13749600 11891.45540873 0 293.24387943 0 2874.32016130 0 222.69877631 0 991.39049791 0 20946
0.13850000 0.13851100 11782.94662551 0 208.27596600 0 3415.18108404 0 -65.84689425 0 519.68288706 0 20955
0.13950000 0.13949800 11492.29809902 0 202.41759894 0 3275.34869390 0 93.78214832 0 570.73184064 0 20506
0.14050000 0.14048300 11385.33944127 0 491.13400475 0 3202.92461726 0 98.83389652 0 962.54377006 0 21447
0.14150000 0.14148400 10990.83250798 0 229.70755792 0 3033.40732429 0 66.85824040 0 1187.08608846 0 21771
0.14250000 0.14249400 10870.97459182 0 153.30187328 0 3547.86075234 0 84.86549442 0 938.90657104 0 22470
0.14350000 0.14350900 10852.99313631 0 239.56524871 0 3653.19177834 0 281.69876634 0 1023.73940210 0 22519
0.14450000 0.14449900 10501.26966612 0 151.29667525 0 3262.20584434 0 96.29623039 0 1543.96926201 0 22218
0.14550000 0.14550500 10425.23601159 0 150.38320845 0 3475.13772293 0 67.06761806 0 1276.57261764 0 23559
0.14650000 0.14650700 10355.31428037 0 116.70451805 0 3572.51881971 0 320.00015235 0 1626.10376752 0 23044
0.14750000 0.14750500 10151.80495020 0 132.87232675 0 3440.16024883 0 24.90077273 0 853.71278219 0 23649
0.14850000 0.14849900 10038.18075291 0 316.85561210 0 3330.13455711 0 304.27966557 0 1503.21203435 0 23640
0.14950000 0.14949500 9873.33598101 0 84.92484208 0 3203.34536561 0 68.20696029 0 961.20180430 0 24457
0.15050000 0.15050000 9756.82190694 0 89.86033087 0 2949.27980032 0 383.66159113 0 1272.45371281 0 24591
0.15150000 0.15149900 9811.39739597 0 -21.69954218 0 2770.02993383 0 103.73583616 0 910.22814253 0 25020
0.15250000 0.15250500 9938.56304652 0 -241.27260119 0 2592.45198839 0 332.23507128 0 949.87703047 0 25297
0.15350000 0.15350100 10082.48112451 0 -53.96462887 0 2489.72295872 0 -110.07097753 0 535.71672063 0 25452
0.15450000 0.15450400 10056.33936561 0 258.08371197 0 2502.98760385 0 -333.76748103 0 271.17895053 0 26061
0.15550000 0.15549900 9847.23851141 0 312.52190417 0 2840.87066802 0 -386.78066503 0 442.50989031 0 26128
0.15650000 0.15649500 9666.40530247 0 266.17204525 0 2830.44053804 0 -426.29779231 0 198.93535278 0 26331
0.15750000 0.15749700 9482.95902488 0 133.06830690 0 3159.43252538 0 -65.15808492 0 193.66271171 0 27345
0.15850000 0.15849900 9374.04056564 0 44.72554887 0 3087.30740151 0 164.92892157 0 -16.96202656 0 26980
0.15950000 0.15949700 9423.96567824 0 8.56645841 0 3196.42516260 0 345.74552202 0 -112.19476015 0 27777
0.16050000 0.16050000 9264.97816617 0 153.81230745 0 2801.39783004 0 166.60305708 0 -168.28383599 0 28224
0.16150000 0.16150500 9195.01214564 0 101.62965854 0 2778.94315531 0 348.32315924 0 85.68993973 0 28075
0.16250000 0.16249700 9085.90545688 0 74.87404995 0 2297.24166407 0 292.17429285 0 189.65674459 0 28590
0.16350000 0.16349900 8973.79816809 0 171.05966782 0 2348.14114126 0 338.11115406 0 -246.92059408 0 29163
0.16450000 0.16449100 8773.96484977 0 194.32483673 0 2257.06019731 0 -222.05547424 0 21.60487380 0 28996
0.16550000 0.16550500 8680.03831833 0 130.66561242 0 2169.90992866 0 76.55571464 0 -76.48418743 0 30777
0.16650000 0.16650700 8506.03673380 0 -14.36977387 0 2244.72562746 0 122.42780275 0 442.79998522 0 29211
0.16750000 0.16749900 8615.53095394 0 69.25728102 0 2177.36160326 0 298.33936331 0 19.69611573 0 30922
0.16850000 0.16850800 8519.02457082 0 58.68387516 0 2177.81556858 0 296.49582123 0 370.52870666 0 30867
0.16950000 0.16949900 8550.20423751 0 34.02447910 0 1981.19322445 0 149.71886897 0 150.69876971 0 30852
0.17050000 0.17049200 8484.32390484 0 94.49642399 0 1914.32745487 0 58.07711176 0 459.70631798 0 31257
0.17150000 0.17149500 8320.98496911 0 92.51591725 0 1994.75682235 0 -116.26383953 0 292.20640259 0 32608
0.17250000 0.17250900 8342.02238627 0 88.17678388 0 1847.82707201 0 -24.49076454 0 314.08088750 0 32361
0.17350000 0.17350400 8343.68323499 0 42.45793675 0 2061.36792846 0 -106.46051385 0 -29.73948940 0 32508
0.17450000 0.17449800 8165.79526445 0 200.46222638 0 2031.47265145 0 -58.84353808 0 4.78456193 0 32791
0.17550000 0.17549800 7994.96036483 0 299.56506967 0 1984.50384957 0 -79.23112049 0 75.64933414 0 33633
0.17650000 0.17650100 7836.32716715 0 127.94957114 0 1903.68695072 0 346.21831029 0 164.09074658 0 33984
0.17750000 0.17750300 7750.51664980 0 36.06621580 0 1932.41963362 0 391.06233304 0 312.57394410 0 34069
0.17850000 0.17849800 7670.23122254 0 99.60519467 0 1751.49784609 0 248.28581173 0 97.62867396 0 34536
