### header ###
fiducial parameters:
Omega_m = 0.31
Omega_nu = 0
Omega_de = 0.69
Omega_k = 0
H_0 = 100
w_de = -1
zeff = 0
beta = 0
fgrowth = 0
b_1 = 2
gamma = 0.55
Lx = 3500 Ly = 3500 Lz = 3500
nx = 700 ny = 700 nz = 700
xoffset = -685.467585 yoffset = -31.7331281 zoffset = 572.489161
bins = 400 dk = 0.001
kx_ny = 0.628318531 ky_ny = 0.628318531 kz_ny = 0.628318531
############################
A(data) = 7.97943854 (not used)
A(ran) = 7.9778214 (used)
Ngal = 474653
weighted Ngal = 0
Nran = 23820508
weighted Nran = 0
SN(data) = 3484.85716
SN(ran) = 69.4897177
SN(data+ran) = 3554.34687
############################
13 columns: k_central k_mean P_0(k) sigma^{lin}_{P_0(k)} P^img_1(k) sigma^{lin}_{P_1(k)} P_2(k) sigma^{lin}_{P_2(k)} P^img_3(k) sigma^{lin}_{P_3(k)} P_4(k) sigma^{lin}_{P_4(k)} N_modes
### header ###
0.00050000 0 0 0 0 0 0 0 0 0 0 0 0
0.00150000 0.00179520 6243.18571062 0 -21665.88231213 0 8934.54677661 0 -90599.96216806 0 -42285.20848241 0 3
0.00250000 0.00253879 15844.27536899 0 -27243.12304653 0 -29233.04126294 0 49602.68650856 0 47038.00391081 0 6
0.00350000 0.00331552 36718.37573334 0 -39998.44123762 0 1623.54606048 0 -70861.43943711 0 -55842.05226711 0 7
0.00450000 0.00420575 61824.31864338 0 -46212.89426533 0 -42078.26673155 0 2040.57410245 0 15683.17304288 0 24
0.00550000 0.00557378 101727.42716431 0 -31928.70946329 0 -29259.39339601 0 -38952.54943525 0 5359.43703289 0 45
0.00650000 0.00659388 111769.58288183 0 -8623.52517246 0 -96763.81467135 0 -13806.74615586 0 29246.10660623 0 40
0.00750000 0.00754703 128230.80818971 0 -5904.08469072 0 -27022.45161290 0 -40870.82971008 0 10981.33245329 0 57
0.00850000 0.00846663 113907.64880431 0 12323.82969290 0 -51231.31476613 0 -36048.83225156 0 29834.71139359 0 75
0.00950000 0.00948925 105635.95782529 0 15044.63207058 0 -17650.83588640 0 -14130.27948706 0 587.19860211 0 112
0.01050000 0.01054430 95257.31415653 0 4273.97274162 0 -19516.85478808 0 -24753.62153431 0 31904.90396493 0 105
0.01150000 0.01145670 98293.34562180 0 3605.71364952 0 1158.98452807 0 -10314.34667854 0 -19767.64294523 0 144
0.01250000 0.01249090 79867.66844460 0 14255.28603426 0 7393.73312717 0 -8503.50117142 0 8923.52981342 0 169
0.01350000 0.01339930 80253.20679478 0 16232.69252362 0 17099.87700342 0 1435.80372086 0 -11915.37163034 0 180
0.01450000 0.01448870 72129.55279859 0 3296.57434058 0 10571.53463942 0 -4192.86796232 0 -4977.56362222 0 267
0.01550000 0.01550050 72113.83009735 0 -5870.46911257 0 33393.02442056 0 -3783.81199422 0 -18504.73357641 0 238
0.01650000 0.01653350 73610.80841283 0 1630.98666276 0 18640.25883219 0 -6178.45689973 0 -14256.72543649 0 315
0.01750000 0.01747870 77144.31943220 0 2866.28165348 0 33129.39236662 0 -7861.47241681 0 1828.48372055 0 297
0.01850000 0.01844180 75164.80920113 0 2624.55065804 0 34101.98537869 0 -9901.20502258 0 -5103.15700264 0 388
0.01950000 0.01947590 79650.87232465 0 -1272.17690469 0 31999.57234213 0 12055.54726254 0 -10748.12714796 0 399
0.02050000 0.02045430 80763.53024567 0 -228.64572197 0 38290.20296459 0 4684.95529424 0 -7517.54386330 0 462
0.02150000 0.02154770 77064.93086325 0 6421.88196087 0 36816.80870098 0 7164.56922040 0 2424.76162901 0 571
0.02250000 0.02255340 77127.82166822 0 7741.42627113 0 35647.34975363 0 9101.94925554 0 -550.71086290 0 510
0.02350000 0.02348930 70444.78785418 0 4567.99832718 0 28738.44051329 0 16725.18953156 0 10179.23109877 0 555
0.02450000 0.02439640 62000.14716150 0 256.17262870 0 21334.15546057 0 18680.78354103 0 7831.31140401 0 592
0.02550000 0.02547300 67514.27564443 0 -2264.31257006 0 21113.04113394 0 14781.33218640 0 1721.20396538 0 837
0.02650000 0.02652900 67358.26658774 0 -1695.21721903 0 16656.65184093 0 4907.69725262 0 3494.22641092 0 723
0.02750000 0.02749970 66982.47188339 0 -938.68512455 0 17662.24038096 0 -5278.00008385 0 13282.25012920 0 826
0.02850000 0.02848090 69501.42577964 0 380.05644217 0 20249.39979808 0 -1630.78736091 0 15191.78326742 0 831
0.02950000 0.02946900 69733.72315433 0 3591.89538814 0 28122.59780688 0 -3326.48068992 0 9839.58753496 0 996
0.03050000 0.03053250 65297.37476924 0 5141.15722142 0 29393.03635657 0 767.10837916 0 11814.94564423 0 1041
0.03150000 0.03150510 61569.76589580 0 4610.01779987 0 35645.57818166 0 -1525.01344192 0 16952.94725308 0 1036
0.03250000 0.03246190 59670.64074290 0 4592.33529713 0 33181.10012353 0 -299.91384790 0 16455.91059197 0 1059
0.03350000 0.03345080 55843.49166934 0 2871.19776570 0 33238.67621258 0 6774.95625468 0 14456.47017622 0 1302
0.03450000 0.03451200 54563.42019706 0 370.27182873 0 21170.61722300 0 12404.21477108 0 9503.68641694 0 1339
0.03550000 0.03553350 54098.60400117 0 -3028.11475303 0 18382.93800341 0 11088.15824314 0 8880.79063962 0 1365
0.03650000 0.03647120 54457.79021829 0 611.63522298 0 14560.21785977 0 5233.20145764 0 -2853.28274414 0 1308
0.03750000 0.03744890 51595.37280617 0 2545.89286253 0 10929.10429712 0 805.89141130 0 2201.08959535 0 1579
0.03850000 0.03847530 50334.45645582 0 3106.34072787 0 13621.17399190 0 -4592.05848901 0 -3400.95314665 0 1662
0.03950000 0.03950240 47462.51684436 0 -644.51338430 0 9850.11731586 0 -4603.39654963 0 109.22793072 0 1683
0.04050000 0.04050350 48317.74321335 0 371.76437811 0 16556.22585483 0 -1317.92775084 0 -1901.64964295 0 1822
0.04150000 0.04152450 48338.89135376 0 2690.64136488 0 13632.79993296 0 -323.55436862 0 -3927.86294012 0 1887
0.04250000 0.04250150 44181.34410760 0 3455.51756335 0 17675.08427775 0 965.80235526 0 -2082.08424820 0 1920
0.04350000 0.04349210 43042.99839300 0 957.42724877 0 12569.08168763 0 2959.02344616 0 -4953.78026851 0 2005
0.04450000 0.04448520 42767.07605852 0 482.78436460 0 19447.98492771 0 2882.12615029 0 -1760.41106757 0 2151
0.04550000 0.04548030 43649.98323956 0 -435.26969711 0 16106.91091368 0 585.80016748 0 -1485.10878328 0 2274
0.04650000 0.04648670 43004.90959562 0 194.65811371 0 18504.95502291 0 813.29547490 0 1183.80868031 0 2311
0.04750000 0.04749250 43231.56008466 0 1230.72212057 0 17748.49379130 0 -741.05962779 0 5529.34185723 0 2568
0.04850000 0.04851840 43875.52649611 0 831.11416723 0 21094.55035149 0 2531.16667052 0 3538.92538621 0 2493
0.04950000 0.04949480 41987.03077504 0 -46.02012509 0 17026.46748987 0 2217.68701025 0 1074.75846040 0 2644
0.05050000 0.05050630 42394.38160512 0 1258.70188538 0 17953.22107719 0 2482.75846641 0 1142.96287405 0 2829
0.05150000 0.05149060 40361.28132192 0 2514.14850727 0 13466.82578393 0 -713.77631220 0 -2920.66891299 0 2784
0.05250000 0.05249300 38490.61204381 0 1935.28736575 0 13413.56790155 0 368.18248103 0 -1614.30066926 0 3055
0.05350000 0.05348950 36030.56291561 0 1640.96282742 0 12834.59603678 0 -921.13659694 0 998.67608765 0 3009
0.05450000 0.05448610 36175.61037073 0 226.64495288 0 13667.23486314 0 2910.62631438 0 -2128.85374823 0 3336
0.05550000 0.05550870 35388.70024587 0 -169.45307349 0 12819.53767503 0 2632.82168468 0 -257.95084407 0 3349
0.05650000 0.05647670 35913.86061202 0 951.66410370 0 13632.35703997 0 2446.06478196 0 -2537.47789566 0 3324
0.05750000 0.05747970 34931.19178436 0 601.38114297 0 14152.75630644 0 219.92737341 0 -438.17618237 0 3639
0.05850000 0.05849280 35130.82580084 0 222.76963919 0 13429.84421903 0 -657.53333105 0 644.85662637 0 3846
0.05950000 0.05951020 34091.35594687 0 147.34385529 0 13480.00185046 0 54.28074374 0 20.93654828 0 3787
0.06050000 0.06049470 34737.97971628 0 39.28970173 0 13995.75074051 0 -156.92363072 0 637.59318129 0 3930
0.06150000 0.06148310 34459.40002384 0 -61.28731089 0 12505.19437343 0 1531.10322057 0 -1799.25278303 0 4083
0.06250000 0.06249100 33767.26899943 0 590.93219004 0 10469.63603412 0 876.34350689 0 -2049.87485530 0 4303
0.06350000 0.06350600 34182.03828713 0 695.41396872 0 11313.92294619 0 -477.83614264 0 -6341.57438896 0 4470
0.06450000 0.06451750 32494.61598477 0 1108.38400365 0 11096.46248675 0 -810.70565813 0 -2816.82157851 0 4479
0.06550000 0.06550280 32263.64728905 0 1384.67172485 0 12386.16688163 0 43.34438707 0 -5409.57251967 0 4636
0.06650000 0.06648880 31503.08929726 0 322.55453769 0 11865.76761515 0 1324.53792876 0 -1573.57665858 0 4653
0.06750000 0.06749660 30988.00474670 0 -183.54039236 0 10953.39697777 0 1959.97865010 0 -1927.02741144 0 5220
0.06850000 0.06852730 31335.78646925 0 222.95786871 0 12016.79412568 0 2028.22846028 0 -620.36464387 0 5029
0.06950000 0.06949320 31021.88606064 0 732.01796734 0 10866.44601097 0 1217.36889684 0 -479.13271188 0 5040
0.07050000 0.07048030 29756.76222686 0 1017.00189245 0 10148.14001068 0 2415.49409314 0 1016.23568758 0 5475
0.07150000 0.07148790 29012.14838281 0 808.48122807 0 8809.18591501 0 709.98293372 0 1654.54856998 0 5509
0.07250000 0.07249820 29011.70548982 0 406.24691929 0 8593.59667847 0 -588.59039334 0 91.07651503 0 5916
0.07350000 0.07351270 28264.87718080 0 805.46734126 0 8397.90440963 0 374.16596536 0 1011.55541587 0 5721
0.07450000 0.07449140 27784.89189991 0 234.20070733 0 8813.48197704 0 -273.57278715 0 -12.78399551 0 6028
0.07550000 0.07549160 27375.21588162 0 767.84136706 0 8872.61926390 0 -556.62459159 0 203.87471689 0 6183
0.07650000 0.07648840 26962.32888913 0 827.47026514 0 10043.82763857 0 -125.66092160 0 -1773.57606178 0 6330
0.07750000 0.07749960 25800.06695292 0 1034.18614057 0 10321.85371476 0 593.25516378 0 825.14396969 0 6583
0.07850000 0.07848650 25379.76150280 0 417.36464064 0 10059.86036490 0 1592.75392516 0 2024.05419382 0 6549
0.07950000 0.07947320 25367.58194550 0 -471.60131654 0 9862.38545176 0 848.63501403 0 574.24951823 0 6828
0.08050000 0.08048110 24783.95970431 0 596.36648706 0 10674.67334511 0 1264.11625222 0 2223.79893355 0 7147
0.08150000 0.08149960 24744.09933497 0 632.76343320 0 9436.05665695 0 -207.34810518 0 1513.78610456 0 7386
0.08250000 0.08250610 24079.87056910 0 683.81460124 0 10295.87804074 0 442.91070847 0 2216.66835637 0 7227
0.08350000 0.08350160 23567.22192999 0 740.09633553 0 9531.09042087 0 -1061.30890745 0 1244.99434726 0 7798
0.08450000 0.08449610 23263.72950671 0 726.33454301 0 9760.16574904 0 249.04648045 0 818.98111370 0 7371
0.08550000 0.08548940 22649.99054202 0 311.37370409 0 8918.21509750 0 698.18647886 0 1415.22026902 0 8256
0.08650000 0.08650700 22760.16017396 0 -425.07651488 0 8312.25997715 0 1814.44401268 0 367.78277011 0 8037
0.08750000 0.08749060 22751.19159086 0 170.22481453 0 7682.76509424 0 2080.56733970 0 300.79409772 0 8155
0.08850000 0.08849210 22229.68509190 0 395.12366178 0 6909.60679680 0 1646.82008725 0 223.43397868 0 8718
0.08950000 0.08949900 21581.17902727 0 332.33029327 0 5795.00014661 0 1460.01889524 0 575.33349883 0 8571
0.09050000 0.09049190 21232.17934899 0 589.00892722 0 5131.12569513 0 1149.98272799 0 101.53465799 0 8932
0.09150000 0.09150830 20459.22035340 0 914.54967091 0 4946.66076365 0 -293.15862253 0 499.20462231 0 9285
0.09250000 0.09250820 19697.22295938 0 1066.56051111 0 4826.00564010 0 -768.57767666 0 416.67040588 0 9204
0.09350000 0.09350330 19149.36432735 0 331.21309570 0 4513.26782560 0 -239.70254553 0 1179.18044854 0 9349
0.09450000 0.09448040 18830.14920283 0 493.16024019 0 5156.71383779 0 -25.63209979 0 826.13383553 0 9564
0.09550000 0.09549270 18342.30257132 0 406.35985701 0 4479.39758398 0 1015.63556757 0 -176.02892720 0 10155
0.09650000 0.09649430 18133.47852524 0 92.99235939 0 5113.56498797 0 128.60505277 0 535.53070557 0 9913
0.09750000 0.09749140 18224.82520500 0 20.04124009 0 4784.68372388 0 -77.29722824 0 13.19876480 0 10476
0.09850000 0.09850240 18312.07512457 0 365.95583651 0 5989.37480880 0 -607.58828826 0 700.54709851 0 10575
0.09950000 0.09950330 17571.22587095 0 589.87589025 0 5792.97391117 0 -718.11666353 0 1378.15012553 0 10882
0.10050000 0.10051200 17528.15452741 0 461.63511697 0 6327.57897039 0 -134.85648736 0 1840.39754206 0 10875
0.10150000 0.10150300 17348.67214210 0 131.84592224 0 6814.51767126 0 -311.64608328 0 1928.77683876 0 11118
0.10250000 0.10250800 17057.24855287 0 610.05963116 0 7121.49787686 0 659.90613026 0 410.23849239 0 11575
0.10350000 0.10349800 16648.45832056 0 378.90381315 0 6416.12435196 0 -176.59915193 0 716.69829872 0 11364
0.10450000 0.10450100 16342.86215557 0 220.91945371 0 6765.19046419 0 -42.18456105 0 615.64119010 0 12093
0.10550000 0.10551000 16227.15636122 0 133.70607281 0 6923.82366187 0 -365.57605577 0 -180.61619137 0 12067
0.10650000 0.10649700 15985.00461743 0 244.63305178 0 6575.98657769 0 173.75024275 0 -282.49265203 0 12054
0.10750000 0.10749900 15725.13715394 0 298.93948331 0 6427.63956977 0 -132.82582299 0 -1248.34926168 0 12807
0.10850000 0.10850100 15617.51415670 0 263.26998891 0 6527.01368502 0 331.28617304 0 -9.48952491 0 12736
0.10950000 0.10950300 15448.99337296 0 109.33212130 0 6313.55033484 0 454.67394635 0 -384.11777091 0 12933
0.11050000 0.11050200 15280.80475897 0 -15.80972972 0 6467.52208377 0 640.69675393 0 -307.14407600 0 13428
0.11150000 0.11150900 15419.76243544 0 7.88217766 0 5939.94795081 0 1040.53279716 0 -38.00232252 0 13453
0.11250000 0.11250000 15105.30841059 0 270.44042646 0 6461.66482394 0 276.45823500 0 520.68603969 0 13668
0.11350000 0.11349100 14995.02805540 0 417.74663585 0 5597.32593162 0 698.77884823 0 834.07712136 0 13791
0.11450000 0.11448600 14788.75064402 0 143.16183821 0 5965.49180417 0 123.87938454 0 959.59520997 0 14205
0.11550000 0.11549300 14521.35399965 0 121.59405669 0 5576.36602074 0 224.18689677 0 994.86831514 0 14776
0.11650000 0.11649800 14431.11455238 0 172.73491057 0 5513.33127555 0 325.31486826 0 1297.41073295 0 14553
0.11750000 0.11747300 14360.47312004 0 164.39191381 0 5191.61380562 0 444.93140774 0 1162.42802109 0 14568
0.11850000 0.11849100 14473.63227969 0 154.90182421 0 5324.29347392 0 645.13232726 0 1563.04687767 0 16015
0.11950000 0.11950300 14160.72838031 0 193.38811805 0 5183.66387640 0 390.02374897 0 1798.53308192 0 15270
0.12050000 0.12050700 14125.73983388 0 123.61364874 0 4953.42595412 0 558.15478688 0 1330.27339301 0 15999
0.12150000 0.12150000 13908.05792795 0 159.60977673 0 4692.39589652 0 235.20053826 0 2017.14506314 0 15670
0.12250000 0.12250700 13805.52820013 0 44.14159446 0 4572.15044899 0 86.07702820 0 1983.92808868 0 16887
0.12350000 0.12352200 13863.21501243 0 48.66862519 0 4436.86878435 0 17.25212147 0 1142.16566667 0 16407
0.12450000 0.12449800 13768.76808173 0 117.60912699 0 4541.54654319 0 94.32037403 0 372.57708675 0 16306
0.12550000 0.12549900 13353.55590103 0 460.64414390 0 4323.02314057 0 -290.77253653 0 557.96877182 0 17523
0.12650000 0.12650100 13117.82610564 0 249.04869491 0 3806.08951176 0 -93.24669069 0 -80.99095580 0 17154
0.12750000 0.12750600 13018.95024501 0 -68.77043090 0 3633.29481064 0 722.46919442 0 -54.55323366 0 18007
0.12850000 0.12850300 13014.07842209 0 -60.07721651 0 3401.13030384 0 640.34686847 0 -774.96862254 0 17496
0.12950000 0.12949900 13059.80712359 0 -57.53301771 0 3187.00261418 0 302.19253235 0 -1042.70297282 0 18405
0.13050000 0.13049000 12902.69083442 0 530.67106221 0 3569.76181083 0 -532.61204075 0 -813.07402841 0 18100
0.13150000 0.13148800 12595.98743694 0 381.41390919 0 3547.05247263 0 -775.52002432 0 -806.42288289 0 19059
0.13250000 0.13249300 12461.01579740 0 120.18122805 0 3590.75493869 0 -63.85387578 0 -110.64507757 0 18957
0.13350000 0.13349100 12376.20178929 0 23.76696667 0 3796.84412054 0 228.97235555 0 -340.94124028 0 19468
0.13450000 0.13450700 12353.83569316 0 4.22818868 0 3831.92124556 0 571.21016507 0 -715.01862705 0 19953
0.13550000 0.13551000 12233.03662939 0 103.74225811 0 3508.67579481 0 807.40831980 0 -425.28246012 0 19956
0.13650000 0.13649900 12089.09640674 0 135.09786404 0 3212.55753986 0 154.36481646 0 -389.11028217 0 19723
0.13750000 0.13749600 12117.10938853 0 148.89287353 0 3297.71479004 0 112.99639647 0 20.75462998 0 20946
0.13850000 0.13851100 11840.96560756 0 283.73496687 0 3215.36991036 0 -174.57845265 0 -137.16063816 0 20955
0.13950000 0.13949800 11693.26079448 0 375.80356220 0 3311.17873702 0 -196.91243904 0 185.07723104 0 20506
0.14050000 0.14048300 11358.10152222 0 307.42752752 0 3562.24370228 0 172.07610724 0 86.04159676 0 21447
0.14150000 0.14148400 11306.06159557 0 164.94774452 0 3276.27876919 0 271.94736987 0 6.54588093 0 21771
0.14250000 0.14249400 10874.55095274 0 89.03101374 0 3183.89129090 0 421.54001433 0 -369.01290539 0 22470
0.14350000 0.14350900 11057.99723033 0 101.27822295 0 3032.00113904 0 211.79807253 0 -350.21763401 0 22519
0.14450000 0.14449900 10905.71954710 0 130.05220562 0 3239.60722939 0 -51.12446683 0 -139.28652452 0 22218
0.14550000 0.14550500 10653.46984308 0 422.42247862 0 3267.24375214 0 -278.98936846 0 234.73328616 0 23559
0.14650000 0.14650700 10393.45843937 0 293.74102681 0 3280.56375889 0 123.53282077 0 901.03036230 0 23044
0.14750000 0.14750500 10443.56070917 0 -49.11395409 0 3444.05770716 0 157.59793531 0 800.01311405 0 23649
0.14850000 0.14849900 10390.63499654 0 -21.93239317 0 3490.89364115 0 372.58373015 0 942.70327122 0 23640
0.14950000 0.14949500 10482.52422021 0 237.01529230 0 3462.90280401 0 86.46201294 0 622.12071459 0 24457
0.15050000 0.15050000 10187.33604054 0 116.13207886 0 3199.06037590 0 149.21175649 0 726.07545061 0 24591
0.15150000 0.15149900 10084.57379390 0 92.44472221 0 3163.62893648 0 -111.66439580 0 450.14647273 0 25020
0.15250000 0.15250500 10080.78705881 0 19.52482686 0 3292.67688224 0 -32.50336312 0 374.58671371 0 25297
0.15350000 0.15350100 10072.43852590 0 196.18166560 0 3388.55214285 0 96.91960228 0 -172.33852134 0 25452
0.15450000 0.15450400 9737.78858058 0 279.20749325 0 3071.93901466 0 -99.72101118 0 204.92880221 0 26061
0.15550000 0.15549900 9608.92886434 0 335.89115293 0 2949.85556121 0 216.59681810 0 374.58671371 0 26128
0.15650000 0.15649500 9429.66792553 0 -37.27398499 0 2965.15751411 0 105.09164234 0 215.31575012 0 26331
0.15750000 0.15749700 9425.89226276 0 37.16281885 0 2926.14971377 0 364.41567613 0 173.52879626 0 27345
0.15850000 0.15849900 9346.30439197 0 164.85362976 0 2958.13766017 0 88.56520104 0 -20.30963325 0 26980
0.15950000 0.15949700 9162.10519628 0 173.75024275 0 2534.05654729 0 30.48233167 0 289.55679526 0 27777
0.16050000 0.16050000 9086.74695357 0 75.47339489 0 2709.13214733 0 211.70285053 0 245.82886286 0 28224
0.16150000 0.16150500 9106.65499359 0 -50.87655748 0 2396.02894611 0 335.73060422 0 193.13566904 0 28075
0.16250000 0.16249700 8972.34769354 0 -8.67515542 0 2344.25475525 0 503.20283880 0 109.88872706 0 28590
0.16350000 0.16349900 9051.99092596 0 -17.02846051 0 2214.57568698 0 169.47853984 0 -78.27480380 0 29163
0.16450000 0.16449100 8990.62810182 0 169.66123320 0 2155.70413592 0 -91.11183574 0 289.66862574 0 28996
0.16550000 0.16550500 8884.71024260 0 347.05869974 0 2385.70953937 0 -132.00979265 0 41.13479393 0 30777
0.16650000 0.16650700 8580.68634773 0 245.09366049 0 2414.02147394 0 -543.24922320 0 672.22298439 0 29211
0.16750000 0.16749900 8505.28381572 0 200.54637605 0 2667.50020601 0 -249.74514414 0 388.66628195 0 30922
0.16850000 0.16850800 8475.47711731 0 110.96019594 0 2836.49709972 0 90.71478218 0 575.83396791 0 30867
0.16950000 0.16949900 8393.26510553 0 22.17631649 0 2783.60460406 0 258.32730311 0 617.64860259 0 30852
0.17050000 0.17049200 8444.80677756 0 -48.91055548 0 2471.15467000 0 501.01273295 0 561.42998056 0 31257
0.17150000 0.17149500 8407.01693295 0 16.59243236 0 2428.85838919 0 313.07109148 0 233.16212326 0 32608
0.17250000 0.17250900 8317.17608937 0 162.70006258 0 2388.28939106 0 -0.67055106 0 184.91668233 0 32361
0.17350000 0.17350400 8188.05063734 0 210.81595731 0 2317.21613805 0 -14.64647127 0 471.14624399 0 32508
0.17450000 0.17449800 8030.50252749 0 35.90743866 0 2068.49850565 0 -45.51478419 0 313.00576476 0 32791
0.17550000 0.17549800 8014.52516278 0 2.74506184 0 2180.73866233 0 142.89056625 0 76.07373635 0 33633
0.17650000 0.17650100 8051.29635350 0 162.09994258 0 2017.43294358 0 41.71110844 0 -146.36063285 0 33984
0.17750000 0.17750300 7747.71535163 0 185.75817902 0 2140.09215792 0 -20.43962234 0 -133.54330964 0 34069
0.17850000 0.17849800 7735.30327550 0 194.45770463 0 2034.21858801 0 -102.76711846 0 -160.85984220 0 34536
