### header ###
fiducial parameters:
Omega_m = 0.31
Omega_nu = 0
Omega_de = 0.69
Omega_k = 0
H_0 = 100
w_de = -1
zeff = 0
beta = 0
fgrowth = 0
b_1 = 2
gamma = 0.55
Lx = 3500 Ly = 3500 Lz = 3500
nx = 700 ny = 700 nz = 700
xoffset = -685.467585 yoffset = -31.7331281 zoffset = 572.489161
bins = 400 dk = 0.001
kx_ny = 0.628318531 ky_ny = 0.628318531 kz_ny = 0.628318531
############################
A(data) = 8.00187858 (not used)
A(ran) = 8.00170855 (used)
Ngal = 475721
weighted Ngal = 0
Nran = 23820508
weighted Nran = 0
SN(data) = 3487.32392
SN(ran) = 69.6977834
SN(data+ran) = 3557.0217
############################
13 columns: k_central k_mean P_0(k) sigma^{lin}_{P_0(k)} P^img_1(k) sigma^{lin}_{P_1(k)} P_2(k) sigma^{lin}_{P_2(k)} P^img_3(k) sigma^{lin}_{P_3(k)} P_4(k) sigma^{lin}_{P_4(k)} N_modes
### header ###
0.00050000 0 0 0 0 0 0 0 0 0 0 0 0
0.00150000 0.00179520 19020.37174322 0 -38103.85573790 0 7332.99035322 0 -87986.00772488 0 -14997.68541335 0 3
0.00250000 0.00253879 29130.29008862 0 -29014.69501752 0 -35997.12449465 0 31547.60004303 0 36954.54842172 0 6
0.00350000 0.00331552 67327.15335500 0 -38203.06376827 0 8759.74798470 0 -59162.97464997 0 -90872.00918886 0 7
0.00450000 0.00420575 85200.10007726 0 -18693.18454482 0 4484.23618993 0 -37359.68478684 0 15468.03777165 0 24
0.00550000 0.00557378 106731.56436609 0 12541.62232208 0 50302.90033009 0 -38117.80686717 0 12439.31404076 0 45
0.00650000 0.00659388 59268.16173575 0 28061.03568089 0 38227.64432937 0 -18745.55664122 0 15783.59902898 0 40
0.00750000 0.00754703 91282.79243963 0 13448.77789447 0 56853.95203229 0 35787.52538584 0 -33774.57673381 0 57
0.00850000 0.00846663 70585.51710263 0 -12017.23701867 0 51064.56555436 0 26453.66628697 0 2549.13705370 0 75
0.00950000 0.00948925 83677.98758444 0 -7534.41808632 0 44028.98891810 0 40255.31917341 0 -32285.90266194 0 112
0.01050000 0.01054430 89664.68289063 0 -8135.93320442 0 15686.27329382 0 28297.65126226 0 -30620.40356272 0 105
0.01150000 0.01145670 92438.63242745 0 7077.36359013 0 16062.06799817 0 7605.12595261 0 -17062.34182229 0 144
0.01250000 0.01249090 79252.26863118 0 13682.29322490 0 5623.13552077 0 -11961.43250158 0 -5602.00952502 0 169
0.01350000 0.01339930 64836.65533354 0 -40.34013318 0 13236.41070445 0 3873.74141640 0 -18215.85662189 0 180
0.01450000 0.01448870 70630.47074139 0 -2865.92733908 0 10233.65157526 0 6942.08192550 0 -18421.35897053 0 267
0.01550000 0.01550050 71982.73377149 0 -2625.93469864 0 11399.06912404 0 -2071.52125032 0 -17505.12409178 0 238
0.01650000 0.01653350 73250.07207024 0 -1892.80285542 0 -1648.42557435 0 -7970.90020299 0 -13808.40700458 0 315
0.01750000 0.01747870 70658.04083019 0 -4410.73809778 0 -8612.10960557 0 -919.13582785 0 -6713.83702168 0 297
0.01850000 0.01844180 77908.86346093 0 -5884.97385808 0 -6569.47605070 0 -3482.70012078 0 -24623.63244094 0 388
0.01950000 0.01947590 75231.68604303 0 1331.12596202 0 -4101.45484862 0 -1846.44303141 0 -18141.00770612 0 399
0.02050000 0.02045430 77750.75066252 0 6741.47354443 0 -14379.18534898 0 -9908.03664699 0 -11598.70314052 0 462
0.02150000 0.02154770 74912.02802552 0 3772.04211294 0 -3277.34171237 0 -17646.40695647 0 -15366.94744605 0 571
0.02250000 0.02255340 72267.73541233 0 2642.81999399 0 11428.30006157 0 -16763.05688244 0 1512.85602927 0 510
0.02350000 0.02348930 75688.53016505 0 5960.25459453 0 22726.72175301 0 -9250.29626346 0 -11356.44067349 0 555
0.02450000 0.02439640 73379.28610087 0 6451.85474415 0 37752.19870166 0 -3491.65763156 0 1554.24437944 0 592
0.02550000 0.02547300 69294.48402878 0 3503.00676450 0 37339.86532541 0 7508.45348462 0 -10330.95516576 0 837
0.02650000 0.02652900 66427.08407049 0 4229.72773165 0 36329.29423921 0 7721.61788203 0 673.07001724 0 723
0.02750000 0.02749970 61067.74668852 0 2673.84464813 0 30132.99982420 0 6282.03849841 0 -14557.67122506 0 826
0.02850000 0.02848090 61855.43187612 0 177.25241909 0 27028.76283805 0 7444.59938739 0 -8330.66218100 0 831
0.02950000 0.02946900 57642.08011288 0 -1354.64357994 0 20604.93214801 0 852.00542970 0 -21164.52744435 0 996
0.03050000 0.03053250 60404.29298539 0 1541.93195424 0 21125.55286098 0 -4680.41564106 0 -19535.01340079 0 1041
0.03150000 0.03150510 57409.45056844 0 2744.26463398 0 19230.30302178 0 -2265.03227118 0 -19019.48595723 0 1036
0.03250000 0.03246190 55348.33730345 0 -1000.71118095 0 14801.26237107 0 81.28260083 0 -17008.08743067 0 1059
0.03350000 0.03345080 56061.28429852 0 -880.50448655 0 21107.28352503 0 6783.67017432 0 -10723.46908059 0 1302
0.03450000 0.03451200 57677.51155230 0 885.88563642 0 19002.54530026 0 5441.18400703 0 -13407.47812290 0 1339
0.03550000 0.03553350 54626.86461827 0 3884.81374122 0 19094.44559625 0 3951.66843848 0 -4805.72114104 0 1365
0.03650000 0.03647120 50706.59729298 0 5464.36945520 0 14891.39109509 0 -188.40225018 0 488.12343963 0 1308
0.03750000 0.03744890 48099.72913767 0 1679.52773477 0 18843.32526937 0 2412.69279496 0 1587.33955833 0 1579
0.03850000 0.03847530 46650.91543515 0 1562.29395959 0 17125.78624350 0 321.52038255 0 -7423.90521230 0 1662
0.03950000 0.03950240 44847.23372220 0 1595.37806614 0 15781.49528726 0 960.69690628 0 -6426.31089079 0 1683
0.04050000 0.04050350 43627.39569693 0 1355.25255780 0 18110.22664312 0 -5747.86525986 0 -8272.96429637 0 1822
0.04150000 0.04152450 43001.25572843 0 2793.66934732 0 20910.30686651 0 -3148.59271938 0 -4392.63484670 0 1887
0.04250000 0.04250150 41252.71419307 0 1897.87398019 0 20468.29965975 0 883.69110164 0 -5439.91068967 0 1920
0.04350000 0.04349210 38916.45365634 0 1514.47258869 0 20206.32845454 0 1989.66355294 0 -2733.54662355 0 2005
0.04450000 0.04448520 39095.38242541 0 772.11528444 0 19786.68734391 0 3763.18425309 0 -2809.19274671 0 2151
0.04550000 0.04548030 38511.53873772 0 120.96071971 0 17075.07499583 0 5553.44630837 0 -3220.50746908 0 2274
0.04650000 0.04648670 38866.73891790 0 224.10828326 0 16619.67027604 0 5019.78239676 0 1813.11533370 0 2311
0.04750000 0.04749250 38588.82356495 0 561.13434948 0 16343.52649506 0 3304.12566611 0 3688.01423989 0 2568
0.04850000 0.04851840 38331.94562916 0 -283.81468761 0 14966.90435036 0 3549.97556638 0 6172.96502662 0 2493
0.04950000 0.04949480 39099.92207858 0 -260.78314476 0 16543.49268128 0 3304.19210006 0 8032.38482271 0 2644
0.05050000 0.05050630 39623.08942626 0 195.26266264 0 17395.17590633 0 1670.93561071 0 7388.29661569 0 2829
0.05150000 0.05149060 38086.47218793 0 857.91694392 0 18199.91247415 0 -2208.65199320 0 9165.96943765 0 2784
0.05250000 0.05249300 37879.19826733 0 2087.84185710 0 17965.73280424 0 110.29696368 0 8426.75888810 0 3055
0.05350000 0.05348950 36468.58408543 0 1567.97406222 0 18842.32876013 0 -78.57962490 0 6929.72521100 0 3009
0.05450000 0.05448610 34801.09196774 0 1404.21437815 0 18865.80208875 0 403.89847920 0 2962.13476943 0 3336
0.05550000 0.05550870 33759.96126505 0 1324.34969923 0 17322.43073228 0 2242.62188574 0 3956.80599719 0 3349
0.05650000 0.05647670 32860.77776652 0 -395.04726274 0 13827.89429626 0 500.96622919 0 3076.06899182 0 3324
0.05750000 0.05747970 33933.35387171 0 -1053.75979639 0 14172.24359812 0 3845.94988111 0 5.27422442 0 3639
0.05850000 0.05849280 34339.59746930 0 -385.92255986 0 11099.34129120 0 891.95880658 0 655.10517022 0 3846
0.05950000 0.05951020 34848.59224121 0 625.61514030 0 12479.61730310 0 -998.44689052 0 -278.70259524 0 3787
0.06050000 0.06049470 33288.72312076 0 1749.78163574 0 12713.02191027 0 -1246.30088159 0 1350.70183230 0 3930
0.06150000 0.06148310 32927.87605492 0 1274.43565895 0 14106.69543520 0 266.06685816 0 2001.26734935 0 4083
0.06250000 0.06249100 31197.49313227 0 371.36577442 0 12734.28077393 0 1896.40136099 0 325.13660383 0 4303
0.06350000 0.06350600 31556.56862613 0 -88.64580756 0 11971.17614742 0 2451.80024622 0 -1013.81970630 0 4470
0.06450000 0.06451750 31468.21147408 0 -694.83377890 0 10639.04260384 0 2727.22432608 0 -2283.83307872 0 4479
0.06550000 0.06550280 31254.84777483 0 116.85953060 0 9162.95776529 0 2275.65063068 0 -409.39921017 0 4636
0.06650000 0.06648880 30570.68882428 0 471.34111690 0 8987.30640437 0 -890.10087047 0 -2919.91599490 0 4653
0.06750000 0.06749660 30471.48079391 0 910.96666659 0 7597.16495107 0 -551.76937715 0 -2470.97751280 0 5220
0.06850000 0.06852730 30062.91200810 0 654.35557383 0 8975.75796959 0 591.63085373 0 -2779.71821805 0 5029
0.06950000 0.06949320 29252.52855462 0 389.86652196 0 8907.06526641 0 -37.78619074 0 -1023.00641420 0 5040
0.07050000 0.07048030 29140.58735071 0 1084.37256004 0 9152.30618882 0 -145.02752494 0 -1360.60049069 0 5475
0.07150000 0.07148790 28857.24655860 0 115.82758993 0 9966.01133974 0 1139.87369543 0 -1296.22599419 0 5509
0.07250000 0.07249820 28294.55101131 0 50.38760361 0 9641.26005281 0 970.29993360 0 1736.81594338 0 5916
0.07350000 0.07351270 28748.73777537 0 294.04662298 0 9556.97751629 0 837.16076382 0 1331.17025132 0 5721
0.07450000 0.07449140 29098.73396289 0 554.04031097 0 10314.00343647 0 152.80472589 0 1440.63125448 0 6028
0.07550000 0.07549160 28101.00677348 0 850.88712490 0 10269.11623165 0 -92.30930767 0 1954.35390909 0 6183
0.07650000 0.07648840 27159.19482441 0 1103.28962700 0 11644.76401177 0 -1302.00574775 0 2670.14649164 0 6330
0.07750000 0.07749960 26803.66247448 0 365.48747717 0 11659.37948053 0 1327.80426458 0 1682.51726247 0 6583
0.07850000 0.07848650 26199.00281614 0 609.39972060 0 12770.15510634 0 1857.58179017 0 2080.85522014 0 6549
0.07950000 0.07947320 25494.47078793 0 1093.75192640 0 9992.20846026 0 330.63844204 0 -11.65583634 0 6828
0.08050000 0.08048110 24664.48931952 0 271.59526994 0 9402.95040574 0 383.31170566 0 579.29074772 0 7147
0.08150000 0.08149960 24317.81482945 0 452.41519209 0 9133.40573035 0 154.43567934 0 -156.95131154 0 7386
0.08250000 0.08250610 23556.14960517 0 509.76762019 0 8671.40190497 0 1027.84059122 0 -1033.87611548 0 7227
0.08350000 0.08350160 23180.68707057 0 270.31641642 0 7584.90788749 0 925.53673882 0 -1496.91188153 0 7798
0.08450000 0.08449610 22835.00908974 0 526.03507981 0 7332.28172443 0 -61.21567295 0 -1693.06918802 0 7371
0.08550000 0.08548940 22889.37420459 0 439.44174910 0 8192.75637539 0 -92.35038600 0 -589.81831416 0 8256
0.08650000 0.08650700 22405.95650301 0 191.90110483 0 7898.84151307 0 345.56282866 0 827.37836484 0 8037
0.08750000 0.08749060 22260.57687814 0 0.74499473 0 7602.95577695 0 1407.77966674 0 938.26105450 0 8155
0.08850000 0.08849210 22566.39448963 0 -570.71080322 0 7906.44820023 0 766.41192992 0 -1345.47569499 0 8718
0.08950000 0.08949900 22627.40299939 0 329.93313495 0 7794.60664723 0 35.08277191 0 56.33665302 0 8571
0.09050000 0.09049190 21812.81206248 0 1394.12749024 0 7867.10823014 0 -222.53712037 0 229.20487437 0 8932
0.09150000 0.09150830 21155.89103099 0 498.96767456 0 6917.66744927 0 701.74290959 0 1660.43904678 0 9285
0.09250000 0.09250820 20416.25973310 0 785.83389489 0 6674.90672762 0 1210.41547685 0 1426.10436432 0 9204
0.09350000 0.09350330 19730.10776409 0 140.16123818 0 5971.48193189 0 1378.37157202 0 95.97125766 0 9349
0.09450000 0.09448040 19867.18314535 0 271.42918507 0 5884.66383299 0 642.90678997 0 195.28370006 0 9564
0.09550000 0.09549270 18909.75921828 0 727.34544627 0 5787.57061666 0 -17.54575952 0 -453.89002576 0 10155
0.09650000 0.09649430 18653.98851497 0 710.36160723 0 6498.91212463 0 -1140.82591536 0 1081.12615441 0 9913
0.09750000 0.09749140 18185.18628214 0 177.28895776 0 6287.60787779 0 -386.43963743 0 486.05623659 0 10476
0.09850000 0.09850240 18460.11210739 0 88.97388055 0 7063.54532876 0 -207.39350171 0 1287.57850851 0 10575
0.09950000 0.09950330 18247.96636387 0 112.34423654 0 7602.80076440 0 154.11790362 0 806.36198510 0 10882
0.10050000 0.10051200 18211.09552222 0 241.88047183 0 7882.68699116 0 562.53610581 0 845.09740625 0 10875
0.10150000 0.10150300 17795.21900203 0 531.18260362 0 7157.13969045 0 461.40481261 0 812.40636722 0 11118
0.10250000 0.10250800 17192.88453190 0 738.53624496 0 6714.51243350 0 611.69944247 0 175.52070749 0 11575
0.10350000 0.10349800 16884.52028570 0 232.26858665 0 6663.09255704 0 676.07947512 0 1301.55178243 0 11364
0.10450000 0.10450100 16249.63318060 0 152.25110965 0 5653.45154613 0 848.37702886 0 668.89353632 0 12093
0.10550000 0.10551000 16343.63721831 0 -63.84479648 0 5214.85461541 0 1115.63637640 0 28.90729347 0 12067
0.10650000 0.10649700 16189.95334982 0 -292.36030791 0 4378.61728348 0 933.29733129 0 -304.03275273 0 12054
0.10750000 0.10749900 16423.69012675 0 108.01207873 0 4139.65436925 0 75.09826453 0 -286.53183612 0 12807
0.10850000 0.10850100 16150.31442697 0 358.06901954 0 4767.24481229 0 -717.43350109 0 -481.27742119 0 12736
0.10950000 0.10950300 15916.13475706 0 712.88277559 0 4962.07343980 0 -961.53175958 0 526.67616742 0 12933
0.11050000 0.11050200 15566.47073929 0 391.29928079 0 5782.94238488 0 -338.30049081 0 296.32641466 0 13428
0.11150000 0.11150900 15254.12045615 0 181.50640629 0 5445.87867275 0 211.78478574 0 216.46395020 0 13453
0.11250000 0.11250000 15557.72360268 0 -100.74265459 0 6450.65893307 0 436.78882007 0 624.93529955 0 13668
0.11350000 0.11349100 15441.57491533 0 -176.44303215 0 5199.22049277 0 497.92576879 0 277.49349737 0 13791
0.11450000 0.11448600 15495.16496745 0 65.39259676 0 5886.83400865 0 311.53868172 0 93.65359863 0 14205
0.11550000 0.11549300 15701.55310207 0 349.40049644 0 5422.02888509 0 -243.64540040 0 107.61823614 0 14776
0.11650000 0.11649800 15056.03656515 0 710.31288900 0 5296.97804859 0 -5.23218280 0 638.12465288 0 14553
0.11750000 0.11747300 14612.03633992 0 220.10120891 0 5050.18700071 0 -13.01153179 0 571.01750662 0 14568
0.11850000 0.11849100 14535.85874517 0 59.83772212 0 5069.63000309 0 671.31062482 0 755.09601396 0 16015
0.11950000 0.11950300 14701.83289420 0 -110.63599827 0 5213.06089879 0 575.67231197 0 62.47957883 0 15270
0.12050000 0.12050700 14734.82842216 0 56.81785625 0 5038.51677035 0 -7.38532923 0 373.94119717 0 15999
0.12150000 0.12150000 14396.01528271 0 276.98306320 0 5151.87523184 0 -392.97784523 0 411.47194938 0 15670
0.12250000 0.12250700 14425.35694348 0 383.09911703 0 5564.10895717 0 -609.61009477 0 519.68399429 0 16887
0.12350000 0.12352200 14112.56376735 0 169.75091903 0 5829.61223399 0 192.79021251 0 1038.14006776 0 16407
0.12450000 0.12449800 13972.27741190 0 94.13059438 0 5474.91030843 0 471.40312192 0 441.54991975 0 16306
0.12550000 0.12549900 13814.05389024 0 238.35725807 0 5687.43251100 0 382.17125621 0 177.98651423 0 17523
0.12650000 0.12650100 13711.63488567 0 260.87393782 0 5234.41941337 0 391.75213887 0 443.97918781 0 17154
0.12750000 0.12750600 13333.51499311 0 258.91081463 0 5191.55844399 0 267.54944245 0 -171.15046088 0 18007
0.12850000 0.12850300 13025.59363990 0 221.78973844 0 4515.36049499 0 400.71186412 0 86.35605079 0 17496
0.12950000 0.12949900 12854.41549821 0 244.02961007 0 4287.11559118 0 577.59778926 0 -931.88782434 0 18405
0.13050000 0.13049000 12649.79893556 0 11.61630814 0 3849.03905973 0 -73.01688891 0 -469.72123578 0 18100
0.13150000 0.13148800 12577.71810099 0 144.66435269 0 4118.09655282 0 212.93298582 0 -1264.65879614 0 19059
0.13250000 0.13249300 12406.98285229 0 165.81360032 0 3663.41153415 0 5.40477820 0 -423.21082815 0 18957
0.13350000 0.13349100 12439.42476400 0 319.29263080 0 4040.09202448 0 134.17332492 0 197.34647417 0 19468
0.13450000 0.13450700 12202.36628964 0 148.13441928 0 3665.53742051 0 273.32144538 0 303.52564025 0 19953
0.13550000 0.13551000 12128.29243660 0 46.67627106 0 3833.90319170 0 613.35143333 0 798.62464452 0 19956
0.13650000 0.13649900 12114.34130733 0 -54.48314584 0 3624.89091610 0 493.55995112 0 706.52283221 0 19723
0.13750000 0.13749600 12036.28141736 0 163.18835211 0 3400.72062782 0 517.18939951 0 535.75990270 0 20946
0.13850000 0.13851100 11989.88837637 0 231.70279085 0 3387.43383804 0 -14.65997951 0 245.50222927 0 20955
0.13950000 0.13949800 11629.37348027 0 203.51265186 0 2913.53833580 0 244.58433355 0 805.24589476 0 20506
0.14050000 0.14048300 11504.14548657 0 176.63458337 0 2945.13875084 0 223.09295107 0 628.23153065 0 21447
0.14150000 0.14148400 11233.42714476 0 57.37501564 0 2686.44495377 0 326.90263964 0 836.38127215 0 21771
0.14250000 0.14249400 11378.58532313 0 74.23949502 0 2756.57705918 0 398.91704026 0 75.02097970 0 22470
0.14350000 0.14350900 11252.02865045 0 181.38793241 0 2702.71019893 0 -122.92384290 0 608.33677742 0 22519
0.14450000 0.14449900 11032.30943675 0 183.68986874 0 3261.56364950 0 -500.12141080 0 587.81643783 0 22218
0.14550000 0.14550500 11068.22805846 0 266.28498296 0 3305.32147719 0 -232.35937971 0 987.68901973 0 23559
0.14650000 0.14650700 10947.77223676 0 353.12079758 0 3883.18610947 0 -561.56506292 0 1026.46540848 0 23044
0.14750000 0.14750500 10760.45064548 0 275.64552636 0 3702.03180311 0 -239.19543306 0 744.41675667 0 23649
0.14850000 0.14849900 10603.16827143 0 79.46784680 0 4125.12747908 0 119.16035970 0 838.13402117 0 23640
0.14950000 0.14949500 10298.49110940 0 276.72839973 0 3804.71654348 0 374.96317275 0 526.94633214 0 24457
0.15050000 0.15050000 10331.97381965 0 62.31072587 0 3818.90019158 0 516.96352409 0 647.95687732 0 24591
0.15150000 0.15149900 10157.18610006 0 -79.36996744 0 3462.83637006 0 705.59386416 0 286.84850461 0 25020
0.15250000 0.15250500 10081.11922856 0 97.00419484 0 2978.88719688 0 214.26609373 0 548.26387911 0 25297
0.15350000 0.15350100 10000.82272897 0 176.19501207 0 3001.71833066 0 198.32858938 0 307.79955763 0 25452
0.15450000 0.15450400 9777.91468572 0 76.89065247 0 2485.80335574 0 315.65315763 0 691.09354758 0 26061
0.15550000 0.15549900 9883.56680914 0 62.03956464 0 2614.72950592 0 359.89373867 0 472.87574112 0 26128
0.15650000 0.15649500 9686.68980154 0 -147.66273825 0 2167.96119949 0 114.54652195 0 304.04161059 0 26331
0.15750000 0.15749700 9860.13776983 0 25.26261631 0 2160.67560976 0 278.69816631 0 289.02310921 0 27345
0.15850000 0.15849900 9614.24358025 0 363.91188535 0 2234.50587165 0 -116.55836337 0 406.90129369 0 26980
0.15950000 0.15949700 9452.42155303 0 381.01862719 0 2330.02681786 0 -2.17354165 0 646.80092661 0 27777
0.16050000 0.16050000 9171.59417865 0 196.40975549 0 2271.76424467 0 112.72512451 0 1100.84928661 0 28224
0.16150000 0.16150500 9101.88282160 0 76.36992103 0 2247.29440682 0 386.44517359 0 1002.02878760 0 28075
0.16250000 0.16249700 9002.16546428 0 -48.07758449 0 2316.77324505 0 167.75014993 0 1099.96128616 0 28590
0.16350000 0.16349900 9136.11844993 0 23.85587744 0 2127.25933346 0 191.54457597 0 922.12757001 0 29163
0.16450000 0.16449100 9044.07421372 0 63.20614478 0 2172.54514197 0 -168.88838492 0 1099.19508128 0 28996
0.16550000 0.16550500 8952.52823212 0 112.66976289 0 2051.54677635 0 -135.70794914 0 992.09801947 0 30777
0.16650000 0.16650700 8914.09619267 0 116.93925134 0 2167.89476554 0 -10.44126874 0 931.07179400 0 29211
0.16750000 0.16749900 8796.97314074 0 175.99460299 0 1948.23091346 0 42.77582320 0 488.65380399 0 30922
0.16850000 0.16850800 8691.02206455 0 160.66275482 0 1962.63600805 0 194.21854241 0 516.73432696 0 30867
0.16950000 0.16949900 8522.98846310 0 216.38755116 0 2037.19704338 0 39.62397521 0 337.93953302 0 30852
0.17050000 0.17049200 8425.64058330 0 163.81947462 0 1859.95126769 0 -27.04061023 0 625.61403307 0 31257
0.17150000 0.17149500 8323.28801267 0 24.77377317 0 2030.50935919 0 -29.25883978 0 654.67445678 0 32608
0.17250000 0.17250900 8345.44373463 0 13.62349918 0 1902.79009241 0 4.12106394 0 492.24234446 0 32361
0.17350000 0.17350400 8376.90020944 0 128.56076347 0 2202.60650385 0 -20.34783277 0 441.60749583 0 32508
0.17450000 0.17449800 8170.32384530 0 256.18702272 0 2164.73915297 0 -255.28462825 0 0.27289848 0 32791
0.17550000 0.17549800 8014.20406536 0 203.07861673 0 2353.53336345 0 -210.84917429 0 676.23005874 0 33633
0.17650000 0.17650100 7936.05559679 0 106.25434717 0 2391.94325825 0 61.67307069 0 481.88197013 0 33984
0.17750000 0.17750300 7931.40522037 0 -21.04328549 0 2367.90524107 0 238.79350767 0 501.13785022 0 34069
0.17850000 0.17849800 8012.79788011 0 -114.11580851 0 2351.09745199 0 142.26830159 0 289.62212198 0 34536
