### header ###
fiducial parameters:
Omega_m = 0.31
Omega_nu = 0
Omega_de = 0.69
Omega_k = 0
H_0 = 100
w_de = -1
zeff = 0
beta = 0
fgrowth = 0
b_1 = 2
gamma = 0.55
Lx = 3500 Ly = 3500 Lz = 3500
nx = 700 ny = 700 nz = 700
xoffset = -685.467585 yoffset = -31.7331281 zoffset = 572.489161
bins = 400 dk = 0.001
kx_ny = 0.628318531 ky_ny = 0.628318531 kz_ny = 0.628318531
############################
A(data) = 7.9774272 (not used)
A(ran) = 7.97207913 (used)
Ngal = 473962
weighted Ngal = 0
Nran = 23820508
weighted Nran = 0
SN(data) = 3493.9959
SN(ran) = 69.4397004
SN(data+ran) = 3563.4356
############################
13 columns: k_central k_mean P_0(k) sigma^{lin}_{P_0(k)} P^img_1(k) sigma^{lin}_{P_1(k)} P_2(k) sigma^{lin}_{P_2(k)} P^img_3(k) sigma^{lin}_{P_3(k)} P_4(k) sigma^{lin}_{P_4(k)} N_modes
### header ###
0.00050000 0 0 0 0 0 0 0 0 0 0 0 0
0.00150000 0.00179520 31639.38961578 0 -27934.81117796 0 43299.43343580 0 34021.60030051 0 -77044.22561584 0 3
0.00250000 0.00253879 65906.46335752 0 -35252.51065060 0 34517.64045239 0 -8423.80257738 0 42452.84348016 0 6
0.00350000 0.00331552 74705.75061414 0 -16703.81994466 0 16167.80870019 0 -23999.37476766 0 22531.84883620 0 7
0.00450000 0.00420575 74791.00751525 0 13520.08366630 0 2905.63269588 0 672.71127391 0 35174.56148388 0 24
0.00550000 0.00557378 54828.38092997 0 14845.99456334 0 2825.73479999 0 10543.23377719 0 11551.42431355 0 45
0.00650000 0.00659388 53657.70402689 0 -2376.23162933 0 5582.12362965 0 8072.07910719 0 -10110.64911885 0 40
0.00750000 0.00754703 52124.74065575 0 -3880.22979875 0 11110.63506252 0 573.90406170 0 -19357.08114095 0 57
0.00850000 0.00846663 58090.06637504 0 1551.67560009 0 2888.14949499 0 -8764.46479507 0 -14216.42217415 0 75
0.00950000 0.00948925 74127.99670511 0 -19782.70130698 0 -10618.71381548 0 -16089.52736372 0 -25629.99604371 0 112
0.01050000 0.01054430 82726.32126628 0 -6995.90449644 0 11776.74612361 0 -23698.09680935 0 -33926.04613733 0 105
0.01150000 0.01145670 98107.66273459 0 -7320.36790292 0 3683.39708044 0 -20464.75651581 0 -38989.86316988 0 144
0.01250000 0.01249090 98758.71543393 0 -1673.89192143 0 21188.33294271 0 -5074.34681346 0 -26415.02387335 0 169
0.01350000 0.01339930 89311.25428242 0 7933.53110673 0 12765.61545316 0 -2098.88096495 0 -32437.37206546 0 180
0.01450000 0.01448870 92583.01554308 0 7198.97093361 0 35296.91067312 0 19483.08419739 0 -21756.23248265 0 267
0.01550000 0.01550050 82709.82350230 0 10978.46472116 0 37354.37007092 0 8033.08237918 0 10381.37853299 0 238
0.01650000 0.01653350 83824.36371854 0 -4289.82831076 0 31529.10926058 0 5474.63350031 0 6547.41997966 0 315
0.01750000 0.01747870 82788.21556201 0 1661.42448369 0 57321.86847912 0 9853.46115796 0 20143.76981932 0 297
0.01850000 0.01844180 86952.62764955 0 5108.84817760 0 50200.92421851 0 -11004.16358706 0 17325.75242972 0 388
0.01950000 0.01947590 77010.89791814 0 11950.36017676 0 50771.25966992 0 -8175.19566822 0 26651.97162447 0 399
0.02050000 0.02045430 75702.59201757 0 4406.70777155 0 52034.72265497 0 6772.17710115 0 23201.61376448 0 462
0.02150000 0.02154770 70278.70298190 0 253.45990912 0 46268.92022891 0 12820.53418426 0 4971.36312032 0 571
0.02250000 0.02255340 68563.59986750 0 3085.43617861 0 37827.82268017 0 16362.23872400 0 -2085.93741723 0 510
0.02350000 0.02348930 68120.81759800 0 1193.03192688 0 32559.05691521 0 6703.79442307 0 -9084.01208934 0 555
0.02450000 0.02439640 64747.85528849 0 -2080.55626737 0 29009.38030161 0 3627.92473310 0 -4958.59672981 0 592
0.02550000 0.02547300 66908.50875361 0 -371.74555516 0 29022.33492164 0 2550.32179245 0 -9964.99268586 0 837
0.02650000 0.02652900 66524.07763590 0 734.98424316 0 24826.14526187 0 9114.97030953 0 -11833.21498018 0 723
0.02750000 0.02749970 66622.17843379 0 269.06524372 0 22458.66076915 0 1306.84435370 0 -44.60375330 0 826
0.02850000 0.02848090 64860.68227840 0 4957.45628035 0 18823.61653119 0 8622.71689274 0 -4930.57267569 0 831
0.02950000 0.02946900 60454.56134006 0 5652.07857785 0 24007.01467179 0 7305.39811977 0 6226.72116361 0 996
0.03050000 0.03053250 56748.65422326 0 2755.12658462 0 15016.28691905 0 5623.73342631 0 1940.64637096 0 1041
0.03150000 0.03150510 53639.32396769 0 2561.81486562 0 17317.22673961 0 1283.17172323 0 9138.35505955 0 1036
0.03250000 0.03246190 52059.52466257 0 3686.43089744 0 12329.91947155 0 193.07920019 0 2543.12478132 0 1059
0.03350000 0.03345080 49621.95235374 0 2456.90458796 0 14524.89714360 0 976.52368738 0 5804.57770758 0 1302
0.03450000 0.03451200 46741.59777542 0 158.20137701 0 12737.93464112 0 84.56576659 0 6238.76785302 0 1339
0.03550000 0.03553350 48555.57675046 0 -1024.34505827 0 14609.82187496 0 1433.79963007 0 2081.01023269 0 1365
0.03650000 0.03647120 47636.02017427 0 291.90191366 0 19157.00423148 0 786.89351637 0 -673.72660610 0 1308
0.03750000 0.03744890 48525.34930370 0 1396.48589543 0 20653.87182371 0 -2205.33029575 0 6376.97261140 0 1579
0.03850000 0.03847530 46763.41025531 0 1858.23505734 0 22647.22246081 0 706.30802911 0 9237.88418734 0 1662
0.03950000 0.03950240 46138.15607280 0 796.64048391 0 24597.94464736 0 -1108.32864202 0 10283.87564064 0 1683
0.04050000 0.04050350 47444.46895491 0 1226.86895153 0 29188.64124042 0 3523.04767242 0 13722.59648724 0 1822
0.04150000 0.04152450 46543.18171467 0 1471.58947467 0 28109.75391009 0 2128.38871059 0 14409.74496548 0 1887
0.04250000 0.04250150 45229.45037494 0 -329.73604756 0 24899.55477542 0 4131.84838025 0 15932.85396754 0 1920
0.04350000 0.04349210 47792.47212396 0 -1420.21388751 0 29331.36350733 0 5763.56581645 0 19244.47559754 0 2005
0.04450000 0.04448520 47404.83003206 0 -1006.81092469 0 24763.14373365 0 5431.32963794 0 16352.60580141 0 2151
0.04550000 0.04548030 47762.90901669 0 1849.43255911 0 22451.57448127 0 6158.64851063 0 15887.56815903 0 2274
0.04650000 0.04648670 43799.01673162 0 1878.37561618 0 16686.21494820 0 3328.60657628 0 10889.69789309 0 2311
0.04750000 0.04749250 42104.06524838 0 3205.18337153 0 17136.30495207 0 4432.60593930 0 12630.64381362 0 2568
0.04850000 0.04851840 40074.84027886 0 1890.43337791 0 14381.06764420 0 2459.76124776 0 10407.14383284 0 2493
0.04950000 0.04949480 36699.10988816 0 2640.90448179 0 12397.34992969 0 -281.47621261 0 7583.22489412 0 2644
0.05050000 0.05050630 36117.48066543 0 1394.26035814 0 12980.41855464 0 -1175.55979832 0 6277.37704966 0 2829
0.05150000 0.05149060 34044.29856639 0 513.46909837 0 10860.27872604 0 -561.85626506 0 6138.30864994 0 2784
0.05250000 0.05249300 34781.60467606 0 -747.74288305 0 12389.93147207 0 -309.88004747 0 2803.30226991 0 3055
0.05350000 0.05348950 33767.26899943 0 80.33303826 0 11371.83120499 0 1752.78223577 0 1280.04932763 0 3009
0.05450000 0.05448610 35172.90063515 0 966.56966737 0 12102.05102678 0 61.80294906 0 -980.00925523 0 3336
0.05550000 0.05550870 33267.46425711 0 1892.81392775 0 11698.24334064 0 -1510.99587870 0 166.06162040 0 3349
0.05650000 0.05647670 32486.64391090 0 1699.95617406 0 12713.46480327 0 -2750.49835285 0 1718.49124580 0 3324
0.05750000 0.05747970 31182.76694026 0 1088.99082673 0 15501.36546935 0 -1060.85162043 0 445.84819624 0 3639
0.05850000 0.05849280 32093.90854958 0 -766.95115214 0 16905.88987260 0 1474.32433890 0 3787.16690864 0 3846
0.05950000 0.05951020 31920.29449643 0 -1156.29395314 0 15128.56029271 0 3081.26191216 0 961.41992910 0 3787
0.06050000 0.06049470 33325.92613215 0 -392.59031386 0 15246.03765904 0 2247.22797287 0 2095.68106307 0 3930
0.06150000 0.06148310 33203.35549641 0 -445.99435093 0 13596.15053781 0 3649.03965653 0 2874.07657015 0 4083
0.06250000 0.06249100 34281.35704076 0 421.87550578 0 13558.28318693 0 -639.73456891 0 3279.57832198 0 4303
0.06350000 0.06350600 32959.10001091 0 1213.90325917 0 13651.29071541 0 517.63450697 0 5241.18460383 0 4470
0.06450000 0.06451750 33056.53646932 0 -15.10032586 0 13655.60892208 0 348.33423156 0 5886.35789869 0 4479
0.06550000 0.06550280 32428.62492885 0 -265.50106236 0 12873.12772715 0 -232.93403337 0 3017.76212932 0 4636
0.06650000 0.06648880 32776.18520491 0 1248.24961075 0 14252.07506007 0 511.47718714 0 4196.36681697 0 4653
0.06750000 0.06749660 31297.69767187 0 1947.84338210 0 14987.60959777 0 -658.33496737 0 1384.20668720 0 5220
0.06850000 0.06852730 29563.32871228 0 1600.72599903 0 13841.07036280 0 1592.46604472 0 3467.08814279 0 5029
0.06950000 0.06949320 28871.30841112 0 309.50358842 0 13039.87693892 0 2668.14240085 0 2593.40420832 0 5040
0.07050000 0.07048030 28557.40800251 0 39.80378977 0 12910.44146179 0 2409.93578608 0 1967.48568632 0 5475
0.07150000 0.07148790 28773.76122946 0 -431.12532593 0 10160.50779751 0 2432.45689476 0 2813.33379620 0 5509
0.07250000 0.07249820 28570.58406904 0 -322.11385916 0 9619.97904451 0 2582.67512557 0 3347.21915430 0 5916
0.07350000 0.07351270 29031.08205825 0 117.62241378 0 8939.89470950 0 639.44668846 0 2185.33367713 0 5721
0.07450000 0.07449140 28814.17521505 0 381.71396919 0 10482.86746228 0 -357.95718906 0 2806.85648618 0 6028
0.07550000 0.07549160 27733.07341976 0 1189.74344641 0 9181.60356029 0 -566.93846215 0 2364.35102480 0 6183
0.07650000 0.07648840 27349.86025779 0 804.82625365 0 10777.31379618 0 -783.42455701 0 4141.07162682 0 6330
0.07750000 0.07749960 27014.81170877 0 299.27940369 0 10752.58929486 0 -123.48742424 0 3543.99651098 0 6583
0.07850000 0.07848650 26648.20703403 0 863.93032353 0 11339.38929327 0 -560.73906749 0 2772.67621946 0 6549
0.07950000 0.07947320 25901.48944826 0 447.35071072 0 10126.32753079 0 964.94757178 0 1608.56520500 0 6828
0.08050000 0.08048110 25512.07578439 0 683.69612737 0 11071.93728728 0 26.44292613 0 1669.66229335 0 7147
0.08150000 0.08149960 25154.99330899 0 282.01543483 0 10714.51156981 0 35.06970657 0 -250.22457581 0 7386
0.08250000 0.08250610 24527.63538476 0 320.43972365 0 10703.95964425 0 123.96464144 0 -345.12215013 0 7227
0.08350000 0.08350160 24207.86664400 0 792.56697561 0 10345.86958729 0 64.04963449 0 -1206.87233291 0 7798
0.08450000 0.08449610 23611.51122927 0 1015.86919362 0 11082.73280398 0 729.45250968 0 677.90530149 0 7371
0.08550000 0.08548940 23201.28159474 0 307.36995143 0 9968.05971983 0 1207.07163475 0 213.29062191 0 8256
0.08650000 0.08650700 22721.96065334 0 24.74620308 0 9607.52267909 0 1822.72611165 0 -575.19398754 0 8037
0.08750000 0.08749060 22805.99959871 0 471.64671307 0 8688.22076637 0 311.19211796 0 -1170.86513260 0 8155
0.08850000 0.08849210 21943.35477209 0 798.39544740 0 9034.41914648 0 -341.58564959 0 -130.87820105 0 8718
0.08950000 0.08949900 21227.30752607 0 805.44962554 0 8049.89016825 0 96.30619549 0 105.25783793 0 8571
0.09050000 0.09049190 20629.62343236 0 531.00433919 0 8027.91160349 0 822.20426745 0 545.61870072 0 8932
0.09150000 0.09150830 20096.60171559 0 291.95506082 0 7229.50840546 0 1250.99554731 0 -722.17799227 0 9285
0.09250000 0.09250820 19760.99955033 0 336.35729781 0 7118.26475801 0 1446.06776596 0 244.79249325 0 9204
0.09350000 0.09350330 19798.53473147 0 139.68844991 0 6065.37524636 0 563.45510877 0 540.77455861 0 9349
0.09450000 0.09448040 19184.57432028 0 394.01310760 0 6181.43535510 0 -101.90657738 0 799.16054504 0 9564
0.09550000 0.09549270 19055.24956639 0 276.88894844 0 6808.79327933 0 184.65094654 0 1439.92262569 0 10155
0.09650000 0.09649430 18699.38504672 0 446.47599706 0 6682.92309079 0 -499.98079228 0 763.92508577 0 9913
0.09750000 0.09749140 18385.26319162 0 396.21428578 0 7013.75308405 0 126.72829371 0 366.92687940 0 10476
0.09850000 0.09850240 18434.20286732 0 211.87004264 0 7406.43308374 0 -213.49545992 0 768.79580146 0 10575
0.09950000 0.09950330 17828.87886948 0 340.85376891 0 7266.51211501 0 368.40503476 0 150.84270993 0 10882
0.10050000 0.10051200 17793.00453707 0 513.70604612 0 7605.50241165 0 -41.89059083 0 336.11813559 0 10875
0.10150000 0.10150300 17206.17132168 0 553.15673945 0 6233.58600500 0 691.91400685 0 431.79630881 0 11118
0.10250000 0.10250800 16906.99710508 0 586.46450697 0 6808.71577305 0 736.10697690 0 173.18887588 0 11575
0.10350000 0.10349800 16499.09265876 0 88.95992942 0 6184.03735144 0 1229.37129694 0 988.19834667 0 11364
0.10450000 0.10450100 16172.34835336 0 -100.77764314 0 6036.16645348 0 742.22775806 0 390.83092145 0 12093
0.10550000 0.10551000 16287.38980823 0 341.12171918 0 5737.55692545 0 282.07301092 0 644.08488533 0 12067
0.10650000 0.10649700 15901.29784180 0 239.37148302 0 5301.93845011 0 10.05081428 0 1481.98638768 0 12054
0.10750000 0.10749900 15993.64103079 0 51.98644732 0 5527.57028526 0 212.78240220 0 1241.09688892 0 12807
0.10850000 0.10850100 15775.51623186 0 -53.09622644 0 5280.49135694 0 129.93262451 0 1136.57414263 0 12736
0.10950000 0.10950300 15838.29631358 0 319.45650120 0 5576.12242959 0 164.63107603 0 575.42429190 0 12933
0.11050000 0.11050200 15475.12405953 0 279.43890484 0 5053.85194022 0 636.89451759 0 618.23765027 0 13428
0.11150000 0.11150900 15342.36688496 0 71.28451297 0 4677.57005359 0 269.52917413 0 325.50752672 0 13453
0.11250000 0.11250000 15236.51545969 0 253.52080691 0 4748.34435383 0 65.10416270 0 227.28382602 0 13668
0.11350000 0.11349100 15011.08292638 0 550.00112688 0 5344.99872133 0 -614.51845636 0 -280.00470064 0 13791
0.11450000 0.11448600 14320.61275069 0 638.43135628 0 5006.45131767 0 -204.67856767 0 1257.81609940 0 14205
0.11550000 0.11549300 14164.71441725 0 150.82277975 0 5604.68902763 0 -78.34134847 0 824.53942076 0 14776
0.11650000 0.11649800 14083.44355308 0 76.80439906 0 5502.79042232 0 483.42655944 0 1049.73943524 0 14553
0.11750000 0.11747300 13981.79961124 0 92.54226939 0 5708.72459162 0 526.22773826 0 684.25860147 0 14568
0.11850000 0.11849100 14078.01811392 0 144.05648205 0 5290.35679835 0 224.49470740 0 1252.65639603 0 16015
0.11950000 0.11950300 13673.32464179 0 10.11141311 0 4961.03264127 0 277.40491877 0 860.67948897 0 15270
0.12050000 0.12050700 13869.63696083 0 -14.02586746 0 4543.83851443 0 296.58218536 0 310.20889551 0 15999
0.12150000 0.12150000 13952.67939697 0 -345.08339700 0 4315.36109179 0 280.20621695 0 -126.76815408 0 15670
0.12250000 0.12250700 14162.05705929 0 -215.29139101 0 4422.65191929 0 115.65707613 0 -1070.29742073 0 16887
0.12350000 0.12352200 13960.09785460 0 348.45602714 0 4202.42337864 0 -92.66351134 0 -623.42835615 0 16407
0.12450000 0.12449800 13876.05890922 0 557.14499085 0 4336.43172592 0 -37.32259250 0 -460.13481695 0 16306
0.12550000 0.12549900 13598.25427952 0 185.49687215 0 4156.76111109 0 594.57941383 0 265.75018967 0 17523
0.12650000 0.12650100 13471.91905334 0 -166.84221930 0 3937.93875570 0 725.15091149 0 32.75448345 0 17154
0.12750000 0.12750600 13506.02181378 0 75.98936523 0 3885.09054934 0 801.86883569 0 228.09432019 0 18007
0.12850000 0.12850300 13445.34547378 0 279.21967281 0 3731.40668086 0 192.88764897 0 861.15781340 0 17496
0.12950000 0.12949900 13008.43153643 0 357.04372226 0 3622.03425630 0 -225.56650844 0 514.95832606 0 18405
0.13050000 0.13049000 12884.31077522 0 352.25494178 0 3735.23770525 0 -153.34062641 0 746.66886754 0 18100
0.13150000 0.13148800 12516.93103774 0 212.55984847 0 3799.33539362 0 -240.62265573 0 9.05636449 0 19059
0.13250000 0.13249300 12269.68602453 0 188.75988628 0 3428.02498083 0 428.71598805 0 35.56829335 0 18957
0.13350000 0.13349100 12286.51595826 0 46.12542290 0 3393.93329271 0 51.85811907 0 -736.21659291 0 19468
0.13450000 0.13450700 12179.33585401 0 76.19342818 0 3166.52988559 0 98.44758311 0 -847.68390133 0 19953
0.13550000 0.13551000 12058.20462050 0 354.92558653 0 3297.39369262 0 -97.58737419 0 -793.69524551 0 19956
0.13650000 0.13649900 11710.86579094 0 338.28609679 0 3137.87470895 0 -298.84315409 0 -812.24028235 0 19723
0.13750000 0.13749600 11534.48365658 0 362.44369508 0 3523.36876984 0 -141.86748344 0 -517.23147435 0 20946
0.13850000 0.13851100 11421.65666667 0 138.45388569 0 3758.44529807 0 284.33397965 0 -251.87767390 0 20955
0.13950000 0.13949800 11084.17220620 0 -32.49339803 0 3609.46716763 0 544.30330853 0 -33.05664719 0 20506
0.14050000 0.14048300 11141.96974176 0 202.73537466 0 3367.02754340 0 509.25275708 0 313.32686218 0 21447
0.14150000 0.14148400 11164.88945413 0 131.75955811 0 3072.13831651 0 425.36550256 0 808.79457487 0 21771
0.14250000 0.14249400 10855.39583080 0 62.86423139 0 2918.35479710 0 609.65106237 0 750.74348307 0 22470
0.14350000 0.14350900 10957.09513426 0 37.48513423 0 2897.93743013 0 7.06466363 0 526.80460638 0 22519
0.14450000 0.14449900 10808.29416102 0 231.99842193 0 3098.30222005 0 -245.68049370 0 569.78626410 0 22218
0.14550000 0.14550500 10597.47709647 0 364.54079340 0 3440.16024883 0 -560.38364586 0 806.80487810 0 23559
0.14650000 0.14650700 10492.19035977 0 307.39652501 0 3480.36386025 0 -346.77856993 0 1230.60032499 0 23044
0.14750000 0.14750500 10440.90335121 0 84.65810978 0 3737.57396578 0 -11.61885477 0 1113.01223542 0 23649
0.14850000 0.14849900 10234.72559077 0 -2.48935757 0 3723.61176419 0 532.85341743 0 1337.37075322 0 23640
0.14950000 0.14949500 10303.68402974 0 -32.34680045 0 3395.77129863 0 612.42800144 0 905.98854936 0 24457
0.15050000 0.15050000 10266.66924787 0 -30.33850217 0 2980.71413048 0 393.68647402 0 864.33557062 0 24591
0.15150000 0.15149900 10210.21146362 0 58.78751212 0 2926.24936470 0 275.92897788 0 384.89283365 0 25020
0.15250000 0.15250500 10103.67355421 0 152.72168346 0 2501.48176768 0 -284.31958562 0 574.68244613 0 25297
0.15350000 0.15350100 9925.25411208 0 265.47670325 0 2808.35125003 0 -757.79323229 0 212.75582862 0 25452
0.15450000 0.15450400 9748.42908473 0 180.55197189 0 2831.82457864 0 -58.31704903 0 137.41308716 0 26061
0.15550000 0.15549900 9656.36270386 0 119.05960154 0 3016.26736547 0 63.54340779 0 20.55864983 0 26128
0.15650000 0.15649500 9543.15925492 0 126.19792935 0 2973.96001234 0 307.38434545 0 -610.36965626 0 26331
0.15750000 0.15749700 9563.54340491 0 114.12798807 0 2989.01837409 0 182.47634194 0 -325.41673365 0 27345
0.15850000 0.15849900 9315.24652085 0 277.15911316 0 3029.96383127 0 110.70531102 0 -377.79879514 0 26980
0.15950000 0.15949700 9221.31998941 0 275.97105271 0 3321.04417843 0 -322.50914116 0 266.33370119 0 27777
0.16050000 0.16050000 8995.15668267 0 188.78313816 0 3260.15746425 0 45.87496691 0 174.44447752 0 28224
0.16150000 0.16150500 8969.28065957 0 -14.11267449 0 3428.96612844 0 15.81803396 0 542.18295832 0 28075
0.16250000 0.16249700 8998.00227015 0 101.78057432 0 3324.97485374 0 -19.21291947 0 305.30385562 0 28590
0.16350000 0.16349900 8955.78349561 0 179.12253475 0 3311.80985953 0 238.10480906 0 225.27862799 0 29163
0.16450000 0.16449100 8666.19791231 0 118.24024951 0 3089.14540743 0 223.61777927 0 518.94547023 0 28996
0.16550000 0.16550500 8695.07453543 0 24.00347153 0 2797.24570823 0 477.42203769 0 306.54506323 0 30777
0.16650000 0.16650700 8566.95666496 0 47.27738757 0 2604.67583499 0 422.34718681 0 488.07472140 0 29211
0.16750000 0.16749900 8557.78878001 0 90.57372076 0 2302.02490840 0 479.03306095 0 489.01254731 0 30922
0.16850000 0.16850800 8478.20090921 0 -7.56058199 0 2143.18133655 0 605.44690064 0 787.05849401 0 30867
0.16950000 0.16949900 8282.85188244 0 143.56487083 0 1828.47264823 0 298.79000693 0 709.87110324 0 30852
0.17050000 0.17049200 8286.42824335 0 176.32898720 0 1909.22311313 0 227.79204573 0 981.74096684 0 31257
0.17150000 0.17149500 8106.22615693 0 112.63211699 0 1894.87338016 0 -74.27858032 0 967.10003173 0 32608
0.17250000 0.17250900 8029.88247730 0 104.27849080 0 1852.31136356 0 -124.86260698 0 1236.00361951 0 32361
0.17350000 0.17350400 8097.23542918 0 -70.90694669 0 2154.60797576 0 -134.91517068 0 838.86368738 0 32508
0.17450000 0.17449800 8165.97242165 0 2.56533586 0 1991.88909022 0 -211.21013208 0 508.24296106 0 32791
0.17550000 0.17549800 8191.58270896 0 161.66480021 0 2027.63055474 0 -362.71053811 0 451.07101186 0 33633
0.17650000 0.17650100 8072.58843413 0 124.11743952 0 2109.05643146 0 -202.02231694 0 488.35042229 0 33984
0.17750000 0.17750300 7991.46151018 0 27.29892756 0 2299.82151576 0 -2.95395232 0 317.45130318 0 34069
0.17850000 0.17849800 7978.56225177 0 73.96390485 0 2165.77995150 0 245.60852359 0 -95.12588566 0 34536
